Data from USB4F104151__32__11-30-09-664.txt Node

Date: Fri Mar 14 11:30:09 EDT 2025
User: louis
Spectrometer: USB4F10415
Trigger mode: 4
Integration Time (sec): 5.000000E-2
Scans to average: 1
Electric dark correction enabled: true
Nonlinearity correction enabled: false
Boxcar width: 0
XAxis mode: Wavelengths
Number of Pixels in Spectrum: 3648
>>>>>Begin Spectral Data<<<<<
178.204	-106.84
178.424	-106.84
178.644	-106.84
178.864	-78.16
179.084	-135.51
179.304	30.38
179.524	-31.06
179.744	-4.44
179.964	57
180.184	16.04
180.404	-18.77
180.624	9.9
180.844	-61.78
181.064	-6.49
181.283	20.14
181.503	-47.44
181.723	36.52
181.943	-35.16
182.163	52.91
182.383	-35.16
182.602	87.72
182.822	102.06
183.042	36.52
183.262	-12.63
183.482	71.34
183.701	67.24
183.921	-8.53
184.141	-57.68
184.361	32.43
184.58	89.77
184.8	52.91
185.02	71.34
185.239	85.67
185.459	59.05
185.679	77.48
185.898	-94.55
186.118	89.77
186.338	102.06
186.557	77.48
186.777	44.71
186.997	36.52
187.216	73.39
187.436	57
187.655	57
187.875	118.44
188.095	38.57
188.314	89.77
188.534	69.29
188.753	13.99
188.973	89.77
189.192	69.29
189.412	104.11
189.631	97.96
189.851	52.91
190.07	102.06
190.29	9.9
190.509	11.95
190.729	28.33
190.948	46.76
191.168	220.84
191.387	59.05
191.607	-12.63
191.826	46.76
192.045	16.04
192.265	38.57
192.484	116.39
192.704	61.1
192.923	-12.63
193.142	106.15
193.362	-12.63
193.581	102.06
193.8	77.48
194.02	104.11
194.239	140.97
194.458	26.28
194.678	3.75
194.897	7.85
195.116	36.52
195.335	83.63
195.555	1.71
195.774	44.71
195.993	52.91
196.212	34.47
196.432	3.75
196.651	50.86
196.87	40.62
197.089	136.87
197.308	18.09
197.528	102.06
197.747	-10.58
197.966	-4.44
198.185	91.82
198.404	16.04
198.623	57
198.842	42.67
199.062	59.05
199.281	75.43
199.5	69.29
199.719	110.25
199.938	24.23
200.157	93.87
200.376	36.52
200.595	61.1
200.814	26.28
201.033	48.81
201.252	93.87
201.471	-2.39
201.69	28.33
201.909	69.29
202.128	59.05
202.347	97.96
202.566	73.39
202.785	57
203.004	48.81
203.223	181.93
203.442	81.58
203.661	36.52
203.879	9.9
204.098	91.82
204.317	7.85
204.536	44.71
204.755	30.38
204.974	44.71
205.193	85.67
205.411	114.34
205.63	81.58
205.849	61.1
206.068	57
206.287	52.91
206.505	114.34
206.724	42.67
206.943	75.43
207.162	11.95
207.381	54.95
207.599	24.23
207.818	91.82
208.037	-31.06
208.255	28.33
208.474	67.24
208.693	85.67
208.911	38.57
209.13	159.4
209.349	110.25
209.567	5.8
209.786	50.86
210.005	77.48
210.223	77.48
210.442	-4.44
210.661	38.57
210.879	44.71
211.098	128.68
211.316	79.53
211.535	89.77
211.753	-45.4
211.972	93.87
212.191	63.15
212.409	16.04
212.628	-14.68
212.846	20.14
213.065	28.33
213.283	118.44
213.502	22.19
213.72	61.1
213.938	85.67
214.157	42.67
214.375	36.52
214.594	81.58
214.812	108.2
215.031	81.58
215.249	3.75
215.467	42.67
215.686	20.14
215.904	110.25
216.122	42.67
216.341	63.15
216.559	79.53
216.778	126.63
216.996	75.43
217.214	7.85
217.432	3.75
217.651	52.91
217.869	34.47
218.087	44.71
218.306	36.52
218.524	38.57
218.742	1.71
218.96	81.58
219.179	85.67
219.397	59.05
219.615	61.1
219.833	89.77
220.051	-47.44
220.27	124.58
220.488	67.24
220.706	61.1
220.924	11.95
221.142	63.15
221.36	130.73
221.578	-20.82
221.796	52.91
222.015	61.1
222.233	44.71
222.451	132.78
222.669	-2.39
222.887	20.14
223.105	20.14
223.323	69.29
223.541	18.09
223.759	59.05
223.977	32.43
224.195	52.91
224.413	89.77
224.631	9.9
224.849	36.52
225.067	44.71
225.285	18.09
225.503	30.38
225.721	42.67
225.939	3.75
226.157	95.91
226.375	179.88
226.592	-33.11
226.81	-16.73
227.028	52.91
227.246	77.48
227.464	-29.01
227.682	75.43
227.9	52.91
228.117	20.14
228.335	24.23
228.553	61.1
228.771	69.29
228.989	54.95
229.206	57
229.424	38.57
229.642	26.28
229.86	1.71
230.077	57
230.295	18.09
230.513	40.62
230.731	106.15
230.948	116.39
231.166	32.43
231.384	24.23
231.601	-6.49
231.819	69.29
232.037	-22.87
232.254	7.85
232.472	57
232.689	-49.49
232.907	57
233.125	24.23
233.342	-16.73
233.56	18.09
233.777	1.71
233.995	67.24
234.213	30.38
234.43	81.58
234.648	104.11
234.865	44.71
235.083	110.25
235.3	42.67
235.518	102.06
235.735	65.19
235.953	155.3
236.17	11.95
236.388	36.52
236.605	54.95
236.822	143.02
237.04	118.44
237.257	59.05
237.475	44.71
237.692	120.49
237.909	52.91
238.127	77.48
238.344	65.19
238.562	89.77
238.779	20.14
238.996	61.1
239.214	20.14
239.431	83.63
239.648	91.82
239.865	54.95
240.083	61.1
240.3	36.52
240.517	36.52
240.735	61.1
240.952	-14.68
241.169	140.97
241.386	61.1
241.603	54.95
241.821	36.52
242.038	116.39
242.255	63.15
242.472	16.04
242.689	69.29
242.907	73.39
243.124	83.63
243.341	30.38
243.558	50.86
243.775	69.29
243.992	-18.77
244.209	65.19
244.426	102.06
244.643	18.09
244.86	-29.01
245.078	57
245.295	73.39
245.512	20.14
245.729	-29.01
245.946	73.39
246.163	83.63
246.38	132.78
246.597	48.81
246.814	44.71
247.031	71.34
247.248	63.15
247.464	143.02
247.681	61.1
247.898	-20.82
248.115	28.33
248.332	22.19
248.549	124.58
248.766	102.06
248.983	110.25
249.2	50.86
249.417	102.06
249.633	24.23
249.85	48.81
250.067	38.57
250.284	11.95
250.501	159.4
250.717	100.01
250.934	50.86
251.151	42.67
251.368	26.28
251.585	44.71
251.801	11.95
252.018	7.85
252.235	110.25
252.451	-26.96
252.668	57
252.885	110.25
253.102	20.14
253.318	28.33
253.535	-8.53
253.752	48.81
253.968	50.86
254.185	20.14
254.401	40.62
254.618	20.14
254.835	67.24
255.051	140.97
255.268	134.82
255.484	48.81
255.701	110.25
255.917	57
256.134	-4.44
256.351	24.23
256.567	11.95
256.784	-14.68
257	24.23
257.217	81.58
257.433	95.91
257.65	-12.63
257.866	48.81
258.082	30.38
258.299	-20.82
258.515	52.91
258.732	-22.87
258.948	-20.82
259.165	28.33
259.381	7.85
259.597	52.91
259.814	32.43
260.03	87.72
260.246	18.09
260.463	-4.44
260.679	5.8
260.895	24.23
261.112	9.9
261.328	30.38
261.544	9.9
261.761	134.82
261.977	-29.01
262.193	30.38
262.409	38.57
262.626	77.48
262.842	89.77
263.058	-6.49
263.274	106.15
263.49	28.33
263.707	110.25
263.923	61.1
264.139	-45.4
264.355	106.15
264.571	77.48
264.787	69.29
265.004	145.06
265.22	83.63
265.436	59.05
265.652	71.34
265.868	22.19
266.084	52.91
266.3	67.24
266.516	11.95
266.732	44.71
266.948	18.09
267.164	83.63
267.38	36.52
267.596	32.43
267.812	110.25
268.028	52.91
268.244	48.81
268.46	32.43
268.676	65.19
268.892	57
269.108	11.95
269.324	18.09
269.54	-69.97
269.756	85.67
269.972	52.91
270.188	44.71
270.403	40.62
270.619	42.67
270.835	42.67
271.051	81.58
271.267	13.99
271.483	73.39
271.698	81.58
271.914	69.29
272.13	-2.39
272.346	52.91
272.562	73.39
272.777	69.29
272.993	67.24
273.209	28.33
273.425	93.87
273.64	-12.63
273.856	69.29
274.072	48.81
274.287	11.95
274.503	91.82
274.719	112.3
274.934	36.52
275.15	-20.82
275.366	18.09
275.581	26.28
275.797	18.09
276.012	67.24
276.228	77.48
276.444	28.33
276.659	16.04
276.875	52.91
277.09	9.9
277.306	65.19
277.521	3.75
277.737	22.19
277.952	77.48
278.168	54.95
278.383	100.01
278.599	118.44
278.814	81.58
279.03	-8.53
279.245	147.11
279.461	46.76
279.676	91.82
279.892	5.8
280.107	52.91
280.322	42.67
280.538	61.1
280.753	11.95
280.969	83.63
281.184	38.57
281.399	83.63
281.615	63.15
281.83	28.33
282.045	-22.87
282.26	-14.68
282.476	24.23
282.691	-37.2
282.906	36.52
283.122	67.24
283.337	42.67
283.552	52.91
283.767	-20.82
283.983	20.14
284.198	7.85
284.413	85.67
284.628	50.86
284.843	65.19
285.058	79.53
285.274	50.86
285.489	59.05
285.704	30.38
285.919	28.33
286.134	122.54
286.349	65.19
286.564	3.75
286.779	18.09
286.995	79.53
287.21	-39.25
287.425	124.58
287.64	-10.58
287.855	77.48
288.07	36.52
288.285	42.67
288.5	52.91
288.715	159.4
288.93	18.09
289.145	67.24
289.36	13.99
289.575	97.96
289.79	100.01
290.004	1.71
290.219	87.72
290.434	69.29
290.649	-41.3
290.864	110.25
291.079	9.9
291.294	91.82
291.509	3.75
291.724	50.86
291.938	54.95
292.153	52.91
292.368	11.95
292.583	48.81
292.798	65.19
293.012	-4.44
293.227	42.67
293.442	77.48
293.657	7.85
293.871	24.23
294.086	85.67
294.301	89.77
294.516	93.87
294.73	69.29
294.945	-53.59
295.16	9.9
295.374	75.43
295.589	85.67
295.804	57
296.018	11.95
296.233	114.34
296.447	36.52
296.662	26.28
296.877	108.2
297.091	61.1
297.306	54.95
297.52	16.04
297.735	77.48
297.949	97.96
298.164	44.71
298.378	77.48
298.593	3.75
298.807	36.52
299.022	57
299.236	102.06
299.451	50.86
299.665	54.95
299.88	57
300.094	77.48
300.309	75.43
300.523	89.77
300.737	46.76
300.952	87.72
301.166	63.15
301.381	36.52
301.595	57
301.809	81.58
302.024	11.95
302.238	-51.54
302.452	153.26
302.667	24.23
302.881	110.25
303.095	149.16
303.309	36.52
303.524	16.04
303.738	3.75
303.952	89.77
304.166	100.01
304.381	85.67
304.595	116.39
304.809	18.09
305.023	40.62
305.237	81.58
305.452	32.43
305.666	75.43
305.88	50.86
306.094	9.9
306.308	124.58
306.522	97.96
306.736	9.9
306.95	112.3
307.164	73.39
307.379	91.82
307.593	24.23
307.807	52.91
308.021	61.1
308.235	46.76
308.449	26.28
308.663	44.71
308.877	126.63
309.091	-2.39
309.305	69.29
309.519	42.67
309.733	110.25
309.947	18.09
310.161	73.39
310.374	116.39
310.588	57
310.802	28.33
311.016	65.19
311.23	3.75
311.444	-10.58
311.658	75.43
311.872	36.52
312.085	65.19
312.299	102.06
312.513	151.21
312.727	44.71
312.941	63.15
313.154	18.09
313.368	24.23
313.582	69.29
313.796	95.91
314.009	34.47
314.223	159.4
314.437	48.81
314.651	52.91
314.864	40.62
315.078	69.29
315.292	1.71
315.505	11.95
315.719	110.25
315.933	-4.44
316.146	22.19
316.36	54.95
316.573	83.63
316.787	73.39
317.001	67.24
317.214	18.09
317.428	44.71
317.641	59.05
317.855	61.1
318.068	97.96
318.282	26.28
318.495	85.67
318.709	75.43
318.922	-8.53
319.136	159.4
319.349	151.21
319.563	18.09
319.776	42.67
319.99	46.76
320.203	52.91
320.417	106.15
320.63	50.86
320.843	89.77
321.057	42.67
321.27	57
321.483	18.09
321.697	108.2
321.91	67.24
322.124	65.19
322.337	91.82
322.55	122.54
322.763	16.04
322.977	116.39
323.19	69.29
323.403	48.81
323.617	118.44
323.83	36.52
324.043	69.29
324.256	61.1
324.469	54.95
324.683	110.25
324.896	-29.01
325.109	81.58
325.322	-31.06
325.535	57
325.748	36.52
325.962	-14.68
326.175	-12.63
326.388	38.57
326.601	83.63
326.814	93.87
327.027	52.91
327.24	73.39
327.453	40.62
327.666	75.43
327.879	42.67
328.092	67.24
328.305	69.29
328.518	-22.87
328.731	42.67
328.944	87.72
329.157	-20.82
329.37	18.09
329.583	114.34
329.796	114.34
330.009	-47.44
330.222	28.33
330.435	114.34
330.648	147.11
330.861	77.48
331.073	-6.49
331.286	52.91
331.499	59.05
331.712	34.47
331.925	50.86
332.138	11.95
332.35	59.05
332.563	32.43
332.776	136.87
332.989	-0.34
333.202	34.47
333.414	50.86
333.627	-37.2
333.84	-4.44
334.053	77.48
334.265	83.63
334.478	28.33
334.691	128.68
334.903	114.34
335.116	61.1
335.329	-12.63
335.541	63.15
335.754	93.87
335.966	81.58
336.179	34.47
336.392	69.29
336.604	42.67
336.817	132.78
337.029	108.2
337.242	1.71
337.454	124.58
337.667	13.99
337.88	73.39
338.092	42.67
338.305	69.29
338.517	61.1
338.729	75.43
338.942	85.67
339.154	9.9
339.367	73.39
339.579	77.48
339.792	28.33
340.004	61.1
340.217	50.86
340.429	77.48
340.641	50.86
340.854	50.86
341.066	122.54
341.278	97.96
341.491	93.87
341.703	75.43
341.915	67.24
342.128	57
342.34	65.19
342.552	20.14
342.764	100.01
342.977	28.33
343.189	54.95
343.401	83.63
343.613	-10.58
343.826	48.81
344.038	102.06
344.25	93.87
344.462	38.57
344.674	34.47
344.886	63.15
345.099	54.95
345.311	77.48
345.523	59.05
345.735	3.75
345.947	81.58
346.159	124.58
346.371	48.81
346.583	85.67
346.795	77.48
347.007	67.24
347.219	91.82
347.431	67.24
347.643	61.1
347.855	-4.44
348.067	83.63
348.279	81.58
348.491	-6.49
348.703	48.81
348.915	32.43
349.127	69.29
349.339	85.67
349.551	34.47
349.763	30.38
349.975	71.34
350.187	65.19
350.399	77.48
350.61	36.52
350.822	44.71
351.034	50.86
351.246	46.76
351.458	46.76
351.669	91.82
351.881	54.95
352.093	61.1
352.305	100.01
352.517	110.25
352.728	44.71
352.94	50.86
353.152	100.01
353.363	97.96
353.575	18.09
353.787	110.25
353.999	61.1
354.21	155.3
354.422	153.26
354.633	63.15
354.845	75.43
355.057	26.28
355.268	102.06
355.48	110.25
355.692	93.87
355.903	75.43
356.115	71.34
356.326	40.62
356.538	36.52
356.749	81.58
356.961	73.39
357.172	112.3
357.384	-12.63
357.595	85.67
357.807	16.04
358.018	18.09
358.23	93.87
358.441	163.5
358.653	134.82
358.864	42.67
359.075	69.29
359.287	75.43
359.498	79.53
359.709	9.9
359.921	102.06
360.132	71.34
360.344	28.33
360.555	61.1
360.766	126.63
360.977	57
361.189	67.24
361.4	18.09
361.611	102.06
361.823	24.23
362.034	61.1
362.245	102.06
362.456	126.63
362.667	87.72
362.879	79.53
363.09	97.96
363.301	87.72
363.512	85.67
363.723	34.47
363.935	24.23
364.146	73.39
364.357	65.19
364.568	30.38
364.779	50.86
364.99	126.63
365.201	34.47
365.412	83.63
365.623	57
365.834	16.04
366.045	65.19
366.256	46.76
366.467	67.24
366.678	77.48
366.889	147.11
367.1	61.1
367.311	118.44
367.522	11.95
367.733	79.53
367.944	91.82
368.155	32.43
368.366	102.06
368.577	89.77
368.788	183.98
368.999	18.09
369.209	171.69
369.42	91.82
369.631	69.29
369.842	110.25
370.053	44.71
370.264	79.53
370.474	91.82
370.685	124.58
370.896	57
371.107	138.92
371.317	-6.49
371.528	69.29
371.739	134.82
371.95	65.19
372.16	65.19
372.371	-2.39
372.582	36.52
372.792	75.43
373.003	81.58
373.214	81.58
373.424	83.63
373.635	36.52
373.846	110.25
374.056	-6.49
374.267	114.34
374.477	63.15
374.688	69.29
374.898	46.76
375.109	30.38
375.319	1.71
375.53	52.91
375.74	81.58
375.951	54.95
376.161	93.87
376.372	9.9
376.582	69.29
376.793	81.58
377.003	48.81
377.214	22.19
377.424	108.2
377.635	102.06
377.845	91.82
378.055	120.49
378.266	48.81
378.476	52.91
378.686	106.15
378.897	93.87
379.107	59.05
379.317	106.15
379.528	32.43
379.738	50.86
379.948	20.14
380.158	97.96
380.369	34.47
380.579	143.02
380.789	73.39
380.999	97.96
381.21	93.87
381.42	181.93
381.63	52.91
381.84	48.81
382.05	61.1
382.261	145.06
382.471	61.1
382.681	63.15
382.891	57
383.101	102.06
383.311	67.24
383.521	34.47
383.731	69.29
383.941	102.06
384.151	44.71
384.361	54.95
384.571	52.91
384.781	69.29
384.991	145.06
385.201	171.69
385.411	81.58
385.621	73.39
385.831	83.63
386.041	134.82
386.251	61.1
386.461	81.58
386.671	85.67
386.881	132.78
387.091	79.53
387.301	81.58
387.511	57
387.72	69.29
387.93	118.44
388.14	9.9
388.35	81.58
388.56	132.78
388.769	59.05
388.979	85.67
389.189	54.95
389.399	59.05
389.609	100.01
389.818	67.24
390.028	102.06
390.238	161.45
390.447	36.52
390.657	122.54
390.867	34.47
391.076	50.86
391.286	159.4
391.496	57
391.705	124.58
391.915	134.82
392.125	120.49
392.334	89.77
392.544	77.48
392.753	102.06
392.963	73.39
393.172	134.82
393.382	24.23
393.591	151.21
393.801	44.71
394.01	186.02
394.22	106.15
394.429	24.23
394.639	128.68
394.848	93.87
395.058	124.58
395.267	75.43
395.477	59.05
395.686	106.15
395.895	114.34
396.105	128.68
396.314	188.07
396.524	44.71
396.733	100.01
396.942	122.54
397.152	114.34
397.361	140.97
397.57	73.39
397.78	145.06
397.989	130.73
398.198	186.02
398.407	134.82
398.617	114.34
398.826	134.82
399.035	7.85
399.244	112.3
399.453	147.11
399.663	140.97
399.872	100.01
400.081	124.58
400.29	183.98
400.499	100.01
400.708	143.02
400.917	108.2
401.127	132.78
401.336	130.73
401.545	222.89
401.754	175.78
401.963	147.11
402.172	122.54
402.381	71.34
402.59	186.02
402.799	159.4
403.008	190.12
403.217	186.02
403.426	181.93
403.635	114.34
403.844	257.7
404.053	132.78
404.262	167.59
404.471	216.74
404.68	147.11
404.888	97.96
405.097	132.78
405.306	253.61
405.515	216.74
405.724	208.55
405.933	235.18
406.142	173.74
406.35	208.55
406.559	218.79
406.768	313
406.977	233.13
407.185	206.5
407.394	220.84
407.603	243.37
407.812	263.85
408.02	298.66
408.229	319.14
408.438	229.03
408.646	216.74
408.855	261.8
409.064	319.14
409.272	265.89
409.481	294.57
409.69	272.04
409.898	376.48
410.107	382.63
410.315	319.14
410.524	392.87
410.733	339.62
410.941	388.77
411.15	435.88
411.358	356.01
411.567	452.26
411.775	462.5
411.984	546.47
412.192	456.36
412.401	460.45
412.609	550.56
412.818	523.94
413.026	583.33
413.234	679.58
413.443	536.23
413.651	552.61
413.86	626.34
414.068	751.26
414.276	710.3
414.485	659.1
414.693	800.41
414.901	839.33
415.11	716.45
415.318	704.16
415.526	781.98
415.734	847.52
415.943	870.05
416.151	929.44
416.359	911
416.567	880.29
416.776	978.59
416.984	1035.93
417.192	1187.48
417.4	1005.21
417.608	1109.66
417.817	1142.43
418.025	1142.43
418.233	1441.43
418.441	1248.92
418.649	1224.34
418.857	1494.68
419.065	1412.76
419.273	1433.24
419.481	1457.81
419.689	1728.14
419.897	1658.51
420.105	1625.75
420.313	1754.77
420.521	1715.86
420.729	1918.61
420.937	1934.99
421.145	1853.07
421.353	2051.72
421.561	2135.69
421.769	2227.85
421.977	2137.74
422.185	2215.56
422.393	2315.91
422.601	2506.37
422.809	2549.38
423.017	2438.79
423.224	2614.91
423.432	2807.42
423.64	2770.56
423.848	2991.74
424.056	2852.48
424.263	3133.05
424.471	3059.32
424.679	3083.9
424.887	3253.88
425.094	3395.19
425.302	3454.58
425.51	3604.08
425.718	3657.33
425.925	3784.3
426.133	3956.33
426.341	4017.77
426.548	4204.14
426.756	4116.08
426.964	4402.79
427.171	4540.01
427.379	4871.78
427.586	4793.95
427.794	4912.74
428.001	5109.34
428.209	5467.74
428.417	5385.82
428.624	5672.53
428.832	5717.59
429.039	5672.53
429.247	5580.37
429.454	6094.41
429.662	6557.25
429.869	6194.76
430.076	6590.02
430.284	6436.42
430.491	6803.01
430.699	6958.66
430.906	7056.96
431.114	7241.28
431.321	7425.59
431.528	7667.25
431.736	8037.94
431.943	8427.05
432.15	8087.09
432.358	8273.45
432.565	8728.1
432.772	8879.65
432.979	9190.94
433.187	9201.18
433.394	9416.22
433.601	9891.35
433.808	10227.21
434.016	9954.83
434.223	10384.91
434.43	11034.11
434.637	10892.8
434.844	11519.48
435.052	11718.14
435.259	11613.69
435.466	11849.21
435.673	11593.21
435.88	12389.87
436.087	12994.02
436.294	13006.31
436.501	12684.78
436.708	13106.66
436.915	13491.68
437.122	14122.45
437.329	13931.99
437.537	14507.47
437.743	14869.96
437.95	14470.61
438.157	15285.7
438.364	15920.57
438.571	15852.98
438.778	15967.67
438.985	17481.12
439.192	16768.43
439.399	17153.44
439.606	16909.74
439.813	17986.97
440.02	19023.24
440.227	18552.21
440.433	18525.58
440.64	19367.3
440.847	18963.85
441.054	19406.21
441.261	20442.48
441.467	20354.42
441.674	20794.73
441.881	21683.55
442.088	21605.73
442.294	21222.76
442.501	21896.54
442.708	22400.34
442.914	23184.71
443.121	24227.13
443.328	23844.16
443.534	25318.7
443.741	24657.2
443.948	24192.31
444.154	26176.8
444.361	25574.69
444.568	26002.72
444.774	26021.15
444.981	26131.74
445.187	27194.64
445.394	27981.06
445.6	27909.38
445.807	30502.11
446.013	29072.62
446.22	29517.03
446.426	30747.86
446.633	30737.62
446.839	32330.94
447.046	30584.02
447.252	32509.11
447.459	32298.17
447.665	32023.75
447.871	33801.38
448.078	35198.1
448.284	33674.41
448.491	34380.96
448.697	35820.68
448.903	36236.42
449.11	36707.45
449.316	35900.55
449.522	36756.6
449.728	37401.71
449.935	37270.64
450.141	37289.07
450.347	38732.89
450.553	37094.52
450.76	37588.08
450.966	38929.5
451.172	38276.19
451.378	39351.38
451.584	38718.56
451.791	39320.66
451.997	39634
452.203	40148.04
452.409	40129.61
452.615	39513.17
452.821	38356.07
453.027	37629.04
453.233	39801.93
453.44	38167.65
453.646	38249.57
453.852	38741.08
454.058	39369.81
454.264	38573.15
454.47	38827.1
454.676	37893.22
454.882	39326.8
455.088	35595.4
455.294	36009.09
455.5	37061.75
455.705	37368.94
455.911	35992.71
456.117	34851.99
456.323	34397.34
456.529	32732.34
456.735	34024.61
456.941	33238.19
457.147	32236.73
457.352	31638.73
457.558	30833.88
457.764	31165.65
457.97	30393.56
458.176	30078.18
458.381	29654.25
458.587	28531.96
458.793	28267.77
458.999	26856.72
459.204	28691.7
459.41	27970.82
459.616	26287.39
459.821	26346.78
460.027	26062.11
460.233	25230.63
460.438	24307
460.644	24618.29
460.85	23397.7
461.055	22951.24
461.261	22938.96
461.466	21259.62
461.672	20794.73
461.878	22000.99
462.083	20538.74
462.289	20303.22
462.494	20098.42
462.7	19017.1
462.905	18390.42
463.111	19389.83
463.316	19328.39
463.522	18615.69
463.727	19082.63
463.932	18939.27
464.138	18857.35
464.343	18943.37
464.549	18228.63
464.754	18730.38
464.959	18398.61
465.165	18525.58
465.37	17796.51
465.575	17350.05
465.781	17984.92
465.986	18169.24
466.191	17524.13
466.397	17108.39
466.602	16283.06
466.807	16774.57
467.012	16969.13
467.218	17020.33
467.423	16584.11
467.628	16844.2
467.833	17411.49
468.038	16944.55
468.244	16231.86
468.449	17089.96
468.654	16295.35
468.859	15920.57
469.064	16037.3
469.269	15658.43
469.474	15410.62
469.679	15834.55
469.885	15633.85
470.09	15629.76
470.295	15680.96
470.5	15312.32
470.705	15248.83
470.91	14738.89
471.115	14896.58
471.32	15097.28
471.525	14994.89
471.73	14503.37
471.935	14392.78
472.139	14042.58
472.344	14093.78
472.549	14169.55
472.754	13909.46
472.959	13495.77
473.164	13581.79
473.369	13270.5
473.574	13704.67
473.778	13526.49
473.983	13366.75
474.188	13258.21
474.393	12819.94
474.598	12815.85
474.802	12652.01
475.007	12647.91
475.212	12629.48
475.417	12262.9
475.621	12015.09
475.826	11894.26
476.031	12066.29
476.235	11591.16
476.44	11865.59
476.645	11722.23
476.849	11582.97
477.054	11472.38
477.259	11353.6
477.463	11054.59
477.668	11124.22
477.872	11185.66
478.077	10892.8
478.282	10599.94
478.486	10952.2
478.691	10825.22
478.895	10495.5
479.1	10534.41
479.304	10530.31
479.509	10110.48
479.713	10518.03
479.918	9991.7
480.122	9969.17
480.326	10090
480.531	10194.45
480.735	10255.89
480.94	10079.76
481.144	10307.09
481.348	9842.2
481.553	9897.49
481.757	9657.88
481.961	9793.05
482.166	9905.68
482.37	9750.04
482.574	9506.33
482.778	9791
482.983	9879.06
483.187	9823.76
483.391	9879.06
483.595	9758.23
483.8	9639.45
484.004	9678.36
484.208	10053.14
484.412	9840.15
484.616	9795.09
484.821	9764.37
485.025	9389.6
485.229	9801.24
485.433	9719.32
485.637	9721.37
485.841	9512.47
486.045	9489.95
486.249	9612.82
486.453	9635.35
486.657	9735.7
486.861	9600.54
487.065	9477.66
487.269	9596.44
487.473	9401.88
487.677	9760.28
487.881	10018.32
488.085	9772.57
488.289	9586.2
488.493	9666.07
488.697	9666.07
488.901	9848.34
489.105	9704.98
489.309	9829.91
489.512	9817.62
489.716	9741.85
489.92	9842.2
490.124	9842.2
490.328	10116.62
490.531	9897.49
490.735	9872.92
490.939	9936.4
491.143	10010.13
491.346	9952.79
491.55	9997.84
491.754	10014.23
491.958	10243.6
492.161	10173.97
492.365	10239.5
492.569	10116.62
492.772	10233.36
492.976	10315.28
493.18	10452.49
493.383	10364.43
493.587	10591.75
493.79	10536.46
493.994	10489.35
494.197	10520.07
494.401	10767.88
494.605	10814.98
494.808	10923.52
495.012	11017.73
495.215	11007.49
495.419	10989.06
495.622	11079.17
495.825	11460.09
496.029	11322.88
496.232	11431.42
496.436	11511.29
496.639	11808.25
496.843	11675.13
497.046	12045.81
497.249	12008.95
497.453	12008.95
497.656	12150.26
497.859	12062.19
498.063	12393.97
498.266	12887.53
498.469	12572.14
498.673	12553.71
498.876	12819.94
499.079	13012.45
499.282	13024.74
499.485	13307.36
499.689	13366.75
499.892	13450.72
500.095	13635.03
500.298	14020.05
500.501	13573.6
500.705	13979.09
500.908	14282.19
501.111	14527.95
501.314	14710.22
501.517	14738.89
501.72	15074.76
501.923	15054.28
502.126	15226.31
502.329	15504.83
502.532	15656.38
502.735	15594.94
502.938	15953.34
503.141	16016.82
503.344	16315.83
503.547	16264.63
503.75	16575.92
503.953	16678.32
504.156	16813.48
504.359	17005.99
504.562	17151.4
504.765	17604
504.968	17909.15
505.17	18034.07
505.373	17827.23
505.576	18144.66
505.779	18441.62
505.982	18529.68
506.185	19185.03
506.387	18967.95
506.59	19115.4
506.793	19555.71
506.996	19494.27
507.198	19805.56
507.401	19813.76
507.604	20186.49
507.807	20286.84
508.009	20452.72
508.212	20694.38
508.415	21003.63
508.617	21142.89
508.82	21171.56
509.022	21259.62
509.225	21925.21
509.428	22136.15
509.63	22125.91
509.833	22101.34
510.035	22527.31
510.238	22730.06
510.44	22687.06
510.643	23129.42
510.845	23330.12
511.048	23354.69
511.25	23635.27
511.453	24143.16
511.655	24798.51
511.858	24335.67
512.06	25034.03
512.262	24976.69
512.465	24997.17
512.667	25273.64
512.87	25806.11
513.072	25697.57
513.274	26324.25
513.477	26596.63
513.679	26672.4
513.881	26885.39
514.084	27079.95
514.286	27262.22
514.488	27856.13
514.69	28087.55
514.893	28351.74
515.095	28179.71
515.297	28718.32
515.499	28910.83
515.701	29457.64
515.904	29332.72
516.106	29607.14
516.308	30055.65
516.51	30323.93
516.712	30487.77
516.914	30747.86
517.116	30948.56
517.318	31235.28
517.52	31534.28
517.722	31429.84
517.925	32025.79
518.127	32556.22
518.329	32564.41
518.531	32496.83
518.733	33354.93
518.935	33342.64
519.136	33629.35
519.338	33725.61
519.54	34030.76
519.742	34813.08
519.944	34598.04
520.146	34944.15
520.348	35251.34
520.55	35630.22
520.752	35984.52
520.954	36365.44
521.155	36279.43
521.357	36811.9
521.559	36945.01
521.761	37766.25
521.963	37618.8
522.164	37782.63
522.366	38159.46
522.568	37907.56
522.77	38642.78
522.971	39322.71
523.173	38921.3
523.375	39150.68
523.576	39556.18
523.778	39490.64
523.98	40207.43
524.181	40440.9
524.383	40586.3
524.584	40844.35
524.786	40862.78
524.988	41112.63
525.189	41165.88
525.391	41944.11
525.592	42257.45
525.794	42191.91
525.995	42239.01
526.197	42865.69
526.398	42339.36
526.6	43037.72
526.801	43578.39
527.003	43611.15
527.204	43619.35
527.406	44129.29
527.607	44192.78
527.808	44633.09
528.01	43815.95
528.211	44203.02
528.412	44848.13
528.614	44968.96
528.815	45134.84
529.016	45130.75
529.218	44973.05
529.419	45067.26
529.62	45761.52
529.822	45335.54
530.023	45960.17
530.224	45880.3
530.425	45992.94
530.626	45708.27
530.828	45583.35
531.029	46400.49
531.23	46074.86
531.431	46199.79
531.632	46521.32
531.833	46660.58
532.035	46793.7
532.236	47203.29
532.437	46805.98
532.638	46543.84
532.839	46920.67
533.04	47043.55
533.241	46818.27
533.442	47746
533.643	47625.17
533.844	46971.87
534.045	47500.25
534.246	47113.18
534.447	47920.08
534.648	47289.31
534.849	47479.77
535.05	47248.35
535.251	47786.96
535.451	47313.88
535.652	47911.89
535.853	47907.79
536.054	47834.06
536.255	48069.58
536.456	47711.19
536.657	48446.41
536.857	48194.51
537.058	47571.92
537.259	47870.93
537.46	48270.28
537.66	48108.49
537.861	48071.63
538.062	47764.43
538.263	47973.33
538.463	48135.12
538.664	47948.75
538.865	48030.67
539.065	48405.45
539.266	47350.74
539.466	48333.77
539.667	47313.88
539.868	48313.29
540.068	47961.04
540.269	47897.55
540.469	47825.87
540.67	48034.77
540.87	47707.09
541.071	47741.91
541.271	48749.51
541.472	47764.43
541.672	47447
541.873	47623.12
542.073	47692.75
542.274	48094.16
542.474	47889.36
542.675	47674.32
542.875	47977.42
543.075	47979.47
543.276	47506.39
543.476	48796.61
543.676	47764.43
543.877	47829.97
544.077	47672.28
544.277	47702.99
544.478	47522.77
544.678	47829.97
544.878	47748.05
545.078	47586.26
545.279	47432.66
545.479	47569.88
545.679	48159.69
545.879	48190.41
546.079	47774.67
546.28	47571.92
546.48	47473.62
546.68	47969.23
546.88	47979.47
547.08	47698.9
547.28	47727.57
547.48	47666.13
547.68	47686.61
547.88	47598.55
548.081	47463.38
548.281	47213.53
548.481	47645.65
548.681	47829.97
548.881	47463.38
549.081	47496.15
549.28	47363.03
549.48	47928.27
549.68	47838.16
549.88	48010.19
550.08	46984.16
550.28	47455.19
550.48	47297.5
550.68	47989.71
550.88	47330.26
551.08	47715.28
551.279	47322.07
551.479	47035.36
551.679	47215.58
551.879	46605.28
552.079	47342.55
552.278	47410.14
552.478	47211.48
552.678	47330.26
552.878	47602.64
553.077	47295.45
553.277	46949.34
553.477	47180.76
553.676	47160.28
553.876	46830.56
554.076	46885.86
554.275	46789.6
554.475	46353.38
554.674	46892
554.874	46846.94
555.074	46515.17
555.273	46662.63
555.473	47084.51
555.672	46240.75
555.872	46470.12
556.071	46541.8
556.271	46429.16
556.47	46121.96
556.67	45939.69
556.869	46273.51
557.068	46449.64
557.268	45511.67
557.467	46367.72
557.667	46212.07
557.866	46203.88
558.065	45765.62
558.265	45675.51
558.464	45663.22
558.663	46394.34
558.863	45425.65
559.062	46285.8
559.261	45306.87
559.461	45683.7
559.66	45009.92
559.859	45183.99
560.058	44667.91
560.258	44694.53
560.457	44590.08
560.656	44981.24
560.855	44852.22
561.054	44545.03
561.253	44364.81
561.453	44491.78
561.652	44545.03
561.851	44610.56
562.05	44315.65
562.249	44387.33
562.448	44356.61
562.647	43889.68
562.846	44055.56
563.045	43701.26
563.244	43625.49
563.443	44174.34
563.642	43422.74
563.841	43383.83
564.04	42910.75
564.239	43125.78
564.438	43105.3
564.637	43291.67
564.836	42873.88
565.035	42611.74
565.234	42621.98
565.432	42466.34
565.631	42626.08
565.83	42529.83
566.029	41899.05
566.228	41651.25
566.427	42165.29
566.625	41923.63
566.824	41571.38
567.023	42148.9
567.222	41086.01
567.42	41759.79
567.619	41208.89
567.818	41174.07
568.016	40965.18
568.215	41233.46
568.414	40707.13
568.612	41182.26
568.811	40809.53
569.01	40399.94
569.208	40129.61
569.407	40219.72
569.605	39707.72
569.804	40555.58
570.002	39470.16
570.201	39980.1
570.4	39498.83
570.598	39382.1
570.797	39171.16
570.995	38892.63
571.193	38962.26
571.392	39236.69
571.59	38741.08
571.789	38798.43
571.987	38622.3
572.186	38890.59
572.384	38159.46
572.582	38483.04
572.781	38294.63
572.979	37694.57
573.177	38063.21
573.376	38073.45
573.574	37387.38
573.772	37598.32
573.971	37241.97
574.169	37067.89
574.367	37008.5
574.565	37512.3
574.763	36744.31
574.962	36971.64
575.16	36609.15
575.358	36603
575.556	36445.31
575.754	36887.67
575.952	35972.23
576.151	36170.88
576.349	36035.72
576.547	35597.45
576.745	36076.68
576.943	35912.84
577.141	35878.02
577.339	35476.62
577.537	35650.7
577.735	35073.17
577.933	34968.73
578.131	35419.28
578.329	35159.19
578.527	34741.4
578.725	34524.32
578.923	34735.26
579.121	34473.12
579.319	34360.48
579.516	34747.54
579.714	34358.43
579.912	34176.16
580.11	34204.83
580.308	34133.15
580.506	34038.95
580.704	33293.49
580.901	33651.88
581.099	33823.91
581.297	33596.59
581.495	33711.27
581.692	33469.61
581.89	33076.4
582.088	33674.41
582.285	33189.04
582.483	33199.28
582.681	33107.12
582.878	32879.8
583.076	32541.88
583.274	32984.24
583.471	32255.17
583.669	32484.54
583.866	32339.13
584.064	32535.74
584.262	31696.07
584.459	32199.87
584.657	32097.47
584.854	32177.34
585.052	31450.31
585.249	31755.46
585.447	31675.59
585.644	31462.6
585.841	31290.57
586.039	31470.79
586.236	30840.02
586.434	31214.8
586.631	31057.1
586.828	30741.72
587.026	30901.46
587.223	30878.93
587.42	30649.56
587.618	30977.23
587.815	30545.11
588.012	30307.55
588.21	30235.87
588.407	30258.4
588.604	30192.86
588.801	29637.86
588.999	30033.12
589.196	29934.82
589.393	29998.3
589.59	29920.48
589.787	29510.89
589.984	29109.49
590.182	29400.3
590.379	29244.65
590.576	29156.59
590.773	29039.86
590.97	28984.56
591.167	29164.78
591.364	29101.29
591.561	28939.51
591.758	28402.94
591.955	28593.4
592.152	28687.6
592.349	28491
592.546	28316.92
592.743	28333.31
592.94	27968.77
593.137	28265.72
593.334	28351.74
593.531	27647.24
593.727	27942.14
593.924	27833.6
594.121	27444.49
594.318	27583.75
594.515	27186.44
594.712	27700.48
594.908	27145.48
595.105	27323.66
595.302	27079.95
595.499	27002.13
595.696	26782.99
595.892	26764.56
596.089	26973.46
596.286	26811.67
596.482	26686.74
596.679	26455.32
596.876	26852.62
597.072	26613.01
597.269	26647.83
597.466	26101.02
597.662	25820.45
597.859	26285.34
598.055	26010.91
598.252	25802.02
598.448	26223.9
598.645	25851.17
598.841	25812.26
599.038	25877.79
599.234	25765.15
599.431	25435.43
599.627	25152.81
599.824	25398.57
600.02	25046.32
600.217	25318.7
600.413	24837.42
600.609	25058.6
600.806	24827.18
601.002	25132.33
601.198	24878.38
601.395	24624.43
601.591	24489.27
601.787	24438.07
601.984	24065.34
602.18	24577.33
602.376	24286.52
602.572	24069.44
602.769	24567.09
602.965	24005.95
603.161	24116.54
603.357	23778.62
603.553	23741.76
603.75	24018.24
603.946	23848.25
604.142	23715.14
604.338	23553.35
604.534	23223.62
604.73	23022.92
604.926	23250.25
605.122	23110.99
605.318	23336.26
605.514	23070.03
605.71	23067.98
605.906	23014.73
606.102	22926.67
606.298	22873.42
606.494	22854.99
606.69	22594.9
606.886	22773.07
607.082	22539.6
607.278	22801.74
607.474	22338.9
607.67	22689.1
607.866	22306.13
608.062	22443.35
608.257	22383.96
608.453	22246.74
608.649	22287.7
608.845	21994.84
609.041	22025.56
609.236	22168.92
609.432	21892.44
609.628	21886.3
609.824	21847.39
610.019	22109.53
610.215	21724.51
610.411	21538.15
610.606	21556.58
610.802	21761.37
610.998	21630.3
611.193	21437.8
611.389	21185.9
611.584	21357.92
611.78	21017.96
611.976	21034.35
612.171	21136.74
612.367	21294.44
612.562	20903.28
612.758	20768.11
612.953	20983.15
613.149	21046.63
613.344	20577.65
613.539	21011.82
613.735	20800.88
613.93	20841.84
614.126	20776.3
614.321	20823.4
614.517	20600.18
614.712	20659.57
614.907	20422
615.103	20647.28
615.298	20405.62
615.493	20493.68
615.688	20055.42
615.884	20755.82
616.079	20241.78
616.274	20532.59
616.47	20049.27
616.665	20229.49
616.86	20147.58
617.055	20116.86
617.25	19744.13
617.445	20135.29
617.641	19846.52
617.836	19803.52
618.031	19459.46
618.226	19881.34
618.421	19686.78
618.616	19959.16
618.811	19457.41
619.006	19840.38
619.201	19365.25
619.396	19606.91
619.591	19162.5
619.786	19230.09
619.981	18908.55
620.176	19170.69
620.371	18836.88
620.566	19025.29
620.761	18668.94
620.956	18800.01
621.151	18650.51
621.346	18525.58
621.541	18369.94
621.735	18509.2
621.93	18312.6
622.125	18146.71
622.32	17757.6
622.515	17874.33
622.709	17640.86
622.904	17890.71
623.099	17626.53
623.294	17624.48
623.488	17370.53
623.683	17413.54
623.878	17343.91
624.072	17548.7
624.267	17128.87
624.462	17120.68
624.656	16848.3
624.851	16864.68
625.046	16762.28
625.24	16620.97
625.435	16545.2
625.629	16723.37
625.824	16639.4
626.018	16240.05
626.213	15922.62
626.407	16197.04
626.602	16111.03
626.796	16256.43
626.991	15971.77
627.185	15836.6
627.38	16047.54
627.574	15697.34
627.768	15492.54
627.963	15734.2
628.157	15527.36
628.352	15267.27
628.546	15105.48
628.74	15269.31
628.935	14757.32
629.129	14892.49
629.323	14822.86
629.517	14667.21
629.712	14523.85
629.906	14656.97
630.1	14454.22
630.294	14562.76
630.489	14429.65
630.683	14460.37
630.877	14298.58
631.071	14153.17
631.265	14274
631.459	14140.88
631.653	13909.46
631.848	14140.88
632.042	13882.84
632.236	13975
632.43	13770.2
632.624	13733.34
632.818	13493.72
633.012	13323.74
633.206	13336.03
633.4	13450.72
633.594	13491.68
633.788	13284.83
633.982	13090.27
634.176	13149.67
634.369	12959.2
634.563	13102.56
634.757	12697.06
634.951	13082.08
635.145	12979.68
635.339	12774.89
635.533	12592.62
635.726	12666.35
635.92	12342.77
636.114	12217.84
636.308	12088.82
636.501	12332.53
636.695	12287.47
636.889	11998.71
637.083	11992.56
637.276	11898.36
637.47	12049.91
637.664	11740.66
637.857	12195.31
638.051	11843.06
638.244	11763.19
638.438	11947.51
638.632	11486.72
638.825	11421.18
639.019	11406.84
639.212	11388.41
639.406	11265.53
639.599	11388.41
639.793	11050.5
639.986	11171.33
640.18	11136.51
640.373	11062.79
640.567	11025.92
640.76	11070.98
640.954	10829.32
641.147	10685.96
641.34	10720.78
641.534	10855.94
641.727	10659.34
641.92	10706.44
642.114	10432.01
642.307	10515.98
642.5	10307.09
642.694	10317.33
642.887	10415.63
643.08	10530.31
643.273	10206.73
643.467	10034.71
643.66	10014.23
643.853	9989.65
644.046	9938.45
644.239	10108.43
644.432	9852.44
644.626	9680.41
644.819	10008.08
645.012	9616.92
645.205	9600.54
645.398	9680.41
645.591	9688.6
645.784	9530.91
645.977	9377.31
646.17	9399.84
646.363	9344.54
646.556	9162.27
646.749	9285.15
646.942	9342.49
647.135	9121.31
647.328	9149.98
647.521	9147.94
647.714	9000.48
647.907	9045.54
648.099	8865.32
648.292	8926.75
648.485	8781.35
648.678	8748.58
648.871	8930.85
649.064	8711.72
649.256	8629.8
649.449	8617.51
649.642	8547.88
649.835	8498.73
650.027	8732.2
650.22	8531.5
650.413	8523.3
650.605	8316.46
650.798	8431.15
650.991	8216.11
651.183	8341.04
651.376	8107.57
651.568	8074.8
651.761	8064.56
651.954	8107.57
652.146	8033.84
652.339	7902.77
652.531	7892.53
652.724	7863.86
652.916	7822.9
653.109	7691.83
653.301	7810.61
653.494	7773.75
653.686	7646.77
653.879	7956.02
654.071	7827
654.263	7556.66
654.456	7599.67
654.648	7624.25
654.84	7521.85
655.033	7396.92
655.225	7474.74
655.417	7364.15
655.61	7458.36
655.802	7515.7
655.994	7339.58
656.186	7382.59
656.379	7118.4
656.571	7202.36
656.763	7194.17
656.955	7022.14
657.148	7151.17
657.34	7194.17
657.532	6915.65
657.724	6899.27
657.916	7110.21
658.108	6827.59
658.3	6704.71
658.492	7001.66
658.684	6942.27
658.876	6774.34
659.068	6819.39
659.26	6714.95
659.452	6774.34
659.644	6841.92
659.836	6618.69
660.028	6622.79
660.22	6495.82
660.412	6680.13
660.604	6344.27
660.796	6577.73
660.988	6508.1
661.18	6465.1
661.372	6413.9
661.563	6458.95
661.755	6420.04
661.947	6307.4
662.139	6309.45
662.331	6207.05
662.522	6299.21
662.714	6147.66
662.906	6243.92
663.097	6237.77
663.289	6213.2
663.481	6039.12
663.673	6086.22
663.864	6069.84
664.056	6051.41
664.247	6043.21
664.439	5998.16
664.631	5946.96
664.822	6071.89
665.014	5901.9
665.205	5903.95
665.397	5850.71
665.588	5887.57
665.78	5875.28
665.971	5893.71
666.163	5891.66
666.354	5897.81
666.546	5607
666.737	5850.71
666.929	5856.85
667.12	5854.8
667.311	5697.11
667.503	5574.23
667.694	5643.86
667.885	5553.75
668.077	5539.41
668.268	5729.88
668.459	5539.41
668.651	5643.86
668.842	5713.49
669.033	5738.07
669.224	5516.89
669.416	5860.95
669.607	5670.48
669.798	5555.8
669.989	5660.24
670.18	5428.82
670.371	5500.5
670.563	5566.04
670.754	5529.17
670.945	5525.08
671.136	5459.54
671.327	5418.58
671.518	5426.78
671.709	5512.79
671.9	5523.03
672.091	5486.17
672.282	5480.02
672.473	5336.67
672.664	5449.3
672.855	5441.11
673.046	5389.91
673.237	5506.65
673.428	5357.14
673.619	5467.74
673.809	5269.08
674	5408.34
674.191	5410.39
674.382	5475.93
674.573	5414.49
674.764	5287.51
674.954	5441.11
675.145	5310.04
675.336	5531.22
675.527	5682.77
675.717	5383.77
675.908	5299.8
676.099	5410.39
676.289	5377.62
676.48	5353.05
676.671	5455.45
676.861	5512.79
677.052	5293.66
677.243	5490.26
677.433	5494.36
677.624	5512.79
677.814	5418.58
678.005	5277.27
678.195	5326.43
678.386	5574.23
678.576	5334.62
678.767	5475.93
678.957	5439.06
679.148	5547.61
679.338	5619.28
679.529	5639.76
679.719	5369.43
679.909	5686.87
680.1	5512.79
680.29	5428.82
680.481	5506.65
680.671	5609.05
680.861	5539.41
681.052	5721.68
681.242	5463.64
681.432	5621.33
681.622	5467.74
681.813	5535.32
682.003	5682.77
682.193	5631.57
682.383	5666.39
682.573	5566.04
682.764	5645.91
682.954	5754.45
683.144	5623.38
683.334	5750.35
683.524	5680.72
683.714	5721.68
683.904	5631.57
684.094	5660.24
684.284	5711.44
684.474	5705.3
684.664	5531.22
684.854	5611.09
685.044	5480.02
685.234	5607
685.424	5506.65
685.614	5619.28
685.804	5506.65
685.994	5432.92
686.184	5682.77
686.374	5639.76
686.564	5414.49
686.753	5549.65
686.943	5363.29
687.133	5410.39
687.323	5480.02
687.513	5520.98
687.702	5394.01
687.892	5410.39
688.082	5293.66
688.272	5287.51
688.461	5127.77
688.651	5160.54
688.841	5193.31
689.03	5381.72
689.22	5156.44
689.41	5107.29
689.599	5144.16
689.789	5154.4
689.979	5191.26
690.168	4992.61
690.358	5013.09
690.547	4910.69
690.737	5033.57
690.926	5052
691.116	4935.26
691.305	5103.2
691.495	4851.3
691.684	4871.78
691.874	4841.06
692.063	4800.1
692.252	4806.24
692.442	4855.39
692.631	4681.32
692.82	4679.27
693.01	4540.01
693.199	4781.67
693.388	4478.57
693.578	4664.93
693.767	4601.44
693.956	4370.02
694.146	4544.1
694.335	4410.98
694.524	4388.46
694.713	4550.25
694.902	4410.98
695.092	4499.05
695.281	4349.54
695.47	4605.54
695.659	4316.78
695.848	4410.98
696.037	4392.55
696.226	4449.89
696.415	4251.24
696.604	4423.27
696.793	4214.38
696.982	4331.11
697.171	4296.3
697.36	4435.56
697.549	4308.58
697.738	4236.91
697.927	4363.88
698.116	4116.08
698.305	4296.3
698.494	4171.37
698.683	4361.83
698.872	4374.12
699.061	4236.91
699.25	4187.75
699.438	4148.84
699.627	4320.87
699.816	4197.99
700.005	4249.19
700.193	4107.88
700.382	4288.11
700.571	4087.4
700.76	4197.99
700.948	4267.63
701.137	4179.56
701.326	4214.38
701.514	4187.75
701.703	4202.09
701.892	4134.51
702.08	4243.05
702.269	4214.38
702.457	4177.51
702.646	4243.05
702.834	4025.97
703.023	4249.19
703.212	4230.76
703.4	4136.56
703.589	4001.39
703.777	4197.99
703.965	4048.49
704.154	4191.85
704.342	4032.11
704.531	4253.29
704.719	4159.08
704.907	4259.43
705.096	4200.04
705.284	4238.95
705.472	4226.67
705.661	4279.91
705.849	4337.26
706.037	4187.75
706.226	4197.99
706.414	4281.96
706.602	4152.94
706.79	4288.11
706.979	4302.44
707.167	4206.19
707.355	4197.99
707.543	4208.23
707.731	4329.06
707.919	4335.21
708.107	4386.41
708.296	4259.43
708.484	4308.58
708.672	4314.73
708.86	4427.37
709.048	4374.12
709.236	4322.92
709.424	4384.36
709.612	4587.11
709.8	4433.51
709.988	4421.22
710.176	4441.7
710.364	4386.41
710.551	4458.09
710.739	4572.77
710.927	4554.34
711.115	4484.71
711.303	4542.05
711.491	4634.21
711.679	4499.05
711.866	4609.64
712.054	4642.4
712.242	4435.56
712.43	4669.03
712.617	4591.2
712.805	4648.55
712.993	4773.47
713.181	4597.35
713.368	4611.68
713.556	4746.85
713.744	4699.75
713.931	4763.23
714.119	4621.92
714.306	4927.07
714.494	4580.96
714.682	4943.46
714.869	4671.08
715.057	4922.98
715.244	4755.04
715.432	4994.65
715.619	4812.39
715.807	4918.88
715.994	4949.6
716.182	4769.38
716.369	4988.51
716.556	4847.2
716.744	4970.08
716.931	4922.98
717.119	5013.09
717.306	5072.48
717.493	4976.22
717.681	5103.2
717.868	5008.99
718.055	5162.59
718.242	4965.98
718.43	5039.71
718.617	5172.83
718.804	5160.54
718.991	5193.31
719.179	5170.78
719.366	5107.29
719.553	5224.03
719.74	5178.97
719.927	5242.46
720.114	5324.38
720.301	5312.09
720.488	5103.2
720.676	5344.86
720.863	5334.62
721.05	5416.54
721.237	5260.89
721.424	5455.45
721.611	5434.97
721.798	5285.47
721.985	5383.77
722.172	5418.58
722.358	5551.7
722.545	5482.07
722.732	5348.95
722.919	5475.93
723.106	5514.84
723.293	5471.83
723.48	5449.3
723.667	5367.38
723.853	5473.88
724.04	5572.18
724.227	5535.32
724.414	5533.27
724.6	5498.45
724.787	5801.55
724.974	5811.79
725.161	5766.74
725.347	5477.98
725.534	5609.05
725.72	5541.46
725.907	5746.26
726.094	5613.14
726.28	5666.39
726.467	5738.07
726.653	5623.38
726.84	5738.07
727.027	5922.38
727.213	5711.44
727.4	5891.66
727.586	5650
727.773	5885.52
727.959	5840.47
728.145	6073.93
728.332	5824.08
728.518	5903.95
728.705	6012.49
728.891	5908.05
729.077	5918.29
729.264	6053.45
729.45	5973.58
729.636	5867.09
729.823	5830.23
730.009	6178.38
730.195	5967.44
730.382	6049.36
730.568	6131.28
730.754	5885.52
730.94	5938.77
731.126	6270.54
731.313	6114.89
731.499	6153.8
731.685	6153.8
731.871	6090.32
732.057	6184.52
732.243	6116.94
732.429	6049.36
732.615	6233.68
732.801	6032.97
732.987	6100.56
733.173	6135.37
733.359	6078.03
733.545	6235.72
733.731	6233.68
733.917	6215.24
734.103	6237.77
734.289	6219.34
734.475	6217.29
734.661	6291.02
734.847	6221.39
735.033	6118.99
735.219	6205
735.404	6227.53
735.59	6137.42
735.776	6159.95
735.962	6237.77
736.148	6293.07
736.333	6374.99
736.519	6133.33
736.705	6366.79
736.89	6166.09
737.076	6286.92
737.262	6131.28
737.447	6264.4
737.633	6131.28
737.819	6237.77
738.004	6186.57
738.19	6202.96
738.375	6012.49
738.561	6061.65
738.747	6147.66
738.932	6118.99
739.118	6168.14
739.303	6121.04
739.489	6037.07
739.674	6127.18
739.859	6149.71
740.045	6088.27
740.23	6047.31
740.416	6110.8
740.601	6164.04
740.786	6063.69
740.972	6110.8
741.157	6155.85
741.342	5889.62
741.528	6024.78
741.713	6155.85
741.898	5975.63
742.084	5979.73
742.269	6100.56
742.454	5860.95
742.639	5996.11
742.824	5955.15
743.01	5930.58
743.195	6014.54
743.38	5791.31
743.565	5932.62
743.75	5877.33
743.935	5803.6
744.12	5772.88
744.305	5680.72
744.49	5690.96
744.675	5908.05
744.86	5891.66
745.045	5828.18
745.23	5637.72
745.415	5553.75
745.6	5557.85
745.785	5459.54
745.97	5666.39
746.155	5625.43
746.34	5467.74
746.525	5357.14
746.71	5373.53
746.895	5377.62
747.079	5361.24
747.264	5441.11
747.449	5404.25
747.634	5336.67
747.819	5285.47
748.003	5207.64
748.188	5193.31
748.373	5242.46
748.557	5174.88
748.742	5064.29
748.927	5017.18
749.111	5049.95
749.296	4941.41
749.481	5013.09
749.665	4931.17
749.85	4779.62
750.034	4861.54
750.219	4804.19
750.404	4732.51
750.588	4628.07
750.773	4724.32
750.957	4634.21
751.141	4669.03
751.326	4652.64
751.51	4693.6
751.695	4533.86
751.879	4529.77
752.064	4611.68
752.248	4640.36
752.432	4554.34
752.617	4355.69
752.801	4466.28
752.985	4384.36
753.17	4484.71
753.354	4230.76
753.538	4247.15
753.722	4316.78
753.907	4243.05
754.091	4091.5
754.275	4083.31
754.459	4306.54
754.643	4087.4
754.828	3950.19
755.012	4034.16
755.196	4046.44
755.38	3901.04
755.564	4130.41
755.748	3929.71
755.932	3950.19
756.116	3788.4
756.3	3739.25
756.484	3706.48
756.668	3839.6
756.852	3743.35
757.036	3802.74
757.22	3585.65
757.404	3571.32
757.588	3583.6
757.772	3675.76
757.956	3608.18
758.14	3591.8
758.323	3587.7
758.507	3518.07
758.691	3544.69
758.875	3411.57
759.059	3264.12
759.242	3522.16
759.426	3399.29
759.61	3335.8
759.794	3243.64
759.977	3370.62
760.161	3372.66
760.345	3341.94
760.528	3432.05
760.712	3237.5
760.895	3237.5
761.079	3311.22
761.263	3184.25
761.446	3212.92
761.63	3231.35
761.813	3124.86
761.997	3104.38
762.18	3088
762.364	3100.28
762.547	3083.9
762.731	3088
762.914	2946.69
763.098	2870.91
763.281	2944.64
763.464	2889.34
763.648	2901.63
763.831	2928.25
764.015	2977.41
764.198	2877.05
764.381	2899.58
764.564	2885.25
764.748	2838.14
764.931	2875.01
765.114	2813.57
765.297	2868.86
765.481	2698.88
765.664	2821.76
765.847	2678.4
766.03	2694.79
766.213	2786.94
766.397	2680.45
766.58	2659.97
766.763	2649.73
766.946	2698.88
767.129	2715.27
767.312	2614.91
767.495	2702.98
767.678	2705.03
767.861	2563.72
768.044	2588.29
768.227	2545.28
768.41	2444.93
768.593	2516.61
768.776	2526.85
768.959	2516.61
769.142	2612.87
769.324	2530.95
769.507	2420.36
769.69	2469.51
769.873	2436.74
770.056	2432.65
770.239	2397.83
770.421	2403.97
770.604	2461.32
770.787	2436.74
770.97	2381.45
771.152	2315.91
771.335	2293.38
771.518	2291.34
771.7	2397.83
771.883	2317.96
772.066	2338.44
772.248	2256.52
772.431	2277
772.613	2154.12
772.796	2207.37
772.978	2049.68
773.161	2256.52
773.343	2137.74
773.526	2145.93
773.708	2121.35
773.891	2012.81
774.073	2199.18
774.256	2029.2
774.438	2156.17
774.621	2096.78
774.803	2064.01
774.985	2057.87
775.168	2023.05
775.35	1918.61
775.532	2104.97
775.715	1945.23
775.897	1912.46
776.079	1908.37
776.261	1765.01
776.444	1928.85
776.626	1838.73
776.808	1920.65
776.99	1814.16
777.173	1781.39
777.355	1783.44
777.537	1945.23
777.719	1711.76
777.901	1767.06
778.083	1631.89
778.265	1648.27
778.447	1699.47
778.629	1648.27
778.811	1754.77
778.993	1775.25
779.175	1670.8
779.357	1707.66
779.539	1609.36
779.721	1625.75
779.903	1617.55
780.085	1506.96
780.267	1609.36
780.449	1576.59
780.631	1472.15
780.812	1543.83
780.994	1502.87
781.176	1572.5
781.358	1511.06
781.54	1633.94
781.721	1437.33
781.903	1445.52
782.085	1324.69
782.267	1470.1
782.448	1326.74
782.63	1396.37
782.812	1441.43
782.993	1339.03
783.175	1355.41
783.357	1396.37
783.538	1412.76
783.72	1279.64
783.901	1312.41
784.083	1349.27
784.264	1314.45
784.446	1310.36
784.627	1230.49
784.809	1242.78
784.99	1312.41
785.172	1240.73
785.353	1220.25
785.535	1224.34
785.716	1238.68
785.897	1138.33
786.079	1189.53
786.26	1230.49
786.441	1130.14
786.623	1105.56
786.804	1171.1
786.985	1080.99
787.167	1179.29
787.348	1123.99
787.529	1058.46
787.71	1187.48
787.891	1134.23
788.073	1087.13
788.254	1052.31
788.435	999.07
788.616	1058.46
788.797	1013.4
788.978	1052.31
789.159	1017.5
789.34	1050.27
789.522	976.54
789.703	962.2
789.884	978.59
790.065	941.72
790.246	978.59
790.427	982.68
790.607	1042.07
790.788	1025.69
790.969	937.63
791.15	954.01
791.331	896.67
791.512	945.82
791.693	890.53
791.874	966.3
792.054	1027.74
792.235	870.05
792.416	937.63
792.597	951.96
792.778	956.06
792.958	902.81
793.139	863.9
793.32	831.13
793.5	786.08
793.681	880.29
793.862	845.47
794.042	771.74
794.223	751.26
794.404	827.04
794.584	868
794.765	798.37
794.945	827.04
795.126	841.37
795.306	831.13
795.487	759.46
795.667	820.89
795.848	857.76
796.028	745.12
796.209	786.08
796.389	788.13
796.57	695.97
796.75	741.02
796.93	695.97
797.111	784.03
797.291	669.34
797.471	741.02
797.652	724.64
797.832	691.87
798.012	792.22
798.192	691.87
798.373	663.2
798.553	609.95
798.733	691.87
798.913	659.1
799.093	642.72
799.274	730.78
799.454	681.63
799.634	720.54
799.814	695.97
799.994	671.39
800.174	648.86
800.354	634.53
800.534	612
800.714	646.82
800.894	657.06
801.074	609.95
801.254	622.24
801.434	657.06
801.614	618.15
801.794	564.9
801.974	1314.45
802.154	622.24
802.334	622.24
802.514	503.46
802.693	642.72
802.873	591.52
803.053	564.9
803.233	564.9
803.413	593.57
803.592	591.52
803.772	577.19
803.952	548.51
804.131	566.95
804.311	571.04
804.491	536.23
804.67	591.52
804.85	462.5
805.03	495.27
805.209	603.81
805.389	593.57
805.568	528.03
805.748	444.07
805.928	536.23
806.107	583.33
806.287	509.6
806.466	577.19
806.646	566.95
806.825	487.08
807.004	517.79
807.184	587.43
807.363	577.19
807.543	501.41
807.722	528.03
807.901	462.5
808.081	528.03
808.26	390.82
808.439	417.44
808.619	460.45
808.798	487.08
808.977	476.84
809.156	566.95
809.336	501.41
809.515	433.83
809.694	446.12
809.873	470.69
810.052	466.6
810.231	474.79
810.411	454.31
810.59	568.99
810.769	439.97
810.948	558.75
811.127	413.35
811.306	446.12
811.485	356.01
811.664	581.28
811.843	427.68
812.022	501.41
812.201	376.48
812.38	468.64
812.559	409.25
812.737	495.27
812.916	290.47
813.095	376.48
813.274	450.21
813.453	392.87
813.632	450.21
813.811	386.72
813.989	341.67
814.168	421.54
814.347	456.36
814.526	425.64
814.704	390.82
814.883	444.07
815.062	370.34
815.24	411.3
815.419	323.24
815.598	417.44
815.776	341.67
815.955	349.86
816.133	231.08
816.312	403.11
816.49	321.19
816.669	368.29
816.847	319.14
817.026	333.48
817.204	349.86
817.383	343.72
817.561	380.58
817.74	462.5
817.918	323.24
818.097	353.96
818.275	339.62
818.453	380.58
818.632	396.96
818.81	351.91
818.988	290.47
819.167	329.38
819.345	341.67
819.523	413.35
819.701	353.96
819.879	308.9
820.058	263.85
820.236	265.89
820.414	298.66
820.592	335.53
820.77	378.53
820.948	319.14
821.127	331.43
821.305	290.47
821.483	323.24
821.661	315.05
821.839	282.28
822.017	272.04
822.195	306.85
822.373	317.09
822.551	294.57
822.729	362.15
822.907	276.13
823.085	306.85
823.262	321.19
823.44	310.95
823.618	327.33
823.796	290.47
823.974	290.47
824.152	247.46
824.329	296.61
824.507	315.05
824.685	239.27
824.863	269.99
825.04	255.65
825.218	265.89
825.396	372.39
825.574	255.65
825.751	290.47
825.929	274.09
826.107	257.7
826.284	247.46
826.462	282.28
826.639	181.93
826.817	239.27
826.994	370.34
827.172	272.04
827.349	323.24
827.527	278.18
827.704	290.47
827.882	280.23
828.059	233.13
828.237	253.61
828.414	257.7
828.591	177.83
828.769	261.8
828.946	210.6
829.124	235.18
829.301	251.56
829.478	243.37
829.655	204.46
829.833	247.46
830.01	286.37
830.187	247.46
830.364	278.18
830.542	239.27
830.719	233.13
830.896	251.56
831.073	265.89
831.25	263.85
831.427	294.57
831.604	315.05
831.782	216.74
831.959	249.51
832.136	241.32
832.313	229.03
832.49	163.5
832.667	241.32
832.844	157.35
833.021	192.17
833.198	253.61
833.374	198.31
833.551	183.98
833.728	269.99
833.905	245.41
834.082	143.02
834.259	200.36
834.436	179.88
834.612	212.65
834.789	173.74
834.966	290.47
835.143	224.94
835.319	118.44
835.496	212.65
835.673	251.56
835.85	245.41
836.026	267.94
836.203	218.79
836.38	85.67
836.556	247.46
836.733	163.5
836.909	183.98
837.086	183.98
837.262	75.43
837.439	106.15
837.616	212.65
837.792	206.5
837.968	200.36
838.145	122.54
838.321	196.26
838.498	175.78
838.674	188.07
838.851	235.18
839.027	179.88
839.203	220.84
839.38	165.54
839.556	165.54
839.732	151.21
839.909	165.54
840.085	165.54
840.261	140.97
840.437	130.73
840.614	143.02
840.79	134.82
840.966	159.4
841.142	159.4
841.318	153.26
841.494	194.22
841.671	157.35
841.847	151.21
842.023	89.77
842.199	190.12
842.375	181.93
842.551	151.21
842.727	140.97
842.903	140.97
843.079	61.1
843.255	143.02
843.431	171.69
843.607	118.44
843.783	83.63
843.959	157.35
844.134	188.07
844.31	204.46
844.486	140.97
844.662	140.97
844.838	77.48
845.013	163.5
845.189	224.94
845.365	120.49
845.541	91.82
845.716	220.84
845.892	167.59
846.068	126.63
846.244	50.86
846.419	165.54
846.595	124.58
846.77	151.21
846.946	116.39
847.122	151.21
847.297	81.58
847.473	126.63
847.648	151.21
847.824	169.64
847.999	75.43
848.175	118.44
848.35	200.36
848.526	167.59
848.701	116.39
848.876	159.4
849.052	163.5
849.227	192.17
849.403	134.82
849.578	95.91
849.753	116.39
849.929	116.39
850.104	40.62
850.279	104.11
850.454	159.4
850.63	116.39
850.805	106.15
850.98	126.63
851.155	108.2
851.33	165.54
851.505	102.06
851.681	169.64
851.856	124.58
852.031	171.69
852.206	102.06
852.381	118.44
852.556	52.91
852.731	118.44
852.906	118.44
853.081	167.59
853.256	165.54
853.431	97.96
853.606	44.71
853.781	120.49
853.956	61.1
854.131	77.48
854.305	69.29
854.48	93.87
854.655	81.58
854.83	69.29
855.005	100.01
855.18	75.43
855.354	83.63
855.529	50.86
855.704	34.47
855.879	75.43
856.053	44.71
856.228	65.19
856.403	59.05
856.577	118.44
856.752	110.25
856.926	93.87
857.101	89.77
857.276	-8.53
857.45	18.09
857.625	126.63
857.799	65.19
857.974	134.82
858.148	-12.63
858.323	73.39
858.497	73.39
858.672	61.1
858.846	61.1
859.02	126.63
859.195	57
859.369	61.1
859.543	91.82
859.718	132.78
859.892	5.8
860.066	147.11
860.241	28.33
860.415	77.48
860.589	140.97
860.763	89.77
860.938	102.06
861.112	85.67
861.286	85.67
861.46	108.2
861.634	16.04
861.808	57
861.982	85.67
862.157	28.33
862.331	102.06
862.505	65.19
862.679	118.44
862.853	77.48
863.027	36.52
863.201	110.25
863.375	85.67
863.549	73.39
863.722	118.44
863.896	85.67
864.07	20.14
864.244	71.34
864.418	89.77
864.592	124.58
864.766	-43.35
864.939	159.4
865.113	38.57
865.287	110.25
865.461	54.95
865.634	46.76
865.808	52.91
865.982	26.28
866.156	-20.82
866.329	24.23
866.503	110.25
866.676	95.91
866.85	52.91
867.024	20.14
867.197	52.91
867.371	93.87
867.544	145.06
867.718	1.71
867.891	97.96
868.065	-31.06
868.238	77.48
868.412	87.72
868.585	67.24
868.759	3.75
868.932	147.11
869.105	65.19
869.279	18.09
869.452	50.86
869.625	48.81
869.799	61.1
869.972	20.14
870.145	20.14
870.319	50.86
870.492	-41.3
870.665	52.91
870.838	69.29
871.011	-49.49
871.185	83.63
871.358	-0.34
871.531	67.24
871.704	28.33
871.877	50.86
872.05	61.1
872.223	-12.63
872.396	61.1
872.569	95.91
872.742	44.71
872.915	87.72
873.088	26.28
873.261	73.39
873.434	112.3
873.607	93.87
873.78	89.77
873.953	-14.68
874.126	57
874.299	83.63
874.471	26.28
874.644	-63.83
874.817	100.01
874.99	89.77
875.163	36.52
875.335	85.67
875.508	42.67
875.681	81.58
875.853	44.71
876.026	59.05
876.199	52.91
876.371	3.75
876.544	157.35
876.717	36.52
876.889	-18.77
877.062	67.24
877.234	73.39
877.407	71.34
877.579	-10.58
877.752	65.19
877.924	89.77
878.097	50.86
878.269	48.81
878.442	42.67
878.614	69.29
878.786	87.72
878.959	-18.77
879.131	34.47
879.303	-12.63
879.476	-0.34
879.648	1.71
879.82	20.14
879.993	85.67
880.165	67.24
880.337	-53.59
880.509	16.04
880.681	26.28
880.854	20.14
881.026	26.28
881.198	100.01
881.37	73.39
881.542	59.05
881.714	22.19
881.886	42.67
882.058	-22.87
882.23	48.81
882.402	36.52
882.574	67.24
882.746	67.24
882.918	34.47
883.09	44.71
883.262	69.29
883.434	9.9
883.606	32.43
883.778	67.24
883.95	97.96
884.122	3.75
884.293	73.39
884.465	44.71
884.637	77.48
884.809	-4.44
884.98	-0.34
885.152	73.39
885.324	83.63
885.496	-8.53
885.667	22.19
885.839	-12.63
886.011	69.29
886.182	20.14
886.354	7.85
886.525	87.72
886.697	108.2
886.869	-4.44
887.04	22.19
887.212	13.99
887.383	5.8
887.555	34.47
887.726	36.52
887.897	-6.49
888.069	52.91
888.24	24.23
888.412	77.48
888.583	-37.2
888.754	69.29
888.926	89.77
889.097	69.29
889.268	-24.92
889.44	61.1
889.611	52.91
889.782	-18.77
889.953	34.47
890.125	91.82
890.296	-8.53
890.467	36.52
890.638	3.75
890.809	34.47
890.98	-39.25
891.151	36.52
891.323	93.87
891.494	11.95
891.665	65.19
891.836	18.09
892.007	5.8
892.178	75.43
892.349	46.76
892.52	24.23
892.691	36.52
892.862	-6.49
893.032	67.24
893.203	73.39
893.374	-0.34
893.545	61.1
893.716	3.75
893.887	11.95
894.057	-53.59
894.228	24.23
894.399	32.43
894.57	93.87
894.74	1.71
894.911	34.47
895.082	-43.35
895.253	52.91
895.423	-37.2
895.594	26.28
895.764	-31.06
895.935	-16.73
896.106	57
896.276	-53.59
896.447	36.52
896.617	-4.44
896.788	85.67
896.958	-29.01
897.129	77.48
897.299	89.77
897.47	65.19
897.64	-4.44
897.81	65.19
897.981	44.71
898.151	-33.11
898.322	30.38
898.492	28.33
898.662	-18.77
898.832	-8.53
899.003	-24.92
899.173	36.52
899.343	-8.53
899.513	24.23
