Data from USB4F104151__54__11-30-36-461.txt Node

Date: Fri Mar 14 11:30:36 EDT 2025
User: louis
Spectrometer: USB4F10415
Trigger mode: 4
Integration Time (sec): 5.000000E-2
Scans to average: 1
Electric dark correction enabled: true
Nonlinearity correction enabled: false
Boxcar width: 0
XAxis mode: Wavelengths
Number of Pixels in Spectrum: 3648
>>>>>Begin Spectral Data<<<<<
178.204	-83.45
178.424	-83.45
178.644	-83.45
178.864	-93.69
179.084	-155.13
179.304	86.53
179.524	-58.88
179.744	14.85
179.964	29.18
180.184	-44.54
180.404	0.51
180.624	-3.58
180.844	2.56
181.064	0.51
181.283	-7.68
181.503	-24.06
181.723	4.61
181.943	35.33
182.163	39.42
182.383	-44.54
182.602	10.75
182.822	78.33
183.042	18.94
183.262	-5.63
183.482	31.23
183.701	-24.06
183.921	0.51
184.141	6.66
184.361	80.38
184.58	41.47
184.8	-32.26
185.02	37.38
185.239	27.14
185.459	-52.74
185.679	18.94
185.898	-89.6
186.118	0.51
186.338	-15.87
186.557	23.04
186.777	47.62
186.997	-65.02
187.216	-3.58
187.436	135.68
187.655	23.04
187.875	64
188.095	68.09
188.314	102.91
188.534	29.18
188.753	14.85
188.973	64
189.192	29.18
189.412	90.62
189.631	47.62
189.851	57.86
190.07	12.8
190.29	-26.11
190.509	27.14
190.729	25.09
190.948	74.24
191.168	113.15
191.387	90.62
191.607	8.7
191.826	49.66
192.045	53.76
192.265	-11.78
192.484	-1.54
192.704	25.09
192.923	4.61
193.142	123.39
193.362	57.86
193.581	41.47
193.8	47.62
194.02	10.75
194.239	27.14
194.458	20.99
194.678	16.9
194.897	49.66
195.116	66.05
195.335	-24.06
195.555	90.62
195.774	-44.54
195.993	16.9
196.212	96.77
196.432	-3.58
196.651	29.18
196.87	61.95
197.089	76.29
197.308	8.7
197.528	0.51
197.747	-28.16
197.966	49.66
198.185	37.38
198.404	-56.83
198.623	51.71
198.842	53.76
199.062	102.91
199.281	55.81
199.5	20.99
199.719	55.81
199.938	45.57
200.157	45.57
200.376	23.04
200.595	57.86
200.814	76.29
201.033	66.05
201.252	45.57
201.471	10.75
201.69	96.77
201.909	41.47
202.128	102.91
202.347	41.47
202.566	66.05
202.785	82.43
203.004	8.7
203.223	129.53
203.442	25.09
203.661	16.9
203.879	-3.58
204.098	72.19
204.317	-11.78
204.536	61.95
204.755	74.24
204.974	16.9
205.193	-1.54
205.411	113.15
205.63	4.61
205.849	0.51
206.068	16.9
206.287	-3.58
206.505	94.72
206.724	47.62
206.943	90.62
207.162	-9.73
207.381	82.43
207.599	23.04
207.818	27.14
208.037	45.57
208.255	-15.87
208.474	-1.54
208.693	53.76
208.911	47.62
209.13	145.92
209.349	41.47
209.567	41.47
209.786	55.81
210.005	86.53
210.223	25.09
210.442	-26.11
210.661	94.72
210.879	107.01
211.098	-50.69
211.316	-24.06
211.535	70.14
211.753	0.51
211.972	12.8
212.191	2.56
212.409	-15.87
212.628	18.94
212.846	-44.54
213.065	33.28
213.283	90.62
213.502	18.94
213.72	-42.5
213.938	-32.26
214.157	39.42
214.375	23.04
214.594	12.8
214.812	-19.97
215.031	64
215.249	41.47
215.467	39.42
215.686	10.75
215.904	125.44
216.122	90.62
216.341	-26.11
216.559	20.99
216.778	70.14
216.996	61.95
217.214	-5.63
217.432	-17.92
217.651	-7.68
217.869	49.66
218.087	35.33
218.306	57.86
218.524	23.04
218.742	-30.21
218.96	29.18
219.179	51.71
219.397	27.14
219.615	66.05
219.833	49.66
220.051	-52.74
220.27	39.42
220.488	33.28
220.706	33.28
220.924	33.28
221.142	-42.5
221.36	74.24
221.578	-40.45
221.796	31.23
222.015	-19.97
222.233	59.9
222.451	20.99
222.669	-3.58
222.887	66.05
223.105	37.38
223.323	-56.83
223.541	55.81
223.759	-19.97
223.977	23.04
224.195	70.14
224.413	33.28
224.631	41.47
224.849	16.9
225.067	125.44
225.285	45.57
225.503	27.14
225.721	25.09
225.939	-9.73
226.157	49.66
226.375	133.63
226.592	23.04
226.81	8.7
227.028	-7.68
227.246	160.25
227.464	47.62
227.682	61.95
227.9	70.14
228.117	49.66
228.335	47.62
228.553	14.85
228.771	39.42
228.989	-5.63
229.206	72.19
229.424	20.99
229.642	6.66
229.86	-42.5
230.077	80.38
230.295	-1.54
230.513	16.9
230.731	-1.54
230.948	123.39
231.166	47.62
231.384	14.85
231.601	16.9
231.819	45.57
232.037	53.76
232.254	-17.92
232.472	49.66
232.689	-48.64
232.907	86.53
233.125	72.19
233.342	64
233.56	0.51
233.777	61.95
233.995	-15.87
234.213	39.42
234.43	74.24
234.648	-7.68
234.865	-32.26
235.083	49.66
235.3	-40.45
235.518	0.51
235.735	23.04
235.953	78.33
236.17	41.47
236.388	27.14
236.605	47.62
236.822	59.9
237.04	-17.92
237.257	39.42
237.475	-19.97
237.692	16.9
237.909	23.04
238.127	57.86
238.344	74.24
238.562	20.99
238.779	-1.54
238.996	12.8
239.214	45.57
239.431	100.86
239.648	-11.78
239.865	102.91
240.083	8.7
240.3	102.91
240.517	51.71
240.735	33.28
240.952	57.86
241.169	41.47
241.386	66.05
241.603	49.66
241.821	-65.02
242.038	137.73
242.255	76.29
242.472	-13.82
242.689	33.28
242.907	-32.26
243.124	16.9
243.341	20.99
243.558	-11.78
243.775	25.09
243.992	-19.97
244.209	8.7
244.426	209.4
244.643	12.8
244.86	-81.41
245.078	25.09
245.295	16.9
245.512	-19.97
245.729	35.33
245.946	43.52
246.163	12.8
246.38	-11.78
246.597	25.09
246.814	33.28
247.031	41.47
247.248	41.47
247.464	-17.92
247.681	68.09
247.898	12.8
248.115	2.56
248.332	20.99
248.549	78.33
248.766	76.29
248.983	61.95
249.2	-36.35
249.417	37.38
249.633	107.01
249.85	27.14
250.067	-19.97
250.284	29.18
250.501	23.04
250.717	8.7
250.934	-30.21
251.151	49.66
251.368	25.09
251.585	109.05
251.801	-15.87
252.018	78.33
252.235	23.04
252.451	12.8
252.668	0.51
252.885	104.96
253.102	90.62
253.318	78.33
253.535	70.14
253.752	2.56
253.968	23.04
254.185	-32.26
254.401	-7.68
254.618	45.57
254.835	-11.78
255.051	72.19
255.268	-1.54
255.484	29.18
255.701	72.19
255.917	41.47
256.134	14.85
256.351	-11.78
256.567	20.99
256.784	41.47
257	-48.64
257.217	57.86
257.433	8.7
257.65	8.7
257.866	123.39
258.082	-34.3
258.299	-28.16
258.515	57.86
258.732	6.66
258.948	39.42
259.165	35.33
259.381	125.44
259.597	-7.68
259.814	6.66
260.03	70.14
260.246	-19.97
260.463	-81.41
260.679	41.47
260.895	100.86
261.112	45.57
261.328	57.86
261.544	-9.73
261.761	127.49
261.977	25.09
262.193	-44.54
262.409	47.62
262.626	49.66
262.842	96.77
263.058	23.04
263.274	23.04
263.49	20.99
263.707	90.62
263.923	-7.68
264.139	25.09
264.355	16.9
264.571	-1.54
264.787	115.2
265.004	14.85
265.22	31.23
265.436	-71.17
265.652	14.85
265.868	96.77
266.084	4.61
266.3	-24.06
266.516	-19.97
266.732	0.51
266.948	51.71
267.164	-3.58
267.38	61.95
267.596	2.56
267.812	201.21
268.028	-7.68
268.244	-62.98
268.46	25.09
268.676	2.56
268.892	-24.06
269.108	-7.68
269.324	37.38
269.54	-28.16
269.756	123.39
269.972	-15.87
270.188	-7.68
270.403	31.23
270.619	33.28
270.835	41.47
271.051	-36.35
271.267	-7.68
271.483	25.09
271.698	25.09
271.914	8.7
272.13	-17.92
272.346	0.51
272.562	-28.16
272.777	74.24
272.993	37.38
273.209	-52.74
273.425	41.47
273.64	-9.73
273.856	41.47
274.072	72.19
274.287	10.75
274.503	82.43
274.719	55.81
274.934	8.7
275.15	57.86
275.366	18.94
275.581	-7.68
275.797	20.99
276.012	-32.26
276.228	57.86
276.444	64
276.659	33.28
276.875	-7.68
277.09	29.18
277.306	53.76
277.521	41.47
277.737	14.85
277.952	20.99
278.168	-48.64
278.383	59.9
278.599	49.66
278.814	88.57
279.03	37.38
279.245	47.62
279.461	8.7
279.676	86.53
279.892	18.94
280.107	0.51
280.322	0.51
280.538	31.23
280.753	39.42
280.969	98.81
281.184	-3.58
281.399	117.25
281.615	0.51
281.83	74.24
282.045	8.7
282.26	8.7
282.476	31.23
282.691	113.15
282.906	8.7
283.122	23.04
283.337	35.33
283.552	18.94
283.767	6.66
283.983	33.28
284.198	33.28
284.413	47.62
284.628	-40.45
284.843	49.66
285.058	61.95
285.274	10.75
285.489	14.85
285.704	47.62
285.919	-24.06
286.134	-7.68
286.349	88.57
286.564	33.28
286.779	45.57
286.995	8.7
287.21	76.29
287.425	45.57
287.64	-34.3
287.855	-71.17
288.07	-32.26
288.285	90.62
288.5	127.49
288.715	-56.83
288.93	4.61
289.145	25.09
289.36	109.05
289.575	14.85
289.79	33.28
290.004	35.33
290.219	70.14
290.434	27.14
290.649	31.23
290.864	0.51
291.079	12.8
291.294	88.57
291.509	61.95
291.724	-24.06
291.938	115.2
292.153	88.57
292.368	6.66
292.583	0.51
292.798	33.28
293.012	8.7
293.227	39.42
293.442	29.18
293.657	55.81
293.871	98.81
294.086	10.75
294.301	64
294.516	66.05
294.73	-1.54
294.945	-52.74
295.16	25.09
295.374	-7.68
295.589	43.52
295.804	-54.78
296.018	-11.78
296.233	94.72
296.447	31.23
296.662	49.66
296.877	88.57
297.091	10.75
297.306	-9.73
297.52	-40.45
297.735	-5.63
297.949	57.86
298.164	104.96
298.378	82.43
298.593	-7.68
298.807	86.53
299.022	25.09
299.236	49.66
299.451	49.66
299.665	18.94
299.88	-24.06
300.094	2.56
300.309	-11.78
300.523	20.99
300.737	25.09
300.952	16.9
301.166	53.76
301.381	12.8
301.595	41.47
301.809	14.85
302.024	-44.54
302.238	-26.11
302.452	53.76
302.667	84.48
302.881	12.8
303.095	47.62
303.309	49.66
303.524	4.61
303.738	47.62
303.952	8.7
304.166	53.76
304.381	-44.54
304.595	152.06
304.809	39.42
305.023	16.9
305.237	14.85
305.452	33.28
305.666	57.86
305.88	-19.97
306.094	35.33
306.308	25.09
306.522	57.86
306.736	86.53
306.95	49.66
307.164	55.81
307.379	49.66
307.593	64
307.807	-26.11
308.021	-17.92
308.235	-3.58
308.449	35.33
308.663	41.47
308.877	119.29
309.091	12.8
309.305	10.75
309.519	14.85
309.733	94.72
309.947	-26.11
310.161	64
310.374	31.23
310.588	90.62
310.802	78.33
311.016	12.8
311.23	0.51
311.444	16.9
311.658	78.33
311.872	64
312.085	82.43
312.299	98.81
312.513	33.28
312.727	96.77
312.941	-73.21
313.154	8.7
313.368	45.57
313.582	39.42
313.796	35.33
314.009	25.09
314.223	37.38
314.437	74.24
314.651	82.43
314.864	-1.54
315.078	20.99
315.292	29.18
315.505	41.47
315.719	-9.73
315.933	98.81
316.146	55.81
316.36	16.9
316.573	96.77
316.787	47.62
317.001	53.76
317.214	31.23
317.428	78.33
317.641	70.14
317.855	61.95
318.068	4.61
318.282	-24.06
318.495	84.48
318.709	41.47
318.922	72.19
319.136	47.62
319.349	72.19
319.563	10.75
319.776	-17.92
319.99	-7.68
320.203	14.85
320.417	70.14
320.63	14.85
320.843	98.81
321.057	64
321.27	55.81
321.483	76.29
321.697	49.66
321.91	47.62
322.124	35.33
322.337	-73.21
322.55	41.47
322.763	70.14
322.977	20.99
323.19	33.28
323.403	37.38
323.617	53.76
323.83	90.62
324.043	80.38
324.256	57.86
324.469	-26.11
324.683	82.43
324.896	49.66
325.109	94.72
325.322	43.52
325.535	66.05
325.748	84.48
325.962	-15.87
326.175	-3.58
326.388	57.86
326.601	20.99
326.814	68.09
327.027	37.38
327.24	43.52
327.453	18.94
327.666	0.51
327.879	57.86
328.092	12.8
328.305	72.19
328.518	64
328.731	20.99
328.944	-3.58
329.157	41.47
329.37	-26.11
329.583	45.57
329.796	117.25
330.009	31.23
330.222	39.42
330.435	8.7
330.648	37.38
330.861	18.94
331.073	96.77
331.286	12.8
331.499	107.01
331.712	29.18
331.925	41.47
332.138	49.66
332.35	20.99
332.563	45.57
332.776	64
332.989	16.9
333.202	61.95
333.414	6.66
333.627	33.28
333.84	88.57
334.053	23.04
334.265	4.61
334.478	53.76
334.691	39.42
334.903	59.9
335.116	6.66
335.329	25.09
335.541	-62.98
335.754	29.18
335.966	-60.93
336.179	16.9
336.392	43.52
336.604	41.47
336.817	8.7
337.029	53.76
337.242	66.05
337.454	37.38
337.667	-32.26
337.88	66.05
338.092	33.28
338.305	59.9
338.517	-32.26
338.729	82.43
338.942	27.14
339.154	16.9
339.367	39.42
339.579	20.99
339.792	29.18
340.004	43.52
340.217	4.61
340.429	74.24
340.641	-11.78
340.854	29.18
341.066	-58.88
341.278	29.18
341.491	121.34
341.703	6.66
341.915	57.86
342.128	78.33
342.34	78.33
342.552	33.28
342.764	12.8
342.977	16.9
343.189	-17.92
343.401	47.62
343.613	-3.58
343.826	66.05
344.038	45.57
344.25	80.38
344.462	31.23
344.674	-32.26
344.886	57.86
345.099	43.52
345.311	33.28
345.523	-34.3
345.735	-36.35
345.947	-22.02
346.159	33.28
346.371	25.09
346.583	29.18
346.795	61.95
347.007	-17.92
347.219	94.72
347.431	29.18
347.643	74.24
347.855	41.47
348.067	86.53
348.279	80.38
348.491	29.18
348.703	84.48
348.915	57.86
349.127	-7.68
349.339	55.81
349.551	-15.87
349.763	55.81
349.975	14.85
350.187	88.57
350.399	-42.5
350.61	111.1
350.822	29.18
351.034	82.43
351.246	86.53
351.458	61.95
351.669	51.71
351.881	-5.63
352.093	-3.58
352.305	86.53
352.517	16.9
352.728	82.43
352.94	49.66
353.152	66.05
353.363	64
353.575	125.44
353.787	143.87
353.999	25.09
354.21	123.39
354.422	14.85
354.633	45.57
354.845	-56.83
355.057	74.24
355.268	-15.87
355.48	-15.87
355.692	16.9
355.903	-1.54
356.115	-32.26
356.326	-24.06
356.538	82.43
356.749	39.42
356.961	80.38
357.172	43.52
357.384	-15.87
357.595	98.81
357.807	29.18
358.018	20.99
358.23	-7.68
358.441	23.04
358.653	51.71
358.864	41.47
359.075	39.42
359.287	90.62
359.498	39.42
359.709	72.19
359.921	45.57
360.132	23.04
360.344	8.7
360.555	55.81
360.766	74.24
360.977	0.51
361.189	80.38
361.4	80.38
361.611	64
361.823	57.86
362.034	41.47
362.245	8.7
362.456	6.66
362.667	98.81
362.879	53.76
363.09	31.23
363.301	59.9
363.512	45.57
363.723	61.95
363.935	-24.06
364.146	4.61
364.357	100.86
364.568	70.14
364.779	6.66
364.99	80.38
365.201	-38.4
365.412	31.23
365.623	-1.54
365.834	12.8
366.045	31.23
366.256	31.23
366.467	102.91
366.678	90.62
366.889	76.29
367.1	-17.92
367.311	25.09
367.522	27.14
367.733	66.05
367.944	16.9
368.155	68.09
368.366	37.38
368.577	96.77
368.788	90.62
368.999	0.51
369.209	47.62
369.42	164.35
369.631	143.87
369.842	107.01
370.053	-22.02
370.264	49.66
370.474	6.66
370.685	-7.68
370.896	-3.58
371.107	107.01
371.317	8.7
371.528	39.42
371.739	104.96
371.95	39.42
372.16	90.62
372.371	-19.97
372.582	76.29
372.792	104.96
373.003	53.76
373.214	55.81
373.424	84.48
373.635	-28.16
373.846	98.81
374.056	104.96
374.267	-15.87
374.477	4.61
374.688	33.28
374.898	12.8
375.109	-13.82
375.319	-5.63
375.53	74.24
375.74	-5.63
375.951	14.85
376.161	98.81
376.372	139.77
376.582	-26.11
376.793	57.86
377.003	-26.11
377.214	41.47
377.424	53.76
377.635	66.05
377.845	12.8
378.055	162.3
378.266	41.47
378.476	8.7
378.686	51.71
378.897	123.39
379.107	61.95
379.317	76.29
379.528	16.9
379.738	78.33
379.948	8.7
380.158	41.47
380.369	49.66
380.579	66.05
380.789	98.81
380.999	74.24
381.21	20.99
381.42	143.87
381.63	57.86
381.84	147.97
382.05	57.86
382.261	49.66
382.471	82.43
382.681	53.76
382.891	113.15
383.101	14.85
383.311	80.38
383.521	25.09
383.731	104.96
383.941	43.52
384.151	49.66
384.361	129.53
384.571	104.96
384.781	74.24
384.991	111.1
385.201	107.01
385.411	49.66
385.621	45.57
385.831	61.95
386.041	10.75
386.251	49.66
386.461	64
386.671	68.09
386.881	66.05
387.091	55.81
387.301	102.91
387.511	123.39
387.72	57.86
387.93	127.49
388.14	0.51
388.35	49.66
388.56	78.33
388.769	152.06
388.979	59.9
389.189	-32.26
389.399	59.9
389.609	66.05
389.818	39.42
390.028	82.43
390.238	86.53
390.447	74.24
390.657	74.24
390.867	47.62
391.076	-93.69
391.286	68.09
391.496	33.28
391.705	94.72
391.915	154.11
392.125	23.04
392.334	0.51
392.544	57.86
392.753	47.62
392.963	6.66
393.172	53.76
393.382	14.85
393.591	94.72
393.801	72.19
394.01	143.87
394.22	29.18
394.429	152.06
394.639	0.51
394.848	72.19
395.058	115.2
395.267	68.09
395.477	37.38
395.686	20.99
395.895	74.24
396.105	100.86
396.314	20.99
396.524	66.05
396.733	82.43
396.942	23.04
397.152	90.62
397.361	104.96
397.57	59.9
397.78	53.76
397.989	168.45
398.198	123.39
398.407	82.43
398.617	80.38
398.826	129.53
399.035	66.05
399.244	33.28
399.453	102.91
399.663	102.91
399.872	129.53
400.081	25.09
400.29	127.49
400.499	78.33
400.708	98.81
400.917	78.33
401.127	88.57
401.336	119.29
401.545	176.64
401.754	125.44
401.963	96.77
402.172	94.72
402.381	61.95
402.59	154.11
402.799	147.97
403.008	111.1
403.217	45.57
403.426	127.49
403.635	127.49
403.844	127.49
404.053	90.62
404.262	49.66
404.471	119.29
404.68	86.53
404.888	61.95
405.097	78.33
405.306	121.34
405.515	82.43
405.724	98.81
405.933	188.93
406.142	154.11
406.35	180.73
406.559	137.73
406.768	172.54
406.977	223.74
407.185	158.21
407.394	154.11
407.603	115.2
407.812	143.87
408.02	246.27
408.229	135.68
408.438	137.73
408.646	188.93
408.855	205.31
409.064	233.98
409.272	211.45
409.481	260.6
409.69	279.04
409.898	217.6
410.107	246.27
410.315	219.64
410.524	252.41
410.733	262.65
410.941	203.26
411.15	283.13
411.358	246.27
411.567	348.67
411.775	332.28
411.984	401.91
412.192	328.19
412.401	309.76
412.609	391.67
412.818	358.91
413.026	360.95
413.234	385.53
413.443	397.82
413.651	336.38
413.86	483.83
414.068	537.08
414.276	432.63
414.485	410.11
414.693	545.27
414.901	590.33
415.11	492.02
415.318	516.6
415.526	565.75
415.734	651.77
415.943	678.39
416.151	639.48
416.359	592.37
416.567	647.67
416.776	623.09
416.984	758.26
417.192	702.97
417.4	713.21
417.608	643.57
417.817	770.55
418.025	827.89
418.233	893.43
418.441	807.41
418.649	903.67
418.857	932.34
419.065	1030.64
419.273	928.24
419.481	1063.41
419.689	1090.03
419.897	1059.31
420.105	1163.76
420.313	1264.11
420.521	1176.05
420.729	1192.43
420.937	1229.29
421.145	1317.36
421.353	1360.36
421.561	1446.38
421.769	1401.32
421.977	1559.02
422.185	1450.47
422.393	1569.26
422.601	1696.23
422.809	1657.32
423.017	1788.39
423.224	1741.29
423.432	1989.09
423.64	1868.26
423.848	2114.02
424.056	1966.56
424.263	2017.76
424.471	2099.68
424.679	2236.89
424.887	2234.85
425.094	2470.36
425.302	2435.55
425.51	2580.95
425.718	2701.78
425.925	2607.58
426.133	2742.74
426.341	2820.56
426.548	2916.82
426.756	2986.45
426.964	2996.69
427.171	3080.66
427.379	3234.25
427.586	3332.56
427.794	3389.9
428.001	3664.33
428.209	3772.87
428.417	3561.93
428.624	3981.76
428.832	3817.93
429.039	3903.94
429.247	3840.45
429.454	4243.9
429.662	4542.91
429.869	4325.82
430.076	4549.05
430.284	4438.46
430.491	4649.4
430.699	4921.78
430.906	4866.49
431.114	4966.84
431.321	5226.93
431.528	5231.02
431.736	5540.27
431.943	5689.77
432.15	5755.3
432.358	5822.89
432.565	6123.94
432.772	6173.09
432.979	6168.99
433.187	6384.03
433.394	6369.69
433.601	6914.45
433.808	6955.41
434.016	6912.41
434.223	7297.42
434.43	7553.42
434.637	7393.68
434.844	7870.86
435.052	8003.97
435.259	7928.2
435.466	8065.41
435.673	8073.6
435.88	8563.07
436.087	9036.15
436.294	9058.68
436.501	8782.2
436.708	8882.55
436.915	9316.72
437.122	9779.56
437.329	9507.18
437.537	9918.82
437.743	10150.25
437.95	10017.13
438.157	10479.97
438.364	10772.83
438.571	10764.64
438.778	10973.53
438.985	11796.81
439.192	11661.65
439.399	11827.53
439.606	11653.45
439.813	12435.78
440.02	13058.36
440.227	12736.83
440.433	12945.72
440.64	13125.94
440.847	12990.78
441.054	13441.33
441.261	14242.09
441.467	13932.84
441.674	14049.58
441.881	14999.84
442.088	14754.08
442.294	14633.25
442.501	14928.16
442.708	15313.17
442.914	16097.55
443.121	16732.42
443.328	16261.38
443.534	17314.04
443.741	16965.89
443.948	16550.15
444.154	18116.84
444.361	17858.8
444.568	17717.49
444.774	17895.66
444.981	18419.94
445.187	18286.82
445.394	19425.5
445.6	19171.55
445.807	21096.64
446.013	20048.08
446.22	20836.55
446.426	21115.07
446.633	21192.89
446.839	22151.34
447.046	21297.34
447.252	22436.01
447.459	22290.6
447.665	22388.91
447.871	23367.84
448.078	24428.68
448.284	23107.74
448.491	23658.65
448.697	24969.35
448.903	25409.66
449.11	25075.84
449.316	24742.02
449.522	25329.79
449.728	25632.89
449.935	25784.44
450.141	26329.2
450.347	27062.37
450.553	26032.24
450.76	26144.88
450.966	27222.11
451.172	26726.5
451.378	27363.42
451.584	26847.33
451.791	27582.56
451.997	27443.29
452.203	27822.17
452.409	27816.02
452.615	27672.67
452.821	26835.05
453.027	26222.7
453.233	27723.86
453.44	26867.81
453.646	26716.26
453.852	27277.41
454.058	27826.26
454.264	26691.69
454.47	27058.28
454.676	26540.14
454.882	27560.03
455.088	24887.43
455.294	25577.59
455.5	25725.05
455.705	26189.94
455.911	24696.97
456.117	24475.79
456.323	24047.76
456.529	22780.07
456.735	23974.03
456.941	23142.56
457.147	23042.21
457.352	22118.57
457.558	21907.63
457.764	22214.83
457.97	21700.79
458.176	21121.21
458.381	20850.88
458.587	20072.65
458.793	20136.14
458.999	19118.3
459.204	20459.72
459.41	19685.59
459.616	18342.12
459.821	18264.3
460.027	18200.81
460.233	18116.84
460.438	17197.31
460.644	17240.31
460.85	16431.37
461.055	16247.05
461.261	15958.28
461.466	14973.21
461.672	14293.29
461.878	15556.88
462.083	14536.99
462.289	14123.3
462.494	13981.99
462.7	13328.69
462.905	13175.09
463.111	13574.45
463.316	13629.74
463.522	13398.32
463.727	13048.12
463.932	13123.9
464.138	13269.3
464.343	12892.48
464.549	12863.8
464.754	13187.38
464.959	12937.53
465.165	13084.98
465.37	12360
465.575	12048.71
465.781	12710.21
465.986	12730.69
466.191	12067.14
466.397	12128.58
466.602	11438.42
466.807	11886.92
467.012	11903.31
467.218	11794.76
467.423	11534.67
467.628	11825.48
467.833	12101.96
468.038	11678.03
468.244	11428.18
468.449	11776.33
468.654	11532.62
468.859	11460.95
469.064	11313.49
469.269	10957.14
469.474	10905.95
469.679	11065.69
469.885	11043.16
470.09	11028.82
470.295	10965.34
470.5	10500.45
470.705	10494.3
470.91	10572.13
471.115	10492.26
471.32	10387.81
471.525	10459.49
471.73	10234.21
471.935	10015.08
472.139	9861.48
472.344	10066.28
472.549	9763.18
472.754	9632.11
472.959	9511.28
473.164	9339.25
473.369	9249.14
473.574	9503.09
473.778	9533.81
473.983	9339.25
474.188	9134.45
474.393	8931.7
474.598	9060.73
474.802	8827.26
475.007	8911.22
475.212	8925.56
475.417	8440.19
475.621	8663.42
475.826	8628.6
476.031	8309.12
476.235	8176
476.44	8513.92
476.645	8264.07
476.849	7963.01
477.054	8151.43
477.259	7870.86
477.463	8051.08
477.668	7729.55
477.872	7975.3
478.077	7596.43
478.282	7442.83
478.486	7475.6
478.691	7324.05
478.895	7391.63
479.1	7434.64
479.304	7420.3
479.509	7252.37
479.713	7258.51
479.918	7057.81
480.122	7018.9
480.326	7168.4
480.531	7238.03
480.735	7063.96
480.94	6840.73
481.144	7047.57
481.348	6781.34
481.553	6947.22
481.757	6709.66
481.961	7006.61
482.166	7016.85
482.37	6797.72
482.574	6916.5
482.778	6625.69
482.983	7012.76
483.187	6818.2
483.391	6869.4
483.595	6738.33
483.8	6934.93
484.004	6871.45
484.208	7006.61
484.412	6709.66
484.616	6826.39
484.821	6957.46
485.025	6656.41
485.229	6926.74
485.433	6701.47
485.637	6824.34
485.841	6877.59
486.045	6846.87
486.249	6783.38
486.453	6607.26
486.657	6795.67
486.861	6830.49
487.065	6799.77
487.269	6812.06
487.473	6783.38
487.677	6863.26
487.881	6855.06
488.085	6826.39
488.289	6850.97
488.493	6703.51
488.697	6850.97
488.901	6838.68
489.105	6803.86
489.309	6822.3
489.512	6877.59
489.716	6840.73
489.92	7006.61
490.124	6885.78
490.328	7082.39
490.531	6969.75
490.735	6840.73
490.939	7072.15
491.143	6984.09
491.346	7098.77
491.55	7053.72
491.754	7080.34
491.958	7094.68
492.161	7111.06
492.365	7133.59
492.569	7141.78
492.772	7209.36
492.976	7176.59
493.18	7299.47
493.383	7268.75
493.587	7381.39
493.79	7573.9
493.994	7506.32
494.197	7362.96
494.401	7528.85
494.605	7547.28
494.808	7795.08
495.012	7795.08
495.215	7760.27
495.419	7854.47
495.622	7684.49
495.825	8003.97
496.029	7844.23
496.232	8216.96
496.436	8028.55
496.639	8391.04
496.843	8216.96
497.046	8192.39
497.249	8470.91
497.453	8518.01
497.656	8591.74
497.859	8761.72
498.063	8587.64
498.266	8866.17
498.469	8970.62
498.673	8919.42
498.876	9150.84
499.079	9156.98
499.282	9068.92
499.485	9431.41
499.689	9316.72
499.892	9505.13
500.095	9523.57
500.298	9910.63
500.501	9724.27
500.705	10015.08
500.908	10281.32
501.111	10309.99
501.314	10174.82
501.517	10492.26
501.72	10695
501.923	10744.16
502.126	10819.93
502.329	11059.54
502.532	11004.25
502.735	11331.92
502.938	11579.73
503.141	11360.59
503.344	11624.78
503.547	11616.59
503.75	11702.61
503.953	11792.72
504.156	12085.58
504.359	12370.24
504.562	12247.37
504.765	12620.1
504.968	12945.72
505.17	12613.95
505.373	12702.01
505.576	12960.06
505.779	13027.64
505.982	13173.05
506.185	13687.09
506.387	13648.18
506.59	13705.52
506.793	14084.39
506.996	13947.18
507.198	14367.01
507.401	14176.55
507.604	14684.45
507.807	15110.43
508.009	14997.79
508.212	14932.25
508.415	15255.83
508.617	15577.36
508.82	15339.8
509.022	15780.11
509.225	15970.57
509.428	15857.93
509.63	16177.42
509.833	16249.1
510.035	16546.05
510.238	16541.96
510.44	16935.17
510.643	17176.83
510.845	17408.25
511.048	17209.59
511.25	17457.4
511.453	17602.8
511.655	18204.91
511.858	18129.13
512.06	18444.52
512.262	18344.17
512.465	18577.64
512.667	18682.08
512.87	19056.86
513.072	19134.68
513.274	19648.72
513.477	19869.9
513.679	19986.64
513.881	20037.84
514.084	20510.92
514.286	20674.76
514.488	20945.09
514.69	21389.5
514.893	21313.72
515.095	21602.49
515.297	21676.21
515.499	21878.96
515.701	22151.34
515.904	22366.38
516.106	22429.87
516.308	22923.43
516.51	22986.91
516.712	23318.68
516.914	23738.52
517.116	23902.36
517.318	23842.96
517.52	24066.19
517.722	24518.79
517.925	24856.71
518.127	25251.97
518.329	25624.7
518.531	25272.45
518.733	26026.1
518.935	26392.69
519.136	26417.26
519.338	26613.87
519.54	26826.85
519.742	27103.33
519.944	27299.94
520.146	28108.88
520.348	28084.31
520.55	28262.48
520.752	28547.15
520.954	29317.18
521.155	28911.69
521.357	29427.77
521.559	29689.91
521.761	29700.15
521.963	30109.75
522.164	30761
522.366	30930.98
522.568	30865.45
522.77	31207.46
522.971	32204.82
523.173	31496.22
523.375	32389.14
523.576	32221.2
523.778	32409.62
523.98	33073.16
524.181	33310.72
524.383	33650.69
524.584	33949.69
524.786	33845.24
524.988	34021.37
525.189	34732.01
525.391	34760.69
525.592	35041.26
525.794	35506.15
525.995	35135.46
526.197	35315.69
526.398	35796.96
526.6	36149.21
526.801	36196.31
527.003	36806.61
527.204	36667.34
527.406	36904.91
527.607	37109.71
527.808	37619.65
528.01	37179.34
528.211	37613.51
528.412	38160.31
528.614	38197.18
528.815	38418.36
529.016	38569.91
529.218	38315.96
529.419	39104.43
529.62	39161.77
529.822	38975.41
530.023	39120.81
530.224	39038.89
530.425	39268.26
530.626	39153.58
530.828	38924.21
531.029	40292.25
531.23	39632.8
531.431	40054.68
531.632	39960.48
531.833	40191.9
532.035	40495
532.236	40867.73
532.437	41025.42
532.638	40861.58
532.839	40634.26
533.04	40937.36
533.241	40613.78
533.442	41580.42
533.643	40890.26
533.844	41127.82
534.045	41449.35
534.246	40902.54
534.447	41629.57
534.648	41295.75
534.849	41529.22
535.05	41185.16
535.251	41854.85
535.451	41871.23
535.652	41873.28
535.853	41756.55
536.054	41975.68
536.255	42221.44
536.456	41523.08
536.657	42200.96
536.857	41926.53
537.058	41797.51
537.259	42354.55
537.46	42227.58
537.66	41836.42
537.861	42436.47
538.062	42022.78
538.263	42211.2
538.463	42108.8
538.664	41912.19
538.865	42284.92
539.065	42600.31
539.266	41865.09
539.466	42653.56
539.667	41944.96
539.868	42876.79
540.068	42530.68
540.269	42450.81
540.469	42725.24
540.67	41990.02
540.87	42284.92
541.071	42170.24
541.271	42774.39
541.472	42289.02
541.672	42329.98
541.873	42104.7
542.073	41955.2
542.274	42676.08
542.474	42372.99
542.675	42037.12
542.875	42850.16
543.075	42528.63
543.276	41832.32
543.476	42825.59
543.676	42198.91
543.877	42633.08
544.077	42264.44
544.277	42334.07
544.478	42420.09
544.678	42637.17
544.878	42256.25
545.078	42205.05
545.279	42157.95
545.479	42153.85
545.679	42461.05
545.879	42170.24
546.079	42407.8
546.28	42235.77
546.48	41912.19
546.68	42170.24
546.88	42213.24
547.08	42407.8
547.28	42028.93
547.48	42207.1
547.68	42424.18
547.88	41990.02
548.081	42530.68
548.281	42528.63
548.481	42059.65
548.681	42448.76
548.881	42596.21
549.081	41953.15
549.28	41731.97
549.48	42653.56
549.68	42233.72
549.88	42581.88
550.08	42141.56
550.28	42510.2
550.48	41635.72
550.68	42624.89
550.88	42008.45
551.08	42065.79
551.279	42436.47
551.479	41744.26
551.679	42069.89
551.879	42092.41
552.079	42399.61
552.278	42026.88
552.478	42160
552.678	42178.43
552.878	42157.95
553.077	41789.31
553.277	41879.42
553.477	42606.45
553.676	42119.04
553.876	42415.99
554.076	41793.41
554.275	41969.54
554.475	41228.17
554.674	42078.08
554.874	41478.02
555.074	41371.53
555.273	41965.44
555.473	41523.08
555.672	41252.75
555.872	41514.89
556.071	41428.87
556.271	41525.13
556.47	41187.21
556.67	40941.46
556.869	40728.47
557.068	41262.99
557.268	40675.22
557.467	41179.02
557.667	40687.51
557.866	41011.09
558.065	40818.58
558.265	40249.24
558.464	40357.78
558.663	40490.9
558.863	40208.28
559.062	40994.7
559.261	40118.17
559.461	40482.71
559.66	39495.59
559.859	39913.37
560.058	39577.51
560.258	39331.75
560.457	39233.45
560.656	39540.64
560.855	39585.7
561.054	39972.77
561.253	38733.74
561.453	39184.3
561.652	39421.86
561.851	39163.82
562.05	38922.16
562.249	38391.73
562.448	38864.81
562.647	38574
562.846	38391.73
563.045	38391.73
563.244	37828.54
563.443	38590.39
563.642	37898.17
563.841	37894.08
564.04	37787.58
564.239	37701.57
564.438	37441.48
564.637	37433.28
564.836	37220.3
565.035	36929.48
565.234	37373.89
565.432	36972.49
565.631	37033.93
565.83	37078.99
566.029	36480.98
566.228	36079.58
566.427	36511.7
566.625	36102.11
566.824	35516.39
567.023	36075.48
567.222	35227.62
567.42	35735.52
567.619	35622.88
567.818	35135.46
568.016	35241.96
568.215	35084.26
568.414	34564.08
568.612	34902
568.811	34699.25
569.01	34519.03
569.208	33996.79
569.407	34695.15
569.605	33814.52
569.804	34461.68
570.002	33486.85
570.201	33429.51
570.4	33161.22
570.598	33384.45
570.797	32966.66
570.995	32741.39
571.193	32622.61
571.392	32823.31
571.59	32303.12
571.789	32665.61
571.987	32307.22
572.186	32364.56
572.384	32421.91
572.582	32030.74
572.781	32120.85
572.979	31483.94
573.177	31791.13
573.376	31741.98
573.574	31014.95
573.772	31539.23
573.971	30939.18
574.169	30951.46
574.367	30955.56
574.565	30746.67
574.763	30631.98
574.962	30548.01
575.16	30068.79
575.358	30443.57
575.556	29814.84
575.754	30257.2
575.952	29765.69
576.151	30050.36
576.349	29282.37
576.547	29464.64
576.745	29622.33
576.943	29599.8
577.141	29212.74
577.339	29257.79
577.537	29044.8
577.735	28772.42
577.933	28569.68
578.131	28672.07
578.329	28723.27
578.527	28315.73
578.725	28295.25
578.923	28360.78
579.121	27887.7
579.319	27916.37
579.516	27947.09
579.714	27660.38
579.912	27848.79
580.11	27689.05
580.308	27674.71
580.506	27426.91
580.704	27031.65
580.901	27476.06
581.099	27502.68
581.297	26808.42
581.495	26896.49
581.692	27127.91
581.89	26591.34
582.088	27007.08
582.285	26513.52
582.483	26581.1
582.681	26155.12
582.878	26378.35
583.076	26007.67
583.274	26130.55
583.471	25901.17
583.669	26134.64
583.866	25905.27
584.064	26067.06
584.262	25972.85
584.459	25675.9
584.657	25227.39
584.854	25534.59
585.052	25016.45
585.249	25270.4
585.447	25370.75
585.644	24723.59
585.841	24961.16
586.039	25057.41
586.236	24772.74
586.434	24635.53
586.631	24322.19
586.828	24772.74
587.026	24406.16
587.223	24348.81
587.42	24219.79
587.618	24322.19
587.815	23787.67
588.012	23959.7
588.21	23744.66
588.407	24230.03
588.604	23724.18
588.801	23529.62
588.999	23730.33
589.196	23496.86
589.393	23885.97
589.59	23351.45
589.787	23519.39
589.984	23156.89
590.182	23097.5
590.379	23191.71
590.576	22788.26
590.773	22669.48
590.97	22493.35
591.167	22444.2
591.364	22417.58
591.561	22651.05
591.758	22501.54
591.955	22186.16
592.152	22624.42
592.349	22229.16
592.546	22454.44
592.743	22210.73
592.94	21846.19
593.137	22059.18
593.334	22204.59
593.531	21856.43
593.727	21772.47
593.924	21555.38
594.121	21625.01
594.318	21385.4
594.515	21436.6
594.712	21749.94
594.908	21352.63
595.105	21201.08
595.302	20914.37
595.499	21096.64
595.696	21405.88
595.892	20904.13
596.089	21090.49
596.286	20965.57
596.482	20705.48
596.679	20838.59
596.876	20834.5
597.072	20490.44
597.269	20709.57
597.466	20494.54
597.662	20588.74
597.859	20162.76
598.055	20259.02
598.252	20039.89
598.448	20109.52
598.645	19841.23
598.841	19570.9
599.038	20052.17
599.234	20183.24
599.431	19839.19
599.627	19575
599.824	19677.4
600.02	19239.13
600.217	19327.19
600.413	19337.43
600.609	19464.41
600.806	19284.19
601.002	19370.2
601.198	18948.32
601.395	18968.8
601.591	19181.79
601.787	18983.13
601.984	19050.72
602.18	19003.61
602.376	18622.69
602.572	18708.71
602.769	18825.44
602.965	18448.61
603.161	18534.63
603.357	18559.2
603.553	18477.29
603.75	18497.77
603.946	18153.71
604.142	18264.3
604.338	18082.03
604.534	17963.25
604.73	17961.2
604.926	17805.55
605.122	17877.23
605.318	17887.47
605.514	17639.67
605.71	17643.76
605.906	17774.83
606.102	17590.52
606.298	17725.68
606.494	17303.8
606.69	17520.88
606.886	17731.83
607.082	17238.26
607.278	17164.54
607.474	17189.11
607.67	17152.25
607.866	16955.65
608.062	17357.05
608.257	17266.94
608.453	17191.16
608.649	16916.73
608.845	16773.38
609.041	16652.55
609.236	16675.07
609.432	16765.18
609.628	16648.45
609.824	16576.77
610.019	16597.25
610.215	16494.85
610.411	16886.01
610.606	16337.16
610.802	16505.09
610.998	16285.96
611.193	16376.07
611.389	16079.11
611.584	16130.31
611.78	15878.41
611.976	16118.03
612.171	16040.2
612.367	15954.19
612.562	16130.31
612.758	15755.54
612.953	15438.1
613.149	16204.04
613.344	15352.09
613.539	15984.91
613.735	15522.07
613.93	15671.57
614.126	15737.1
614.321	15733.01
614.517	15726.86
614.712	15362.33
614.907	15128.86
615.103	15599.89
615.298	15384.85
615.493	15434
615.688	15239.45
615.884	15395.09
616.079	15075.61
616.274	15122.71
616.47	15270.17
616.665	15139.1
616.86	15073.56
617.055	14817.57
617.25	14919.96
617.445	15268.12
617.641	14754.08
617.836	15008.03
618.031	14481.7
618.226	14838.05
618.421	14590.24
618.616	14917.92
618.811	14395.68
619.006	14541.09
619.201	14307.62
619.396	14567.71
619.591	14162.22
619.786	14127.4
619.981	14020.91
620.176	14426.4
620.371	14029.1
620.566	14147.88
620.761	14229.8
620.956	13965.61
621.151	13865.26
621.346	13988.14
621.541	13357.36
621.735	13678.9
621.93	13386.04
622.125	13541.68
622.32	13259.06
622.515	13435.19
622.709	13095.22
622.904	13410.61
623.099	13111.61
623.294	13121.85
623.488	12718.4
623.683	13189.43
623.878	12738.88
624.072	12822.84
624.267	12853.56
624.462	12779.84
624.656	12462.4
624.851	12624.19
625.046	12611.9
625.24	12163.4
625.435	12374.34
625.629	12216.65
625.824	12124.49
626.018	12093.77
626.213	11815.24
626.407	11915.59
626.602	11565.39
626.796	11909.45
626.991	11800.91
627.185	11725.13
627.38	11706.7
627.574	11536.72
627.768	11700.56
627.963	11563.34
628.157	11370.83
628.352	11348.31
628.546	11157.85
628.74	11282.77
628.935	11082.07
629.129	11086.17
629.323	10854.75
629.517	10813.79
629.712	10854.75
629.906	10826.07
630.1	10768.73
630.294	10682.72
630.489	10604.89
630.683	10795.36
630.877	10426.72
631.071	10451.3
631.265	10541.41
631.459	10453.34
631.653	10498.4
631.848	10289.51
632.042	10217.83
632.236	10326.37
632.43	10154.34
632.624	9961.83
632.818	10027.37
633.012	9826.67
633.206	10064.23
633.4	9851.24
633.594	9797.99
633.788	9873.77
633.982	9906.54
634.176	9662.83
634.369	9642.35
634.563	9421.17
634.757	9429.36
634.951	9615.73
635.145	9785.71
635.339	9374.06
635.533	9191.8
635.726	9253.23
635.92	9134.45
636.114	9066.87
636.308	9103.73
636.501	8958.33
636.695	8974.71
636.889	8976.76
637.083	8864.12
637.276	8862.07
637.47	8778.11
637.664	8655.23
637.857	8601.98
638.051	8774.01
638.244	8567.17
638.438	8442.24
638.632	8479.1
638.825	8300.93
639.019	8337.79
639.212	8282.5
639.406	8249.73
639.599	8511.87
639.793	8192.39
639.986	8176
640.18	8206.72
640.373	8149.38
640.567	7983.49
640.76	7954.82
640.954	8067.46
641.147	7750.03
641.34	7686.54
641.534	7778.7
641.727	7567.76
641.92	7571.85
642.114	7762.31
642.307	7582.09
642.5	7528.85
642.694	7600.52
642.887	7524.75
643.08	7537.04
643.273	7160.21
643.467	7201.17
643.66	7139.73
643.853	7334.29
644.046	7182.74
644.239	7178.64
644.432	7086.48
644.626	7147.92
644.819	6971.8
645.012	7147.92
645.205	6988.18
645.398	6896.02
645.591	6973.85
645.784	6887.83
645.977	6730.14
646.17	6709.66
646.363	6687.13
646.556	6599.07
646.749	6660.51
646.942	6746.52
647.135	6599.07
647.328	6607.26
647.521	6539.68
647.714	6451.61
647.907	6377.89
648.099	6341.02
648.292	6230.43
648.485	6449.57
648.678	6306.21
648.871	6150.56
649.064	6171.04
649.256	6273.44
649.449	6275.49
649.642	6130.08
649.835	6068.64
650.027	6003.11
650.22	5976.48
650.413	5972.39
650.605	5931.43
650.798	5904.81
650.991	5910.95
651.183	5869.99
651.376	5976.48
651.568	5820.84
651.761	5837.22
651.954	5775.78
652.146	5673.39
652.339	5710.25
652.531	5669.29
652.724	5632.43
652.916	5542.32
653.109	5536.17
653.301	5558.7
653.494	5749.16
653.686	5509.55
653.879	5456.3
654.071	5564.84
654.263	5405.1
654.456	5331.37
654.648	5341.61
654.84	5290.42
655.033	5300.66
655.225	5278.13
655.417	5102
655.61	5278.13
655.802	5263.79
655.994	5214.64
656.186	5300.66
656.379	5077.43
656.571	5034.42
656.763	5173.68
656.955	5112.24
657.148	5063.09
657.34	5102
657.532	4960.69
657.724	5071.28
657.916	4893.11
658.108	4968.88
658.3	4975.03
658.492	4891.06
658.684	4753.85
658.876	4880.82
659.068	4850.1
659.26	4684.22
659.452	4800.95
659.644	4751.8
659.836	4852.15
660.028	4874.68
660.22	4673.98
660.412	4706.74
660.604	4698.55
660.796	4651.45
660.988	4534.71
661.18	4481.47
661.372	4587.96
661.563	4671.93
661.755	4596.15
661.947	4553.15
662.139	4422.08
662.331	4489.66
662.522	4547
662.714	4440.51
662.906	4393.4
663.097	4407.74
663.289	4391.36
663.481	4415.93
663.673	4428.22
663.864	4340.16
664.056	4469.18
664.247	4426.17
664.439	4366.78
664.631	4227.52
664.822	4374.97
665.014	4342.21
665.205	4256.19
665.397	4315.58
665.588	4233.66
665.78	4252.1
665.971	4350.4
666.163	4325.82
666.354	4319.68
666.546	4178.37
666.737	4059.59
666.929	4043.2
667.12	4180.42
667.311	4223.42
667.503	4176.32
667.694	4151.74
667.885	4082.11
668.077	4112.83
668.268	4219.33
668.459	4110.79
668.651	4104.64
668.842	4184.51
669.033	3989.96
669.224	4112.83
669.416	4137.41
669.607	4006.34
669.798	4026.82
669.989	4266.43
670.18	4149.7
670.371	4137.41
670.563	4012.48
670.754	4112.83
670.945	4067.78
671.136	4014.53
671.327	3998.15
671.518	4043.2
671.709	4043.2
671.9	4143.55
672.091	4075.97
672.282	4037.06
672.473	3928.52
672.664	4129.22
672.855	4137.41
673.046	3932.61
673.237	4118.98
673.428	3922.37
673.619	4202.94
673.809	4014.53
674	4299.2
674.191	4243.9
674.382	4061.63
674.573	4096.45
674.764	4174.27
674.954	4286.91
675.145	4104.64
675.336	4102.59
675.527	4108.74
675.717	4184.51
675.908	4174.27
676.099	4209.09
676.289	4239.81
676.48	4055.49
676.671	4250.05
676.861	4256.19
677.052	4172.22
677.243	4196.8
677.433	4227.52
677.624	4342.21
677.814	4084.16
678.005	4221.38
678.195	4260.29
678.386	4403.64
678.576	4260.29
678.767	4350.4
678.957	4381.12
679.148	4413.88
679.338	4444.6
679.529	4317.63
679.719	4393.4
679.909	4460.99
680.1	4456.89
680.29	4446.65
680.481	4553.15
680.671	4454.84
680.861	4506.04
681.052	4522.43
681.242	4604.35
681.432	4499.9
681.622	4387.26
681.813	4585.91
682.003	4678.07
682.193	4651.45
682.383	4686.26
682.573	4575.67
682.764	4571.58
682.954	4542.91
683.144	4647.35
683.334	4487.61
683.524	4669.88
683.714	4665.78
683.904	4583.87
684.094	4780.47
684.284	4600.25
684.474	4690.36
684.664	4706.74
684.854	4782.52
685.044	4680.12
685.234	4606.39
685.424	4772.28
685.614	4573.63
685.804	4686.26
685.994	4653.5
686.184	4712.89
686.374	4753.85
686.564	4694.46
686.753	4706.74
686.943	4563.39
687.133	4651.45
687.323	4604.35
687.513	4651.45
687.702	4575.67
687.892	4518.33
688.082	4571.58
688.272	4489.66
688.461	4422.08
688.651	4510.14
688.841	4487.61
689.03	4391.36
689.22	4377.02
689.41	4469.18
689.599	4479.42
689.789	4538.81
689.979	4352.45
690.168	4329.92
690.358	4374.97
690.547	4374.97
690.737	4362.69
690.926	4110.79
691.116	4186.56
691.305	4278.72
691.495	4256.19
691.684	4264.38
691.874	4059.59
692.063	4229.57
692.252	4125.12
692.442	4014.53
692.631	4018.63
692.82	3965.38
693.01	4047.3
693.199	3912.13
693.388	4018.63
693.578	4020.67
693.767	3926.47
693.956	4032.96
694.146	3850.69
694.335	3985.86
694.524	3949
694.713	3932.61
694.902	3789.25
695.092	3842.5
695.281	3858.89
695.47	3807.69
695.659	3871.17
695.848	4022.72
696.037	3875.27
696.226	3985.86
696.415	3867.08
696.604	3908.04
696.793	3840.45
696.982	3760.58
697.171	3764.68
697.36	3797.45
697.549	3713.48
697.738	3858.89
697.927	3703.24
698.116	3992
698.305	3809.73
698.494	3834.31
698.683	3846.6
698.872	3885.51
699.061	3897.8
699.25	3901.89
699.438	3875.27
699.627	3711.43
699.816	3985.86
700.005	3865.03
700.193	3684.81
700.382	3793.35
700.571	3895.75
700.76	3854.79
700.948	3881.41
701.137	3903.94
701.326	3871.17
701.514	3961.28
701.703	4043.2
701.892	3897.8
702.08	3979.72
702.269	3897.8
702.457	4006.34
702.646	3824.07
702.834	3897.8
703.023	3924.42
703.212	3951.04
703.4	3920.32
703.589	3957.19
703.777	4092.35
703.965	3848.65
704.154	4088.26
704.342	4039.11
704.531	4028.87
704.719	4020.67
704.907	4118.98
705.096	4043.2
705.284	4014.53
705.472	4080.07
705.661	4057.54
705.849	4053.44
706.037	4141.5
706.226	4051.39
706.414	4207.04
706.602	4110.79
706.79	4178.37
706.979	4030.91
707.167	4096.45
707.355	4121.03
707.543	4194.75
707.731	4108.74
707.919	4141.5
708.107	4161.98
708.296	4166.08
708.484	4100.55
708.672	4276.67
708.86	4331.97
709.048	4280.77
709.236	4235.71
709.424	4288.96
709.612	4354.49
709.8	4248
709.988	4338.11
710.176	4325.82
710.364	4538.81
710.551	4432.32
710.739	4444.6
710.927	4293.05
711.115	4473.28
711.303	4481.47
711.491	4495.8
711.679	4471.23
711.866	4506.04
712.054	4452.8
712.242	4374.97
712.43	4567.48
712.617	4516.28
712.805	4563.39
712.993	4516.28
713.181	4536.76
713.368	4594.11
713.556	4628.92
713.744	4571.58
713.931	4757.94
714.119	4659.64
714.306	4850.1
714.494	4624.83
714.682	4626.87
714.869	4712.89
715.057	4698.55
715.244	4512.19
715.432	4846.01
715.619	4522.43
715.807	4741.56
715.994	4850.1
716.182	4702.65
716.369	4839.86
716.556	4997.56
716.744	4784.57
716.931	4774.33
717.119	4932.02
717.306	4977.08
717.493	4854.2
717.681	4981.17
717.868	5069.23
718.055	5020.08
718.242	4936.12
718.43	5026.23
718.617	5022.13
718.804	4923.83
718.991	5018.04
719.179	5159.35
719.366	4952.5
719.553	5099.95
719.74	5132.72
719.927	5155.25
720.114	5282.22
720.301	5093.81
720.488	5128.63
720.676	5169.59
720.863	5192.11
721.05	5276.08
721.237	5210.54
721.424	5267.89
721.611	5312.94
721.798	5300.66
721.985	5038.52
722.172	5185.97
722.358	5218.74
722.545	5290.42
722.732	5259.7
722.919	5333.42
723.106	5439.92
723.293	5331.37
723.48	5493.16
723.667	5448.11
723.853	5390.77
724.04	5337.52
724.227	5493.16
724.414	5620.14
724.6	5454.25
724.787	5366.19
724.974	5603.75
725.161	5294.51
725.347	5298.61
725.534	5505.45
725.72	5423.53
725.907	5423.53
726.094	5624.23
726.28	5493.16
726.467	5300.66
726.653	5452.2
726.84	5554.6
727.027	5695.91
727.213	5468.59
727.4	5538.22
727.586	5568.94
727.773	5577.13
727.959	5530.03
728.145	5669.29
728.332	5661.1
728.518	5554.6
728.705	5636.52
728.891	5603.75
729.077	5532.08
729.264	5783.98
729.45	5732.78
729.636	5822.89
729.823	5603.75
730.009	5804.46
730.195	5792.17
730.382	5652.91
730.568	5726.63
730.754	5734.82
730.94	5530.03
731.126	5849.51
731.313	5558.7
731.499	5706.15
731.685	5620.14
731.871	5593.51
732.057	5661.1
732.243	5796.26
732.429	5681.58
732.615	5751.21
732.801	5816.74
732.987	5722.54
733.173	5749.16
733.359	5869.99
733.545	5745.06
733.731	5620.14
733.917	5953.96
734.103	5876.13
734.289	5806.5
734.475	5777.83
734.661	5921.19
734.847	5761.45
735.033	5693.87
735.219	5759.4
735.404	5704.1
735.59	5812.65
735.776	5628.33
735.962	5841.32
736.148	5882.28
736.333	5749.16
736.519	5628.33
736.705	5835.17
736.89	5724.58
737.076	5804.46
737.262	5589.42
737.447	5732.78
737.633	5831.08
737.819	5779.88
738.004	5687.72
738.19	5634.47
738.375	5906.85
738.561	5898.66
738.747	5548.46
738.932	5636.52
739.118	5872.04
739.303	5579.18
739.489	5667.24
739.674	5632.43
739.859	5659.05
740.045	5558.7
740.23	5659.05
740.416	5654.95
740.601	5558.7
740.786	5599.66
740.972	5650.86
741.157	5509.55
741.342	5507.5
741.528	5511.6
741.713	5364.14
741.898	5484.97
742.084	5480.88
742.269	5700.01
742.454	5298.61
742.639	5568.94
742.824	5114.29
743.01	5505.45
743.195	5394.86
743.38	5353.9
743.565	5302.7
743.75	5198.26
743.935	5284.27
744.12	5388.72
744.305	5118.39
744.49	5202.35
744.675	5159.35
744.86	5202.35
745.045	5208.5
745.23	4968.88
745.415	5136.82
745.6	5138.87
745.785	5061.04
745.97	5112.24
746.155	4960.69
746.34	5001.65
746.525	5032.37
746.71	4934.07
746.895	4614.59
747.079	4972.98
747.264	4837.81
747.449	4749.75
747.634	4778.42
747.819	4809.14
748.003	4452.8
748.188	4753.85
748.373	4831.67
748.557	4678.07
748.742	4446.65
748.927	4587.96
749.111	4633.02
749.296	4487.61
749.481	4575.67
749.665	4506.04
749.85	4377.02
750.034	4413.88
750.219	4331.97
750.404	4293.05
750.588	4358.59
750.773	4422.08
750.957	4278.72
751.141	4225.47
751.326	4288.96
751.51	4121.03
751.695	4174.27
751.879	4239.81
752.064	4149.7
752.248	4032.96
752.432	4092.35
752.617	3983.81
752.801	4018.63
752.985	3834.31
753.17	3944.9
753.354	3793.35
753.538	3875.27
753.722	3785.16
753.907	3750.34
754.091	3693
754.275	3701.19
754.459	3731.91
754.643	3604.94
754.828	3664.33
755.012	3703.24
755.196	3621.32
755.38	3615.18
755.564	3563.98
755.748	3508.68
755.932	3518.92
756.116	3480.01
756.3	3404.24
756.484	3463.63
756.668	3404.24
756.852	3307.98
757.036	3289.55
757.22	3338.7
757.404	3359.18
757.588	3092.94
757.772	3211.73
757.956	3224.01
758.14	3301.84
758.323	3027.41
758.507	3129.81
758.691	3138
758.875	3094.99
759.059	3111.38
759.242	3115.47
759.426	3041.75
759.61	2982.35
759.794	2793.94
759.977	3127.76
760.161	3082.7
760.345	2992.59
760.528	2980.31
760.712	2937.3
760.895	2957.78
761.079	2900.44
761.263	2925.01
761.446	2798.04
761.63	2855.38
761.813	2810.33
761.997	2777.56
762.18	2882
762.364	2759.13
762.547	2757.08
762.731	2673.11
762.914	2679.26
763.098	2587.1
763.281	2660.82
763.464	2664.92
763.648	2591.19
763.831	2636.25
764.015	2585.05
764.198	2689.49
764.381	2470.36
764.564	2601.43
764.748	2515.42
764.931	2531.8
765.114	2589.14
765.297	2542.04
765.481	2511.32
765.664	2552.28
765.847	2421.21
766.03	2507.23
766.213	2415.07
766.397	2380.25
766.58	2382.3
766.763	2464.22
766.946	2449.88
767.129	2410.97
767.312	2439.64
767.495	2277.85
767.678	2398.68
767.861	2408.92
768.044	2382.3
768.227	2236.89
768.41	2159.07
768.593	2294.24
768.776	2284
768.959	2341.34
769.142	2324.96
769.324	2230.75
769.507	2294.24
769.69	2208.22
769.873	2318.81
770.056	2245.09
770.239	2167.26
770.421	2228.7
770.604	2161.12
770.787	2154.98
770.97	1991.14
771.152	2093.54
771.335	2091.49
771.518	2157.02
771.7	2089.44
771.883	2120.16
772.066	1989.09
772.248	2038.24
772.431	2081.25
772.613	1999.33
772.796	1882.6
772.978	1956.32
773.161	2036.19
773.343	1896.93
773.526	1851.88
773.708	1864.16
773.891	1913.31
774.073	1841.64
774.256	1880.55
774.438	1892.84
774.621	1847.78
774.803	1851.88
774.985	1759.72
775.168	1970.66
775.35	1851.88
775.532	1780.2
775.715	1704.42
775.897	1606.12
776.079	1692.13
776.261	1761.77
776.444	1688.04
776.626	1614.31
776.808	1683.94
776.99	1567.21
777.173	1622.5
777.355	1679.85
777.537	1612.26
777.719	1561.06
777.901	1563.11
778.083	1563.11
778.265	1540.58
778.447	1602.02
778.629	1552.87
778.811	1503.72
778.993	1475.05
779.175	1583.59
779.357	1589.74
779.539	1487.34
779.721	1409.51
779.903	1407.47
780.085	1372.65
780.267	1419.75
780.449	1360.36
780.631	1358.32
780.812	1356.27
780.994	1386.99
781.176	1407.47
781.358	1315.31
781.54	1323.5
781.721	1292.78
781.903	1362.41
782.085	1286.64
782.267	1417.71
782.448	1237.49
782.63	1194.48
782.812	1192.43
782.993	1188.33
783.175	1208.81
783.357	1190.38
783.538	1227.25
783.72	1184.24
783.901	1202.67
784.083	1128.94
784.264	1135.09
784.446	1153.52
784.627	1092.08
784.809	1171.95
784.99	1008.11
785.172	1090.03
785.353	1073.65
785.535	1130.99
785.716	1106.42
785.897	1028.59
786.079	1032.69
786.26	1077.74
786.441	1163.76
786.623	1083.89
786.804	981.49
786.985	1026.54
787.167	956.91
787.348	1006.06
787.529	928.24
787.71	1081.84
787.891	971.25
788.073	918
788.254	901.62
788.435	985.58
788.616	975.35
788.797	928.24
788.978	860.66
789.159	821.75
789.34	965.11
789.522	821.75
789.703	915.95
789.884	872.95
790.065	821.75
790.246	850.42
790.427	891.38
790.607	881.14
790.788	973.3
790.969	801.27
791.15	852.47
791.331	846.32
791.512	881.14
791.693	745.97
791.874	782.84
792.054	868.85
792.235	754.16
792.416	793.08
792.597	731.64
792.778	737.78
792.958	842.23
793.139	702.97
793.32	778.74
793.5	729.59
793.681	721.4
793.862	668.15
794.042	838.13
794.223	604.66
794.404	735.73
794.584	680.44
794.765	723.44
794.945	713.21
795.126	694.77
795.306	721.4
795.487	563.7
795.667	619
795.848	678.39
796.028	700.92
796.209	649.72
796.389	686.58
796.57	582.14
796.75	635.38
796.93	741.88
797.111	590.33
797.291	690.68
797.471	647.67
797.652	649.72
797.832	672.25
798.012	707.06
798.192	545.27
798.373	631.29
798.553	621.05
798.733	612.85
798.913	530.94
799.093	612.85
799.274	721.4
799.454	586.23
799.634	674.29
799.814	610.81
799.994	563.7
800.174	549.37
800.354	629.24
800.534	541.18
800.714	637.43
800.894	598.52
801.074	500.22
801.254	606.71
801.434	596.47
801.614	588.28
801.794	504.31
801.974	1274.35
802.154	553.46
802.334	535.03
802.514	553.46
802.693	569.85
802.873	565.75
803.053	477.69
803.233	528.89
803.413	502.26
803.592	485.88
803.772	520.7
803.952	520.7
804.131	475.64
804.311	532.98
804.491	524.79
804.67	457.21
804.85	475.64
805.03	485.88
805.209	498.17
805.389	352.76
805.568	442.87
805.748	494.07
805.928	492.02
806.107	467.45
806.287	438.78
806.466	406.01
806.646	422.39
806.825	459.26
807.004	492.02
807.184	516.6
807.363	508.41
807.543	434.68
807.722	358.91
807.901	496.12
808.081	483.83
808.26	406.01
808.439	475.64
808.619	360.95
808.798	502.26
808.977	432.63
809.156	377.34
809.336	399.87
809.515	483.83
809.694	408.06
809.873	469.5
810.052	440.83
810.231	426.49
810.411	406.01
810.59	467.45
810.769	373.24
810.948	242.17
811.127	340.47
811.306	340.47
811.485	305.66
811.664	389.63
811.843	416.25
812.022	389.63
812.201	299.52
812.38	410.11
812.559	377.34
812.737	395.77
812.916	446.97
813.095	346.62
813.274	338.43
813.453	350.71
813.632	401.91
813.811	393.72
813.989	320
814.168	356.86
814.347	285.18
814.526	354.81
814.704	363
814.883	408.06
815.062	326.14
815.24	399.87
815.419	225.79
815.598	320
815.776	256.51
815.955	340.47
816.133	301.56
816.312	348.67
816.49	342.52
816.669	293.37
816.847	330.23
817.026	385.53
817.204	246.27
817.383	332.28
817.561	358.91
817.74	379.39
817.918	301.56
818.097	332.28
818.275	248.32
818.453	320
818.632	315.9
818.81	258.56
818.988	270.84
819.167	254.46
819.345	258.56
819.523	315.9
819.701	352.76
819.879	320
820.058	336.38
820.236	416.25
820.414	203.26
820.592	248.32
820.77	279.04
820.948	283.13
821.127	258.56
821.305	295.42
821.483	203.26
821.661	248.32
821.839	188.93
822.017	225.79
822.195	254.46
822.373	324.09
822.551	197.12
822.729	297.47
822.907	143.87
823.085	301.56
823.262	256.51
823.44	303.61
823.618	240.12
823.796	281.08
823.974	207.36
824.152	207.36
824.329	233.98
824.507	279.04
824.685	213.5
824.863	254.46
825.04	215.55
825.218	256.51
825.396	276.99
825.574	238.08
825.751	231.93
825.929	254.46
826.107	221.69
826.284	221.69
826.462	305.66
826.639	252.41
826.817	168.45
826.994	211.45
827.172	203.26
827.349	254.46
827.527	197.12
827.704	229.88
827.882	205.31
828.059	160.25
828.237	311.8
828.414	254.46
828.591	190.97
828.769	254.46
828.946	229.88
829.124	295.42
829.301	244.22
829.478	152.06
829.655	205.31
829.833	203.26
830.01	213.5
830.187	252.41
830.364	236.03
830.542	182.78
830.719	168.45
830.896	248.32
831.073	205.31
831.25	137.73
831.427	195.07
831.604	139.77
831.782	176.64
831.959	111.1
832.136	188.93
832.313	221.69
832.49	180.73
832.667	223.74
832.844	125.44
833.021	180.73
833.198	188.93
833.374	227.84
833.551	162.3
833.728	178.69
833.905	147.97
834.082	80.38
834.259	186.88
834.436	213.5
834.612	139.77
834.789	164.35
834.966	88.57
835.143	172.54
835.319	135.68
835.496	119.29
835.673	244.22
835.85	246.27
836.026	94.72
836.203	107.01
836.38	82.43
836.556	131.58
836.733	121.34
836.909	195.07
837.086	55.81
837.262	111.1
837.439	164.35
837.616	98.81
837.792	127.49
837.968	158.21
838.145	49.66
838.321	115.2
838.498	115.2
838.674	90.62
838.851	82.43
839.027	147.97
839.203	121.34
839.38	86.53
839.556	102.91
839.732	178.69
839.909	172.54
840.085	158.21
840.261	135.68
840.437	158.21
840.614	115.2
840.79	147.97
840.966	127.49
841.142	107.01
841.318	64
841.494	115.2
841.671	123.39
841.847	74.24
842.023	102.91
842.199	172.54
842.375	111.1
842.551	66.05
842.727	145.92
842.903	129.53
843.079	107.01
843.255	131.58
843.431	111.1
843.607	127.49
843.783	137.73
843.959	104.96
844.134	137.73
844.31	180.73
844.486	115.2
844.662	193.02
844.838	98.81
845.013	78.33
845.189	203.26
845.365	127.49
845.541	131.58
845.716	72.19
845.892	102.91
846.068	66.05
846.244	84.48
846.419	88.57
846.595	102.91
846.77	94.72
846.946	139.77
847.122	139.77
847.297	82.43
847.473	186.88
847.648	66.05
847.824	133.63
847.999	-56.83
848.175	131.58
848.35	27.14
848.526	123.39
848.701	90.62
848.876	215.55
849.052	174.59
849.227	64
849.403	104.96
849.578	82.43
849.753	55.81
849.929	119.29
850.104	88.57
850.279	88.57
850.454	131.58
850.63	20.99
850.805	102.91
850.98	104.96
851.155	43.52
851.33	78.33
851.505	66.05
851.681	100.86
851.856	25.09
852.031	90.62
852.206	57.86
852.381	33.28
852.556	25.09
852.731	133.63
852.906	70.14
853.081	57.86
853.256	160.25
853.431	94.72
853.606	113.15
853.781	33.28
853.956	35.33
854.131	55.81
854.305	78.33
854.48	70.14
854.655	123.39
854.83	76.29
855.005	39.42
855.18	-34.3
855.354	74.24
855.529	43.52
855.704	64
855.879	80.38
856.053	82.43
856.228	47.62
856.403	86.53
856.577	115.2
856.752	86.53
856.926	78.33
857.101	8.7
857.276	29.18
857.45	49.66
857.625	104.96
857.799	123.39
857.974	70.14
858.148	-7.68
858.323	131.58
858.497	80.38
858.672	55.81
858.846	-36.35
859.02	57.86
859.195	-7.68
859.369	66.05
859.543	64
859.718	78.33
859.892	53.76
860.066	88.57
860.241	41.47
860.415	76.29
860.589	35.33
860.763	80.38
860.938	57.86
861.112	80.38
861.286	33.28
861.46	72.19
861.634	-13.82
861.808	104.96
861.982	76.29
862.157	-22.02
862.331	57.86
862.505	10.75
862.679	4.61
862.853	33.28
863.027	47.62
863.201	107.01
863.375	51.71
863.549	111.1
863.722	25.09
863.896	37.38
864.07	27.14
864.244	61.95
864.418	102.91
864.592	20.99
864.766	6.66
864.939	57.86
865.113	82.43
865.287	33.28
865.461	33.28
865.634	86.53
865.808	55.81
865.982	59.9
866.156	20.99
866.329	-36.35
866.503	57.86
866.676	80.38
866.85	41.47
867.024	4.61
867.197	37.38
867.371	74.24
867.544	35.33
867.718	41.47
867.891	131.58
868.065	14.85
868.238	57.86
868.412	37.38
868.585	20.99
868.759	10.75
868.932	-73.21
869.105	-24.06
869.279	74.24
869.452	76.29
869.625	12.8
869.799	47.62
869.972	51.71
870.145	49.66
870.319	88.57
870.492	43.52
870.665	45.57
870.838	37.38
871.011	-54.78
871.185	25.09
871.358	8.7
871.531	88.57
871.704	6.66
871.877	37.38
872.05	29.18
872.223	2.56
872.396	8.7
872.569	76.29
872.742	53.76
872.915	86.53
873.088	31.23
873.261	0.51
873.434	25.09
873.607	53.76
873.78	37.38
873.953	18.94
874.126	49.66
874.299	55.81
874.471	-19.97
874.644	66.05
874.817	57.86
874.99	111.1
875.163	-24.06
875.335	41.47
875.508	45.57
875.681	76.29
875.853	-28.16
876.026	57.86
876.199	70.14
876.371	64
876.544	-22.02
876.717	74.24
876.889	-48.64
877.062	49.66
877.234	-44.54
877.407	33.28
877.579	68.09
877.752	-5.63
877.924	57.86
878.097	-22.02
878.269	-9.73
878.442	37.38
878.614	-15.87
878.786	86.53
878.959	-3.58
879.131	-28.16
879.303	-3.58
879.476	20.99
879.648	80.38
879.82	-97.79
879.993	12.8
880.165	53.76
880.337	-30.21
880.509	4.61
880.681	-5.63
880.854	-17.92
881.026	-5.63
881.198	143.87
881.37	45.57
881.542	33.28
881.714	-58.88
881.886	59.9
882.058	16.9
882.23	29.18
882.402	29.18
882.574	74.24
882.746	53.76
882.918	86.53
883.09	4.61
883.262	64
883.434	-22.02
883.606	-24.06
883.778	-3.58
883.95	78.33
884.122	-42.5
884.293	53.76
884.465	51.71
884.637	14.85
884.809	8.7
884.98	113.15
885.152	4.61
885.324	20.99
885.496	-36.35
885.667	29.18
885.839	23.04
886.011	72.19
886.182	-56.83
886.354	37.38
886.525	33.28
886.697	14.85
886.869	-32.26
887.04	31.23
887.212	25.09
887.383	90.62
887.555	-40.45
887.726	16.9
887.897	4.61
888.069	47.62
888.24	29.18
888.412	98.81
888.583	-24.06
888.754	20.99
888.926	8.7
889.097	4.61
889.268	2.56
889.44	-81.41
889.611	-42.5
889.782	2.56
889.953	96.77
890.125	39.42
890.296	-73.21
890.467	-36.35
890.638	39.42
890.809	84.48
890.98	6.66
891.151	49.66
891.323	55.81
891.494	64
891.665	45.57
891.836	25.09
892.007	49.66
892.178	86.53
892.349	49.66
892.52	-26.11
892.691	-56.83
892.862	-52.74
893.032	14.85
893.203	-19.97
893.374	64
893.545	37.38
893.716	-56.83
893.887	25.09
894.057	16.9
894.228	20.99
894.399	25.09
894.57	39.42
894.74	37.38
894.911	-19.97
895.082	64
895.253	-3.58
895.423	31.23
895.594	41.47
895.764	-7.68
895.935	-38.4
896.106	31.23
896.276	-71.17
896.447	-28.16
896.617	12.8
896.788	-71.17
896.958	-11.78
897.129	-28.16
897.299	-24.06
897.47	66.05
897.64	55.81
897.81	-7.68
897.981	-17.92
898.151	-85.5
898.322	23.04
898.492	-3.58
898.662	53.76
898.832	-56.83
899.003	29.18
899.173	57.86
899.343	-9.73
899.513	-32.26
