Data from USB4F104151__84__11-31-49-303.txt Node

Date: Fri Mar 14 11:31:49 EDT 2025
User: louis
Spectrometer: USB4F10415
Trigger mode: 4
Integration Time (sec): 5.000000E-2
Scans to average: 1
Electric dark correction enabled: true
Nonlinearity correction enabled: false
Boxcar width: 0
XAxis mode: Wavelengths
Number of Pixels in Spectrum: 3648
>>>>>Begin Spectral Data<<<<<
178.204	-169.98
178.424	-169.98
178.644	-169.98
178.864	-192.51
179.084	-110.59
179.304	-36.86
179.524	36.86
179.744	8.19
179.964	55.3
180.184	20.48
180.404	-88.06
180.624	-45.06
180.844	43.01
181.064	-32.77
181.283	26.62
181.503	-8.19
181.723	20.48
181.943	-20.48
182.163	12.29
182.383	-28.67
182.602	96.25
182.822	114.69
183.042	40.96
183.262	16.38
183.482	-28.67
183.701	2.05
183.921	18.43
184.141	-63.49
184.361	34.82
184.58	45.06
184.8	-24.58
185.02	-2.05
185.239	6.14
185.459	38.91
185.679	38.91
185.898	-110.59
186.118	38.91
186.338	-10.24
186.557	32.77
186.777	-16.38
186.997	65.54
187.216	-38.91
187.436	83.97
187.655	53.25
187.875	18.43
188.095	16.38
188.314	104.45
188.534	116.73
188.753	10.24
188.973	26.62
189.192	51.2
189.412	24.58
189.631	53.25
189.851	59.39
190.07	20.48
190.29	-71.68
190.509	40.96
190.729	8.19
190.948	116.73
191.168	143.36
191.387	51.2
191.607	-38.91
191.826	18.43
192.045	34.82
192.265	26.62
192.484	110.59
192.704	51.2
192.923	-22.53
193.142	75.77
193.362	43.01
193.581	75.77
193.8	53.25
194.02	38.91
194.239	59.39
194.458	12.29
194.678	43.01
194.897	-8.19
195.116	12.29
195.335	0
195.555	8.19
195.774	26.62
195.993	6.14
196.212	-16.38
196.432	-61.44
196.651	51.2
196.87	-4.1
197.089	120.83
197.308	38.91
197.528	-24.58
197.747	-6.14
197.966	-14.34
198.185	122.88
198.404	-32.77
198.623	-4.1
198.842	75.77
199.062	30.72
199.281	67.58
199.5	-10.24
199.719	-8.19
199.938	16.38
200.157	73.73
200.376	32.77
200.595	16.38
200.814	-18.43
201.033	-2.05
201.252	47.1
201.471	53.25
201.69	83.97
201.909	69.63
202.128	131.07
202.347	63.49
202.566	2.05
202.785	10.24
203.004	-51.2
203.223	86.01
203.442	-40.96
203.661	4.1
203.879	96.25
204.098	83.97
204.317	-22.53
204.536	47.1
204.755	40.96
204.974	28.67
205.193	24.58
205.411	34.82
205.63	47.1
205.849	22.53
206.068	2.05
206.287	30.72
206.505	53.25
206.724	-30.72
206.943	20.48
207.162	47.1
207.381	-28.67
207.599	26.62
207.818	59.39
208.037	2.05
208.255	-18.43
208.474	28.67
208.693	40.96
208.911	-14.34
209.13	43.01
209.349	100.35
209.567	20.48
209.786	63.49
210.005	10.24
210.223	-16.38
210.442	-49.15
210.661	14.34
210.879	79.87
211.098	81.92
211.316	-24.58
211.535	57.34
211.753	43.01
211.972	6.14
212.191	69.63
212.409	34.82
212.628	10.24
212.846	32.77
213.065	8.19
213.283	88.06
213.502	20.48
213.72	59.39
213.938	-8.19
214.157	12.29
214.375	53.25
214.594	-14.34
214.812	20.48
215.031	18.43
215.249	81.92
215.467	22.53
215.686	59.39
215.904	126.97
216.122	2.05
216.341	63.49
216.559	14.34
216.778	92.16
216.996	83.97
217.214	20.48
217.432	-24.58
217.651	22.53
217.869	8.19
218.087	-14.34
218.306	10.24
218.524	53.25
218.742	6.14
218.96	98.3
219.179	6.14
219.397	6.14
219.615	90.11
219.833	32.77
220.051	26.62
220.27	63.49
220.488	6.14
220.706	-30.72
220.924	32.77
221.142	16.38
221.36	-6.14
221.578	10.24
221.796	34.82
222.015	-47.1
222.233	20.48
222.451	59.39
222.669	-47.1
222.887	20.48
223.105	45.06
223.323	53.25
223.541	-36.86
223.759	73.73
223.977	-6.14
224.195	49.15
224.413	30.72
224.631	92.16
224.849	45.06
225.067	92.16
225.285	-26.62
225.503	30.72
225.721	-57.34
225.939	30.72
226.157	-36.86
226.375	71.68
226.592	55.3
226.81	14.34
227.028	51.2
227.246	-10.24
227.464	18.43
227.682	-6.14
227.9	75.77
228.117	65.54
228.335	-24.58
228.553	-8.19
228.771	47.1
228.989	-10.24
229.206	36.86
229.424	-18.43
229.642	38.91
229.86	18.43
230.077	51.2
230.295	2.05
230.513	34.82
230.731	40.96
230.948	129.02
231.166	49.15
231.384	75.77
231.601	-14.34
231.819	108.54
232.037	30.72
232.254	2.05
232.472	51.2
232.689	-47.1
232.907	36.86
233.125	-6.14
233.342	-57.34
233.56	-36.86
233.777	67.58
233.995	75.77
234.213	45.06
234.43	55.3
234.648	49.15
234.865	-22.53
235.083	59.39
235.3	34.82
235.518	51.2
235.735	28.67
235.953	153.6
236.17	6.14
236.388	-2.05
236.605	0
236.822	67.58
237.04	36.86
237.257	14.34
237.475	81.92
237.692	-55.3
237.909	20.48
238.127	-45.06
238.344	45.06
238.562	63.49
238.779	-14.34
238.996	40.96
239.214	6.14
239.431	73.73
239.648	-32.77
239.865	69.63
240.083	114.69
240.3	-2.05
240.517	-14.34
240.735	73.73
240.952	10.24
241.169	10.24
241.386	16.38
241.603	-43.01
241.821	-18.43
242.038	14.34
242.255	51.2
242.472	-57.34
242.689	51.2
242.907	18.43
243.124	6.14
243.341	32.77
243.558	-67.58
243.775	-14.34
243.992	47.1
244.209	2.05
244.426	55.3
244.643	30.72
244.86	-16.38
245.078	8.19
245.295	38.91
245.512	22.53
245.729	-34.82
245.946	20.48
246.163	63.49
246.38	73.73
246.597	47.1
246.814	40.96
247.031	-32.77
247.248	67.58
247.464	16.38
247.681	49.15
247.898	-6.14
248.115	71.68
248.332	2.05
248.549	55.3
248.766	26.62
248.983	57.34
249.2	34.82
249.417	92.16
249.633	-24.58
249.85	92.16
250.067	10.24
250.284	-47.1
250.501	45.06
250.717	67.58
250.934	22.53
251.151	14.34
251.368	-14.34
251.585	47.1
251.801	26.62
252.018	38.91
252.235	88.06
252.451	-6.14
252.668	-6.14
252.885	92.16
253.102	63.49
253.318	-40.96
253.535	34.82
253.752	51.2
253.968	-43.01
254.185	-24.58
254.401	75.77
254.618	-22.53
254.835	22.53
255.051	59.39
255.268	43.01
255.484	36.86
255.701	18.43
255.917	38.91
256.134	30.72
256.351	67.58
256.567	34.82
256.784	-6.14
257	8.19
257.217	67.58
257.433	61.44
257.65	63.49
257.866	53.25
258.082	12.29
258.299	71.68
258.515	-10.24
258.732	-2.05
258.948	-40.96
259.165	67.58
259.381	10.24
259.597	10.24
259.814	-2.05
260.03	16.38
260.246	61.44
260.463	129.02
260.679	63.49
260.895	102.4
261.112	61.44
261.328	40.96
261.544	-63.49
261.761	186.37
261.977	43.01
262.193	-14.34
262.409	-18.43
262.626	67.58
262.842	34.82
263.058	26.62
263.274	67.58
263.49	24.58
263.707	57.34
263.923	34.82
264.139	-16.38
264.355	16.38
264.571	77.82
264.787	10.24
265.004	2.05
265.22	73.73
265.436	-10.24
265.652	6.14
265.868	-22.53
266.084	0
266.3	18.43
266.516	26.62
266.732	14.34
266.948	22.53
267.164	-6.14
267.38	16.38
267.596	-14.34
267.812	61.44
268.028	32.77
268.244	-24.58
268.46	51.2
268.676	0
268.892	16.38
269.108	36.86
269.324	-30.72
269.54	22.53
269.756	34.82
269.972	8.19
270.188	2.05
270.403	-30.72
270.619	59.39
270.835	26.62
271.051	8.19
271.267	-30.72
271.483	-4.1
271.698	26.62
271.914	59.39
272.13	40.96
272.346	71.68
272.562	188.41
272.777	79.87
272.993	-4.1
273.209	61.44
273.425	16.38
273.64	10.24
273.856	59.39
274.072	-24.58
274.287	-2.05
274.503	71.68
274.719	71.68
274.934	53.25
275.15	-63.49
275.366	-47.1
275.581	6.14
275.797	8.19
276.012	10.24
276.228	-8.19
276.444	-18.43
276.659	10.24
276.875	-16.38
277.09	18.43
277.306	-43.01
277.521	40.96
277.737	57.34
277.952	43.01
278.168	0
278.383	59.39
278.599	51.2
278.814	-6.14
279.03	63.49
279.245	108.54
279.461	49.15
279.676	-22.53
279.892	28.67
280.107	49.15
280.322	26.62
280.538	-34.82
280.753	57.34
280.969	43.01
281.184	47.1
281.399	98.3
281.615	26.62
281.83	57.34
282.045	-6.14
282.26	16.38
282.476	45.06
282.691	24.58
282.906	67.58
283.122	59.39
283.337	18.43
283.552	36.86
283.767	40.96
283.983	49.15
284.198	-6.14
284.413	26.62
284.628	-104.45
284.843	2.05
285.058	10.24
285.274	51.2
285.489	6.14
285.704	43.01
285.919	59.39
286.134	18.43
286.349	-8.19
286.564	83.97
286.779	40.96
286.995	-96.25
287.21	-10.24
287.425	120.83
287.64	43.01
287.855	59.39
288.07	-20.48
288.285	77.82
288.5	-49.15
288.715	26.62
288.93	55.3
289.145	40.96
289.36	18.43
289.575	34.82
289.79	24.58
290.004	8.19
290.219	18.43
290.434	34.82
290.649	10.24
290.864	-6.14
291.079	38.91
291.294	81.92
291.509	-38.91
291.724	55.3
291.938	-34.82
292.153	-14.34
292.368	34.82
292.583	26.62
292.798	63.49
293.012	0
293.227	18.43
293.442	-14.34
293.657	90.11
293.871	88.06
294.086	26.62
294.301	49.15
294.516	51.2
294.73	-16.38
294.945	-34.82
295.16	-2.05
295.374	34.82
295.589	2.05
295.804	-6.14
296.018	57.34
296.233	129.02
296.447	83.97
296.662	57.34
296.877	45.06
297.091	73.73
297.306	-2.05
297.52	34.82
297.735	-20.48
297.949	10.24
298.164	38.91
298.378	20.48
298.593	-22.53
298.807	67.58
299.022	24.58
299.236	-18.43
299.451	40.96
299.665	14.34
299.88	88.06
300.094	-8.19
300.309	-8.19
300.523	8.19
300.737	32.77
300.952	61.44
301.166	53.25
301.381	-59.39
301.595	-49.15
301.809	-10.24
302.024	-4.1
302.238	-16.38
302.452	77.82
302.667	18.43
302.881	34.82
303.095	94.21
303.309	30.72
303.524	28.67
303.738	-16.38
303.952	-30.72
304.166	57.34
304.381	-34.82
304.595	30.72
304.809	0
305.023	61.44
305.237	-22.53
305.452	-8.19
305.666	43.01
305.88	59.39
306.094	53.25
306.308	139.26
306.522	34.82
306.736	38.91
306.95	51.2
307.164	0
307.379	59.39
307.593	63.49
307.807	59.39
308.021	53.25
308.235	86.01
308.449	36.86
308.663	26.62
308.877	122.88
309.091	10.24
309.305	8.19
309.519	-59.39
309.733	51.2
309.947	-38.91
310.161	-4.1
310.374	10.24
310.588	98.3
310.802	-65.53
311.016	71.68
311.23	34.82
311.444	-73.73
311.658	10.24
311.872	104.45
312.085	81.92
312.299	53.25
312.513	90.11
312.727	43.01
312.941	-55.3
313.154	-10.24
313.368	2.05
313.582	43.01
313.796	65.54
314.009	67.58
314.223	67.58
314.437	63.49
314.651	79.87
314.864	8.19
315.078	26.62
315.292	14.34
315.505	-71.68
315.719	22.53
315.933	110.59
316.146	-12.29
316.36	-61.44
316.573	135.17
316.787	24.58
317.001	30.72
317.214	0
317.428	22.53
317.641	32.77
317.855	43.01
318.068	10.24
318.282	38.91
318.495	71.68
318.709	61.44
318.922	40.96
319.136	81.92
319.349	43.01
319.563	38.91
319.776	34.82
319.99	-6.14
320.203	0
320.417	59.39
320.63	-16.38
320.843	79.87
321.057	-8.19
321.27	92.16
321.483	67.58
321.697	65.54
321.91	55.3
322.124	34.82
322.337	34.82
322.55	10.24
322.763	49.15
322.977	-14.34
323.19	-30.72
323.403	36.86
323.617	106.49
323.83	30.72
324.043	-45.06
324.256	30.72
324.469	14.34
324.683	36.86
324.896	6.14
325.109	-22.53
325.322	30.72
325.535	75.77
325.748	26.62
325.962	26.62
326.175	65.54
326.388	71.68
326.601	59.39
326.814	24.58
327.027	40.96
327.24	55.3
327.453	-43.01
327.666	108.54
327.879	43.01
328.092	24.58
328.305	16.38
328.518	-12.29
328.731	-32.77
328.944	53.25
329.157	40.96
329.37	30.72
329.583	67.58
329.796	88.06
330.009	-59.39
330.222	32.77
330.435	77.82
330.648	94.21
330.861	-18.43
331.073	2.05
331.286	79.87
331.499	40.96
331.712	47.1
331.925	8.19
332.138	18.43
332.35	49.15
332.563	34.82
332.776	57.34
332.989	16.38
333.202	-14.34
333.414	-30.72
333.627	55.3
333.84	24.58
334.053	81.92
334.265	-26.62
334.478	49.15
334.691	28.67
334.903	43.01
335.116	-6.14
335.329	32.77
335.541	43.01
335.754	133.12
335.966	16.38
336.179	73.73
336.392	26.62
336.604	-20.48
336.817	40.96
337.029	122.88
337.242	81.92
337.454	61.44
337.667	92.16
337.88	92.16
338.092	40.96
338.305	83.97
338.517	-10.24
338.729	43.01
338.942	137.21
339.154	-63.49
339.367	-55.3
339.579	16.38
339.792	-24.58
340.004	102.4
340.217	10.24
340.429	30.72
340.641	-22.53
340.854	-59.39
341.066	-57.34
341.278	75.77
341.491	47.1
341.703	16.38
341.915	-14.34
342.128	59.39
342.34	-26.62
342.552	32.77
342.764	81.92
342.977	63.49
343.189	53.25
343.401	67.58
343.613	-40.96
343.826	30.72
344.038	10.24
344.25	55.3
344.462	-57.34
344.674	40.96
344.886	38.91
345.099	-12.29
345.311	96.25
345.523	-36.86
345.735	-36.86
345.947	-16.38
346.159	104.45
346.371	83.97
346.583	40.96
346.795	90.11
347.007	20.48
347.219	22.53
347.431	-75.77
347.643	100.35
347.855	83.97
348.067	83.97
348.279	-30.72
348.491	45.06
348.703	34.82
348.915	-10.24
349.127	-28.67
349.339	30.72
349.551	-30.72
349.763	96.25
349.975	8.19
350.187	129.02
350.399	53.25
350.61	6.14
350.822	83.97
351.034	43.01
351.246	43.01
351.458	71.68
351.669	-10.24
351.881	88.06
352.093	143.36
352.305	94.21
352.517	32.77
352.728	92.16
352.94	36.86
353.152	65.54
353.363	30.72
353.575	59.39
353.787	79.87
353.999	26.62
354.21	55.3
354.422	28.67
354.633	14.34
354.845	71.68
355.057	6.14
355.268	116.73
355.48	47.1
355.692	69.63
355.903	-12.29
356.115	51.2
356.326	43.01
356.538	69.63
356.749	120.83
356.961	108.54
357.172	30.72
357.384	81.92
357.595	139.26
357.807	26.62
358.018	40.96
358.23	81.92
358.441	153.6
358.653	120.83
358.864	90.11
359.075	59.39
359.287	53.25
359.498	-43.01
359.709	94.21
359.921	77.82
360.132	-16.38
360.344	-30.72
360.555	67.58
360.766	32.77
360.977	75.77
361.189	75.77
361.4	18.43
361.611	0
361.823	120.83
362.034	10.24
362.245	65.54
362.456	65.54
362.667	90.11
362.879	26.62
363.09	131.07
363.301	55.3
363.512	14.34
363.723	12.29
363.935	32.77
364.146	40.96
364.357	14.34
364.568	32.77
364.779	-30.72
364.99	92.16
365.201	10.24
365.412	90.11
365.623	-40.96
365.834	24.58
366.045	2.05
366.256	2.05
366.467	38.91
366.678	63.49
366.889	38.91
367.1	-10.24
367.311	57.34
367.522	49.15
367.733	67.58
367.944	40.96
368.155	14.34
368.366	47.1
368.577	-43.01
368.788	4.1
368.999	-8.19
369.209	-10.24
369.42	157.69
369.631	104.45
369.842	36.86
370.053	-14.34
370.264	79.87
370.474	67.58
370.685	36.86
370.896	88.06
371.107	-2.05
371.317	75.77
371.528	0
371.739	131.07
371.95	73.73
372.16	65.54
372.371	-40.96
372.582	30.72
372.792	53.25
373.003	118.78
373.214	14.34
373.424	2.05
373.635	6.14
373.846	135.17
374.056	-6.14
374.267	59.39
374.477	98.3
374.688	-10.24
374.898	55.3
375.109	6.14
375.319	96.25
375.53	47.1
375.74	81.92
375.951	47.1
376.161	67.58
376.372	65.54
376.582	18.43
376.793	77.82
377.003	24.58
377.214	51.2
377.424	96.25
377.635	96.25
377.845	-8.19
378.055	43.01
378.266	38.91
378.476	83.97
378.686	34.82
378.897	73.73
379.107	26.62
379.317	-4.1
379.528	18.43
379.738	100.35
379.948	18.43
380.158	79.87
380.369	32.77
380.579	24.58
380.789	14.34
380.999	75.77
381.21	-43.01
381.42	120.83
381.63	92.16
381.84	38.91
382.05	59.39
382.261	131.07
382.471	108.54
382.681	12.29
382.891	126.97
383.101	32.77
383.311	10.24
383.521	26.62
383.731	47.1
383.941	63.49
384.151	26.62
384.361	16.38
384.571	75.77
384.781	32.77
384.991	133.12
385.201	59.39
385.411	75.77
385.621	-14.34
385.831	-10.24
386.041	88.06
386.251	18.43
386.461	61.44
386.671	-47.1
386.881	73.73
387.091	10.24
387.301	92.16
387.511	96.25
387.72	-10.24
387.93	49.15
388.14	71.68
388.35	71.68
388.56	96.25
388.769	143.36
388.979	90.11
389.189	34.82
389.399	98.3
389.609	110.59
389.818	-6.14
390.028	98.3
390.238	98.3
390.447	22.53
390.657	114.69
390.867	53.25
391.076	67.58
391.286	124.93
391.496	-12.29
391.705	2.05
391.915	104.45
392.125	131.07
392.334	92.16
392.544	79.87
392.753	32.77
392.963	-2.05
393.172	40.96
393.382	51.2
393.591	73.73
393.801	96.25
394.01	100.35
394.22	36.86
394.429	59.39
394.639	63.49
394.848	49.15
395.058	67.58
395.267	149.5
395.477	96.25
395.686	26.62
395.895	98.3
396.105	88.06
396.314	116.73
396.524	18.43
396.733	51.2
396.942	116.73
397.152	51.2
397.361	75.77
397.57	43.01
397.78	63.49
397.989	75.77
398.198	231.42
398.407	57.34
398.617	172.03
398.826	174.08
399.035	81.92
399.244	137.21
399.453	59.39
399.663	108.54
399.872	63.49
400.081	71.68
400.29	114.69
400.499	83.97
400.708	139.26
400.917	122.88
401.127	75.77
401.336	145.41
401.545	198.65
401.754	143.36
401.963	141.31
402.172	26.62
402.381	98.3
402.59	139.26
402.799	88.06
403.008	57.34
403.217	75.77
403.426	36.86
403.635	94.21
403.844	110.59
404.053	45.06
404.262	90.11
404.471	172.03
404.68	133.12
404.888	122.88
405.097	114.69
405.306	143.36
405.515	145.41
405.724	124.93
405.933	155.65
406.142	165.89
406.35	174.08
406.559	163.84
406.768	190.46
406.977	227.32
407.185	180.22
407.394	219.13
407.603	143.36
407.812	196.61
408.02	272.38
408.229	163.84
408.438	256
408.646	169.98
408.855	159.74
409.064	247.8
409.272	262.14
409.481	247.8
409.69	272.38
409.898	139.26
410.107	305.15
410.315	296.96
410.524	231.42
410.733	419.83
410.941	315.39
411.15	321.53
411.358	247.8
411.567	362.49
411.775	331.77
411.984	342.01
412.192	348.15
412.401	395.26
412.609	446.46
412.818	382.97
413.026	419.83
413.234	419.83
413.443	468.98
413.651	501.75
413.86	438.27
414.068	571.38
414.276	542.71
414.485	499.7
414.693	561.14
414.901	661.49
415.11	575.48
415.318	618.49
415.526	595.96
415.734	663.54
415.943	663.54
416.151	702.45
416.359	780.28
416.567	823.28
416.776	747.51
416.984	839.67
417.192	894.96
417.4	915.44
417.608	823.28
417.817	849.91
418.025	952.31
418.233	1007.6
418.441	903.15
418.649	962.55
418.857	1044.46
419.065	1189.87
419.273	1048.56
419.481	1202.16
419.689	1239.02
419.897	1316.84
420.105	1206.25
420.313	1353.71
420.521	1298.41
420.729	1372.14
420.937	1390.57
421.145	1464.3
421.353	1501.16
421.561	1593.32
421.769	1652.71
421.977	1650.66
422.185	1726.44
422.393	1757.16
422.601	1931.23
422.809	1828.84
423.017	1943.52
423.224	2037.73
423.432	2060.26
423.64	2074.59
423.848	2283.49
424.056	2228.19
424.263	2359.26
424.471	2400.22
424.679	2459.61
424.887	2527.19
425.094	2627.54
425.302	2717.65
425.51	2775
425.718	2869.2
425.925	2928.6
426.133	3063.76
426.341	3186.64
426.548	3241.93
426.756	3246.03
426.964	3409.87
427.171	3581.9
427.379	3712.97
427.586	3635.14
427.794	3825.61
428.001	3966.92
428.209	4077.51
428.417	4073.41
428.624	4290.49
428.832	4378.56
429.039	4378.56
429.247	4321.21
429.454	4726.71
429.662	5023.67
429.869	4892.6
430.076	5064.63
430.284	5097.39
430.491	5244.85
430.699	5466.03
430.906	5433.26
431.114	5431.21
431.321	5674.92
431.528	5939.11
431.736	6145.95
431.943	6709.15
432.15	6307.74
432.358	6334.37
432.565	6709.15
432.772	6614.94
432.979	7004.05
433.187	7167.89
433.394	7278.48
433.601	7626.64
433.808	7849.86
434.016	7862.15
434.223	8034.18
434.43	8411.01
434.637	8114.05
434.844	8861.56
435.052	8935.29
435.259	8830.84
435.466	9074.55
435.673	8841.08
435.88	9643.88
436.087	10178.4
436.294	10149.73
436.501	9723.76
436.708	10026.85
436.915	10372.96
437.122	10749.79
437.329	10714.97
437.537	11272.02
437.743	11138.9
437.95	11190.1
438.157	11865.93
438.364	12066.63
438.571	12195.65
438.778	12271.43
438.985	13344.56
439.192	12834.62
439.399	13354.8
439.606	12996.41
439.813	13549.36
440.02	14632.74
440.227	14378.79
440.433	14305.06
440.64	14538.53
440.847	14683.94
441.054	14907.16
441.261	15742.74
441.467	15603.47
441.674	15841.04
441.881	16553.73
442.088	16277.26
442.294	16357.13
442.501	16787.2
442.708	16893.69
442.914	17841.9
443.121	18429.67
443.328	18179.82
443.534	19402.46
443.741	18767.59
443.948	18345.7
444.154	19988.17
444.361	19662.55
444.568	20051.66
444.774	20000.46
444.981	20078.29
445.187	20569.8
445.394	21313.21
445.6	21425.85
445.807	23281.31
446.013	22322.86
446.22	22714.02
446.426	23764.63
446.633	23885.46
446.839	24784.52
447.046	23819.92
447.252	24891.01
447.459	24622.73
447.665	24757.89
447.871	26451.56
448.078	27127.39
448.284	25822.84
448.491	26300.01
448.697	27569.76
448.903	27883.09
449.11	28268.11
449.316	27616.86
449.522	28249.68
449.728	28886.6
449.935	29044.29
450.141	29120.07
450.347	29748.79
450.553	28878.41
450.76	28948.04
450.966	29756.99
451.172	29634.11
451.378	30361.14
451.584	30099
451.791	30594.61
451.997	30639.66
452.203	30813.74
452.409	30957.1
452.615	30594.61
452.821	29718.07
453.027	29333.06
453.233	30438.96
453.44	29410.88
453.646	29709.88
453.852	30254.64
454.058	30649.9
454.264	29476.41
454.47	30103.09
454.676	29511.23
454.882	30637.61
455.088	27653.72
455.294	28683.85
455.5	28569.16
455.705	29275.71
455.911	27586.14
456.117	27313.76
456.323	26625.64
456.529	25214.59
456.735	26396.27
456.941	25935.48
457.147	25470.59
457.352	24618.63
457.558	24080.02
457.764	24317.58
457.97	24088.21
458.176	23453.34
458.381	23428.76
458.587	22290.09
458.793	22273.71
458.999	20825.79
459.204	22460.07
459.41	21853.87
459.616	20567.75
459.821	20606.66
460.027	20477.64
460.233	20137.68
460.438	19009.25
460.644	18925.28
460.85	18394.86
461.055	17833.71
461.261	17757.94
461.466	16676.61
461.672	16238.34
461.878	17213.18
462.083	16211.72
462.289	15894.29
462.494	15884.05
462.7	15208.22
462.905	14599.97
463.111	15017.75
463.316	15154.97
463.522	14835.49
463.727	14980.89
463.932	14784.29
464.138	14528.29
464.343	14704.42
464.549	14268.2
464.754	14804.77
464.959	14563.11
465.165	14413.6
465.37	13680.43
465.575	13662
465.781	14350.12
465.986	14247.72
466.191	13737.77
466.397	13328.18
466.602	12717.89
466.807	13346.61
467.012	13322.04
467.218	12977.98
467.423	13033.27
467.628	13135.67
467.833	13807.41
468.038	12846.91
468.244	12881.72
468.449	13059.9
468.654	12752.7
468.859	12736.32
469.064	12711.74
469.269	12046.15
469.474	12445.51
469.679	12554.05
469.885	12031.82
470.09	12324.68
470.295	12173.13
470.5	11937.61
470.705	11902.79
470.91	11685.71
471.115	11622.22
471.32	11814.73
471.525	11677.52
471.73	11388.75
471.935	11405.14
472.139	10778.46
472.344	11061.08
472.549	10958.68
472.754	11011.93
472.959	10671.97
473.164	10258.28
473.369	10540.9
473.574	10692.44
473.778	10526.56
473.983	10555.23
474.188	10229.6
474.393	10006.38
474.598	10063.72
474.802	10004.33
475.007	9912.17
475.212	9815.91
475.417	9527.15
475.621	9613.17
475.826	9447.28
476.031	9471.86
476.235	9056.12
476.44	9398.13
476.645	8888.18
476.849	9082.74
477.054	9029.49
477.259	8808.31
477.463	8879.99
477.668	8568.7
477.872	8730.49
478.077	8542.08
478.282	8382.34
478.486	8494.97
478.691	8368
478.895	8193.92
479.1	8159.11
479.304	8245.12
479.509	8001.41
479.713	8218.5
479.918	8136.58
480.122	7970.69
480.326	7866.25
480.531	7952.26
480.735	7802.76
480.94	7747.47
481.144	8021.89
481.348	7688.07
481.553	7815.05
481.757	7640.97
481.961	7718.79
482.166	7813
482.37	7671.69
482.574	7616.4
482.778	7583.63
482.983	7686.03
483.187	7634.83
483.391	7835.53
483.595	7759.75
483.8	7618.44
484.004	7724.94
484.208	7776.14
484.412	7593.87
484.616	7661.45
484.821	7743.37
485.025	7538.57
485.229	7788.43
485.433	7692.17
485.637	7497.61
485.841	7552.91
486.045	7450.51
486.249	7714.7
486.453	7401.36
486.657	7569.29
486.861	7479.18
487.065	7243.67
487.269	7563.15
487.473	7395.22
487.677	7540.62
487.881	7653.26
488.085	7499.66
488.289	7655.31
488.493	7546.76
488.697	7665.55
488.901	7804.81
489.105	7708.55
489.309	7718.79
489.512	7813
489.716	7583.63
489.92	7702.41
490.124	7722.89
490.328	7702.41
490.531	7692.17
490.735	7972.74
490.939	7917.45
491.143	7686.03
491.346	7741.32
491.55	7980.93
491.754	7813
491.958	8019.85
492.161	7864.2
492.365	8021.89
492.569	7948.17
492.772	8103.81
492.976	8214.4
493.18	8159.11
493.383	8208.26
493.587	8007.56
493.79	8173.44
493.994	8169.35
494.197	8413.06
494.401	8406.91
494.605	8292.23
494.808	8515.45
495.012	8624
495.215	8576.89
495.419	8890.23
495.622	8632.19
495.825	8816.51
496.029	8705.92
496.232	9129.84
496.436	8929.14
496.639	9254.77
496.843	9084.79
497.046	9332.59
497.249	9406.32
497.453	9639.79
497.656	9467.76
497.859	9492.34
498.063	9891.69
498.266	9996.14
498.469	9885.55
498.673	10000.23
498.876	10094.44
499.079	10078.05
499.282	10317.67
499.485	10559.33
499.689	10647.39
499.892	10803.04
500.095	10688.35
500.298	11091.8
500.501	10702.68
500.705	11196.25
500.908	11317.08
501.111	11427.67
501.314	11573.07
501.517	11716.43
501.72	11872.07
501.923	11767.63
502.126	12085.06
502.329	12259.14
502.532	12408.64
502.735	12334.92
502.938	12617.54
503.141	12721.98
503.344	12695.36
503.547	12779.32
503.75	12982.07
503.953	13455.15
504.156	13412.15
504.359	13518.64
504.562	13606.7
504.765	13754.16
504.968	14116.65
505.17	14395.17
505.373	14253.86
505.576	14565.15
505.779	14624.54
505.982	14743.33
506.185	14890.78
506.387	15005.47
506.59	15116.06
506.793	15671.06
506.996	15474.45
507.198	16160.52
507.401	15832.85
507.604	16191.24
507.807	16158.47
508.009	16748.29
508.212	16494.34
508.415	16594.69
508.617	17026.81
508.82	17135.35
509.022	17266.42
509.225	17680.11
509.428	17850.1
509.63	17858.29
509.833	18153.19
510.035	18642.66
510.238	18452.2
510.44	18783.97
510.643	18835.17
510.845	19222.23
511.048	19396.31
511.25	19422.94
511.453	19433.18
511.655	20221.64
511.858	20090.57
512.06	20354.76
512.262	20518.6
512.465	20797.12
512.667	21137.09
512.87	21444.28
513.072	21139.13
513.274	21761.72
513.477	21843.63
513.679	21997.23
513.881	22445.74
514.084	22638.25
514.286	22714.02
514.488	22754.98
514.69	23557.78
514.893	23234.21
515.095	23803.54
515.297	24219.28
515.499	24247.95
515.701	24632.97
515.904	24741.51
516.106	25394.81
516.308	25409.15
516.51	25671.29
516.712	25597.56
516.914	26429.04
517.116	26639.98
517.318	26527.34
517.52	26887.78
517.722	27289.18
517.925	27717.21
518.127	27666.01
518.329	28196.43
518.531	28192.34
518.733	28464.72
518.935	28968.52
519.136	29206.08
519.338	29601.34
519.54	29679.16
519.742	30346.8
519.944	30234.16
520.146	30901.8
520.348	31137.32
520.55	31522.33
520.752	31798.81
520.954	31886.87
521.155	31968.79
521.357	32679.44
521.559	33011.21
521.761	33566.21
521.963	33832.44
522.164	33828.35
522.366	34129.4
522.568	34639.34
522.77	34973.16
522.971	35403.24
523.173	35186.15
523.375	35202.53
523.576	35886.56
523.778	36242.9
523.98	36904.4
524.181	36842.96
524.383	36957.64
524.584	37367.24
524.786	37596.61
524.988	37506.5
525.189	38358.45
525.391	38538.68
525.592	38411.7
525.794	39204.27
525.995	39194.03
526.197	38999.47
526.398	39882.14
526.6	40045.98
526.801	40369.56
527.003	40603.03
527.204	40885.65
527.406	40887.7
527.607	41481.61
527.808	41749.89
528.01	41127.31
528.211	41514.37
528.412	42345.85
528.614	42450.3
528.815	42403.19
529.016	43052.4
529.218	42915.19
529.419	42925.43
529.62	43355.5
529.822	43494.76
530.023	43249
530.224	43777.38
530.425	43756.9
530.626	43707.75
530.828	43916.64
531.029	44758.36
531.23	44453.21
531.431	44666.2
531.632	44543.32
531.833	44825.94
532.035	44596.57
532.236	45182.29
532.437	45632.84
532.638	44854.61
532.839	45399.37
533.04	45782.34
533.241	45397.32
533.442	45858.12
533.643	46107.97
533.844	45901.12
534.045	46159.17
534.246	45768.01
534.447	46390.59
534.648	46290.24
534.849	46157.12
535.05	46200.13
535.251	46263.61
535.451	46458.17
535.652	47013.17
535.853	46579
536.054	46386.49
536.255	46888.24
536.456	46193.98
536.657	47635.75
536.857	46798.13
537.058	46546.23
537.259	47136.05
537.46	46757.17
537.66	46607.67
537.861	47254.83
538.062	46669.11
538.263	47099.19
538.463	46775.61
538.664	46791.99
538.865	47168.82
539.065	47349.04
539.266	46970.16
539.466	47580.46
539.667	46513.47
539.868	47705.38
540.068	46984.5
540.269	47197.49
540.469	46798.13
540.67	47168.82
540.87	47338.8
541.071	47586.6
541.271	47435.05
541.472	47385.9
541.672	47263.02
541.873	47105.33
542.073	46583.1
542.274	47215.92
542.474	47437.1
542.675	46947.64
542.875	47643.94
543.075	47312.17
543.276	46935.35
543.476	47832.36
543.676	47418.67
543.877	47680.81
544.077	47306.03
544.277	47467.82
544.478	46939.44
544.678	47072.56
544.878	46923.06
545.078	47123.76
545.279	46943.54
545.479	47215.92
545.679	47471.92
545.879	47136.05
546.079	47185.2
546.28	47172.91
546.48	46822.71
546.68	47435.05
546.88	47564.07
547.08	47336.75
547.28	47697.19
547.48	47310.13
547.68	47308.08
547.88	47039.79
548.081	47349.04
548.281	47297.84
548.481	47258.93
548.681	47516.97
548.881	47099.19
549.081	47279.41
549.28	47058.23
549.48	47463.72
549.68	47377.71
549.88	47856.93
550.08	46894.39
550.28	47320.37
550.48	47183.15
550.68	47076.66
550.88	47365.42
551.08	47211.82
551.279	47170.86
551.479	47045.94
551.679	46894.39
551.879	47103.28
552.079	47310.13
552.278	47537.45
552.478	47310.13
552.678	47123.76
552.878	47482.16
553.077	46873.91
553.277	46939.44
553.477	47461.68
553.676	46660.92
553.876	47027.51
554.076	46654.78
554.275	46456.12
554.475	46300.48
554.674	46816.57
554.874	46648.63
555.074	46323.01
555.273	46693.69
555.473	46544.19
555.672	46466.36
555.872	46429.5
556.071	46787.89
556.271	46474.55
556.47	45917.51
556.67	45636.94
556.869	46140.74
557.068	46239.04
557.268	45415.76
557.467	45909.32
557.667	45784.39
557.866	45694.28
558.065	45626.7
558.265	45110.61
558.464	44961.11
558.663	45583.69
558.863	44440.92
559.062	45444.43
559.261	44709.21
559.461	45401.42
559.66	44406.11
559.859	45043.02
560.058	44289.37
560.258	44799.32
560.457	43855.2
560.656	44709.21
560.855	44313.95
561.054	44229.98
561.253	43838.82
561.453	44223.84
561.652	43842.91
561.851	44201.31
562.05	43285.87
562.249	42995.06
562.448	43793.76
562.647	43416.94
562.846	43146.61
563.045	43332.97
563.244	42808.69
563.443	43074.93
563.642	42290.55
563.841	42495.35
564.04	41817.47
564.239	42491.26
564.438	41735.56
564.637	41909.63
564.836	42085.76
565.035	41534.85
565.234	41504.13
565.432	41342.35
565.631	40969.61
565.83	41307.53
566.029	40865.17
566.228	40826.26
566.427	40707.47
566.625	40277.4
566.824	39998.88
567.023	40201.63
567.222	39447.97
567.42	40160.67
567.619	39787.94
567.818	39398.82
568.016	39275.94
568.215	39110.06
568.414	38804.91
568.612	39447.97
568.811	38309.3
569.01	39034.28
569.208	38084.03
569.407	38280.63
569.605	37897.66
569.804	37871.04
570.002	37465.54
570.201	37770.69
570.4	37402.05
570.598	37207.5
570.797	37187.02
570.995	37057.99
571.193	36257.24
571.392	37158.35
571.59	36466.13
571.789	36257.24
571.987	36136.41
572.186	36453.84
572.384	35778.01
572.582	35706.34
572.781	35939.8
572.979	34635.25
573.177	35272.17
573.376	35587.55
573.574	34866.67
573.772	35147.24
573.971	34477.55
574.169	34557.42
574.367	33918.46
574.565	34461.17
574.763	34123.26
574.962	34203.13
575.16	33967.61
575.358	33830.4
575.556	33451.52
575.754	33945.08
575.952	33273.35
576.151	33467.91
576.349	33080.84
576.547	33175.05
576.745	32693.77
576.943	32826.89
577.141	32816.65
577.339	32359.95
577.537	32224.79
577.735	32292.37
577.933	32165.4
578.131	32523.79
578.329	31925.78
578.527	31495.71
578.725	31716.89
578.923	31854.11
579.121	31456.8
579.319	31311.39
579.516	31383.07
579.714	31530.53
579.912	30840.36
580.11	30789.16
580.308	30641.71
580.506	30627.37
580.704	30064.18
580.901	30459.44
581.099	30553.65
581.297	29847.1
581.495	29972.02
581.692	30193.2
581.89	29742.65
582.088	29892.15
582.285	29638.2
582.483	29834.81
582.681	29283.91
582.878	29615.68
583.076	29042.24
583.274	29171.27
583.471	28847.69
583.669	28819.02
583.866	29032
584.064	28743.24
584.262	28345.94
584.459	29005.38
584.657	28208.72
584.854	28425.81
585.052	27752.02
585.249	28126.8
585.447	28225.11
585.644	27631.19
585.841	27711.07
586.039	27838.04
586.236	27530.84
586.434	27483.74
586.631	27303.52
586.828	27233.89
587.026	27074.15
587.223	27270.75
587.42	26979.94
587.618	26922.6
587.815	26418.8
588.012	26607.21
588.21	26682.98
588.407	26594.92
588.604	26611.31
588.801	26187.38
588.999	26195.57
589.196	26152.56
589.393	25929.33
589.59	26084.98
589.787	26136.18
589.984	25765.49
590.182	25486.97
590.379	25894.52
590.576	25464.44
590.773	25423.48
590.97	25118.34
591.167	25607.8
591.364	24979.07
591.561	25390.72
591.758	25024.13
591.955	24704.65
592.152	24962.69
592.349	24858.24
592.546	24340.11
592.743	24733.32
592.94	24254.09
593.137	24381.07
593.334	24370.83
593.531	23821.97
593.727	24239.76
593.924	24301.2
594.121	23856.79
594.318	23965.33
594.515	23651.99
594.712	24147.6
594.908	23817.88
595.105	23668.37
595.302	23518.87
595.499	23340.7
595.696	23469.72
595.892	23070.37
596.089	23545.5
596.286	23428.76
596.482	23189.15
596.679	23064.22
596.876	22658.73
597.072	22845.09
597.269	22974.11
597.466	22658.73
597.662	22525.61
597.859	22587.05
598.055	22650.53
598.252	22441.64
598.448	22378.15
598.645	22156.97
598.841	22099.63
599.038	22005.42
599.234	22091.44
599.431	22113.97
599.627	21911.22
599.824	21909.17
600.02	21829.3
600.217	21903.03
600.413	21733.04
600.609	21323.45
600.806	21372.6
601.002	21464.76
601.198	21284.54
601.395	20944.58
601.591	20991.68
601.787	21167.81
601.984	20891.33
602.18	21092.03
602.376	20817.6
602.572	20917.95
602.769	20594.37
602.965	20549.32
603.161	20594.37
603.357	20684.48
603.553	20551.37
603.75	20418.25
603.946	20098.77
604.142	20471.5
604.338	20080.33
604.534	20319.95
604.73	20012.75
604.926	19701.46
605.122	19973.84
605.318	19734.23
605.514	19474.13
605.71	19484.37
605.906	19252.95
606.102	19502.81
606.298	19613.4
606.494	19498.71
606.69	19375.83
606.886	19384.02
607.082	18986.72
607.278	19324.63
607.474	18712.29
607.67	18917.09
607.866	18783.97
608.062	19074.78
608.257	18898.66
608.453	18763.49
608.649	18835.17
608.845	18616.04
609.041	18829.02
609.236	18882.27
609.432	18364.14
609.628	18433.77
609.824	18302.7
610.019	18046.7
610.215	18321.13
610.411	18310.89
610.606	18292.46
610.802	18433.77
610.998	18046.7
611.193	18071.28
611.389	18118.38
611.584	18040.56
611.78	17759.99
611.976	17852.14
612.171	17872.62
612.367	17868.53
612.562	17817.33
612.758	17635.06
612.953	17442.55
613.149	17583.86
613.344	17651.44
613.539	17571.57
613.735	17399.54
613.93	17587.96
614.126	17391.35
614.321	17784.56
614.517	17164.03
614.712	17331.96
614.907	17020.67
615.103	17174.27
615.298	17168.12
615.493	17207.03
615.688	16826.11
615.884	17215.23
616.079	16844.54
616.274	16748.29
616.47	16695.04
616.665	16797.44
616.86	16666.37
617.055	16738.05
617.25	16637.7
617.445	16664.32
617.641	16342.79
617.836	16439.05
618.031	16019.21
618.226	16412.42
618.421	16418.57
618.616	16463.62
618.811	15787.79
619.006	16238.34
619.201	15771.41
619.396	16170.76
619.591	15693.58
619.786	15984.4
619.981	15566.61
620.176	15775.5
620.371	15673.1
620.566	15699.73
620.761	15460.12
620.956	15609.62
621.151	15304.47
621.346	15376.15
621.541	14919.45
621.735	15111.96
621.93	15300.37
622.125	14907.16
622.32	14665.5
622.515	14882.59
622.709	14765.85
622.904	14669.6
623.099	14612.26
623.294	14569.25
623.488	14505.76
623.683	14526.24
623.878	14032.68
624.072	14274.34
624.267	13905.71
624.462	14151.46
624.656	13772.59
624.851	13872.94
625.046	13707.05
625.24	13756.21
625.435	13547.31
625.629	13674.29
625.824	13403.96
626.018	13502.26
626.213	13420.34
626.407	13330.23
626.602	13236.02
626.796	13018.94
626.991	13145.91
627.185	13092.66
627.38	12810.04
627.574	12775.23
627.768	12828.48
627.963	12820.28
628.157	12508.99
628.352	12658.49
628.546	12408.64
628.74	12588.86
628.935	12330.82
629.129	12449.6
629.323	12209.99
629.517	12191.56
629.712	11939.66
629.906	12044.1
630.1	11890.51
630.294	11978.57
630.489	11802.44
630.683	11781.96
630.877	11865.93
631.071	11626.32
631.265	11640.65
631.459	11534.16
631.653	11333.46
631.848	11648.85
632.042	11505.49
632.236	11507.54
632.43	11171.67
632.624	11001.69
632.818	11059.03
633.012	11075.41
633.206	11046.74
633.4	11042.65
633.594	10960.73
633.788	10688.35
633.982	10774.36
634.176	10755.93
634.369	10641.25
634.563	10723.16
634.757	10467.17
634.951	10481.5
635.145	10288.99
635.339	10295.14
635.533	10389.35
635.726	10350.43
635.92	10282.85
636.114	10264.42
636.308	10127.21
636.501	10033
636.695	9977.7
636.889	9813.87
637.083	9822.06
637.276	9932.65
637.47	9881.45
637.664	9742.19
637.857	9713.52
638.051	9682.8
638.244	9371.5
638.438	9209.72
638.632	9492.34
638.825	9381.74
639.019	9338.74
639.212	9201.52
639.406	9148.28
639.599	9213.81
639.793	9070.45
639.986	9066.36
640.18	9099.13
640.373	9056.12
640.567	8818.55
640.76	8865.66
640.954	8791.93
641.147	8624
641.34	8830.84
641.534	8638.33
641.727	8576.89
641.92	8486.78
642.114	8449.92
642.307	8578.94
642.5	8314.75
642.694	8032.13
642.887	8357.76
643.08	8238.98
643.273	8177.54
643.467	8185.73
643.66	8040.33
643.853	8060.81
644.046	7888.78
644.239	8034.18
644.432	7985.03
644.626	7565.2
644.819	7759.75
645.012	7675.79
645.205	7696.27
645.398	7681.93
645.591	7677.83
645.784	7514
645.977	7417.74
646.17	7384.98
646.363	7464.85
646.556	7423.89
646.749	7376.78
646.942	7233.43
647.135	7262.1
647.328	7157.65
647.521	7301.01
647.714	7229.33
647.907	7202.71
648.099	7102.36
648.292	7114.64
648.485	6975.38
648.678	6989.72
648.871	7096.21
649.064	6870.94
649.256	6842.26
649.449	6743.96
649.642	6649.75
649.835	6694.81
650.027	6700.95
650.22	6872.98
650.413	6668.19
650.605	6565.79
650.798	6666.14
650.991	6592.41
651.183	6528.92
651.376	6481.82
651.568	6442.91
651.761	6389.66
651.954	6393.76
652.146	6336.42
652.339	6330.27
652.531	6395.81
652.724	6395.81
652.916	6305.7
653.109	6258.59
653.301	6252.45
653.494	6285.22
653.686	6023.08
653.879	6182.82
654.071	6281.12
654.263	6004.64
654.456	5842.85
654.648	5955.49
654.84	5973.92
655.033	5930.92
655.225	5865.38
655.417	5906.34
655.61	5965.73
655.802	5808.04
655.994	5775.27
656.186	5775.27
656.379	5752.74
656.571	5611.43
656.763	5646.25
656.955	5638.06
657.148	5810.09
657.34	5666.73
657.532	5607.34
657.724	5513.13
657.916	5531.56
658.108	5687.21
658.3	5433.26
658.492	5466.03
658.684	5439.4
658.876	5498.8
659.068	5349.29
659.26	5367.73
659.452	5420.97
659.644	5373.87
659.836	5201.84
660.028	5470.12
660.22	5207.98
660.412	5269.42
660.604	5066.67
660.796	5222.32
660.988	5224.37
661.18	5195.7
661.372	5240.75
661.563	5097.39
661.755	5031.86
661.947	5232.56
662.139	5195.7
662.331	5109.68
662.522	4937.65
662.714	5001.14
662.906	5015.48
663.097	4890.55
663.289	5033.91
663.481	4990.9
663.673	5038
663.864	4921.27
664.056	4892.6
664.247	4812.73
664.439	4902.84
664.631	4906.93
664.822	5003.19
665.014	5005.24
665.205	4779.96
665.397	4724.66
665.588	4888.5
665.78	4794.29
665.971	4908.98
666.163	4880.31
666.354	4810.68
666.546	4743.1
666.737	4593.59
666.929	4814.77
667.12	4726.71
667.311	4720.57
667.503	4798.39
667.694	4782.01
667.885	4642.75
668.077	4693.94
668.268	4650.94
668.459	4687.8
668.651	4786.1
668.842	4835.25
669.033	4775.86
669.224	4595.64
669.416	4849.59
669.607	4716.47
669.798	4704.18
669.989	4734.9
670.18	4689.85
670.371	4872.12
670.563	4693.94
670.754	4650.94
670.945	4661.18
671.136	4609.98
671.327	4655.03
671.518	4898.74
671.709	4786.1
671.9	4773.82
672.091	4775.86
672.282	4728.76
672.473	4736.95
672.664	4941.75
672.855	4802.49
673.046	4775.86
673.237	4900.79
673.428	4816.82
673.619	4769.72
673.809	4712.38
674	4886.45
674.191	4962.23
674.382	4876.21
674.573	4825.01
674.764	4753.34
674.954	5031.86
675.145	4880.31
675.336	4892.6
675.527	4984.76
675.717	4974.52
675.908	4802.49
676.099	4921.27
676.289	5119.92
676.48	5111.73
676.671	4995
676.861	4999.09
677.052	5083.06
677.243	4966.32
677.433	5048.24
677.624	5212.08
677.814	5074.87
678.005	5087.15
678.195	5289.9
678.386	5201.84
678.576	5089.2
678.767	5130.16
678.957	5121.97
679.148	5457.84
679.338	5171.12
679.529	5343.15
679.719	5232.56
679.909	5404.59
680.1	5453.74
680.29	5377.97
680.481	5314.48
680.671	5400.49
680.861	5396.4
681.052	5601.19
681.242	5488.56
681.432	5582.76
681.622	5525.42
681.813	5660.59
682.003	5670.83
682.193	5482.41
682.383	5578.67
682.573	5545.9
682.764	5568.43
682.954	5629.87
683.144	5775.27
683.334	5717.93
683.524	5629.87
683.714	5697.45
683.904	5717.93
684.094	5769.13
684.284	5617.58
684.474	5738.41
684.664	5644.2
684.854	5674.92
685.044	5566.38
685.234	5724.07
685.424	5631.91
685.614	5674.92
685.804	5732.26
685.994	5726.12
686.184	5765.03
686.374	5578.67
686.564	5584.81
686.753	5603.24
686.943	5654.44
687.133	5572.52
687.323	5670.83
687.513	5539.76
687.702	5398.45
687.892	5527.47
688.082	5529.52
688.272	5375.92
688.461	5472.17
688.651	5785.51
688.841	5420.97
689.03	5527.47
689.22	5517.23
689.41	5300.14
689.599	5386.16
689.789	5437.36
689.979	5351.34
690.168	5248.94
690.358	5177.27
690.547	5392.3
690.737	5294
690.926	5220.27
691.116	5148.59
691.305	5218.22
691.495	5261.23
691.684	5126.07
691.874	5040.05
692.063	5054.39
692.252	5040.05
692.442	5050.29
692.631	4872.12
692.82	5081.01
693.01	5033.91
693.199	4915.12
693.388	4818.87
693.578	4878.26
693.767	5027.76
693.956	4884.41
694.146	4800.44
694.335	4841.4
694.524	4872.12
694.713	4814.77
694.902	4941.75
695.092	4849.59
695.281	4777.91
695.47	4767.67
695.659	4792.25
695.848	4908.98
696.037	4726.71
696.226	4902.84
696.415	4743.1
696.604	4888.5
696.793	4839.35
696.982	5011.38
697.171	4812.73
697.36	4874.17
697.549	4755.38
697.738	4831.16
697.927	4741.05
698.116	4884.41
698.305	4773.82
698.494	4765.62
698.683	4859.83
698.872	4851.64
699.061	4804.53
699.25	4941.75
699.438	4954.04
699.627	4782.01
699.816	4972.47
700.005	4796.34
700.193	4915.12
700.382	5068.72
700.571	4825.01
700.76	4859.83
700.948	5003.19
701.137	4972.47
701.326	4908.98
701.514	4847.54
701.703	4954.04
701.892	4880.31
702.08	5136.31
702.269	5013.43
702.457	4917.17
702.646	5169.07
702.834	5072.82
703.023	4949.94
703.212	5250.99
703.4	5029.81
703.589	5089.2
703.777	5095.35
703.965	5142.45
704.154	5113.78
704.342	5074.87
704.531	5234.61
704.719	5052.34
704.907	5189.55
705.096	5035.96
705.284	5212.08
705.472	5261.23
705.661	5195.7
705.849	5250.99
706.037	5224.37
706.226	5361.58
706.414	5384.11
706.602	5214.13
706.79	5398.45
706.979	5320.62
707.167	5267.38
707.355	5367.73
707.543	5324.72
707.731	5447.6
707.919	5377.97
708.107	5386.16
708.296	5334.96
708.484	5511.08
708.672	5574.57
708.86	5363.63
709.048	5429.17
709.236	5375.92
709.424	5629.87
709.612	5595.05
709.8	5466.03
709.988	5556.14
710.176	5617.58
710.364	5552.04
710.551	5480.36
710.739	5683.11
710.927	5805.99
711.115	5736.36
711.303	5679.02
711.491	5672.87
711.679	5767.08
711.866	5570.48
712.054	5990.31
712.242	5799.85
712.43	5879.72
712.617	5683.11
712.805	5863.33
712.993	5820.33
713.181	5959.59
713.368	5896.1
713.556	5849
713.744	5769.13
713.931	5943.21
714.119	5894.05
714.306	5793.7
714.494	5969.83
714.682	5930.92
714.869	5984.16
715.057	5949.35
715.244	6051.75
715.432	6066.08
715.619	5963.69
715.807	6184.87
715.994	6205.35
716.182	6168.48
716.369	6174.63
716.556	6240.16
716.744	6070.18
716.931	6227.87
717.119	6186.91
717.306	6231.97
717.493	6158.24
717.681	6246.3
717.868	6240.16
718.055	6375.33
718.242	6311.84
718.43	6408.09
718.617	6449.05
718.804	6344.61
718.991	6430.62
719.179	6473.63
719.366	6485.92
719.553	6356.9
719.74	6457.25
719.927	6440.86
720.114	6508.44
720.301	6447.01
720.488	6490.01
720.676	6432.67
720.863	6670.23
721.05	6555.55
721.237	6559.64
721.424	6586.27
721.611	6682.52
721.798	6543.26
721.985	6635.42
722.172	6836.12
722.358	6647.71
722.545	6700.95
722.732	6598.56
722.919	6782.87
723.106	6578.08
723.293	6684.57
723.48	6879.13
723.667	6557.6
723.853	6768.54
724.04	6731.67
724.227	6649.75
724.414	6756.25
724.6	6707.1
724.787	6872.98
724.974	6703
725.161	6698.91
725.347	6842.26
725.534	6782.87
725.72	6889.37
725.907	6739.87
726.094	6899.61
726.28	6866.84
726.467	6774.68
726.653	6997.91
726.84	6795.16
727.027	7153.55
727.213	6758.3
727.4	7088.02
727.586	6868.89
727.773	6911.89
727.959	6952.85
728.145	6971.29
728.332	7018.39
728.518	7020.44
728.705	7077.78
728.891	7122.84
729.077	7036.82
729.264	7047.06
729.45	6973.33
729.636	7301.01
729.823	7120.79
730.009	7153.55
730.195	7077.78
730.382	7036.82
730.568	7163.79
730.754	7155.6
730.94	7053.2
731.126	7128.98
731.313	7059.35
731.499	7122.84
731.685	7063.44
731.871	7128.98
732.057	7174.03
732.243	6999.96
732.429	7214.99
732.615	7243.67
732.801	7231.38
732.987	7137.17
733.173	7260.05
733.359	7264.15
733.545	6907.8
733.731	7163.79
733.917	7198.61
734.103	7225.23
734.289	7163.79
734.475	7139.22
734.661	7153.55
734.847	7006.1
735.033	6940.57
735.219	7157.65
735.404	7235.47
735.59	7085.97
735.776	7198.61
735.962	7290.77
736.148	7255.95
736.333	7112.6
736.519	7096.21
736.705	7169.94
736.89	7063.44
737.076	7157.65
737.262	6971.29
737.447	7178.13
737.633	7081.88
737.819	7167.89
738.004	7034.77
738.19	7085.97
738.375	7018.39
738.561	7010.2
738.747	7006.1
738.932	6981.53
739.118	7151.51
739.303	7040.92
739.489	6918.04
739.674	7014.29
739.859	6891.41
740.045	6975.38
740.23	6903.7
740.416	6737.82
740.601	6885.27
740.786	6881.17
740.972	6723.48
741.157	6821.78
741.342	6739.87
741.528	6909.85
741.713	6872.98
741.898	6690.71
742.084	6602.65
742.269	6709.15
742.454	6629.27
742.639	6866.84
742.824	6606.75
743.01	6668.19
743.195	6608.8
743.38	6520.73
743.565	6449.05
743.75	6490.01
743.935	6375.33
744.12	6451.1
744.305	6418.33
744.49	6301.6
744.675	6311.84
744.86	6317.98
745.045	6236.06
745.23	6393.76
745.415	6277.02
745.6	6203.3
745.785	6055.84
745.97	6227.87
746.155	6135.71
746.34	6184.87
746.525	5939.11
746.71	6066.08
746.895	6006.69
747.079	5963.69
747.264	5935.01
747.449	5900.2
747.634	5930.92
747.819	5822.38
748.003	5648.3
748.188	5726.12
748.373	5803.94
748.557	5662.63
748.742	5744.55
748.927	5730.22
749.111	5439.4
749.296	5525.42
749.481	5420.97
749.665	5631.91
749.85	5447.6
750.034	5523.37
750.219	5502.89
750.404	5449.64
750.588	5298.1
750.773	5228.46
750.957	5332.91
751.141	5179.31
751.326	5046.19
751.51	5175.22
751.695	5081.01
751.879	5158.83
752.064	5099.44
752.248	4865.97
752.432	5046.19
752.617	4806.58
752.801	4804.53
752.985	4814.77
753.17	4790.2
753.354	4679.61
753.538	4798.39
753.722	4671.42
753.907	4646.84
754.091	4556.73
754.275	4413.37
754.459	4515.77
754.643	4458.43
754.828	4376.51
755.012	4292.54
755.196	4360.13
755.38	4302.78
755.564	4261.82
755.748	4231.1
755.932	4339.65
756.116	4229.06
756.3	4351.93
756.484	4265.92
756.668	3991.49
756.852	3876.8
757.036	4091.84
757.22	3950.53
757.404	4011.97
757.588	3993.54
757.772	4005.83
757.956	3938.24
758.14	3819.46
758.323	3727.3
758.507	3792.84
758.691	3694.54
758.875	3721.16
759.059	3776.45
759.242	3850.18
759.426	3723.21
759.61	3639.24
759.794	3651.53
759.977	3667.91
760.161	3721.16
760.345	3547.08
760.528	3526.6
760.712	3573.71
760.895	3481.55
761.079	3487.69
761.263	3405.77
761.446	3366.86
761.63	3358.67
761.813	3332.05
761.997	3446.73
762.18	3268.56
762.364	3430.35
762.547	3411.92
762.731	3262.41
762.914	3149.78
763.098	3209.17
763.281	3209.17
763.464	3168.21
763.648	3231.69
763.831	3194.83
764.015	3184.59
764.198	3311.57
764.381	3194.83
764.564	2963.41
764.748	3246.03
764.931	3088.34
765.114	3063.76
765.297	3063.76
765.481	2981.84
765.664	3024.85
765.847	2904.02
766.03	3059.67
766.213	2824.15
766.397	2906.07
766.58	2848.72
766.763	2926.55
766.946	2926.55
767.129	2893.78
767.312	2863.06
767.495	2768.85
767.678	2828.24
767.861	2779.09
768.044	2775
768.227	2693.08
768.41	2850.77
768.593	2770.9
768.776	2770.9
768.959	2668.5
769.142	2680.79
769.324	2727.89
769.507	2549.72
769.69	2529.24
769.873	2697.17
770.056	2709.46
770.239	2541.53
770.421	2549.72
770.604	2562.01
770.787	2482.14
770.97	2631.64
771.152	2523.1
771.335	2643.93
771.518	2385.88
771.7	2588.63
771.883	2414.56
772.066	2410.46
772.248	2473.95
772.431	2502.62
772.613	2375.64
772.796	2392.03
772.978	2406.36
773.161	2271.2
773.343	2246.62
773.526	2252.77
773.708	2330.59
773.891	2123.74
774.073	2181.09
774.256	2234.33
774.438	2265.05
774.621	2183.13
774.803	2209.76
774.985	2138.08
775.168	2172.89
775.35	2074.59
775.532	2136.03
775.715	2029.54
775.897	2127.84
776.079	2123.74
776.261	2060.26
776.444	2056.16
776.626	2045.92
776.808	2007.01
776.99	2062.3
777.173	1914.85
777.355	1941.47
777.537	1859.56
777.719	1955.81
777.901	1806.31
778.083	1767.4
778.265	1769.45
778.447	1759.21
778.629	1896.42
778.811	1726.44
778.993	1773.54
779.175	1810.4
779.357	1789.92
779.539	1763.3
779.721	1685.48
779.903	1712.1
780.085	1624.04
780.267	1665
780.449	1640.42
780.631	1595.37
780.812	1697.77
780.994	1566.7
781.176	1552.36
781.358	1542.12
781.54	1554.41
781.721	1585.13
781.903	1615.85
782.085	1611.75
782.267	1515.5
782.448	1427.43
782.63	1363.95
782.812	1419.24
782.993	1431.53
783.175	1415.15
783.357	1390.57
783.538	1353.71
783.72	1437.67
783.901	1492.97
784.083	1359.85
784.264	1421.29
784.446	1312.75
784.627	1304.56
784.809	1386.47
784.99	1292.27
785.172	1302.51
785.353	1267.69
785.535	1269.74
785.716	1304.56
785.897	1232.88
786.079	1288.17
786.26	1222.64
786.441	1103.86
786.623	1171.44
786.804	1230.83
786.985	1126.38
787.167	1259.5
787.348	1175.53
787.529	1097.71
787.71	1267.69
787.891	1079.28
788.073	1128.43
788.254	1071.09
788.435	1083.38
788.616	1062.9
788.797	1118.19
788.978	1150.96
789.159	1071.09
789.34	1103.86
789.522	1058.8
789.703	952.31
789.884	995.31
790.065	944.11
790.246	993.26
790.427	1026.03
790.607	1101.81
790.788	1042.42
790.969	931.83
791.15	1064.94
791.331	1007.6
791.512	1013.74
791.693	935.92
791.874	956.4
792.054	919.54
792.235	925.68
792.416	862.19
792.597	927.73
792.778	903.15
792.958	1007.6
793.139	933.87
793.32	905.2
793.5	880.63
793.681	972.79
793.862	854
794.042	854
794.223	743.41
794.404	761.84
794.584	690.17
794.765	843.76
794.945	792.56
795.126	841.72
795.306	843.76
795.487	806.9
795.667	862.19
795.848	966.64
796.028	731.12
796.209	778.23
796.389	833.52
796.57	882.67
796.75	755.7
796.93	813.04
797.111	718.84
797.291	745.46
797.471	774.13
797.652	753.65
797.832	710.65
798.012	788.47
798.192	751.6
798.373	671.73
798.553	696.31
798.733	745.46
798.913	712.69
799.093	708.6
799.274	663.54
799.454	737.27
799.634	757.75
799.814	727.03
799.994	698.36
800.174	784.37
800.354	718.84
800.534	546.81
800.714	632.82
800.894	665.59
801.074	612.34
801.254	569.34
801.434	636.92
801.614	616.44
801.794	677.88
801.974	1372.14
802.154	667.64
802.334	731.12
802.514	565.24
802.693	573.43
802.873	604.15
803.053	638.97
803.233	552.95
803.413	647.16
803.592	542.71
803.772	575.48
803.952	581.62
804.131	624.63
804.311	632.82
804.491	612.34
804.67	608.25
804.85	546.81
805.03	559.1
805.209	632.82
805.389	542.71
805.568	569.34
805.748	544.76
805.928	460.79
806.107	534.52
806.287	532.47
806.466	604.15
806.646	569.34
806.825	536.57
807.004	491.51
807.184	532.47
807.363	540.66
807.543	505.85
807.722	477.18
807.901	548.86
808.081	550.9
808.26	485.37
808.439	460.79
808.619	571.38
808.798	436.22
808.977	479.22
809.156	534.52
809.336	432.12
809.515	493.56
809.694	524.28
809.873	471.03
810.052	550.9
810.231	532.47
810.411	483.32
810.59	440.31
810.769	456.7
810.948	526.33
811.127	399.35
811.306	434.17
811.485	448.51
811.664	587.77
811.843	477.18
812.022	419.83
812.201	456.7
812.38	370.68
812.559	438.27
812.737	374.78
812.916	325.63
813.095	374.78
813.274	389.11
813.453	440.31
813.632	401.4
813.811	432.12
813.989	376.83
814.168	446.46
814.347	460.79
814.526	425.98
814.704	438.27
814.883	397.31
815.062	387.07
815.24	419.83
815.419	362.49
815.598	378.87
815.776	360.44
815.955	403.45
816.133	249.85
816.312	346.11
816.49	313.34
816.669	352.25
816.847	278.52
817.026	370.68
817.204	411.64
817.383	385.02
817.561	313.34
817.74	417.79
817.918	397.31
818.097	256
818.275	294.91
818.453	387.07
818.632	370.68
818.81	294.91
818.988	272.38
819.167	337.91
819.345	325.63
819.523	333.82
819.701	368.63
819.879	288.76
820.058	309.24
820.236	409.59
820.414	321.53
820.592	342.01
820.77	348.15
820.948	305.15
821.127	280.57
821.305	350.2
821.483	305.15
821.661	319.48
821.839	337.91
822.017	309.24
822.195	276.48
822.373	358.39
822.551	227.32
822.729	280.57
822.907	290.81
823.085	296.96
823.262	321.53
823.44	327.68
823.618	354.3
823.796	241.66
823.974	288.76
824.152	245.76
824.329	206.84
824.507	296.96
824.685	188.41
824.863	296.96
825.04	233.47
825.218	286.72
825.396	235.52
825.574	323.58
825.751	268.28
825.929	354.3
826.107	243.71
826.284	233.47
826.462	210.94
826.639	192.51
826.817	251.9
826.994	311.29
827.172	231.42
827.349	284.67
827.527	241.66
827.704	274.43
827.882	272.38
828.059	210.94
828.237	169.98
828.414	174.08
828.591	151.55
828.769	247.8
828.946	184.32
829.124	284.67
829.301	264.19
829.478	241.66
829.655	278.52
829.833	286.72
830.01	108.54
830.187	227.32
830.364	243.71
830.542	202.75
830.719	239.61
830.896	206.84
831.073	212.99
831.25	270.33
831.427	223.23
831.604	276.48
831.782	229.37
831.959	161.79
832.136	256
832.313	251.9
832.49	161.79
832.667	153.6
832.844	182.27
833.021	319.48
833.198	190.46
833.374	223.23
833.551	219.13
833.728	124.93
833.905	282.62
834.082	192.51
834.259	161.79
834.436	206.84
834.612	176.13
834.789	215.04
834.966	157.69
835.143	172.03
835.319	124.93
835.496	137.21
835.673	98.3
835.85	233.47
836.026	215.04
836.203	202.75
836.38	108.54
836.556	176.13
836.733	139.26
836.909	284.67
837.086	161.79
837.262	118.78
837.439	169.98
837.616	184.32
837.792	106.49
837.968	174.08
838.145	120.83
838.321	182.27
838.498	219.13
838.674	90.11
838.851	145.41
839.027	104.45
839.203	67.58
839.38	174.08
839.556	165.89
839.732	135.17
839.909	204.8
840.085	182.27
840.261	151.55
840.437	157.69
840.614	163.84
840.79	208.89
840.966	133.12
841.142	174.08
841.318	92.16
841.494	208.89
841.671	145.41
841.847	100.35
842.023	110.59
842.199	163.84
842.375	116.73
842.551	88.06
842.727	178.17
842.903	202.75
843.079	112.64
843.255	163.84
843.431	100.35
843.607	198.65
843.783	49.15
843.959	114.69
844.134	116.73
844.31	149.5
844.486	112.64
844.662	51.2
844.838	155.65
845.013	139.26
845.189	182.27
845.365	81.92
845.541	98.3
845.716	137.21
845.892	210.94
846.068	88.06
846.244	118.78
846.419	165.89
846.595	235.52
846.77	141.31
846.946	133.12
847.122	79.87
847.297	67.58
847.473	198.65
847.648	20.48
847.824	133.12
847.999	43.01
848.175	116.73
848.35	137.21
848.526	169.98
848.701	129.02
848.876	102.4
849.052	163.84
849.227	96.25
849.403	118.78
849.578	77.82
849.753	196.61
849.929	86.01
850.104	51.2
850.279	104.45
850.454	77.82
850.63	63.49
850.805	36.86
850.98	73.73
851.155	108.54
851.33	65.54
851.505	157.69
851.681	149.5
851.856	63.49
852.031	92.16
852.206	131.07
852.381	32.77
852.556	32.77
852.731	88.06
852.906	104.45
853.081	59.39
853.256	83.97
853.431	79.87
853.606	26.62
853.781	55.3
853.956	55.3
854.131	120.83
854.305	65.54
854.48	24.58
854.655	49.15
854.83	79.87
855.005	65.54
855.18	104.45
855.354	69.63
855.529	57.34
855.704	73.73
855.879	34.82
856.053	86.01
856.228	116.73
856.403	-18.43
856.577	83.97
856.752	16.38
856.926	96.25
857.101	94.21
857.276	90.11
857.45	81.92
857.625	186.37
857.799	77.82
857.974	73.73
858.148	-43.01
858.323	55.3
858.497	40.96
858.672	92.16
858.846	55.3
859.02	131.07
859.195	65.54
859.369	124.93
859.543	79.87
859.718	55.3
859.892	0
860.066	55.3
860.241	26.62
860.415	51.2
860.589	43.01
860.763	49.15
860.938	86.01
861.112	92.16
861.286	-2.05
861.46	106.49
861.634	124.93
861.808	94.21
861.982	16.38
862.157	-24.58
862.331	49.15
862.505	49.15
862.679	53.25
862.853	40.96
863.027	106.49
863.201	120.83
863.375	38.91
863.549	53.25
863.722	30.72
863.896	149.5
864.07	114.69
864.244	75.77
864.418	83.97
864.592	51.2
864.766	45.06
864.939	67.58
865.113	-24.58
865.287	49.15
865.461	20.48
865.634	77.82
865.808	18.43
865.982	96.25
866.156	49.15
866.329	-4.1
866.503	20.48
866.676	26.62
866.85	38.91
867.024	57.34
867.197	59.39
867.371	34.82
867.544	26.62
867.718	16.38
867.891	92.16
868.065	102.4
868.238	8.19
868.412	120.83
868.585	43.01
868.759	30.72
868.932	-38.91
869.105	0
869.279	32.77
869.452	4.1
869.625	106.49
869.799	-18.43
869.972	-75.77
870.145	-6.14
870.319	43.01
870.492	18.43
870.665	-6.14
870.838	4.1
871.011	-38.91
871.185	67.58
871.358	43.01
871.531	51.2
871.704	-47.1
871.877	43.01
872.05	-30.72
872.223	14.34
872.396	77.82
872.569	159.74
872.742	-22.53
872.915	18.43
873.088	4.1
873.261	-14.34
873.434	57.34
873.607	-14.34
873.78	26.62
873.953	-18.43
874.126	16.38
874.299	63.49
874.471	18.43
874.644	28.67
874.817	45.06
874.99	57.34
875.163	10.24
875.335	40.96
875.508	6.14
875.681	40.96
875.853	36.86
876.026	28.67
876.199	63.49
876.371	-55.3
876.544	-22.53
876.717	73.73
876.889	49.15
877.062	77.82
877.234	-43.01
877.407	14.34
877.579	0
877.752	57.34
877.924	38.91
878.097	83.97
878.269	40.96
878.442	18.43
878.614	57.34
878.786	65.54
878.959	20.48
879.131	45.06
879.303	-104.45
879.476	24.58
879.648	57.34
879.82	75.77
879.993	83.97
880.165	-28.67
880.337	-6.14
880.509	43.01
880.681	26.62
880.854	47.1
881.026	10.24
881.198	100.35
881.37	-22.53
881.542	81.92
881.714	26.62
881.886	-20.48
882.058	24.58
882.23	38.91
882.402	-26.62
882.574	59.39
882.746	-14.34
882.918	90.11
883.09	59.39
883.262	-30.72
883.434	12.29
883.606	10.24
883.778	-20.48
883.95	98.3
884.122	8.19
884.293	-12.29
884.465	51.2
884.637	90.11
884.809	-8.19
884.98	40.96
885.152	-18.43
885.324	18.43
885.496	-36.86
885.667	24.58
885.839	38.91
886.011	112.64
886.182	116.73
886.354	45.06
886.525	-43.01
886.697	-14.34
886.869	18.43
887.04	-2.05
887.212	75.77
887.383	116.73
887.555	51.2
887.726	51.2
887.897	57.34
888.069	0
888.24	61.44
888.412	18.43
888.583	26.62
888.754	-8.19
888.926	-45.06
889.097	38.91
889.268	-36.86
889.44	59.39
889.611	-88.06
889.782	-79.87
889.953	51.2
890.125	57.34
890.296	-55.3
890.467	40.96
890.638	-12.29
890.809	-16.38
890.98	-49.15
891.151	49.15
891.323	67.58
891.494	38.91
891.665	-6.14
891.836	-12.29
892.007	51.2
892.178	16.38
892.349	4.1
892.52	-34.82
892.691	26.62
892.862	10.24
893.032	-34.82
893.203	8.19
893.374	8.19
893.545	30.72
893.716	0
893.887	67.58
894.057	2.05
894.228	26.62
894.399	20.48
894.57	-2.05
894.74	-71.68
894.911	6.14
895.082	-22.53
895.253	-38.91
895.423	-40.96
895.594	53.25
895.764	8.19
895.935	-63.49
896.106	47.1
896.276	-32.77
896.447	26.62
896.617	49.15
896.788	8.19
896.958	6.14
897.129	-26.62
897.299	-90.11
897.47	108.54
897.64	22.53
897.81	-100.35
897.981	77.82
898.151	-2.05
898.322	14.34
898.492	-34.82
898.662	-51.2
898.832	-8.19
899.003	-2.05
899.173	22.53
899.343	-24.58
899.513	34.82
