Data from USB4F104151__25__11-29-56-366.txt Node

Date: Fri Mar 14 11:29:56 EDT 2025
User: louis
Spectrometer: USB4F10415
Trigger mode: 4
Integration Time (sec): 5.000000E-2
Scans to average: 1
Electric dark correction enabled: true
Nonlinearity correction enabled: false
Boxcar width: 0
XAxis mode: Wavelengths
Number of Pixels in Spectrum: 3648
>>>>>Begin Spectral Data<<<<<
178.204	-172.54
178.424	-172.54
178.644	-172.54
178.864	-190.97
179.084	-205.31
179.304	-20.99
179.524	46.59
179.744	5.63
179.964	-12.8
180.184	40.45
180.404	1.54
180.624	67.07
180.844	65.02
181.064	-70.14
181.283	-70.14
181.503	-41.47
181.723	-10.75
181.943	-14.85
182.163	7.68
182.383	-10.75
182.602	32.26
182.822	56.83
183.042	30.21
183.262	-25.09
183.482	93.69
183.701	11.78
183.921	-0.51
184.141	-41.47
184.361	71.17
184.58	-2.56
184.8	5.63
185.02	-8.7
185.239	89.6
185.459	-41.47
185.679	-16.9
185.898	13.82
186.118	13.82
186.338	77.31
186.557	38.4
186.777	-18.94
186.997	54.78
187.216	-49.66
187.436	128.51
187.655	99.84
187.875	19.97
188.095	-2.56
188.314	15.87
188.534	56.83
188.753	24.06
188.973	-35.33
189.192	81.41
189.412	54.78
189.631	42.5
189.851	77.31
190.07	36.35
190.29	-23.04
190.509	36.35
190.729	-33.28
190.948	30.21
191.168	155.13
191.387	89.6
191.607	-43.52
191.826	-8.7
192.045	32.26
192.265	22.02
192.484	28.16
192.704	71.17
192.923	-10.75
193.142	105.98
193.362	28.16
193.581	44.54
193.8	38.4
194.02	44.54
194.239	40.45
194.458	62.98
194.678	-2.56
194.897	-6.66
195.116	-0.51
195.335	-8.7
195.555	-6.66
195.774	58.88
195.993	44.54
196.212	36.35
196.432	62.98
196.651	15.87
196.87	38.4
197.089	81.41
197.308	3.58
197.528	101.89
197.747	-10.75
197.966	-12.8
198.185	65.02
198.404	36.35
198.623	-16.9
198.842	81.41
199.062	-0.51
199.281	17.92
199.5	65.02
199.719	62.98
199.938	40.45
200.157	138.75
200.376	7.68
200.595	56.83
200.814	-4.61
201.033	-16.9
201.252	40.45
201.471	44.54
201.69	65.02
201.909	122.37
202.128	67.07
202.347	28.16
202.566	7.68
202.785	-104.96
203.004	101.89
203.223	77.31
203.442	19.97
203.661	36.35
203.879	54.78
204.098	60.93
204.317	-8.7
204.536	24.06
204.755	153.09
204.974	-10.75
205.193	-0.51
205.411	101.89
205.63	13.82
205.849	114.17
206.068	-18.94
206.287	54.78
206.505	38.4
206.724	7.68
206.943	9.73
207.162	5.63
207.381	11.78
207.599	22.02
207.818	46.59
208.037	52.74
208.255	-25.09
208.474	32.26
208.693	9.73
208.911	-8.7
209.13	40.45
209.349	56.83
209.567	79.36
209.786	87.55
210.005	30.21
210.223	-49.66
210.442	-8.7
210.661	3.58
210.879	87.55
211.098	81.41
211.316	62.98
211.535	48.64
211.753	-0.51
211.972	19.97
212.191	-20.99
212.409	38.4
212.628	5.63
212.846	-12.8
213.065	44.54
213.283	89.6
213.502	73.21
213.72	-16.9
213.938	24.06
214.157	44.54
214.375	48.64
214.594	24.06
214.812	-35.33
215.031	-8.7
215.249	44.54
215.467	-4.61
215.686	-2.56
215.904	65.02
216.122	44.54
216.341	77.31
216.559	93.69
216.778	112.13
216.996	60.93
217.214	58.88
217.432	-49.66
217.651	24.06
217.869	7.68
218.087	62.98
218.306	105.98
218.524	5.63
218.742	-8.7
218.96	-2.56
219.179	-23.04
219.397	30.21
219.615	103.93
219.833	52.74
220.051	-0.51
220.27	105.98
220.488	-8.7
220.706	7.68
220.924	3.58
221.142	77.31
221.36	48.64
221.578	52.74
221.796	19.97
222.015	1.54
222.233	-37.38
222.451	118.27
222.669	-41.47
222.887	52.74
223.105	-18.94
223.323	-6.66
223.541	-16.9
223.759	32.26
223.977	28.16
224.195	97.79
224.413	105.98
224.631	60.93
224.849	40.45
225.067	77.31
225.285	-2.56
225.503	24.06
225.721	-6.66
225.939	-2.56
226.157	9.73
226.375	77.31
226.592	3.58
226.81	54.78
227.028	7.68
227.246	136.7
227.464	30.21
227.682	-10.75
227.9	44.54
228.117	28.16
228.335	-2.56
228.553	30.21
228.771	34.3
228.989	54.78
229.206	13.82
229.424	54.78
229.642	7.68
229.86	44.54
230.077	-8.7
230.295	11.78
230.513	46.59
230.731	46.59
230.948	97.79
231.166	122.37
231.384	19.97
231.601	-8.7
231.819	81.41
232.037	48.64
232.254	-57.86
232.472	-18.94
232.689	56.83
232.907	71.17
233.125	22.02
233.342	15.87
233.56	17.92
233.777	28.16
233.995	105.98
234.213	1.54
234.43	22.02
234.648	24.06
234.865	24.06
235.083	-12.8
235.3	54.78
235.518	32.26
235.735	48.64
235.953	38.4
236.17	-33.28
236.388	9.73
236.605	32.26
236.822	60.93
237.04	79.36
237.257	65.02
237.475	24.06
237.692	60.93
237.909	60.93
238.127	81.41
238.344	81.41
238.562	89.6
238.779	-16.9
238.996	1.54
239.214	-12.8
239.431	65.02
239.648	22.02
239.865	142.85
240.083	19.97
240.3	-16.9
240.517	-45.57
240.735	89.6
240.952	50.69
241.169	114.17
241.386	56.83
241.603	22.02
241.821	30.21
242.038	30.21
242.255	60.93
242.472	-27.14
242.689	48.64
242.907	52.74
243.124	-37.38
243.341	46.59
243.558	24.06
243.775	15.87
243.992	22.02
244.209	32.26
244.426	62.98
244.643	36.35
244.86	7.68
245.078	56.83
245.295	28.16
245.512	28.16
245.729	95.74
245.946	46.59
246.163	42.5
246.38	87.55
246.597	-16.9
246.814	69.12
247.031	-8.7
247.248	46.59
247.464	54.78
247.681	34.3
247.898	85.5
248.115	62.98
248.332	40.45
248.549	148.99
248.766	97.79
248.983	52.74
249.2	24.06
249.417	38.4
249.633	73.21
249.85	11.78
250.067	-4.61
250.284	30.21
250.501	48.64
250.717	36.35
250.934	-18.94
251.151	-4.61
251.368	38.4
251.585	44.54
251.801	52.74
252.018	15.87
252.235	26.11
252.451	3.58
252.668	-35.33
252.885	81.41
253.102	93.69
253.318	93.69
253.535	17.92
253.752	15.87
253.968	-0.51
254.185	-6.66
254.401	19.97
254.618	71.17
254.835	-27.14
255.051	91.65
255.268	32.26
255.484	-41.47
255.701	32.26
255.917	75.26
256.134	5.63
256.351	-14.85
256.567	-16.9
256.784	50.69
257	54.78
257.217	79.36
257.433	-35.33
257.65	38.4
257.866	89.6
258.082	13.82
258.299	11.78
258.515	30.21
258.732	81.41
258.948	32.26
259.165	28.16
259.381	5.63
259.597	114.17
259.814	46.59
260.03	-8.7
260.246	3.58
260.463	-16.9
260.679	44.54
260.895	54.78
261.112	3.58
261.328	40.45
261.544	36.35
261.761	79.36
261.977	89.6
262.193	89.6
262.409	-16.9
262.626	5.63
262.842	38.4
263.058	48.64
263.274	58.88
263.49	89.6
263.707	54.78
263.923	44.54
264.139	54.78
264.355	65.02
264.571	38.4
264.787	13.82
265.004	48.64
265.22	58.88
265.436	15.87
265.652	77.31
265.868	22.02
266.084	-47.62
266.3	58.88
266.516	-57.86
266.732	24.06
266.948	-6.66
267.164	56.83
267.38	105.98
267.596	-14.85
267.812	105.98
268.028	124.41
268.244	15.87
268.46	75.26
268.676	34.3
268.892	-33.28
269.108	-6.66
269.324	-51.71
269.54	48.64
269.756	60.93
269.972	-10.75
270.188	62.98
270.403	44.54
270.619	54.78
270.835	38.4
271.051	42.5
271.267	32.26
271.483	48.64
271.698	58.88
271.914	-0.51
272.13	13.82
272.346	22.02
272.562	42.5
272.777	-8.7
272.993	7.68
273.209	-8.7
273.425	42.5
273.64	24.06
273.856	73.21
274.072	13.82
274.287	7.68
274.503	52.74
274.719	19.97
274.934	30.21
275.15	32.26
275.366	48.64
275.581	-18.94
275.797	65.02
276.012	36.35
276.228	34.3
276.444	32.26
276.659	89.6
276.875	50.69
277.09	-10.75
277.306	56.83
277.521	-25.09
277.737	11.78
277.952	56.83
278.168	32.26
278.383	46.59
278.599	17.92
278.814	-0.51
279.03	-4.61
279.245	30.21
279.461	62.98
279.676	105.98
279.892	-33.28
280.107	28.16
280.322	24.06
280.538	65.02
280.753	24.06
280.969	9.73
281.184	24.06
281.399	48.64
281.615	38.4
281.83	19.97
282.045	-51.71
282.26	58.88
282.476	62.98
282.691	89.6
282.906	81.41
283.122	9.73
283.337	30.21
283.552	7.68
283.767	-10.75
283.983	22.02
284.198	-2.56
284.413	167.42
284.628	-18.94
284.843	11.78
285.058	54.78
285.274	22.02
285.489	-8.7
285.704	3.58
285.919	-33.28
286.134	32.26
286.349	-16.9
286.564	-4.61
286.779	161.28
286.995	-16.9
287.21	50.69
287.425	50.69
287.64	15.87
287.855	54.78
288.07	71.17
288.285	7.68
288.5	9.73
288.715	26.11
288.93	30.21
289.145	22.02
289.36	81.41
289.575	40.45
289.79	85.5
290.004	81.41
290.219	19.97
290.434	-6.66
290.649	34.3
290.864	77.31
291.079	-2.56
291.294	134.65
291.509	-0.51
291.724	97.79
291.938	15.87
292.153	85.5
292.368	11.78
292.583	-25.09
292.798	48.64
293.012	-33.28
293.227	-4.61
293.442	-8.7
293.657	-16.9
293.871	32.26
294.086	40.45
294.301	140.8
294.516	-6.66
294.73	60.93
294.945	-6.66
295.16	52.74
295.374	54.78
295.589	46.59
295.804	79.36
296.018	54.78
296.233	22.02
296.447	44.54
296.662	28.16
296.877	144.89
297.091	83.45
297.306	56.83
297.52	-27.14
297.735	15.87
297.949	7.68
298.164	52.74
298.378	22.02
298.593	19.97
298.807	46.59
299.022	56.83
299.236	99.84
299.451	44.54
299.665	22.02
299.88	-35.33
300.094	65.02
300.309	19.97
300.523	38.4
300.737	56.83
300.952	15.87
301.166	54.78
301.381	-33.28
301.595	7.68
301.809	-4.61
302.024	-10.75
302.238	30.21
302.452	56.83
302.667	-0.51
302.881	87.55
303.095	62.98
303.309	44.54
303.524	30.21
303.738	28.16
303.952	7.68
304.166	-16.9
304.381	28.16
304.595	58.88
304.809	-25.09
305.023	65.02
305.237	40.45
305.452	15.87
305.666	30.21
305.88	62.98
306.094	73.21
306.308	32.26
306.522	91.65
306.736	93.69
306.95	34.3
307.164	58.88
307.379	30.21
307.593	110.08
307.807	46.59
308.021	7.68
308.235	71.17
308.449	-45.57
308.663	56.83
308.877	89.6
309.091	54.78
309.305	-4.61
309.519	-47.62
309.733	77.31
309.947	-33.28
310.161	30.21
310.374	58.88
310.588	42.5
310.802	5.63
311.016	36.35
311.23	11.78
311.444	-70.14
311.658	48.64
311.872	62.98
312.085	62.98
312.299	44.54
312.513	-25.09
312.727	79.36
312.941	-49.66
313.154	85.5
313.368	50.69
313.582	56.83
313.796	-4.61
314.009	24.06
314.223	46.59
314.437	58.88
314.651	69.12
314.864	44.54
315.078	73.21
315.292	-18.94
315.505	-8.7
315.719	48.64
315.933	81.41
316.146	-45.57
316.36	44.54
316.573	122.37
316.787	40.45
317.001	85.5
317.214	-37.38
317.428	48.64
317.641	3.58
317.855	114.17
318.068	73.21
318.282	56.83
318.495	81.41
318.709	30.21
318.922	77.31
319.136	81.41
319.349	24.06
319.563	7.68
319.776	85.5
319.99	36.35
320.203	73.21
320.417	-18.94
320.63	62.98
320.843	114.17
321.057	73.21
321.27	-14.85
321.483	52.74
321.697	87.55
321.91	40.45
322.124	128.51
322.337	19.97
322.55	-10.75
322.763	40.45
322.977	52.74
323.19	15.87
323.403	75.26
323.617	67.07
323.83	46.59
324.043	5.63
324.256	28.16
324.469	44.54
324.683	9.73
324.896	5.63
325.109	19.97
325.322	-12.8
325.535	19.97
325.748	97.79
325.962	85.5
326.175	24.06
326.388	-14.85
326.601	89.6
326.814	71.17
327.027	-0.51
327.24	65.02
327.453	19.97
327.666	50.69
327.879	77.31
328.092	79.36
328.305	62.98
328.518	40.45
328.731	56.83
328.944	22.02
329.157	19.97
329.37	19.97
329.583	108.03
329.796	142.85
330.009	3.58
330.222	7.68
330.435	54.78
330.648	5.63
330.861	32.26
331.073	-57.86
331.286	136.7
331.499	54.78
331.712	17.92
331.925	-33.28
332.138	-41.47
332.35	-10.75
332.563	5.63
332.776	40.45
332.989	-41.47
333.202	46.59
333.414	15.87
333.627	42.5
333.84	36.35
334.053	28.16
334.265	122.37
334.478	-8.7
334.691	52.74
334.903	36.35
335.116	-0.51
335.329	11.78
335.541	67.07
335.754	97.79
335.966	73.21
336.179	15.87
336.392	-8.7
336.604	15.87
336.817	71.17
337.029	-8.7
337.242	71.17
337.454	79.36
337.667	71.17
337.88	89.6
338.092	73.21
338.305	52.74
338.517	30.21
338.729	-8.7
338.942	146.94
339.154	81.41
339.367	-39.42
339.579	56.83
339.792	-10.75
340.004	46.59
340.217	24.06
340.429	155.13
340.641	-25.09
340.854	67.07
341.066	11.78
341.278	30.21
341.491	91.65
341.703	24.06
341.915	-4.61
342.128	42.5
342.34	81.41
342.552	46.59
342.764	48.64
342.977	56.83
343.189	32.26
343.401	32.26
343.613	-74.24
343.826	138.75
344.038	-18.94
344.25	15.87
344.462	91.65
344.674	-4.61
344.886	-18.94
345.099	62.98
345.311	71.17
345.523	22.02
345.735	-0.51
345.947	-23.04
346.159	36.35
346.371	7.68
346.583	42.5
346.795	110.08
347.007	46.59
347.219	32.26
347.431	81.41
347.643	22.02
347.855	36.35
348.067	99.84
348.279	-20.99
348.491	40.45
348.703	-49.66
348.915	-61.95
349.127	-25.09
349.339	52.74
349.551	54.78
349.763	36.35
349.975	56.83
350.187	44.54
350.399	56.83
350.61	46.59
350.822	7.68
351.034	28.16
351.246	28.16
351.458	118.27
351.669	71.17
351.881	58.88
352.093	24.06
352.305	3.58
352.517	5.63
352.728	89.6
352.94	24.06
353.152	24.06
353.363	105.98
353.575	114.17
353.787	40.45
353.999	79.36
354.21	146.94
354.422	24.06
354.633	9.73
354.845	50.69
355.057	36.35
355.268	71.17
355.48	24.06
355.692	-2.56
355.903	36.35
356.115	-20.99
356.326	3.58
356.538	97.79
356.749	60.93
356.961	58.88
357.172	-4.61
357.384	44.54
357.595	118.27
357.807	24.06
358.018	40.45
358.23	83.45
358.441	54.78
358.653	54.78
358.864	120.32
359.075	101.89
359.287	48.64
359.498	56.83
359.709	75.26
359.921	60.93
360.132	48.64
360.344	60.93
360.555	5.63
360.766	15.87
360.977	-8.7
361.189	-27.14
361.4	1.54
361.611	69.12
361.823	56.83
362.034	44.54
362.245	-41.47
362.456	48.64
362.667	75.26
362.879	-14.85
363.09	9.73
363.301	-10.75
363.512	71.17
363.723	1.54
363.935	56.83
364.146	44.54
364.357	11.78
364.568	65.02
364.779	3.58
364.99	144.89
365.201	-2.56
365.412	38.4
365.623	22.02
365.834	54.78
366.045	71.17
366.256	71.17
366.467	118.27
366.678	38.4
366.889	28.16
367.1	93.69
367.311	71.17
367.522	114.17
367.733	46.59
367.944	44.54
368.155	81.41
368.366	24.06
368.577	34.3
368.788	122.37
368.999	-41.47
369.209	24.06
369.42	208.38
369.631	126.46
369.842	91.65
370.053	-23.04
370.264	97.79
370.474	13.82
370.685	28.16
370.896	17.92
371.107	71.17
371.317	44.54
371.528	15.87
371.739	81.41
371.95	101.89
372.16	73.21
372.371	-12.8
372.582	30.21
372.792	91.65
373.003	26.11
373.214	24.06
373.424	7.68
373.635	58.88
373.846	101.89
374.056	36.35
374.267	50.69
374.477	40.45
374.688	65.02
374.898	7.68
375.109	65.02
375.319	24.06
375.53	93.69
375.74	110.08
375.951	48.64
376.161	15.87
376.372	93.69
376.582	5.63
376.793	7.68
377.003	22.02
377.214	65.02
377.424	110.08
377.635	-8.7
377.845	-18.94
378.055	101.89
378.266	19.97
378.476	101.89
378.686	60.93
378.897	136.7
379.107	128.51
379.317	65.02
379.528	-27.14
379.738	-33.28
379.948	44.54
380.158	38.4
380.369	62.98
380.579	34.3
380.789	17.92
380.999	60.93
381.21	60.93
381.42	60.93
381.63	60.93
381.84	44.54
382.05	128.51
382.261	99.84
382.471	52.74
382.681	-12.8
382.891	65.02
383.101	105.98
383.311	32.26
383.521	7.68
383.731	30.21
383.941	19.97
384.151	65.02
384.361	-2.56
384.571	105.98
384.781	48.64
384.991	155.13
385.201	77.31
385.411	69.12
385.621	22.02
385.831	11.78
386.041	73.21
386.251	7.68
386.461	126.46
386.671	11.78
386.881	50.69
387.091	73.21
387.301	67.07
387.511	7.68
387.72	89.6
387.93	89.6
388.14	-53.76
388.35	40.45
388.56	-0.51
388.769	71.17
388.979	15.87
389.189	-57.86
389.399	60.93
389.609	81.41
389.818	101.89
390.028	-27.14
390.238	128.51
390.447	11.78
390.657	81.41
390.867	15.87
391.076	1.54
391.286	87.55
391.496	89.6
391.705	56.83
391.915	17.92
392.125	44.54
392.334	9.73
392.544	122.37
392.753	54.78
392.963	50.69
393.172	56.83
393.382	138.75
393.591	103.93
393.801	73.21
394.01	69.12
394.22	28.16
394.429	85.5
394.639	54.78
394.848	142.85
395.058	134.65
395.267	73.21
395.477	89.6
395.686	140.8
395.895	85.5
396.105	99.84
396.314	151.04
396.524	128.51
396.733	112.13
396.942	169.47
397.152	163.33
397.361	144.89
397.57	130.56
397.78	44.54
397.989	116.22
398.198	138.75
398.407	81.41
398.617	32.26
398.826	75.26
399.035	120.32
399.244	60.93
399.453	50.69
399.663	79.36
399.872	114.17
400.081	42.5
400.29	167.42
400.499	56.83
400.708	118.27
400.917	126.46
401.127	71.17
401.336	77.31
401.545	105.98
401.754	187.9
401.963	97.79
402.172	97.79
402.381	65.02
402.59	142.85
402.799	56.83
403.008	138.75
403.217	120.32
403.426	122.37
403.635	97.79
403.844	179.71
404.053	185.85
404.262	69.12
404.471	146.94
404.68	196.09
404.888	110.08
405.097	138.75
405.306	132.61
405.515	241.15
405.724	196.09
405.933	163.33
406.142	134.65
406.35	151.04
406.559	81.41
406.768	91.65
406.977	159.23
407.185	210.43
407.394	218.62
407.603	114.17
407.812	220.67
408.02	196.09
408.229	202.24
408.438	294.4
408.646	232.96
408.855	230.91
409.064	255.48
409.272	228.86
409.481	312.83
409.69	294.4
409.898	243.2
410.107	284.16
410.315	331.26
410.524	282.11
410.733	357.88
410.941	304.64
411.15	269.82
411.358	382.46
411.567	357.88
411.775	372.22
411.984	337.4
412.192	392.7
412.401	501.24
412.609	503.29
412.818	513.53
413.026	478.71
413.234	491
413.443	521.72
413.651	470.52
413.86	531.96
414.068	654.84
414.276	628.21
414.485	585.21
414.693	671.22
414.901	773.62
415.11	683.51
415.318	630.26
415.526	726.52
415.734	734.71
415.943	824.82
416.151	851.44
416.359	833.01
416.567	888.31
416.776	916.98
416.984	957.94
417.192	939.51
417.4	900.59
417.608	939.51
417.817	1066.48
418.025	1054.19
418.233	1232.37
418.441	1091.06
418.649	1099.25
418.857	1195.5
419.065	1265.13
419.273	1275.37
419.481	1316.33
419.689	1396.2
419.897	1418.73
420.105	1496.55
420.313	1553.9
420.521	1625.58
420.729	1660.39
420.937	1627.62
421.145	1629.67
421.353	1818.08
421.561	1834.47
421.769	1865.19
421.977	1971.68
422.185	2022.88
422.393	2190.81
422.601	2282.97
422.809	2176.48
423.017	2219.49
423.224	2442.71
423.432	2536.92
423.64	2502.11
423.848	2665.94
424.056	2563.54
424.263	2751.96
424.471	2782.68
424.679	2932.18
424.887	3091.92
425.094	3100.11
425.302	3255.76
425.51	3339.73
425.718	3222.99
425.925	3440.08
426.133	3548.62
426.341	3673.54
426.548	3984.84
426.756	3833.29
426.964	3872.2
427.171	4292.03
427.379	4208.06
427.586	4341.18
427.794	4451.77
428.001	4611.51
428.209	4865.46
428.417	4881.85
428.624	5072.31
428.832	4961.72
429.039	5158.32
429.247	5078.45
429.454	5684.65
429.662	5983.65
429.869	5637.55
430.076	5905.83
430.284	5658.03
430.491	6059.43
430.699	6460.83
430.906	6321.57
431.114	6462.88
431.321	6825.37
431.528	6876.57
431.736	7372.18
431.943	7527.82
432.15	7400.85
432.358	7564.68
432.565	7802.25
432.772	7959.94
432.979	8332.67
433.187	8312.19
433.394	8383.87
433.601	8959.35
433.808	8902.01
434.016	8856.95
434.223	9241.97
434.43	9899.37
434.637	9692.52
434.844	10147.17
435.052	10650.97
435.259	10452.32
435.466	10689.88
435.673	10474.85
435.88	11275.6
436.087	11660.62
436.294	11777.36
436.501	11408.72
436.708	11826.51
436.915	12221.77
437.122	12580.16
437.329	12823.87
437.537	12975.42
437.743	13165.88
437.95	13229.37
438.157	13909.29
438.364	14515.49
438.571	13991.21
438.778	14355.75
438.985	15691.02
439.192	15101.21
439.399	15418.64
439.606	15123.74
439.813	15965.45
440.02	16889.09
440.227	16397.57
440.433	16286.98
440.64	17102.08
440.847	16891.13
441.054	17491.19
441.261	18937.06
441.467	18418.92
441.674	18846.94
441.881	19465.43
442.088	19483.86
442.294	19215.58
442.501	19477.72
442.708	20339.91
442.914	21083.33
443.121	21853.36
443.328	21171.39
443.534	22938.79
443.741	21824.69
443.948	21613.75
444.154	23534.74
444.361	23219.36
444.568	23305.37
444.774	23428.25
444.981	23659.67
445.187	24530.06
445.394	25242.75
445.6	25226.37
445.807	27579.48
446.013	26133.62
446.22	26625.13
446.426	27675.74
446.633	28091.48
446.839	29254.72
447.046	27913.3
447.252	29410.37
447.459	29490.24
447.665	29514.81
447.871	30508.08
448.078	31482.91
448.284	30442.54
448.491	31325.22
448.697	32384.02
448.903	33057.8
449.11	33098.76
449.316	32252.95
449.522	33268.74
449.728	33784.83
449.935	33778.68
450.141	34290.68
450.347	35124.2
450.553	33620.99
450.76	34239.48
450.966	35083.24
451.172	34718.7
451.378	35671.01
451.584	34708.46
451.791	35736.54
451.997	35529.7
452.203	36228.06
452.409	36404.18
452.615	35761.12
452.821	34653.17
453.027	34186.23
453.233	36197.34
453.44	34587.63
453.646	35021.8
453.852	35331.04
454.058	35681.25
454.264	34333.68
454.47	35230.69
454.676	34188.28
454.882	35615.71
455.088	32193.56
455.294	32914.44
455.5	33403.91
455.705	33620.99
455.911	32328.72
456.117	31683.61
456.323	31394.85
456.529	29623.36
456.735	30827.56
456.941	30012.47
457.147	29465.66
457.352	28689.48
457.558	28138.58
457.764	28523.6
457.97	27862.1
458.176	26946.66
458.381	27100.26
458.587	25758.84
458.793	25584.76
458.999	24442
459.204	26207.34
459.41	25322.62
459.616	23893.14
459.821	23782.55
460.027	23798.93
460.233	23078.05
460.438	22062.26
460.644	22359.21
460.85	21517.5
461.055	20956.35
461.261	20806.85
461.466	19272.92
461.672	18818.27
461.878	20098.25
462.083	18924.77
462.289	18435.3
462.494	18038
462.7	17593.59
462.905	16923.9
463.111	17405.17
463.316	17437.94
463.522	17194.23
463.727	17145.08
463.932	16995.58
464.138	17052.92
464.343	17202.43
464.549	16606.47
464.754	16915.71
464.959	17095.93
465.165	16874.75
465.37	16139.53
465.575	15699.22
465.781	16164.11
465.986	16399.62
466.191	15983.88
466.397	15455.51
466.602	14738.72
466.807	15435.03
467.012	15508.76
467.218	15228.18
467.423	14927.13
467.628	15269.14
467.833	15668.5
468.038	15154.46
468.244	14832.93
468.449	15414.55
468.654	14767.39
468.859	14853.41
469.064	14746.91
469.269	13901.1
469.474	14126.38
469.679	14570.79
469.885	13899.05
470.09	14257.45
470.295	13985.07
470.5	13903.15
470.705	13833.52
470.91	13659.44
471.115	13489.46
471.32	13661.49
471.525	13634.86
471.73	13157.69
471.935	13327.67
472.139	12725.57
472.344	13030.71
472.549	12709.18
472.754	12676.41
472.959	12299.59
473.164	11957.58
473.369	11828.56
473.574	12266.82
473.778	12068.17
473.983	12275.01
474.188	12117.32
474.393	11468.11
474.598	11504.98
474.802	11439.44
475.007	11349.33
475.212	11384.15
475.417	10997.08
475.621	10716.51
475.826	10876.25
476.031	10888.54
476.235	10577.25
476.44	10984.79
476.645	10548.58
476.849	10544.48
477.054	10456.42
477.259	10225
477.463	10333.54
477.668	10147.17
477.872	10222.95
478.077	9925.99
478.282	9620.85
478.486	9753.96
478.691	9657.71
478.895	9465.2
479.1	9444.72
479.304	9358.71
479.509	9256.31
479.713	9395.57
479.918	9256.31
480.122	9078.13
480.326	9266.55
480.531	9129.33
480.735	8957.3
480.94	9082.23
481.144	9381.23
481.348	8734.07
481.553	9104.76
481.757	8756.6
481.961	8971.64
482.166	9100.66
482.37	8990.07
482.574	8879.48
482.778	8762.75
482.983	8877.43
483.187	8813.95
483.391	8969.59
483.595	8945.02
483.8	8541.57
484.004	8842.62
484.208	8912.25
484.412	8752.51
484.616	8799.61
484.821	8811.9
485.025	8885.62
485.229	8631.68
485.433	8768.89
485.637	8961.4
485.841	8752.51
486.045	8637.82
486.249	8928.63
486.453	8928.63
486.657	8781.18
486.861	8787.32
487.065	8613.24
487.269	8861.05
487.473	8543.61
487.677	8877.43
487.881	9078.13
488.085	8867.19
488.289	8985.97
488.493	8807.8
488.697	8926.58
488.901	8813.95
489.105	8787.32
489.309	8740.22
489.512	8969.59
489.716	8797.56
489.92	8684.92
490.124	8965.5
490.328	8996.21
490.531	9059.7
490.735	8748.41
490.939	9016.69
491.143	9067.89
491.346	8822.14
491.55	9209.2
491.754	8961.4
491.958	9280.88
492.161	9227.64
492.365	9248.11
492.569	9237.88
492.772	9327.99
492.976	9368.95
493.18	9250.16
493.383	9370.99
493.587	9549.17
493.79	9516.4
493.994	9534.83
494.197	9420.14
494.401	9813.35
494.605	9796.97
494.808	9899.37
495.012	9950.57
495.215	10085.73
495.419	10159.46
495.622	10188.13
495.825	10222.95
496.029	10374.5
496.232	10313.06
496.436	10329.44
496.639	10648.93
496.843	10530.14
497.046	10823
497.249	10992.98
497.453	10890.59
497.656	11132.25
497.859	11165.01
498.063	10978.65
498.266	11509.07
498.469	11324.76
498.673	11595.09
498.876	11677.01
499.079	12100.94
499.282	11887.95
499.485	11984.2
499.689	12025.16
499.892	12119.37
500.095	12035.4
500.298	12709.18
500.501	12610.88
500.705	12774.72
500.908	12981.56
501.111	13110.58
501.314	13395.25
501.517	13122.87
501.72	13614.38
501.923	13323.57
502.126	13856.04
502.329	13897
502.532	14316.84
502.735	14056.75
502.938	14368.04
503.141	14357.8
503.344	14828.83
503.547	14869.79
503.75	15037.72
503.953	15160.6
504.156	15486.23
504.359	15400.21
504.562	15293.72
504.765	15688.98
504.968	15977.74
505.17	16266.5
505.373	16073.99
505.576	16395.53
505.779	16530.69
505.982	16459.01
506.185	17181.95
506.387	16907.52
506.59	16981.24
506.793	17351.93
506.996	17296.63
507.198	17990.89
507.401	17947.89
507.604	17972.46
507.807	18537.7
508.009	18590.95
508.212	18601.19
508.415	18937.06
508.617	19008.73
508.82	19188.96
509.022	18984.16
509.225	19979.47
509.428	19623.12
509.63	20122.83
509.833	20176.08
510.035	20735.17
510.238	20497.61
510.44	20630.73
510.643	21187.77
510.845	21388.47
511.048	21075.13
511.25	21320.89
511.453	21255.36
511.655	22355.11
511.858	21730.48
512.06	22338.73
512.262	22439.08
512.465	22387.88
512.667	22719.65
512.87	23024.8
513.072	22932.64
513.274	23776.41
513.477	23659.67
513.679	23985.3
513.881	24155.28
514.084	24364.17
514.286	24605.83
514.488	24683.66
514.69	25064.58
514.893	25119.87
515.095	25146.5
515.297	25705.59
515.499	25824.37
515.701	26162.29
515.904	26459.24
516.106	26100.85
516.308	26840.17
516.51	27198.56
516.712	27153.51
516.914	27423.84
517.116	27706.46
517.318	27788.38
517.52	28062.8
517.722	28341.33
517.925	28564.56
518.127	28912.71
518.329	29226.05
518.531	29127.75
518.733	29518.91
518.935	29852.73
519.136	29824.06
519.338	30489.65
519.54	30309.43
519.742	31001.64
519.944	30735.4
520.146	31302.69
520.348	31425.57
520.55	31683.61
520.752	31736.86
520.954	32207.89
521.155	32177.17
521.357	32642.06
521.559	33090.57
521.761	33670.14
521.963	33328.13
522.164	33371.14
522.366	33819.64
522.568	33981.43
522.77	34227.19
522.971	34882.54
523.173	34464.75
523.375	35181.54
523.576	34817
523.778	35390.44
523.98	35857.37
524.181	35595.23
524.383	35820.51
524.584	36463.57
524.786	36525.01
524.988	36527.06
525.189	37055.43
525.391	36824.01
525.592	37702.59
525.794	37260.23
525.995	37444.55
526.197	37704.64
526.398	37741.5
526.6	37966.78
526.801	38314.94
527.003	38726.58
527.204	38335.42
527.406	38996.91
527.607	38919.09
527.808	39248.81
528.01	38620.08
528.211	39199.66
528.412	39764.9
528.614	39773.09
528.815	39658.4
529.016	40170.4
529.218	39900.06
529.419	40233.88
529.62	40280.99
529.822	39836.58
530.023	40594.32
530.224	40240.03
530.425	40780.69
530.626	40219.55
530.828	40227.74
531.029	41589.64
531.23	40459.16
531.431	40821.65
531.632	40887.18
531.833	41659.27
532.035	41581.45
532.236	41294.73
532.437	41638.79
532.638	41403.27
532.839	41792.39
533.04	41567.11
533.241	41610.12
533.442	42150.78
533.643	42042.24
533.844	41763.71
534.045	42232.7
534.246	41831.3
534.447	42533.75
534.648	41993.09
534.849	42331
535.05	41788.29
535.251	42113.92
535.451	41804.67
535.652	42406.78
535.853	42222.46
536.054	42197.88
536.255	42273.66
536.456	42107.77
536.657	42593.14
536.857	41694.08
537.058	42290.04
537.259	42601.33
537.46	42574.71
537.66	42365.82
537.861	42462.07
538.062	42439.54
538.263	42308.47
538.463	42402.68
538.664	42814.32
538.865	42296.19
539.065	43004.78
539.266	42625.91
539.466	42720.12
539.667	42095.49
539.868	42998.64
540.068	42398.59
540.269	42449.78
540.469	43012.98
540.67	42611.57
540.87	42312.57
541.071	42439.54
541.271	42730.36
541.472	42673.01
541.672	42517.37
541.873	42314.62
542.073	41937.79
542.274	42537.85
542.474	42535.8
542.675	42292.09
542.875	42738.55
543.075	42464.12
543.276	42118.01
543.476	42634.1
543.676	42607.48
543.877	42660.73
544.077	42517.37
544.277	42292.09
544.478	42095.49
544.678	42365.82
544.878	42238.84
545.078	42529.66
545.279	42120.06
545.479	42427.26
545.679	42333.05
545.879	42183.55
546.079	42337.15
546.28	42355.58
546.48	42032
546.68	42445.69
546.88	42320.76
547.08	42179.45
547.28	42210.17
547.48	41945.98
547.68	42255.23
547.88	42148.73
548.081	41984.9
548.281	41972.61
548.481	42410.87
548.681	42742.64
548.881	42247.04
549.081	41851.78
549.28	41851.78
549.48	42453.88
549.68	41853.83
549.88	42312.57
550.08	41739.14
550.28	42181.5
550.48	41796.48
550.68	42300.28
550.88	41962.37
551.08	41868.16
551.279	42025.85
551.479	42115.97
551.679	41894.78
551.879	42201.98
552.079	42374.01
552.278	41788.29
552.478	41597.83
552.678	41806.72
552.878	42161.02
553.077	41788.29
553.277	41313.16
553.477	42371.96
553.676	41632.64
553.876	41780.1
554.076	41337.74
554.275	41333.64
554.475	41616.26
554.674	41724.8
554.874	41636.74
555.074	41200.52
555.273	41536.39
555.473	41616.26
555.672	41329.55
555.872	41145.23
556.071	41376.65
556.271	41290.63
556.47	41071.5
556.67	40729.49
556.869	40797.07
557.068	40831.89
557.268	40754.07
557.467	40846.22
557.667	40952.72
557.866	40620.95
558.065	40919.95
558.265	40559.51
558.464	40450.97
558.663	40504.21
558.863	40258.46
559.062	40829.84
559.261	40215.45
559.461	40291.23
559.66	39431.08
559.859	40145.82
560.058	39725.99
560.258	39703.46
560.457	39732.13
560.656	39906.21
560.855	39560.1
561.054	39754.66
561.253	39437.22
561.453	39558.05
561.652	39699.36
561.851	39842.72
562.05	39136.17
562.249	38874.03
562.448	39138.22
562.647	39076.78
562.846	38976.43
563.045	38622.13
563.244	38681.52
563.443	38851.5
563.642	38204.35
563.841	38310.84
564.04	37989.31
564.239	38437.81
564.438	37675.97
564.637	38013.88
564.836	38134.71
565.035	37686.21
565.234	37536.71
565.432	37315.53
565.631	37716.93
565.83	37581.76
566.029	37188.55
566.228	37209.03
566.427	36856.78
566.625	36684.75
566.824	36635.6
567.023	36973.52
567.222	36496.34
567.42	37077.96
567.619	36064.22
567.818	36418.52
568.016	36211.67
568.215	36389.84
568.414	35931.1
568.612	36223.96
568.811	35775.45
569.01	35861.47
569.208	34925.55
569.407	36002.78
569.605	35365.86
569.804	35677.15
570.002	34792.43
570.201	35273.7
570.4	34866.16
570.598	35247.08
570.797	34814.96
570.995	34933.74
571.193	34212.85
571.392	34546.67
571.59	34278.39
571.789	34251.77
571.987	34104.31
572.186	33905.66
572.384	33385.47
572.582	33588.22
572.781	33807.36
572.979	33569.79
573.177	33405.95
573.376	33729.53
573.574	33235.97
573.772	33301.51
573.971	32998.41
574.169	33072.14
574.367	32941.07
574.565	32838.67
574.763	32484.37
574.962	32441.36
575.16	32295.96
575.358	32535.57
575.556	31849.5
575.754	32449.55
575.952	31642.65
576.151	32279.57
576.349	31683.61
576.547	31577.12
576.745	31843.35
576.943	32300.05
577.141	31441.95
577.339	31392.8
577.537	31601.69
577.735	31398.94
577.933	31487.01
578.131	31298.59
578.329	30964.78
578.527	30868.52
578.725	31038.5
578.923	30831.66
579.121	30700.59
579.319	30624.81
579.516	30854.19
579.714	30678.06
579.912	30442.54
580.11	30110.77
580.308	30151.73
580.506	30088.24
580.704	29766.71
580.901	29766.71
581.099	29975.61
581.297	29373.5
581.495	29733.95
581.692	29871.16
581.89	29535.29
582.088	29664.32
582.285	29258.82
582.483	29557.82
582.681	29152.32
582.878	29056.07
583.076	29070.4
583.274	29051.97
583.471	28673.1
583.669	28968.01
583.866	28777.54
584.064	28877.9
584.262	28091.48
584.459	28736.59
584.657	28382.29
584.854	28404.81
585.052	27884.63
585.249	28398.67
585.447	28226.64
585.644	27815
585.841	27849.82
586.039	28148.82
586.236	27745.37
586.434	27518.04
586.631	27403.36
586.828	27657.31
587.026	27991.12
587.223	27311.2
587.42	27305.06
587.618	27266.14
587.815	27159.65
588.012	26698.86
588.21	26680.42
588.407	26729.58
588.604	26879.08
588.801	26426.48
588.999	26598.51
589.196	26864.74
589.393	26512.49
589.59	26469.48
589.787	26262.64
589.984	26250.35
590.182	25943.16
590.379	26203.25
590.576	25941.11
590.773	25986.16
590.97	25986.16
591.167	25879.67
591.364	25461.88
591.561	25613.43
591.758	25422.97
591.955	25621.63
592.152	25730.17
592.349	25343.1
592.546	25312.38
592.743	25162.88
592.94	24994.95
593.137	25222.27
593.334	25046.15
593.531	24724.61
593.727	24951.94
593.924	24786.05
594.121	24607.88
594.318	24956.04
594.515	24186
594.712	24358.03
594.908	24210.57
595.105	24523.91
595.302	24056.98
595.499	23985.3
595.696	23948.43
595.892	23700.63
596.089	23993.49
596.286	24091.79
596.482	23995.54
596.679	23866.52
596.876	23987.35
597.072	23641.24
597.269	23635.1
597.466	23250.08
597.662	23291.04
597.859	23346.33
598.055	23243.93
598.252	23069.86
598.448	22936.74
598.645	23004.32
598.841	23016.61
599.038	22695.08
599.234	23168.16
599.431	22693.03
599.627	22801.57
599.824	22920.35
600.02	22041.78
600.217	22785.19
600.413	22095.02
600.609	22353.07
600.806	22195.37
601.002	22404.27
601.198	22004.91
601.395	21888.18
601.591	22109.36
601.787	22000.82
601.984	21654.71
602.18	21974.19
602.376	22062.26
602.572	21499.06
602.769	21499.06
602.965	21587.13
603.161	21462.2
603.357	21480.63
603.553	21198.01
603.75	21292.22
603.946	20862.15
604.142	21171.39
604.338	20976.83
604.534	20853.95
604.73	20733.12
604.926	20616.39
605.122	20923.58
605.318	20817.09
605.514	20987.07
605.71	20530.37
605.906	20446.41
606.102	20413.64
606.298	20384.97
606.494	20524.23
606.69	20376.78
606.886	20593.86
607.082	20290.76
607.278	20155.6
607.474	19872.98
607.67	20174.03
607.866	20024.53
608.062	20122.83
608.257	19924.18
608.453	20088.01
608.649	19770.58
608.845	19664.08
609.041	19746
609.236	19983.57
609.432	19455.19
609.628	19727.57
609.824	19324.12
610.019	19444.95
610.215	19637.46
610.411	19610.84
610.606	19336.41
610.802	19371.22
610.998	19133.66
611.193	19041.5
611.389	19000.54
611.584	19148
611.78	19031.26
611.976	19229.91
612.171	19176.67
612.367	18892
612.562	18955.49
612.758	18742.5
612.953	18959.58
613.149	18808.03
613.344	18554.08
613.539	19258.59
613.735	19031.26
613.93	18885.86
614.126	18463.97
614.321	18771.17
614.517	18590.95
614.712	18552.04
614.907	18373.86
615.103	18547.94
615.298	18207.98
615.493	18593
615.688	18365.67
615.884	18521.32
616.079	17902.83
616.274	18066.67
616.47	18222.31
616.665	18066.67
616.86	18124.01
617.055	18183.4
617.25	17673.46
617.445	17923.31
617.641	17521.91
617.836	17876.21
618.031	17892.59
618.226	17734.9
618.421	17960.17
618.616	17773.81
618.811	17624.31
619.006	17550.58
619.201	17337.59
619.396	17595.64
619.591	17183.99
619.786	17310.97
619.981	16932.09
620.176	17179.9
620.371	16815.36
620.566	16944.38
620.761	16655.62
620.956	16856.32
621.151	16618.75
621.346	16889.09
621.541	16405.77
621.735	16657.67
621.93	16295.18
622.125	16334.09
622.32	16164.11
622.515	16354.57
622.709	16235.78
622.904	16106.76
623.099	15930.64
623.294	15998.22
623.488	15826.19
623.683	15850.77
623.878	15408.4
624.072	15408.4
624.267	15613.2
624.462	15277.33
624.656	15346.97
624.851	15101.21
625.046	14984.48
625.24	15060.25
625.435	14734.62
625.629	14906.65
625.824	14931.23
626.018	14726.43
626.213	14466.34
626.407	14615.84
626.602	14472.48
626.796	14570.79
626.991	14503.2
627.185	14445.86
627.38	14193.96
627.574	13851.95
627.768	14095.66
627.963	13753.65
628.157	13860.14
628.352	13950.25
628.546	13729.07
628.74	13880.62
628.935	13419.83
629.129	13491.51
629.323	13425.97
629.517	13552.95
629.712	13382.96
629.906	13333.81
630.1	13094.2
630.294	13118.78
630.489	12950.84
630.683	12784.96
630.877	12803.39
631.071	12827.96
631.265	12674.37
631.459	12639.55
631.653	12541.25
631.848	12533.06
632.042	12498.24
632.236	12440.9
632.43	12156.23
632.624	12330.31
632.818	12485.95
633.012	12047.69
633.206	11967.82
633.4	12223.81
633.594	11939.15
633.788	12004.68
633.982	12080.46
634.176	11691.34
634.369	11677.01
634.563	11756.88
634.757	11810.12
634.951	11492.69
635.145	11466.07
635.339	11500.88
635.533	11443.54
635.726	11205.97
635.92	11189.59
636.114	11373.91
636.308	11238.74
636.501	11144.53
636.695	11146.58
636.889	10986.84
637.083	10900.83
637.276	10859.87
637.47	10915.16
637.664	10755.42
637.857	10761.56
638.051	10698.08
638.244	10724.7
638.438	10526.05
638.632	10294.63
638.825	10411.36
639.019	10253.67
639.212	10399.07
639.406	10259.81
639.599	10192.23
639.793	10272.1
639.986	9977.19
640.18	10036.58
640.373	9979.24
640.567	9938.28
640.76	9909.61
640.954	9913.7
641.147	9657.71
641.34	9674.09
641.534	9878.89
641.727	9692.52
641.92	9526.64
642.114	9469.3
642.307	9426.29
642.5	9393.52
642.694	9346.42
642.887	9104.76
643.08	9311.6
643.273	9123.19
643.467	9149.81
643.66	9145.72
643.853	9178.48
644.046	9221.49
644.239	9024.89
644.432	9092.47
644.626	8899.96
644.819	8985.97
645.012	8662.4
645.205	8904.06
645.398	8736.12
645.591	8805.75
645.784	8471.93
645.977	8461.69
646.17	8590.72
646.363	8441.22
646.556	8514.94
646.749	8324.48
646.942	8525.18
647.135	8324.48
647.328	8271.23
647.521	8410.5
647.714	8007.05
647.907	8301.95
648.099	8080.77
648.292	8070.53
648.485	7912.84
648.678	8084.87
648.871	8005
649.064	7947.65
649.256	7912.84
649.449	7904.65
649.642	7880.07
649.835	7708.04
650.027	7830.92
650.22	7691.66
650.413	7597.45
650.605	7675.27
650.798	7597.45
650.991	7613.84
651.183	7529.87
651.376	7570.83
651.568	7497.1
651.761	7398.8
651.954	7390.61
652.146	7456.14
652.339	7337.36
652.531	7372.18
652.724	7191.95
652.916	7175.57
653.109	7114.13
653.301	7277.97
653.494	7097.75
653.686	6815.13
653.879	7011.73
654.071	7191.95
654.263	6964.63
654.456	7036.31
654.648	6843.8
654.84	6987.16
655.033	6821.27
655.225	6909.33
655.417	6882.71
655.61	6815.13
655.802	6874.52
655.994	6636.95
656.186	6733.21
656.379	6600.09
656.571	6786.46
656.763	6438.3
656.955	6518.17
657.148	6464.93
657.34	6593.95
657.532	6438.3
657.724	6383.01
657.916	6458.78
658.108	6393.25
658.3	6329.76
658.492	6389.15
658.684	6311.33
658.876	6172.07
659.068	6092.2
659.26	6159.78
659.452	6258.08
659.644	6034.85
659.836	6118.82
660.028	6030.76
660.22	5961.13
660.412	6120.87
660.604	5926.31
660.796	6067.62
660.988	5936.55
661.18	5854.63
661.372	5946.79
661.563	5864.87
661.755	5924.26
661.947	5791.14
662.139	5748.14
662.331	5823.91
662.522	5764.52
662.714	5741.99
662.906	5705.13
663.097	5658.03
663.289	5709.22
663.481	5541.29
663.673	5801.38
663.864	5545.39
664.056	5514.67
664.247	5725.61
664.439	5477.8
664.631	5655.98
664.822	5539.24
665.014	5645.74
665.205	5520.81
665.397	5541.29
665.588	5447.08
665.78	5494.19
665.971	5340.59
666.163	5436.85
666.354	5494.19
666.546	5459.37
666.737	5346.73
666.929	5393.84
667.12	5391.79
667.311	5584.3
667.503	5287.34
667.694	5356.97
667.885	5195.18
668.077	5311.92
668.268	5361.07
668.459	5191.09
668.651	5283.25
668.842	5264.82
669.033	5266.86
669.224	5227.95
669.416	5203.38
669.607	5279.15
669.798	5281.2
669.989	5240.24
670.18	5264.82
670.371	5047.73
670.563	5086.64
670.754	5209.52
670.945	5092.79
671.136	5164.47
671.327	5127.6
671.518	5168.56
671.709	5238.19
671.9	5381.55
672.091	5215.66
672.282	5178.8
672.473	5094.83
672.664	5295.54
672.855	5168.56
673.046	5176.75
673.237	5189.04
673.428	5100.98
673.619	5412.27
673.809	5086.64
674	5109.17
674.191	5107.12
674.382	5115.31
674.573	5258.67
674.764	5299.63
674.954	5119.41
675.145	5270.96
675.336	5234.1
675.527	5203.38
675.717	5227.95
675.908	5223.86
676.099	5244.34
676.289	5100.98
676.48	5131.7
676.671	5070.26
676.861	5221.81
677.052	5219.76
677.243	5066.16
677.433	5221.81
677.624	5318.06
677.814	5330.35
678.005	5365.17
678.195	5354.93
678.386	5330.35
678.576	5307.82
678.767	5320.11
678.957	5328.3
679.148	5344.69
679.338	5522.86
679.529	5455.28
679.719	5258.67
679.909	5371.31
680.1	5535.15
680.29	5332.4
680.481	5529
680.671	5545.39
680.861	5457.32
681.052	5465.52
681.242	5457.32
681.432	5676.46
681.622	5504.43
681.813	5619.11
682.003	5479.85
682.193	5594.54
682.383	5541.29
682.573	5721.51
682.764	5477.8
682.954	5526.96
683.144	5801.38
683.334	5586.35
683.524	5600.68
683.714	5600.68
683.904	5572.01
684.094	5731.75
684.284	5651.88
684.474	5805.48
684.664	5717.42
684.854	5569.96
685.044	5703.08
685.234	5635.5
685.424	5651.88
685.614	5543.34
685.804	5397.93
685.994	5563.82
686.184	5647.79
686.374	5619.11
686.564	5455.28
686.753	5410.22
686.943	5363.12
687.133	5479.85
687.323	5447.08
687.513	5397.93
687.702	5436.85
687.892	5283.25
688.082	5531.05
688.272	5430.7
688.461	5258.67
688.651	5404.08
688.841	5176.75
689.03	5225.9
689.22	5121.46
689.41	5098.93
689.599	5205.42
689.789	4996.53
689.979	5111.22
690.168	5062.07
690.358	5017.01
690.547	4935.09
690.737	4996.53
690.926	4912.57
691.116	4971.96
691.305	4771.26
691.495	4840.89
691.684	4791.73
691.874	4701.62
692.063	4824.5
692.252	4644.28
692.442	4705.72
692.631	4511.16
692.82	4695.48
693.01	4529.59
693.199	4576.7
693.388	4427.2
693.578	4412.86
693.767	4541.88
693.956	4484.54
694.146	4517.31
694.335	4394.43
694.524	4445.63
694.713	4427.2
694.902	4400.57
695.092	4373.95
695.281	4271.55
695.47	4169.15
695.659	4177.34
695.848	4111.81
696.037	4154.82
696.226	4199.87
696.415	4341.18
696.604	4273.6
696.793	4113.86
696.982	4218.3
697.171	4208.06
697.36	4310.46
697.549	4232.64
697.738	4251.07
697.927	4171.2
698.116	4136.38
698.305	4128.19
698.494	4242.88
698.683	4111.81
698.872	4054.47
699.061	4095.43
699.25	4265.41
699.438	4023.75
699.627	3868.1
699.816	4095.43
700.005	4103.62
700.193	4040.13
700.382	4173.25
700.571	4134.34
700.76	4111.81
700.948	4095.43
701.137	4173.25
701.326	4019.65
701.514	4152.77
701.703	3968.45
701.892	3907.01
702.08	4013.51
702.269	3911.11
702.457	4093.38
702.646	3939.78
702.834	4044.23
703.023	4023.75
703.212	4005.31
703.4	3849.67
703.589	4050.37
703.777	4105.67
703.965	3970.5
704.154	4079.04
704.342	4220.35
704.531	4111.81
704.719	4033.99
704.907	4013.51
705.096	4001.22
705.284	4136.38
705.472	4064.71
705.661	4017.6
705.849	3988.93
706.037	4060.61
706.226	4120
706.414	4113.86
706.602	4097.47
706.79	3986.88
706.979	4081.09
707.167	4173.25
707.355	4009.41
707.543	4046.27
707.731	4099.52
707.919	4242.88
708.107	4140.48
708.296	4236.74
708.484	4187.58
708.672	4173.25
708.86	4300.22
709.048	4199.87
709.236	4380.09
709.424	4251.07
709.612	4173.25
709.8	4283.84
709.988	4279.74
710.176	4353.47
710.364	4406.72
710.551	4365.76
710.739	4421.05
710.927	4285.89
711.115	4345.28
711.303	4396.48
711.491	4324.8
711.679	4271.55
711.866	4445.63
712.054	4660.66
712.242	4277.69
712.43	4398.52
712.617	4390.33
712.805	4468.16
712.993	4507.07
713.181	4326.85
713.368	4462.01
713.556	4609.47
713.744	4412.86
713.931	4656.57
714.119	4685.24
714.306	4666.81
714.494	4734.39
714.682	4599.23
714.869	4623.8
715.057	4799.93
715.244	4685.24
715.432	4718.01
715.619	4777.4
715.807	4679.1
715.994	4660.66
716.182	4748.73
716.369	4808.12
716.556	4877.75
716.744	4920.76
716.931	4865.46
717.119	4920.76
717.306	5037.49
717.493	4898.23
717.681	5062.07
717.868	5094.83
718.055	4953.52
718.242	5043.64
718.43	5041.59
718.617	5037.49
718.804	5154.23
718.991	5053.87
719.179	5131.7
719.366	5160.37
719.553	5148.08
719.74	5035.44
719.927	5139.89
720.114	5035.44
720.301	5064.11
720.488	5119.41
720.676	5135.79
720.863	5307.82
721.05	5387.69
721.237	5277.1
721.424	5266.86
721.611	5340.59
721.798	5217.71
721.985	5238.19
722.172	5348.78
722.358	5479.85
722.545	5402.03
722.732	5424.56
722.919	5479.85
723.106	5393.84
723.293	5557.68
723.48	5516.72
723.667	5463.47
723.853	5551.53
724.04	5621.16
724.227	5545.39
724.414	5590.44
724.6	5551.53
724.787	5729.7
724.974	5412.27
725.161	5481.9
725.347	5619.11
725.534	5676.46
725.72	5868.97
725.907	5760.42
726.094	5664.17
726.28	5637.55
726.467	5655.98
726.653	5496.24
726.84	5754.28
727.027	5946.79
727.213	5744.04
727.4	5778.86
727.586	5969.32
727.773	5668.27
727.959	5854.63
728.145	5885.35
728.332	5825.96
728.518	5815.72
728.705	5881.25
728.891	5957.03
729.077	5885.35
729.264	5942.69
729.45	5946.79
729.636	6028.71
729.823	5922.21
730.009	6057.38
730.195	5963.17
730.382	6047.14
730.568	6147.49
730.754	6186.4
730.94	6139.3
731.126	6133.15
731.313	6442.4
731.499	6194.59
731.685	6266.27
731.871	5950.89
732.057	6186.4
732.243	6176.16
732.429	6294.94
732.615	6241.7
732.801	6063.52
732.987	6110.63
733.173	6120.87
733.359	6276.51
733.545	6417.82
733.731	6090.15
733.917	6120.87
734.103	6143.39
734.289	6270.37
734.475	6446.49
734.661	6303.14
734.847	6305.18
735.033	6221.22
735.219	6167.97
735.404	6307.23
735.59	6278.56
735.776	6344.1
735.962	6380.96
736.148	6364.57
736.333	6278.56
736.519	6350.24
736.705	6389.15
736.89	6278.56
737.076	6421.92
737.262	6356.38
737.447	6296.99
737.633	6307.23
737.819	6278.56
738.004	6274.46
738.19	6182.31
738.375	6327.71
738.561	6215.07
738.747	6213.03
738.932	6118.82
739.118	6251.94
739.303	6225.31
739.489	6315.42
739.674	6077.86
739.859	6174.11
740.045	6395.29
740.23	6149.54
740.416	6094.24
740.601	6184.35
740.786	6110.63
740.972	5957.03
741.157	6280.61
741.342	6012.32
741.528	6110.63
741.713	6141.35
741.898	6081.96
742.084	6127.01
742.269	6049.19
742.454	6231.46
742.639	5963.17
742.824	5922.21
743.01	5791.14
743.195	5930.41
743.38	6032.8
743.565	6036.9
743.75	6024.61
743.935	5862.82
744.12	5944.74
744.305	5715.37
744.49	5852.58
744.675	5750.18
744.86	5733.8
745.045	5903.78
745.23	5666.22
745.415	5694.89
745.6	5707.18
745.785	5610.92
745.97	5791.14
746.155	5569.96
746.34	5598.63
746.525	5488.04
746.71	5545.39
746.895	5246.38
747.079	5410.22
747.264	5369.26
747.449	5389.74
747.634	5303.73
747.819	5428.65
748.003	5330.35
748.188	5275.06
748.373	5281.2
748.557	5242.29
748.742	5168.56
748.927	5080.5
749.111	5068.21
749.296	5004.72
749.481	5166.51
749.665	4951.48
749.85	4804.02
750.034	5029.3
750.219	4881.85
750.404	4963.76
750.588	4765.11
750.773	4849.08
750.957	4824.5
751.141	4775.35
751.326	4611.51
751.51	4664.76
751.695	4543.93
751.879	4789.69
752.064	4564.41
752.248	4588.99
752.432	4742.58
752.617	4543.93
752.801	4593.08
752.985	4566.46
753.17	4361.66
753.354	4345.28
753.538	4337.09
753.722	4484.54
753.907	4281.79
754.091	4222.4
754.275	4283.84
754.459	4341.18
754.643	4091.33
754.828	4079.04
755.012	3976.64
755.196	4058.56
755.38	3974.6
755.564	3966.4
755.748	3915.2
755.932	4081.09
756.116	3892.68
756.3	3923.4
756.484	3825.09
756.668	3757.51
756.852	3800.52
757.036	3808.71
757.22	3696.07
757.404	3624.39
757.588	3542.47
757.772	3745.22
757.956	3628.49
758.14	3626.44
758.323	3431.88
758.507	3599.82
758.691	3390.92
758.875	3440.08
759.059	3483.08
759.242	3376.59
759.426	3419.6
759.61	3476.94
759.794	3272.14
759.977	3306.96
760.161	3290.57
760.345	3382.73
760.528	3327.44
760.712	3395.02
760.895	3360.2
761.079	3237.33
761.263	3083.73
761.446	3093.97
761.63	3122.64
761.813	3239.37
761.997	3100.11
762.18	3132.88
762.364	3042.77
762.547	3096.02
762.731	3065.3
762.914	2989.52
763.098	3024.34
763.281	2983.38
763.464	3069.39
763.648	2948.56
763.831	2872.79
764.015	2966.99
764.198	2891.22
764.381	3034.58
764.564	2915.8
764.748	2760.15
764.931	2928.08
765.114	2788.82
765.297	2837.97
765.481	2706.9
765.664	2862.55
765.847	2799.06
766.03	2858.45
766.213	2692.57
766.397	2776.53
766.58	2723.29
766.763	2735.57
766.946	2711
767.129	2782.68
767.312	2602.46
767.495	2491.87
767.678	2528.73
767.861	2565.59
768.044	2635.22
768.227	2514.39
768.41	2405.85
768.593	2596.31
768.776	2577.88
768.959	2594.26
769.142	2467.29
769.324	2457.05
769.507	2559.45
769.69	2457.05
769.873	2350.56
770.056	2569.69
770.239	2455
770.421	2512.35
770.604	2379.23
770.787	2391.52
770.97	2289.12
771.152	2401.76
771.335	2362.84
771.518	2371.04
771.7	2313.69
771.883	2289.12
772.066	2242.01
772.248	2237.92
772.431	2450.91
772.613	2205.15
772.796	2217.44
772.978	2203.1
773.161	2149.86
773.343	2029.03
773.526	2194.91
773.708	2178.53
773.891	2137.57
774.073	2199.01
774.256	2022.88
774.438	2135.52
774.621	2125.28
774.803	1971.68
774.985	2069.98
775.168	1912.29
775.35	1945.06
775.532	2000.35
775.715	1938.91
775.897	1961.44
776.079	1863.14
776.261	1830.37
776.444	1863.14
776.626	1900
776.808	1807.84
776.99	1787.36
777.173	1846.76
777.355	1813.99
777.537	1867.24
777.719	1795.56
777.901	1689.06
778.083	1781.22
778.265	1703.4
778.447	1721.83
778.629	1727.97
778.811	1652.2
778.993	1678.82
779.175	1678.82
779.357	1711.59
779.539	1601
779.721	1668.58
779.903	1535.46
780.085	1592.81
780.267	1555.94
780.449	1584.62
780.631	1588.71
780.812	1617.38
780.994	1547.75
781.176	1539.56
781.358	1504.75
781.54	1543.66
781.721	1412.59
781.903	1519.08
782.085	1482.22
782.267	1496.55
782.448	1414.63
782.63	1428.97
782.812	1334.76
782.993	1318.38
783.175	1349.1
783.357	1357.29
783.538	1388.01
783.72	1261.04
783.901	1269.23
784.083	1299.95
784.264	1238.51
784.446	1310.19
784.627	1228.27
784.809	1336.81
784.99	1185.26
785.172	1250.8
785.353	1177.07
785.535	1342.96
785.716	1187.31
785.897	1150.45
786.079	1158.64
786.26	1121.77
786.441	1121.77
786.623	1089.01
786.804	1152.49
786.985	1146.35
787.167	1142.25
787.348	1011.18
787.529	1048.05
787.71	1129.97
787.891	1031.66
788.073	1058.29
788.254	1041.9
788.435	1068.53
788.616	1025.52
788.797	945.65
788.978	980.47
789.159	1076.72
789.34	1000.94
789.522	1062.38
789.703	935.41
789.884	996.85
790.065	949.75
790.246	1015.28
790.427	865.78
790.607	966.13
790.788	1035.76
790.969	859.63
791.15	957.94
791.331	937.46
791.512	884.21
791.693	822.77
791.874	937.46
792.054	900.59
792.235	884.21
792.416	906.74
792.597	871.92
792.778	818.68
792.958	878.07
793.139	749.04
793.32	863.73
793.5	830.96
793.681	835.06
793.862	833.01
794.042	761.33
794.223	673.27
794.404	790
794.584	720.37
794.765	790
794.945	773.62
795.126	865.78
795.306	837.11
795.487	796.15
795.667	769.52
795.848	808.44
796.028	728.56
796.209	783.86
796.389	757.24
796.57	812.53
796.75	697.85
796.93	679.41
797.111	718.33
797.291	677.37
797.471	816.63
797.652	679.41
797.832	736.76
798.012	839.16
798.192	617.97
798.373	660.98
798.553	744.95
798.733	777.72
798.913	626.17
799.093	636.41
799.274	701.94
799.454	660.98
799.634	697.85
799.814	724.47
799.994	712.18
800.174	597.49
800.354	654.84
800.534	622.07
800.714	656.89
800.894	646.65
801.074	558.58
801.254	658.93
801.434	632.31
801.614	577.02
801.794	663.03
801.974	1334.76
802.154	646.65
802.334	632.31
802.514	513.53
802.693	523.77
802.873	556.54
803.053	622.07
803.233	597.49
803.413	581.11
803.592	527.86
803.772	511.48
803.952	542.2
804.131	564.73
804.311	605.69
804.491	681.46
804.67	521.72
804.85	491
805.03	613.88
805.209	538.1
805.389	482.81
805.568	548.34
805.748	628.21
805.928	505.34
806.107	597.49
806.287	482.81
806.466	519.67
806.646	466.42
806.825	523.77
807.004	454.14
807.184	460.28
807.363	515.58
807.543	458.23
807.722	396.79
807.901	593.4
808.081	507.38
808.26	431.61
808.439	431.61
808.619	472.57
808.798	519.67
808.977	495.1
809.156	452.09
809.336	450.04
809.515	544.25
809.694	437.75
809.873	384.51
810.052	499.19
810.231	472.57
810.411	392.7
810.59	523.77
810.769	468.47
810.948	523.77
811.127	421.37
811.306	400.89
811.485	380.41
811.664	433.66
811.843	417.27
812.022	441.85
812.201	521.72
812.38	462.33
812.559	374.27
812.737	437.75
812.916	417.27
813.095	351.74
813.274	411.13
813.453	472.57
813.632	325.12
813.811	437.75
813.989	265.72
814.168	382.46
814.347	417.27
814.526	409.08
814.704	425.47
814.883	423.42
815.062	382.46
815.24	366.07
815.419	339.45
815.598	386.55
815.776	286.2
815.955	294.4
816.133	212.48
816.312	370.17
816.49	318.97
816.669	400.89
816.847	396.79
817.026	392.7
817.204	321.02
817.383	429.56
817.561	280.06
817.74	388.6
817.918	296.44
818.097	359.93
818.275	284.16
818.453	394.75
818.632	314.88
818.81	312.83
818.988	325.12
819.167	384.51
819.345	404.99
819.523	271.87
819.701	290.3
819.879	304.64
820.058	308.73
820.236	349.69
820.414	294.4
820.592	292.35
820.77	310.78
820.948	368.12
821.127	269.82
821.305	292.35
821.483	286.2
821.661	300.54
821.839	284.16
822.017	310.78
822.195	198.14
822.373	366.07
822.551	261.63
822.729	282.11
822.907	269.82
823.085	302.59
823.262	251.39
823.44	206.33
823.618	339.45
823.796	245.24
823.974	282.11
824.152	300.54
824.329	351.74
824.507	308.73
824.685	284.16
824.863	263.68
825.04	251.39
825.218	273.92
825.396	286.2
825.574	218.62
825.751	226.81
825.929	318.97
826.107	239.1
826.284	261.63
826.462	280.06
826.639	259.58
826.817	179.71
826.994	200.19
827.172	163.33
827.349	327.16
827.527	204.28
827.704	298.49
827.882	298.49
828.059	278.01
828.237	177.66
828.414	261.63
828.591	163.33
828.769	171.52
828.946	316.92
829.124	245.24
829.301	325.12
829.478	239.1
829.655	241.15
829.833	243.2
830.01	235
830.187	208.38
830.364	251.39
830.542	212.48
830.719	196.09
830.896	196.09
831.073	224.76
831.25	255.48
831.427	224.76
831.604	327.16
831.782	189.95
831.959	212.48
832.136	222.72
832.313	208.38
832.49	159.23
832.667	218.62
832.844	196.09
833.021	226.81
833.198	198.14
833.374	187.9
833.551	243.2
833.728	204.28
833.905	177.66
834.082	91.65
834.259	243.2
834.436	126.46
834.612	187.9
834.789	214.52
834.966	173.57
835.143	167.42
835.319	105.98
835.496	206.33
835.673	194.05
835.85	200.19
836.026	179.71
836.203	208.38
836.38	140.8
836.556	161.28
836.733	114.17
836.909	212.48
837.086	81.41
837.262	161.28
837.439	245.24
837.616	165.37
837.792	138.75
837.968	161.28
838.145	81.41
838.321	183.81
838.498	93.69
838.674	142.85
838.851	136.7
839.027	62.98
839.203	153.09
839.38	105.98
839.556	146.94
839.732	220.67
839.909	120.32
840.085	146.94
840.261	101.89
840.437	159.23
840.614	110.08
840.79	151.04
840.966	105.98
841.142	224.76
841.318	77.31
841.494	161.28
841.671	175.61
841.847	44.54
842.023	103.93
842.199	132.61
842.375	155.13
842.551	91.65
842.727	89.6
842.903	148.99
843.079	38.4
843.255	161.28
843.431	60.93
843.607	77.31
843.783	89.6
843.959	120.32
844.134	171.52
844.31	138.75
844.486	67.07
844.662	36.35
844.838	112.13
845.013	73.21
845.189	183.81
845.365	48.64
845.541	44.54
845.716	108.03
845.892	126.46
846.068	97.79
846.244	163.33
846.419	187.9
846.595	65.02
846.77	89.6
846.946	151.04
847.122	91.65
847.297	85.5
847.473	210.43
847.648	120.32
847.824	99.84
847.999	67.07
848.175	89.6
848.35	103.93
848.526	171.52
848.701	97.79
848.876	132.61
849.052	157.18
849.227	105.98
849.403	108.03
849.578	103.93
849.753	148.99
849.929	97.79
850.104	56.83
850.279	97.79
850.454	144.89
850.63	69.12
850.805	114.17
850.98	81.41
851.155	146.94
851.33	11.78
851.505	132.61
851.681	171.52
851.856	30.21
852.031	81.41
852.206	60.93
852.381	48.64
852.556	93.69
852.731	126.46
852.906	81.41
853.081	87.55
853.256	91.65
853.431	122.37
853.606	108.03
853.781	65.02
853.956	48.64
854.131	32.26
854.305	87.55
854.48	24.06
854.655	97.79
854.83	93.69
855.005	-41.47
855.18	93.69
855.354	42.5
855.529	77.31
855.704	-43.52
855.879	116.22
856.053	56.83
856.228	114.17
856.403	87.55
856.577	60.93
856.752	11.78
856.926	38.4
857.101	85.5
857.276	-8.7
857.45	138.75
857.625	87.55
857.799	65.02
857.974	60.93
858.148	36.35
858.323	81.41
858.497	36.35
858.672	32.26
858.846	71.17
859.02	130.56
859.195	24.06
859.369	87.55
859.543	116.22
859.718	118.27
859.892	112.13
860.066	81.41
860.241	22.02
860.415	19.97
860.589	32.26
860.763	36.35
860.938	52.74
861.112	36.35
861.286	60.93
861.46	-20.99
861.634	56.83
861.808	60.93
861.982	105.98
862.157	60.93
862.331	9.73
862.505	30.21
862.679	24.06
862.853	83.45
863.027	112.13
863.201	54.78
863.375	15.87
863.549	-8.7
863.722	60.93
863.896	77.31
864.07	42.5
864.244	24.06
864.418	87.55
864.592	65.02
864.766	85.5
864.939	32.26
865.113	-2.56
865.287	46.59
865.461	5.63
865.634	48.64
865.808	52.74
865.982	15.87
866.156	73.21
866.329	-27.14
866.503	11.78
866.676	79.36
866.85	48.64
867.024	15.87
867.197	19.97
867.371	62.98
867.544	-53.76
867.718	54.78
867.891	7.68
868.065	22.02
868.238	-4.61
868.412	138.75
868.585	42.5
868.759	24.06
868.932	40.45
869.105	56.83
869.279	24.06
869.452	77.31
869.625	15.87
869.799	69.12
869.972	34.3
870.145	50.69
870.319	56.83
870.492	13.82
870.665	-66.05
870.838	95.74
871.011	-49.66
871.185	-20.99
871.358	44.54
871.531	120.32
871.704	30.21
871.877	99.84
872.05	-37.38
872.223	83.45
872.396	52.74
872.569	110.08
872.742	-49.66
872.915	118.27
873.088	-2.56
873.261	-31.23
873.434	19.97
873.607	40.45
873.78	73.21
873.953	-8.7
874.126	22.02
874.299	48.64
874.471	11.78
874.644	-37.38
874.817	36.35
874.99	105.98
875.163	7.68
875.335	7.68
875.508	73.21
875.681	97.79
875.853	34.3
876.026	54.78
876.199	69.12
876.371	36.35
876.544	24.06
876.717	15.87
876.889	54.78
877.062	13.82
877.234	-57.86
877.407	-64
877.579	22.02
877.752	15.87
877.924	30.21
878.097	73.21
878.269	79.36
878.442	34.3
878.614	97.79
878.786	-23.04
878.959	-41.47
879.131	-14.85
879.303	15.87
879.476	-8.7
879.648	75.26
879.82	3.58
879.993	19.97
880.165	81.41
880.337	17.92
880.509	60.93
880.681	26.11
880.854	-33.28
881.026	24.06
881.198	60.93
881.37	60.93
881.542	-10.75
881.714	-0.51
881.886	89.6
882.058	-18.94
882.23	114.17
882.402	-18.94
882.574	-0.51
882.746	-16.9
882.918	50.69
883.09	54.78
883.262	-53.76
883.434	48.64
883.606	-49.66
883.778	56.83
883.95	89.6
884.122	-18.94
884.293	40.45
884.465	28.16
884.637	77.31
884.809	-16.9
884.98	32.26
885.152	81.41
885.324	42.5
885.496	19.97
885.667	-8.7
885.839	17.92
886.011	89.6
886.182	40.45
886.354	97.79
886.525	-16.9
886.697	26.11
886.869	-90.62
887.04	28.16
887.212	9.73
887.383	159.23
887.555	56.83
887.726	40.45
887.897	-49.66
888.069	46.59
888.24	5.63
888.412	56.83
888.583	-4.61
888.754	46.59
888.926	-12.8
889.097	7.68
889.268	11.78
889.44	32.26
889.611	40.45
889.782	-23.04
889.953	24.06
890.125	73.21
890.296	-70.14
890.467	48.64
890.638	-0.51
890.809	62.98
890.98	-20.99
891.151	-0.51
891.323	22.02
891.494	5.63
891.665	30.21
891.836	9.73
892.007	15.87
892.178	79.36
892.349	-10.75
892.52	-29.18
892.691	11.78
892.862	42.5
893.032	-59.9
893.203	-23.04
893.374	-14.85
893.545	28.16
893.716	22.02
893.887	32.26
894.057	3.58
894.228	-29.18
894.399	-4.61
894.57	118.27
894.74	28.16
894.911	13.82
895.082	-16.9
895.253	-31.23
895.423	-37.38
895.594	15.87
895.764	30.21
895.935	-0.51
896.106	87.55
896.276	-16.9
896.447	-25.09
896.617	19.97
896.788	-20.99
896.958	7.68
897.129	-49.66
897.299	28.16
897.47	28.16
897.64	-8.7
897.81	32.26
897.981	-57.86
898.151	9.73
898.322	77.31
898.492	-18.94
898.662	-18.94
898.832	32.26
899.003	38.4
899.173	71.17
899.343	-33.28
899.513	17.92
