Data from USB4F104151__70__11-31-05-958.txt Node

Date: Fri Mar 14 11:31:05 EDT 2025
User: louis
Spectrometer: USB4F10415
Trigger mode: 4
Integration Time (sec): 5.000000E-2
Scans to average: 1
Electric dark correction enabled: true
Nonlinearity correction enabled: false
Boxcar width: 0
XAxis mode: Wavelengths
Number of Pixels in Spectrum: 3648
>>>>>Begin Spectral Data<<<<<
178.204	-121.34
178.424	-121.34
178.644	-121.34
178.864	-137.73
179.084	-76.29
179.304	-4.61
179.524	9.73
179.744	-31.23
179.964	36.35
180.184	9.73
180.404	-12.8
180.624	81.41
180.844	7.68
181.064	-121.34
181.283	56.83
181.503	-49.66
181.723	17.92
181.943	-55.81
182.163	99.84
182.383	34.3
182.602	58.88
182.822	54.78
183.042	97.79
183.262	-14.85
183.482	15.87
183.701	17.92
183.921	26.11
184.141	13.82
184.361	83.45
184.58	120.32
184.8	67.07
185.02	24.06
185.239	67.07
185.459	44.54
185.679	95.74
185.898	-27.14
186.118	108.03
186.338	75.26
186.557	99.84
186.777	24.06
186.997	32.26
187.216	13.82
187.436	62.98
187.655	77.31
187.875	73.21
188.095	-23.04
188.314	60.93
188.534	120.32
188.753	60.93
188.973	71.17
189.192	69.12
189.412	85.5
189.631	95.74
189.851	38.4
190.07	79.36
190.29	-57.86
190.509	75.26
190.729	38.4
190.948	114.17
191.168	155.13
191.387	67.07
191.607	9.73
191.826	-14.85
192.045	22.02
192.265	65.02
192.484	48.64
192.704	67.07
192.923	54.78
193.142	87.55
193.362	126.46
193.581	99.84
193.8	46.59
194.02	52.74
194.239	75.26
194.458	146.94
194.678	32.26
194.897	65.02
195.116	38.4
195.335	65.02
195.555	54.78
195.774	60.93
195.993	65.02
196.212	40.45
196.432	-47.62
196.651	1.54
196.87	19.97
197.089	157.18
197.308	91.65
197.528	75.26
197.747	44.54
197.966	13.82
198.185	99.84
198.404	75.26
198.623	110.08
198.842	30.21
199.062	81.41
199.281	89.6
199.5	32.26
199.719	122.37
199.938	-2.56
200.157	73.21
200.376	7.68
200.595	87.55
200.814	34.3
201.033	5.63
201.252	56.83
201.471	146.94
201.69	75.26
201.909	89.6
202.128	112.13
202.347	99.84
202.566	116.22
202.785	67.07
203.004	24.06
203.223	62.98
203.442	54.78
203.661	40.45
203.879	13.82
204.098	85.5
204.317	-6.66
204.536	83.45
204.755	73.21
204.974	73.21
205.193	26.11
205.411	118.27
205.63	99.84
205.849	15.87
206.068	26.11
206.287	101.89
206.505	48.64
206.724	62.98
206.943	-27.14
207.162	-20.99
207.381	48.64
207.599	-72.19
207.818	101.89
208.037	85.5
208.255	58.88
208.474	77.31
208.693	56.83
208.911	24.06
209.13	136.7
209.349	112.13
209.567	81.41
209.786	116.22
210.005	-25.09
210.223	-14.85
210.442	15.87
210.661	87.55
210.879	-27.14
211.098	9.73
211.316	67.07
211.535	118.27
211.753	73.21
211.972	-20.99
212.191	9.73
212.409	-51.71
212.628	9.73
212.846	-2.56
213.065	40.45
213.283	171.52
213.502	65.02
213.72	30.21
213.938	17.92
214.157	-66.05
214.375	65.02
214.594	-14.85
214.812	30.21
215.031	99.84
215.249	-41.47
215.467	56.83
215.686	32.26
215.904	40.45
216.122	50.69
216.341	126.46
216.559	5.63
216.778	140.8
216.996	77.31
217.214	1.54
217.432	36.35
217.651	56.83
217.869	34.3
218.087	103.93
218.306	40.45
218.524	73.21
218.742	13.82
218.96	-6.66
219.179	1.54
219.397	69.12
219.615	67.07
219.833	56.83
220.051	-31.23
220.27	73.21
220.488	48.64
220.706	103.93
220.924	-6.66
221.142	50.69
221.36	9.73
221.578	56.83
221.796	34.3
222.015	38.4
222.233	67.07
222.451	95.74
222.669	81.41
222.887	30.21
223.105	17.92
223.323	-25.09
223.541	5.63
223.759	103.93
223.977	9.73
224.195	89.6
224.413	48.64
224.631	42.5
224.849	9.73
225.067	97.79
225.285	-6.66
225.503	22.02
225.721	3.58
225.939	50.69
226.157	38.4
226.375	185.85
226.592	-39.42
226.81	132.61
227.028	67.07
227.246	122.37
227.464	81.41
227.682	69.12
227.9	34.3
228.117	-14.85
228.335	89.6
228.553	50.69
228.771	79.36
228.989	48.64
229.206	56.83
229.424	17.92
229.642	122.37
229.86	40.45
230.077	3.58
230.295	26.11
230.513	32.26
230.731	-0.51
230.948	11.78
231.166	44.54
231.384	60.93
231.601	13.82
231.819	75.26
232.037	9.73
232.254	-18.94
232.472	24.06
232.689	17.92
232.907	95.74
233.125	3.58
233.342	30.21
233.56	-39.42
233.777	24.06
233.995	112.13
234.213	32.26
234.43	-25.09
234.648	62.98
234.865	30.21
235.083	81.41
235.3	69.12
235.518	114.17
235.735	93.69
235.953	67.07
236.17	42.5
236.388	-14.85
236.605	44.54
236.822	58.88
237.04	75.26
237.257	42.5
237.475	3.58
237.692	50.69
237.909	19.97
238.127	87.55
238.344	13.82
238.562	50.69
238.779	73.21
238.996	34.3
239.214	24.06
239.431	67.07
239.648	7.68
239.865	116.22
240.083	40.45
240.3	108.03
240.517	-0.51
240.735	116.22
240.952	71.17
241.169	34.3
241.386	38.4
241.603	-18.94
241.821	-0.51
242.038	30.21
242.255	-18.94
242.472	110.08
242.689	93.69
242.907	60.93
243.124	79.36
243.341	91.65
243.558	-23.04
243.775	26.11
243.992	153.09
244.209	120.32
244.426	177.66
244.643	81.41
244.86	30.21
245.078	1.54
245.295	67.07
245.512	116.22
245.729	-18.94
245.946	9.73
246.163	83.45
246.38	40.45
246.597	9.73
246.814	62.98
247.031	52.74
247.248	3.58
247.464	30.21
247.681	42.5
247.898	5.63
248.115	75.26
248.332	-6.66
248.549	105.98
248.766	124.41
248.983	40.45
249.2	79.36
249.417	103.93
249.633	22.02
249.85	36.35
250.067	65.02
250.284	148.99
250.501	77.31
250.717	69.12
250.934	7.68
251.151	75.26
251.368	67.07
251.585	128.51
251.801	132.61
252.018	-68.09
252.235	67.07
252.451	50.69
252.668	-14.85
252.885	-6.66
253.102	42.5
253.318	-18.94
253.535	58.88
253.752	50.69
253.968	73.21
254.185	79.36
254.401	67.07
254.618	-0.51
254.835	-18.94
255.051	99.84
255.268	17.92
255.484	75.26
255.701	62.98
255.917	87.55
256.134	19.97
256.351	44.54
256.567	-0.51
256.784	44.54
257	-12.8
257.217	79.36
257.433	-25.09
257.65	48.64
257.866	153.09
258.082	50.69
258.299	67.07
258.515	42.5
258.732	9.73
258.948	24.06
259.165	13.82
259.381	50.69
259.597	32.26
259.814	50.69
260.03	73.21
260.246	15.87
260.463	122.37
260.679	65.02
260.895	71.17
261.112	69.12
261.328	-0.51
261.544	54.78
261.761	71.17
261.977	34.3
262.193	-27.14
262.409	54.78
262.626	79.36
262.842	83.45
263.058	17.92
263.274	97.79
263.49	89.6
263.707	22.02
263.923	50.69
264.139	11.78
264.355	85.5
264.571	165.37
264.787	1.54
265.004	83.45
265.22	46.59
265.436	89.6
265.652	26.11
265.868	65.02
266.084	32.26
266.3	36.35
266.516	124.41
266.732	42.5
266.948	22.02
267.164	67.07
267.38	30.21
267.596	-2.56
267.812	22.02
268.028	-2.56
268.244	42.5
268.46	85.5
268.676	17.92
268.892	71.17
269.108	62.98
269.324	-10.75
269.54	-25.09
269.756	46.59
269.972	42.5
270.188	15.87
270.403	19.97
270.619	79.36
270.835	58.88
271.051	105.98
271.267	19.97
271.483	73.21
271.698	17.92
271.914	75.26
272.13	-18.94
272.346	7.68
272.562	40.45
272.777	93.69
272.993	42.5
273.209	58.88
273.425	110.08
273.64	3.58
273.856	67.07
274.072	-16.9
274.287	40.45
274.503	81.41
274.719	108.03
274.934	-16.9
275.15	42.5
275.366	58.88
275.581	89.6
275.797	7.68
276.012	118.27
276.228	75.26
276.444	81.41
276.659	75.26
276.875	17.92
277.09	13.82
277.306	17.92
277.521	124.41
277.737	60.93
277.952	71.17
278.168	-4.61
278.383	105.98
278.599	40.45
278.814	77.31
279.03	58.88
279.245	42.5
279.461	3.58
279.676	56.83
279.892	24.06
280.107	67.07
280.322	-51.71
280.538	62.98
280.753	-6.66
280.969	38.4
281.184	50.69
281.399	40.45
281.615	52.74
281.83	52.74
282.045	22.02
282.26	5.63
282.476	108.03
282.691	87.55
282.906	87.55
283.122	73.21
283.337	5.63
283.552	40.45
283.767	-0.51
283.983	157.18
284.198	30.21
284.413	95.74
284.628	-6.66
284.843	26.11
285.058	108.03
285.274	83.45
285.489	-31.23
285.704	-23.04
285.919	101.89
286.134	-0.51
286.349	50.69
286.564	24.06
286.779	101.89
286.995	-84.48
287.21	48.64
287.425	26.11
287.64	26.11
287.855	91.65
288.07	22.02
288.285	99.84
288.5	50.69
288.715	46.59
288.93	79.36
289.145	36.35
289.36	9.73
289.575	87.55
289.79	81.41
290.004	-4.61
290.219	95.74
290.434	-20.99
290.649	15.87
290.864	-14.85
291.079	-8.7
291.294	36.35
291.509	44.54
291.724	62.98
291.938	56.83
292.153	75.26
292.368	-8.7
292.583	65.02
292.798	91.65
293.012	65.02
293.227	26.11
293.442	122.37
293.657	50.69
293.871	34.3
294.086	65.02
294.301	132.61
294.516	99.84
294.73	50.69
294.945	24.06
295.16	24.06
295.374	73.21
295.589	95.74
295.804	73.21
296.018	65.02
296.233	99.84
296.447	60.93
296.662	-14.85
296.877	50.69
297.091	26.11
297.306	38.4
297.52	40.45
297.735	15.87
297.949	32.26
298.164	54.78
298.378	46.59
298.593	-2.56
298.807	13.82
299.022	22.02
299.236	122.37
299.451	62.98
299.665	42.5
299.88	71.17
300.094	83.45
300.309	32.26
300.523	54.78
300.737	34.3
300.952	65.02
301.166	30.21
301.381	91.65
301.595	46.59
301.809	28.16
302.024	46.59
302.238	26.11
302.452	91.65
302.667	71.17
302.881	108.03
303.095	120.32
303.309	71.17
303.524	13.82
303.738	56.83
303.952	-6.66
304.166	38.4
304.381	28.16
304.595	136.7
304.809	17.92
305.023	62.98
305.237	50.69
305.452	32.26
305.666	105.98
305.88	65.02
306.094	91.65
306.308	105.98
306.522	99.84
306.736	-18.94
306.95	19.97
307.164	42.5
307.379	-16.9
307.593	50.69
307.807	46.59
308.021	81.41
308.235	52.74
308.449	-2.56
308.663	24.06
308.877	144.89
309.091	99.84
309.305	-66.05
309.519	-6.66
309.733	91.65
309.947	46.59
310.161	67.07
310.374	144.89
310.588	112.13
310.802	42.5
311.016	101.89
311.23	75.26
311.444	28.16
311.658	62.98
311.872	79.36
312.085	73.21
312.299	32.26
312.513	122.37
312.727	30.21
312.941	71.17
313.154	19.97
313.368	56.83
313.582	87.55
313.796	34.3
314.009	71.17
314.223	81.41
314.437	40.45
314.651	48.64
314.864	24.06
315.078	-35.33
315.292	56.83
315.505	87.55
315.719	17.92
315.933	58.88
316.146	-12.8
316.36	-43.52
316.573	71.17
316.787	54.78
317.001	48.64
317.214	65.02
317.428	65.02
317.641	-6.66
317.855	75.26
318.068	42.5
318.282	114.17
318.495	97.79
318.709	81.41
318.922	110.08
319.136	83.45
319.349	65.02
319.563	26.11
319.776	19.97
319.99	108.03
320.203	97.79
320.417	58.88
320.63	108.03
320.843	44.54
321.057	67.07
321.27	73.21
321.483	124.41
321.697	116.22
321.91	124.41
322.124	89.6
322.337	-20.99
322.55	126.46
322.763	32.26
322.977	24.06
323.19	-2.56
323.403	5.63
323.617	71.17
323.83	95.74
324.043	105.98
324.256	126.46
324.469	-16.9
324.683	128.51
324.896	65.02
325.109	75.26
325.322	-47.62
325.535	62.98
325.748	103.93
325.962	75.26
326.175	71.17
326.388	112.13
326.601	95.74
326.814	75.26
327.027	65.02
327.24	144.89
327.453	-49.66
327.666	11.78
327.879	54.78
328.092	79.36
328.305	46.59
328.518	-2.56
328.731	118.27
328.944	7.68
329.157	46.59
329.37	-6.66
329.583	75.26
329.796	138.75
330.009	56.83
330.222	97.79
330.435	97.79
330.648	13.82
330.861	136.7
331.073	136.7
331.286	163.33
331.499	81.41
331.712	26.11
331.925	24.06
332.138	62.98
332.35	75.26
332.563	17.92
332.776	75.26
332.989	-23.04
333.202	67.07
333.414	34.3
333.627	77.31
333.84	13.82
334.053	44.54
334.265	26.11
334.478	71.17
334.691	-12.8
334.903	71.17
335.116	48.64
335.329	67.07
335.541	17.92
335.754	28.16
335.966	38.4
336.179	67.07
336.392	19.97
336.604	65.02
336.817	83.45
337.029	73.21
337.242	77.31
337.454	17.92
337.667	15.87
337.88	19.97
338.092	83.45
338.305	79.36
338.517	19.97
338.729	15.87
338.942	34.3
339.154	-29.18
339.367	28.16
339.579	52.74
339.792	1.54
340.004	97.79
340.217	81.41
340.429	91.65
340.641	-18.94
340.854	71.17
341.066	50.69
341.278	9.73
341.491	67.07
341.703	42.5
341.915	73.21
342.128	165.37
342.34	13.82
342.552	56.83
342.764	-14.85
342.977	30.21
343.189	52.74
343.401	67.07
343.613	54.78
343.826	34.3
344.038	-16.9
344.25	28.16
344.462	99.84
344.674	58.88
344.886	-49.66
345.099	15.87
345.311	40.45
345.523	48.64
345.735	-39.42
345.947	151.04
346.159	62.98
346.371	142.85
346.583	130.56
346.795	-31.23
347.007	9.73
347.219	62.98
347.431	95.74
347.643	22.02
347.855	-2.56
348.067	69.12
348.279	9.73
348.491	105.98
348.703	114.17
348.915	97.79
349.127	30.21
349.339	93.69
349.551	50.69
349.763	105.98
349.975	46.59
350.187	26.11
350.399	81.41
350.61	99.84
350.822	58.88
351.034	77.31
351.246	95.74
351.458	69.12
351.669	138.75
351.881	42.5
352.093	105.98
352.305	26.11
352.517	151.04
352.728	54.78
352.94	-2.56
353.152	124.41
353.363	1.54
353.575	73.21
353.787	103.93
353.999	83.45
354.21	171.52
354.422	1.54
354.633	99.84
354.845	19.97
355.057	79.36
355.268	9.73
355.48	65.02
355.692	-41.47
355.903	79.36
356.115	-6.66
356.326	83.45
356.538	83.45
356.749	9.73
356.961	155.13
357.172	40.45
357.384	1.54
357.595	83.45
357.807	17.92
358.018	5.63
358.23	7.68
358.441	83.45
358.653	75.26
358.864	-18.94
359.075	69.12
359.287	32.26
359.498	99.84
359.709	85.5
359.921	-14.85
360.132	54.78
360.344	38.4
360.555	83.45
360.766	42.5
360.977	75.26
361.189	58.88
361.4	-0.51
361.611	112.13
361.823	97.79
362.034	56.83
362.245	38.4
362.456	-70.14
362.667	128.51
362.879	46.59
363.09	65.02
363.301	81.41
363.512	95.74
363.723	73.21
363.935	1.54
364.146	42.5
364.357	87.55
364.568	62.98
364.779	17.92
364.99	122.37
365.201	91.65
365.412	114.17
365.623	26.11
365.834	116.22
366.045	71.17
366.256	62.98
366.467	48.64
366.678	9.73
366.889	67.07
367.1	26.11
367.311	60.93
367.522	26.11
367.733	132.61
367.944	48.64
368.155	3.58
368.366	116.22
368.577	91.65
368.788	50.69
368.999	65.02
369.209	30.21
369.42	157.18
369.631	118.27
369.842	103.93
370.053	69.12
370.264	165.37
370.474	58.88
370.685	56.83
370.896	48.64
371.107	108.03
371.317	83.45
371.528	93.69
371.739	155.13
371.95	83.45
372.16	118.27
372.371	40.45
372.582	75.26
372.792	99.84
373.003	89.6
373.214	15.87
373.424	99.84
373.635	26.11
373.846	108.03
374.056	32.26
374.267	65.02
374.477	1.54
374.688	-6.66
374.898	-20.99
375.109	58.88
375.319	130.56
375.53	58.88
375.74	50.69
375.951	50.69
376.161	91.65
376.372	140.8
376.582	81.41
376.793	112.13
377.003	1.54
377.214	9.73
377.424	42.5
377.635	69.12
377.845	-8.7
378.055	15.87
378.266	60.93
378.476	120.32
378.686	67.07
378.897	118.27
379.107	46.59
379.317	91.65
379.528	36.35
379.738	99.84
379.948	15.87
380.158	50.69
380.369	-6.66
380.579	81.41
380.789	146.94
380.999	38.4
381.21	75.26
381.42	93.69
381.63	91.65
381.84	91.65
382.05	9.73
382.261	38.4
382.471	1.54
382.681	9.73
382.891	54.78
383.101	83.45
383.311	-10.75
383.521	-31.23
383.731	54.78
383.941	146.94
384.151	60.93
384.361	71.17
384.571	30.21
384.781	75.26
384.991	58.88
385.201	202.24
385.411	83.45
385.621	146.94
385.831	97.79
386.041	48.64
386.251	38.4
386.461	89.6
386.671	91.65
386.881	105.98
387.091	103.93
387.301	56.83
387.511	89.6
387.72	163.33
387.93	105.98
388.14	38.4
388.35	67.07
388.56	128.51
388.769	38.4
388.979	56.83
389.189	75.26
389.399	54.78
389.609	65.02
389.818	75.26
390.028	24.06
390.238	11.78
390.447	9.73
390.657	108.03
390.867	83.45
391.076	-8.7
391.286	42.5
391.496	48.64
391.705	157.18
391.915	79.36
392.125	91.65
392.334	85.5
392.544	132.61
392.753	36.35
392.963	42.5
393.172	5.63
393.382	62.98
393.591	124.41
393.801	-14.85
394.01	157.18
394.22	56.83
394.429	9.73
394.639	97.79
394.848	91.65
395.058	22.02
395.267	179.71
395.477	110.08
395.686	140.8
395.895	151.04
396.105	124.41
396.314	138.75
396.524	105.98
396.733	75.26
396.942	165.37
397.152	132.61
397.361	97.79
397.57	112.13
397.78	87.55
397.989	103.93
398.198	112.13
398.407	75.26
398.617	112.13
398.826	48.64
399.035	118.27
399.244	91.65
399.453	157.18
399.663	214.52
399.872	173.57
400.081	46.59
400.29	163.33
400.499	93.69
400.708	189.95
400.917	97.79
401.127	71.17
401.336	97.79
401.545	169.47
401.754	75.26
401.963	118.27
402.172	136.7
402.381	93.69
402.59	189.95
402.799	161.28
403.008	163.33
403.217	124.41
403.426	212.48
403.635	132.61
403.844	140.8
404.053	163.33
404.262	122.37
404.471	202.24
404.68	173.57
404.888	187.9
405.097	67.07
405.306	155.13
405.515	157.18
405.724	189.95
405.933	157.18
406.142	228.86
406.35	155.13
406.559	171.52
406.768	148.99
406.977	181.76
407.185	118.27
407.394	189.95
407.603	263.68
407.812	189.95
408.02	185.85
408.229	263.68
408.438	177.66
408.646	206.33
408.855	226.81
409.064	261.63
409.272	263.68
409.481	271.87
409.69	241.15
409.898	237.05
410.107	280.06
410.315	288.25
410.524	290.3
410.733	312.83
410.941	300.54
411.15	314.88
411.358	329.21
411.567	415.23
411.775	431.61
411.984	298.49
412.192	417.27
412.401	388.6
412.609	423.42
412.818	615.93
413.026	491
413.234	441.85
413.443	484.86
413.651	441.85
413.86	486.9
414.068	534.01
414.276	644.6
414.485	564.73
414.693	548.34
414.901	663.03
415.11	658.93
415.318	615.93
415.526	605.69
415.734	644.6
415.943	671.22
416.151	701.94
416.359	712.18
416.567	759.28
416.776	841.2
416.984	931.31
417.192	873.97
417.4	878.07
417.608	853.49
417.817	921.07
418.025	1007.09
418.233	1005.04
418.441	1046
418.649	1048.05
418.857	1025.52
419.065	1099.25
419.273	1218.03
419.481	1209.84
419.689	1193.45
419.897	1230.32
420.105	1187.31
420.313	1254.89
420.521	1394.15
420.729	1465.83
420.937	1478.12
421.145	1525.22
421.353	1660.39
421.561	1660.39
421.769	1678.82
421.977	1693.16
422.185	1689.06
422.393	1826.28
422.601	1943.01
422.809	1926.63
423.017	1934.82
423.224	2098.66
423.432	2186.72
423.64	2151.9
423.848	2258.4
424.056	2338.27
424.263	2418.14
424.471	2387.42
424.679	2508.25
424.887	2631.13
425.094	2766.29
425.302	2723.29
425.51	2874.84
425.718	2835.92
425.925	2921.94
426.133	2946.52
426.341	3263.95
426.548	3372.49
426.756	3388.88
426.964	3317.2
427.171	3577.29
427.379	3784.13
427.586	3737.03
427.794	3833.29
428.001	3982.79
428.209	4130.24
428.417	4261.31
428.624	4447.68
428.832	4472.25
429.039	4292.03
429.247	4515.26
429.454	4787.64
429.662	5035.44
429.869	4924.85
430.076	4963.76
430.284	5072.31
430.491	5391.79
430.699	5402.03
430.906	5543.34
431.114	5483.95
431.321	5852.58
431.528	5883.3
431.736	6376.86
431.943	6514.08
432.15	6284.7
432.358	6507.93
432.565	6960.53
432.772	6735.26
432.979	7038.36
433.187	7054.74
433.394	7243.15
433.601	7757.19
433.808	7878.02
434.016	7789.96
434.223	8174.98
434.43	8500.61
434.637	8396.16
434.844	8955.26
435.052	9182.58
435.259	8959.35
435.466	8942.97
435.673	8992.12
435.88	9559.41
436.087	10175.84
436.294	9991.53
436.501	9946.47
436.708	10059.11
436.915	10642.78
437.122	10794.33
437.329	10884.44
437.537	11279.7
437.743	11642.19
437.95	11359.57
438.157	12182.85
438.364	12391.75
438.571	12330.31
438.778	12399.94
438.985	13632.82
439.192	13073.72
439.399	13235.51
439.606	12881.21
439.813	13690.16
440.02	14742.82
440.227	14402.85
440.433	14198.06
440.64	15004.96
440.847	14630.18
441.054	15090.97
441.261	16000.27
441.467	15809.81
441.674	16055.56
441.881	16581.89
442.088	16323.85
442.294	16428.29
442.501	16983.29
442.708	17315.06
442.914	18099.44
443.121	18601.19
443.328	18281.71
443.534	19625.17
443.741	18826.46
443.948	18699.49
444.154	20221.13
444.361	19864.78
444.568	20188.36
444.774	20118.73
444.981	20550.85
445.187	20866.24
445.394	21638.33
445.6	21378.23
445.807	23790.74
446.013	22568.1
446.22	23282.84
446.426	24050.83
446.633	24220.81
446.839	24738.95
447.046	24042.64
447.252	25197.7
447.459	25361.53
447.665	25027.71
447.871	26512.49
448.078	27327.58
448.284	26354.8
448.491	26588.27
448.697	27708.51
448.903	28400.72
449.11	28339.28
449.316	27913.3
449.522	28535.88
449.728	29496.38
449.935	29379.65
450.141	29611.07
450.347	30100.53
450.553	28544.08
450.76	29447.23
450.966	30538.8
451.172	29903.93
451.378	30747.69
451.584	30129.2
451.791	30809.13
451.997	30682.16
452.203	31050.79
452.409	30952.49
452.615	30919.72
452.821	29660.22
453.027	29672.51
453.233	31185.96
453.44	29758.52
453.646	30149.68
453.852	30225.46
454.058	30659.63
454.264	29803.58
454.47	30694.44
454.676	29785.15
454.882	30950.44
455.088	28103.76
455.294	28259.41
455.5	29254.72
455.705	29310.02
455.911	27958.36
456.117	27503.71
456.323	27216.99
456.529	25633.91
456.735	26539.12
456.941	25863.29
457.147	25496.7
457.352	24908.93
457.558	24480.91
457.764	24599.69
457.97	24069.26
458.176	23557.27
458.381	23497.88
458.587	22103.21
458.793	22381.74
458.999	21099.71
459.204	22641.83
459.41	22041.78
459.616	20325.58
459.821	20321.48
460.027	20524.23
460.233	20092.11
460.438	18953.44
460.644	19408.09
460.85	18599.14
461.055	18074.86
461.261	18081
461.466	16909.57
461.672	16180.49
461.878	17485.05
462.083	16248.07
462.289	15942.92
462.494	15916.3
462.7	15246.62
462.905	14814.49
463.111	15369.49
463.316	15064.35
463.522	14949.66
463.727	15043.87
463.932	14902.56
464.138	14861.6
464.343	14865.69
464.549	14236.97
464.754	14943.52
464.959	14644.51
465.165	14509.35
465.37	14083.37
465.575	13557.04
465.781	14249.25
465.986	14441.76
466.191	13989.16
466.397	13452.59
466.602	12805.44
466.807	13389.11
467.012	13417.78
467.218	13299
467.423	13114.68
467.628	13206.84
467.833	13833.52
468.038	13055.29
468.244	12985.66
468.449	13047.1
468.654	12991.8
468.859	12852.54
469.064	13098.3
469.269	12326.21
469.474	12205.38
469.679	12490.05
469.885	12252.49
470.09	12322.12
470.295	12266.82
470.5	12164.42
470.705	11924.81
470.91	11642.19
471.115	11623.76
471.32	11832.65
471.525	11933
471.73	11658.57
471.935	11531.6
472.139	10960.22
472.344	11269.46
472.549	11101.53
472.754	10974.55
472.959	10970.46
473.164	10605.92
473.369	10521.95
473.574	10894.68
473.778	10601.82
473.983	10470.75
474.188	10431.84
474.393	10069.35
474.598	10157.41
474.802	9819.5
475.007	10075.49
475.212	9995.62
475.417	9663.85
475.621	9735.53
475.826	9706.86
476.031	9540.97
476.235	9256.31
476.44	9370.99
476.645	9217.4
476.849	9192.82
477.054	9012.6
477.259	8902.01
477.463	8906.1
477.668	8727.93
477.872	8879.48
478.077	8529.28
478.282	8566.14
478.486	8459.65
478.691	8183.17
478.895	8304
479.1	8306.05
479.304	8367.49
479.509	7990.66
479.713	8228.23
479.918	7914.89
480.122	7955.85
480.326	8029.57
480.531	7937.41
480.735	7896.46
480.94	7845.26
481.144	8119.68
481.348	7792.01
481.553	7980.42
481.757	7867.78
481.961	7935.37
482.166	8013.19
482.37	7697.8
482.574	7677.32
482.778	7652.75
482.983	7900.55
483.187	7718.28
483.391	7746.95
483.595	7685.51
483.8	7753.1
484.004	7695.75
484.208	7904.65
484.412	7642.51
484.616	7826.82
484.821	7908.74
485.025	7697.8
485.229	7759.24
485.433	7552.4
485.637	7816.58
485.841	7550.35
486.045	7722.38
486.249	7632.27
486.453	7587.21
486.657	7546.25
486.861	7695.75
487.065	7411.09
487.269	7529.87
487.473	7445.9
487.677	7798.15
487.881	7777.67
488.085	7583.12
488.289	7669.13
488.493	7673.23
488.697	7763.34
488.901	7775.63
489.105	7902.6
489.309	7826.82
489.512	7751.05
489.716	7857.54
489.92	7890.31
490.124	7777.67
490.328	8058.25
490.531	7841.16
490.735	7904.65
490.939	7734.67
491.143	7804.3
491.346	7726.47
491.55	7935.37
491.754	7978.37
491.958	8062.34
492.161	7849.35
492.365	8019.33
492.569	8070.53
492.772	8205.7
492.976	8222.08
493.18	8213.89
493.383	8093.06
493.587	8275.33
493.79	8394.11
493.994	8410.5
494.197	8404.35
494.401	8504.7
494.605	8648.06
494.808	8695.16
495.012	8662.4
495.215	8650.11
495.419	8934.78
495.622	8625.53
495.825	8871.29
496.029	8924.54
496.232	9117.04
496.436	9166.2
496.639	9205.11
496.843	9059.7
497.046	9354.61
497.249	9635.18
497.453	9420.14
497.656	9520.49
497.859	9592.17
498.063	9665.9
498.266	9981.29
498.469	9729.39
498.673	9983.34
498.876	10145.13
499.079	10470.75
499.282	10268
499.485	10347.87
499.689	10417.51
499.892	10780
500.095	10710.36
500.298	10997.08
500.501	10888.54
500.705	11124.05
500.908	11316.56
501.111	11312.47
501.314	11556.18
501.517	11625.81
501.72	11730.25
501.923	11816.27
502.126	11781.45
502.329	12127.56
502.532	12232.01
502.735	11992.39
502.938	12518.72
503.141	12535.1
503.344	12913.98
503.547	12883.26
503.75	12940.6
503.953	13276.47
504.156	13247.8
504.359	13274.42
504.562	13571.38
504.765	13823.28
504.968	13745.45
505.17	14105.9
505.373	14071.08
505.576	14294.31
505.779	14253.35
505.982	14578.98
506.185	14810.4
506.387	14773.53
506.59	15045.91
506.793	15154.46
506.996	15189.27
507.198	15691.02
507.401	15615.25
507.604	15965.45
507.807	15930.64
508.009	16182.54
508.212	16520.45
508.415	16696.58
508.617	16688.39
508.82	16798.98
509.022	16688.39
509.225	17239.29
509.428	17296.63
509.63	17491.19
509.833	17423.61
510.035	17759.47
510.238	17743.09
510.44	18005.23
510.643	18203.88
510.845	18703.59
511.048	18672.87
511.25	18629.86
511.453	18685.15
511.655	19272.92
511.858	19322.07
512.06	19576.02
512.262	19811.54
512.465	19729.62
512.667	19903.7
512.87	19973.33
513.072	20286.67
513.274	20389.06
513.477	20942.02
513.679	20972.74
513.881	21114.05
514.084	20989.12
514.286	21417.15
514.488	21462.2
514.69	22267.05
514.893	22418.6
515.095	22445.23
515.297	22310.06
515.499	22457.51
515.701	22752.42
515.904	23114.91
516.106	23254.17
516.308	23532.7
516.51	23809.17
516.712	23766.17
516.914	24018.07
517.116	24622.22
517.318	24413.32
517.52	24585.35
517.722	24634.5
517.925	25013.38
518.127	25404.54
518.329	25359.49
518.531	25197.7
518.733	26174.58
518.935	26109.04
519.136	26344.56
519.338	26276.98
519.54	26670.19
519.742	27102.31
519.944	27153.51
520.146	27884.63
520.348	27599.96
520.55	28095.57
520.752	28089.43
520.954	28513.36
521.155	28628.04
521.357	28718.15
521.559	28920.9
521.761	29633.6
521.963	29463.61
522.164	29488.19
522.366	29723.71
522.568	30204.98
522.77	30243.89
522.971	30594.09
523.173	30671.92
523.375	31061.03
523.576	30694.44
523.778	31220.77
523.98	31517.73
524.181	31583.26
524.383	31616.03
524.584	31802.39
524.786	32224.28
524.988	31919.13
525.189	32523.28
525.391	32904.2
525.592	33047.56
525.794	32912.39
525.995	33338.37
526.197	33305.6
526.398	33502.21
526.6	34014.2
526.801	34049.02
527.003	33833.98
527.204	34235.38
527.406	34534.39
527.607	34395.12
527.808	34716.65
528.01	34466.8
528.211	35093.48
528.412	35576.8
528.614	35154.92
528.815	35132.39
529.016	35922.91
529.218	35881.95
529.419	35779.55
529.62	35470.31
529.822	35763.17
530.023	36230.1
530.224	36043.74
530.425	35967.96
530.626	35781.6
530.828	36094.94
531.029	36484.05
531.23	36549.59
531.431	36283.35
531.632	36807.63
531.833	36834.25
532.035	36756.43
532.236	36797.39
532.437	37092.3
532.638	36699.09
532.839	37088.2
533.04	37565.38
533.241	36965.32
533.442	37841.85
533.643	37442.5
533.844	37448.64
534.045	37649.35
534.246	37481.41
534.447	37655.49
534.648	37604.29
534.849	37583.81
535.05	37538.76
535.251	37796.8
535.451	37696.45
535.652	37934.01
535.853	37690.3
536.054	37755.84
536.255	38132.67
536.456	37415.88
536.657	38319.03
536.857	37893.05
537.058	37936.06
537.259	37940.16
537.46	38190.01
537.66	37809.09
537.861	37864.38
538.062	37829.57
538.263	38446.01
538.463	37856.19
538.664	38112.19
538.865	37977.02
539.065	38333.37
539.266	37903.29
539.466	38194.11
539.667	37829.57
539.868	38497.2
540.068	38153.15
540.269	38163.39
540.469	38079.42
540.67	37931.97
540.87	37886.91
541.071	37985.21
541.271	38177.72
541.472	37673.92
541.672	37917.63
541.873	38085.56
542.073	37663.68
542.274	38325.18
542.474	38108.09
542.675	37761.98
542.875	38523.83
543.075	37866.43
543.276	37899.2
543.476	38099.9
543.676	37598.15
543.877	38241.21
544.077	38114.23
544.277	37755.84
544.478	38263.74
544.678	38269.88
544.878	38028.22
545.078	37960.64
545.279	37837.76
545.479	37811.14
545.679	38200.25
545.879	37958.59
546.079	37831.61
546.28	37960.64
546.48	37911.49
546.68	38077.37
546.88	37985.21
547.08	38144.95
547.28	38237.11
547.48	37604.29
547.68	37891.01
547.88	37358.53
548.081	37897.15
548.281	37596.1
548.481	37954.49
548.681	38130.62
548.881	38050.75
549.081	37708.74
549.28	37784.51
549.48	38071.23
549.68	37856.19
549.88	38253.5
550.08	37678.02
550.28	37755.84
550.48	37882.81
550.68	37964.73
550.88	38005.69
551.08	37522.37
551.279	37882.81
551.479	37663.68
551.679	37934.01
551.879	37675.97
552.079	37745.6
552.278	37784.51
552.478	37536.71
552.678	37794.75
552.878	37710.78
553.077	37557.19
553.277	37163.98
553.477	38040.51
553.676	37503.94
553.876	37555.14
554.076	37284.81
554.275	37034.95
554.475	37037
554.674	37426.12
554.874	37268.42
555.074	37192.65
555.273	37575.62
555.473	37462.98
555.672	37125.07
555.872	37112.78
556.071	37217.22
556.271	37182.41
556.47	37028.81
556.67	36740.05
556.869	36604.88
557.068	36905.93
557.268	36715.47
557.467	36821.97
557.667	36893.65
557.866	36651.98
558.065	36520.91
558.265	36555.73
558.464	36398.04
558.663	36559.83
558.863	36352.98
559.062	36627.41
559.261	35701.73
559.461	36283.35
559.66	35742.69
559.859	35851.23
560.058	35619.81
560.258	35953.63
560.457	35662.82
560.656	35890.14
560.855	35505.12
561.054	35718.11
561.253	35275.75
561.453	35455.97
561.652	35460.07
561.851	35382.24
562.05	35294.18
562.249	34716.65
562.448	34997.23
562.647	35025.9
562.846	34687.98
563.045	34548.72
563.244	34354.16
563.443	35146.73
563.642	34345.97
563.841	34345.97
564.04	33963
564.239	34673.65
564.438	33909.75
564.637	34102.26
564.836	34249.72
565.035	33668.09
565.234	33864.7
565.432	33797.12
565.631	33149.96
565.83	33661.95
566.029	33455.11
566.228	33209.35
566.427	33610.75
566.625	33065.99
566.824	32308.24
567.023	32840.71
567.222	32402.45
567.42	32967.69
567.619	32740.36
567.818	32572.43
568.016	32277.52
568.215	32513.04
568.414	32640.01
568.612	32107.54
568.811	31851.55
569.01	31855.64
569.208	31251.49
569.407	31915.03
569.605	31478.82
569.804	31585.31
570.002	31507.49
570.201	31364.13
570.4	30940.2
570.598	31269.92
570.797	30780.46
570.995	30884.9
571.193	30643.24
571.392	31298.59
571.59	30575.66
571.789	30583.85
571.987	30485.55
572.186	29836.34
572.384	29830.2
572.582	30129.2
572.781	30247.99
572.979	29717.56
573.177	30032.95
573.376	29819.96
573.574	29832.25
573.772	29936.7
573.971	29332.54
574.169	28935.24
574.367	29373.5
574.565	29461.57
574.763	28728.39
574.962	28664.91
575.16	28728.39
575.358	28783.69
575.556	28740.68
575.754	28691.53
575.952	28406.86
576.151	28685.39
576.349	28322.9
576.547	28294.22
576.745	28441.68
576.943	27980.89
577.141	28394.57
577.339	28140.63
577.537	28105.81
577.735	27880.53
577.933	27778.14
578.131	27782.23
578.329	27534.43
578.527	27548.76
578.725	27106.4
578.923	27511.9
579.121	27026.53
579.319	27425.89
579.516	27262.05
579.714	26920.04
579.912	26903.65
580.11	26680.42
580.308	26754.15
580.506	26561.64
580.704	26760.3
580.901	26434.67
581.099	26866.79
581.297	26233.97
581.495	26207.34
581.692	26557.55
581.89	26217.58
582.088	26373.23
582.285	26354.8
582.483	26213.49
582.681	25779.32
582.878	25662.58
583.076	25441.4
583.274	25869.43
583.471	25199.74
583.669	25318.53
583.866	25734.26
584.064	25576.57
584.262	25343.1
584.459	25134.21
584.657	25050.24
584.854	25285.76
585.052	24804.49
585.249	25267.33
585.447	24992.9
585.644	24540.3
585.841	24466.57
586.039	25062.53
586.236	24499.34
586.434	24581.26
586.631	24558.73
586.828	24464.52
587.026	24452.23
587.223	24110.22
587.42	23850.13
587.618	24315.02
587.815	24085.65
588.012	23956.63
588.21	23893.14
588.407	23962.77
588.604	23780.5
588.801	23696.53
588.999	23688.34
589.196	23669.91
589.393	23583.9
589.59	23540.89
589.787	23178.4
589.984	23241.89
590.182	22953.12
590.379	23223.45
590.576	23141.53
590.773	22979.75
590.97	22924.45
591.167	22875.3
591.364	22633.64
591.561	22836.39
591.758	22576.3
591.955	22670.5
592.152	22570.15
592.349	22553.77
592.546	22574.25
592.743	22398.12
592.94	21894.32
593.137	22265
593.334	22416.55
593.531	22281.39
593.727	22377.64
593.924	21707.96
594.121	21482.68
594.318	22109.36
594.515	21300.41
594.712	21996.72
594.908	21634.23
595.105	21386.43
595.302	21310.65
595.499	21478.58
595.696	21425.34
595.892	21269.69
596.089	21128.38
596.286	20841.67
596.482	20968.64
596.679	21247.16
596.876	21167.29
597.072	20858.05
597.269	20888.77
597.466	20663.49
597.662	20751.56
597.859	20569.29
598.055	20608.2
598.252	20370.63
598.448	20448.46
598.645	20442.31
598.841	20387.02
599.038	20430.02
599.234	20489.42
599.431	20006.09
599.627	19967.18
599.824	20223.18
600.02	19793.11
600.217	19811.54
600.413	19698.9
600.609	19819.73
600.806	19561.69
601.002	19872.98
601.198	19721.43
601.395	19580.12
601.591	19498.2
601.787	19510.49
601.984	19360.98
602.18	19342.55
602.376	19248.35
602.572	19059.93
602.769	19408.09
602.965	19270.87
603.161	19166.43
603.357	18988.25
603.553	18912.48
603.75	18666.72
603.946	18576.61
604.142	18633.96
604.338	18650.34
604.534	18463.97
604.73	18337
604.926	18253.03
605.122	18593
605.318	18484.45
605.514	18312.42
605.71	18101.48
605.906	18334.95
606.102	18337
606.298	18420.97
606.494	18128.11
606.69	18126.06
606.886	17872.11
607.082	17816.82
607.278	18076.91
607.474	17693.94
607.67	17870.06
607.866	17431.8
608.062	17845.49
608.257	17728.75
608.453	17601.78
608.649	17923.31
608.845	17413.37
609.041	17483
609.236	17599.73
609.432	17620.21
609.628	17177.85
609.824	17261.82
610.019	17364.22
610.215	17210.62
610.411	17339.64
610.606	17102.08
610.802	17063.16
610.998	17179.9
611.193	17077.5
611.389	16917.76
611.584	16971.01
611.78	16678.15
611.976	16696.58
612.171	16913.66
612.367	16753.92
612.562	16764.16
612.758	16416.01
612.953	16446.73
613.149	16569.6
613.344	16555.27
613.539	16897.28
613.735	16803.07
613.93	16700.67
614.126	16344.33
614.321	16508.16
614.517	16549.12
614.712	16387.33
614.907	16282.89
615.103	16301.32
615.298	16690.43
615.493	16602.37
615.688	16149.77
615.884	16573.7
616.079	16047.37
616.274	16358.66
616.47	16041.23
616.665	16022.8
616.86	16155.91
617.055	16016.65
617.25	15762.7
617.445	16098.57
617.641	15498.52
617.836	15990.03
618.031	15609.11
618.226	16008.46
618.421	15633.68
618.616	15760.66
618.811	15437.08
619.006	15760.66
619.201	15133.98
619.396	15547.67
619.591	15179.03
619.786	15400.21
619.981	15037.72
620.176	15027.48
620.371	14783.77
620.566	15199.51
620.761	14910.75
620.956	15185.18
621.151	14849.31
621.346	14746.91
621.541	14646.56
621.735	15031.58
621.93	14574.88
622.125	14417.19
622.32	14509.35
622.515	14374.18
622.709	14368.04
622.904	14597.41
623.099	14140.71
623.294	14208.3
623.488	14058.79
623.683	14009.64
623.878	13733.17
624.072	13776.17
624.267	13663.54
624.462	13772.08
624.656	13710.64
624.851	13579.57
625.046	13516.08
625.24	13374.77
625.435	13198.65
625.629	13251.89
625.824	13286.71
626.018	13460.79
626.213	12881.21
626.407	13077.82
626.602	12682.56
626.796	12827.96
626.991	12776.77
627.185	12819.77
627.38	12637.5
627.574	12490.05
627.768	12830.01
627.963	12559.68
628.157	12287.3
628.352	12459.33
628.546	12057.93
628.74	12270.92
628.935	12168.52
629.129	12154.18
629.323	11922.76
629.517	11824.46
629.712	11867.47
629.906	11763.02
630.1	11552.08
630.294	11605.33
630.489	11523.41
630.683	11572.56
630.877	11423.06
631.071	11273.56
631.265	11296.08
631.459	11371.86
631.653	11406.67
631.848	11046.23
632.042	11138.39
632.236	10970.46
632.43	11029.85
632.624	11242.84
632.818	11046.23
633.012	10726.75
633.206	10882.39
633.4	10927.45
633.594	10661.21
633.788	10644.83
633.982	10782.04
634.176	10773.85
634.369	10569.05
634.563	10435.94
634.757	10382.69
634.951	10231.14
635.145	10280.29
635.339	10272.1
635.533	10141.03
635.726	10001.77
635.92	9987.43
636.114	10014.06
636.308	9799.02
636.501	10026.34
636.695	9897.32
636.889	9852.27
637.083	9819.5
637.276	9852.27
637.47	9450.86
637.664	9600.37
637.857	9567.6
638.051	9614.7
638.244	9620.85
638.438	9481.58
638.632	9428.34
638.825	9336.18
639.019	9473.39
639.212	9176.44
639.406	9209.2
639.599	9313.65
639.793	9235.83
639.986	9002.36
640.18	8963.45
640.373	8922.49
640.567	8895.86
640.76	8842.62
640.954	8713.6
641.147	8732.03
641.34	8902.01
641.534	8779.13
641.727	8676.73
641.92	8451.46
642.114	8570.24
642.307	8459.65
642.5	8459.65
642.694	8168.84
642.887	8351.1
643.08	8330.62
643.273	8381.82
643.467	8289.67
643.66	8103.3
643.853	8054.15
644.046	8211.84
644.239	8052.1
644.432	8064.39
644.626	7906.7
644.819	7824.78
645.012	7937.41
645.205	7998.85
645.398	7941.51
645.591	7906.7
645.784	7742.86
645.977	7712.14
646.17	7720.33
646.363	7435.66
646.556	7550.35
646.749	7585.16
646.942	7579.02
647.135	7507.34
647.328	7497.1
647.521	7529.87
647.714	7320.98
647.907	7570.83
648.099	7075.22
648.292	7341.46
648.485	7280.02
648.678	7206.29
648.871	7132.56
649.064	7132.56
649.256	7224.72
649.449	6989.21
649.642	7013.78
649.835	6911.38
650.027	6870.42
650.22	6749.59
650.413	6899.09
650.605	6972.82
650.798	6878.62
650.991	6682.01
651.183	6882.71
651.376	6661.53
651.568	6688.15
651.761	6651.29
651.954	6669.72
652.146	6423.97
652.339	6571.42
652.531	6507.93
652.724	6462.88
652.916	6159.78
653.109	6395.29
653.301	6469.02
653.494	6473.12
653.686	6225.31
653.879	6376.86
654.071	6290.85
654.263	6278.56
654.456	6178.21
654.648	6393.25
654.84	6280.61
655.033	6129.06
655.225	6094.24
655.417	5995.94
655.61	6084
655.802	6073.76
655.994	5957.03
656.186	5948.84
656.379	5873.06
656.571	5971.36
656.763	5825.96
656.955	5856.68
657.148	5957.03
657.34	5752.23
657.532	5770.66
657.724	5715.37
657.916	5733.8
658.108	5531.05
658.3	5608.87
658.492	5612.97
658.684	5572.01
658.876	5608.87
659.068	5537.2
659.26	5475.76
659.452	5514.67
659.644	5551.53
659.836	5440.94
660.028	5479.85
660.22	5322.16
660.412	5301.68
660.604	5377.45
660.796	5330.35
660.988	5309.87
661.18	5199.28
661.372	5334.45
661.563	5273.01
661.755	5211.57
661.947	5256.62
662.139	5303.73
662.331	5156.27
662.522	5182.9
662.714	5162.42
662.906	5184.94
663.097	5252.53
663.289	5191.09
663.481	5070.26
663.673	5131.7
663.864	5139.89
664.056	5100.98
664.247	4967.86
664.439	4933.04
664.631	4976.05
664.822	4918.71
665.014	4863.41
665.205	4937.14
665.397	4824.5
665.588	4859.32
665.78	4851.13
665.971	4816.31
666.163	4951.48
666.354	4941.24
666.546	4894.13
666.737	4713.91
666.929	4892.09
667.12	4728.25
667.311	4693.43
667.503	4642.23
667.694	4693.43
667.885	4675
668.077	4726.2
668.268	4697.53
668.459	4709.82
668.651	4715.96
668.842	4724.15
669.033	4617.66
669.224	4654.52
669.416	4605.37
669.607	4705.72
669.798	4734.39
669.989	4650.43
670.18	4648.38
670.371	4679.1
670.563	4713.91
670.754	4773.3
670.945	4552.12
671.136	4666.81
671.327	4617.66
671.518	4636.09
671.709	4572.6
671.9	4683.19
672.091	4558.27
672.282	4691.38
672.473	4646.33
672.664	4701.62
672.855	4650.43
673.046	4617.66
673.237	4734.39
673.428	4629.95
673.619	4699.58
673.809	4595.13
674	4701.62
674.191	4699.58
674.382	4566.46
674.573	4726.2
674.764	4744.63
674.954	4658.62
675.145	4636.09
675.336	4654.52
675.527	4693.43
675.717	4613.56
675.908	4507.07
676.099	4638.14
676.289	4750.78
676.48	4711.86
676.671	4515.26
676.861	4668.86
677.052	4701.62
677.243	4619.71
677.433	4724.15
677.624	4853.17
677.814	4711.86
678.005	4777.4
678.195	4855.22
678.386	4793.78
678.576	4750.78
678.767	4679.1
678.957	4777.4
679.148	4994.48
679.338	4787.64
679.529	4711.86
679.719	4935.09
679.909	5053.87
680.1	4914.61
680.29	4982.2
680.481	4945.33
680.671	4951.48
680.861	4818.36
681.052	4875.7
681.242	4832.69
681.432	4908.47
681.622	4849.08
681.813	4963.76
682.003	4986.29
682.193	4926.9
682.383	4998.58
682.573	4949.43
682.764	5127.6
682.954	4890.04
683.144	4976.05
683.334	5072.31
683.524	4980.15
683.714	5186.99
683.904	5121.46
684.094	5027.25
684.284	4916.66
684.474	5121.46
684.664	4961.72
684.854	5125.55
685.044	4969.91
685.234	5035.44
685.424	5164.47
685.614	4902.33
685.804	5086.64
685.994	5031.35
686.184	5002.68
686.374	4955.57
686.564	4941.24
686.753	4943.28
686.943	4842.93
687.133	4996.53
687.323	4904.37
687.513	4818.36
687.702	5119.41
687.892	4777.4
688.082	4713.91
688.272	4828.6
688.461	4728.25
688.651	4769.21
688.841	4783.54
689.03	4736.44
689.22	4580.79
689.41	4748.73
689.599	4595.13
689.789	4580.79
689.979	4482.49
690.168	4634.04
690.358	4455.87
690.547	4648.38
690.737	4466.11
690.926	4554.17
691.116	4634.04
691.305	4492.73
691.495	4462.01
691.684	4285.89
691.874	4285.89
692.063	4234.69
692.252	4292.03
692.442	4464.06
692.631	4318.65
692.82	4210.11
693.01	4097.47
693.199	4154.82
693.388	3941.83
693.578	4019.65
693.767	4085.19
693.956	3902.92
694.146	4011.46
694.335	3968.45
694.524	3935.68
694.713	4001.22
694.902	3995.08
695.092	4021.7
695.281	3835.33
695.47	3868.1
695.659	3861.96
695.848	3814.85
696.037	3917.25
696.226	3868.1
696.415	3714.5
696.604	3790.28
696.793	3704.26
696.982	3847.62
697.171	3925.44
697.36	3755.46
697.549	3708.36
697.738	3689.93
697.927	3671.5
698.116	3665.35
698.305	3556.81
698.494	3737.03
698.683	3698.12
698.872	3687.88
699.061	3634.63
699.25	3724.74
699.438	3696.07
699.627	3636.68
699.816	3646.92
700.005	3567.05
700.193	3517.9
700.382	3630.54
700.571	3775.94
700.76	3583.43
700.948	3691.98
701.137	3636.68
701.326	3567.05
701.514	3640.78
701.703	3642.82
701.892	3536.33
702.08	3616.2
702.269	3636.68
702.457	3499.47
702.646	3544.52
702.834	3603.91
703.023	3429.84
703.212	3597.77
703.4	3677.64
703.589	3585.48
703.777	3605.96
703.965	3655.11
704.154	3630.54
704.342	3634.63
704.531	3618.25
704.719	3653.06
704.907	3667.4
705.096	3571.15
705.284	3671.5
705.472	3630.54
705.661	3702.22
705.849	3757.51
706.037	3775.94
706.226	3597.77
706.414	3802.57
706.602	3646.92
706.79	3610.06
706.979	3745.22
707.167	3765.7
707.355	3624.39
707.543	3616.2
707.731	3794.37
707.919	3833.29
708.107	3816.9
708.296	3777.99
708.484	3773.89
708.672	3849.67
708.86	3816.9
709.048	3888.58
709.236	3694.02
709.424	3894.72
709.612	3818.95
709.8	3859.91
709.988	3904.96
710.176	3974.6
710.364	3919.3
710.551	3997.12
710.739	3941.83
710.927	3833.29
711.115	3917.25
711.303	3956.16
711.491	3892.68
711.679	4023.75
711.866	4031.94
712.054	4109.76
712.242	4046.27
712.43	3970.5
712.617	3933.64
712.805	4111.81
712.993	4183.49
713.181	4105.67
713.368	4253.12
713.556	4275.65
713.744	4058.56
713.931	4261.31
714.119	4238.78
714.306	4230.59
714.494	4208.06
714.682	4351.42
714.869	4160.96
715.057	4318.65
715.244	4339.13
715.432	4373.95
715.619	4474.3
715.807	4410.81
715.994	4371.9
716.182	4351.42
716.369	4431.29
716.556	4486.59
716.744	4488.64
716.931	4588.99
717.119	4468.16
717.306	4462.01
717.493	4584.89
717.681	4584.89
717.868	4564.41
718.055	4498.88
718.242	4539.83
718.43	4734.39
718.617	4564.41
718.804	4650.43
718.991	4654.52
719.179	4617.66
719.366	4613.56
719.553	4812.21
719.74	4732.34
719.927	4785.59
720.114	4781.5
720.301	4931
720.488	4709.82
720.676	4939.19
720.863	4804.02
721.05	4928.95
721.237	5010.87
721.424	4789.69
721.611	4912.57
721.798	4967.86
721.985	5010.87
722.172	5006.77
722.358	4914.61
722.545	4982.2
722.732	4976.05
722.919	5064.11
723.106	5019.06
723.293	5031.35
723.48	5029.3
723.667	4984.24
723.853	5127.6
724.04	5236.14
724.227	5166.51
724.414	5086.64
724.6	5250.48
724.787	5174.71
724.974	5260.72
725.161	5211.57
725.347	5219.76
725.534	5373.36
725.72	5268.91
725.907	5350.83
726.094	5377.45
726.28	5412.27
726.467	5383.6
726.653	5410.22
726.84	5424.56
727.027	5615.02
727.213	5191.09
727.4	5684.65
727.586	5422.51
727.773	5488.04
727.959	5569.96
728.145	5549.48
728.332	5670.31
728.518	5588.39
728.705	5490.09
728.891	5465.52
729.077	5565.87
729.264	5416.37
729.45	5522.86
729.636	5768.62
729.823	5529
730.009	5660.07
730.195	5698.99
730.382	5791.14
730.568	5662.12
730.754	5727.66
730.94	5641.64
731.126	5760.42
731.313	5711.27
731.499	5793.19
731.685	5694.89
731.871	5801.38
732.057	5776.81
732.243	5791.14
732.429	5752.23
732.615	5797.29
732.801	5850.53
732.987	5881.25
733.173	5850.53
733.359	5764.52
733.545	5815.72
733.731	5741.99
733.917	5969.32
734.103	5969.32
734.289	5799.34
734.475	5866.92
734.661	6000.04
734.847	5887.4
735.033	5868.97
735.219	5936.55
735.404	6051.24
735.59	5940.65
735.776	5895.59
735.962	5907.88
736.148	5975.46
736.333	5957.03
736.519	5864.87
736.705	5938.6
736.89	5842.34
737.076	5997.99
737.262	5989.8
737.447	5965.22
737.633	5950.89
737.819	5961.13
738.004	5868.97
738.19	5957.03
738.375	5895.59
738.561	6020.52
738.747	5891.49
738.932	5741.99
739.118	6028.71
739.303	6030.76
739.489	5793.19
739.674	5938.6
739.859	5850.53
740.045	5725.61
740.23	6026.66
740.416	5969.32
740.601	5774.76
740.786	5772.71
740.972	5914.02
741.157	5795.24
741.342	5807.53
741.528	5823.91
741.713	5881.25
741.898	5608.87
742.084	5774.76
742.269	5799.34
742.454	5604.78
742.639	5711.27
742.824	5604.78
743.01	5627.31
743.195	5629.35
743.38	5643.69
743.565	5617.07
743.75	5537.2
743.935	5522.86
744.12	5651.88
744.305	5471.66
744.49	5432.75
744.675	5344.69
744.86	5520.81
745.045	5496.24
745.23	5551.53
745.415	5412.27
745.6	5473.71
745.785	5412.27
745.97	5424.56
746.155	5232.05
746.34	5285.3
746.525	5350.83
746.71	5318.06
746.895	5299.63
747.079	5148.08
747.264	5076.4
747.449	5131.7
747.634	5172.66
747.819	5146.03
748.003	5049.78
748.188	4922.8
748.373	4756.92
748.557	5051.83
748.742	4945.33
748.927	4801.97
749.111	4769.21
749.296	4758.97
749.481	4881.85
749.665	4771.26
749.85	4621.75
750.034	4787.64
750.219	4744.63
750.404	4744.63
750.588	4668.86
750.773	4558.27
750.957	4593.08
751.141	4490.68
751.326	4531.64
751.51	4537.79
751.695	4404.67
751.879	4439.48
752.064	4478.4
752.248	4404.67
752.432	4255.17
752.617	4249.02
752.801	4191.68
752.985	4244.93
753.17	4206.02
753.354	4269.5
753.538	4152.77
753.722	4060.61
753.907	4154.82
754.091	3978.69
754.275	4062.66
754.459	4021.7
754.643	3880.39
754.828	3988.93
755.012	3943.88
755.196	3868.1
755.38	3859.91
755.564	3683.78
755.748	3816.9
755.932	3741.13
756.116	3880.39
756.3	3745.22
756.484	3712.46
756.668	3792.33
756.852	3653.06
757.036	3679.69
757.22	3515.85
757.404	3507.66
757.588	3542.47
757.772	3493.32
757.956	3565
758.14	3603.91
758.323	3339.73
758.507	3444.17
758.691	3343.82
758.875	3333.58
759.059	3417.55
759.242	3417.55
759.426	3292.62
759.61	3263.95
759.794	3251.66
759.977	3280.33
760.161	3268.05
760.345	3122.64
760.528	3177.94
760.712	3157.46
760.895	2989.52
761.079	3147.22
761.263	2975.19
761.446	2950.61
761.63	3059.15
761.813	2989.52
761.997	2942.42
762.18	3128.78
762.364	3067.35
762.547	2966.99
762.731	2932.18
762.914	3018.19
763.098	2977.23
763.281	2858.45
763.464	2848.21
763.648	2840.02
763.831	2889.17
764.015	2956.75
764.198	2817.49
764.381	2751.96
764.564	2663.9
764.748	2678.23
764.931	2743.77
765.114	2686.42
765.297	2790.87
765.481	2672.09
765.664	2739.67
765.847	2700.76
766.03	2799.06
766.213	2702.81
766.397	2721.24
766.58	2647.51
766.763	2606.55
766.946	2631.13
767.129	2573.78
767.312	2487.77
767.495	2635.22
767.678	2569.69
767.861	2555.35
768.044	2647.51
768.227	2475.48
768.41	2532.83
768.593	2553.31
768.776	2383.32
768.959	2538.97
769.142	2491.87
769.324	2344.41
769.507	2459.1
769.69	2366.94
769.873	2416.09
770.056	2389.47
770.239	2459.1
770.421	2307.55
770.604	2360.8
770.787	2282.97
770.97	2213.34
771.152	2225.63
771.335	2235.87
771.518	2067.94
771.7	2221.53
771.883	2336.22
772.066	2209.25
772.248	2178.53
772.431	2199.01
772.613	2158.05
772.796	2205.15
772.978	2139.62
773.161	2190.81
773.343	2115.04
773.526	2100.7
773.708	2123.23
773.891	2088.42
774.073	2188.77
774.256	1897.96
774.438	2205.15
774.621	1957.35
774.803	2022.88
774.985	1940.96
775.168	2000.35
775.35	1900
775.532	1949.15
775.715	1824.23
775.897	1981.92
776.079	1920.48
776.261	1926.63
776.444	1877.48
776.626	1756.65
776.808	1897.96
776.99	1709.54
777.173	1787.36
777.355	1738.21
777.537	1809.89
777.719	1672.68
777.901	1697.25
778.083	1717.73
778.265	1646.05
778.447	1680.87
778.629	1680.87
778.811	1611.24
778.993	1672.68
779.175	1672.68
779.357	1568.23
779.539	1578.47
779.721	1598.95
779.903	1605.1
780.085	1557.99
780.267	1527.27
780.449	1525.22
780.631	1519.08
780.812	1580.52
780.994	1461.74
781.176	1490.41
781.358	1431.02
781.54	1539.56
781.721	1426.92
781.903	1383.91
782.085	1283.56
782.267	1392.11
782.448	1375.72
782.63	1404.39
782.812	1345
782.993	1336.81
783.175	1281.52
783.357	1302
783.538	1361.39
783.72	1242.61
783.901	1267.18
784.083	1291.76
784.264	1244.65
784.446	1252.84
784.627	1195.5
784.809	1287.66
784.99	1193.45
785.172	1242.61
785.353	1238.51
785.535	1154.54
785.716	1183.21
785.897	1189.36
786.079	1170.93
786.26	1156.59
786.441	1160.69
786.623	1056.24
786.804	1103.34
786.985	1062.38
787.167	1134.06
787.348	1066.48
787.529	1101.3
787.71	1113.58
787.891	1050.1
788.073	1080.82
788.254	964.08
788.435	1066.48
788.616	1115.63
788.797	1013.23
788.978	959.99
789.159	986.61
789.34	998.9
789.522	959.99
789.703	955.89
789.884	990.7
790.065	947.7
790.246	974.32
790.427	927.22
790.607	943.6
790.788	894.45
790.969	894.45
791.15	947.7
791.331	949.75
791.512	841.2
791.693	828.92
791.874	878.07
792.054	1000.94
792.235	845.3
792.416	871.92
792.597	898.55
792.778	886.26
792.958	828.92
793.139	937.46
793.32	876.02
793.5	777.72
793.681	886.26
793.862	830.96
794.042	796.15
794.223	792.05
794.404	763.38
794.584	779.76
794.765	824.82
794.945	865.78
795.126	755.19
795.306	679.41
795.487	804.34
795.667	783.86
795.848	775.67
796.028	790
796.209	673.27
796.389	722.42
796.57	763.38
796.75	759.28
796.93	689.65
797.111	792.05
797.291	650.74
797.471	716.28
797.652	732.66
797.832	720.37
798.012	779.76
798.192	665.08
798.373	640.5
798.553	632.31
798.733	716.28
798.913	677.37
799.093	687.61
799.274	675.32
799.454	613.88
799.634	708.09
799.814	615.93
799.994	730.61
800.174	706.04
800.354	605.69
800.534	624.12
800.714	642.55
800.894	677.37
801.074	603.64
801.254	636.41
801.434	638.45
801.614	597.49
801.794	583.16
801.974	1357.29
802.154	710.13
802.334	636.41
802.514	550.39
802.693	638.45
802.873	603.64
803.053	638.45
803.233	652.79
803.413	525.82
803.592	624.12
803.772	517.62
803.952	572.92
804.131	579.06
804.311	589.3
804.491	642.55
804.67	548.34
804.85	529.91
805.03	558.58
805.209	617.97
805.389	491
805.568	493.05
805.748	622.07
805.928	517.62
806.107	546.3
806.287	529.91
806.466	476.66
806.646	542.2
806.825	501.24
807.004	474.62
807.184	472.57
807.363	505.34
807.543	531.96
807.722	460.28
807.901	523.77
808.081	560.63
808.26	433.66
808.439	509.43
808.619	470.52
808.798	456.19
808.977	486.9
809.156	435.71
809.336	521.72
809.515	513.53
809.694	394.75
809.873	480.76
810.052	417.27
810.231	523.77
810.411	493.05
810.59	452.09
810.769	509.43
810.948	458.23
811.127	411.13
811.306	394.75
811.485	407.03
811.664	390.65
811.843	488.95
812.022	480.76
812.201	384.51
812.38	400.89
812.559	357.88
812.737	523.77
812.916	304.64
813.095	304.64
813.274	359.93
813.453	427.51
813.632	456.19
813.811	476.66
813.989	337.4
814.168	421.37
814.347	427.51
814.526	443.9
814.704	441.85
814.883	392.7
815.062	355.83
815.24	458.23
815.419	316.92
815.598	364.03
815.776	359.93
815.955	333.31
816.133	359.93
816.312	392.7
816.49	345.59
816.669	423.42
816.847	355.83
817.026	302.59
817.204	327.16
817.383	357.88
817.561	337.4
817.74	366.07
817.918	321.02
818.097	271.87
818.275	316.92
818.453	316.92
818.632	300.54
818.81	382.46
818.988	263.68
819.167	302.59
819.345	329.21
819.523	259.58
819.701	255.48
819.879	329.21
820.058	294.4
820.236	275.96
820.414	271.87
820.592	314.88
820.77	378.36
820.948	296.44
821.127	267.77
821.305	341.5
821.483	296.44
821.661	339.45
821.839	290.3
822.017	257.53
822.195	304.64
822.373	353.79
822.551	314.88
822.729	341.5
822.907	230.91
823.085	280.06
823.262	318.97
823.44	208.38
823.618	263.68
823.796	280.06
823.974	321.02
824.152	280.06
824.329	261.63
824.507	318.97
824.685	239.1
824.863	337.4
825.04	275.96
825.218	345.59
825.396	292.35
825.574	239.1
825.751	298.49
825.929	306.68
826.107	220.67
826.284	251.39
826.462	316.92
826.639	214.52
826.817	230.91
826.994	235
827.172	226.81
827.349	296.44
827.527	378.36
827.704	218.62
827.882	243.2
828.059	198.14
828.237	257.53
828.414	226.81
828.591	148.99
828.769	259.58
828.946	181.76
829.124	212.48
829.301	265.72
829.478	185.85
829.655	230.91
829.833	212.48
830.01	206.33
830.187	228.86
830.364	185.85
830.542	278.01
830.719	269.82
830.896	247.29
831.073	214.52
831.25	261.63
831.427	280.06
831.604	189.95
831.782	278.01
831.959	189.95
832.136	167.42
832.313	161.28
832.49	198.14
832.667	241.15
832.844	220.67
833.021	198.14
833.198	196.09
833.374	237.05
833.551	290.3
833.728	249.34
833.905	237.05
834.082	198.14
834.259	253.44
834.436	230.91
834.612	177.66
834.789	267.77
834.966	183.81
835.143	169.47
835.319	173.57
835.496	253.44
835.673	220.67
835.85	169.47
836.026	157.18
836.203	171.52
836.38	216.57
836.556	114.17
836.733	108.03
836.909	212.48
837.086	136.7
837.262	114.17
837.439	144.89
837.616	185.85
837.792	228.86
837.968	181.76
838.145	155.13
838.321	218.62
838.498	161.28
838.674	200.19
838.851	189.95
839.027	130.56
839.203	214.52
839.38	185.85
839.556	263.68
839.732	179.71
839.909	108.03
840.085	230.91
840.261	165.37
840.437	185.85
840.614	220.67
840.79	179.71
840.966	91.65
841.142	204.28
841.318	130.56
841.494	218.62
841.671	173.57
841.847	163.33
842.023	181.76
842.199	157.18
842.375	198.14
842.551	108.03
842.727	185.85
842.903	196.09
843.079	112.13
843.255	187.9
843.431	79.36
843.607	148.99
843.783	101.89
843.959	105.98
844.134	128.51
844.31	198.14
844.486	167.42
844.662	138.75
844.838	218.62
845.013	185.85
845.189	146.94
845.365	136.7
845.541	67.07
845.716	155.13
845.892	222.72
846.068	110.08
846.244	108.03
846.419	144.89
846.595	108.03
846.77	122.37
846.946	212.48
847.122	177.66
847.297	87.55
847.473	110.08
847.648	54.78
847.824	155.13
847.999	58.88
848.175	187.9
848.35	132.61
848.526	153.09
848.701	169.47
848.876	159.23
849.052	173.57
849.227	128.51
849.403	95.74
849.578	132.61
849.753	58.88
849.929	136.7
850.104	116.22
850.279	105.98
850.454	112.13
850.63	114.17
850.805	120.32
850.98	65.02
851.155	75.26
851.33	108.03
851.505	36.35
851.681	144.89
851.856	91.65
852.031	144.89
852.206	89.6
852.381	40.45
852.556	58.88
852.731	132.61
852.906	144.89
853.081	114.17
853.256	134.65
853.431	48.64
853.606	58.88
853.781	26.11
853.956	67.07
854.131	91.65
854.305	91.65
854.48	128.51
854.655	48.64
854.83	79.36
855.005	62.98
855.18	81.41
855.354	65.02
855.529	124.41
855.704	128.51
855.879	87.55
856.053	32.26
856.228	97.79
856.403	34.3
856.577	116.22
856.752	-0.51
856.926	99.84
857.101	56.83
857.276	75.26
857.45	67.07
857.625	71.17
857.799	75.26
857.974	108.03
858.148	40.45
858.323	83.45
858.497	5.63
858.672	73.21
858.846	24.06
859.02	77.31
859.195	-45.57
859.369	87.55
859.543	79.36
859.718	32.26
859.892	38.4
860.066	65.02
860.241	62.98
860.415	65.02
860.589	-2.56
860.763	79.36
860.938	38.4
861.112	122.37
861.286	50.69
861.46	73.21
861.634	58.88
861.808	99.84
861.982	26.11
862.157	60.93
862.331	65.02
862.505	101.89
862.679	79.36
862.853	52.74
863.027	-2.56
863.201	116.22
863.375	99.84
863.549	56.83
863.722	17.92
863.896	67.07
864.07	-6.66
864.244	108.03
864.418	93.69
864.592	9.73
864.766	91.65
864.939	69.12
865.113	67.07
865.287	130.56
865.461	69.12
865.634	81.41
865.808	1.54
865.982	95.74
866.156	36.35
866.329	36.35
866.503	7.68
866.676	77.31
866.85	38.4
867.024	58.88
867.197	99.84
867.371	13.82
867.544	108.03
867.718	87.55
867.891	50.69
868.065	22.02
868.238	83.45
868.412	128.51
868.585	44.54
868.759	-2.56
868.932	50.69
869.105	17.92
869.279	101.89
869.452	26.11
869.625	138.75
869.799	56.83
869.972	13.82
870.145	101.89
870.319	-8.7
870.492	42.5
870.665	73.21
870.838	-2.56
871.011	-4.61
871.185	91.65
871.358	58.88
871.531	46.59
871.704	65.02
871.877	40.45
872.05	89.6
872.223	75.26
872.396	93.69
872.569	112.13
872.742	40.45
872.915	52.74
873.088	81.41
873.261	83.45
873.434	130.56
873.607	-47.62
873.78	97.79
873.953	130.56
874.126	67.07
874.299	124.41
874.471	1.54
874.644	103.93
874.817	97.79
874.99	108.03
875.163	17.92
875.335	99.84
875.508	-47.62
875.681	116.22
875.853	-23.04
876.026	67.07
876.199	114.17
876.371	50.69
876.544	1.54
876.717	38.4
876.889	42.5
877.062	26.11
877.234	-23.04
877.407	67.07
877.579	75.26
877.752	15.87
877.924	108.03
878.097	97.79
878.269	52.74
878.442	17.92
878.614	58.88
878.786	38.4
878.959	32.26
879.131	-6.66
879.303	-4.61
879.476	95.74
879.648	67.07
879.82	116.22
879.993	32.26
880.165	54.78
880.337	19.97
880.509	58.88
880.681	-31.23
880.854	28.16
881.026	34.3
881.198	42.5
881.37	91.65
881.542	69.12
881.714	26.11
881.886	40.45
882.058	-6.66
882.23	75.26
882.402	7.68
882.574	116.22
882.746	75.26
882.918	132.61
883.09	79.36
883.262	-0.51
883.434	42.5
883.606	-64
883.778	1.54
883.95	9.73
884.122	-16.9
884.293	62.98
884.465	30.21
884.637	17.92
884.809	5.63
884.98	83.45
885.152	32.26
885.324	-76.29
885.496	50.69
885.667	124.41
885.839	-14.85
886.011	144.89
886.182	42.5
886.354	87.55
886.525	40.45
886.697	-0.51
886.869	9.73
887.04	-6.66
887.212	-27.14
887.383	95.74
887.555	67.07
887.726	83.45
887.897	40.45
888.069	3.58
888.24	58.88
888.412	56.83
888.583	67.07
888.754	34.3
888.926	5.63
889.097	1.54
889.268	-53.76
889.44	-4.61
889.611	-31.23
889.782	-31.23
889.953	9.73
890.125	73.21
890.296	-6.66
890.467	28.16
890.638	52.74
890.809	-14.85
890.98	13.82
891.151	65.02
891.323	40.45
891.494	-2.56
891.665	1.54
891.836	5.63
892.007	19.97
892.178	71.17
892.349	-31.23
892.52	13.82
892.691	22.02
892.862	42.5
893.032	-80.38
893.203	95.74
893.374	38.4
893.545	67.07
893.716	-14.85
893.887	34.3
894.057	83.45
894.228	-35.33
894.399	22.02
894.57	32.26
894.74	13.82
894.911	17.92
895.082	26.11
895.253	-10.75
895.423	108.03
895.594	99.84
895.764	22.02
895.935	-23.04
896.106	-12.8
896.276	108.03
896.447	-23.04
896.617	97.79
896.788	52.74
896.958	17.92
897.129	67.07
897.299	-41.47
897.47	81.41
897.64	38.4
897.81	58.88
897.981	26.11
898.151	-47.62
898.322	34.3
898.492	50.69
898.662	-14.85
898.832	-16.9
899.003	48.64
899.173	87.55
899.343	-27.14
899.513	-18.94
