Data from USB4F104151__63__11-30-59-659.txt Node

Date: Fri Mar 14 11:30:59 EDT 2025
User: louis
Spectrometer: USB4F10415
Trigger mode: 4
Integration Time (sec): 5.000000E-2
Scans to average: 1
Electric dark correction enabled: true
Nonlinearity correction enabled: false
Boxcar width: 0
XAxis mode: Wavelengths
Number of Pixels in Spectrum: 3648
>>>>>Begin Spectral Data<<<<<
178.204	-168.62
178.424	-168.62
178.644	-168.62
178.864	-146.09
179.084	-144.04
179.304	50.52
179.524	-37.55
179.744	-43.69
179.964	25.94
180.184	-21.16
180.404	19.8
180.624	32.08
180.844	5.46
181.064	-41.64
181.283	36.18
181.503	-41.64
181.723	15.7
181.943	-90.79
182.163	62.8
182.383	21.85
182.602	11.61
182.822	40.28
183.042	21.85
183.262	-51.88
183.482	38.23
183.701	58.71
183.921	48.47
184.141	-23.21
184.361	56.66
184.58	-41.64
184.8	-35.5
185.02	-21.16
185.239	-0.68
185.459	38.23
185.679	50.52
185.898	-115.37
186.118	42.32
186.338	-68.27
186.557	-6.83
186.777	-49.83
186.997	-35.5
187.216	-12.97
187.436	23.89
187.655	30.04
187.875	42.32
188.095	52.56
188.314	-21.16
188.534	40.28
188.753	-70.31
188.973	46.42
189.192	-27.31
189.412	-8.87
189.631	93.52
189.851	64.85
190.07	25.94
190.29	-90.79
190.509	32.08
190.729	64.85
190.948	25.94
191.168	193.87
191.387	73.04
191.607	25.94
191.826	81.24
192.045	103.76
192.265	-23.21
192.484	15.7
192.704	50.52
192.923	-19.11
193.142	126.29
193.362	73.04
193.581	15.7
193.8	19.8
194.02	64.85
194.239	-41.64
194.458	-4.78
194.678	60.76
194.897	93.52
195.116	-17.07
195.335	-17.07
195.555	71
195.774	-10.92
195.993	71
196.212	-41.64
196.432	-12.97
196.651	-29.35
196.87	-49.83
197.089	68.95
197.308	5.46
197.528	54.61
197.747	21.85
197.966	36.18
198.185	85.33
198.404	-27.31
198.623	32.08
198.842	54.61
199.062	81.24
199.281	77.14
199.5	13.65
199.719	40.28
199.938	3.41
200.157	27.99
200.376	21.85
200.595	97.62
200.814	27.99
201.033	9.56
201.252	7.51
201.471	-12.97
201.69	60.76
201.909	-33.45
202.128	9.56
202.347	124.24
202.566	23.89
202.785	-43.69
203.004	11.61
203.223	50.52
203.442	-21.16
203.661	21.85
203.879	-27.31
204.098	11.61
204.317	-60.07
204.536	52.56
204.755	-17.07
204.974	97.62
205.193	34.13
205.411	118.1
205.63	-25.26
205.849	-17.07
206.068	21.85
206.287	1.37
206.505	23.89
206.724	-17.07
206.943	42.32
207.162	-19.11
207.381	23.89
207.599	-29.35
207.818	-53.93
208.037	-43.69
208.255	15.7
208.474	-19.11
208.693	32.08
208.911	66.9
209.13	7.51
209.349	21.85
209.567	-15.02
209.786	34.13
210.005	-8.87
210.223	15.7
210.442	-51.88
210.661	23.89
210.879	60.76
211.098	25.94
211.316	5.46
211.535	114
211.753	32.08
211.972	48.47
212.191	56.66
212.409	21.85
212.628	25.94
212.846	54.61
213.065	36.18
213.283	21.85
213.502	-8.87
213.72	23.89
213.938	38.23
214.157	62.8
214.375	87.38
214.594	15.7
214.812	44.37
215.031	56.66
215.249	7.51
215.467	-6.83
215.686	-41.64
215.904	42.32
216.122	87.38
216.341	105.81
216.559	44.37
216.778	81.24
216.996	64.85
217.214	23.89
217.432	-2.73
217.651	-74.41
217.869	-45.74
218.087	40.28
218.306	36.18
218.524	46.42
218.742	-4.78
218.96	1.37
219.179	64.85
219.397	-25.26
219.615	-10.92
219.833	19.8
220.051	-41.64
220.27	-49.83
220.488	101.72
220.706	54.61
220.924	-43.69
221.142	-12.97
221.36	19.8
221.578	73.04
221.796	-60.07
222.015	58.71
222.233	-2.73
222.451	56.66
222.669	19.8
222.887	38.23
223.105	-2.73
223.323	-10.92
223.541	-51.88
223.759	79.19
223.977	13.65
224.195	77.14
224.413	50.52
224.631	73.04
224.849	34.13
225.067	66.9
225.285	-33.45
225.503	-17.07
225.721	-45.74
225.939	-58.03
226.157	75.09
226.375	77.14
226.592	-23.21
226.81	-17.07
227.028	27.99
227.246	52.56
227.464	-33.45
227.682	79.19
227.9	-49.83
228.117	91.48
228.335	30.04
228.553	60.76
228.771	-4.78
228.989	54.61
229.206	7.51
229.424	-21.16
229.642	-12.97
229.86	15.7
230.077	48.47
230.295	7.51
230.513	68.95
230.731	109.91
230.948	48.47
231.166	44.37
231.384	-12.97
231.601	42.32
231.819	50.52
232.037	-49.83
232.254	7.51
232.472	13.65
232.689	-10.92
232.907	83.28
233.125	36.18
233.342	-17.07
233.56	-17.07
233.777	7.51
233.995	15.7
234.213	9.56
234.43	-33.45
234.648	-8.87
234.865	-23.21
235.083	-17.07
235.3	-41.64
235.518	11.61
235.735	52.56
235.953	60.76
236.17	-90.79
236.388	15.7
236.605	-8.87
236.822	46.42
237.04	52.56
237.257	-21.16
237.475	34.13
237.692	44.37
237.909	7.51
238.127	48.47
238.344	-25.26
238.562	38.23
238.779	-19.11
238.996	7.51
239.214	-10.92
239.431	32.08
239.648	-41.64
239.865	-74.41
240.083	48.47
240.3	23.89
240.517	-8.87
240.735	27.99
240.952	-0.68
241.169	-25.26
241.386	27.99
241.603	7.51
241.821	-4.78
242.038	11.61
242.255	30.04
242.472	-25.26
242.689	-19.11
242.907	13.65
243.124	-29.35
243.341	-55.98
243.558	-0.68
243.775	-47.79
243.992	34.13
244.209	73.04
244.426	118.1
244.643	25.94
244.86	32.08
245.078	36.18
245.295	-49.83
245.512	13.65
245.729	36.18
245.946	9.56
246.163	36.18
246.38	13.65
246.597	-2.73
246.814	-33.45
247.031	-23.21
247.248	56.66
247.464	15.7
247.681	23.89
247.898	21.85
248.115	54.61
248.332	-19.11
248.549	30.04
248.766	52.56
248.983	-0.68
249.2	19.8
249.417	13.65
249.633	-0.68
249.85	32.08
250.067	48.47
250.284	32.08
250.501	42.32
250.717	48.47
250.934	-41.64
251.151	9.56
251.368	-33.45
251.585	-41.64
251.801	-80.55
252.018	-45.74
252.235	17.75
252.451	-109.23
252.668	30.04
252.885	79.19
253.102	30.04
253.318	95.57
253.535	-0.68
253.752	-31.4
253.968	36.18
254.185	-8.87
254.401	-68.27
254.618	-74.41
254.835	-70.31
255.051	44.37
255.268	13.65
255.484	3.41
255.701	73.04
255.917	60.76
256.134	27.99
256.351	87.38
256.567	89.43
256.784	73.04
257	-0.68
257.217	5.46
257.433	60.76
257.65	111.96
257.866	60.76
258.082	5.46
258.299	-96.94
258.515	38.23
258.732	-17.07
258.948	-2.73
259.165	23.89
259.381	-2.73
259.597	21.85
259.814	-8.87
260.03	-68.27
260.246	21.85
260.463	17.75
260.679	95.57
260.895	89.43
261.112	7.51
261.328	46.42
261.544	-58.03
261.761	105.81
261.977	13.65
262.193	27.99
262.409	87.38
262.626	73.04
262.842	15.7
263.058	9.56
263.274	44.37
263.49	5.46
263.707	32.08
263.923	38.23
264.139	15.7
264.355	46.42
264.571	34.13
264.787	48.47
265.004	23.89
265.22	19.8
265.436	32.08
265.652	-49.83
265.868	-10.92
266.084	-0.68
266.3	-70.31
266.516	-8.87
266.732	-33.45
266.948	-0.68
267.164	27.99
267.38	9.56
267.596	15.7
267.812	17.75
268.028	40.28
268.244	107.86
268.46	-31.4
268.676	-12.97
268.892	-0.68
269.108	15.7
269.324	9.56
269.54	5.46
269.756	60.76
269.972	-74.41
270.188	1.37
270.403	40.28
270.619	19.8
270.835	-15.02
271.051	19.8
271.267	34.13
271.483	32.08
271.698	-2.73
271.914	60.76
272.13	5.46
272.346	15.7
272.562	11.61
272.777	48.47
272.993	-43.69
273.209	-0.68
273.425	40.28
273.64	-25.26
273.856	-4.78
274.072	48.47
274.287	44.37
274.503	71
274.719	15.7
274.934	-25.26
275.15	27.99
275.366	-78.51
275.581	42.32
275.797	13.65
276.012	23.89
276.228	81.24
276.444	-8.87
276.659	32.08
276.875	-12.97
277.09	23.89
277.306	30.04
277.521	38.23
277.737	-23.21
277.952	66.9
278.168	32.08
278.383	50.52
278.599	32.08
278.814	71
279.03	-8.87
279.245	-8.87
279.461	-51.88
279.676	91.48
279.892	-43.69
280.107	-31.4
280.322	-49.83
280.538	23.89
280.753	1.37
280.969	7.51
281.184	-49.83
281.399	-17.07
281.615	56.66
281.83	-4.78
282.045	-51.88
282.26	-27.31
282.476	-76.46
282.691	13.65
282.906	50.52
283.122	19.8
283.337	-27.31
283.552	32.08
283.767	32.08
283.983	54.61
284.198	-29.35
284.413	-12.97
284.628	-101.03
284.843	-8.87
285.058	-19.11
285.274	27.99
285.489	-0.68
285.704	93.52
285.919	3.41
286.134	48.47
286.349	46.42
286.564	32.08
286.779	122.2
286.995	-12.97
287.21	-107.18
287.425	95.57
287.64	-8.87
287.855	42.32
288.07	-41.64
288.285	58.71
288.5	40.28
288.715	73.04
288.93	7.51
289.145	-49.83
289.36	17.75
289.575	-10.92
289.79	46.42
290.004	-62.12
290.219	50.52
290.434	-29.35
290.649	3.41
290.864	5.46
291.079	5.46
291.294	73.04
291.509	48.47
291.724	40.28
291.938	-4.78
292.153	7.51
292.368	15.7
292.583	-4.78
292.798	114
293.012	56.66
293.227	27.99
293.442	-4.78
293.657	44.37
293.871	23.89
294.086	-8.87
294.301	79.19
294.516	25.94
294.73	-27.31
294.945	-41.64
295.16	21.85
295.374	15.7
295.589	-0.68
295.804	-72.36
296.018	-2.73
296.233	5.46
296.447	-2.73
296.662	15.7
296.877	40.28
297.091	19.8
297.306	23.89
297.52	40.28
297.735	66.9
297.949	-35.5
298.164	44.37
298.378	-10.92
298.593	19.8
298.807	-35.5
299.022	-4.78
299.236	54.61
299.451	15.7
299.665	-2.73
299.88	54.61
300.094	5.46
300.309	46.42
300.523	-12.97
300.737	-17.07
300.952	44.37
301.166	-17.07
301.381	3.41
301.595	-74.41
301.809	21.85
302.024	-10.92
302.238	-17.07
302.452	32.08
302.667	-17.07
302.881	48.47
303.095	52.56
303.309	11.61
303.524	27.99
303.738	56.66
303.952	-25.26
304.166	81.24
304.381	-51.88
304.595	32.08
304.809	-21.16
305.023	101.72
305.237	19.8
305.452	32.08
305.666	66.9
305.88	54.61
306.094	73.04
306.308	21.85
306.522	-21.16
306.736	7.51
306.95	52.56
307.164	-27.31
307.379	-12.97
307.593	77.14
307.807	-6.83
308.021	11.61
308.235	30.04
308.449	-19.11
308.663	-0.68
308.877	93.52
309.091	23.89
309.305	66.9
309.519	-0.68
309.733	46.42
309.947	5.46
310.161	13.65
310.374	-17.07
310.588	-2.73
310.802	21.85
311.016	-12.97
311.23	-60.07
311.444	36.18
311.658	-37.55
311.872	97.62
312.085	38.23
312.299	40.28
312.513	71
312.727	38.23
312.941	-31.4
313.154	-25.26
313.368	64.85
313.582	23.89
313.796	-4.78
314.009	44.37
314.223	54.61
314.437	40.28
314.651	46.42
314.864	-2.73
315.078	64.85
315.292	-25.26
315.505	56.66
315.719	85.33
315.933	52.56
316.146	-45.74
316.36	-41.64
316.573	79.19
316.787	23.89
317.001	3.41
317.214	56.66
317.428	30.04
317.641	73.04
317.855	-33.45
318.068	48.47
318.282	54.61
318.495	48.47
318.709	-0.68
318.922	9.56
319.136	48.47
319.349	105.81
319.563	-4.78
319.776	-2.73
319.99	3.41
320.203	62.8
320.417	-70.31
320.63	11.61
320.843	27.99
321.057	-17.07
321.27	-70.31
321.483	-0.68
321.697	95.57
321.91	-21.16
322.124	75.09
322.337	52.56
322.55	17.75
322.763	11.61
322.977	44.37
323.19	13.65
323.403	1.37
323.617	-43.69
323.83	64.85
324.043	-0.68
324.256	36.18
324.469	-82.6
324.683	68.95
324.896	91.48
325.109	-12.97
325.322	-17.07
325.535	68.95
325.748	38.23
325.962	5.46
326.175	30.04
326.388	62.8
326.601	81.24
326.814	13.65
327.027	11.61
327.24	38.23
327.453	-78.51
327.666	21.85
327.879	-21.16
328.092	46.42
328.305	27.99
328.518	-4.78
328.731	-66.22
328.944	1.37
329.157	32.08
329.37	38.23
329.583	120.15
329.796	42.32
330.009	-23.21
330.222	48.47
330.435	62.8
330.648	56.66
330.861	-10.92
331.073	11.61
331.286	15.7
331.499	-35.5
331.712	-53.93
331.925	15.7
332.138	-10.92
332.35	17.75
332.563	60.76
332.776	11.61
332.989	-0.68
333.202	36.18
333.414	-37.55
333.627	58.71
333.84	13.65
334.053	30.04
334.265	-23.21
334.478	23.89
334.691	-15.02
334.903	68.95
335.116	-37.55
335.329	1.37
335.541	56.66
335.754	130.39
335.966	-2.73
336.179	30.04
336.392	56.66
336.604	-0.68
336.817	-8.87
337.029	-0.68
337.242	23.89
337.454	-8.87
337.667	21.85
337.88	7.51
338.092	73.04
338.305	48.47
338.517	-2.73
338.729	19.8
338.942	36.18
339.154	30.04
339.367	-25.26
339.579	-41.64
339.792	21.85
340.004	91.48
340.217	-74.41
340.429	32.08
340.641	-33.45
340.854	56.66
341.066	-78.51
341.278	91.48
341.491	71
341.703	60.76
341.915	-80.55
342.128	89.43
342.34	44.37
342.552	-27.31
342.764	-41.64
342.977	-10.92
343.189	54.61
343.401	81.24
343.613	-27.31
343.826	7.51
344.038	36.18
344.25	30.04
344.462	40.28
344.674	15.7
344.886	68.95
345.099	42.32
345.311	-29.35
345.523	-49.83
345.735	-41.64
345.947	64.85
346.159	46.42
346.371	9.56
346.583	68.95
346.795	85.33
347.007	56.66
347.219	11.61
347.431	-23.21
347.643	101.72
347.855	-15.02
348.067	77.14
348.279	40.28
348.491	5.46
348.703	23.89
348.915	68.95
349.127	38.23
349.339	81.24
349.551	-86.7
349.763	38.23
349.975	-25.26
350.187	7.51
350.399	71
350.61	34.13
350.822	60.76
351.034	60.76
351.246	64.85
351.458	83.28
351.669	7.51
351.881	101.72
352.093	107.86
352.305	13.65
352.517	-35.5
352.728	50.52
352.94	15.7
353.152	23.89
353.363	-27.31
353.575	36.18
353.787	40.28
353.999	54.61
354.21	15.7
354.422	54.61
354.633	77.14
354.845	54.61
355.057	64.85
355.268	60.76
355.48	62.8
355.692	-8.87
355.903	44.37
356.115	-86.7
356.326	-4.78
356.538	27.99
356.749	15.7
356.961	91.48
357.172	-51.88
357.384	5.46
357.595	77.14
357.807	-8.87
358.018	79.19
358.23	48.47
358.441	56.66
358.653	107.86
358.864	-41.64
359.075	81.24
359.287	64.85
359.498	105.81
359.709	32.08
359.921	64.85
360.132	64.85
360.344	56.66
360.555	-39.59
360.766	3.41
360.977	21.85
361.189	99.67
361.4	-27.31
361.611	25.94
361.823	54.61
362.034	-12.97
362.245	-29.35
362.456	11.61
362.667	40.28
362.879	-0.68
363.09	48.47
363.301	15.7
363.512	-21.16
363.723	60.76
363.935	-6.83
364.146	19.8
364.357	48.47
364.568	81.24
364.779	-25.26
364.99	-33.45
365.201	56.66
365.412	60.76
365.623	-66.22
365.834	44.37
366.045	-4.78
366.256	34.13
366.467	17.75
366.678	60.76
366.889	-19.11
367.1	27.99
367.311	7.51
367.522	60.76
367.733	77.14
367.944	95.57
368.155	60.76
368.366	107.86
368.577	19.8
368.788	73.04
368.999	17.75
369.209	-10.92
369.42	81.24
369.631	19.8
369.842	64.85
370.053	27.99
370.264	9.56
370.474	-0.68
370.685	60.76
370.896	11.61
371.107	-4.78
371.317	17.75
371.528	-12.97
371.739	23.89
371.95	79.19
372.16	56.66
372.371	-53.93
372.582	-29.35
372.792	101.72
373.003	79.19
373.214	32.08
373.424	32.08
373.635	17.75
373.846	75.09
374.056	44.37
374.267	54.61
374.477	7.51
374.688	56.66
374.898	79.19
375.109	23.89
375.319	23.89
375.53	11.61
375.74	25.94
375.951	87.38
376.161	3.41
376.372	66.9
376.582	-25.26
376.793	46.42
377.003	73.04
377.214	-17.07
377.424	-2.73
377.635	-47.79
377.845	-12.97
378.055	122.2
378.266	-29.35
378.476	46.42
378.686	77.14
378.897	42.32
379.107	85.33
379.317	52.56
379.528	3.41
379.738	-29.35
379.948	73.04
380.158	48.47
380.369	15.7
380.579	62.8
380.789	73.04
380.999	81.24
381.21	44.37
381.42	122.2
381.63	21.85
381.84	3.41
382.05	83.28
382.261	48.47
382.471	71
382.681	-8.87
382.891	122.2
383.101	-8.87
383.311	-17.07
383.521	17.75
383.731	136.53
383.941	114
384.151	62.8
384.361	103.76
384.571	-17.07
384.781	-58.03
384.991	83.28
385.201	83.28
385.411	48.47
385.621	40.28
385.831	81.24
386.041	7.51
386.251	30.04
386.461	44.37
386.671	79.19
386.881	71
387.091	73.04
387.301	23.89
387.511	-2.73
387.72	71
387.93	118.1
388.14	-41.64
388.35	44.37
388.56	32.08
388.769	81.24
388.979	27.99
389.189	5.46
389.399	30.04
389.609	42.32
389.818	75.09
390.028	83.28
390.238	42.32
390.447	48.47
390.657	79.19
390.867	7.51
391.076	13.65
391.286	1.37
391.496	56.66
391.705	15.7
391.915	142.68
392.125	27.99
392.334	60.76
392.544	81.24
392.753	-66.22
392.963	38.23
393.172	5.46
393.382	60.76
393.591	68.95
393.801	-0.68
394.01	89.43
394.22	73.04
394.429	52.56
394.639	-4.78
394.848	60.76
395.058	56.66
395.267	62.8
395.477	40.28
395.686	73.04
395.895	97.62
396.105	130.39
396.314	32.08
396.524	40.28
396.733	48.47
396.942	77.14
397.152	138.58
397.361	48.47
397.57	134.48
397.78	48.47
397.989	122.2
398.198	97.62
398.407	56.66
398.617	77.14
398.826	11.61
399.035	9.56
399.244	130.39
399.453	50.52
399.663	48.47
399.872	105.81
400.081	56.66
400.29	152.91
400.499	56.66
400.708	122.2
400.917	89.43
401.127	38.23
401.336	56.66
401.545	95.57
401.754	17.75
401.963	87.38
402.172	103.76
402.381	40.28
402.59	40.28
402.799	50.52
403.008	81.24
403.217	122.2
403.426	122.2
403.635	85.33
403.844	89.43
404.053	64.85
404.262	83.28
404.471	154.96
404.68	122.2
404.888	13.65
405.097	64.85
405.306	105.81
405.515	89.43
405.724	128.34
405.933	163.15
406.142	154.96
406.35	126.29
406.559	128.34
406.768	136.53
406.977	179.54
407.185	154.96
407.394	95.57
407.603	144.72
407.812	226.64
408.02	202.07
408.229	105.81
408.438	114
408.646	138.58
408.855	159.06
409.064	220.5
409.272	150.87
409.481	216.4
409.69	173.39
409.898	261.46
410.107	292.18
410.315	279.89
410.524	159.06
410.733	216.4
410.941	302.42
411.15	234.83
411.358	312.66
411.567	314.7
411.775	314.7
411.984	275.79
412.192	288.08
412.401	341.33
412.609	423.25
412.818	310.61
413.026	376.14
413.234	435.53
413.443	449.87
413.651	431.44
413.86	386.38
414.068	421.2
414.276	519.5
414.485	458.06
414.693	474.45
414.901	572.75
415.11	466.25
415.318	519.5
415.526	433.49
415.734	568.65
415.943	601.42
416.151	666.96
416.359	539.98
416.567	656.72
416.776	677.19
416.984	722.25
417.192	709.96
417.4	652.62
417.608	709.96
417.817	748.87
418.025	810.31
418.233	908.62
418.441	896.33
418.649	896.33
418.857	974.15
419.065	996.68
419.273	943.43
419.481	922.95
419.689	1148.23
419.897	1168.71
420.105	1172.8
420.313	1203.52
420.521	1312.07
420.729	1267.01
420.937	1217.86
421.145	1260.87
421.353	1404.22
421.561	1391.94
421.769	1490.24
421.977	1639.74
422.185	1633.6
422.393	1674.56
422.601	1764.67
422.809	1701.18
423.017	1725.75
423.224	1813.82
423.432	1963.32
423.64	1842.49
423.848	2086.2
424.056	1959.22
424.263	2243.89
424.471	2178.36
424.679	2254.13
424.887	2233.65
425.094	2415.92
425.302	2346.29
425.51	2434.35
425.718	2497.84
425.925	2637.1
426.133	2759.98
426.341	2872.62
426.548	2979.11
426.756	3005.74
426.964	2891.05
427.171	3192.1
427.379	3145
427.586	3259.68
427.794	3427.62
428.001	3530.02
428.209	3779.87
428.417	3710.24
428.624	4183.32
428.832	3931.42
429.039	3982.62
429.247	3992.86
429.454	4369.68
429.662	4586.77
429.869	4246.8
430.076	4637.97
430.284	4420.88
430.491	4656.4
430.699	5072.14
430.906	4941.07
431.114	4975.88
431.321	5113.1
431.528	5338.37
431.736	5596.42
431.943	5897.47
432.15	5664
432.358	5659.9
432.565	6155.51
432.772	6249.72
432.979	6511.86
433.187	6380.79
433.394	6448.37
433.601	6884.59
433.808	6972.65
434.016	6888.68
434.223	7240.93
434.43	7716.06
434.637	7519.46
434.844	8010.97
435.052	8023.26
435.259	8002.78
435.466	8262.87
435.673	8250.58
435.88	8658.13
436.087	9059.53
436.294	8994
436.501	8920.27
436.708	9071.82
436.915	9428.17
437.122	9706.69
437.329	9575.62
437.537	10085.56
437.743	10380.47
437.95	10314.94
438.157	10775.73
438.364	11011.25
438.571	10962.09
438.778	11044.01
438.985	12197.02
439.192	11580.58
439.399	11910.3
439.606	11738.27
439.813	12547.22
440.02	13153.42
440.227	12993.68
440.433	12776.59
440.64	13227.15
440.847	13163.66
441.054	13483.14
441.261	14382.2
441.467	14267.52
441.674	14369.91
441.881	15058.03
442.088	14910.58
442.294	14804.08
442.501	15357.03
442.708	15469.67
442.914	16133.22
443.121	16716.89
443.328	16229.47
443.534	17534.03
443.741	17042.51
443.948	16757.85
444.154	17949.76
444.361	17937.48
444.568	17925.19
444.774	18132.03
444.981	18367.55
445.187	18594.87
445.394	19620.91
445.6	19225.65
445.807	21210.13
446.013	20286.5
446.22	20585.5
446.426	21373.97
446.633	21748.75
446.839	22502.4
447.046	21531.66
447.252	22371.33
447.459	22717.43
447.665	22592.51
447.871	23553.01
448.078	24681.44
448.284	23636.97
448.491	24097.77
448.697	25002.97
448.903	25115.61
449.11	25246.68
449.316	25121.75
449.522	25619.41
449.728	25793.48
449.935	26164.17
450.141	26268.61
450.347	26901.43
450.553	25994.18
450.76	26119.11
450.966	27149.24
451.172	26764.22
451.378	27739.05
451.584	26837.95
451.791	28003.24
451.997	27444.15
452.203	28263.33
452.409	28261.29
452.615	27843.5
452.821	26807.23
453.027	26375.11
453.233	28162.98
453.44	26842.04
453.646	27085.75
453.852	27304.88
454.058	27583.41
454.264	26534.85
454.47	27290.55
454.676	26321.86
454.882	27427.76
455.088	25177.05
455.294	25605.07
455.5	26053.58
455.705	25852.87
455.911	24622.05
456.117	24196.07
456.323	24280.03
456.529	22725.63
456.735	23862.25
456.941	23325.68
457.147	22760.44
457.352	22023.17
457.558	21771.27
457.764	22088.71
457.97	21380.11
458.176	20847.64
458.381	21019.67
458.587	19979.3
458.793	19850.28
458.999	18975.8
459.204	20216.86
459.41	19952.68
459.616	18396.22
459.821	18203.71
460.027	18127.94
460.233	17919.04
460.438	17085.52
460.644	17226.83
460.85	16542.81
461.055	16338.01
461.261	16229.47
461.466	15041.65
461.672	14503.03
461.878	15484.01
462.083	14546.04
462.289	14169.21
462.494	14007.42
462.7	13477
462.905	13034.64
463.111	13771.91
463.316	13821.06
463.522	13319.31
463.727	13208.72
463.932	13395.08
464.138	13190.28
464.343	13284.49
464.549	12897.42
464.754	13415.56
464.959	13098.13
465.165	12924.05
465.37	12512.41
465.575	12139.68
465.781	12702.87
465.986	12526.74
466.191	12297.37
466.397	12192.92
466.602	11457.7
466.807	11986.08
467.012	12014.75
467.218	11842.72
467.423	11734.18
467.628	11736.23
467.833	12242.07
468.038	11779.23
468.244	11445.41
468.449	11922.59
468.654	11639.97
468.859	11357.35
469.064	11371.69
469.269	11005.1
469.474	11048.11
469.679	11154.6
469.885	10849.46
470.09	11125.93
470.295	10904.75
470.5	10587.32
470.705	10998.96
470.91	10624.18
471.115	10525.88
471.32	10564.79
471.525	10575.03
471.73	10474.68
471.935	10058.94
472.139	9798.85
472.344	10106.04
472.549	9843.9
472.754	9948.35
472.959	9667.78
473.164	9338.05
473.369	9288.9
473.574	9526.47
473.778	9626.82
473.983	9524.42
474.188	9485.51
474.393	9045.2
474.598	8860.88
474.802	8867.02
475.007	8787.15
475.212	9034.96
475.417	8606.93
475.621	8723.66
475.826	8432.85
476.031	8355.03
476.235	8213.72
476.44	8533.2
476.645	8226.01
476.849	8185.05
477.054	7994.59
477.259	8084.7
477.463	8096.99
477.668	7986.4
477.872	7972.06
478.077	7820.51
478.282	7566.56
478.486	7556.32
478.691	7548.13
478.895	7404.77
479.1	7351.53
479.304	7560.42
479.509	7183.59
479.713	7253.22
479.918	7142.63
480.122	7068.91
480.326	7087.34
480.531	7187.69
480.735	7128.3
480.94	6886.64
481.144	7218.41
481.348	7040.23
481.553	6999.27
481.757	6771.95
481.961	7038.19
482.166	6980.84
482.37	7060.71
482.574	7013.61
482.778	6872.3
482.983	6960.36
483.187	6898.92
483.391	7122.15
483.595	6868.2
483.8	6806.77
484.004	6978.79
484.208	6982.89
484.412	6894.83
484.616	6794.48
484.821	6675.7
485.025	6796.53
485.229	6778.09
485.433	6743.28
485.637	6862.06
485.841	6970.6
486.045	6771.95
486.249	6802.67
486.453	7034.09
486.657	6993.13
486.861	6937.84
487.065	6675.7
487.269	6747.37
487.473	6685.94
487.677	6935.79
487.881	6995.18
488.085	6874.35
488.289	6837.48
488.493	6681.84
488.697	6819.05
488.901	7034.09
489.105	6821.1
489.309	6872.3
489.512	6954.22
489.716	7046.38
489.92	6819.05
490.124	6860.01
490.328	7128.3
490.531	6921.45
490.735	6876.4
490.939	6962.41
491.143	7120.1
491.346	6941.93
491.55	7154.92
491.754	7206.12
491.958	7126.25
492.161	7091.43
492.365	7208.17
492.569	7062.76
492.772	7316.71
492.976	7238.89
493.18	7380.2
493.383	7437.54
493.587	7507.17
493.79	7525.6
493.994	7521.51
494.197	7437.54
494.401	7558.37
494.605	7544.03
494.808	7746.78
495.012	7732.45
495.215	7685.34
495.419	7994.59
495.622	7816.41
495.825	8025.31
496.029	8164.57
496.232	8203.48
496.436	8154.33
496.639	8041.69
496.843	8203.48
497.046	8338.65
497.249	8547.54
497.453	8451.28
497.656	8563.92
497.859	8621.27
498.063	8639.7
498.266	8846.54
498.469	8965.32
498.673	8977.61
498.876	9014.48
499.079	9280.71
499.282	9342.15
499.485	9540.8
499.689	9522.37
499.892	9823.42
500.095	9635.01
500.298	9929.92
500.501	9755.84
500.705	9882.81
500.908	10042.56
501.111	10243.26
501.314	10468.53
501.517	10392.76
501.72	10548.4
501.923	10566.84
502.126	10788.02
502.329	10835.12
502.532	11306.15
502.735	11107.5
502.938	11381.93
503.141	11613.35
503.344	11596.96
503.547	11590.82
503.75	11670.69
503.953	11771.04
504.156	11922.59
504.359	11957.41
504.562	12213.4
504.765	12350.62
504.968	12643.48
505.17	12786.83
505.373	12803.22
505.576	12907.66
505.779	13149.32
505.982	12940.43
506.185	13323.4
506.387	13458.57
506.59	13730.95
506.793	13636.74
506.996	14015.62
507.198	14191.74
507.401	14046.33
507.604	14075.01
507.807	14601.33
508.009	14707.83
508.212	14543.99
508.415	14972.02
508.617	15027.31
508.82	15078.51
509.022	15162.48
509.225	15422.57
509.428	15625.32
509.63	15748.2
509.833	15862.88
510.035	16526.43
510.238	15961.19
510.44	16407.64
510.643	16649.3
510.845	16743.51
511.048	16864.34
511.25	17062.99
511.453	17159.25
511.655	17695.82
511.858	17531.98
512.06	17652.81
512.262	17720.39
512.465	17878.08
512.667	18259.01
512.87	18381.88
513.072	18422.84
513.274	18998.32
513.477	18951.22
513.679	19307.57
513.881	19350.57
514.084	19635.24
514.286	19522.6
514.488	19608.62
514.69	20390.94
514.893	20323.36
515.095	20184.1
515.297	20685.85
515.499	20608.03
515.701	21064.72
515.904	21013.52
516.106	21433.36
516.308	21521.42
516.51	22029.32
516.712	22031.37
516.914	22049.8
517.116	22707.19
517.318	22701.05
517.52	22692.86
517.722	23022.58
517.925	22985.72
518.127	23712.75
518.329	23819.24
518.531	23655.4
518.733	24478.69
518.935	24415.2
519.136	24427.49
519.338	25119.7
519.54	25002.97
519.742	25193.43
519.944	25347.03
520.146	26119.11
520.348	25961.42
520.55	26405.83
520.752	26584
520.954	26921.91
521.155	26504.13
521.357	27055.03
521.559	27569.07
521.761	27739.05
521.963	28103.59
522.164	27786.16
522.366	28081.06
522.568	28533.67
522.77	28769.18
522.971	29377.43
523.173	29123.48
523.375	29369.24
523.576	29131.67
523.778	29404.05
523.98	30196.62
524.181	30462.85
524.383	30382.98
524.584	30856.06
524.786	30905.21
524.988	30974.84
525.189	31347.58
525.391	31562.61
525.592	31859.57
525.794	31867.76
525.995	32004.97
526.197	32269.16
526.398	32295.78
526.6	32686.95
526.801	32924.51
527.003	33149.79
527.204	33350.49
527.406	33456.98
527.607	33499.99
527.808	33764.18
528.01	33399.64
528.211	33897.3
528.412	34511.69
528.614	34691.91
528.815	34636.61
529.016	35048.25
529.218	34751.3
529.419	34900.8
529.62	35308.35
529.822	34943.81
530.023	35406.65
530.224	35298.11
530.425	35648.31
530.626	35496.76
530.828	35726.13
531.029	36481.83
531.23	35834.67
531.431	36139.82
531.632	35992.37
531.833	36367.15
532.035	36334.38
532.236	36465.45
532.437	36813.6
532.638	36311.85
532.839	36449.07
533.04	37061.41
533.241	36655.91
533.442	37339.93
533.643	36862.75
533.844	37274.4
534.045	37190.43
534.246	36881.19
534.447	37432.09
534.648	37190.43
534.849	37587.74
535.05	37409.56
535.251	37489.43
535.451	37387.03
535.652	37794.58
535.853	37661.46
536.054	37516.06
536.255	37757.72
536.456	37335.84
536.657	38134.54
536.857	37770
537.058	37544.73
537.259	37784.34
537.46	37659.41
537.66	37720.85
537.861	37696.28
538.062	37618.46
538.263	38167.31
538.463	37690.13
538.664	37829.4
538.865	37798.68
539.065	38425.35
539.266	37774.1
539.466	38009.62
539.667	37735.19
539.868	38140.69
540.068	38021.91
540.269	37745.43
540.469	38368.01
540.67	37733.14
540.87	37770
541.071	37882.64
541.271	38570.76
541.472	37964.56
541.672	38269.71
541.873	37739.29
542.073	37262.11
542.274	38093.58
542.474	38148.88
542.675	37767.96
542.875	38013.71
543.075	38279.95
543.276	37640.98
543.476	38173.45
543.676	37767.96
543.877	38480.65
544.077	38191.89
544.277	38136.59
544.478	37901.07
544.678	37896.98
544.878	37872.4
545.078	37810.96
545.279	37346.08
545.479	37962.51
545.679	37651.22
545.879	38009.62
546.079	37536.54
546.28	37686.04
546.48	37602.07
546.68	37966.61
546.88	37896.98
547.08	37751.57
547.28	37745.43
547.48	37536.54
547.68	38087.44
547.88	37753.62
548.081	37626.65
548.281	37952.27
548.481	38064.91
548.681	37921.55
548.881	37530.39
549.081	37583.64
549.28	37745.43
549.48	38019.86
549.68	37647.13
549.88	38548.23
550.08	37565.21
550.28	37978.9
550.48	37770
550.68	38101.78
550.88	38062.86
551.08	37548.82
551.279	37604.12
551.479	37696.28
551.679	37927.7
551.879	37923.6
552.079	37813.01
552.278	37671.7
552.478	37753.62
552.678	37536.54
552.878	37790.48
553.077	37774.1
553.277	37397.27
553.477	38165.26
553.676	37434.14
553.876	37815.06
554.076	37014.3
554.275	37221.15
554.475	37157.66
554.674	37454.62
554.874	37696.28
555.074	37219.1
555.273	37372.7
555.473	37368.6
555.672	37188.38
555.872	37305.12
556.071	37137.18
556.271	37108.51
556.47	36719.4
556.67	36754.21
556.869	36645.67
557.068	36731.68
557.268	36283.18
557.467	36748.07
557.667	36358.95
557.866	36676.39
558.065	36303.66
558.265	36002.61
558.464	36174.64
558.663	36725.54
558.863	35666.74
559.062	36098.86
559.261	35887.92
559.461	36227.88
559.66	36055.86
559.859	35963.7
560.058	35603.25
560.258	35390.27
560.457	35097.41
560.656	35676.98
560.855	34857.79
561.054	35310.39
561.253	34865.99
561.453	35066.69
561.652	35068.73
561.851	35121.98
562.05	34878.27
562.249	34364.23
562.448	34960.19
562.647	34521.93
562.846	34386.76
563.045	34497.35
563.244	34048.85
563.443	34558.79
563.642	34018.13
563.841	34155.34
564.04	33624.92
564.239	34087.76
564.438	33434.46
564.637	33524.57
564.836	33409.88
565.035	33493.85
565.234	33196.89
565.432	32797.54
565.631	33160.03
565.83	32856.93
566.029	32678.75
566.228	32467.81
566.427	32562.02
566.625	32510.82
566.824	32172.91
567.023	32529.25
567.222	31988.59
567.42	32287.59
567.619	31992.69
567.818	31695.73
568.016	31622
568.215	32074.6
568.414	31083.39
568.612	31777.65
568.811	31054.72
569.01	30929.79
569.208	30581.63
569.407	31148.92
569.605	30311.3
569.804	30800.77
570.002	30466.95
570.201	30471.04
570.4	30049.16
570.598	30135.18
570.797	29799.31
570.995	30112.65
571.193	29827.98
571.392	29819.79
571.59	29295.51
571.789	29754.26
571.987	29561.75
572.186	29363.09
572.384	28771.23
572.582	29088.67
572.781	29125.53
572.979	28316.58
573.177	28570.53
573.376	28844.96
573.574	28404.64
573.772	28523.43
573.971	28322.73
574.169	28105.64
574.367	27812.78
574.565	28353.44
574.763	27579.31
574.962	27902.89
575.16	27696.05
575.358	27548.59
575.556	27521.97
575.754	27763.63
575.952	27122.62
576.151	27431.86
576.349	26956.73
576.547	26749.89
576.745	27022.26
576.943	26768.32
577.141	26911.67
577.339	26446.79
577.537	26278.85
577.735	26530.75
577.933	26166.21
578.131	26094.54
578.329	26123.21
578.527	26014.66
578.725	25873.35
578.923	26149.83
579.121	25543.63
579.319	25504.72
579.516	25838.54
579.714	25682.89
579.912	25557.97
580.11	25437.14
580.308	25469.9
580.506	25226.2
580.704	24822.75
580.901	25275.35
581.099	25357.27
581.297	24703.96
581.495	24921.05
581.692	24673.24
581.89	24421.34
582.088	24738.78
582.285	24050.66
582.483	24802.27
582.681	24574.94
582.878	24306.66
583.076	24083.43
583.274	24337.38
583.471	23667.69
583.669	23966.7
583.866	23991.27
584.064	24183.78
584.262	23880.68
584.459	24003.56
584.657	23682.03
584.854	23757.8
585.052	23378.93
585.249	23499.76
585.447	23364.59
585.644	22991.86
585.841	23301.11
586.039	23208.95
586.236	22877.18
586.434	22830.07
586.631	22711.29
586.828	22950.9
587.026	22883.32
587.223	22782.97
587.42	22500.35
587.618	22508.54
587.815	22088.71
588.012	22313.98
588.21	22027.27
588.407	22748.15
588.604	22129.67
588.801	21953.54
588.999	22125.57
589.196	21941.25
589.393	21806.09
589.59	21785.61
589.787	21521.42
589.984	21779.47
590.182	21625.87
590.379	21574.67
590.576	21654.54
590.773	21111.83
590.97	21341.2
591.167	21416.97
591.364	20960.28
591.561	21117.97
591.758	20925.46
591.955	20868.12
592.152	21107.73
592.349	20995.09
592.546	20935.7
592.743	20861.97
592.94	20292.64
593.137	20528.16
593.334	20450.33
593.531	20225.06
593.727	20454.43
593.924	20339.74
594.121	19954.72
594.318	20118.56
594.515	19979.3
594.712	20069.41
594.908	19848.23
595.105	20165.67
595.302	19770.41
595.499	20063.27
595.696	19528.75
595.892	19602.47
596.089	19575.85
596.286	19727.4
596.482	19203.12
596.679	19438.64
596.876	19369.01
597.072	19485.74
597.269	18940.98
597.466	19014.71
597.662	19147.83
597.859	19096.63
598.055	19387.44
598.252	18811.96
598.448	18756.66
598.645	18838.58
598.841	18670.65
599.038	18650.17
599.234	18822.2
599.431	18588.73
599.627	18478.14
599.824	18660.41
600.02	18412.6
600.217	18379.84
600.413	18394.17
600.609	18306.11
600.806	18148.42
601.002	18256.96
601.198	17996.87
601.395	18003.01
601.591	18117.7
601.787	18029.63
601.984	17984.58
602.18	18125.89
602.376	17695.82
602.572	17667.14
602.769	17763.4
602.965	17644.62
603.161	17556.55
603.357	17192.01
603.553	17486.92
603.75	17689.67
603.946	17394.76
604.142	17364.04
604.338	16903.25
604.534	17226.83
604.73	17224.78
604.926	16991.31
605.122	16923.73
605.318	16854.1
605.514	16690.26
605.71	16794.71
605.906	16612.44
606.102	16637.02
606.298	16757.85
606.494	16510.04
606.69	16512.09
606.886	16518.23
607.082	16458.84
607.278	16532.57
607.474	16362.59
607.67	16225.37
607.866	16286.81
608.062	16366.68
608.257	16421.98
608.453	16235.61
608.649	16057.44
608.845	16008.29
609.041	15998.05
609.236	16118.88
609.432	15858.79
609.628	15834.21
609.824	15961.19
610.019	15651.94
610.215	15635.56
610.411	15989.86
610.606	15952.99
610.802	15623.27
610.998	15445.1
611.193	15582.31
611.389	15584.36
611.584	15441
611.78	15207.53
611.976	15367.27
612.171	15619.17
612.367	15359.08
612.562	15117.42
612.758	15035.5
612.953	14974.06
613.149	15494.25
613.344	15105.13
613.539	15015.02
613.735	15080.56
613.93	15105.13
614.126	14904.43
614.321	15197.29
614.517	14980.21
614.712	14910.58
614.907	14974.06
615.103	15113.33
615.298	14838.9
615.493	14933.11
615.688	14421.11
615.884	14777.46
616.079	14744.69
616.274	14902.39
616.47	14451.83
616.665	14445.69
616.86	14249.08
617.055	14584.95
617.25	14300.28
617.445	14498.94
617.641	14036.1
617.836	14486.65
618.031	14177.4
618.226	14376.06
618.421	14247.04
618.616	14130.3
618.811	13925.5
619.006	14310.52
619.201	14083.2
619.396	13978.75
619.591	13675.65
619.786	13945.98
619.981	13538.44
620.176	14058.62
620.371	13501.58
620.566	13577.35
620.761	13517.96
620.956	13350.03
621.151	13198.48
621.346	13489.29
621.541	13210.76
621.735	13372.55
621.93	13442.18
622.125	13204.62
622.32	12770.45
622.515	13032.59
622.709	12915.86
622.904	12856.47
623.099	12629.14
623.294	12960.91
623.488	12735.63
623.683	12434.58
623.878	12487.83
624.072	12631.19
624.267	12539.03
624.462	12264.6
624.656	12147.87
624.851	12166.3
625.046	11900.06
625.24	11893.92
625.435	11793.57
625.629	12108.96
625.824	11883.68
626.018	11850.91
626.213	11535.53
626.407	11656.36
626.602	11676.84
626.796	11627.68
626.991	11447.46
627.185	11541.67
627.38	11490.47
627.574	11336.87
627.768	11017.39
627.963	11244.71
628.157	11087.02
628.352	11080.88
628.546	10792.11
628.74	11019.44
628.935	10763.44
629.129	10753.2
629.323	10814.64
629.517	10615.99
629.712	10863.79
629.906	10499.25
630.1	10425.53
630.294	10398.9
630.489	10386.61
630.683	10468.53
630.877	10316.98
631.071	10132.67
631.265	10187.96
631.459	10341.56
631.653	10110.14
631.848	10104
632.042	10007.74
632.236	9915.58
632.43	9839.81
632.624	9815.23
632.818	9696.45
633.012	9694.4
633.206	9780.42
633.4	9786.56
633.594	9684.16
633.788	9600.19
633.982	9678.02
634.176	9499.84
634.369	9235.66
634.563	9352.39
634.757	9166.03
634.951	9411.78
635.145	9239.75
635.339	9278.66
635.533	9159.88
635.726	9157.83
635.92	9104.59
636.114	8840.4
636.308	8979.66
636.501	8811.73
636.695	8697.04
636.889	8760.53
637.083	8756.43
637.276	8680.66
637.47	8500.44
637.664	8541.39
637.857	8527.06
638.051	8436.95
638.244	8572.11
638.438	8369.37
638.632	8520.92
638.825	8258.78
639.019	8250.58
639.212	8363.22
639.406	8271.06
639.599	8096.99
639.793	8283.35
639.986	8066.27
640.18	8090.84
640.373	8043.74
640.567	7988.44
640.76	7871.71
640.954	7642.34
641.147	7732.45
641.34	7748.83
641.534	7703.78
641.727	7646.43
641.92	7728.35
642.114	7552.23
642.307	7566.56
642.5	7574.75
642.694	7261.41
642.887	7402.72
643.08	7462.12
643.273	7199.98
643.467	7185.64
643.66	7199.98
643.853	7210.22
644.046	7249.13
644.239	7183.59
644.432	7171.3
644.626	7118.06
644.819	7126.25
645.012	7116.01
645.205	6894.83
645.398	7089.39
645.591	7101.67
645.784	6753.52
645.977	6724.85
646.17	6769.9
646.363	6544.63
646.556	6737.13
646.749	6712.56
646.942	6591.73
647.135	6634.74
647.328	6642.93
647.521	6614.26
647.714	6384.88
647.907	6448.37
648.099	6438.13
648.292	6493.43
648.485	6515.95
648.678	6405.36
648.871	6270.2
649.064	6362.36
649.256	6282.49
649.449	6139.13
649.642	6266.1
649.835	6008.06
650.027	6296.82
650.22	6026.49
650.413	6034.68
650.605	6167.8
650.798	6094.07
650.991	6051.06
651.183	5942.52
651.376	5926.14
651.568	6038.78
651.761	5823.74
651.954	5993.72
652.146	5981.43
652.339	5823.74
652.531	5801.21
652.724	5696.77
652.916	5639.42
653.109	5573.89
653.301	5821.69
653.494	5641.47
653.686	5471.49
653.879	5713.15
654.071	5643.52
654.263	5577.98
654.456	5541.12
654.648	5403.91
654.84	5465.35
655.033	5362.95
655.225	5545.22
655.417	5381.38
655.61	5422.34
655.802	5340.42
655.994	5332.23
656.186	5463.3
656.379	5135.62
656.571	5209.35
656.763	5086.47
656.955	5131.53
657.148	5160.2
657.34	5100.81
657.532	5000.46
657.724	4891.91
657.916	5113.1
658.108	5016.84
658.3	4973.83
658.492	5121.29
658.684	4930.83
658.876	4975.88
659.068	4879.63
659.26	4932.87
659.452	4955.4
659.644	4816.14
659.836	4846.86
660.028	4855.05
660.22	4838.67
660.412	4777.23
660.604	4795.66
660.796	4783.37
660.988	4863.24
661.18	4613.39
661.372	4711.69
661.563	4713.74
661.755	4484.37
661.947	4570.38
662.139	4578.58
662.331	4719.89
662.522	4535.57
662.714	4549.9
662.906	4564.24
663.097	4562.19
663.289	4496.66
663.481	4447.51
663.673	4510.99
663.864	4429.07
664.056	4429.07
664.247	4551.95
664.439	4332.82
664.631	4513.04
664.822	4443.41
665.014	4476.18
665.205	4453.65
665.397	4345.11
665.588	4439.31
665.78	4361.49
665.971	4275.48
666.163	4347.15
666.354	4371.73
666.546	4300.05
666.737	4424.98
666.929	4355.35
667.12	4275.48
667.311	4240.66
667.503	4289.81
667.694	4324.63
667.885	4316.44
668.077	4166.93
668.268	4275.48
668.459	4150.55
668.651	4257.04
668.842	4250.9
669.033	4111.64
669.224	4091.16
669.416	4343.06
669.607	4246.8
669.798	4224.28
669.989	4218.13
670.18	4216.09
670.371	4277.52
670.563	4181.27
670.754	4234.52
670.945	4193.56
671.136	4269.33
671.327	4181.27
671.518	4209.94
671.709	4275.48
671.9	4248.85
672.091	4101.4
672.282	4128.02
672.473	4201.75
672.664	4271.38
672.855	4144.41
673.046	4232.47
673.237	4214.04
673.428	4142.36
673.619	4193.56
673.809	4351.25
674	4248.85
674.191	4226.32
674.382	4152.6
674.573	4074.78
674.764	4207.89
674.954	4173.08
675.145	4189.46
675.336	4234.52
675.527	4334.87
675.717	4226.32
675.908	4332.82
676.099	4312.34
676.289	4298
676.48	4283.67
676.671	4205.85
676.861	4365.59
677.052	4273.43
677.243	4371.73
677.433	4242.71
677.624	4390.16
677.814	4283.67
678.005	4433.17
678.195	4357.39
678.386	4521.23
678.576	4314.39
678.767	4504.85
678.957	4422.93
679.148	4510.99
679.338	4439.31
679.529	4459.79
679.719	4541.71
679.909	4611.34
680.1	4375.83
680.29	4504.85
680.481	4420.88
680.671	4560.14
680.861	4695.31
681.052	4599.06
681.242	4590.86
681.432	4586.77
681.622	4640.01
681.813	4709.65
682.003	4840.72
682.193	4814.09
682.383	4723.98
682.573	4699.41
682.764	4603.15
682.954	4859.15
683.144	4740.36
683.334	4676.88
683.524	4889.87
683.714	4699.41
683.904	4721.93
684.094	4791.56
684.284	4824.33
684.474	4779.28
684.664	4670.73
684.854	4805.9
685.044	4709.65
685.234	4795.66
685.424	4631.82
685.614	4621.58
685.804	4662.54
685.994	4789.52
686.184	4754.7
686.374	4805.9
686.564	4738.32
686.753	4717.84
686.943	4734.22
687.133	4529.42
687.323	4635.92
687.513	4717.84
687.702	4709.65
687.892	4523.28
688.082	4566.29
688.272	4676.88
688.461	4496.66
688.651	4646.16
688.841	4488.46
689.03	4463.89
689.22	4338.96
689.41	4410.64
689.599	4414.74
689.789	4371.73
689.979	4298
690.168	4363.54
690.358	4445.46
690.547	4242.71
690.737	4369.68
690.926	4291.86
691.116	4295.96
691.305	4252.95
691.495	4154.65
691.684	4130.07
691.874	4015.38
692.063	4160.79
692.252	4195.61
692.442	4095.25
692.631	3968.28
692.82	3941.66
693.01	4111.64
693.199	3996.95
693.388	3849.5
693.578	3906.84
693.767	4066.58
693.956	3919.13
694.146	3857.69
694.335	4007.19
694.524	3945.75
694.713	3865.88
694.902	3710.24
695.092	3869.98
695.281	3824.92
695.47	3779.87
695.659	3765.53
695.848	3874.07
696.037	3716.38
696.226	3822.88
696.415	3716.38
696.604	3839.26
696.793	3831.07
696.982	3693.85
697.171	3796.25
697.36	3769.63
697.549	3861.79
697.738	3521.82
697.927	3675.42
698.116	3630.37
698.305	3558.69
698.494	3763.48
698.683	3599.65
698.872	3757.34
699.061	3790.11
699.25	3640.61
699.438	3714.33
699.627	3685.66
699.816	3665.18
700.005	3595.55
700.193	3546.4
700.382	3659.04
700.571	3702.04
700.76	3667.23
700.948	3720.48
701.137	3644.7
701.326	3736.86
701.514	3626.27
701.703	3730.72
701.892	3532.06
702.08	3802.4
702.269	3710.24
702.457	3689.76
702.646	3700
702.834	3556.64
703.023	3669.28
703.212	3640.61
703.4	3611.93
703.589	3747.1
703.777	3837.21
703.965	3716.38
704.154	3718.43
704.342	3808.54
704.531	3759.39
704.719	3681.57
704.907	4082.97
705.096	3779.87
705.284	3747.1
705.472	3718.43
705.661	3808.54
705.849	3837.21
706.037	3765.53
706.226	3863.83
706.414	3882.27
706.602	3910.94
706.79	3775.77
706.979	3882.27
707.167	4005.14
707.355	3790.11
707.543	4027.67
707.731	3902.75
707.919	3947.8
708.107	3964.18
708.296	3908.89
708.484	3861.79
708.672	4095.25
708.86	3988.76
709.048	4029.72
709.236	4017.43
709.424	4207.89
709.612	3968.28
709.8	4085.02
709.988	4021.53
710.176	4300.05
710.364	4140.31
710.551	4168.98
710.739	4123.93
710.927	4142.36
711.115	4248.85
711.303	4355.35
711.491	4160.79
711.679	4193.56
711.866	4160.79
712.054	4285.72
712.242	4379.92
712.43	4279.57
712.617	4418.83
712.805	4414.74
712.993	4408.59
713.181	4316.44
713.368	4322.58
713.556	4396.31
713.744	4347.15
713.931	4549.9
714.119	4461.84
714.306	4545.81
714.494	4492.56
714.682	4519.18
714.869	4431.12
715.057	4734.22
715.244	4570.38
715.432	4658.45
715.619	4672.78
715.807	4777.23
715.994	4787.47
716.182	4529.42
716.369	4656.4
716.556	4726.03
716.744	4699.41
716.931	4781.32
717.119	4715.79
717.306	4926.73
717.493	4977.93
717.681	4965.64
717.868	4891.91
718.055	4906.25
718.242	5020.94
718.43	4963.59
718.617	5100.81
718.804	4873.48
718.991	4922.63
719.179	5111.05
719.366	5016.84
719.553	5063.94
719.74	5025.03
719.927	5209.35
720.114	5020.94
720.301	5160.2
720.488	5188.87
720.676	5065.99
720.863	5070.09
721.05	5197.06
721.237	5256.45
721.424	5229.83
721.611	5246.21
721.798	5135.62
721.985	5162.25
722.172	5227.78
722.358	5276.93
722.545	5422.34
722.732	5365
722.919	5340.42
723.106	5299.46
723.293	5485.83
723.48	5485.83
723.667	5356.8
723.853	5442.82
724.04	5541.12
724.227	5590.27
724.414	5561.6
724.6	5457.15
724.787	5721.34
724.974	5557.5
725.161	5475.59
725.347	5360.9
725.534	5733.63
725.72	5604.61
725.907	5496.07
726.094	5670.14
726.28	5555.46
726.467	5668.09
726.653	5612.8
726.84	5747.97
727.027	5803.26
727.213	5651.71
727.4	5764.35
727.586	5672.19
727.773	5674.24
727.959	5793.02
728.145	5741.82
728.332	5725.44
728.518	5678.33
728.705	5903.61
728.891	5782.78
729.077	5817.6
729.264	5799.16
729.45	5831.93
729.636	5919.99
729.823	5901.56
730.009	5856.51
730.195	5696.77
730.382	5846.27
730.568	5864.7
730.754	5909.76
730.94	5907.71
731.126	5979.39
731.313	6114.55
731.499	5940.47
731.685	6169.85
731.871	6079.74
732.057	6139.13
732.243	6008.06
732.429	6100.22
732.615	6034.68
732.801	6108.41
732.987	6094.07
733.173	6075.64
733.359	6100.22
733.545	6046.97
733.731	6059.26
733.917	6139.13
734.103	6135.03
734.289	6257.91
734.475	6075.64
734.661	6137.08
734.847	6282.49
735.033	6139.13
735.219	6104.31
735.404	6173.94
735.59	6073.59
735.776	6147.32
735.962	6257.91
736.148	6282.49
736.333	6141.18
736.519	6178.04
736.705	6249.72
736.89	5930.23
737.076	6233.33
737.262	6200.57
737.447	6139.13
737.633	6104.31
737.819	6079.74
738.004	6089.98
738.19	6266.1
738.375	5930.23
738.561	6118.65
738.747	5940.47
738.932	6155.51
739.118	6221.05
739.303	5797.12
739.489	6284.53
739.674	5985.53
739.859	6108.41
740.045	5934.33
740.23	6057.21
740.416	6024.44
740.601	6104.31
740.786	5938.43
740.972	5860.6
741.157	5958.91
741.342	5831.93
741.528	5895.42
741.713	5790.97
741.898	6030.59
742.084	5932.28
742.269	5917.95
742.454	5817.6
742.639	6026.49
742.824	5788.93
743.01	5780.73
743.195	5895.42
743.38	5864.7
743.565	5733.63
743.75	5590.27
743.935	5729.53
744.12	5756.16
744.305	5690.62
744.49	5418.24
744.675	5616.9
744.86	5567.74
745.045	5610.75
745.23	5371.14
745.415	5475.59
745.6	5541.12
745.785	5481.73
745.97	5469.44
746.155	5440.77
746.34	5338.37
746.525	5281.03
746.71	5561.6
746.895	5221.64
747.079	5162.25
747.264	5336.32
747.449	5160.2
747.634	5272.84
747.819	5182.73
748.003	5205.25
748.188	5154.05
748.373	5117.19
748.557	4887.82
748.742	4865.29
748.927	5143.81
749.111	4936.97
749.296	4836.62
749.481	4820.24
749.665	4789.52
749.85	4863.24
750.034	4979.98
750.219	4754.7
750.404	4730.13
750.588	4820.24
750.773	4674.83
750.957	4672.78
751.141	4683.02
751.326	4584.72
751.51	4410.64
751.695	4568.34
751.879	4545.81
752.064	4455.7
752.248	4443.41
752.432	4314.39
752.617	4199.7
752.801	4287.76
752.985	4384.02
753.17	4283.67
753.354	4300.05
753.538	4373.78
753.722	4242.71
753.907	4115.73
754.091	4214.04
754.275	4168.98
754.459	4013.34
754.643	4046.1
754.828	4062.49
755.012	3865.88
755.196	3974.42
755.38	3943.71
755.564	3943.71
755.748	3857.69
755.932	3912.99
756.116	3804.44
756.3	3806.49
756.484	3740.96
756.668	3763.48
756.852	3652.89
757.036	3659.04
757.22	3677.47
757.404	3495.2
757.588	3587.36
757.772	3400.99
757.956	3667.23
758.14	3534.11
758.323	3497.25
758.507	3568.93
758.691	3435.81
758.875	3530.02
759.059	3396.9
759.242	3331.36
759.426	3284.26
759.61	3247.4
759.794	3251.49
759.977	3306.79
760.161	3360.03
760.345	3208.48
760.528	3134.76
760.712	3274.02
760.895	3065.13
761.079	3054.89
761.263	3075.37
761.446	3052.84
761.63	3030.31
761.813	3151.14
761.997	2901.29
762.18	2995.5
762.364	3050.79
762.547	2845.99
762.731	2893.1
762.914	3005.74
763.098	2960.68
763.281	2815.27
763.464	2866.47
763.648	2913.58
763.831	2827.56
764.015	2872.62
764.198	2819.37
764.381	2788.65
764.564	2796.84
764.748	2874.67
764.931	2682.16
765.114	2712.88
765.297	2778.41
765.481	2829.61
765.664	2805.03
765.847	2647.34
766.03	2759.98
766.213	2766.12
766.397	2622.77
766.58	2669.87
766.763	2714.92
766.946	2743.6
767.129	2620.72
767.312	2577.71
767.495	2735.4
767.678	2549.04
767.861	2653.48
768.044	2592.05
768.227	2559.28
768.41	2540.85
768.593	2534.7
768.776	2440.5
768.959	2448.69
769.142	2555.18
769.324	2409.78
769.507	2538.8
769.69	2360.63
769.873	2309.43
770.056	2428.21
770.239	2334
770.421	2334
770.604	2356.53
770.787	2381.1
770.97	2350.39
771.152	2282.8
771.335	2231.6
771.518	2268.47
771.7	2405.68
771.883	2346.29
772.066	2290.99
772.248	2186.55
772.431	2227.51
772.613	2200.88
772.796	2104.63
772.978	2053.43
773.161	2233.65
773.343	2024.76
773.526	2098.49
773.708	2039.09
773.891	2012.47
774.073	2014.52
774.256	2098.49
774.438	2153.78
774.621	1998.13
774.803	2051.38
774.985	1899.83
775.168	2075.96
775.35	1926.46
775.532	1957.18
775.715	1957.18
775.897	1916.22
776.079	1867.06
776.261	1862.97
776.444	1865.02
776.626	1748.28
776.808	1846.59
776.99	1729.85
777.173	1756.47
777.355	1711.42
777.537	1809.72
777.719	1776.95
777.901	1686.84
778.083	1660.22
778.265	1668.41
778.447	1647.93
778.629	1619.26
778.811	1719.61
778.993	1711.42
779.175	1596.73
779.357	1598.78
779.539	1469.76
779.721	1545.53
779.903	1658.17
780.085	1486.14
780.267	1637.69
780.449	1494.33
780.631	1449.28
780.812	1574.21
780.994	1486.14
781.176	1572.16
781.358	1498.43
781.54	1412.42
781.721	1471.81
781.903	1516.86
782.085	1426.75
782.267	1420.61
782.448	1348.93
782.63	1391.94
782.812	1371.46
782.993	1391.94
783.175	1387.84
783.357	1391.94
783.538	1389.89
783.72	1310.02
783.901	1301.83
784.083	1330.5
784.264	1322.31
784.446	1250.63
784.627	1191.24
784.809	1277.25
784.99	1168.71
785.172	1232.19
785.353	1135.94
785.535	1193.28
785.716	1234.24
785.897	1088.84
786.079	1080.64
786.26	1103.17
786.441	1178.95
786.623	1101.12
786.804	1060.17
786.985	1039.69
787.167	1137.99
787.348	1035.59
787.529	1037.64
787.71	1178.95
787.891	1078.6
788.073	1029.45
788.254	1037.64
788.435	1160.52
788.616	939.33
788.797	959.81
788.978	996.68
789.159	986.44
789.34	998.73
789.522	922.95
789.703	937.29
789.884	906.57
790.065	959.81
790.246	933.19
790.427	959.81
790.607	1015.11
790.788	1006.92
790.969	963.91
791.15	939.33
791.331	904.52
791.512	955.72
791.693	795.98
791.874	968.01
792.054	990.53
792.235	933.19
792.416	834.89
792.597	822.6
792.778	820.55
792.958	912.71
793.139	832.84
793.32	816.46
793.5	724.3
793.681	849.22
793.862	886.09
794.042	793.93
794.223	777.55
794.404	748.87
794.584	750.92
794.765	712.01
794.945	775.5
795.126	822.6
795.306	802.12
795.487	789.83
795.667	703.82
795.848	740.68
796.028	783.69
796.209	742.73
796.389	777.55
796.57	746.83
796.75	777.55
796.93	740.68
797.111	769.35
797.291	650.57
797.471	736.59
797.652	712.01
797.832	605.52
798.012	603.47
798.192	724.3
798.373	683.34
798.553	589.13
798.733	703.82
798.913	632.14
799.093	642.38
799.274	677.19
799.454	669
799.634	685.39
799.814	699.72
799.994	679.24
800.174	675.15
800.354	689.48
800.534	669
800.714	539.98
800.894	605.52
801.074	654.67
801.254	562.51
801.434	621.9
801.614	566.6
801.794	585.04
801.974	1355.07
802.154	539.98
802.334	636.24
802.514	644.43
802.693	496.97
802.873	599.37
803.053	587.08
803.233	529.74
803.413	527.69
803.592	523.6
803.772	560.46
803.952	499.02
804.131	458.06
804.311	580.94
804.491	558.41
804.67	515.41
804.85	513.36
805.03	576.84
805.209	539.98
805.389	544.08
805.568	525.65
805.748	458.06
805.928	474.45
806.107	533.84
806.287	490.83
806.466	488.78
806.646	460.11
806.825	480.59
807.004	447.82
807.184	466.25
807.363	521.55
807.543	519.5
807.722	453.97
807.901	505.17
808.081	542.03
808.26	394.58
808.439	478.54
808.619	456.01
808.798	523.6
808.977	458.06
809.156	496.97
809.336	456.01
809.515	392.53
809.694	445.77
809.873	499.02
810.052	435.53
810.231	482.64
810.411	458.06
810.59	413.01
810.769	365.9
810.948	425.29
811.127	394.58
811.306	453.97
811.485	433.49
811.664	492.88
811.843	376.14
812.022	460.11
812.201	372.05
812.38	415.05
812.559	398.67
812.737	417.1
812.916	331.09
813.095	408.91
813.274	314.7
813.453	404.82
813.632	335.18
813.811	392.53
813.989	326.99
814.168	351.57
814.347	392.53
814.526	351.57
814.704	449.87
814.883	386.38
815.062	335.18
815.24	269.65
815.419	380.24
815.598	386.38
815.776	308.56
815.955	302.42
816.133	296.27
816.312	367.95
816.49	357.71
816.669	361.81
816.847	378.19
817.026	314.7
817.204	335.18
817.383	339.28
817.561	265.55
817.74	400.72
817.918	372.05
818.097	351.57
818.275	275.79
818.453	357.71
818.632	408.91
818.81	398.67
818.988	281.94
819.167	271.7
819.345	302.42
819.523	232.79
819.701	253.27
819.879	283.98
820.058	331.09
820.236	367.95
820.414	286.03
820.592	298.32
820.77	267.6
820.948	316.75
821.127	310.61
821.305	314.7
821.483	281.94
821.661	339.28
821.839	240.98
822.017	273.75
822.195	302.42
822.373	402.77
822.551	290.13
822.729	292.18
822.907	261.46
823.085	296.27
823.262	154.96
823.44	204.11
823.618	236.88
823.796	265.55
823.974	310.61
824.152	224.59
824.329	261.46
824.507	326.99
824.685	326.99
824.863	142.68
825.04	277.84
825.218	279.89
825.396	204.11
825.574	226.64
825.751	163.15
825.929	249.17
826.107	204.11
826.284	179.54
826.462	169.3
826.639	195.92
826.817	191.83
826.994	220.5
827.172	238.93
827.349	316.75
827.527	306.51
827.704	292.18
827.882	210.26
828.059	277.84
828.237	208.21
828.414	283.98
828.591	116.05
828.769	220.5
828.946	150.87
829.124	134.48
829.301	310.61
829.478	177.49
829.655	224.59
829.833	228.69
830.01	204.11
830.187	140.63
830.364	136.53
830.542	222.55
830.719	175.44
830.896	326.99
831.073	212.31
831.25	216.4
831.427	228.69
831.604	175.44
831.782	220.5
831.959	232.79
832.136	105.81
832.313	226.64
832.49	128.34
832.667	224.59
832.844	136.53
833.021	214.35
833.198	99.67
833.374	185.68
833.551	152.91
833.728	157.01
833.905	146.77
834.082	142.68
834.259	236.88
834.436	296.27
834.612	122.2
834.789	118.1
834.966	138.58
835.143	204.11
835.319	187.73
835.496	281.94
835.673	114
835.85	220.5
836.026	107.86
836.203	200.02
836.38	126.29
836.556	163.15
836.733	146.77
836.909	210.26
837.086	181.59
837.262	73.04
837.439	154.96
837.616	179.54
837.792	138.58
837.968	89.43
838.145	68.95
838.321	146.77
838.498	146.77
838.674	195.92
838.851	179.54
839.027	109.91
839.203	132.44
839.38	185.68
839.556	101.72
839.732	159.06
839.909	152.91
840.085	144.72
840.261	144.72
840.437	144.72
840.614	103.76
840.79	111.96
840.966	206.16
841.142	120.15
841.318	165.2
841.494	73.04
841.671	154.96
841.847	111.96
842.023	130.39
842.199	220.5
842.375	85.33
842.551	130.39
842.727	60.76
842.903	64.85
843.079	163.15
843.255	193.87
843.431	97.62
843.607	83.28
843.783	-8.87
843.959	177.49
844.134	64.85
844.31	138.58
844.486	136.53
844.662	142.68
844.838	136.53
845.013	177.49
845.189	148.82
845.365	163.15
845.541	81.24
845.716	58.71
845.892	179.54
846.068	34.13
846.244	64.85
846.419	122.2
846.595	99.67
846.77	64.85
846.946	146.77
847.122	79.19
847.297	-25.26
847.473	154.96
847.648	-8.87
847.824	105.81
847.999	-49.83
848.175	191.83
848.35	87.38
848.526	95.57
848.701	130.39
848.876	109.91
849.052	144.72
849.227	66.9
849.403	111.96
849.578	64.85
849.753	99.67
849.929	77.14
850.104	109.91
850.279	48.47
850.454	21.85
850.63	68.95
850.805	107.86
850.98	54.61
851.155	120.15
851.33	128.34
851.505	68.95
851.681	126.29
851.856	48.47
852.031	161.11
852.206	73.04
852.381	97.62
852.556	30.04
852.731	85.33
852.906	109.91
853.081	87.38
853.256	73.04
853.431	64.85
853.606	60.76
853.781	34.13
853.956	-21.16
854.131	71
854.305	38.23
854.48	77.14
854.655	-4.78
854.83	95.57
855.005	5.46
855.18	52.56
855.354	46.42
855.529	87.38
855.704	17.75
855.879	56.66
856.053	-33.45
856.228	71
856.403	40.28
856.577	120.15
856.752	-25.26
856.926	48.47
857.101	103.76
857.276	40.28
857.45	44.37
857.625	56.66
857.799	54.61
857.974	40.28
858.148	-23.21
858.323	73.04
858.497	44.37
858.672	46.42
858.846	73.04
859.02	157.01
859.195	40.28
859.369	40.28
859.543	13.65
859.718	126.29
859.892	101.72
860.066	-2.73
860.241	38.23
860.415	81.24
860.589	11.61
860.763	81.24
860.938	97.62
861.112	79.19
861.286	-6.83
861.46	54.61
861.634	85.33
861.808	30.04
861.982	17.75
862.157	-0.68
862.331	5.46
862.505	73.04
862.679	23.89
862.853	9.56
863.027	122.2
863.201	138.58
863.375	15.7
863.549	89.43
863.722	83.28
863.896	81.24
864.07	-17.07
864.244	23.89
864.418	40.28
864.592	73.04
864.766	48.47
864.939	9.56
865.113	81.24
865.287	50.52
865.461	-17.07
865.634	-4.78
865.808	-6.83
865.982	81.24
866.156	30.04
866.329	-70.31
866.503	75.09
866.676	32.08
866.85	32.08
867.024	32.08
867.197	-17.07
867.371	83.28
867.544	36.18
867.718	13.65
867.891	89.43
868.065	38.23
868.238	-35.5
868.412	-0.68
868.585	23.89
868.759	-33.45
868.932	-29.35
869.105	-58.03
869.279	-33.45
869.452	-17.07
869.625	56.66
869.799	-12.97
869.972	-98.99
870.145	-29.35
870.319	11.61
870.492	7.51
870.665	40.28
870.838	-70.31
871.011	-27.31
871.185	21.85
871.358	-15.02
871.531	44.37
871.704	-21.16
871.877	38.23
872.05	23.89
872.223	-78.51
872.396	-66.22
872.569	44.37
872.742	-51.88
872.915	64.85
873.088	27.99
873.261	-29.35
873.434	54.61
873.607	-0.68
873.78	93.52
873.953	-29.35
874.126	-0.68
874.299	77.14
874.471	-33.45
874.644	-4.78
874.817	-41.64
874.99	95.57
875.163	-19.11
875.335	15.7
875.508	1.37
875.681	40.28
875.853	-15.02
876.026	64.85
876.199	32.08
876.371	-19.11
876.544	13.65
876.717	-58.03
876.889	-29.35
877.062	77.14
877.234	-15.02
877.407	11.61
877.579	46.42
877.752	11.61
877.924	32.08
878.097	-19.11
878.269	-41.64
878.442	38.23
878.614	85.33
878.786	46.42
878.959	13.65
879.131	-4.78
879.303	-68.27
879.476	50.52
879.648	15.7
879.82	40.28
879.993	-2.73
880.165	-0.68
880.337	-66.22
880.509	77.14
880.681	-21.16
880.854	-8.87
881.026	23.89
881.198	54.61
881.37	27.99
881.542	50.52
881.714	-33.45
881.886	32.08
882.058	-64.17
882.23	25.94
882.402	-49.83
882.574	-23.21
882.746	30.04
882.918	64.85
883.09	-53.93
883.262	-25.26
883.434	56.66
883.606	-25.26
883.778	-33.45
883.95	58.71
884.122	-19.11
884.293	21.85
884.465	5.46
884.637	52.56
884.809	48.47
884.98	-17.07
885.152	-76.46
885.324	23.89
885.496	-33.45
885.667	-6.83
885.839	-19.11
886.011	23.89
886.182	-31.4
886.354	54.61
886.525	-43.69
886.697	44.37
886.869	-58.03
887.04	-41.64
887.212	36.18
887.383	62.8
887.555	-2.73
887.726	-29.35
887.897	-33.45
888.069	52.56
888.24	46.42
888.412	32.08
888.583	-47.79
888.754	3.41
888.926	-37.55
889.097	-88.75
889.268	-43.69
889.44	52.56
889.611	-37.55
889.782	46.42
889.953	-78.51
890.125	27.99
890.296	-60.07
890.467	30.04
890.638	-4.78
890.809	-8.87
890.98	-58.03
891.151	5.46
891.323	7.51
891.494	-27.31
891.665	38.23
891.836	-2.73
892.007	11.61
892.178	-21.16
892.349	-17.07
892.52	-21.16
892.691	40.28
892.862	44.37
893.032	-84.65
893.203	30.04
893.374	-35.5
893.545	-21.16
893.716	-51.88
893.887	32.08
894.057	-39.59
894.228	-4.78
894.399	-94.89
894.57	75.09
894.74	-4.78
894.911	21.85
895.082	-49.83
895.253	40.28
895.423	3.41
895.594	25.94
895.764	40.28
895.935	19.8
896.106	-0.68
896.276	11.61
896.447	-2.73
896.617	-43.69
896.788	-76.46
896.958	23.89
897.129	-33.45
897.299	-51.88
897.47	56.66
897.64	54.61
897.81	-37.55
897.981	-74.41
898.151	-6.83
898.322	-37.55
898.492	7.51
898.662	48.47
898.832	-6.83
899.003	-6.83
899.173	23.89
899.343	11.61
899.513	-29.35
