Data from USB4F104151__3__11-29-30-069.txt Node

Date: Fri Mar 14 11:29:30 EDT 2025
User: louis
Spectrometer: USB4F10415
Trigger mode: 4
Integration Time (sec): 5.000000E-2
Scans to average: 1
Electric dark correction enabled: true
Nonlinearity correction enabled: false
Boxcar width: 0
XAxis mode: Wavelengths
Number of Pixels in Spectrum: 3648
>>>>>Begin Spectral Data<<<<<
178.204	-138.58
178.424	-138.58
178.644	-138.58
178.864	-93.52
179.084	-146.77
179.304	-1.37
179.524	12.97
179.744	8.87
179.964	6.83
180.184	-13.65
180.404	37.55
180.624	37.55
180.844	29.35
181.064	-58.71
181.283	-68.95
181.503	-11.61
181.723	21.16
181.943	-54.61
182.163	45.74
182.383	94.89
182.602	76.46
182.822	4.78
183.042	-11.61
183.262	37.55
183.482	23.21
183.701	17.07
183.921	12.97
184.141	8.87
184.361	53.93
184.58	-19.8
184.8	47.79
185.02	45.74
185.239	88.75
185.459	25.26
185.679	103.08
185.898	-68.95
186.118	53.93
186.338	39.59
186.557	82.6
186.777	23.21
186.997	-60.76
187.216	51.88
187.436	103.08
187.655	10.92
187.875	21.16
188.095	86.7
188.314	12.97
188.534	45.74
188.753	-3.41
188.973	15.02
189.192	105.13
189.412	-25.94
189.631	78.51
189.851	12.97
190.07	86.7
190.29	-5.46
190.509	78.51
190.729	27.31
190.948	119.46
191.168	115.37
191.387	51.88
191.607	-66.9
191.826	90.79
192.045	70.31
192.265	-21.85
192.484	0.68
192.704	72.36
192.923	41.64
193.142	113.32
193.362	53.93
193.581	43.69
193.8	62.12
194.02	6.83
194.239	37.55
194.458	35.5
194.678	53.93
194.897	84.65
195.116	37.55
195.335	12.97
195.555	19.11
195.774	25.26
195.993	41.64
196.212	66.22
196.432	0.68
196.651	19.11
196.87	4.78
197.089	176.81
197.308	53.93
197.528	37.55
197.747	-36.18
197.966	21.16
198.185	127.66
198.404	6.83
198.623	27.31
198.842	86.7
199.062	41.64
199.281	58.03
199.5	23.21
199.719	103.08
199.938	70.31
200.157	27.31
200.376	123.56
200.595	-36.18
200.814	37.55
201.033	43.69
201.252	94.89
201.471	-19.8
201.69	123.56
201.909	43.69
202.128	51.88
202.347	45.74
202.566	68.27
202.785	-11.61
203.004	2.73
203.223	127.66
203.442	68.27
203.661	86.7
203.879	-19.8
204.098	103.08
204.317	33.45
204.536	101.03
204.755	-15.7
204.974	41.64
205.193	37.55
205.411	113.32
205.63	103.08
205.849	33.45
206.068	-5.46
206.287	86.7
206.505	21.16
206.724	86.7
206.943	2.73
207.162	76.46
207.381	45.74
207.599	-13.65
207.818	84.65
208.037	-71
208.255	-13.65
208.474	37.55
208.693	74.41
208.911	74.41
209.13	25.26
209.349	-32.08
209.567	-60.76
209.786	55.98
210.005	4.78
210.223	-15.7
210.442	-21.85
210.661	33.45
210.879	53.93
211.098	2.73
211.316	37.55
211.535	107.18
211.753	29.35
211.972	62.12
212.191	-79.19
212.409	60.07
212.628	72.36
212.846	-11.61
213.065	64.17
213.283	109.22
213.502	-32.08
213.72	49.83
213.938	-36.18
214.157	60.07
214.375	29.35
214.594	45.74
214.812	78.51
215.031	53.93
215.249	12.97
215.467	45.74
215.686	15.02
215.904	121.51
216.122	62.12
216.341	129.7
216.559	55.98
216.778	49.83
216.996	70.31
217.214	15.02
217.432	-1.37
217.651	-60.76
217.869	92.84
218.087	-11.61
218.306	8.87
218.524	27.31
218.742	84.65
218.96	58.03
219.179	6.83
219.397	68.27
219.615	78.51
219.833	45.74
220.051	-5.46
220.27	45.74
220.488	49.83
220.706	-3.41
220.924	17.07
221.142	29.35
221.36	66.22
221.578	80.55
221.796	62.12
222.015	-7.51
222.233	-13.65
222.451	84.65
222.669	-17.75
222.887	86.7
223.105	47.79
223.323	35.5
223.541	0.68
223.759	78.51
223.977	117.42
224.195	37.55
224.413	68.27
224.631	66.22
224.849	10.92
225.067	119.46
225.285	-34.13
225.503	33.45
225.721	-36.18
225.939	-23.89
226.157	135.85
226.375	103.08
226.592	47.79
226.81	43.69
227.028	86.7
227.246	37.55
227.464	37.55
227.682	68.27
227.9	0.68
228.117	-13.65
228.335	78.51
228.553	45.74
228.771	2.73
228.989	105.13
229.206	8.87
229.424	-5.46
229.642	41.64
229.86	-52.56
230.077	4.78
230.295	25.26
230.513	53.93
230.731	25.26
230.948	39.59
231.166	131.75
231.384	-19.8
231.601	4.78
231.819	53.93
232.037	-42.32
232.254	39.59
232.472	-19.8
232.689	33.45
232.907	78.51
233.125	72.36
233.342	53.93
233.56	19.11
233.777	62.12
233.995	78.51
234.213	82.6
234.43	70.31
234.648	31.4
234.865	-15.7
235.083	45.74
235.3	43.69
235.518	86.7
235.735	41.64
235.953	84.65
236.17	82.6
236.388	45.74
236.605	111.27
236.822	76.46
237.04	19.11
237.257	43.69
237.475	-62.8
237.692	62.12
237.909	135.85
238.127	4.78
238.344	-7.51
238.562	33.45
238.779	37.55
238.996	-17.75
239.214	12.97
239.431	86.7
239.648	-36.18
239.865	39.59
240.083	66.22
240.3	21.16
240.517	62.12
240.735	19.11
240.952	62.12
241.169	133.8
241.386	-5.46
241.603	51.88
241.821	-27.99
242.038	133.8
242.255	10.92
242.472	4.78
242.689	43.69
242.907	58.03
243.124	-32.08
243.341	78.51
243.558	33.45
243.775	76.46
243.992	35.5
244.209	68.27
244.426	135.85
244.643	47.79
244.86	37.55
245.078	53.93
245.295	45.74
245.512	60.07
245.729	-5.46
245.946	127.66
246.163	33.45
246.38	17.07
246.597	45.74
246.814	47.79
247.031	53.93
247.248	27.31
247.464	74.41
247.681	-19.8
247.898	45.74
248.115	76.46
248.332	-105.81
248.549	12.97
248.766	76.46
248.983	70.31
249.2	0.68
249.417	66.22
249.633	74.41
249.85	58.03
250.067	39.59
250.284	37.55
250.501	66.22
250.717	78.51
250.934	-3.41
251.151	19.11
251.368	-11.61
251.585	148.14
251.801	66.22
252.018	-3.41
252.235	29.35
252.451	43.69
252.668	4.78
252.885	103.08
253.102	96.94
253.318	86.7
253.535	25.26
253.752	51.88
253.968	33.45
254.185	62.12
254.401	53.93
254.618	98.99
254.835	-85.33
255.051	94.89
255.268	70.31
255.484	15.02
255.701	41.64
255.917	29.35
256.134	21.16
256.351	19.11
256.567	-36.18
256.784	23.21
257	-32.08
257.217	51.88
257.433	45.74
257.65	-3.41
257.866	76.46
258.082	6.83
258.299	-5.46
258.515	33.45
258.732	39.59
258.948	-19.8
259.165	-7.51
259.381	45.74
259.597	127.66
259.814	37.55
260.03	62.12
260.246	76.46
260.463	60.07
260.679	101.03
260.895	64.17
261.112	115.37
261.328	-15.7
261.544	-3.41
261.761	125.61
261.977	-48.47
262.193	4.78
262.409	43.69
262.626	-9.56
262.842	92.84
263.058	43.69
263.274	107.18
263.49	33.45
263.707	94.89
263.923	37.55
264.139	-27.99
264.355	45.74
264.571	144.04
264.787	19.11
265.004	76.46
265.22	-1.37
265.436	92.84
265.652	43.69
265.868	72.36
266.084	-50.52
266.3	-21.85
266.516	-36.18
266.732	-23.89
266.948	60.07
267.164	58.03
267.38	96.94
267.596	29.35
267.812	78.51
268.028	37.55
268.244	-64.85
268.46	21.16
268.676	45.74
268.892	17.07
269.108	35.5
269.324	94.89
269.54	10.92
269.756	146.09
269.972	25.26
270.188	92.84
270.403	8.87
270.619	19.11
270.835	94.89
271.051	51.88
271.267	2.73
271.483	72.36
271.698	33.45
271.914	27.31
272.13	76.46
272.346	60.07
272.562	25.26
272.777	90.79
272.993	62.12
273.209	43.69
273.425	92.84
273.64	-38.23
273.856	45.74
274.072	4.78
274.287	25.26
274.503	86.7
274.719	68.27
274.934	51.88
275.15	-5.46
275.366	111.27
275.581	41.64
275.797	-13.65
276.012	98.99
276.228	133.8
276.444	51.88
276.659	76.46
276.875	-30.04
277.09	27.31
277.306	25.26
277.521	70.31
277.737	4.78
277.952	64.17
278.168	139.94
278.383	37.55
278.599	70.31
278.814	43.69
279.03	17.07
279.245	92.84
279.461	78.51
279.676	162.47
279.892	-30.04
280.107	53.93
280.322	76.46
280.538	10.92
280.753	-38.23
280.969	78.51
281.184	17.07
281.399	158.38
281.615	37.55
281.83	64.17
282.045	17.07
282.26	10.92
282.476	98.99
282.691	66.22
282.906	70.31
283.122	60.07
283.337	-9.56
283.552	103.08
283.767	10.92
283.983	23.21
284.198	45.74
284.413	103.08
284.628	-71
284.843	-3.41
285.058	68.27
285.274	90.79
285.489	66.22
285.704	29.35
285.919	21.16
286.134	17.07
286.349	-1.37
286.564	82.6
286.779	103.08
286.995	80.55
287.21	-27.99
287.425	45.74
287.64	6.83
287.855	117.42
288.07	-21.85
288.285	123.56
288.5	-3.41
288.715	45.74
288.93	27.31
289.145	-17.75
289.36	84.65
289.575	84.65
289.79	119.46
290.004	43.69
290.219	-21.85
290.434	37.55
290.649	35.5
290.864	41.64
291.079	-25.94
291.294	51.88
291.509	92.84
291.724	-15.7
291.938	74.41
292.153	45.74
292.368	35.5
292.583	62.12
292.798	62.12
293.012	45.74
293.227	49.83
293.442	19.11
293.657	86.7
293.871	74.41
294.086	-11.61
294.301	139.94
294.516	62.12
294.73	4.78
294.945	25.26
295.16	62.12
295.374	-7.51
295.589	109.22
295.804	-68.95
296.018	27.31
296.233	111.27
296.447	115.37
296.662	8.87
296.877	78.51
297.091	19.11
297.306	55.98
297.52	121.51
297.735	2.73
297.949	6.83
298.164	33.45
298.378	21.16
298.593	-44.37
298.807	17.07
299.022	49.83
299.236	70.31
299.451	60.07
299.665	17.07
299.88	4.78
300.094	33.45
300.309	12.97
300.523	55.98
300.737	-13.65
300.952	43.69
301.166	70.31
301.381	21.16
301.595	-23.89
301.809	141.99
302.024	29.35
302.238	10.92
302.452	43.69
302.667	62.12
302.881	127.66
303.095	45.74
303.309	12.97
303.524	51.88
303.738	-27.99
303.952	37.55
304.166	127.66
304.381	-19.8
304.595	103.08
304.809	-30.04
305.023	109.22
305.237	78.51
305.452	4.78
305.666	45.74
305.88	66.22
306.094	35.5
306.308	70.31
306.522	68.27
306.736	29.35
306.95	64.17
307.164	37.55
307.379	31.4
307.593	33.45
307.807	53.93
308.021	66.22
308.235	68.27
308.449	-44.37
308.663	45.74
308.877	152.23
309.091	94.89
309.305	70.31
309.519	19.11
309.733	49.83
309.947	82.6
310.161	60.07
310.374	49.83
310.588	58.03
310.802	64.17
311.016	53.93
311.23	72.36
311.444	4.78
311.658	68.27
311.872	70.31
312.085	92.84
312.299	86.7
312.513	53.93
312.727	70.31
312.941	29.35
313.154	86.7
313.368	35.5
313.582	58.03
313.796	66.22
314.009	74.41
314.223	94.89
314.437	55.98
314.651	92.84
314.864	-1.37
315.078	29.35
315.292	66.22
315.505	-44.37
315.719	111.27
315.933	119.46
316.146	-15.7
316.36	27.31
316.573	117.42
316.787	84.65
317.001	49.83
317.214	53.93
317.428	76.46
317.641	19.11
317.855	15.02
318.068	53.93
318.282	10.92
318.495	96.94
318.709	35.5
318.922	-7.51
319.136	35.5
319.349	49.83
319.563	25.26
319.776	15.02
319.99	53.93
320.203	45.74
320.417	37.55
320.63	10.92
320.843	141.99
321.057	88.75
321.27	41.64
321.483	43.69
321.697	62.12
321.91	27.31
322.124	74.41
322.337	66.22
322.55	-7.51
322.763	29.35
322.977	101.03
323.19	12.97
323.403	74.41
323.617	76.46
323.83	31.4
324.043	101.03
324.256	58.03
324.469	8.87
324.683	43.69
324.896	35.5
325.109	66.22
325.322	-46.42
325.535	92.84
325.748	8.87
325.962	-3.41
326.175	90.79
326.388	76.46
326.601	29.35
326.814	-13.65
327.027	17.07
327.24	123.56
327.453	-19.8
327.666	62.12
327.879	141.99
328.092	39.59
328.305	33.45
328.518	51.88
328.731	-3.41
328.944	-7.51
329.157	121.51
329.37	-32.08
329.583	84.65
329.796	62.12
330.009	12.97
330.222	45.74
330.435	60.07
330.648	135.85
330.861	98.99
331.073	37.55
331.286	15.02
331.499	70.31
331.712	23.21
331.925	-7.51
332.138	53.93
332.35	96.94
332.563	62.12
332.776	-19.8
332.989	47.79
333.202	12.97
333.414	33.45
333.627	21.16
333.84	33.45
334.053	45.74
334.265	53.93
334.478	33.45
334.691	-19.8
334.903	98.99
335.116	-3.41
335.329	19.11
335.541	15.02
335.754	109.22
335.966	-3.41
336.179	51.88
336.392	-13.65
336.604	10.92
336.817	53.93
337.029	94.89
337.242	88.75
337.454	119.46
337.667	37.55
337.88	29.35
338.092	68.27
338.305	119.46
338.517	27.31
338.729	82.6
338.942	25.26
339.154	10.92
339.367	8.87
339.579	144.04
339.792	-3.41
340.004	86.7
340.217	60.07
340.429	31.4
340.641	25.26
340.854	-3.41
341.066	58.03
341.278	70.31
341.491	86.7
341.703	76.46
341.915	-54.61
342.128	90.79
342.34	70.31
342.552	29.35
342.764	41.64
342.977	8.87
343.189	96.94
343.401	10.92
343.613	-23.89
343.826	35.5
344.038	4.78
344.25	66.22
344.462	53.93
344.674	70.31
344.886	60.07
345.099	-3.41
345.311	66.22
345.523	-19.8
345.735	29.35
345.947	101.03
346.159	68.27
346.371	19.11
346.583	80.55
346.795	115.37
347.007	21.16
347.219	74.41
347.431	74.41
347.643	10.92
347.855	-1.37
348.067	55.98
348.279	-7.51
348.491	86.7
348.703	84.65
348.915	51.88
349.127	12.97
349.339	94.89
349.551	-11.61
349.763	55.98
349.975	78.51
350.187	94.89
350.399	60.07
350.61	103.08
350.822	35.5
351.034	0.68
351.246	51.88
351.458	35.5
351.669	66.22
351.881	66.22
352.093	94.89
352.305	92.84
352.517	-19.8
352.728	121.51
352.94	-3.41
353.152	96.94
353.363	37.55
353.575	103.08
353.787	96.94
353.999	21.16
354.21	133.8
354.422	-42.32
354.633	49.83
354.845	49.83
355.057	21.16
355.268	31.4
355.48	148.14
355.692	27.31
355.903	111.27
356.115	62.12
356.326	-3.41
356.538	103.08
356.749	-11.61
356.961	55.98
357.172	45.74
357.384	37.55
357.595	133.8
357.807	-15.7
358.018	4.78
358.23	62.12
358.441	119.46
358.653	123.56
358.864	-3.41
359.075	-1.37
359.287	133.8
359.498	144.04
359.709	-32.08
359.921	-21.85
360.132	41.64
360.344	49.83
360.555	111.27
360.766	4.78
360.977	53.93
361.189	103.08
361.4	117.42
361.611	29.35
361.823	27.31
362.034	78.51
362.245	41.64
362.456	43.69
362.667	53.93
362.879	-21.85
363.09	68.27
363.301	125.61
363.512	-13.65
363.723	60.07
363.935	27.31
364.146	45.74
364.357	66.22
364.568	98.99
364.779	-3.41
364.99	62.12
365.201	62.12
365.412	60.07
365.623	-5.46
365.834	39.59
366.045	53.93
366.256	37.55
366.467	66.22
366.678	60.07
366.889	62.12
367.1	78.51
367.311	101.03
367.522	29.35
367.733	64.17
367.944	-25.94
368.155	29.35
368.366	74.41
368.577	66.22
368.788	119.46
368.999	107.18
369.209	103.08
369.42	96.94
369.631	137.9
369.842	86.7
370.053	84.65
370.264	41.64
370.474	43.69
370.685	53.93
370.896	84.65
371.107	78.51
371.317	78.51
371.528	70.31
371.739	78.51
371.95	55.98
372.16	125.61
372.371	4.78
372.582	12.97
372.792	78.51
373.003	82.6
373.214	37.55
373.424	45.74
373.635	105.13
373.846	60.07
374.056	25.26
374.267	41.64
374.477	55.98
374.688	43.69
374.898	8.87
375.109	94.89
375.319	76.46
375.53	98.99
375.74	78.51
375.951	111.27
376.161	60.07
376.372	72.36
376.582	-19.8
376.793	86.7
377.003	-7.51
377.214	-3.41
377.424	76.46
377.635	119.46
377.845	4.78
378.055	58.03
378.266	10.92
378.476	127.66
378.686	2.73
378.897	51.88
379.107	111.27
379.317	25.26
379.528	12.97
379.738	101.03
379.948	35.5
380.158	70.31
380.369	84.65
380.579	76.46
380.789	2.73
380.999	68.27
381.21	92.84
381.42	139.94
381.63	-46.42
381.84	105.13
382.05	127.66
382.261	62.12
382.471	174.76
382.681	86.7
382.891	101.03
383.101	76.46
383.311	62.12
383.521	29.35
383.731	78.51
383.941	68.27
384.151	-38.23
384.361	-3.41
384.571	58.03
384.781	53.93
384.991	123.56
385.201	117.42
385.411	78.51
385.621	-15.7
385.831	78.51
386.041	10.92
386.251	51.88
386.461	76.46
386.671	37.55
386.881	92.84
387.091	135.85
387.301	90.79
387.511	10.92
387.72	98.99
387.93	4.78
388.14	10.92
388.35	21.16
388.56	111.27
388.769	103.08
388.979	78.51
389.189	17.07
389.399	58.03
389.609	105.13
389.818	8.87
390.028	53.93
390.238	37.55
390.447	29.35
390.657	6.83
390.867	12.97
391.076	27.31
391.286	33.45
391.496	27.31
391.705	86.7
391.915	33.45
392.125	62.12
392.334	27.31
392.544	135.85
392.753	2.73
392.963	4.78
393.172	29.35
393.382	29.35
393.591	107.18
393.801	43.69
394.01	168.62
394.22	119.46
394.429	58.03
394.639	78.51
394.848	62.12
395.058	84.65
395.267	8.87
395.477	109.22
395.686	90.79
395.895	137.9
396.105	62.12
396.314	70.31
396.524	70.31
396.733	86.7
396.942	107.18
397.152	55.98
397.361	109.22
397.57	82.6
397.78	27.31
397.989	37.55
398.198	156.33
398.407	103.08
398.617	103.08
398.826	121.51
399.035	101.03
399.244	135.85
399.453	185
399.663	111.27
399.872	144.04
400.081	64.17
400.29	166.57
400.499	168.62
400.708	164.52
400.917	94.89
401.127	144.04
401.336	123.56
401.545	178.86
401.754	164.52
401.963	123.56
402.172	135.85
402.381	68.27
402.59	96.94
402.799	119.46
403.008	174.76
403.217	72.36
403.426	125.61
403.635	66.22
403.844	111.27
404.053	172.71
404.262	172.71
404.471	217.77
404.68	74.41
404.888	168.62
405.097	111.27
405.306	172.71
405.515	182.95
405.724	152.23
405.933	148.14
406.142	193.19
406.35	191.14
406.559	144.04
406.768	193.19
406.977	260.77
407.185	250.53
407.394	176.81
407.603	197.29
407.812	199.34
408.02	303.78
408.229	158.38
408.438	162.47
408.646	277.16
408.855	246.44
409.064	209.58
409.272	238.25
409.481	299.69
409.69	256.68
409.898	213.67
410.107	332.45
410.315	332.45
410.524	250.53
410.733	340.65
410.941	271.01
411.15	348.84
411.358	357.03
411.567	459.43
411.775	330.41
411.984	352.93
412.192	377.51
412.401	422.56
412.609	430.76
412.818	461.48
413.026	518.82
413.234	500.39
413.443	408.23
413.651	504.48
413.86	467.62
414.068	537.25
414.276	635.55
414.485	567.97
414.693	619.17
414.901	635.55
415.11	656.03
415.318	696.99
415.526	629.41
415.734	627.36
415.943	795.29
416.151	852.64
416.359	832.16
416.567	787.1
416.776	797.34
416.984	918.17
417.192	950.94
417.4	844.45
417.608	903.84
417.817	912.03
418.025	952.99
418.233	1065.63
418.441	996
418.649	1051.29
418.857	1163.93
419.065	1159.83
419.273	1165.98
419.481	1192.6
419.689	1362.58
419.897	1393.3
420.105	1368.73
420.313	1381.01
420.521	1438.36
420.729	1491.6
420.937	1487.51
421.145	1512.08
421.353	1641.11
421.561	1755.79
421.769	1837.71
421.977	1753.74
422.185	1864.33
422.393	1976.97
422.601	2073.23
422.809	2200.2
423.017	2048.65
423.224	2091.66
423.432	2347.65
423.64	2224.78
423.848	2443.91
424.056	2382.47
424.263	2503.3
424.471	2609.79
424.679	2699.91
424.887	2704
425.094	2902.65
425.302	2853.5
425.51	2994.81
425.718	3160.7
425.925	3140.22
426.133	3326.58
426.341	3543.67
426.548	3617.4
426.756	3560.05
426.964	3697.27
427.171	3814
427.379	3871.34
427.586	4051.56
427.794	4072.04
428.001	4242.03
428.209	4395.62
428.417	4330.09
428.624	4874.85
428.832	4747.87
429.039	4809.31
429.247	4784.74
429.454	5100.12
429.662	5558.87
429.869	5063.26
430.076	5605.97
430.284	5433.94
430.491	5663.32
430.699	5923.41
430.906	5915.22
431.114	5976.66
431.321	6167.12
431.528	6292.04
431.736	6892.1
431.943	7129.66
432.15	6795.84
432.358	7180.86
432.565	7356.99
432.772	7285.31
432.979	7606.84
433.187	7883.31
433.394	7840.31
433.601	8192.56
433.808	8358.44
434.016	8235.57
434.223	8858.15
434.43	9181.73
434.637	9142.82
434.844	9622.04
435.052	9900.56
435.259	9585.18
435.466	9923.09
435.673	9800.21
435.88	10271.25
436.087	10961.41
436.294	10996.23
436.501	10660.36
436.708	10928.64
436.915	11217.41
437.122	11682.3
437.329	11768.31
437.537	12093.94
437.743	12319.21
437.95	12341.74
438.157	12917.22
438.364	13234.66
438.571	13201.89
438.778	13191.65
438.985	14488.01
439.192	14129.62
439.399	14227.92
439.606	14062.04
439.813	14959.05
440.02	15993.27
440.227	15962.55
440.433	15485.37
440.64	15821.24
440.847	15802.81
441.054	16378.29
441.261	17344.93
441.467	17228.2
441.674	17346.98
441.881	18022.81
442.088	18069.91
442.294	17938.84
442.501	18694.54
442.708	19052.94
442.914	19585.41
443.121	20083.06
443.328	19786.11
443.534	21061.99
443.741	20654.45
443.948	20296.05
444.154	21786.97
444.361	21766.49
444.568	22045.02
444.774	21840.22
444.981	22137.18
445.187	22706.51
445.394	23667.01
445.6	23195.98
445.807	25889.06
446.013	24592.69
446.22	25278.76
446.426	26259.74
446.633	26079.52
446.839	27308.3
447.046	26118.43
447.252	27289.87
447.459	27336.97
447.665	27150.6
447.871	28645.62
448.078	29575.4
448.284	28324.09
448.491	28909.81
448.697	30443.74
448.903	30734.55
449.11	30427.35
449.316	30197.98
449.522	31006.93
449.728	31314.12
449.935	31824.07
450.141	31660.23
450.347	32358.59
450.553	31283.41
450.76	31946.95
450.966	32938.16
451.172	32409.79
451.378	33573.03
451.584	32483.51
451.791	33704.1
451.997	33089.71
452.203	33695.91
452.409	33446.06
452.615	33982.63
452.821	32204.99
453.027	31940.8
453.233	33667.24
453.44	32454.84
453.646	32248
453.852	32706.74
454.058	33536.17
454.264	32174.27
454.47	32770.23
454.676	31977.67
454.882	33296.56
455.088	30269.66
455.294	30587.1
455.5	31250.64
455.705	31181.01
455.911	29780.2
456.117	29325.55
456.323	28872.95
456.529	27396.36
456.735	28862.71
456.941	27851.01
457.147	27521.29
457.352	26521.88
457.558	26179.87
457.764	26376.47
457.97	25995.55
458.176	25014.57
458.381	25108.78
458.587	23992.64
458.793	24021.31
458.999	22493.52
459.204	24138.04
459.41	23494.98
459.616	21936.48
459.821	22104.41
460.027	21885.28
460.233	21496.16
460.438	20380.02
460.644	20642.16
460.85	19734.91
461.055	19423.62
461.261	19313.03
461.466	17648.03
461.672	17250.72
461.878	18342.29
462.083	17559.97
462.289	16783.79
462.494	16853.42
462.7	16042.42
462.905	15548.86
463.111	16060.85
463.316	16243.12
463.522	15897.02
463.727	16079.29
463.932	15972.79
464.138	15808.95
464.343	15854.01
464.549	15479.23
464.754	15761.85
464.959	15813.05
465.165	15823.29
465.37	14991.81
465.575	14690.76
465.781	15012.29
465.986	15102.4
466.191	14445.01
466.397	14279.12
466.602	13705.69
466.807	14412.24
467.012	14377.42
467.218	14354.9
467.423	13691.35
467.628	14164.43
467.833	14578.12
468.038	13967.83
468.244	13674.97
468.449	14270.93
468.654	13744.6
468.859	13578.72
469.064	13500.89
469.269	13101.54
469.474	13392.35
469.679	13603.29
469.885	12990.95
470.09	13130.21
470.295	12980.71
470.5	12900.84
470.705	12800.49
470.91	12519.92
471.115	12464.62
471.32	12569.07
471.525	12440.04
471.73	12294.64
471.935	12145.14
472.139	11694.58
472.344	12077.55
472.549	11772.41
472.754	11766.26
472.959	11448.83
473.164	11307.52
473.369	10865.16
473.574	11573.75
473.778	11293.18
473.983	11125.25
474.188	11014.66
474.393	10545.67
474.598	10732.04
474.802	10523.15
475.007	10504.71
475.212	10596.87
475.417	10197.52
475.621	10215.95
475.826	10172.94
476.031	9890.32
476.235	9873.94
476.44	10045.97
476.645	9839.12
476.849	9794.07
477.054	9769.49
477.259	9552.41
477.463	9364
477.668	9306.65
477.872	9374.24
478.077	9183.77
478.282	9212.45
478.486	9001.51
478.691	9067.04
478.895	8839.72
479.1	8905.25
479.304	8831.52
479.509	8493.61
479.713	8696.36
479.918	8682.02
480.122	8348.2
480.326	8622.63
480.531	8466.99
480.735	8460.84
480.94	8393.26
481.144	8596.01
481.348	8274.48
481.553	8307.24
481.757	8208.94
481.961	8417.83
482.166	8372.78
482.37	8297
482.574	8122.93
482.778	8227.37
482.983	8311.34
483.187	8352.3
483.391	8331.82
483.595	8133.17
483.8	8073.78
484.004	8159.79
484.208	8372.78
484.412	8069.68
484.616	8477.23
484.821	8057.39
485.025	8008.24
485.229	8122.93
485.433	7969.33
485.637	8378.92
485.841	8038.96
486.045	8022.58
486.249	8219.18
486.453	8106.54
486.657	8311.34
486.861	8225.33
487.065	8090.16
487.269	8036.91
487.473	8141.36
487.677	8213.04
487.881	8170.03
488.085	7987.76
488.289	8237.61
488.493	8186.41
488.697	8280.62
488.901	8038.96
489.105	8016.43
489.309	8182.32
489.512	8356.4
489.716	8172.08
489.92	8131.12
490.124	8223.28
490.328	8514.09
490.531	8399.4
490.735	8446.51
490.939	8542.76
491.143	8391.21
491.346	8335.92
491.55	8360.49
491.754	8442.41
491.958	8430.12
492.161	8448.55
492.365	8491.56
492.569	8589.86
492.772	8776.23
492.976	8661.54
493.18	8786.47
493.383	8794.66
493.587	8958.5
493.79	8964.64
493.994	8641.06
494.197	8802.85
494.401	8890.91
494.605	9136.67
494.808	9255.45
495.012	9083.42
495.215	9243.17
495.419	9441.82
495.622	9335.32
495.825	9556.5
496.029	9626.14
496.232	9531.93
496.436	9697.81
496.639	10062.35
496.843	9744.92
497.046	9984.53
497.249	10000.91
497.453	10146.32
497.656	10357.26
497.859	10318.35
498.063	10273.29
498.266	10648.07
498.469	10678.79
498.673	10916.36
498.876	10867.2
499.079	10990.08
499.282	10871.3
499.485	11428.35
499.689	11256.32
499.892	11405.82
500.095	11350.53
500.298	12048.88
500.501	11561.47
500.705	12032.5
500.908	12042.74
501.111	12239.34
501.314	12413.42
501.517	12460.52
501.72	12585.45
501.923	12661.23
502.126	12669.42
502.329	13185.51
502.532	13253.09
502.735	12882.41
502.938	13369.82
503.141	13564.38
503.344	13668.83
503.547	13943.25
503.75	13922.77
503.953	14189.01
504.156	14322.13
504.359	14195.15
504.562	14549.45
504.765	14889.42
504.968	15178.18
505.17	15057.35
505.373	15280.58
505.576	15215.04
505.779	15442.37
505.982	15665.6
506.185	15882.68
506.387	15847.86
506.59	16023.99
506.793	16099.76
506.996	16658.86
507.198	16970.15
507.401	16900.52
507.604	16779.69
507.807	17285.54
508.009	17357.22
508.212	17547.68
508.415	17715.61
508.617	17562.01
508.82	17969.56
509.022	18170.26
509.225	18459.02
509.428	18491.79
509.63	18807.18
509.833	18678.16
510.035	19253.64
510.238	19116.42
510.44	19628.42
510.643	19794.3
510.845	20003.19
511.048	19646.85
511.25	19984.76
511.453	20230.52
511.655	21008.75
511.858	20726.13
512.06	21115.24
512.262	21088.62
512.465	21317.99
512.667	21694.82
512.87	21907.8
513.072	21639.52
513.274	22231.38
513.477	22212.95
513.679	22657.36
513.881	22860.11
514.084	22516.05
514.286	22954.32
514.488	23411.01
514.69	24025.4
514.893	23857.47
515.095	23972.16
515.297	24262.97
515.499	24576.31
515.701	24324.41
515.904	24875.31
516.106	24959.28
516.308	25571.62
516.51	25731.36
516.712	25704.74
516.914	26204.44
517.116	26278.17
517.318	26382.62
517.52	26562.84
517.722	26732.82
517.925	26960.14
518.127	27482.38
518.329	27574.53
518.531	27683.08
518.733	27844.87
518.935	28381.43
519.136	28582.13
519.338	28799.22
519.54	28862.71
519.742	29116.65
519.944	29221.1
520.146	29935.84
520.348	29956.32
520.55	30101.73
520.752	30388.44
520.954	31066.32
521.155	30503.13
521.357	31082.7
521.559	31357.13
521.761	31989.95
521.963	31985.86
522.164	32245.95
522.366	31998.15
522.568	32671.93
522.77	32899.25
522.971	33409.2
523.173	32921.78
523.375	33581.23
523.576	33181.87
523.778	33863.85
523.98	34175.14
524.181	34232.48
524.383	34521.24
524.584	34709.66
524.786	35242.13
524.988	34785.43
525.189	35354.77
525.391	36243.59
525.592	35940.49
525.794	36253.83
525.995	35960.97
526.197	36247.68
526.398	36692.09
526.6	36923.51
526.801	36710.52
527.003	37365.87
527.204	37032.05
527.406	37736.55
527.607	37724.27
527.808	38062.18
528.01	37505.13
528.211	37884.01
528.412	38559.84
528.614	38396
528.815	38422.62
529.016	38926.42
529.218	38805.59
529.419	38766.68
529.62	39315.54
529.822	39438.42
530.023	39114.84
530.224	39370.83
530.425	39458.9
530.626	39116.89
530.828	39016.54
531.029	39583.82
531.23	39635.02
531.431	39688.27
531.632	40210.5
531.833	40491.07
532.035	40327.24
532.236	40171.59
532.437	40607.81
532.638	40267.84
532.839	40407.11
533.04	40927.29
533.241	40378.43
533.442	41371.7
533.643	40714.3
533.844	40859.71
534.045	40642.62
534.246	40360
534.447	40792.12
534.648	40597.57
534.849	40886.33
535.05	40802.36
535.251	40820.8
535.451	41400.37
535.652	41283.64
535.853	41279.54
536.054	41383.99
536.255	41492.53
536.456	40990.78
536.657	41740.33
536.857	41060.41
537.058	40654.91
537.259	41875.5
537.46	41535.54
537.66	41046.07
537.861	41695.28
538.062	41005.11
538.263	41502.77
538.463	41285.68
538.664	41601.07
538.865	41441.33
539.065	41349.17
539.266	40958.01
539.466	41515.06
539.667	40986.68
539.868	41590.83
540.068	41273.4
540.269	41058.36
540.469	41680.94
540.67	41111.61
540.87	41478.19
541.071	41441.33
541.271	41574.45
541.472	41289.78
541.672	41218.1
541.873	41345.08
542.073	40437.83
542.274	41826.35
542.474	41240.63
542.675	40966.2
542.875	41558.06
543.075	41687.09
543.276	40630.33
543.476	41535.54
543.676	40695.87
543.877	41437.23
544.077	41320.5
544.277	41091.13
544.478	41261.11
544.678	41148.47
544.878	41457.71
545.078	41109.56
545.279	41097.27
545.479	41222.2
545.679	41795.63
545.879	40998.97
546.079	41574.45
546.28	40904.76
546.48	40888.38
546.68	41189.43
546.88	41300.02
547.08	41171
547.28	41048.12
547.48	40556.61
547.68	41267.25
547.88	41134.13
548.081	41330.74
548.281	41021.5
548.481	40900.67
548.681	41381.94
548.881	41254.97
549.081	41025.59
549.28	40908.86
549.48	41203.77
549.68	41205.81
549.88	41918.51
550.08	40927.29
550.28	40759.36
550.48	41127.99
550.68	41476.15
550.88	40994.87
551.08	41031.74
551.279	40972.35
551.479	41263.16
551.679	40968.25
551.879	41003.06
552.079	40804.41
552.278	40941.63
552.478	40996.92
552.678	41023.54
552.878	40998.97
553.077	40810.56
553.277	40775.74
553.477	41209.91
553.676	40587.33
553.876	40704.06
554.076	40437.83
554.275	40810.56
554.475	40317
554.674	40536.13
554.874	40460.35
555.074	40443.97
555.273	40452.16
555.473	40730.69
555.672	40319.04
555.872	40292.42
556.071	40317
556.271	40392.77
556.47	39684.17
556.67	39819.34
556.869	40192.07
557.068	40003.66
557.268	39786.57
557.467	39999.56
557.667	39231.57
557.866	39733.32
558.065	39620.69
558.265	39467.09
558.464	38991.96
558.663	39616.59
558.863	39104.6
559.062	39368.79
559.261	39016.54
559.461	39329.87
559.66	38504.54
559.859	39047.25
560.058	38545.5
560.258	39102.55
560.457	38109.29
560.656	38768.73
560.855	38344.8
561.054	38527.07
561.253	38492.26
561.453	38180.96
561.652	38547.55
561.851	38416.48
562.05	37533.81
562.249	37599.34
562.448	38205.54
562.647	37841
562.846	37697.64
563.045	37763.18
563.244	37124.21
563.443	38017.13
563.642	36923.51
563.841	37259.38
564.04	37044.34
564.239	37410.93
564.438	36341.89
564.637	37003.38
564.836	36784.25
565.035	36210.82
565.234	36440.19
565.432	36403.33
565.631	35874.95
565.83	36386.94
566.029	35963.01
566.228	35608.72
566.427	35838.09
566.625	35508.36
566.824	35311.76
567.023	35621
567.222	35111.06
567.42	35539.08
567.619	35420.3
567.818	34666.65
568.016	35053.72
568.215	34939.03
568.414	34609.31
568.612	34685.08
568.811	34449.56
569.01	34486.43
569.208	33841.32
569.407	33818.79
569.605	33802.41
569.804	33892.52
570.002	33700.01
570.201	33896.61
570.4	33525.93
570.598	33364.14
570.797	33269.93
570.995	33370.29
571.193	33067.19
571.392	33323.18
571.59	32854.2
571.789	33149.1
571.987	32690.36
572.186	32428.22
572.384	32540.86
572.582	32657.59
572.781	32260.29
572.979	31992
573.177	32225.47
573.376	32118.98
573.574	31934.66
573.772	32252.09
573.971	31664.33
574.169	31197.39
574.367	31207.63
574.565	31529.16
574.763	31445.19
574.962	31064.27
575.16	30957.78
575.358	30990.55
575.556	30664.92
575.754	31408.33
575.952	30130.4
576.151	30765.27
576.349	30058.72
576.547	30560.47
576.745	30548.18
576.943	30382.3
577.141	29978.85
577.339	30226.65
577.537	29749.48
577.735	29935.84
577.933	29759.72
578.131	29548.78
578.329	29419.75
578.527	29413.61
578.725	29356.27
578.923	29296.88
579.121	28942.58
579.319	29106.41
579.516	29018.35
579.714	28936.43
579.912	28844.27
580.11	28745.97
580.308	29094.13
580.506	28580.09
580.704	28508.41
580.901	28590.33
581.099	28487.93
581.297	28123.39
581.495	28309.75
581.692	28502.26
581.89	27971.84
582.088	28225.79
582.285	27973.89
582.483	27812.1
582.681	27812.1
582.878	27420.94
583.076	27341.07
583.274	27296.01
583.471	27259.15
583.669	27443.46
583.866	26978.58
584.064	27289.87
584.262	26798.35
584.459	27339.02
584.657	26954
584.854	27056.4
585.052	26538.26
585.249	27011.34
585.447	26681.62
585.644	26362.14
585.841	26431.77
586.039	26681.62
586.236	25999.65
586.434	26331.42
586.631	26030.37
586.828	26394.9
587.026	25712.93
587.223	25817.38
587.42	25844
587.618	25786.66
587.815	25370.92
588.012	25641.25
588.21	25393.45
588.407	25608.48
588.604	25405.74
588.801	25434.41
588.999	25508.13
589.196	25082.16
589.393	24891.69
589.59	24924.46
589.787	24875.31
589.984	24678.71
590.182	24727.86
590.379	24865.07
590.576	24353.08
590.773	24619.31
590.97	24211.77
591.167	24432.95
591.364	24027.45
591.561	24521.01
591.758	23707.97
591.955	23966.01
592.152	23896.38
592.349	23662.91
592.546	24027.45
592.743	23853.37
592.94	23691.59
593.137	23593.28
593.334	23779.65
593.531	23257.42
593.727	23693.63
593.924	23554.37
594.121	23181.64
594.318	23191.88
594.515	23073.1
594.712	23112.01
594.908	22720.85
595.105	22966.6
595.302	22534.48
595.499	22909.26
595.696	22530.39
595.892	22499.67
596.089	22559.06
596.286	22905.17
596.482	22491.48
596.679	22434.13
596.876	22276.44
597.072	22239.58
597.269	22276.44
597.466	22018.39
597.662	21938.52
597.859	21838.17
598.055	21909.85
598.252	21719.39
598.448	22131.03
598.645	21449.06
598.841	21455.2
599.038	21840.22
599.234	21428.58
599.431	21195.11
599.627	21176.68
599.824	21211.49
600.02	21324.13
600.217	21203.3
600.413	21244.26
600.609	20980.07
600.806	21041.51
601.002	21092.71
601.198	20765.04
601.395	20879.72
601.591	20615.54
601.787	20545.91
601.984	20636.02
602.18	20920.68
602.376	20384.12
602.572	20203.89
602.769	20511.09
602.965	20271.48
603.161	20320.63
603.357	20228.47
603.553	19990.91
603.75	20144.5
603.946	19769.72
604.142	20171.13
604.338	19816.83
604.534	20074.87
604.73	19597.7
604.926	19777.92
605.122	19853.69
605.318	19503.49
605.514	19382.66
605.71	19073.42
605.906	19368.32
606.102	19403.14
606.298	19310.98
606.494	19153.29
606.69	19288.45
606.886	19067.27
607.082	18696.59
607.278	19022.22
607.474	18768.27
607.67	19194.25
607.866	18452.88
608.062	18819.47
608.257	18717.07
608.453	18667.92
608.649	18407.83
608.845	18536.85
609.041	18358.67
609.236	18729.36
609.432	18497.94
609.628	18442.64
609.824	18495.89
610.019	18127.25
610.215	18211.22
610.411	18356.63
610.606	18112.92
610.802	18104.73
610.998	17961.37
611.193	18246.04
611.389	17877.4
611.584	17924.51
611.78	17820.06
611.976	18004.38
612.171	17963.42
612.367	17760.67
612.562	17695.13
612.758	17609.12
612.953	17424.8
613.149	17916.31
613.344	17410.47
613.539	17674.65
613.735	17527.2
613.93	17355.17
614.126	17217.96
614.321	17402.27
614.517	17584.54
614.712	17023.4
614.907	17215.91
615.103	17445.28
615.298	17283.49
615.493	17285.54
615.688	17248.68
615.884	17510.82
616.079	17105.32
616.274	16902.57
616.47	16785.83
616.665	17265.06
616.86	16933.29
617.055	16904.62
617.25	16560.56
617.445	16755.11
617.641	16529.84
617.836	16953.77
618.031	16540.08
618.226	16685.48
618.421	16357.81
618.616	16515.5
618.811	16216.5
619.006	16636.33
619.201	16165.3
619.396	16333.23
619.591	15815.1
619.786	16103.86
619.981	15942.07
620.176	16101.81
620.371	15843.77
620.566	15987.13
620.761	15688.12
620.956	15813.05
621.151	15372.74
621.346	15503.81
621.541	15317.44
621.735	15546.81
621.93	15221.19
622.125	15495.61
622.32	15053.25
622.515	15088.07
622.709	15233.47
622.904	14934.47
623.099	14938.57
623.294	14897.61
623.488	14643.66
623.683	14692.81
623.878	14528.97
624.072	14662.09
624.267	14694.86
624.462	14270.93
624.656	14236.11
624.851	14348.75
625.046	14113.24
625.24	13918.68
625.435	14068.18
625.629	14074.32
625.824	13799.9
626.018	13820.38
626.213	13500.89
626.407	13709.79
626.602	13373.92
626.796	13433.31
626.991	13566.43
627.185	13373.92
627.38	13337.06
627.574	13261.28
627.768	12825.06
627.963	13261.28
628.157	12872.17
628.352	12958.18
628.546	12800.49
628.74	12956.13
628.935	12667.37
629.129	12784.1
629.323	12567.02
629.517	12394.99
629.712	12452.33
629.906	12390.89
630.1	12143.09
630.294	12317.17
630.489	12251.63
630.683	12311.02
630.877	12093.94
631.071	11940.34
631.265	11936.24
631.459	11876.85
631.653	11780.6
631.848	11696.63
632.042	11708.92
632.236	11702.78
632.43	11465.21
632.624	11532.79
632.818	11508.22
633.012	11233.79
633.206	11309.57
633.4	11375.1
633.594	11090.43
633.788	11252.22
633.982	11137.54
634.176	10965.51
634.369	10932.74
634.563	10914.31
634.757	10848.77
634.951	10820.1
635.145	10846.73
635.339	10654.22
635.533	10549.77
635.726	10654.22
635.92	10433.04
636.114	10590.73
636.308	10605.06
636.501	10433.04
636.695	10492.43
636.889	10271.25
637.083	10207.76
637.276	10066.45
637.47	10002.96
637.664	10111.5
637.857	10125.84
638.051	9867.8
638.244	10000.91
638.438	9900.56
638.632	9835.03
638.825	9546.26
639.019	9515.55
639.212	9425.43
639.406	9808.41
639.599	9458.2
639.793	9443.87
639.986	9277.98
640.18	9456.15
640.373	9413.15
640.567	9325.08
640.76	9132.58
640.954	9044.51
641.147	9089.57
641.34	9204.25
641.534	8991.27
641.727	9165.34
641.92	8806.95
642.114	8774.18
642.307	8815.14
642.5	8647.21
642.694	8825.38
642.887	8751.65
643.08	8630.82
643.273	8604.2
643.467	8593.96
643.66	8546.86
643.853	8548.9
644.046	8284.72
644.239	8415.79
644.432	8358.44
644.626	8317.48
644.819	8157.74
645.012	8202.8
645.205	8200.75
645.398	8057.39
645.591	8245.8
645.784	8247.85
645.977	8059.44
646.17	8024.62
646.363	7934.51
646.556	7678.52
646.749	7776.82
646.942	7793.2
647.135	7760.44
647.328	7922.23
647.521	7811.64
647.714	7408.19
647.907	7594.55
648.099	7522.87
648.292	7467.58
648.485	7561.78
648.678	7410.23
648.871	7414.33
649.064	7365.18
649.256	7307.84
649.449	7221.82
649.642	7199.29
649.835	7309.88
650.027	7221.82
650.22	7121.47
650.413	7002.69
650.605	7125.57
650.798	7021.12
650.991	7088.7
651.183	6992.45
651.376	6902.34
651.568	6939.2
651.761	6955.58
651.954	6840.9
652.146	6689.35
652.339	6777.41
652.531	6793.8
652.724	6783.56
652.916	6654.53
653.109	6490.7
653.301	6533.7
653.494	6515.27
653.686	6376.01
653.879	6607.43
654.071	6607.43
654.263	6537.8
654.456	6441.54
654.648	6439.5
654.84	6249.04
655.033	6283.85
655.225	6367.82
655.417	6193.74
655.61	6328.91
655.802	6273.61
655.994	6187.6
656.186	6292.04
656.379	6167.12
656.571	6068.81
656.763	6122.06
656.955	6044.24
657.148	5976.66
657.34	6081.1
657.532	5878.35
657.724	5902.93
657.916	6029.9
658.108	6005.33
658.3	5737.04
658.492	5823.06
658.684	5827.15
658.876	5651.03
659.068	5784.15
659.26	5757.52
659.452	5567.06
659.644	5648.98
659.836	5526.1
660.028	5661.27
660.22	5493.33
660.412	5624.4
660.604	5452.38
660.796	5583.45
660.988	5636.69
661.18	5360.22
661.372	5317.21
661.563	5401.18
661.755	5452.38
661.947	5431.9
662.139	5370.46
662.331	5388.89
662.522	5165.66
662.714	5210.72
662.906	5378.65
663.097	5268.06
663.289	5272.15
663.481	5276.25
663.673	5280.35
663.864	5161.56
664.056	5202.52
664.247	5091.93
664.439	5034.59
664.631	5286.49
664.822	5171.8
665.014	5067.36
665.205	5124.7
665.397	5171.8
665.588	4993.63
665.78	4983.39
665.971	5018.21
666.163	5048.93
666.354	4901.47
666.546	4870.75
666.737	5030.49
666.929	5046.88
667.12	5014.11
667.311	5081.69
667.503	4844.13
667.694	4919.9
667.885	4819.55
668.077	4919.9
668.268	4934.24
668.459	4897.38
668.651	4821.6
668.842	4706.91
669.033	4940.38
669.224	4895.33
669.416	4913.76
669.607	4842.08
669.798	4833.89
669.989	4770.4
670.18	4670.05
670.371	4723.3
670.563	4825.7
670.754	4805.22
670.945	4813.41
671.136	4878.94
671.327	4616.8
671.518	4731.49
671.709	4858.46
671.9	4778.59
672.091	4776.55
672.282	4715.11
672.473	4780.64
672.664	4571.75
672.855	4850.27
673.046	4688.48
673.237	4723.3
673.428	4608.61
673.619	4831.84
673.809	4813.41
674	4694.63
674.191	4706.91
674.382	4647.52
674.573	4538.98
674.764	4772.45
674.954	4653.67
675.145	4596.32
675.336	4747.87
675.527	4700.77
675.717	4801.12
675.908	4780.64
676.099	4778.59
676.289	4674.15
676.48	4706.91
676.671	4764.26
676.861	4837.98
677.052	4858.46
677.243	4844.13
677.433	4788.83
677.624	4751.97
677.814	4819.55
678.005	4856.42
678.195	4876.9
678.386	4751.97
678.576	4811.36
678.767	5040.73
678.957	4940.38
679.148	5206.62
679.338	4964.96
679.529	4967.01
679.719	4985.44
679.909	4934.24
680.1	5083.74
680.29	5003.87
680.481	4930.14
680.671	5112.41
680.861	4958.82
681.052	5042.78
681.242	4919.9
681.432	5190.24
681.622	4897.38
681.813	5010.01
682.003	5077.6
682.193	5012.06
682.383	5165.66
682.573	5247.58
682.764	5003.87
682.954	5087.84
683.144	5042.78
683.334	5157.47
683.524	5200.48
683.714	5319.26
683.904	5030.49
684.094	5014.11
684.284	5268.06
684.474	5335.64
684.664	5157.47
684.854	5255.77
685.044	4993.63
685.234	5075.55
685.424	5392.98
685.614	5136.99
685.804	5059.17
685.994	5220.95
686.184	5116.51
686.374	4985.44
686.564	5149.28
686.753	5155.42
686.943	5100.12
687.133	5114.46
687.323	4885.09
687.513	5026.4
687.702	4997.73
687.892	5077.6
688.082	4891.23
688.272	4899.42
688.461	4862.56
688.651	4901.47
688.841	4778.59
689.03	4915.81
689.22	4786.79
689.41	4756.07
689.599	4889.18
689.789	4819.55
689.979	4842.08
690.168	4647.52
690.358	4719.2
690.547	4741.73
690.737	4633.19
690.926	4538.98
691.116	4604.52
691.305	4436.58
691.495	4575.84
691.684	4541.03
691.874	4518.5
692.063	4493.93
692.252	4332.14
692.442	4514.41
692.631	4313.7
692.82	4403.82
693.01	4379.24
693.199	4321.9
693.388	4352.62
693.578	4196.97
693.767	4346.47
693.956	4239.98
694.146	4172.4
694.335	4141.68
694.524	4254.31
694.713	4182.63
694.902	4164.2
695.092	4203.11
695.281	4088.43
695.47	3990.13
695.659	4041.32
695.848	4084.33
696.037	4092.52
696.226	4018.8
696.415	3818.1
696.604	4022.89
696.793	3910.25
696.982	3988.08
697.171	4033.13
697.36	3916.4
697.549	3924.59
697.738	3912.3
697.927	3832.43
698.116	3930.73
698.305	3945.07
698.494	4022.89
698.683	3838.58
698.872	4117.1
699.061	3822.19
699.25	3801.71
699.438	3781.23
699.627	3912.3
699.816	3961.45
700.005	3973.74
700.193	3873.39
700.382	3887.73
700.571	3961.45
700.76	3889.78
700.948	3854.96
701.137	3920.49
701.326	3797.62
701.514	3814
701.703	3897.97
701.892	3893.87
702.08	3910.25
702.269	3867.25
702.457	3719.79
702.646	3943.02
702.834	3957.36
703.023	3811.95
703.212	3963.5
703.4	3920.49
703.589	3773.04
703.777	3943.02
703.965	3881.58
704.154	3879.54
704.342	3953.26
704.531	4043.37
704.719	3822.19
704.907	4037.23
705.096	3836.53
705.284	3869.3
705.472	3977.84
705.661	3949.17
705.849	4067.95
706.037	3977.84
706.226	3977.84
706.414	3842.67
706.602	3961.45
706.79	4076.14
706.979	3990.13
707.167	4049.52
707.355	4047.47
707.543	4074.09
707.731	4137.58
707.919	4274.79
708.107	4055.66
708.296	4207.21
708.484	4078.19
708.672	4106.86
708.86	4188.78
709.048	4141.68
709.236	4252.27
709.424	4278.89
709.612	4297.32
709.8	4235.88
709.988	4229.74
710.176	4272.75
710.364	4301.42
710.551	4270.7
710.739	4336.23
710.927	4264.55
711.115	4440.68
711.303	4366.95
711.491	4418.15
711.679	4317.8
711.866	4366.95
712.054	4444.77
712.242	4461.16
712.43	4438.63
712.617	4375.14
712.805	4362.86
712.993	4518.5
713.181	4420.2
713.368	4555.37
713.556	4555.37
713.744	4592.23
713.931	4655.72
714.119	4778.59
714.306	4723.3
714.494	4610.66
714.682	4749.92
714.869	4598.37
715.057	4657.76
715.244	4866.66
715.432	4803.17
715.619	4711.01
715.807	4721.25
715.994	4758.11
716.182	4764.26
716.369	4833.89
716.556	4926.05
716.744	4745.83
716.931	4991.58
717.119	4938.34
717.306	4942.43
717.493	5098.08
717.681	4883.04
717.868	5057.12
718.055	5001.82
718.242	4995.68
718.43	5243.48
718.617	5038.69
718.804	5100.12
718.991	5071.45
719.179	5218.91
719.366	5065.31
719.553	5161.56
719.74	5225.05
719.927	5288.54
720.114	5218.91
720.301	5354.07
720.488	5296.73
720.676	5341.79
720.863	5431.9
721.05	5372.5
721.237	5175.9
721.424	5466.71
721.611	5440.09
721.798	5263.96
721.985	5491.29
722.172	5362.26
722.358	5356.12
722.545	5530.2
722.732	5493.33
722.919	5599.83
723.106	5548.63
723.293	5481.05
723.48	5499.48
723.667	5517.91
723.853	5589.59
724.04	5804.63
724.227	5837.39
724.414	5663.32
724.6	5601.88
724.787	5788.24
724.974	5780.05
725.161	5847.63
725.347	5696.08
725.534	5804.63
725.72	5792.34
725.907	5763.67
726.094	5919.31
726.28	5884.5
726.467	5833.3
726.653	5941.84
726.84	5880.4
727.027	6017.61
727.213	5988.94
727.4	5972.56
727.586	5919.31
727.773	6107.73
727.959	5915.22
728.145	6214.22
728.332	6081.1
728.518	6187.6
728.705	6163.02
728.891	6095.44
729.077	6107.73
729.264	6140.49
729.45	5999.18
729.636	6203.98
729.823	6089.29
730.009	6253.13
730.195	6240.84
730.382	6261.32
730.568	6206.03
730.754	6361.67
730.94	6326.86
731.126	6333
731.313	6394.44
731.499	6322.76
731.685	6365.77
731.871	6316.62
732.057	6296.14
732.243	6472.26
732.429	6312.52
732.615	6498.89
732.801	6357.58
732.987	6445.64
733.173	6300.23
733.359	6251.08
733.545	6431.3
733.731	6429.26
733.917	6406.73
734.103	6525.51
734.289	6670.92
734.475	6384.2
734.661	6636.1
734.847	6494.79
735.033	6273.61
735.219	6394.44
735.404	6644.29
735.59	6480.46
735.776	6525.51
735.962	6533.7
736.148	6433.35
736.333	6619.72
736.519	6476.36
736.705	6513.22
736.89	6472.26
737.076	6509.13
737.262	6462.02
737.447	6234.7
737.633	6453.83
737.819	6509.13
738.004	6410.82
738.19	6558.28
738.375	6451.78
738.561	6472.26
738.747	6359.63
738.932	6449.74
739.118	6419.02
739.303	6505.03
739.489	6349.39
739.674	6376.01
739.859	6451.78
740.045	6398.54
740.23	6400.58
740.416	6318.67
740.601	6425.16
740.786	6437.45
740.972	6318.67
741.157	6361.67
741.342	6302.28
741.528	6267.47
741.713	6343.24
741.898	6283.85
742.084	6136.4
742.269	6333
742.454	6197.84
742.639	6300.23
742.824	6195.79
743.01	6390.35
743.195	6173.26
743.38	6298.19
743.565	6203.98
743.75	6160.97
743.935	6005.33
744.12	6048.33
744.305	6027.85
744.49	5990.99
744.675	5882.45
744.86	6005.33
745.045	5907.02
745.23	5970.51
745.415	5847.63
745.6	5896.78
745.785	5698.13
745.97	5847.63
746.155	5915.22
746.34	5737.04
746.525	5726.8
746.71	5876.31
746.895	5491.29
747.079	5585.49
747.264	5599.83
747.449	5640.79
747.634	5616.21
747.819	5579.35
748.003	5446.23
748.188	5620.31
748.373	5470.81
748.557	5280.35
748.742	5438.04
748.927	5485.14
749.111	5343.83
749.296	5190.24
749.481	5245.53
749.665	5214.81
749.85	5241.43
750.034	5212.76
750.219	5034.59
750.404	5098.08
750.588	5073.5
750.773	5143.13
750.957	4899.42
751.141	5059.17
751.326	4872.8
751.51	4817.51
751.695	4813.41
751.879	4821.6
752.064	4835.94
752.248	4872.8
752.432	4844.13
752.617	4663.91
752.801	4721.25
752.985	4440.68
753.17	4586.08
753.354	4625
753.538	4561.51
753.722	4485.73
753.907	4436.58
754.091	4452.97
754.275	4336.23
754.459	4364.9
754.643	4194.92
754.828	4305.51
755.012	4194.92
755.196	4291.18
755.38	4074.09
755.564	4256.36
755.748	4065.9
755.932	4242.03
756.116	4092.52
756.3	4010.61
756.484	3932.78
756.668	4125.29
756.852	3854.96
757.036	4008.56
757.22	3936.88
757.404	3945.07
757.588	3838.58
757.772	3779.18
757.956	3660.4
758.14	3861.1
758.323	3754.61
758.507	3762.8
758.691	3627.64
758.875	3639.92
759.059	3633.78
759.242	3670.64
759.426	3484.28
759.61	3703.41
759.794	3349.11
759.977	3564.15
760.161	3441.27
760.345	3478.13
760.528	3564.15
760.712	3453.56
760.895	3363.45
761.079	3394.17
761.263	3328.63
761.446	3314.3
761.63	3293.82
761.813	3146.36
761.997	3281.53
762.18	3410.55
762.364	3160.7
762.547	3328.63
762.731	3244.67
762.914	3164.79
763.098	3062.4
763.281	3177.08
763.464	3029.63
763.648	3107.45
763.831	3199.61
764.015	3084.92
764.198	2947.71
764.381	3019.39
764.564	2994.81
764.748	3035.77
764.931	2970.24
765.114	2855.55
765.297	3019.39
765.481	2910.85
765.664	2898.56
765.847	2820.74
766.03	2869.89
766.213	2779.78
766.397	2992.76
766.58	2878.08
766.763	2921.09
766.946	2929.28
767.129	2747.01
767.312	2710.15
767.495	2761.34
767.678	2749.06
767.861	2853.5
768.044	2781.82
768.227	2673.28
768.41	2646.66
768.593	2667.14
768.776	2753.15
768.959	2609.79
769.142	2679.43
769.324	2642.56
769.507	2644.61
769.69	2650.75
769.873	2486.92
770.056	2640.51
770.239	2484.87
770.421	2519.68
770.604	2581.12
770.787	2478.72
770.97	2452.1
771.152	2443.91
771.335	2486.92
771.518	2445.96
771.7	2454.15
771.883	2452.1
772.066	2370.18
772.248	2376.33
772.431	2413.19
772.613	2405
772.796	2314.89
772.978	2288.26
773.161	2437.77
773.343	2232.97
773.526	2351.75
773.708	2245.26
773.891	2093.71
774.073	2249.35
774.256	2232.97
774.438	2271.88
774.621	2060.94
774.803	2124.43
774.985	2157.19
775.168	2110.09
775.35	2032.27
775.532	2159.24
775.715	2134.67
775.897	2073.23
776.079	2126.47
776.261	2042.51
776.444	2105.99
776.626	1917.58
776.808	1921.68
776.99	1831.57
777.173	1968.78
777.355	1954.44
777.537	1960.59
777.719	1880.72
777.901	1786.51
778.083	1800.85
778.265	1854.09
778.447	1903.25
778.629	1716.88
778.811	1815.18
778.993	1733.26
779.175	1714.83
779.357	1733.26
779.539	1749.65
779.721	1632.91
779.903	1684.11
780.085	1716.88
780.267	1628.82
780.449	1716.88
780.631	1688.21
780.812	1614.48
780.994	1659.54
781.176	1569.43
781.358	1477.27
781.54	1538.71
781.721	1479.32
781.903	1512.08
782.085	1634.96
782.267	1503.89
782.448	1479.32
782.63	1548.95
782.812	1518.23
782.993	1567.38
783.175	1438.36
783.357	1421.97
783.538	1438.36
783.72	1360.53
783.901	1385.11
784.083	1364.63
784.264	1370.77
784.446	1325.72
784.627	1368.73
784.809	1301.14
784.99	1274.52
785.172	1346.2
785.353	1217.18
785.535	1270.42
785.716	1219.22
785.897	1202.84
786.079	1295
786.26	1198.74
786.441	1225.37
786.623	1114.78
786.804	1217.18
786.985	1127.07
787.167	1190.55
787.348	1149.59
787.529	1161.88
787.71	1184.41
787.891	1135.26
788.073	1127.07
788.254	1051.29
788.435	1149.59
788.616	1135.26
788.797	1118.87
788.978	1127.07
789.159	1114.78
789.34	1102.49
789.522	1051.29
789.703	1026.71
789.884	955.04
790.065	1094.3
790.246	1020.57
790.427	979.61
790.607	1135.26
790.788	971.42
790.969	901.79
791.15	1125.02
791.331	934.56
791.512	946.84
791.693	840.35
791.874	946.84
792.054	946.84
792.235	1028.76
792.416	969.37
792.597	950.94
792.778	895.64
792.958	914.08
793.139	905.88
793.32	916.12
793.5	799.39
793.681	952.99
793.862	920.22
794.042	795.29
794.223	830.11
794.404	785.05
794.584	828.06
794.765	774.81
794.945	905.88
795.126	799.39
795.306	826.01
795.487	762.53
795.667	758.43
795.848	780.96
796.028	854.69
796.209	834.21
796.389	766.62
796.57	723.62
796.75	832.16
796.93	823.97
797.111	819.87
797.291	758.43
797.471	774.81
797.652	750.24
797.832	709.28
798.012	823.97
798.192	740
798.373	797.34
798.553	723.62
798.733	707.23
798.913	682.66
799.093	682.66
799.274	721.57
799.454	639.65
799.634	729.76
799.814	670.37
799.994	610.98
800.174	813.73
800.354	651.94
800.534	692.9
800.714	703.14
800.894	737.95
801.074	660.13
801.254	666.27
801.434	594.59
801.614	668.32
801.794	545.44
801.974	1381.01
802.154	594.59
802.334	688.8
802.514	600.74
802.693	629.41
802.873	627.36
803.053	613.03
803.233	504.48
803.413	541.35
803.592	647.84
803.772	561.83
803.952	584.35
804.131	574.11
804.311	619.17
804.491	656.03
804.67	529.06
804.85	508.58
805.03	610.98
805.209	633.5
805.389	492.2
805.568	586.4
805.748	490.15
805.928	524.96
806.107	590.5
806.287	625.31
806.466	582.31
806.646	508.58
806.825	559.78
807.004	572.07
807.184	502.43
807.363	527.01
807.543	488.1
807.722	455.33
807.901	508.58
808.081	553.63
808.26	504.48
808.439	504.48
808.619	543.39
808.798	529.06
808.977	479.91
809.156	492.2
809.336	496.29
809.515	488.1
809.694	414.37
809.873	488.1
810.052	449.19
810.231	531.11
810.411	447.14
810.59	586.4
810.769	422.56
810.948	512.67
811.127	441
811.306	406.18
811.485	449.19
811.664	506.53
811.843	484
812.022	461.48
812.201	473.76
812.38	463.52
812.559	352.93
812.737	422.56
812.916	412.32
813.095	443.04
813.274	449.19
813.453	393.89
813.632	381.6
813.811	434.85
813.989	357.03
814.168	385.7
814.347	406.18
814.526	484
814.704	436.9
814.883	438.95
815.062	373.41
815.24	465.57
815.419	365.22
815.598	443.04
815.776	299.69
815.955	357.03
816.133	346.79
816.312	379.56
816.49	342.69
816.669	387.75
816.847	406.18
817.026	357.03
817.204	342.69
817.383	303.78
817.561	373.41
817.74	445.09
817.918	369.32
818.097	348.84
818.275	311.97
818.453	397.99
818.632	428.71
818.81	414.37
818.988	373.41
819.167	373.41
819.345	404.13
819.523	361.13
819.701	336.55
819.879	369.32
820.058	389.8
820.236	283.3
820.414	281.25
820.592	340.65
820.77	305.83
820.948	434.85
821.127	348.84
821.305	363.17
821.483	365.22
821.661	416.42
821.839	299.69
822.017	332.45
822.195	268.97
822.373	316.07
822.551	311.97
822.729	365.22
822.907	322.21
823.085	385.7
823.262	318.12
823.44	318.12
823.618	299.69
823.796	328.36
823.974	201.38
824.152	295.59
824.329	297.64
824.507	279.21
824.685	287.4
824.863	266.92
825.04	297.64
825.218	367.27
825.396	242.34
825.574	357.03
825.751	326.31
825.929	273.06
826.107	340.65
826.284	309.93
826.462	266.92
826.639	209.58
826.817	238.25
826.994	246.44
827.172	193.19
827.349	275.11
827.527	307.88
827.704	279.21
827.882	254.63
828.059	258.73
828.237	256.68
828.414	326.31
828.591	185
828.769	277.16
828.946	199.34
829.124	271.01
829.301	225.96
829.478	217.77
829.655	316.07
829.833	301.73
830.01	164.52
830.187	287.4
830.364	260.77
830.542	207.53
830.719	264.87
830.896	238.25
831.073	240.29
831.25	301.73
831.427	217.77
831.604	178.86
831.782	193.19
831.959	295.59
832.136	266.92
832.313	213.67
832.49	225.96
832.667	291.49
832.844	201.38
833.021	213.67
833.198	289.45
833.374	201.38
833.551	283.3
833.728	189.1
833.905	225.96
834.082	160.42
834.259	254.63
834.436	197.29
834.612	185
834.789	219.82
834.966	217.77
835.143	242.34
835.319	217.77
835.496	217.77
835.673	232.1
835.85	205.48
836.026	174.76
836.203	256.68
836.38	103.08
836.556	98.99
836.733	111.27
836.909	271.01
837.086	164.52
837.262	125.61
837.439	225.96
837.616	139.94
837.792	234.15
837.968	121.51
838.145	168.62
838.321	185
838.498	201.38
838.674	223.91
838.851	207.53
839.027	164.52
839.203	123.56
839.38	170.66
839.556	129.7
839.732	189.1
839.909	203.43
840.085	174.76
840.261	101.03
840.437	119.46
840.614	137.9
840.79	92.84
840.966	217.77
841.142	127.66
841.318	150.18
841.494	191.14
841.671	113.32
841.847	133.8
842.023	174.76
842.199	185
842.375	197.29
842.551	139.94
842.727	90.79
842.903	250.53
843.079	111.27
843.255	144.04
843.431	211.62
843.607	160.42
843.783	72.36
843.959	131.75
844.134	119.46
844.31	203.43
844.486	66.22
844.662	139.94
844.838	172.71
845.013	170.66
845.189	160.42
845.365	221.86
845.541	125.61
845.716	96.94
845.892	150.18
846.068	115.37
846.244	131.75
846.419	144.04
846.595	35.5
846.77	123.56
846.946	209.58
847.122	135.85
847.297	156.33
847.473	176.81
847.648	109.22
847.824	94.89
847.999	135.85
848.175	92.84
848.35	144.04
848.526	193.19
848.701	109.22
848.876	123.56
849.052	98.99
849.227	94.89
849.403	172.71
849.578	107.18
849.753	62.12
849.929	144.04
850.104	107.18
850.279	156.33
850.454	86.7
850.63	160.42
850.805	68.27
850.98	109.22
851.155	115.37
851.33	90.79
851.505	41.64
851.681	78.51
851.856	43.69
852.031	51.88
852.206	117.42
852.381	78.51
852.556	127.66
852.731	101.03
852.906	92.84
853.081	127.66
853.256	115.37
853.431	121.51
853.606	62.12
853.781	109.22
853.956	-3.41
854.131	129.7
854.305	125.61
854.48	68.27
854.655	29.35
854.83	152.23
855.005	45.74
855.18	129.7
855.354	113.32
855.529	58.03
855.704	8.87
855.879	72.36
856.053	45.74
856.228	127.66
856.403	88.75
856.577	86.7
856.752	180.9
856.926	23.21
857.101	92.84
857.276	53.93
857.45	21.16
857.625	103.08
857.799	92.84
857.974	94.89
858.148	68.27
858.323	90.79
858.497	103.08
858.672	86.7
858.846	53.93
859.02	94.89
859.195	92.84
859.369	80.55
859.543	123.56
859.718	58.03
859.892	68.27
860.066	103.08
860.241	68.27
860.415	70.31
860.589	19.11
860.763	66.22
860.938	78.51
861.112	131.75
861.286	6.83
861.46	158.38
861.634	141.99
861.808	58.03
861.982	96.94
862.157	41.64
862.331	74.41
862.505	60.07
862.679	53.93
862.853	41.64
863.027	8.87
863.201	70.31
863.375	-13.65
863.549	98.99
863.722	133.8
863.896	80.55
864.07	0.68
864.244	31.4
864.418	131.75
864.592	92.84
864.766	168.62
864.939	41.64
865.113	60.07
865.287	103.08
865.461	45.74
865.634	70.31
865.808	72.36
865.982	37.55
866.156	-19.8
866.329	84.65
866.503	27.31
866.676	80.55
866.85	94.89
867.024	62.12
867.197	125.61
867.371	29.35
867.544	113.32
867.718	6.83
867.891	60.07
868.065	17.07
868.238	21.16
868.412	86.7
868.585	78.51
868.759	15.02
868.932	-19.8
869.105	17.07
869.279	37.55
869.452	2.73
869.625	127.66
869.799	2.73
869.972	4.78
870.145	119.46
870.319	119.46
870.492	-11.61
870.665	58.03
870.838	72.36
871.011	-36.18
871.185	-21.85
871.358	43.69
871.531	109.22
871.704	-32.08
871.877	70.31
872.05	45.74
872.223	25.26
872.396	78.51
872.569	80.55
872.742	-11.61
872.915	70.31
873.088	35.5
873.261	135.85
873.434	72.36
873.607	60.07
873.78	23.21
873.953	-19.8
874.126	33.45
874.299	68.27
874.471	68.27
874.644	-5.46
874.817	21.16
874.99	45.74
875.163	78.51
875.335	111.27
875.508	60.07
875.681	31.4
875.853	58.03
876.026	45.74
876.199	64.17
876.371	45.74
876.544	15.02
876.717	68.27
876.889	-19.8
877.062	133.8
877.234	21.16
877.407	17.07
877.579	58.03
877.752	29.35
877.924	-3.41
878.097	80.55
878.269	-23.89
878.442	55.98
878.614	94.89
878.786	12.97
878.959	39.59
879.131	8.87
879.303	-19.8
879.476	-3.41
879.648	4.78
879.82	76.46
879.993	29.35
880.165	10.92
880.337	17.07
880.509	53.93
880.681	-48.47
880.854	-7.51
881.026	29.35
881.198	127.66
881.37	49.83
881.542	53.93
881.714	-38.23
881.886	53.93
882.058	-27.99
882.23	25.26
882.402	-1.37
882.574	29.35
882.746	21.16
882.918	-5.46
883.09	-44.37
883.262	58.03
883.434	-5.46
883.606	0.68
883.778	37.55
883.95	111.27
884.122	-27.99
884.293	25.26
884.465	19.11
884.637	-3.41
884.809	19.11
884.98	78.51
885.152	27.31
885.324	101.03
885.496	4.78
885.667	0.68
885.839	103.08
886.011	135.85
886.182	31.4
886.354	2.73
886.525	21.16
886.697	0.68
886.869	-52.56
887.04	8.87
887.212	45.74
887.383	12.97
887.555	8.87
887.726	-48.47
887.897	15.02
888.069	135.85
888.24	-11.61
888.412	-36.18
888.583	-11.61
888.754	-5.46
888.926	-93.52
889.097	-7.51
889.268	8.87
889.44	15.02
889.611	-27.99
889.782	-11.61
889.953	4.78
890.125	86.7
890.296	-89.43
890.467	21.16
890.638	19.11
890.809	-48.47
890.98	-27.99
891.151	-11.61
891.323	23.21
891.494	19.11
891.665	47.79
891.836	17.07
892.007	51.88
892.178	60.07
892.349	60.07
892.52	2.73
892.691	-5.46
892.862	45.74
893.032	-19.8
893.203	43.69
893.374	115.37
893.545	74.41
893.716	-38.23
893.887	113.32
894.057	-11.61
894.228	27.31
894.399	-21.85
894.57	62.12
894.74	10.92
894.911	-21.85
895.082	0.68
895.253	12.97
895.423	6.83
895.594	68.27
895.764	37.55
895.935	12.97
896.106	103.08
896.276	17.07
896.447	27.31
896.617	-36.18
896.788	-13.65
896.958	-15.7
897.129	2.73
897.299	53.93
897.47	58.03
897.64	-54.61
897.81	12.97
897.981	-19.8
898.151	-44.37
898.322	-42.32
898.492	70.31
898.662	27.31
898.832	-38.23
899.003	62.12
899.173	4.78
899.343	29.35
899.513	-30.04
