Data from USB4F104151__74__11-31-36-904.txt Node

Date: Fri Mar 14 11:31:36 EDT 2025
User: louis
Spectrometer: USB4F10415
Trigger mode: 4
Integration Time (sec): 5.000000E-2
Scans to average: 1
Electric dark correction enabled: true
Nonlinearity correction enabled: false
Boxcar width: 0
XAxis mode: Wavelengths
Number of Pixels in Spectrum: 3648
>>>>>Begin Spectral Data<<<<<
178.204	-145.41
178.424	-145.41
178.644	-145.41
178.864	-188.41
179.084	-135.17
179.304	6.14
179.524	12.29
179.744	-16.38
179.964	34.82
180.184	-32.77
180.404	55.3
180.624	-28.67
180.844	-2.05
181.064	-20.48
181.283	-22.53
181.503	-28.67
181.723	43.01
181.943	-83.97
182.163	94.21
182.383	-2.05
182.602	96.25
182.822	81.92
183.042	28.67
183.262	-34.82
183.482	34.82
183.701	34.82
183.921	36.86
184.141	14.34
184.361	49.15
184.58	18.43
184.8	129.02
185.02	-10.24
185.239	104.45
185.459	-24.58
185.679	135.17
185.898	-30.72
186.118	57.34
186.338	69.63
186.557	83.97
186.777	22.53
186.997	47.1
187.216	-30.72
187.436	49.15
187.655	30.72
187.875	4.1
188.095	20.48
188.314	59.39
188.534	135.17
188.753	-2.05
188.973	-24.58
189.192	79.87
189.412	30.72
189.631	67.58
189.851	20.48
190.07	96.25
190.29	-30.72
190.509	63.49
190.729	6.14
190.948	86.01
191.168	61.44
191.387	79.87
191.607	-22.53
191.826	-34.82
192.045	47.1
192.265	28.67
192.484	67.58
192.704	30.72
192.923	-22.53
193.142	116.73
193.362	69.63
193.581	67.58
193.8	14.34
194.02	116.73
194.239	4.1
194.458	-4.1
194.678	22.53
194.897	43.01
195.116	51.2
195.335	-22.53
195.555	-14.34
195.774	4.1
195.993	38.91
196.212	26.62
196.432	8.19
196.651	6.14
196.87	47.1
197.089	129.02
197.308	20.48
197.528	69.63
197.747	10.24
197.966	49.15
198.185	106.49
198.404	28.67
198.623	133.12
198.842	116.73
199.062	145.41
199.281	47.1
199.5	116.73
199.719	16.38
199.938	63.49
200.157	59.39
200.376	51.2
200.595	-2.05
200.814	83.97
201.033	112.64
201.252	75.77
201.471	38.91
201.69	83.97
201.909	120.83
202.128	104.45
202.347	61.44
202.566	22.53
202.785	40.96
203.004	38.91
203.223	47.1
203.442	6.14
203.661	-20.48
203.879	61.44
204.098	102.4
204.317	12.29
204.536	79.87
204.755	30.72
204.974	36.86
205.193	104.45
205.411	110.59
205.63	22.53
205.849	94.21
206.068	38.91
206.287	-36.86
206.505	34.82
206.724	32.77
206.943	-16.38
207.162	-6.14
207.381	-20.48
207.599	-6.14
207.818	67.58
208.037	49.15
208.255	20.48
208.474	81.92
208.693	2.05
208.911	34.82
209.13	63.49
209.349	104.45
209.567	36.86
209.786	34.82
210.005	30.72
210.223	-28.67
210.442	-0
210.661	32.77
210.879	-4.1
211.098	77.82
211.316	61.44
211.535	55.3
211.753	14.34
211.972	47.1
212.191	22.53
212.409	28.67
212.628	83.97
212.846	51.2
213.065	61.44
213.283	116.73
213.502	30.72
213.72	65.53
213.938	63.49
214.157	69.63
214.375	36.86
214.594	6.14
214.812	100.35
215.031	18.43
215.249	-67.58
215.467	63.49
215.686	10.24
215.904	61.44
216.122	71.68
216.341	112.64
216.559	53.25
216.778	139.26
216.996	61.44
217.214	75.77
217.432	43.01
217.651	-10.24
217.869	36.86
218.087	96.25
218.306	-10.24
218.524	30.72
218.742	-43.01
218.96	90.11
219.179	6.14
219.397	6.14
219.615	79.87
219.833	51.2
220.051	8.19
220.27	157.69
220.488	38.91
220.706	51.2
220.924	24.58
221.142	61.44
221.36	-6.14
221.578	63.49
221.796	47.1
222.015	79.87
222.233	16.38
222.451	6.14
222.669	-30.72
222.887	18.43
223.105	51.2
223.323	49.15
223.541	14.34
223.759	24.58
223.977	24.58
224.195	118.78
224.413	159.74
224.631	30.72
224.849	71.68
225.067	108.54
225.285	14.34
225.503	47.1
225.721	-55.3
225.939	86.01
226.157	92.16
226.375	178.17
226.592	-10.24
226.81	79.87
227.028	79.87
227.246	124.93
227.464	14.34
227.682	86.01
227.9	28.67
228.117	49.15
228.335	112.64
228.553	36.86
228.771	28.67
228.989	20.48
229.206	12.29
229.424	-8.19
229.642	51.2
229.86	-22.53
230.077	71.68
230.295	-22.53
230.513	102.4
230.731	73.73
230.948	28.67
231.166	43.01
231.384	55.3
231.601	49.15
231.819	53.25
232.037	61.44
232.254	-10.24
232.472	32.77
232.689	75.77
232.907	112.64
233.125	8.19
233.342	88.06
233.56	92.16
233.777	10.24
233.995	38.91
234.213	18.43
234.43	36.86
234.648	75.77
234.865	92.16
235.083	45.06
235.3	-34.82
235.518	10.24
235.735	131.07
235.953	104.45
236.17	-32.77
236.388	8.19
236.605	30.72
236.822	67.58
237.04	77.82
237.257	38.91
237.475	63.49
237.692	45.06
237.909	83.97
238.127	-16.38
238.344	30.72
238.562	110.59
238.779	26.62
238.996	40.96
239.214	-51.2
239.431	51.2
239.648	-12.29
239.865	32.77
240.083	86.01
240.3	-43.01
240.517	34.82
240.735	34.82
240.952	10.24
241.169	55.3
241.386	59.39
241.603	38.91
241.821	-26.62
242.038	38.91
242.255	59.39
242.472	38.91
242.689	14.34
242.907	120.83
243.124	43.01
243.341	75.77
243.558	18.43
243.775	65.53
243.992	6.14
244.209	61.44
244.426	100.35
244.643	81.92
244.86	-34.82
245.078	90.11
245.295	71.68
245.512	43.01
245.729	32.77
245.946	-28.67
246.163	16.38
246.38	55.3
246.597	59.39
246.814	-14.34
247.031	-38.91
247.248	-92.16
247.464	18.43
247.681	-4.1
247.898	79.87
248.115	4.1
248.332	86.01
248.549	92.16
248.766	69.63
248.983	36.86
249.2	43.01
249.417	18.43
249.633	-2.05
249.85	83.97
250.067	-28.67
250.284	38.91
250.501	47.1
250.717	94.21
250.934	-92.16
251.151	88.06
251.368	36.86
251.585	63.49
251.801	45.06
252.018	61.44
252.235	83.97
252.451	34.82
252.668	-45.06
252.885	96.25
253.102	77.82
253.318	-0
253.535	10.24
253.752	22.53
253.968	34.82
254.185	36.86
254.401	43.01
254.618	67.58
254.835	30.72
255.051	36.86
255.268	45.06
255.484	67.58
255.701	71.68
255.917	45.06
256.134	63.49
256.351	32.77
256.567	12.29
256.784	43.01
257	-20.48
257.217	86.01
257.433	65.53
257.65	47.1
257.866	51.2
258.082	26.62
258.299	-88.06
258.515	-34.82
258.732	30.72
258.948	20.48
259.165	53.25
259.381	34.82
259.597	49.15
259.814	69.63
260.03	86.01
260.246	16.38
260.463	71.68
260.679	40.96
260.895	8.19
261.112	124.93
261.328	-0
261.544	18.43
261.761	153.6
261.977	30.72
262.193	-34.82
262.409	96.25
262.626	77.82
262.842	55.3
263.058	14.34
263.274	88.06
263.49	-59.39
263.707	102.4
263.923	38.91
264.139	-14.34
264.355	55.3
264.571	108.54
264.787	20.48
265.004	32.77
265.22	63.49
265.436	-4.1
265.652	36.86
265.868	26.62
266.084	2.05
266.3	51.2
266.516	38.91
266.732	83.97
266.948	71.68
267.164	81.92
267.38	30.72
267.596	30.72
267.812	65.53
268.028	63.49
268.244	79.87
268.46	-59.39
268.676	104.45
268.892	2.05
269.108	61.44
269.324	8.19
269.54	26.62
269.756	69.63
269.972	-26.62
270.188	34.82
270.403	22.53
270.619	79.87
270.835	28.67
271.051	67.58
271.267	24.58
271.483	14.34
271.698	73.73
271.914	8.19
272.13	83.97
272.346	-8.19
272.562	92.16
272.777	143.36
272.993	67.58
273.209	30.72
273.425	34.82
273.64	-26.62
273.856	20.48
274.072	-2.05
274.287	28.67
274.503	88.06
274.719	38.91
274.934	22.53
275.15	-63.49
275.366	34.82
275.581	40.96
275.797	30.72
276.012	-12.29
276.228	-12.29
276.444	55.3
276.659	83.97
276.875	10.24
277.09	126.97
277.306	6.14
277.521	73.73
277.737	-22.53
277.952	-6.14
278.168	55.3
278.383	59.39
278.599	67.58
278.814	116.73
279.03	6.14
279.245	63.49
279.461	-8.19
279.676	100.35
279.892	-26.62
280.107	14.34
280.322	2.05
280.538	38.91
280.753	55.3
280.969	-20.48
281.184	96.25
281.399	104.45
281.615	51.2
281.83	12.29
282.045	43.01
282.26	51.2
282.476	49.15
282.691	88.06
282.906	53.25
283.122	51.2
283.337	24.58
283.552	71.68
283.767	69.63
283.983	86.01
284.198	-2.05
284.413	69.63
284.628	-10.24
284.843	-18.43
285.058	43.01
285.274	86.01
285.489	8.19
285.704	104.45
285.919	55.3
286.134	100.35
286.349	24.58
286.564	30.72
286.779	4.1
286.995	-8.19
287.21	26.62
287.425	28.67
287.64	-8.19
287.855	137.21
288.07	-22.53
288.285	47.1
288.5	49.15
288.715	83.97
288.93	-38.91
289.145	38.91
289.36	100.35
289.575	-36.86
289.79	71.68
290.004	6.14
290.219	81.92
290.434	36.86
290.649	-55.3
290.864	16.38
291.079	24.58
291.294	55.3
291.509	83.97
291.724	18.43
291.938	61.44
292.153	47.1
292.368	53.25
292.583	26.62
292.798	118.78
293.012	55.3
293.227	77.82
293.442	49.15
293.657	86.01
293.871	90.11
294.086	14.34
294.301	129.02
294.516	104.45
294.73	83.97
294.945	-59.39
295.16	116.73
295.374	153.6
295.589	94.21
295.804	57.34
296.018	30.72
296.233	67.58
296.447	94.21
296.662	-20.48
296.877	20.48
297.091	20.48
297.306	49.15
297.52	24.58
297.735	98.3
297.949	12.29
298.164	-20.48
298.378	90.11
298.593	-16.38
298.807	24.58
299.022	47.1
299.236	79.87
299.451	28.67
299.665	43.01
299.88	45.06
300.094	34.82
300.309	43.01
300.523	59.39
300.737	57.34
300.952	4.1
301.166	79.87
301.381	63.49
301.595	-38.91
301.809	96.25
302.024	24.58
302.238	-18.43
302.452	18.43
302.667	34.82
302.881	51.2
303.095	34.82
303.309	38.91
303.524	45.06
303.738	18.43
303.952	-51.2
304.166	108.54
304.381	-10.24
304.595	110.59
304.809	67.58
305.023	38.91
305.237	-36.86
305.452	28.67
305.666	30.72
305.88	63.49
306.094	26.62
306.308	112.64
306.522	92.16
306.736	53.25
306.95	14.34
307.164	-2.05
307.379	14.34
307.593	137.21
307.807	143.36
308.021	75.77
308.235	71.68
308.449	18.43
308.663	30.72
308.877	79.87
309.091	59.39
309.305	79.87
309.519	-18.43
309.733	65.53
309.947	-51.2
310.161	63.49
310.374	86.01
310.588	129.02
310.802	38.91
311.016	34.82
311.23	133.12
311.444	34.82
311.658	18.43
311.872	116.73
312.085	36.86
312.299	112.64
312.513	100.35
312.727	-22.53
312.941	-10.24
313.154	51.2
313.368	24.58
313.582	10.24
313.796	30.72
314.009	2.05
314.223	88.06
314.437	112.64
314.651	110.59
314.864	38.91
315.078	2.05
315.292	28.67
315.505	47.1
315.719	77.82
315.933	-20.48
316.146	71.68
316.36	53.25
316.573	14.34
316.787	30.72
317.001	55.3
317.214	-12.29
317.428	110.59
317.641	18.43
317.855	92.16
318.068	30.72
318.282	47.1
318.495	34.82
318.709	65.53
318.922	12.29
319.136	116.73
319.349	55.3
319.563	14.34
319.776	28.67
319.99	51.2
320.203	110.59
320.417	-24.58
320.63	28.67
320.843	34.82
321.057	61.44
321.27	47.1
321.483	10.24
321.697	77.82
321.91	10.24
322.124	20.48
322.337	88.06
322.55	26.62
322.763	71.68
322.977	-10.24
323.19	30.72
323.403	-2.05
323.617	83.97
323.83	43.01
324.043	49.15
324.256	43.01
324.469	4.1
324.683	77.82
324.896	53.25
325.109	36.86
325.322	77.82
325.535	139.26
325.748	45.06
325.962	20.48
326.175	96.25
326.388	6.14
326.601	53.25
326.814	43.01
327.027	22.53
327.24	83.97
327.453	71.68
327.666	28.67
327.879	129.02
328.092	110.59
328.305	30.72
328.518	38.91
328.731	67.58
328.944	90.11
329.157	96.25
329.37	34.82
329.583	71.68
329.796	118.78
330.009	8.19
330.222	61.44
330.435	86.01
330.648	26.62
330.861	38.91
331.073	24.58
331.286	77.82
331.499	59.39
331.712	2.05
331.925	96.25
332.138	86.01
332.35	77.82
332.563	92.16
332.776	-10.24
332.989	-34.82
333.202	53.25
333.414	10.24
333.627	18.43
333.84	88.06
334.053	51.2
334.265	20.48
334.478	-10.24
334.691	40.96
334.903	63.49
335.116	6.14
335.329	75.77
335.541	36.86
335.754	129.02
335.966	36.86
336.179	43.01
336.392	110.59
336.604	20.48
336.817	-2.05
337.029	51.2
337.242	100.35
337.454	92.16
337.667	30.72
337.88	26.62
338.092	45.06
338.305	-34.82
338.517	34.82
338.729	67.58
338.942	22.53
339.154	30.72
339.367	36.86
339.579	129.02
339.792	-6.14
340.004	38.91
340.217	53.25
340.429	28.67
340.641	55.3
340.854	24.58
341.066	53.25
341.278	92.16
341.491	79.87
341.703	63.49
341.915	-12.29
342.128	104.45
342.34	55.3
342.552	71.68
342.764	16.38
342.977	43.01
343.189	90.11
343.401	61.44
343.613	20.48
343.826	57.34
344.038	-20.48
344.25	69.63
344.462	2.05
344.674	47.1
344.886	38.91
345.099	2.05
345.311	79.87
345.523	30.72
345.735	-30.72
345.947	20.48
346.159	73.73
346.371	92.16
346.583	24.58
346.795	118.78
347.007	-10.24
347.219	129.02
347.431	49.15
347.643	110.59
347.855	61.44
348.067	28.67
348.279	59.39
348.491	61.44
348.703	174.08
348.915	6.14
349.127	55.3
349.339	47.1
349.551	18.43
349.763	88.06
349.975	77.82
350.187	100.35
350.399	174.08
350.61	69.63
350.822	55.3
351.034	51.2
351.246	-10.24
351.458	63.49
351.669	88.06
351.881	110.59
352.093	124.93
352.305	30.72
352.517	104.45
352.728	30.72
352.94	45.06
353.152	55.3
353.363	12.29
353.575	12.29
353.787	110.59
353.999	118.78
354.21	120.83
354.422	22.53
354.633	6.14
354.845	73.73
355.057	92.16
355.268	36.86
355.48	114.69
355.692	36.86
355.903	6.14
356.115	94.21
356.326	-36.86
356.538	73.73
356.749	77.82
356.961	83.97
357.172	57.34
357.384	55.3
357.595	-14.34
357.807	14.34
358.018	83.97
358.23	-12.29
358.441	61.44
358.653	63.49
358.864	34.82
359.075	22.53
359.287	88.06
359.498	26.62
359.709	30.72
359.921	90.11
360.132	43.01
360.344	-14.34
360.555	100.35
360.766	38.91
360.977	79.87
361.189	63.49
361.4	30.72
361.611	51.2
361.823	118.78
362.034	67.58
362.245	38.91
362.456	86.01
362.667	51.2
362.879	126.97
363.09	28.67
363.301	59.39
363.512	55.3
363.723	-4.1
363.935	30.72
364.146	32.77
364.357	92.16
364.568	47.1
364.779	34.82
364.99	75.77
365.201	40.96
365.412	71.68
365.623	20.48
365.834	112.64
366.045	22.53
366.256	-12.29
366.467	90.11
366.678	34.82
366.889	38.91
367.1	20.48
367.311	22.53
367.522	79.87
367.733	67.58
367.944	47.1
368.155	69.63
368.366	65.53
368.577	79.87
368.788	26.62
368.999	12.29
369.209	83.97
369.42	145.41
369.631	219.13
369.842	75.77
370.053	28.67
370.264	49.15
370.474	-26.62
370.685	63.49
370.896	69.63
371.107	28.67
371.317	108.54
371.528	18.43
371.739	43.01
371.95	59.39
372.16	32.77
372.371	-20.48
372.582	20.48
372.792	79.87
373.003	71.68
373.214	38.91
373.424	63.49
373.635	-6.14
373.846	135.17
374.056	18.43
374.267	-69.63
374.477	110.59
374.688	36.86
374.898	47.1
375.109	-36.86
375.319	63.49
375.53	59.39
375.74	22.53
375.951	14.34
376.161	55.3
376.372	122.88
376.582	43.01
376.793	81.92
377.003	2.05
377.214	96.25
377.424	77.82
377.635	69.63
377.845	36.86
378.055	67.58
378.266	-38.91
378.476	106.49
378.686	61.44
378.897	26.62
379.107	71.68
379.317	71.68
379.528	92.16
379.738	174.08
379.948	-0
380.158	61.44
380.369	90.11
380.579	20.48
380.789	43.01
380.999	96.25
381.21	137.21
381.42	100.35
381.63	10.24
381.84	57.34
382.05	65.53
382.261	43.01
382.471	79.87
382.681	-22.53
382.891	137.21
383.101	53.25
383.311	69.63
383.521	47.1
383.731	77.82
383.941	24.58
384.151	83.97
384.361	30.72
384.571	133.12
384.781	73.73
384.991	88.06
385.201	180.22
385.411	88.06
385.621	96.25
385.831	30.72
386.041	69.63
386.251	108.54
386.461	112.64
386.671	10.24
386.881	10.24
387.091	94.21
387.301	61.44
387.511	96.25
387.72	98.3
387.93	73.73
388.14	47.1
388.35	59.39
388.56	112.64
388.769	73.73
388.979	59.39
389.189	14.34
389.399	12.29
389.609	45.06
389.818	94.21
390.028	67.58
390.238	-36.86
390.447	71.68
390.657	6.14
390.867	38.91
391.076	30.72
391.286	18.43
391.496	45.06
391.705	104.45
391.915	104.45
392.125	67.58
392.334	83.97
392.544	96.25
392.753	88.06
392.963	63.49
393.172	169.98
393.382	112.64
393.591	104.45
393.801	36.86
394.01	141.31
394.22	129.02
394.429	108.54
394.639	20.48
394.848	59.39
395.058	69.63
395.267	69.63
395.477	153.6
395.686	112.64
395.895	75.77
396.105	98.3
396.314	88.06
396.524	112.64
396.733	53.25
396.942	88.06
397.152	135.17
397.361	79.87
397.57	53.25
397.78	71.68
397.989	137.21
398.198	153.6
398.407	38.91
398.617	174.08
398.826	116.73
399.035	94.21
399.244	94.21
399.453	96.25
399.663	153.6
399.872	153.6
400.081	102.4
400.29	157.69
400.499	75.77
400.708	153.6
400.917	4.1
401.127	114.69
401.336	67.58
401.545	159.74
401.754	112.64
401.963	71.68
402.172	51.2
402.381	69.63
402.59	77.82
402.799	79.87
403.008	196.6
403.217	100.35
403.426	43.01
403.635	69.63
403.844	75.77
404.053	86.01
404.262	149.5
404.471	178.17
404.68	161.79
404.888	96.25
405.097	110.59
405.306	110.59
405.515	98.3
405.724	108.54
405.933	102.4
406.142	120.83
406.35	186.37
406.559	204.8
406.768	264.19
406.977	155.65
407.185	122.88
407.394	145.41
407.603	28.67
407.812	149.5
408.02	225.28
408.229	149.5
408.438	186.37
408.646	225.28
408.855	88.06
409.064	135.17
409.272	174.08
409.481	239.61
409.69	235.52
409.898	247.8
410.107	221.18
410.315	284.67
410.524	241.66
410.733	194.56
410.941	325.63
411.15	403.45
411.358	307.2
411.567	430.07
411.775	325.63
411.984	405.5
412.192	309.24
412.401	264.19
412.609	339.96
412.818	479.22
413.026	389.11
413.234	368.63
413.443	382.97
413.651	411.64
413.86	432.12
414.068	497.66
414.276	557.05
414.485	407.55
414.693	526.33
414.901	591.86
415.11	522.23
415.318	542.71
415.526	546.81
415.734	669.69
415.943	546.81
416.151	647.16
416.359	657.4
416.567	704.5
416.776	704.5
416.984	788.47
417.192	808.95
417.4	731.12
417.608	747.51
417.817	899.06
418.025	882.67
418.233	968.69
418.441	872.43
418.649	921.59
418.857	1091.57
419.065	1079.28
419.273	1005.55
419.481	1060.85
419.689	1021.94
419.897	1116.14
420.105	1120.24
420.313	1259.5
420.521	1245.16
420.729	1327.08
420.937	1306.6
421.145	1306.6
421.353	1435.63
421.561	1476.59
421.769	1521.64
421.977	1591.27
422.185	1671.14
422.393	1716.2
422.601	1824.74
422.809	1765.35
423.017	1818.6
423.224	1894.37
423.432	1863.65
423.64	2017.25
423.848	2209.76
424.056	2078.69
424.263	2275.29
424.471	2217.95
424.679	2369.5
424.887	2342.88
425.094	2443.23
425.302	2496.47
425.51	2510.81
425.718	2572.25
425.925	2607.06
426.133	2883.54
426.341	2906.07
426.548	2944.98
426.756	2971.6
426.964	3039.19
427.171	3160.02
427.379	3297.23
427.586	3399.63
427.794	3520.46
428.001	3672.01
428.209	3897.28
428.417	3651.53
428.624	3909.57
428.832	4040.64
429.039	3928
429.247	3928
429.454	4425.66
429.662	4564.92
429.869	4460.48
430.076	4530.11
430.284	4493.24
430.491	4917.17
430.699	5011.38
430.906	4906.93
431.114	5062.58
431.321	5115.83
431.528	5330.86
431.736	5597.1
431.943	5928.87
432.15	5810.09
432.358	5998.5
432.565	6098.85
432.772	6088.61
432.979	6537.12
433.187	6535.07
433.394	6465.44
433.601	7059.35
433.808	6926.23
434.016	7034.77
434.223	7294.86
434.43	7669.64
434.637	7579.53
434.844	8036.23
435.052	8234.88
435.259	8013.7
435.466	8216.45
435.673	8105.86
435.88	8656.76
436.087	9052.02
436.294	9256.82
436.501	8847.22
436.708	9129.84
436.915	9213.81
437.122	9860.97
437.329	9768.81
437.537	10014.57
437.743	10209.12
437.95	10209.12
438.157	10755.93
438.364	11171.67
438.571	11085.65
438.778	11243.35
438.985	12318.53
439.192	11743.05
439.399	12091.21
439.606	11691.85
439.813	12316.48
440.02	13100.86
440.227	13020.99
440.433	12783.42
440.64	13403.96
440.847	13180.73
441.054	13584.18
441.261	14462.76
441.467	14112.55
441.674	14638.88
441.881	14962.46
442.088	15077.15
442.294	14765.85
442.501	15212.31
442.708	15619.86
442.914	16029.45
443.121	17016.57
443.328	16502.53
443.534	17354.49
443.741	17180.41
443.948	16807.68
444.154	18104.04
444.361	17950.45
444.568	17997.55
444.774	18161.39
444.981	18306.79
445.187	19005.15
445.394	19433.18
445.6	19365.59
445.807	21178.04
446.013	20358.86
446.22	20821.7
446.426	21831.35
446.633	21597.88
446.839	22347.43
447.046	21591.73
447.252	22320.81
447.459	22529.7
447.665	22779.56
447.871	23813.78
448.078	24606.34
448.284	23064.22
448.491	23948.95
448.697	24938.12
448.903	25552.51
449.11	25802.36
449.316	25007.75
449.522	25622.14
449.728	26222.19
449.935	26584.68
450.141	26406.51
450.347	27154.02
450.553	26177.14
450.76	26463.85
450.966	27283.04
451.172	27356.77
451.378	27524.7
451.584	27598.43
451.791	27745.88
451.997	28001.88
452.203	28259.92
452.409	28173.91
452.615	28106.32
452.821	26891.88
453.027	26711.66
453.233	28345.94
453.44	26844.77
453.646	27461.21
453.852	27565.66
454.058	27743.83
454.264	26850.92
454.47	27315.81
454.676	26705.51
454.882	27741.78
455.088	25583.23
455.294	25581.18
455.5	25853.56
455.705	26261.1
455.911	25249.41
456.117	24665.74
456.323	24432.27
456.529	22890.15
456.735	24422.03
456.941	23352.99
457.147	22910.63
457.352	22486.7
457.558	21952.18
457.764	21913.27
457.97	21558.97
458.176	21442.23
458.381	21413.56
458.587	20311.75
458.793	20190.92
458.999	19318.49
459.204	20350.67
459.41	19799.76
459.616	18575.08
459.821	18806.5
460.027	18274.03
460.233	18142.96
460.438	17164.03
460.644	17639.15
460.85	16819.97
461.055	16424.71
461.261	16099.08
461.466	15105.82
461.672	14767.9
461.878	15800.08
462.083	14634.78
462.289	14325.54
462.494	14509.86
462.7	13653.81
462.905	13348.66
463.111	13594.42
463.316	13815.6
463.522	13457.2
463.727	13494.07
463.932	13381.43
464.138	13375.28
464.343	13276.98
464.549	12771.13
464.754	13496.11
464.959	13223.73
465.165	13178.68
465.37	12748.61
465.575	12377.92
465.781	12898.11
465.986	12826.43
466.191	12322.63
466.397	11929.42
466.602	11411.28
466.807	12107.59
467.012	11921.23
467.218	11956.04
467.423	11695.95
467.628	11736.91
467.833	12293.96
468.038	11935.56
468.244	11503.44
468.449	12148.55
468.654	11536.21
468.859	11521.87
469.064	11269.97
469.269	11061.08
469.474	10925.91
469.679	11147.09
469.885	10981.21
470.09	11069.27
470.295	11104.09
470.5	10764.12
470.705	10790.75
470.91	10510.18
471.115	10540.9
471.32	10749.79
471.525	10524.51
471.73	10078.05
471.935	10264.42
472.139	9729.9
472.344	10090.34
472.549	10069.86
472.754	9600.88
472.959	9598.83
473.164	9428.85
473.369	9373.55
473.574	9713.52
473.778	9553.77
473.983	9459.57
474.188	9525.1
474.393	9088.89
474.598	8998.77
474.802	8982.39
475.007	8828.79
475.212	8935.29
475.417	8568.7
475.621	8664.96
475.826	8636.28
476.031	8329.09
476.235	8318.85
476.44	8470.4
476.645	8132.48
476.849	8216.45
477.054	8249.22
477.259	7968.65
477.463	8056.71
477.668	7960.45
477.872	7968.65
478.077	7726.99
478.282	7649.16
478.486	7567.24
478.691	7507.85
478.895	7368.59
479.1	7393.17
479.304	7440.27
479.509	7155.6
479.713	7450.51
479.918	7190.42
480.122	7042.96
480.326	7141.27
480.531	7247.76
480.735	7139.22
480.94	7053.2
481.144	7212.95
481.348	6799.26
481.553	6979.48
481.757	6858.65
481.961	6981.53
482.166	7128.98
482.37	6868.89
482.574	6725.53
482.778	6793.11
482.983	6805.4
483.187	6920.09
483.391	6936.47
483.595	6920.09
483.8	6897.56
484.004	6959
484.208	6934.42
484.412	6764.44
484.616	7071.64
484.821	7010.2
485.025	6694.81
485.229	6762.39
485.433	6786.97
485.637	6813.59
485.841	6731.67
486.045	6854.55
486.249	6899.61
486.453	6746.01
486.657	6838.17
486.861	6836.12
487.065	6723.48
487.269	6756.25
487.473	6629.27
487.677	6983.57
487.881	6920.09
488.085	6891.41
488.289	6901.65
488.493	6915.99
488.697	7004.05
488.901	6877.08
489.105	6729.63
489.309	6965.14
489.512	6983.57
489.716	6918.04
489.92	7051.16
490.124	6838.17
490.328	7042.96
490.531	6870.94
490.735	7071.64
490.939	6959
491.143	7079.83
491.346	7036.82
491.55	7198.61
491.754	7227.28
491.958	7329.68
492.161	7223.19
492.365	7317.39
492.569	7106.45
492.772	7243.67
492.976	7440.27
493.18	7282.58
493.383	7559.05
493.587	7407.5
493.79	7567.24
493.994	7491.47
494.197	7403.41
494.401	7722.89
494.605	7587.72
494.808	7696.27
495.012	7743.37
495.215	7745.42
495.419	8025.99
495.622	7763.85
495.825	8257.41
496.029	7935.88
496.232	8191.88
496.436	8073.09
496.639	8540.03
496.843	8341.38
497.046	8439.68
497.249	8501.12
497.453	8406.91
497.656	8728.44
497.859	8650.62
498.063	8505.21
498.266	8982.39
498.469	8722.3
498.673	9125.75
498.876	9070.45
499.079	9172.85
499.282	9099.13
499.485	9537.39
499.689	9588.59
499.892	9619.31
500.095	9596.78
500.298	9873.26
500.501	9717.61
500.705	9983.85
500.908	10188.64
501.111	10323.81
501.314	10334.05
501.517	10336.1
501.72	10473.31
501.923	10434.4
502.126	10811.23
502.329	11122.52
502.532	11001.69
502.735	11229.01
502.938	11229.01
503.141	11460.43
503.344	11581.26
503.547	11515.73
503.75	11902.79
503.953	11800.4
504.156	11999.05
504.359	12097.35
504.562	12285.76
504.765	12779.32
504.968	12711.74
505.17	12713.79
505.373	12597.06
505.576	13043.51
505.779	12808
505.982	13100.86
506.185	13365.04
506.387	13358.9
506.59	13805.36
506.793	13819.69
506.996	13969.19
507.198	14184.23
507.401	14128.94
507.604	14403.36
507.807	14640.93
508.009	14579.49
508.212	15054.62
508.415	15193.88
508.617	15216.41
508.82	15138.58
509.022	15345.43
509.225	15595.28
509.428	15742.74
509.63	15959.82
509.833	16221.96
510.035	16637.7
510.238	16236.3
510.44	16531.2
510.643	16627.46
510.845	16942.85
511.048	17247.99
511.25	17327.86
511.453	17450.74
511.655	18073.32
511.858	17897.2
512.06	17817.33
512.262	18314.98
512.465	18183.91
512.667	18657
512.87	18829.02
513.072	18863.84
513.274	19281.63
513.477	19320.54
513.679	19429.08
513.881	19584.73
514.084	20123.34
514.286	20084.43
514.488	20043.47
514.69	20836.03
514.893	20598.47
515.095	21100.22
515.297	21157.57
515.499	21143.23
515.701	21169.85
515.904	21937.84
516.106	22197.93
516.308	22011.57
516.51	22603.43
516.712	22490.79
516.914	22810.28
517.116	23377.56
517.318	23318.17
517.52	23625.37
517.722	23811.73
517.925	23758.49
518.127	24178.32
518.329	24524.43
518.531	24702.6
518.733	25011.84
518.935	25482.88
519.136	25214.59
519.338	26101.36
519.54	26273.39
519.742	26488.43
519.944	26320.49
520.146	26793.58
520.348	27197.02
520.55	27661.91
520.752	27287.14
520.954	28042.84
521.155	27739.74
521.357	28358.22
521.559	28511.82
521.761	29263.43
521.963	29140.55
522.164	29544
522.366	29361.73
522.568	29683.26
522.77	30025.27
522.971	30701.1
523.173	30314.03
523.375	30955.05
523.576	31045.16
523.778	30996.01
523.98	31022.63
524.181	31862.3
524.383	31823.39
524.584	32292.37
524.786	32351.76
524.988	32769.55
525.189	32689.68
525.391	32972.3
525.592	33572.35
525.794	33709.57
525.995	33504.77
526.197	33670.65
526.398	34203.13
526.6	34346.48
526.801	34694.64
527.003	34856.43
527.204	34833.9
527.406	35118.57
527.607	35458.53
527.808	35333.6
528.01	35290.6
528.211	36113.88
528.412	36455.89
528.614	36281.81
528.815	36124.12
529.016	36777.42
529.218	36431.32
529.419	37270.98
529.62	37045.71
529.822	36730.32
530.023	37201.35
530.224	37561.79
530.425	37557.7
530.626	37174.73
530.828	37084.62
531.029	38321.59
531.23	37983.68
531.431	38053.31
531.632	38110.65
531.833	38440.37
532.035	38458.81
532.236	38522.29
532.437	38550.96
532.638	38471.09
532.839	38923.69
533.04	39321
533.241	38583.73
533.442	39384.49
533.643	39308.71
533.844	38890.93
534.045	39142.83
534.246	39007.66
534.447	39433.64
534.648	39411.11
534.849	39159.21
535.05	39206.31
535.251	39331.24
535.451	38843.82
535.652	39736.74
535.853	39759.27
536.054	39734.69
536.255	39849.38
536.456	39404.97
536.657	40113.56
536.857	39648.67
537.058	39447.97
537.259	39986.59
537.46	40002.97
537.66	39761.31
537.861	39511.46
538.062	39886.24
538.263	40451.48
538.463	39771.55
538.664	39849.38
538.865	40312.22
539.065	40279.45
539.266	39538.08
539.466	40193.43
539.667	39769.51
539.868	40744.34
540.068	39794.08
540.269	40115.61
540.469	40340.89
540.67	40199.58
540.87	40134.04
541.071	40156.57
541.271	40035.74
541.472	39988.64
541.672	39882.14
541.873	40222.11
542.073	39339.43
542.274	40416.66
542.474	40066.46
542.675	40142.24
542.875	40369.56
543.075	40258.97
543.276	39529.89
543.476	40330.65
543.676	40254.87
543.877	40070.56
544.077	39937.44
544.277	40299.93
544.478	40439.19
544.678	40041.88
544.878	40033.69
545.078	40181.15
545.279	39800.22
545.479	39886.24
545.679	40203.67
545.879	40076.7
546.079	39816.61
546.28	40097.18
546.48	39597.48
546.68	40240.54
546.88	40037.79
547.08	39787.94
547.28	39749.03
547.48	39615.91
547.68	40023.45
547.88	39845.28
548.081	40121.76
548.281	40058.27
548.481	39761.31
548.681	40285.59
548.881	40144.28
549.081	40242.59
549.28	39988.64
549.48	39869.86
549.68	39617.96
549.88	40144.28
550.08	39861.66
550.28	40355.22
550.48	39955.87
550.68	40222.11
550.88	40066.46
551.08	39837.09
551.279	39976.35
551.479	39837.09
551.679	39800.22
551.879	39544.23
552.079	40066.46
552.278	39392.68
552.478	39779.74
552.678	39898.53
552.878	40218.01
553.077	39611.81
553.277	39093.68
553.477	39992.73
553.676	39296.42
553.876	39828.9
554.076	39554.47
554.275	39275.94
554.475	39206.31
554.674	39421.35
554.874	39693.73
555.074	39370.15
555.273	39390.63
555.473	39517.6
555.672	39198.12
555.872	39112.11
556.071	39050.67
556.271	39681.44
556.47	39026.09
556.67	38602.16
556.869	38518.2
557.068	39132.59
557.268	38995.37
557.467	38788.53
557.667	38288.82
557.866	38679.99
558.065	38225.34
558.265	38301.11
558.464	38155.71
558.663	38864.3
558.863	37991.87
559.062	38157.75
559.261	37873.09
559.461	38251.96
559.66	37772.74
559.859	37619.14
560.058	37375.43
560.258	37385.67
560.457	37553.6
560.656	37879.23
560.855	36984.27
561.054	37119.43
561.253	36756.94
561.453	37051.85
561.652	36992.46
561.851	37082.57
562.05	36836.81
562.249	36427.22
562.448	36650.45
562.647	36287.96
562.846	36218.33
563.045	36613.59
563.244	35909.08
563.443	36466.13
563.642	35524.07
563.841	35511.78
564.04	35614.18
564.239	35956.19
564.438	35364.32
564.637	35311.08
564.836	35298.79
565.035	34700.78
565.234	34823.66
565.432	34608.62
565.631	34665.97
565.83	34733.55
566.029	34643.44
566.228	34528.75
566.427	34170.36
566.625	34086.39
566.824	33865.21
567.023	33986.04
567.222	33340.93
567.42	34000.38
567.619	33543.68
567.818	33121.8
568.016	33189.38
568.215	33445.38
568.414	32759.31
568.612	33023.5
568.811	32566.8
569.01	32515.6
569.208	32220.69
569.407	32837.13
569.605	31856.15
569.804	32271.89
570.002	31571.49
570.201	31911.45
570.4	31536.67
570.598	31213.09
570.797	31292.96
570.995	31354.4
571.193	30850.6
571.392	31254.05
571.59	30815.79
571.789	30512.69
571.987	30506.54
572.186	30643.76
572.384	30490.16
572.582	30498.35
572.781	30541.36
572.979	29732.41
573.177	29691.45
573.376	29955.64
573.574	29513.28
573.772	29814.33
573.971	29769.27
574.169	29183.55
574.367	29111.88
574.565	29423.17
574.763	29097.54
574.962	29062.72
575.16	28868.17
575.358	28597.84
575.556	28528.2
575.754	29081.16
575.952	27997.78
576.151	28513.87
576.349	28057.17
576.547	27889.24
576.745	28167.76
576.943	27936.34
577.141	27696.73
577.339	27792.98
577.537	27496.03
577.735	27512.41
577.933	27059.81
578.131	27078.24
578.329	27002.47
578.527	26969.7
578.725	26846.82
578.923	26734.18
579.121	26730.09
579.319	26789.48
579.516	26560.11
579.714	26517.1
579.912	26177.14
580.11	26246.77
580.308	26410.6
580.506	26132.08
580.704	25630.33
580.901	26078.83
581.099	25904.76
581.297	25702.01
581.495	25654.9
581.692	25611.9
581.89	25517.69
582.088	25513.59
582.285	24872.58
582.483	25298.56
582.681	25147.01
582.878	24952.45
583.076	24936.07
583.274	24845.96
583.471	24594.06
583.669	24809.09
583.866	24571.53
584.064	24526.47
584.262	24444.55
584.459	24561.29
584.657	24178.32
584.854	24372.88
585.052	23924.37
585.249	24221.33
585.447	24344.2
585.644	24010.39
585.841	23809.68
586.039	24108.69
586.236	23697.05
586.434	23539.35
586.631	23420.57
586.828	23496.35
587.026	23613.08
587.223	23232.16
587.42	22992.55
587.618	23189.15
587.815	23113.38
588.012	23019.17
588.21	22648.49
588.407	23131.81
588.604	22593.19
588.801	22324.91
588.999	22447.79
589.196	22498.98
589.393	22574.76
589.59	22394.54
589.787	22302.38
589.984	22169.26
590.182	21884.59
590.379	22226.6
590.576	21958.32
590.773	22013.62
590.97	21786.29
591.167	21597.88
591.364	21698.23
591.561	21690.04
591.758	21434.04
591.955	21388.99
592.152	21032.64
592.349	21321.4
592.546	21372.6
592.743	21233.34
592.94	21178.04
593.137	21376.7
593.334	21448.38
593.531	20653.76
593.727	20967.1
593.924	20829.89
594.121	20846.27
594.318	20621
594.515	20473.54
594.712	20858.56
594.908	20242.12
595.105	20627.14
595.302	20115.15
595.499	20311.75
595.696	20057.81
595.892	20006.61
596.089	20266.7
596.286	19889.87
596.482	20045.52
596.679	19951.31
596.876	19754.71
597.072	19492.57
597.269	19529.43
597.466	19574.49
597.662	19590.87
597.859	19414.74
598.055	19400.41
598.252	19291.87
598.448	19244.76
598.645	19160.8
598.841	19080.92
599.038	19101.4
599.234	19156.7
599.431	18953.95
599.627	18945.76
599.824	18896.61
600.02	18595.56
600.217	18648.8
600.413	18568.93
600.609	18568.93
600.806	18325.22
601.002	18759.39
601.198	18458.34
601.395	18106.09
601.591	17938.16
601.787	18018.03
601.984	18179.82
602.18	18020.08
602.376	17766.13
602.572	18013.93
602.769	17946.35
602.965	17676.02
603.161	17778.42
603.357	17561.33
603.553	17508.08
603.75	17725.17
603.946	17338.1
604.142	17635.06
604.338	17209.08
604.534	17579.76
604.73	17176.31
604.926	17221.37
605.122	17159.93
605.318	17125.11
605.514	16789.25
605.71	16779.01
605.906	16733.95
606.102	16752.38
606.298	16865.02
606.494	16873.21
606.69	16750.34
606.886	16809.73
607.082	16314.12
607.278	16404.23
607.474	16393.99
607.67	16625.41
607.866	16070.41
608.062	16494.34
608.257	16451.33
608.453	16267.02
608.649	16398.09
608.845	16133.9
609.041	16150.28
609.236	16144.14
609.432	16146.19
609.628	16060.17
609.824	16131.85
610.019	15904.53
610.215	15759.12
610.411	16056.07
610.606	15660.82
610.802	15820.56
610.998	15804.17
611.193	15798.03
611.389	15613.71
611.584	15709.97
611.78	15451.92
611.976	15474.45
612.171	15505.17
612.367	15599.38
612.562	15472.4
612.758	15058.71
612.953	15456.02
613.149	15300.37
613.344	14923.55
613.539	15290.13
613.735	15263.51
613.93	15097.63
614.126	14878.49
614.321	15027.99
614.517	15154.97
614.712	15021.85
614.907	14976.8
615.103	14759.71
615.298	14941.98
615.493	15077.15
615.688	14571.3
615.884	14671.65
616.079	14556.96
616.274	14669.6
616.47	14718.75
616.665	14548.77
616.86	14446.37
617.055	14495.52
617.25	14481.19
617.445	14485.28
617.641	14096.17
617.836	14456.61
618.031	14139.18
618.226	14272.29
618.421	14305.06
618.616	14249.77
618.811	13956.91
619.006	14161.7
619.201	13821.74
619.396	13874.99
619.591	13469.49
619.786	13705.01
619.981	13680.43
620.176	13848.36
620.371	13532.98
620.566	13510.45
620.761	13389.62
620.956	13639.47
621.151	13229.88
621.346	13539.12
621.541	12990.27
621.735	13252.41
621.93	12992.31
622.125	13193.01
622.32	12836.67
622.515	12865.34
622.709	12828.48
622.904	12756.8
623.099	12648.25
623.294	12726.08
623.488	12515.14
623.683	12621.63
623.878	12429.12
624.072	12465.99
624.267	12465.99
624.462	12322.63
624.656	12093.26
624.851	12347.2
625.046	12054.34
625.24	11698
625.435	12042.06
625.629	11964.23
625.824	11827.02
626.018	11489.1
626.213	11560.78
626.407	11503.44
626.602	11501.39
626.796	11530.06
626.991	11509.58
627.185	11300.69
627.38	11306.84
627.574	11200.34
627.768	11165.53
627.963	11212.63
628.157	10815.32
628.352	10985.3
628.546	10854.23
628.74	10960.73
628.935	10702.68
629.129	10827.61
629.323	10567.52
629.517	10780.51
629.712	10506.08
629.906	10243.94
630.1	10442.59
630.294	10305.38
630.489	10397.54
630.683	10311.52
630.877	10346.34
631.071	10082.15
631.265	10180.45
631.459	10121.06
631.653	9836.39
631.848	9983.85
632.042	9983.85
632.236	10069.86
632.43	9817.96
632.624	9785.19
632.818	9662.32
633.012	9650.03
633.206	9457.52
633.4	9598.83
633.594	9467.76
633.788	9449.33
633.982	9617.26
634.176	9541.49
634.369	9316.21
634.563	9422.7
634.757	9101.17
634.951	9219.96
635.145	9279.35
635.339	9031.54
635.533	8976.25
635.726	8994.68
635.92	8650.62
636.114	8796.03
636.308	8918.9
636.501	8877.94
636.695	8683.39
636.889	8632.19
637.083	8505.21
637.276	8470.4
637.47	8490.88
637.664	8456.06
637.857	8361.86
638.051	8507.26
638.244	8185.73
638.438	8300.42
638.632	8247.17
638.825	8003.46
639.019	8234.88
639.212	8128.39
639.406	7985.03
639.599	8212.35
639.793	7948.17
639.986	7974.79
640.18	7870.34
640.373	7909.26
640.567	7659.4
640.76	7653.26
640.954	7669.64
641.147	7485.33
641.34	7696.27
641.534	7688.07
641.727	7575.44
641.92	7557
642.114	7346.06
642.307	7579.53
642.5	7526.29
642.694	7176.08
642.887	6965.14
643.08	7411.6
643.273	7210.9
643.467	7061.4
643.66	7018.39
643.853	7051.16
644.046	6930.33
644.239	7024.53
644.432	6860.7
644.626	6956.95
644.819	6707.1
645.012	6901.65
645.205	6760.34
645.398	6784.92
645.591	6715.29
645.784	6741.91
645.977	6590.36
646.17	6475.68
646.363	6555.55
646.556	6397.85
646.749	6662.04
646.942	6469.53
647.135	6506.4
647.328	6270.88
647.521	6334.37
647.714	6440.86
647.907	6330.27
648.099	6191.01
648.292	6344.61
648.485	6172.58
648.678	6021.03
648.871	6158.24
649.064	6070.18
649.256	6203.3
649.449	6123.43
649.642	6182.82
649.835	5842.85
650.027	5853.09
650.22	5941.16
650.413	5740.46
650.605	5928.87
650.798	5863.33
650.991	5781.42
651.183	5810.09
651.376	5781.42
651.568	5711.78
651.761	5552.04
651.954	5670.83
652.146	5642.15
652.339	5545.9
652.531	5664.68
652.724	5662.63
652.916	5449.64
653.109	5496.75
653.301	5502.89
653.494	5447.6
653.686	5355.44
653.879	5314.48
654.071	5490.6
654.263	5337.01
654.456	5316.53
654.648	5451.69
654.84	5271.47
655.033	5392.3
655.225	5134.26
655.417	5228.46
655.61	5156.79
655.802	5191.6
655.994	5187.5
656.186	5162.93
656.379	4933.56
656.571	5183.41
656.763	5033.91
656.955	5033.91
657.148	4984.76
657.34	5101.49
657.532	4868.02
657.724	4954.04
657.916	4921.27
658.108	5101.49
658.3	4917.17
658.492	5033.91
658.684	4831.16
658.876	4884.41
659.068	4880.31
659.26	4806.58
659.452	4716.47
659.644	4730.81
659.836	4726.71
660.028	4630.46
660.22	4634.55
660.412	4771.77
660.604	4444.09
660.796	4700.09
660.988	4642.75
661.18	4624.31
661.372	4511.68
661.563	4544.44
661.755	4485.05
661.947	4513.72
662.139	4364.22
662.331	4538.3
662.522	4573.11
662.714	4403.13
662.906	4458.43
663.097	4444.09
663.289	4315.07
663.481	4249.54
663.673	4456.38
663.864	4294.59
664.056	4313.02
664.247	4347.84
664.439	4372.41
664.631	4405.18
664.822	4327.36
665.014	4380.61
665.205	4368.32
665.397	4337.6
665.588	4192.19
665.78	4292.54
665.971	4231.1
666.163	4106.18
666.354	4247.49
666.546	4247.49
666.737	4259.77
666.929	4298.69
667.12	4167.62
667.311	4274.11
667.503	4208.58
667.694	4188.1
667.885	4224.96
668.077	4126.66
668.268	4097.99
668.459	4159.42
668.651	4001.73
668.842	4108.23
669.033	4212.67
669.224	3917.76
669.416	4257.73
669.607	4118.47
669.798	4200.38
669.989	4261.82
670.18	4175.81
670.371	4007.87
670.563	4173.76
670.754	4239.3
670.945	4093.89
671.136	4026.31
671.327	4052.93
671.518	4151.23
671.709	4122.56
671.9	4057.03
672.091	4200.38
672.282	4337.6
672.473	4335.55
672.664	4263.87
672.855	4136.9
673.046	4249.54
673.237	4233.15
673.428	4147.14
673.619	4153.28
673.809	4122.56
674	4188.1
674.191	4175.81
674.382	4253.63
674.573	4278.21
674.764	4212.67
674.954	4325.31
675.145	4280.25
675.336	4224.96
675.527	4186.05
675.717	4249.54
675.908	4335.55
676.099	4247.49
676.289	4202.43
676.48	4222.91
676.671	4405.18
676.861	4315.07
677.052	4364.22
677.243	4327.36
677.433	4390.84
677.624	4315.07
677.814	4470.72
678.005	4534.2
678.195	4470.72
678.386	4480.96
678.576	4368.32
678.767	4433.85
678.957	4450.24
679.148	4675.51
679.338	4427.71
679.529	4509.63
679.719	4454.33
679.909	4796.34
680.1	4601.79
680.29	4681.66
680.481	4724.66
680.671	4736.95
680.861	4650.94
681.052	4782.01
681.242	4601.79
681.432	4822.97
681.622	4763.58
681.813	4681.66
682.003	4753.34
682.193	4896.69
682.383	4843.45
682.573	4734.9
682.764	4880.31
682.954	4755.38
683.144	4892.6
683.334	4915.12
683.524	4825.01
683.714	4939.7
683.904	4833.21
684.094	4917.17
684.284	5019.57
684.474	4921.27
684.664	4992.95
684.854	4970.42
685.044	4820.92
685.234	4837.3
685.424	4968.37
685.614	4927.41
685.804	4845.49
685.994	4935.6
686.184	4913.08
686.374	4960.18
686.564	4894.65
686.753	4730.81
686.943	4743.1
687.133	4820.92
687.323	4722.62
687.513	4966.32
687.702	4720.57
687.892	4712.38
688.082	4663.22
688.272	4763.58
688.461	4695.99
688.651	4726.71
688.841	4765.62
689.03	4569.02
689.22	4542.39
689.41	4560.83
689.599	4650.94
689.789	4618.17
689.979	4612.03
690.168	4542.39
690.358	4581.31
690.547	4407.23
690.737	4599.74
690.926	4493.24
691.116	4347.84
691.305	4464.57
691.495	4329.41
691.684	4345.79
691.874	4343.74
692.063	4386.75
692.252	4337.6
692.442	4265.92
692.631	4282.3
692.82	4396.99
693.01	4194.24
693.199	4212.67
693.388	4198.34
693.578	4161.47
693.767	4175.81
693.956	4282.3
694.146	4155.33
694.335	4114.37
694.524	4001.73
694.713	4042.69
694.902	4065.22
695.092	4100.03
695.281	4097.99
695.47	4118.47
695.659	3985.35
695.848	4018.11
696.037	4093.89
696.226	4165.57
696.415	3872.71
696.604	4214.72
696.793	3962.82
696.982	4036.55
697.171	4153.28
697.36	4048.83
697.549	4011.97
697.738	4034.5
697.927	4077.51
698.116	4071.36
698.305	4083.65
698.494	4093.89
698.683	4110.27
698.872	4143.04
699.061	4110.27
699.25	3919.81
699.438	4014.02
699.627	4110.27
699.816	4077.51
700.005	4009.92
700.193	4112.32
700.382	4061.12
700.571	4020.16
700.76	4048.83
700.948	4233.15
701.137	4136.9
701.326	4067.27
701.514	4167.62
701.703	4161.47
701.892	4126.66
702.08	4294.59
702.269	4196.29
702.457	4143.04
702.646	4143.04
702.834	4089.79
703.023	4272.06
703.212	4323.26
703.4	4337.6
703.589	4196.29
703.777	4315.07
703.965	4120.51
704.154	4116.42
704.342	4216.77
704.531	4310.97
704.719	4200.38
704.907	4366.27
705.096	4235.2
705.284	4140.99
705.472	4384.7
705.661	4325.31
705.849	4388.8
706.037	4462.52
706.226	4485.05
706.414	4499.39
706.602	4341.69
706.79	4448.19
706.979	4325.31
707.167	4407.23
707.355	4450.24
707.543	4458.43
707.731	4464.57
707.919	4483
708.107	4509.63
708.296	4456.38
708.484	4460.48
708.672	4544.44
708.86	4575.16
709.048	4517.82
709.236	4456.38
709.424	4730.81
709.612	4630.46
709.8	4632.51
709.988	4603.83
710.176	4630.46
710.364	4636.6
710.551	4609.98
710.739	4607.93
710.927	4648.89
711.115	4786.1
711.303	4712.38
711.491	4806.58
711.679	4812.73
711.866	4812.73
712.054	4851.64
712.242	4790.2
712.43	4878.26
712.617	4911.03
712.805	4913.08
712.993	4831.16
713.181	4894.65
713.368	4872.12
713.556	5019.57
713.744	4990.9
713.931	5040.05
714.119	4966.32
714.306	5019.57
714.494	4978.61
714.682	5015.48
714.869	4960.18
715.057	5134.26
715.244	4919.22
715.432	5097.39
715.619	5052.34
715.807	5138.35
715.994	5220.27
716.182	5240.75
716.369	5033.91
716.556	5230.51
716.744	5302.19
716.931	5304.24
717.119	5306.29
717.306	5228.46
717.493	5289.9
717.681	5216.18
717.868	5408.69
718.055	5312.43
718.242	5486.51
718.43	5388.21
718.617	5326.77
718.804	5371.82
718.991	5429.17
719.179	5314.48
719.366	5392.3
719.553	5525.42
719.74	5478.32
719.927	5484.46
720.114	5377.97
720.301	5550
720.488	5580.71
720.676	5642.15
720.863	5621.67
721.05	5472.17
721.237	5566.38
721.424	5595.05
721.611	5642.15
721.798	5601.19
721.985	5574.57
722.172	5601.19
722.358	5562.28
722.545	5685.16
722.732	5752.74
722.919	5726.12
723.106	5545.9
723.293	5670.83
723.48	5717.93
723.667	5793.7
723.853	5666.73
724.04	5838.76
724.227	5812.14
724.414	5826.47
724.6	5765.03
724.787	5826.47
724.974	5844.9
725.161	5822.38
725.347	5879.72
725.534	5961.64
725.72	5865.38
725.907	6031.27
726.094	5937.06
726.28	5863.33
726.467	5947.3
726.653	5963.68
726.84	6049.7
727.027	6008.74
727.213	5857.19
727.4	6076.32
727.586	5969.83
727.773	5978.02
727.959	5894.05
728.145	6057.89
728.332	6074.28
728.518	5986.21
728.705	6111.14
728.891	5910.44
729.077	6090.66
729.264	5951.4
729.45	6004.64
729.636	6158.24
729.823	6135.71
730.009	6156.19
730.195	6148
730.382	6285.22
730.568	5969.83
730.754	6100.9
730.94	6082.47
731.126	6129.57
731.313	6285.22
731.499	6168.48
731.685	6119.33
731.871	6260.64
732.057	6356.89
732.243	6133.67
732.429	6270.88
732.615	6227.87
732.801	6180.77
732.987	6338.46
733.173	6047.65
733.359	6076.32
733.545	6148
733.731	6191.01
733.917	6162.34
734.103	6317.98
734.289	6317.98
734.475	6217.63
734.661	6221.73
734.847	6219.68
735.033	6160.29
735.219	6080.42
735.404	6453.15
735.59	6217.63
735.776	6117.28
735.962	6299.55
736.148	6262.69
736.333	6270.88
736.519	6150.05
736.705	6219.68
736.89	6272.93
737.076	6291.36
737.262	6182.82
737.447	6277.02
737.633	6219.68
737.819	6299.55
738.004	6197.15
738.19	6225.82
738.375	6090.66
738.561	6125.47
738.747	5998.5
738.932	6182.82
739.118	6209.44
739.303	6213.54
739.489	6315.94
739.674	6010.79
739.859	6043.56
740.045	5982.12
740.23	6051.75
740.416	6008.74
740.601	6068.13
740.786	5916.58
740.972	6045.6
741.157	6074.28
741.342	5779.37
741.528	5830.57
741.713	5912.49
741.898	5881.77
742.084	5961.64
742.269	5898.15
742.454	6012.84
742.639	5994.4
742.824	5773.22
743.01	5869.48
743.195	5769.13
743.38	5799.85
743.565	5896.1
743.75	5742.5
743.935	5552.04
744.12	5783.46
744.305	5527.47
744.49	5599.15
744.675	5672.87
744.86	5638.06
745.045	5556.14
745.23	5578.67
745.415	5521.32
745.6	5500.84
745.785	5388.21
745.97	5519.28
746.155	5326.77
746.34	5459.88
746.525	5238.7
746.71	5330.86
746.895	5396.4
747.079	5296.05
747.264	5302.19
747.449	5347.25
747.634	5066.67
747.819	5261.23
748.003	5052.34
748.188	5011.38
748.373	5128.11
748.557	4958.13
748.742	4894.65
748.927	5044.15
749.111	4954.04
749.296	4945.84
749.481	4990.9
749.665	4880.31
749.85	4863.93
750.034	4863.93
750.219	4771.77
750.404	4765.62
750.588	4540.35
750.773	4591.55
750.957	4628.41
751.141	4593.59
751.326	4655.03
751.51	4644.79
751.695	4519.87
751.879	4495.29
752.064	4536.25
752.248	4587.45
752.432	4351.93
752.617	4294.59
752.801	4388.8
752.985	4300.73
753.17	4255.68
753.354	4421.56
753.538	4106.18
753.722	3864.52
753.907	4046.79
754.091	4011.97
754.275	4052.93
754.459	4032.45
754.643	3958.72
754.828	4112.32
755.012	4059.07
755.196	3841.99
755.38	3885
755.564	4024.26
755.748	3798.98
755.932	4124.61
756.116	3692.49
756.3	3928
756.484	3692.49
756.668	3778.5
756.852	3710.92
757.036	3542.99
757.22	3766.21
757.404	3624.9
757.588	3588.04
757.772	3528.65
757.956	3624.9
758.14	3569.61
758.323	3428.3
758.507	3553.23
758.691	3280.85
758.875	3262.41
759.059	3385.29
759.242	3362.76
759.426	3356.62
759.61	3184.59
759.794	3338.19
759.977	3321.81
760.161	3420.11
760.345	3280.85
760.528	3307.47
760.712	3184.59
760.895	3102.67
761.079	3110.86
761.263	3168.21
761.446	3010.51
761.63	3049.43
761.813	3059.67
761.997	3024.85
762.18	2920.4
762.364	2938.84
762.547	2947.03
762.731	2967.51
762.914	2979.79
763.098	2848.72
763.281	2947.03
763.464	2762.71
763.648	2887.64
763.831	2877.4
764.015	2779.09
764.198	2873.3
764.381	2805.72
764.564	2848.72
764.748	2848.72
764.931	2846.68
765.114	2789.33
765.297	2676.7
765.481	2713.56
765.664	2748.37
765.847	2709.46
766.03	2686.93
766.213	2666.46
766.397	2623.45
766.58	2674.65
766.763	2729.94
766.946	2555.86
767.129	2555.86
767.312	2629.59
767.495	2582.49
767.678	2430.94
767.861	2535.39
768.044	2553.82
768.227	2500.57
768.41	2535.39
768.593	2463.71
768.776	2469.85
768.959	2367.45
769.142	2516.95
769.324	2365.4
769.507	2324.44
769.69	2279.39
769.873	2416.6
770.056	2418.65
770.239	2295.77
770.421	2381.79
770.604	2299.87
770.787	2248.67
770.97	2240.48
771.152	2367.45
771.335	2226.14
771.518	2303.96
771.7	2228.19
771.883	2283.49
772.066	2246.62
772.248	2232.29
772.431	2226.14
772.613	2228.19
772.796	2158.56
772.978	2146.27
773.161	2189.28
773.343	2068.45
773.526	1988.58
773.708	2011.11
773.891	2062.3
774.073	1972.19
774.256	1908.71
774.438	2156.51
774.621	1959.91
774.803	2037.73
774.985	1914.85
775.168	1976.29
775.35	1902.56
775.532	1886.18
775.715	1808.36
775.897	1824.74
776.079	1892.32
776.261	1847.27
776.444	1777.64
776.626	1775.59
776.808	1920.99
776.99	1726.44
777.173	1796.07
777.355	1744.87
777.537	1787.88
777.719	1654.76
777.901	1644.52
778.083	1638.37
778.265	1603.56
778.447	1691.62
778.629	1607.66
778.811	1667.05
778.993	1607.66
779.175	1681.38
779.357	1599.46
779.539	1548.26
779.721	1595.37
779.903	1527.78
780.085	1527.78
780.267	1505.26
780.449	1525.74
780.631	1447.91
780.812	1456.11
780.994	1449.96
781.176	1449.96
781.358	1431.53
781.54	1378.28
781.721	1519.59
781.903	1458.15
782.085	1349.61
782.267	1351.66
782.448	1366
782.63	1384.43
782.812	1372.14
782.993	1290.22
783.175	1417.19
783.357	1316.84
783.538	1347.56
783.72	1275.88
783.901	1267.69
784.083	1230.83
784.264	1267.69
784.446	1212.4
784.627	1157.1
784.809	1134.57
784.99	1099.76
785.172	1193.97
785.353	1161.2
785.535	1157.1
785.716	1136.62
785.897	1116.14
786.079	1165.29
786.26	1140.72
786.441	1050.61
786.623	1021.94
786.804	1023.98
786.985	1128.43
787.167	1046.51
787.348	1116.14
787.529	1066.99
787.71	1077.23
787.891	1013.74
788.073	1015.79
788.254	1021.94
788.435	1079.28
788.616	1058.8
788.797	897.01
788.978	978.93
789.159	950.26
789.34	1042.42
789.522	903.15
789.703	983.02
789.884	915.44
790.065	905.2
790.246	1021.94
790.427	923.63
790.607	962.55
790.788	995.31
790.969	808.95
791.15	985.07
791.331	823.28
791.512	839.67
791.693	819.19
791.874	874.48
792.054	907.25
792.235	858.1
792.416	888.82
792.597	849.91
792.778	765.94
792.958	880.63
793.139	829.43
793.32	780.28
793.5	796.66
793.681	808.95
793.862	813.04
794.042	817.14
794.223	663.54
794.404	767.99
794.584	759.8
794.765	829.43
794.945	774.13
795.126	718.84
795.306	755.7
795.487	751.6
795.667	698.36
795.848	796.66
796.028	790.52
796.209	759.8
796.389	735.22
796.57	636.92
796.75	763.89
796.93	708.6
797.111	706.55
797.291	673.78
797.471	706.55
797.652	776.18
797.832	722.93
798.012	790.52
798.192	653.3
798.373	643.06
798.553	628.73
798.733	620.53
798.913	616.44
799.093	655.35
799.274	686.07
799.454	763.89
799.634	628.73
799.814	610.29
799.994	614.39
800.174	641.01
800.354	661.49
800.534	620.53
800.714	628.73
800.894	485.37
801.074	624.63
801.254	563.19
801.434	645.11
801.614	579.58
801.794	577.53
801.974	1357.8
802.154	464.89
802.334	538.62
802.514	559.1
802.693	546.81
802.873	534.52
803.053	645.11
803.233	606.2
803.413	604.15
803.592	571.38
803.772	534.52
803.952	544.76
804.131	544.76
804.311	641.01
804.491	552.95
804.67	481.27
804.85	567.29
805.03	604.15
805.209	557.05
805.389	536.57
805.568	466.94
805.748	493.56
805.928	561.14
806.107	487.42
806.287	503.8
806.466	534.52
806.646	514.04
806.825	493.56
807.004	507.9
807.184	473.08
807.363	536.57
807.543	511.99
807.722	491.51
807.901	550.9
808.081	511.99
808.26	399.35
808.439	407.55
808.619	509.94
808.798	473.08
808.977	415.74
809.156	536.57
809.336	475.13
809.515	501.75
809.694	432.12
809.873	432.12
810.052	428.03
810.231	466.94
810.411	423.93
810.59	522.23
810.769	395.26
810.948	430.07
811.127	397.31
811.306	415.74
811.485	342.01
811.664	505.85
811.843	395.26
812.022	356.35
812.201	358.39
812.38	397.31
812.559	419.83
812.737	405.5
812.916	380.92
813.095	301.05
813.274	417.79
813.453	387.07
813.632	446.46
813.811	374.78
813.989	382.97
814.168	389.11
814.347	397.31
814.526	342.01
814.704	434.17
814.883	434.17
815.062	372.73
815.24	380.92
815.419	370.68
815.598	342.01
815.776	376.83
815.955	299
816.133	290.81
816.312	405.5
816.49	313.34
816.669	262.14
816.847	331.77
817.026	366.59
817.204	321.53
817.383	366.59
817.561	348.15
817.74	339.96
817.918	354.3
818.097	325.63
818.275	321.53
818.453	321.53
818.632	307.2
818.81	313.34
818.988	274.43
819.167	319.48
819.345	284.67
819.523	325.63
819.701	378.87
819.879	264.19
820.058	272.38
820.236	280.57
820.414	309.24
820.592	331.77
820.77	339.96
820.948	274.43
821.127	258.04
821.305	329.72
821.483	292.86
821.661	309.24
821.839	266.24
822.017	241.66
822.195	225.28
822.373	358.39
822.551	262.14
822.729	264.19
822.907	262.14
823.085	337.91
823.262	311.29
823.44	180.22
823.618	280.57
823.796	301.05
823.974	202.75
824.152	317.44
824.329	210.94
824.507	307.2
824.685	313.34
824.863	253.95
825.04	346.11
825.218	325.63
825.396	231.42
825.574	223.23
825.751	219.13
825.929	274.43
826.107	276.48
826.284	227.32
826.462	301.05
826.639	212.99
826.817	172.03
826.994	274.43
827.172	204.8
827.349	305.15
827.527	231.42
827.704	233.47
827.882	229.37
828.059	190.46
828.237	241.66
828.414	323.58
828.591	100.35
828.769	217.08
828.946	264.19
829.124	190.46
829.301	186.37
829.478	241.66
829.655	258.04
829.833	210.94
830.01	225.28
830.187	239.61
830.364	200.7
830.542	212.99
830.719	256
830.896	258.04
831.073	186.37
831.25	198.65
831.427	243.71
831.604	135.17
831.782	145.41
831.959	260.09
832.136	227.32
832.313	266.24
832.49	174.08
832.667	188.41
832.844	190.46
833.021	219.13
833.198	184.32
833.374	186.37
833.551	190.46
833.728	174.08
833.905	251.9
834.082	137.21
834.259	200.7
834.436	247.8
834.612	176.13
834.789	219.13
834.966	174.08
835.143	159.74
835.319	94.21
835.496	215.04
835.673	176.13
835.85	182.27
836.026	124.93
836.203	206.84
836.38	143.36
836.556	159.74
836.733	104.45
836.909	176.13
837.086	137.21
837.262	88.06
837.439	169.98
837.616	194.56
837.792	221.18
837.968	147.45
838.145	135.17
838.321	235.52
838.498	268.28
838.674	159.74
838.851	110.59
839.027	143.36
839.203	98.3
839.38	172.03
839.556	176.13
839.732	161.79
839.909	124.93
840.085	186.37
840.261	129.02
840.437	215.04
840.614	79.87
840.79	237.56
840.966	227.32
841.142	225.28
841.318	86.01
841.494	210.94
841.671	137.21
841.847	227.32
842.023	94.21
842.199	145.41
842.375	219.13
842.551	83.97
842.727	159.74
842.903	192.51
843.079	55.3
843.255	174.08
843.431	184.32
843.607	141.31
843.783	141.31
843.959	178.17
844.134	139.26
844.31	129.02
844.486	71.68
844.662	67.58
844.838	143.36
845.013	126.97
845.189	174.08
845.365	120.83
845.541	59.39
845.716	61.44
845.892	129.02
846.068	112.64
846.244	116.73
846.419	129.02
846.595	133.12
846.77	145.41
846.946	133.12
847.122	77.82
847.297	106.49
847.473	145.41
847.648	92.16
847.824	100.35
847.999	40.96
848.175	155.65
848.35	124.93
848.526	126.97
848.701	118.78
848.876	126.97
849.052	157.69
849.227	94.21
849.403	129.02
849.578	98.3
849.753	137.21
849.929	161.79
850.104	114.69
850.279	96.25
850.454	137.21
850.63	83.97
850.805	53.25
850.98	98.3
851.155	120.83
851.33	69.63
851.505	116.73
851.681	137.21
851.856	83.97
852.031	116.73
852.206	122.88
852.381	53.25
852.556	83.97
852.731	129.02
852.906	90.11
853.081	94.21
853.256	45.06
853.431	104.45
853.606	34.82
853.781	143.36
853.956	38.91
854.131	169.98
854.305	-0
854.48	124.93
854.655	116.73
854.83	53.25
855.005	51.2
855.18	147.45
855.354	57.34
855.529	153.6
855.704	65.53
855.879	69.63
856.053	75.77
856.228	59.39
856.403	83.97
856.577	96.25
856.752	28.67
856.926	51.2
857.101	75.77
857.276	63.49
857.45	53.25
857.625	47.1
857.799	106.49
857.974	96.25
858.148	30.72
858.323	59.39
858.497	65.53
858.672	45.06
858.846	81.92
859.02	151.55
859.195	129.02
859.369	34.82
859.543	86.01
859.718	14.34
859.892	65.53
860.066	43.01
860.241	6.14
860.415	30.72
860.589	38.91
860.763	75.77
860.938	18.43
861.112	67.58
861.286	6.14
861.46	124.93
861.634	112.64
861.808	94.21
861.982	61.44
862.157	47.1
862.331	-22.53
862.505	-10.24
862.679	14.34
862.853	18.43
863.027	22.53
863.201	112.64
863.375	18.43
863.549	10.24
863.722	38.91
863.896	178.17
864.07	69.63
864.244	38.91
864.418	20.48
864.592	-14.34
864.766	14.34
864.939	77.82
865.113	34.82
865.287	92.16
865.461	-18.43
865.634	88.06
865.808	118.78
865.982	63.49
866.156	-4.1
866.329	63.49
866.503	88.06
866.676	-20.48
866.85	108.54
867.024	36.86
867.197	106.49
867.371	38.91
867.544	71.68
867.718	61.44
867.891	149.5
868.065	10.24
868.238	14.34
868.412	53.25
868.585	59.39
868.759	22.53
868.932	40.96
869.105	-34.82
869.279	53.25
869.452	-24.58
869.625	79.87
869.799	90.11
869.972	14.34
870.145	-45.06
870.319	47.1
870.492	4.1
870.665	79.87
870.838	49.15
871.011	-32.77
871.185	30.72
871.358	88.06
871.531	83.97
871.704	96.25
871.877	88.06
872.05	40.96
872.223	32.77
872.396	104.45
872.569	63.49
872.742	-86.01
872.915	73.73
873.088	-6.14
873.261	-10.24
873.434	-20.48
873.607	2.05
873.78	59.39
873.953	38.91
874.126	45.06
874.299	71.68
874.471	51.2
874.644	34.82
874.817	94.21
874.99	49.15
875.163	55.3
875.335	88.06
875.508	47.1
875.681	133.12
875.853	14.34
876.026	22.53
876.199	49.15
876.371	-22.53
876.544	34.82
876.717	137.21
876.889	61.44
877.062	102.4
877.234	-16.38
877.407	61.44
877.579	12.29
877.752	28.67
877.924	40.96
878.097	63.49
878.269	38.91
878.442	-10.24
878.614	30.72
878.786	61.44
878.959	106.49
879.131	-10.24
879.303	-59.39
879.476	16.38
879.648	100.35
879.82	32.77
879.993	18.43
880.165	77.82
880.337	67.58
880.509	73.73
880.681	26.62
880.854	55.3
881.026	55.3
881.198	14.34
881.37	-14.34
881.542	-0
881.714	88.06
881.886	-30.72
882.058	-18.43
882.23	55.3
882.402	45.06
882.574	-14.34
882.746	65.53
882.918	96.25
883.09	14.34
883.262	38.91
883.434	26.62
883.606	-10.24
883.778	43.01
883.95	116.73
884.122	55.3
884.293	20.48
884.465	34.82
884.637	79.87
884.809	-18.43
884.98	38.91
885.152	10.24
885.324	63.49
885.496	47.1
885.667	10.24
885.839	38.91
886.011	53.25
886.182	30.72
886.354	24.58
886.525	12.29
886.697	6.14
886.869	-16.38
887.04	8.19
887.212	45.06
887.383	124.93
887.555	81.92
887.726	38.91
887.897	38.91
888.069	67.58
888.24	-2.05
888.412	47.1
888.583	28.67
888.754	73.73
888.926	4.1
889.097	28.67
889.268	-28.67
889.44	6.14
889.611	-26.62
889.782	26.62
889.953	-55.3
890.125	153.6
890.296	6.14
890.467	49.15
890.638	30.72
890.809	47.1
890.98	22.53
891.151	22.53
891.323	75.77
891.494	-8.19
891.665	59.39
891.836	38.91
892.007	-6.14
892.178	22.53
892.349	-22.53
892.52	-32.77
892.691	55.3
892.862	-75.77
893.032	26.62
893.203	81.92
893.374	55.3
893.545	75.77
893.716	6.14
893.887	86.01
894.057	24.58
894.228	45.06
894.399	-10.24
894.57	73.73
894.74	67.58
894.911	-30.72
895.082	-55.3
895.253	6.14
895.423	-12.29
895.594	2.05
895.764	4.1
895.935	63.49
896.106	63.49
896.276	20.48
896.447	-30.72
896.617	67.58
896.788	-47.1
896.958	-40.96
897.129	30.72
897.299	-4.1
897.47	86.01
897.64	28.67
897.81	-51.2
897.981	100.35
898.151	-67.58
898.322	10.24
898.492	88.06
898.662	28.67
898.832	-49.15
899.003	20.48
899.173	30.72
899.343	12.29
899.513	-34.82
