Data from USB4F104151__101__11-32-21-999.txt Node

Date: Fri Mar 14 11:32:21 EDT 2025
User: louis
Spectrometer: USB4F10415
Trigger mode: 4
Integration Time (sec): 5.000000E-2
Scans to average: 1
Electric dark correction enabled: true
Nonlinearity correction enabled: false
Boxcar width: 0
XAxis mode: Wavelengths
Number of Pixels in Spectrum: 3648
>>>>>Begin Spectral Data<<<<<
178.204	-172.2
178.424	-172.2
178.644	-172.2
178.864	-137.38
179.084	-200.87
179.304	-53.42
179.524	-45.23
179.744	-30.89
179.964	55.12
180.184	20.31
180.404	18.26
180.624	-4.27
180.844	75.6
181.064	-41.13
181.283	-22.7
181.503	-0.17
181.723	28.5
181.943	-39.08
182.163	8.02
182.383	12.12
182.602	-37.03
182.822	57.17
183.042	48.98
183.262	28.5
183.482	-28.84
183.701	34.64
183.921	59.22
184.141	32.6
184.361	75.6
184.58	34.64
184.8	-69.8
185.02	22.36
185.239	46.93
185.459	44.88
185.679	42.84
185.898	18.26
186.118	57.17
186.338	12.12
186.557	32.6
186.777	-94.38
186.997	67.41
187.216	48.98
187.436	98.13
187.655	18.26
187.875	28.5
188.095	12.12
188.314	81.75
188.534	46.93
188.753	-30.89
188.973	34.64
189.192	77.65
189.412	3.93
189.631	20.31
189.851	-14.51
190.07	46.93
190.29	55.12
190.509	8.02
190.729	3.93
190.948	67.41
191.168	132.95
191.387	110.42
191.607	3.93
191.826	55.12
192.045	30.55
192.265	-12.46
192.484	-61.61
192.704	26.45
192.923	-8.36
193.142	91.99
193.362	1.88
193.581	32.6
193.8	73.56
194.02	75.6
194.239	20.31
194.458	55.12
194.678	26.45
194.897	42.84
195.116	83.8
195.335	14.17
195.555	75.6
195.774	-8.36
195.993	75.6
196.212	55.12
196.432	-16.55
196.651	26.45
196.87	-28.84
197.089	110.42
197.308	-22.7
197.528	24.4
197.747	28.5
197.966	-6.31
198.185	126.8
198.404	12.12
198.623	51.03
198.842	57.17
199.062	71.51
199.281	38.74
199.5	-41.13
199.719	-12.46
199.938	55.12
200.157	106.32
200.376	53.08
200.595	36.69
200.814	40.79
201.033	16.21
201.252	32.6
201.471	98.13
201.69	79.7
201.909	-8.36
202.128	61.27
202.347	32.6
202.566	61.27
202.785	-24.75
203.004	-8.36
203.223	40.79
203.442	63.32
203.661	-12.46
203.879	40.79
204.098	12.12
204.317	14.17
204.536	26.45
204.755	12.12
204.974	63.32
205.193	44.88
205.411	114.52
205.63	85.84
205.849	24.4
206.068	-32.94
206.287	-20.65
206.505	14.17
206.724	44.88
206.943	28.5
207.162	-2.22
207.381	51.03
207.599	61.27
207.818	-37.03
208.037	22.36
208.255	-4.27
208.474	-28.84
208.693	61.27
208.911	12.12
209.13	118.61
209.349	-6.31
209.567	71.51
209.786	77.65
210.005	63.32
210.223	26.45
210.442	10.07
210.661	20.31
210.879	16.21
211.098	-47.27
211.316	73.56
211.535	63.32
211.753	53.08
211.972	-49.32
212.191	5.97
212.409	-47.27
212.628	38.74
212.846	-26.79
213.065	20.31
213.283	44.88
213.502	12.12
213.72	16.21
213.938	57.17
214.157	48.98
214.375	46.93
214.594	-41.13
214.812	44.88
215.031	1.88
215.249	42.84
215.467	-6.31
215.686	42.84
215.904	51.03
216.122	-57.51
216.341	48.98
216.559	69.46
216.778	57.17
216.996	151.38
217.214	-0.17
217.432	59.22
217.651	34.64
217.869	26.45
218.087	36.69
218.306	-61.61
218.524	75.6
218.742	14.17
218.96	-20.65
219.179	53.08
219.397	75.6
219.615	102.23
219.833	-4.27
220.051	8.02
220.27	26.45
220.488	59.22
220.706	73.56
220.924	-14.51
221.142	36.69
221.36	-4.27
221.578	69.46
221.796	24.4
222.015	28.5
222.233	69.46
222.451	61.27
222.669	-20.65
222.887	73.56
223.105	-6.31
223.323	22.36
223.541	71.51
223.759	-10.41
223.977	38.74
224.195	-2.22
224.413	94.04
224.631	75.6
224.849	22.36
225.067	55.12
225.285	3.93
225.503	14.17
225.721	-16.55
225.939	32.6
226.157	61.27
226.375	118.61
226.592	44.88
226.81	44.88
227.028	67.41
227.246	67.41
227.464	-12.46
227.682	28.5
227.9	16.21
228.117	91.99
228.335	91.99
228.553	12.12
228.771	8.02
228.989	44.88
229.206	79.7
229.424	44.88
229.642	1.88
229.86	3.93
230.077	61.27
230.295	83.8
230.513	28.5
230.731	44.88
230.948	67.41
231.166	61.27
231.384	71.51
231.601	-12.46
231.819	63.32
232.037	55.12
232.254	-98.47
232.472	57.17
232.689	1.88
232.907	79.7
233.125	-67.75
233.342	53.08
233.56	-92.33
233.777	-45.23
233.995	26.45
234.213	42.84
234.43	10.07
234.648	42.84
234.865	69.46
235.083	32.6
235.3	-41.13
235.518	8.02
235.735	108.37
235.953	30.55
236.17	3.93
236.388	24.4
236.605	61.27
236.822	77.65
237.04	59.22
237.257	32.6
237.475	46.93
237.692	67.41
237.909	53.08
238.127	-39.08
238.344	108.37
238.562	-24.75
238.779	-67.75
238.996	-55.47
239.214	26.45
239.431	46.93
239.648	61.27
239.865	-20.65
240.083	83.8
240.3	91.99
240.517	-12.46
240.735	-18.6
240.952	53.08
241.169	81.75
241.386	100.18
241.603	63.32
241.821	-47.27
242.038	100.18
242.255	40.79
242.472	-73.9
242.689	77.65
242.907	5.97
243.124	16.21
243.341	1.88
243.558	-57.51
243.775	-41.13
243.992	-57.51
244.209	44.88
244.426	167.76
244.643	67.41
244.86	59.22
245.078	96.08
245.295	-2.22
245.512	67.41
245.729	-14.51
245.946	-16.55
246.163	-53.42
246.38	100.18
246.597	10.07
246.814	32.6
247.031	30.55
247.248	-22.7
247.464	16.21
247.681	10.07
247.898	14.17
248.115	3.93
248.332	34.64
248.549	96.08
248.766	44.88
248.983	128.85
249.2	42.84
249.417	73.56
249.633	14.17
249.85	26.45
250.067	-24.75
250.284	34.64
250.501	26.45
250.717	118.61
250.934	1.88
251.151	51.03
251.368	-37.03
251.585	118.61
251.801	77.65
252.018	8.02
252.235	110.42
252.451	40.79
252.668	-28.84
252.885	81.75
253.102	1.88
253.318	-16.55
253.535	5.97
253.752	12.12
253.968	3.93
254.185	28.5
254.401	34.64
254.618	36.69
254.835	51.03
255.051	59.22
255.268	36.69
255.484	63.32
255.701	112.47
255.917	26.45
256.134	34.64
256.351	42.84
256.567	-45.23
256.784	-18.6
257	-30.89
257.217	40.79
257.433	22.36
257.65	-24.75
257.866	48.98
258.082	20.31
258.299	-100.52
258.515	34.64
258.732	-55.47
258.948	20.31
259.165	18.26
259.381	-30.89
259.597	44.88
259.814	-20.65
260.03	48.98
260.246	32.6
260.463	61.27
260.679	79.7
260.895	-61.61
261.112	77.65
261.328	-12.46
261.544	18.26
261.761	77.65
261.977	32.6
262.193	-77.99
262.409	128.85
262.626	38.74
262.842	118.61
263.058	40.79
263.274	-0.17
263.49	71.51
263.707	-12.46
263.923	46.93
264.139	-18.6
264.355	46.93
264.571	5.97
264.787	32.6
265.004	106.32
265.22	-0.17
265.436	10.07
265.652	-8.36
265.868	51.03
266.084	20.31
266.3	67.41
266.516	-26.79
266.732	51.03
266.948	-8.36
267.164	-28.84
267.38	30.55
267.596	59.22
267.812	38.74
268.028	-24.75
268.244	1.88
268.46	5.97
268.676	-4.27
268.892	110.42
269.108	36.69
269.324	3.93
269.54	8.02
269.756	-8.36
269.972	-34.99
270.188	75.6
270.403	12.12
270.619	83.8
270.835	-4.27
271.051	34.64
271.267	-39.08
271.483	-69.8
271.698	-14.51
271.914	67.41
272.13	22.36
272.346	8.02
272.562	28.5
272.777	57.17
272.993	30.55
273.209	22.36
273.425	38.74
273.64	-55.47
273.856	12.12
274.072	59.22
274.287	-10.41
274.503	10.07
274.719	-14.51
274.934	85.84
275.15	-2.22
275.366	1.88
275.581	-12.46
275.797	53.08
276.012	-0.17
276.228	59.22
276.444	36.69
276.659	44.88
276.875	34.64
277.09	-37.03
277.306	-16.55
277.521	36.69
277.737	20.31
277.952	65.36
278.168	34.64
278.383	57.17
278.599	44.88
278.814	59.22
279.03	10.07
279.245	106.32
279.461	63.32
279.676	61.27
279.892	46.93
280.107	-6.31
280.322	53.08
280.538	96.08
280.753	-75.95
280.969	3.93
281.184	-12.46
281.399	100.18
281.615	26.45
281.83	48.98
282.045	-24.75
282.26	3.93
282.476	44.88
282.691	100.18
282.906	14.17
283.122	91.99
283.337	28.5
283.552	81.75
283.767	34.64
283.983	42.84
284.198	30.55
284.413	40.79
284.628	-10.41
284.843	61.27
285.058	-6.31
285.274	3.93
285.489	-2.22
285.704	44.88
285.919	8.02
286.134	30.55
286.349	28.5
286.564	36.69
286.779	53.08
286.995	-32.94
287.21	-20.65
287.425	91.99
287.64	-4.27
287.855	14.17
288.07	-37.03
288.285	110.42
288.5	83.8
288.715	42.84
288.93	73.56
289.145	53.08
289.36	24.4
289.575	-73.9
289.79	30.55
290.004	-14.51
290.219	71.51
290.434	-12.46
290.649	-0.17
290.864	-0.17
291.079	38.74
291.294	44.88
291.509	89.94
291.724	57.17
291.938	77.65
292.153	73.56
292.368	-12.46
292.583	44.88
292.798	83.8
293.012	12.12
293.227	65.36
293.442	-6.31
293.657	69.46
293.871	94.04
294.086	85.84
294.301	61.27
294.516	22.36
294.73	59.22
294.945	24.4
295.16	-12.46
295.374	40.79
295.589	40.79
295.804	34.64
296.018	20.31
296.233	91.99
296.447	12.12
296.662	12.12
296.877	-28.84
297.091	108.37
297.306	85.84
297.52	44.88
297.735	3.93
297.949	36.69
298.164	30.55
298.378	18.26
298.593	10.07
298.807	-8.36
299.022	81.75
299.236	44.88
299.451	-16.55
299.665	14.17
299.88	34.64
300.094	12.12
300.309	14.17
300.523	44.88
300.737	-8.36
300.952	67.41
301.166	71.51
301.381	-47.27
301.595	-20.65
301.809	1.88
302.024	3.93
302.238	-26.79
302.452	73.56
302.667	48.98
302.881	83.8
303.095	77.65
303.309	-10.41
303.524	10.07
303.738	51.03
303.952	32.6
304.166	65.36
304.381	-51.37
304.595	110.42
304.809	38.74
305.023	67.41
305.237	-45.23
305.452	73.56
305.666	89.94
305.88	135
306.094	12.12
306.308	36.69
306.522	75.6
306.736	53.08
306.95	-24.75
307.164	42.84
307.379	-4.27
307.593	59.22
307.807	16.21
308.021	46.93
308.235	28.5
308.449	-37.03
308.663	-18.6
308.877	126.8
309.091	40.79
309.305	69.46
309.519	-37.03
309.733	77.65
309.947	-2.22
310.161	51.03
310.374	46.93
310.588	118.61
310.802	-24.75
311.016	40.79
311.23	28.5
311.444	48.98
311.658	79.7
311.872	24.4
312.085	67.41
312.299	81.75
312.513	75.6
312.727	67.41
312.941	-49.32
313.154	-4.27
313.368	44.88
313.582	91.99
313.796	-8.36
314.009	12.12
314.223	94.04
314.437	61.27
314.651	36.69
314.864	-22.7
315.078	-39.08
315.292	-12.46
315.505	48.98
315.719	55.12
315.933	30.55
316.146	44.88
316.36	-51.37
316.573	63.32
316.787	61.27
317.001	20.31
317.214	3.93
317.428	118.61
317.641	-6.31
317.855	48.98
318.068	-6.31
318.282	1.88
318.495	128.85
318.709	30.55
318.922	-45.23
319.136	120.66
319.349	32.6
319.563	3.93
319.776	85.84
319.99	-18.6
320.203	63.32
320.417	126.8
320.63	26.45
320.843	155.47
321.057	104.28
321.27	65.36
321.483	94.04
321.697	12.12
321.91	91.99
322.124	67.41
322.337	-0.17
322.55	-10.41
322.763	-8.36
322.977	48.98
323.19	42.84
323.403	14.17
323.617	48.98
323.83	77.65
324.043	-71.85
324.256	73.56
324.469	3.93
324.683	46.93
324.896	75.6
325.109	34.64
325.322	-63.66
325.535	26.45
325.748	53.08
325.962	12.12
326.175	28.5
326.388	118.61
326.601	85.84
326.814	61.27
327.027	122.71
327.24	87.89
327.453	-0.17
327.666	112.47
327.879	-24.75
328.092	65.36
328.305	71.51
328.518	48.98
328.731	67.41
328.944	32.6
329.157	71.51
329.37	51.03
329.583	118.61
329.796	167.76
330.009	-61.61
330.222	1.88
330.435	53.08
330.648	-39.08
330.861	46.93
331.073	-28.84
331.286	30.55
331.499	-26.79
331.712	-45.23
331.925	48.98
332.138	53.08
332.35	91.99
332.563	-53.42
332.776	36.69
332.989	51.03
333.202	24.4
333.414	46.93
333.627	20.31
333.84	12.12
334.053	51.03
334.265	14.17
334.478	77.65
334.691	-6.31
334.903	-12.46
335.116	40.79
335.329	75.6
335.541	53.08
335.754	53.08
335.966	89.94
336.179	32.6
336.392	36.69
336.604	22.36
336.817	-4.27
337.029	38.74
337.242	3.93
337.454	48.98
337.667	42.84
337.88	63.32
338.092	44.88
338.305	124.76
338.517	-12.46
338.729	12.12
338.942	149.33
339.154	24.4
339.367	28.5
339.579	73.56
339.792	-4.27
340.004	108.37
340.217	3.93
340.429	42.84
340.641	-90.28
340.854	57.17
341.066	26.45
341.278	28.5
341.491	139.09
341.703	63.32
341.915	51.03
342.128	116.56
342.34	116.56
342.552	-73.9
342.764	22.36
342.977	36.69
343.189	69.46
343.401	67.41
343.613	-32.94
343.826	30.55
344.038	-22.7
344.25	71.51
344.462	48.98
344.674	75.6
344.886	53.08
345.099	55.12
345.311	14.17
345.523	36.69
345.735	46.93
345.947	48.98
346.159	34.64
346.371	-6.31
346.583	53.08
346.795	118.61
347.007	46.93
347.219	24.4
347.431	14.17
347.643	100.18
347.855	3.93
348.067	87.89
348.279	-24.75
348.491	48.98
348.703	77.65
348.915	100.18
349.127	-8.36
349.339	12.12
349.551	63.32
349.763	53.08
349.975	98.13
350.187	67.41
350.399	102.23
350.61	102.23
350.822	57.17
351.034	36.69
351.246	-8.36
351.458	81.75
351.669	79.7
351.881	110.42
352.093	53.08
352.305	42.84
352.517	143.19
352.728	71.51
352.94	46.93
353.152	104.28
353.363	42.84
353.575	71.51
353.787	77.65
353.999	69.46
354.21	-0.17
354.422	106.32
354.633	-4.27
354.845	16.21
355.057	14.17
355.268	28.5
355.48	26.45
355.692	16.21
355.903	1.88
356.115	12.12
356.326	-57.51
356.538	44.88
356.749	24.4
356.961	71.51
357.172	-12.46
357.384	61.27
357.595	77.65
357.807	69.46
358.018	3.93
358.23	26.45
358.441	151.38
358.653	32.6
358.864	106.32
359.075	85.84
359.287	65.36
359.498	126.8
359.709	-8.36
359.921	81.75
360.132	67.41
360.344	32.6
360.555	77.65
360.766	48.98
360.977	-8.36
361.189	118.61
361.4	16.21
361.611	57.17
361.823	36.69
362.034	36.69
362.245	-30.89
362.456	8.02
362.667	75.6
362.879	53.08
363.09	18.26
363.301	36.69
363.512	61.27
363.723	91.99
363.935	40.79
364.146	30.55
364.357	-14.51
364.568	81.75
364.779	-61.61
364.99	120.66
365.201	46.93
365.412	87.89
365.623	-47.27
365.834	20.31
366.045	67.41
366.256	122.71
366.467	75.6
366.678	77.65
366.889	20.31
367.1	36.69
367.311	57.17
367.522	16.21
367.733	-39.08
367.944	81.75
368.155	20.31
368.366	32.6
368.577	94.04
368.788	63.32
368.999	44.88
369.209	40.79
369.42	126.8
369.631	132.95
369.842	10.07
370.053	16.21
370.264	108.37
370.474	-16.55
370.685	20.31
370.896	79.7
371.107	130.9
371.317	61.27
371.528	83.8
371.739	106.32
371.95	1.88
372.16	75.6
372.371	-28.84
372.582	110.42
372.792	57.17
373.003	34.64
373.214	57.17
373.424	28.5
373.635	71.51
373.846	48.98
374.056	34.64
374.267	36.69
374.477	59.22
374.688	16.21
374.898	85.84
375.109	122.71
375.319	-4.27
375.53	48.98
375.74	124.76
375.951	85.84
376.161	67.41
376.372	79.7
376.582	-0.17
376.793	48.98
377.003	55.12
377.214	18.26
377.424	65.36
377.635	65.36
377.845	59.22
378.055	132.95
378.266	-69.8
378.476	16.21
378.686	53.08
378.897	53.08
379.107	16.21
379.317	112.47
379.528	3.93
379.738	28.5
379.948	-61.61
380.158	44.88
380.369	28.5
380.579	122.71
380.789	44.88
380.999	32.6
381.21	44.88
381.42	102.23
381.63	46.93
381.84	20.31
382.05	91.99
382.261	67.41
382.471	26.45
382.681	85.84
382.891	141.14
383.101	96.08
383.311	40.79
383.521	5.97
383.731	94.04
383.941	73.56
384.151	32.6
384.361	53.08
384.571	110.42
384.781	73.56
384.991	130.9
385.201	104.28
385.411	42.84
385.621	16.21
385.831	63.32
386.041	28.5
386.251	65.36
386.461	85.84
386.671	65.36
386.881	57.17
387.091	24.4
387.301	139.09
387.511	67.41
387.72	85.84
387.93	77.65
388.14	32.6
388.35	46.93
388.56	96.08
388.769	87.89
388.979	85.84
389.189	67.41
389.399	61.27
389.609	44.88
389.818	36.69
390.028	94.04
390.238	20.31
390.447	-47.27
390.657	89.94
390.867	44.88
391.076	-2.22
391.286	18.26
391.496	20.31
391.705	110.42
391.915	184.15
392.125	10.07
392.334	65.36
392.544	79.7
392.753	75.6
392.963	44.88
393.172	104.28
393.382	-16.55
393.591	149.33
393.801	20.31
394.01	102.23
394.22	69.46
394.429	104.28
394.639	5.97
394.848	51.03
395.058	124.76
395.267	75.6
395.477	114.52
395.686	83.8
395.895	135
396.105	132.95
396.314	67.41
396.524	104.28
396.733	46.93
396.942	69.46
397.152	159.57
397.361	94.04
397.57	106.32
397.78	67.41
397.989	94.04
398.198	151.38
398.407	55.12
398.617	122.71
398.826	126.8
399.035	100.18
399.244	96.08
399.453	57.17
399.663	94.04
399.872	94.04
400.081	32.6
400.29	173.91
400.499	44.88
400.708	106.32
400.917	147.28
401.127	167.76
401.336	87.89
401.545	221.01
401.754	178
401.963	85.84
402.172	87.89
402.381	69.46
402.59	143.19
402.799	96.08
403.008	188.24
403.217	116.56
403.426	202.58
403.635	112.47
403.844	147.28
404.053	116.56
404.262	194.39
404.471	155.47
404.68	130.9
404.888	71.51
405.097	151.38
405.306	145.24
405.515	159.57
405.724	118.61
405.933	159.57
406.142	130.9
406.35	141.14
406.559	118.61
406.768	214.87
406.977	278.35
407.185	163.67
407.394	122.71
407.603	132.95
407.812	243.54
408.02	239.44
408.229	231.25
408.438	237.39
408.646	216.91
408.855	243.54
409.064	276.31
409.272	182.1
409.481	327.5
409.69	294.74
409.898	272.21
410.107	331.6
410.315	370.51
410.524	280.4
410.733	401.23
410.941	397.14
411.15	390.99
411.358	431.95
411.567	446.29
411.775	421.71
411.984	466.77
412.192	315.22
412.401	415.57
412.609	466.77
412.818	472.91
413.026	497.49
413.234	446.29
413.443	503.63
413.651	528.21
413.86	651.08
414.068	620.36
414.276	595.79
414.485	544.59
414.693	556.88
414.901	667.47
415.11	665.42
415.318	700.23
415.526	661.32
415.734	769.87
415.943	749.39
416.151	841.54
416.359	739.15
416.567	839.5
416.776	882.5
416.984	993.09
417.192	976.71
417.4	941.89
417.608	896.84
417.817	952.13
418.025	1134.4
418.233	1109.83
418.441	1032.01
418.649	1115.97
418.857	1064.77
419.065	1275.71
419.273	1193.8
419.481	1158.98
419.689	1240.9
419.897	1392.45
420.105	1437.5
420.313	1482.56
420.521	1609.53
420.729	1587.01
420.937	1564.48
421.145	1705.79
421.353	1746.75
421.561	1797.95
421.769	1896.25
421.977	2068.28
422.185	2008.89
422.393	1988.41
422.601	2246.45
422.809	2203.44
423.017	2076.47
423.224	2375.47
423.432	2330.42
423.64	2271.03
423.848	2600.75
424.056	2570.03
424.263	2615.09
424.471	2666.28
424.679	2637.61
424.887	2858.79
425.094	2957.1
425.302	2959.14
425.51	3141.41
425.718	3163.94
425.925	3217.19
426.133	3338.02
426.341	3487.52
426.548	3624.73
426.756	3720.99
426.964	3645.21
427.171	3845.91
427.379	4083.48
427.586	4044.57
427.794	4280.08
428.001	4400.91
428.209	4566.8
428.417	4468.5
428.624	4722.45
428.832	4982.54
429.039	4941.58
429.247	4787.98
429.454	5349.12
429.662	5598.98
429.869	5261.06
430.076	5603.07
430.284	5400.32
430.491	5611.26
430.699	6014.71
430.906	5934.84
431.114	5965.56
431.321	6283
431.528	6477.55
431.736	6948.59
431.943	7218.92
432.15	7014.12
432.358	7259.88
432.565	7384.8
432.772	7493.35
432.979	7913.18
433.187	7974.62
433.394	8097.5
433.601	8519.38
433.808	8738.51
434.016	8376.02
434.223	8828.62
434.43	9428.68
434.637	9326.28
434.844	9823.94
435.052	9881.28
435.259	10032.83
435.466	9987.77
435.673	9748.16
435.88	10655.41
436.087	11161.26
436.294	11194.03
436.501	10831.54
436.708	11069.1
436.915	11540.13
437.122	12134.04
437.329	12105.37
437.537	12336.79
437.743	12553.88
437.95	12431
438.157	13110.93
438.364	13526.66
438.571	13334.15
438.778	13610.63
438.985	14931.57
439.192	14218.88
439.399	14839.41
439.606	14552.7
439.813	15029.87
440.02	16156.25
440.227	15947.36
440.433	15887.97
440.64	16182.88
440.847	16082.53
441.054	16479.83
441.261	17673.8
441.467	17270.35
441.674	17913.41
441.881	18214.46
442.088	18398.78
442.294	18191.94
442.501	18773.56
442.708	19127.86
442.914	19619.37
443.121	20633.11
443.328	19912.23
443.534	21347.86
443.741	20823.58
443.948	20633.11
444.154	22091.27
444.361	22199.81
444.568	22085.12
444.774	22175.23
444.981	22533.63
445.187	23303.67
445.394	24030.69
445.6	23520.75
445.807	25877.96
446.013	24559.07
446.22	25155.03
446.426	26441.15
446.633	26627.52
446.839	27424.18
447.046	26236.36
447.252	27948.46
447.459	27977.13
447.665	27989.42
447.871	28923.29
448.078	30188.94
448.284	28560.8
448.491	29455.76
448.697	30754.18
448.903	31077.76
449.11	31430.01
449.316	30655.87
449.522	31530.36
449.728	32140.65
449.935	32359.78
450.141	32179.56
450.347	33174.88
450.553	32109.93
450.76	32284.01
450.966	33609.04
451.172	32793.95
451.378	33670.48
451.584	33150.3
451.791	34082.13
451.997	33926.48
452.203	34686.28
452.409	34481.48
452.615	34395.46
452.821	33267.03
453.027	32910.69
453.233	34211.15
453.44	32873.82
453.646	33410.39
453.852	33576.28
454.058	33901.9
454.264	33060.19
454.47	33525.08
454.676	33011.04
454.882	34059.6
455.088	30913.92
455.294	31622.51
455.5	31917.42
455.705	32437.61
455.911	30938.49
456.117	30446.98
456.323	29971.85
456.529	28261.8
456.735	29453.72
456.941	28775.84
457.147	28626.34
457.352	27389.36
457.558	27456.95
457.764	27315.64
457.97	26815.93
458.176	26129.86
458.381	26025.42
458.587	24851.93
458.793	25048.54
458.999	23768.55
459.204	25087.45
459.41	24292.83
459.616	22957.56
459.821	23002.61
460.027	22652.41
460.233	22375.94
460.438	21538.32
460.644	21319.18
460.85	20631.07
461.055	20373.02
461.261	19985.96
461.466	18523.71
461.672	18036.29
461.878	19478.06
462.083	17819.21
462.289	17669.7
462.494	17872.45
462.7	17092.18
462.905	16438.87
463.111	16946.77
463.316	16971.35
463.522	16899.67
463.727	16612.95
463.932	16598.62
464.138	16285.28
464.343	16504.41
464.549	15851.11
464.754	16655.96
464.959	16623.19
465.165	16305.76
465.37	15558.25
465.575	15224.43
465.781	15939.17
465.986	16084.58
466.191	15117.93
466.397	15150.7
466.602	14282.36
466.807	14681.72
467.012	14892.66
467.218	14947.95
467.423	14487.16
467.628	14863.99
467.833	15130.22
468.038	14866.03
468.244	14343.8
468.449	14829.17
468.654	14376.57
468.859	14143.1
469.064	14233.21
469.269	13737.6
469.474	13641.35
469.679	14003.84
469.885	13651.59
470.09	13700.74
470.295	13698.69
470.5	13354.63
470.705	13461.13
470.91	13039.25
471.115	13024.91
471.32	13225.61
471.525	13205.13
471.73	12717.72
471.935	12781.2
472.139	12312.22
472.344	12334.75
472.549	12502.68
472.754	12144.28
472.959	11964.06
473.164	11728.55
473.369	11839.14
473.574	11970.21
473.778	11841.18
473.983	11886.24
474.188	11667.11
474.393	11155.12
474.598	11288.23
474.802	11120.3
475.007	10970.8
475.212	11040.43
475.417	10495.67
475.621	10624.69
475.826	10739.38
476.031	10225.34
476.235	10251.96
476.44	10409.65
476.645	10387.13
476.849	10133.18
477.054	10104.51
477.259	10100.41
477.463	9944.77
477.668	9739.97
477.872	9727.68
478.077	9742.02
478.282	9584.32
478.486	9465.54
478.691	9496.26
478.895	9387.72
479.1	9219.78
479.304	9240.26
479.509	8859.34
479.713	9203.4
479.918	8943.31
480.122	8922.83
480.326	9027.28
480.531	9111.24
480.735	8840.91
480.94	8632.02
481.144	9092.81
481.348	8580.82
481.553	8662.74
481.757	8369.88
481.961	8644.31
482.166	8681.17
482.37	8595.15
482.574	8472.28
482.778	8560.34
482.983	8804.05
483.187	8744.66
483.391	8769.23
483.595	8433.36
483.8	8550.1
484.004	8498.9
484.208	8777.42
484.412	8621.78
484.616	8525.52
484.821	8593.11
485.025	8515.28
485.229	8670.93
485.433	8519.38
485.637	8644.31
485.841	8416.98
486.045	8367.83
486.249	8783.57
486.453	8462.04
486.657	8605.39
486.861	8746.7
487.065	8312.53
487.269	8615.63
487.473	8517.33
487.677	8578.77
487.881	8632.02
488.085	8523.48
488.289	8591.06
488.493	8568.53
488.697	8503
488.901	8597.2
489.105	8623.83
489.309	8513.24
489.512	8744.66
489.716	8556.24
489.92	8582.87
490.124	8412.88
490.328	8941.26
490.531	8715.98
490.735	8793.81
490.939	8722.13
491.143	8693.46
491.346	8896.21
491.55	9045.71
491.754	8771.28
491.958	9113.29
492.161	8787.66
492.365	9051.85
492.569	8865.49
492.772	9105.1
492.976	8998.6
493.18	9178.83
493.383	9039.56
493.587	9297.61
493.79	9453.25
493.994	9236.17
494.197	9174.73
494.401	9621.19
494.605	9395.91
494.808	9606.85
495.012	9563.84
495.215	9674.43
495.419	9866.94
495.622	9881.28
495.825	9850.56
496.029	9985.72
496.232	10120.89
496.436	10092.22
496.639	10438.33
496.843	10202.81
497.046	10419.89
497.249	10751.67
497.453	10802.86
497.656	10774.19
497.859	10852.02
498.063	10528.44
498.266	10972.85
498.469	11146.92
498.673	11179.69
498.876	11339.43
499.079	11413.16
499.282	11452.07
499.485	11818.66
499.689	11753.12
499.892	12119.71
500.095	12002.97
500.298	12109.47
500.501	12236.44
500.705	12496.53
500.908	12662.42
501.111	12764.82
501.314	12830.35
501.517	13074.06
501.72	13139.6
501.923	13375.11
502.126	13387.4
502.329	13536.9
502.532	13799.04
502.735	13794.95
502.938	13938.3
503.141	14280.32
503.344	14253.69
503.547	14495.35
503.75	14577.27
503.953	14679.67
504.156	15050.35
504.359	15064.69
504.562	15048.3
504.765	15502.95
504.968	15711.85
505.17	15681.13
505.373	15789.67
505.576	16008.8
505.779	16465.5
505.982	16436.83
506.185	16569.94
506.387	16617.05
506.59	16840.28
506.793	17505.87
506.996	17094.22
507.198	17753.67
507.401	17614.41
507.604	17989.19
507.807	18069.06
508.009	18284.09
508.212	18148.93
508.415	18501.18
508.617	18933.3
508.82	18869.81
509.022	19131.95
509.225	19633.71
509.428	19381.81
509.63	19684.9
509.833	20063.78
510.035	20311.58
510.238	20293.15
510.44	20626.97
510.643	20717.08
510.845	21091.86
511.048	20719.13
511.25	21306.9
511.453	21372.43
511.655	21958.15
511.858	22091.27
512.06	21927.43
512.262	22703.61
512.465	22392.32
512.667	22834.68
512.87	23152.12
513.072	23389.68
513.274	23836.14
513.477	23944.68
513.679	23911.91
513.881	24077.8
514.084	24434.14
514.286	24475.1
514.488	24456.67
514.69	25365.97
514.893	25421.27
515.095	25828.81
515.297	25933.26
515.499	25853.39
515.701	26736.06
515.904	26682.81
516.106	26813.88
516.308	27547.06
516.51	27391.41
516.712	27446.71
516.914	27770.29
517.116	28480.93
517.318	28581.28
517.52	28685.73
517.722	28902.81
517.925	29554.07
518.127	29740.43
518.329	29873.55
518.531	29906.32
518.733	30403.97
518.935	30881.15
519.136	30487.94
519.338	31438.2
519.54	31532.4
519.742	32058.73
519.944	32028.01
520.146	32734.56
520.348	32908.64
520.55	33373.53
520.752	33428.82
520.954	33822.03
521.155	33781.07
521.357	33955.15
521.559	34846.02
521.761	35173.69
521.963	35198.27
522.164	35235.13
522.366	35376.44
522.568	35798.32
522.77	35671.35
522.971	36611.37
523.173	36455.72
523.375	37102.88
523.576	37197.09
523.778	37377.31
523.98	37967.12
524.181	38329.61
524.383	38190.35
524.584	39240.96
524.786	38694.15
524.988	38972.67
525.189	39671.03
525.391	39900.4
525.592	40330.48
525.794	40660.2
525.995	40563.95
526.197	40551.66
526.398	41043.17
526.6	41456.86
526.801	41624.79
527.003	41665.75
527.204	41731.29
527.406	42380.49
527.607	42249.42
527.808	42474.7
528.01	42079.44
528.211	43033.8
528.412	43664.57
528.614	43324.61
528.815	43332.8
529.016	43998.39
529.218	43719.87
529.419	44164.28
529.62	43912.38
529.822	43992.25
530.023	44424.37
530.224	44465.33
530.425	44692.65
530.626	44549.29
530.828	44651.69
531.029	45409.44
531.23	45051.05
531.431	45423.78
531.632	45300.9
531.833	45401.25
532.035	45628.57
532.236	45671.58
532.437	45896.86
532.638	45343.91
532.839	45999.26
533.04	46197.91
533.241	45888.67
533.442	47010.95
533.643	46181.52
533.844	46507.15
534.045	46769.29
534.246	46374.03
534.447	46666.89
534.648	46955.66
534.849	46986.38
535.05	46720.14
535.251	47193.22
535.451	47053.96
535.652	46941.32
535.853	47092.87
536.054	47328.39
536.255	47391.87
536.456	46668.94
536.657	47881.34
536.857	47121.54
537.058	47084.68
537.259	47670.4
537.46	47545.47
537.66	47674.49
537.861	47486.08
538.062	46900.36
538.263	47656.06
538.463	47404.16
538.664	47420.55
538.865	47619.2
539.065	47768.7
539.266	47021.19
539.466	48209.01
539.667	47236.23
539.868	48118.9
540.068	47271.04
540.269	47348.87
540.469	47785.08
540.67	47520.9
540.87	47692.93
541.071	47692.93
541.271	48059.51
541.472	47592.58
541.672	47420.55
541.873	47469.7
542.073	46662.8
542.274	47905.91
542.474	47772.8
542.675	47080.58
542.875	47668.35
543.075	47549.57
543.276	46961.8
543.476	47805.56
543.676	46814.35
543.877	47527.04
544.077	47160.45
544.277	47551.62
544.478	47668.35
544.678	47852.67
544.878	47549.57
545.078	47717.5
545.279	47164.55
545.479	47543.42
545.679	47461.51
545.879	47656.06
546.079	47285.38
546.28	47281.28
546.48	47395.97
546.68	47809.66
546.88	47764.6
547.08	47697.02
547.28	47400.07
547.48	47289.48
547.68	47172.74
547.88	47113.35
548.081	47578.24
548.281	47572.1
548.481	47551.62
548.681	47791.23
548.881	47438.98
549.081	47584.38
549.28	47518.85
549.48	47748.22
549.68	47326.34
549.88	47649.92
550.08	47182.98
550.28	47445.12
550.48	47344.77
550.68	47635.58
550.88	47113.35
551.08	47340.67
551.279	47277.19
551.479	47725.69
551.679	46873.74
551.879	47105.16
552.079	47430.79
552.278	47178.89
552.478	47242.37
552.678	46965.9
552.878	47500.42
553.077	46836.87
553.277	46761.1
553.477	47545.47
553.676	46961.8
553.876	47256.71
554.076	46703.76
554.275	46636.17
554.475	46646.41
554.674	47060.1
554.874	46718.09
555.074	46847.11
555.273	47084.68
555.473	46711.95
555.672	46412.95
555.872	46312.59
556.071	46505.1
556.271	46331.03
556.47	46085.27
556.67	46238.87
556.869	45993.11
557.068	46224.53
557.268	45890.71
557.467	45745.31
557.667	46124.18
557.866	45816.99
558.065	45597.85
558.265	45421.73
558.464	44881.06
558.663	46029.97
558.863	45204.64
559.062	45884.57
559.261	45313.19
559.461	45794.46
559.66	44844.2
559.859	45147.3
560.058	44426.42
560.258	44666.03
560.457	44223.67
560.656	45126.82
560.855	44455.09
561.054	44324.02
561.253	44080.31
561.453	44180.66
561.652	44139.7
561.851	44575.92
562.05	44072.12
562.249	43551.93
562.448	43941.05
562.647	43619.52
562.846	43158.72
563.045	43537.6
563.244	42919.11
563.443	43584.7
563.642	42726.6
563.841	43162.82
564.04	42575.05
564.239	42931.4
564.438	42439.89
564.637	43121.86
564.836	42677.45
565.035	41819.35
565.234	42501.32
565.432	41731.29
565.631	41454.81
565.83	41768.15
566.029	41284.83
566.228	41376.99
566.427	41649.37
566.625	40981.73
566.824	40436.97
567.023	41096.42
567.222	40410.35
567.42	40875.24
567.619	40330.48
567.818	40140.02
568.016	39965.94
568.215	39865.59
568.414	39728.38
568.612	40271.09
568.811	39324.93
569.01	39519.48
569.208	38956.29
569.407	39378.17
569.605	38589.7
569.804	39124.22
570.002	38728.97
570.201	38774.02
570.4	37967.12
570.598	37967.12
570.797	38067.47
570.995	38354.19
571.193	37731.61
571.392	38110.48
571.59	37063.97
571.789	37467.42
571.987	37426.46
572.186	36799.78
572.384	36914.47
572.582	36828.45
572.781	36623.65
572.979	35898.67
573.177	36480.3
573.376	36470.06
573.574	35966.26
573.772	36398.38
573.971	35870
574.169	35515.7
574.367	35429.69
574.565	35792.18
574.763	35419.45
574.962	35495.22
575.16	35030.33
575.358	35059.01
575.556	34383.18
575.754	35231.04
575.952	34489.67
576.151	34764.1
576.349	34354.51
576.547	34301.26
576.745	34479.43
576.943	34188.62
577.141	34166.09
577.339	33971.53
577.537	33813.84
577.735	33813.84
577.933	33717.59
578.131	33584.47
578.329	33244.51
578.527	32830.82
578.725	32984.41
578.923	33496.41
579.121	32763.23
579.319	32638.31
579.516	32574.82
579.714	32802.14
579.912	32593.25
580.11	32603.49
580.308	31995.25
580.506	32204.14
580.704	31563.12
580.901	32212.33
581.099	32101.74
581.297	31438.2
581.495	31415.67
581.692	31657.33
581.89	31315.32
582.088	31286.65
582.285	30911.87
582.483	31126.91
582.681	30889.34
582.878	31059.32
583.076	30780.8
583.274	30911.87
583.471	30576
583.669	30356.87
583.866	30344.58
584.064	30662.02
584.262	30119.31
584.459	30569.86
584.657	30311.81
584.854	30174.6
585.052	29705.62
585.249	30049.67
585.447	30156.17
585.644	29576.59
585.841	29633.94
586.039	29861.26
586.236	29189.53
586.434	29013.4
586.631	29054.36
586.828	28876.19
587.026	29318.55
587.223	29007.26
587.42	28745.12
587.618	28933.53
587.815	28462.5
588.012	28497.31
588.21	28454.31
588.407	28599.71
588.604	28646.82
588.801	28059.05
588.999	28259.75
589.196	28341.67
589.393	27884.97
589.59	28083.62
589.787	27860.4
589.984	27725.23
590.182	27135.42
590.379	27772.33
590.576	27217.33
590.773	27532.72
590.97	26713.53
591.167	27116.98
591.364	26965.43
591.561	27045.3
591.758	26932.67
591.955	26682.81
592.152	26834.36
592.349	26404.29
592.546	26355.14
592.743	26396.1
592.94	25875.91
593.137	26219.97
593.334	26500.54
593.531	25968.07
593.727	26117.57
593.924	25982.41
594.121	25419.22
594.318	25892.3
594.515	25476.56
594.712	25693.65
594.908	25509.33
595.105	25560.53
595.302	25380.31
595.499	25466.32
595.696	25443.79
595.892	25003.48
596.089	25488.85
596.286	25195.99
596.482	24872.41
596.679	24884.7
596.876	24759.77
597.072	24573.41
597.269	24671.71
597.466	24524.26
597.662	24325.6
597.859	24432.1
598.055	24552.93
598.252	24360.42
598.448	24036.84
598.645	24198.63
598.841	23852.52
599.038	24202.72
599.234	23766.51
599.431	23922.15
599.627	23698.92
599.824	23899.62
600.02	23350.77
600.217	23436.78
600.413	23410.16
600.609	23412.21
600.806	23248.37
601.002	23010.81
601.198	22924.79
601.395	22646.27
601.591	22697.47
601.787	22834.68
601.984	22824.44
602.18	22795.77
602.376	22717.95
602.572	22763
602.769	22603.26
602.965	22230.53
603.161	22439.42
603.357	21976.58
603.553	21929.48
603.75	22099.46
603.946	22064.64
604.142	22095.36
604.338	21755.4
604.534	21937.67
604.73	21435.92
604.926	21599.76
605.122	22027.78
605.318	21749.26
605.514	21327.38
605.71	21229.07
605.906	21175.83
606.102	21276.18
606.298	21542.41
606.494	21286.42
606.69	21585.42
606.886	21046.8
607.082	21100.05
607.278	21327.38
607.474	20842.01
607.67	20702.75
607.866	20684.31
608.062	21030.42
608.257	20852.25
608.453	20852.25
608.649	20684.31
608.845	20489.76
609.041	20459.04
609.236	20594.2
609.432	20413.98
609.628	20467.23
609.824	20327.97
610.019	20102.69
610.215	20256.29
610.411	20155.94
610.606	19785.26
610.802	20184.61
610.998	20104.74
611.193	20102.69
611.389	20153.89
611.584	19945
611.78	19686.95
611.976	19815.97
612.171	19758.63
612.367	19459.63
612.562	19306.03
612.758	19408.43
612.953	19621.42
613.149	19498.54
613.344	19334.7
613.539	19344.94
613.735	19314.22
613.93	19639.85
614.126	19177.01
614.321	19172.91
614.517	19250.74
614.712	19148.34
614.907	19121.71
615.103	19148.34
615.298	18982.45
615.493	19177.01
615.688	18955.83
615.884	19000.88
616.079	18617.91
616.274	18585.15
616.47	18744.89
616.665	18693.69
616.86	18476.6
617.055	18607.67
617.25	18542.14
617.445	18779.7
617.641	18105.92
617.836	18468.41
618.031	18189.89
618.226	18474.56
618.421	18124.35
618.616	18314.81
618.811	17966.66
619.006	18075.2
619.201	17731.14
619.396	17933.89
619.591	17643.08
619.786	17931.84
619.981	17555.02
620.176	17856.07
620.371	17327.69
620.566	17497.67
620.761	17325.64
620.956	17290.83
621.151	17122.9
621.346	17159.76
621.541	17075.79
621.735	17243.73
621.93	16744.02
622.125	16762.45
622.32	16504.41
622.515	16621.14
622.709	16447.07
622.904	16295.52
623.099	16397.92
623.294	16549.46
623.488	16354.91
623.683	16064.1
623.878	16010.85
624.072	15928.93
624.267	15914.59
624.462	15806.05
624.656	15605.35
624.851	15576.68
625.046	15599.21
625.24	15449.71
625.435	15105.65
625.629	15351.4
625.824	15142.51
626.018	15167.09
626.213	14898.8
626.407	15046.26
626.602	14843.51
626.796	14845.55
626.991	14751.35
627.185	14814.84
627.38	14528.12
627.574	14521.98
627.768	14366.33
627.963	14433.91
628.157	14182.01
628.352	14288.51
628.546	14061.18
628.74	13991.55
628.935	13893.25
629.129	14046.85
629.323	13657.73
629.517	13864.58
629.712	13508.23
629.906	13686.4
630.1	13344.39
630.294	13459.08
630.489	13393.54
630.683	13450.89
630.877	12916.37
631.071	12871.31
631.265	13250.19
631.459	13000.33
631.653	13061.77
631.848	12922.51
632.042	12996.24
632.236	12660.37
632.43	12668.56
632.624	12656.28
632.818	12617.36
633.012	12387.99
633.206	12426.9
633.4	12381.85
633.594	12160.67
633.788	12111.52
633.982	12285.59
634.176	12111.52
634.369	12095.13
634.563	12111.52
634.757	11904.67
634.951	11970.21
635.145	11685.54
635.339	11673.25
635.533	11577
635.726	11667.11
635.92	11837.09
636.114	11548.33
636.308	11476.65
636.501	11351.72
636.695	11216.55
636.889	11052.72
637.083	11347.62
637.276	11048.62
637.47	11091.63
637.664	11132.59
637.857	11093.68
638.051	10901.17
638.244	10839.73
638.438	10854.06
638.632	10772.14
638.825	10636.98
639.019	10542.77
639.212	10432.18
639.406	10712.75
639.599	10421.94
639.793	10448.57
639.986	10276.54
640.18	10133.18
640.373	10284.73
640.567	10211
640.76	10186.43
640.954	10006.2
641.147	9967.29
641.34	9975.49
641.534	9987.77
641.727	9780.93
641.92	9914.05
642.114	9580.23
642.307	9918.14
642.5	9821.89
642.694	9477.83
642.887	9610.95
643.08	9721.54
643.273	9543.36
643.467	9379.53
643.66	9127.63
643.853	9109.19
644.046	9166.54
644.239	8826.57
644.432	9123.53
644.626	9096.91
644.819	9070.28
645.012	9078.47
645.205	9047.76
645.398	8820.43
645.591	8928.97
645.784	8890.06
645.977	8537.81
646.17	8705.74
646.363	8513.24
646.556	8679.12
646.749	8642.26
646.942	8535.76
647.135	8546
647.328	8386.26
647.521	8515.28
647.714	8294.1
647.907	8394.45
648.099	8195.8
648.292	8396.5
648.485	8464.08
648.678	8181.46
648.871	8109.79
649.064	8021.72
649.256	8326.87
649.449	8021.72
649.642	7925.47
649.835	7872.22
650.027	7900.89
650.22	7837.41
650.413	7702.24
650.605	7829.21
650.798	7632.61
650.991	7530.21
651.183	7532.26
651.376	7732.96
651.568	7622.37
651.761	7673.57
651.954	7571.17
652.146	7376.61
652.339	7311.08
652.531	7364.32
652.724	7335.65
652.916	7126.76
653.109	7325.41
653.301	7362.28
653.494	7239.4
653.686	6989.55
653.879	7171.82
654.071	7104.23
654.263	7114.47
654.456	7046.89
654.648	6913.77
654.84	6956.78
655.033	6962.92
655.225	6971.11
655.417	6895.34
655.61	6889.2
655.802	6801.13
655.994	6696.69
656.186	6764.27
656.379	6766.32
656.571	6557.43
656.763	6731.5
656.955	6565.62
657.148	6512.37
657.34	6565.62
657.532	6455.03
657.724	6352.63
657.916	6416.12
658.108	6385.4
658.3	6426.36
658.492	6588.14
658.684	6246.13
658.876	6362.87
659.068	6309.62
659.26	6303.48
659.452	6229.75
659.644	6418.16
659.836	6180.6
660.028	6276.85
660.22	6006.52
660.412	6143.74
660.604	6194.93
660.796	6010.62
660.988	6162.17
661.18	6029.05
661.372	5973.75
661.563	6070.01
661.755	5998.33
661.947	6035.19
662.139	6024.95
662.331	6008.57
662.522	5865.21
662.714	5818.11
662.906	5629.7
663.097	5877.5
663.289	5611.26
663.481	5744.38
663.673	5480.19
663.864	5508.87
664.056	5652.22
664.247	5662.46
664.439	5676.8
664.631	5617.41
664.822	5627.65
665.014	5627.65
665.205	5496.58
665.397	5631.74
665.588	5687.04
665.78	5400.32
665.971	5605.12
666.163	5523.2
666.354	5439.23
666.546	5457.67
666.737	5406.47
666.929	5388.04
667.12	5494.53
667.311	5451.52
667.503	5342.98
667.694	5402.37
667.885	5406.47
668.077	5431.04
668.268	5400.32
668.459	5361.41
668.651	5355.27
668.842	5320.45
669.033	5336.84
669.224	5314.31
669.416	5482.24
669.607	5377.8
669.798	5123.85
669.989	5390.08
670.18	5154.57
670.371	5275.4
670.563	5338.88
670.754	5189.38
670.945	5396.23
671.136	5390.08
671.327	5304.07
671.518	5367.56
671.709	5394.18
671.9	5418.75
672.091	5277.44
672.282	5162.76
672.473	5244.68
672.664	5281.54
672.855	5205.77
673.046	5140.23
673.237	5277.44
673.428	5267.2
673.619	5205.77
673.809	5254.92
674	5342.98
674.191	5330.69
674.382	5263.11
674.573	5349.12
674.764	5385.99
674.954	5187.33
675.145	5353.22
675.336	5181.19
675.527	5160.71
675.717	5246.73
675.908	5242.63
676.099	5371.65
676.289	5388.04
676.48	5293.83
676.671	5349.12
676.861	5418.75
677.052	5390.08
677.243	5265.16
677.433	5234.44
677.624	5302.02
677.814	5455.62
678.005	5482.24
678.195	5537.54
678.386	5365.51
678.576	5361.41
678.767	5508.87
678.957	5398.27
679.148	5572.35
679.338	5568.26
679.529	5523.2
679.719	5449.47
679.909	5758.72
680.1	5660.41
680.29	5576.45
680.481	5744.38
680.671	5560.06
680.861	5478.15
681.052	5656.32
681.242	5637.89
681.432	5725.95
681.622	5795.58
681.813	5811.96
682.003	5656.32
682.193	5623.55
682.383	5547.78
682.573	5740.29
682.764	5730.05
682.954	5852.92
683.144	5740.29
683.334	5560.06
683.524	5785.34
683.714	5701.37
683.904	5746.43
684.094	5787.39
684.284	5814.01
684.474	5779.2
684.664	5883.64
684.854	5820.16
685.044	5918.46
685.234	5730.05
685.424	5850.88
685.614	5775.1
685.804	5863.16
685.994	5811.96
686.184	5803.77
686.374	5949.18
686.564	5854.97
686.753	5697.28
686.943	5512.96
687.133	5764.86
687.323	5838.59
687.513	5662.46
687.702	5562.11
687.892	5582.59
688.082	5699.33
688.272	5564.16
688.461	5527.3
688.651	5492.48
688.841	5359.36
689.03	5549.82
689.22	5414.66
689.41	5353.22
689.599	5265.16
689.789	5437.19
689.979	5605.12
690.168	5476.1
690.358	5254.92
690.547	5394.18
690.737	5324.55
690.926	5222.15
691.116	5246.73
691.305	5336.84
691.495	5351.17
691.684	5177.09
691.874	5107.46
692.063	5037.83
692.252	5185.29
692.442	5074.7
692.631	5043.98
692.82	5046.02
693.01	5048.07
693.199	4910.86
693.388	4906.76
693.578	4892.43
693.767	4992.78
693.956	4818.7
694.146	4992.78
694.335	4771.6
694.524	4822.8
694.713	4796.17
694.902	4960.01
695.092	4816.65
695.281	4728.59
695.47	4808.46
695.659	4706.06
695.848	4669.2
696.037	4757.26
696.226	4710.16
696.415	4689.68
696.604	4837.13
696.793	4878.09
696.982	4734.73
697.171	4753.16
697.36	4720.4
697.549	4818.7
697.738	4710.16
697.927	4609.81
698.116	4740.88
698.305	4714.25
698.494	4644.62
698.683	4632.33
698.872	4810.51
699.061	4695.82
699.25	4742.92
699.438	4591.38
699.627	4677.39
699.816	4607.76
700.005	4658.96
700.193	4695.82
700.382	4732.69
700.571	4665.1
700.76	4695.82
700.948	4759.31
701.137	4693.77
701.326	4828.94
701.514	4687.63
701.703	4583.18
701.892	4751.12
702.08	4900.62
702.269	4792.08
702.457	4853.52
702.646	4794.12
702.834	4957.96
703.023	4914.95
703.212	4851.47
703.4	4923.15
703.589	4785.93
703.777	4640.53
703.965	4732.69
704.154	4824.84
704.342	4861.71
704.531	4738.83
704.719	4769.55
704.907	4980.49
705.096	4761.36
705.284	4876.04
705.472	4802.32
705.661	4935.43
705.849	4978.44
706.037	4984.59
706.226	4896.52
706.414	4898.57
706.602	4939.53
706.79	4964.11
706.979	4804.36
707.167	4982.54
707.355	5013.26
707.543	5175.05
707.731	5043.98
707.919	4902.67
708.107	5086.98
708.296	4962.06
708.484	4876.04
708.672	5132.04
708.86	5142.28
709.048	5175.05
709.236	5189.38
709.424	5117.7
709.612	5197.57
709.8	5127.94
709.988	5224.2
710.176	5211.91
710.364	5312.26
710.551	5209.86
710.739	5299.97
710.927	5181.19
711.115	5289.73
711.303	5410.56
711.491	5248.77
711.679	5441.28
711.866	5408.51
712.054	5447.43
712.242	5248.77
712.43	5488.39
712.617	5367.56
712.805	5435.14
712.993	5408.51
713.181	5461.76
713.368	5588.74
713.556	5674.75
713.744	5336.84
713.931	5631.74
714.119	5431.04
714.306	5570.3
714.494	5508.87
714.682	5717.76
714.869	5535.49
715.057	5652.22
715.244	5639.94
715.432	5803.77
715.619	5711.61
715.807	5678.85
715.994	5668.61
716.182	5789.44
716.369	5787.39
716.556	5807.87
716.744	5828.35
716.931	5779.2
717.119	5983.99
717.306	5983.99
717.493	5992.19
717.681	5877.5
717.868	5875.45
718.055	5889.79
718.242	6139.64
718.43	6029.05
718.617	6094.58
718.804	6110.97
718.991	6065.91
719.179	6076.15
719.366	5994.23
719.553	6020.86
719.74	6127.35
719.927	6123.26
720.114	6102.78
720.301	6117.11
720.488	6004.47
720.676	6182.65
720.863	6018.81
721.05	6530.8
721.237	6237.94
721.424	6188.79
721.611	6194.93
721.798	6278.9
721.985	6254.33
722.172	6319.86
722.358	6291.19
722.545	6393.59
722.732	6162.17
722.919	6287.09
723.106	6434.55
723.293	6364.92
723.48	6450.93
723.667	6407.92
723.853	6414.07
724.04	6401.78
724.227	6416.12
724.414	6450.93
724.6	6471.41
724.787	6538.99
724.974	6633.2
725.161	6495.99
725.347	6528.75
725.534	6575.86
725.72	6448.88
725.907	6680.3
726.094	6582
726.28	6579.95
726.467	6512.37
726.653	6653.68
726.84	6577.9
727.027	6672.11
727.213	6551.28
727.4	6543.09
727.586	6665.97
727.773	6655.73
727.959	6670.06
728.145	6600.43
728.332	6639.34
728.518	6538.99
728.705	6784.75
728.891	6844.14
729.077	6729.45
729.264	6786.8
729.45	6835.95
729.636	6794.99
729.823	6725.36
730.009	6842.09
730.195	6817.52
730.382	6815.47
730.568	6762.22
730.754	7079.66
730.94	6784.75
731.126	7053.03
731.313	6887.15
731.499	7050.99
731.685	7032.55
731.871	6801.13
732.057	7048.94
732.243	6897.39
732.429	6967.02
732.615	7114.47
732.801	6792.94
732.987	7032.55
733.173	6997.74
733.359	6967.02
733.545	6817.52
733.731	6868.72
733.917	6883.05
734.103	6956.78
734.289	6917.87
734.475	6864.62
734.661	6921.96
734.847	6786.8
735.033	6897.39
735.219	6952.68
735.404	7079.66
735.59	7010.03
735.776	6981.35
735.962	7120.62
736.148	7046.89
736.333	7073.51
736.519	6854.38
736.705	7020.27
736.89	6854.38
737.076	6926.06
737.262	6954.73
737.447	7022.31
737.633	6983.4
737.819	6717.17
738.004	6717.17
738.19	6741.74
738.375	6827.76
738.561	7030.51
738.747	6711.02
738.932	6747.89
739.118	6827.76
739.303	6786.8
739.489	6993.64
739.674	6885.1
739.859	6815.47
740.045	6766.32
740.23	6786.8
740.416	6819.57
740.601	6762.22
740.786	6545.14
740.972	6627.06
741.157	6651.63
741.342	6637.3
741.528	6616.82
741.713	6602.48
741.898	6655.73
742.084	6573.81
742.269	6610.67
742.454	6633.2
742.639	6641.39
742.824	6594.29
743.01	6426.36
743.195	6465.27
743.38	6493.94
743.565	6297.33
743.75	6442.74
743.935	6409.97
744.12	6528.75
744.305	6315.76
744.49	6364.92
744.675	6156.02
744.86	6379.25
745.045	6098.68
745.23	6217.46
745.415	6088.44
745.6	6254.33
745.785	6217.46
745.97	6176.5
746.155	6110.97
746.34	5951.23
746.525	5943.03
746.71	6205.17
746.895	5807.87
747.079	6008.57
747.264	5877.5
747.449	5897.98
747.634	5678.85
747.819	5744.38
748.003	5711.61
748.188	5699.33
748.373	5584.64
748.557	5568.26
748.742	5580.54
748.927	5463.81
749.111	5390.08
749.296	5408.51
749.481	5412.61
749.665	5426.95
749.85	5256.97
750.034	5336.84
750.219	5357.32
750.404	5285.64
750.588	5265.16
750.773	4992.78
750.957	5197.57
751.141	5152.52
751.326	5003.02
751.51	5136.13
751.695	4845.32
751.879	4953.87
752.064	5005.06
752.248	4960.01
752.432	4816.65
752.617	4798.22
752.801	4769.55
752.985	4765.45
753.17	4665.1
753.354	4775.69
753.538	4552.46
753.722	4618
753.907	4552.46
754.091	4552.46
754.275	4525.84
754.459	4425.49
754.643	4460.31
754.828	4493.07
755.012	4298.52
755.196	4275.99
755.38	4263.7
755.564	4292.37
755.748	4216.6
755.932	4296.47
756.116	4118.29
756.3	4206.36
756.484	4087.57
756.668	4144.92
756.852	3972.89
757.036	3915.55
757.22	4026.14
757.404	3913.5
757.588	4028.18
757.772	3923.74
757.956	4003.61
758.14	3901.21
758.323	3782.43
758.507	3850.01
758.691	3786.52
758.875	3788.57
759.059	3688.22
759.242	3657.5
759.426	3647.26
759.61	3720.99
759.794	3604.25
759.977	3610.4
760.161	3618.59
760.345	3651.36
760.528	3579.68
760.712	3313.44
760.895	3469.09
761.079	3532.58
761.263	3536.67
761.446	3440.42
761.63	3456.8
761.813	3385.12
761.997	3403.55
762.18	3370.79
762.364	3309.35
762.547	3272.48
762.731	3327.78
762.914	3319.59
763.098	3268.39
763.281	3147.56
763.464	3192.61
763.648	3202.85
763.831	3120.93
764.015	3043.11
764.198	3206.95
764.381	3182.37
764.564	3174.18
764.748	3174.18
764.931	3092.26
765.114	3008.3
765.297	2993.96
765.481	2989.86
765.664	2953
765.847	2934.57
766.03	3043.11
766.213	2912.04
766.397	2981.67
766.58	2899.75
766.763	2866.99
766.946	2780.97
767.129	2785.07
767.312	2953
767.495	2783.02
767.678	2836.27
767.861	2742.06
768.044	2805.55
768.227	2748.2
768.41	2729.77
768.593	2791.21
768.776	2684.72
768.959	2742.06
769.142	2592.56
769.324	2776.87
769.507	2598.7
769.69	2686.76
769.873	2453.3
770.056	2748.2
770.239	2563.89
770.421	2578.22
770.604	2658.09
770.787	2600.75
770.97	2582.32
771.152	2520.88
771.335	2578.22
771.518	2432.82
771.7	2475.82
771.883	2455.34
772.066	2512.69
772.248	2391.86
772.431	2434.86
772.613	2471.73
772.796	2410.29
772.978	2402.1
773.161	2481.97
773.343	2330.42
773.526	2232.12
773.708	2232.12
773.891	2268.98
774.073	2232.12
774.256	2293.55
774.438	2289.46
774.621	2232.12
774.803	2230.07
774.985	2123.57
775.168	2281.27
775.35	2058.04
775.532	2195.25
775.715	2084.66
775.897	2131.76
776.079	1984.31
776.261	2066.23
776.444	2082.61
776.626	1961.78
776.808	2060.09
776.99	1896.25
777.173	1949.5
777.355	1910.58
777.537	1851.19
777.719	1974.07
777.901	1978.17
778.083	1781.56
778.265	1822.52
778.447	1904.44
778.629	1746.75
778.811	1838.91
778.993	1814.33
779.175	1742.65
779.357	1730.36
779.539	1732.41
779.721	1873.72
779.903	1761.08
780.085	1724.22
780.267	1627.96
780.449	1732.41
780.631	1777.47
780.812	1724.22
780.994	1650.49
781.176	1722.17
781.358	1541.95
781.54	1564.48
781.721	1589.05
781.903	1509.18
782.085	1462.08
782.267	1642.3
782.448	1517.37
782.63	1470.27
782.812	1492.8
782.993	1484.61
783.175	1527.61
783.357	1421.12
783.538	1462.08
783.72	1404.74
783.901	1412.93
784.083	1472.32
784.264	1376.06
784.446	1374.02
784.627	1351.49
784.809	1281.86
784.99	1273.67
785.172	1292.1
785.353	1290.05
785.535	1302.34
785.716	1247.04
785.897	1308.48
786.079	1339.2
786.26	1386.3
786.441	1244.99
786.623	1169.22
786.804	1148.74
786.985	1265.47
787.167	1341.25
787.348	1208.13
787.529	1265.47
787.71	1148.74
787.891	1236.8
788.073	1124.16
788.254	1181.51
788.435	1128.26
788.616	1118.02
788.797	1023.81
788.978	1056.58
789.159	1027.91
789.34	1070.92
789.522	978.76
789.703	1009.48
789.884	1134.4
790.065	1068.87
790.246	1085.25
790.427	999.24
790.607	1056.58
790.788	1009.48
790.969	933.7
791.15	927.56
791.331	962.37
791.512	1009.48
791.693	1034.05
791.874	950.09
792.054	1101.64
792.235	966.47
792.416	995.14
792.597	954.18
792.778	933.7
792.958	948.04
793.139	939.85
793.32	909.13
793.5	880.46
793.681	896.84
793.862	857.93
794.042	878.41
794.223	804.68
794.404	812.87
794.584	929.61
794.765	833.35
794.945	821.06
795.126	896.84
795.306	878.41
795.487	853.83
795.667	853.83
795.848	870.22
796.028	810.82
796.209	835.4
796.389	851.78
796.57	831.3
796.75	827.21
796.93	905.03
797.111	767.82
797.291	720.71
797.471	769.87
797.652	810.82
797.832	646.99
798.012	726.86
798.192	749.39
798.373	692.04
798.553	722.76
798.733	728.91
798.913	735.05
799.093	714.57
799.274	710.47
799.454	753.48
799.634	765.77
799.814	692.04
799.994	712.52
800.174	649.04
800.354	620.36
800.534	681.8
800.714	659.28
800.894	618.32
801.074	675.66
801.254	628.56
801.434	616.27
801.614	552.78
801.794	616.27
801.974	1361.73
802.154	659.28
802.334	692.04
802.514	554.83
802.693	642.89
802.873	681.8
803.053	667.47
803.233	657.23
803.413	663.37
803.592	581.45
803.772	614.22
803.952	591.69
804.131	491.34
804.311	616.27
804.491	659.28
804.67	581.45
804.85	585.55
805.03	593.74
805.209	585.55
805.389	646.99
805.568	575.31
805.748	646.99
805.928	585.55
806.107	624.46
806.287	597.84
806.466	548.68
806.646	481.1
806.825	499.53
807.004	509.77
807.184	542.54
807.363	591.69
807.543	550.73
807.722	470.86
807.901	581.45
808.081	571.21
808.26	528.21
808.439	517.97
808.619	438.09
808.798	485.2
808.977	470.86
809.156	479.05
809.336	528.21
809.515	464.72
809.694	448.33
809.873	509.77
810.052	544.59
810.231	483.15
810.411	528.21
810.59	487.25
810.769	477.01
810.948	485.2
811.127	501.58
811.306	431.95
811.485	429.9
811.664	575.31
811.843	388.94
812.022	501.58
812.201	466.77
812.38	540.49
812.559	337.74
812.737	452.43
812.916	362.32
813.095	427.85
813.274	429.9
813.453	339.79
813.632	470.86
813.811	409.42
813.989	304.98
814.168	390.99
814.347	413.52
814.526	405.33
814.704	434
814.883	436.05
815.062	395.09
815.24	493.39
815.419	352.08
815.598	384.85
815.776	405.33
815.955	397.14
816.133	356.18
816.312	419.66
816.49	397.14
816.669	372.56
816.847	380.75
817.026	294.74
817.204	376.66
817.383	388.94
817.561	376.66
817.74	419.66
817.918	366.42
818.097	409.42
818.275	360.27
818.453	388.94
818.632	403.28
818.81	352.08
818.988	419.66
819.167	327.5
819.345	438.09
819.523	390.99
819.701	347.98
819.879	331.6
820.058	331.6
820.236	372.56
820.414	366.42
820.592	368.46
820.77	358.22
820.948	384.85
821.127	266.07
821.305	319.31
821.483	298.83
821.661	315.22
821.839	313.17
822.017	309.07
822.195	323.41
822.373	296.78
822.551	321.36
822.729	216.91
822.907	350.03
823.085	339.79
823.262	317.26
823.44	354.13
823.618	315.22
823.796	347.98
823.974	272.21
824.152	255.83
824.329	274.26
824.507	337.74
824.685	345.94
824.863	257.87
825.04	331.6
825.218	272.21
825.396	300.88
825.574	288.59
825.751	315.22
825.929	323.41
826.107	270.16
826.284	212.82
826.462	286.54
826.639	282.45
826.817	266.07
826.994	214.87
827.172	282.45
827.349	358.22
827.527	237.39
827.704	286.54
827.882	272.21
828.059	200.53
828.237	278.35
828.414	280.4
828.591	223.06
828.769	270.16
828.946	192.34
829.124	241.49
829.301	298.83
829.478	231.25
829.655	280.4
829.833	210.77
830.01	182.1
830.187	257.87
830.364	307.02
830.542	298.83
830.719	345.94
830.896	274.26
831.073	225.11
831.25	229.2
831.427	229.2
831.604	259.92
831.782	165.71
831.959	194.39
832.136	200.53
832.313	186.19
832.49	116.56
832.667	264.02
832.844	180.05
833.021	358.22
833.198	145.24
833.374	249.68
833.551	210.77
833.728	204.63
833.905	227.15
834.082	89.94
834.259	233.3
834.436	241.49
834.612	135
834.789	221.01
834.966	268.11
835.143	210.77
835.319	149.33
835.496	108.37
835.673	233.3
835.85	130.9
836.026	225.11
836.203	221.01
836.38	73.56
836.556	141.14
836.733	161.62
836.909	202.58
837.086	94.04
837.262	153.43
837.439	175.95
837.616	143.19
837.792	151.38
837.968	227.15
838.145	159.57
838.321	233.3
838.498	200.53
838.674	141.14
838.851	135
839.027	290.64
839.203	188.24
839.38	141.14
839.556	155.47
839.732	184.15
839.909	96.08
840.085	157.52
840.261	98.13
840.437	108.37
840.614	163.67
840.79	178
840.966	198.48
841.142	139.09
841.318	124.76
841.494	216.91
841.671	186.19
841.847	102.23
842.023	87.89
842.199	126.8
842.375	159.57
842.551	145.24
842.727	81.75
842.903	114.52
843.079	89.94
843.255	192.34
843.431	145.24
843.607	126.8
843.783	175.95
843.959	159.57
844.134	71.51
844.31	163.67
844.486	161.62
844.662	83.8
844.838	139.09
845.013	163.67
845.189	139.09
845.365	192.34
845.541	145.24
845.716	192.34
845.892	137.04
846.068	69.46
846.244	110.42
846.419	118.61
846.595	126.8
846.77	106.32
846.946	128.85
847.122	108.37
847.297	157.52
847.473	153.43
847.648	75.6
847.824	106.32
847.999	-6.31
848.175	171.86
848.35	57.17
848.526	130.9
848.701	102.23
848.876	83.8
849.052	94.04
849.227	128.85
849.403	26.45
849.578	112.47
849.753	147.28
849.929	67.41
850.104	67.41
850.279	202.58
850.454	112.47
850.63	77.65
850.805	102.23
850.98	89.94
851.155	135
851.33	100.18
851.505	85.84
851.681	169.81
851.856	126.8
852.031	257.87
852.206	81.75
852.381	26.45
852.556	18.26
852.731	81.75
852.906	87.89
853.081	206.67
853.256	198.48
853.431	139.09
853.606	81.75
853.781	102.23
853.956	65.36
854.131	51.03
854.305	59.22
854.48	96.08
854.655	124.76
854.83	100.18
855.005	112.47
855.18	145.24
855.354	67.41
855.529	83.8
855.704	34.64
855.879	132.95
856.053	30.55
856.228	98.13
856.403	63.32
856.577	89.94
856.752	34.64
856.926	96.08
857.101	83.8
857.276	26.45
857.45	69.46
857.625	180.05
857.799	12.12
857.974	94.04
858.148	12.12
858.323	24.4
858.497	42.84
858.672	73.56
858.846	46.93
859.02	94.04
859.195	44.88
859.369	57.17
859.543	28.5
859.718	100.18
859.892	94.04
860.066	149.33
860.241	10.07
860.415	12.12
860.589	69.46
860.763	53.08
860.938	89.94
861.112	34.64
861.286	28.5
861.46	36.69
861.634	12.12
861.808	106.32
861.982	-20.65
862.157	61.27
862.331	18.26
862.505	-30.89
862.679	-0.17
862.853	-16.55
863.027	24.4
863.201	48.98
863.375	51.03
863.549	110.42
863.722	42.84
863.896	108.37
864.07	-4.27
864.244	8.02
864.418	59.22
864.592	22.36
864.766	110.42
864.939	69.46
865.113	57.17
865.287	61.27
865.461	77.65
865.634	36.69
865.808	36.69
865.982	-14.51
866.156	-30.89
866.329	59.22
866.503	18.26
866.676	102.23
866.85	10.07
867.024	38.74
867.197	57.17
867.371	100.18
867.544	20.31
867.718	42.84
867.891	55.12
868.065	46.93
868.238	12.12
868.412	87.89
868.585	83.8
868.759	67.41
868.932	73.56
869.105	69.46
869.279	36.69
869.452	59.22
869.625	83.8
869.799	96.08
869.972	44.88
870.145	102.23
870.319	67.41
870.492	51.03
870.665	48.98
870.838	22.36
871.011	32.6
871.185	16.21
871.358	32.6
871.531	36.69
871.704	116.56
871.877	53.08
872.05	61.27
872.223	-8.36
872.396	24.4
872.569	-8.36
872.742	-28.84
872.915	26.45
873.088	42.84
873.261	22.36
873.434	36.69
873.607	-30.89
873.78	28.5
873.953	-8.36
874.126	75.6
874.299	85.84
874.471	12.12
874.644	28.5
874.817	106.32
874.99	77.65
875.163	26.45
875.335	3.93
875.508	48.98
875.681	1.88
875.853	3.93
876.026	53.08
876.199	48.98
876.371	61.27
876.544	-67.75
876.717	61.27
876.889	-6.31
877.062	79.7
877.234	-20.65
877.407	-28.84
877.579	24.4
877.752	-12.46
877.924	36.69
878.097	-6.31
878.269	44.88
878.442	10.07
878.614	42.84
878.786	94.04
878.959	18.26
879.131	-24.75
879.303	-51.37
879.476	1.88
879.648	36.69
879.82	-2.22
879.993	61.27
880.165	155.47
880.337	-55.47
880.509	16.21
880.681	10.07
880.854	8.02
881.026	20.31
881.198	91.99
881.37	44.88
881.542	12.12
881.714	77.65
881.886	-20.65
882.058	-0.17
882.23	-82.09
882.402	16.21
882.574	34.64
882.746	30.55
882.918	26.45
883.09	3.93
883.262	-8.36
883.434	42.84
883.606	3.93
883.778	-53.42
883.95	89.94
884.122	12.12
884.293	137.04
884.465	75.6
884.637	44.88
884.809	8.02
884.98	55.12
885.152	-4.27
885.324	94.04
885.496	-16.55
885.667	24.4
885.839	3.93
886.011	44.88
886.182	51.03
886.354	5.97
886.525	-55.47
886.697	20.31
886.869	48.98
887.04	81.75
887.212	14.17
887.383	24.4
887.555	53.08
887.726	57.17
887.897	42.84
888.069	-26.79
888.24	94.04
888.412	-28.84
888.583	53.08
888.754	28.5
888.926	-82.09
889.097	26.45
889.268	-80.04
889.44	40.79
889.611	-18.6
889.782	-24.75
889.953	26.45
890.125	85.84
890.296	-22.7
890.467	40.79
890.638	-6.31
890.809	-51.37
890.98	-28.84
891.151	38.74
891.323	44.88
891.494	20.31
891.665	114.52
891.836	-20.65
892.007	-18.6
892.178	12.12
892.349	81.75
892.52	-77.99
892.691	12.12
892.862	-47.27
893.032	-14.51
893.203	-20.65
893.374	12.12
893.545	10.07
893.716	-28.84
893.887	28.5
894.057	48.98
894.228	44.88
894.399	22.36
894.57	10.07
894.74	-45.23
894.911	-0.17
895.082	61.27
895.253	-30.89
895.423	67.41
895.594	-0.17
895.764	44.88
895.935	-75.95
896.106	5.97
896.276	18.26
896.447	20.31
896.617	-69.8
896.788	18.26
896.958	20.31
897.129	-26.79
897.299	-65.71
897.47	51.03
897.64	108.37
897.81	-28.84
897.981	-6.31
898.151	8.02
898.322	22.36
898.492	102.23
898.662	-4.27
898.832	-53.42
899.003	42.84
899.173	75.6
899.343	3.93
899.513	-30.89
