Data from USB4F104151__36__11-30-18-014.txt Node

Date: Fri Mar 14 11:30:18 EDT 2025
User: louis
Spectrometer: USB4F10415
Trigger mode: 4
Integration Time (sec): 5.000000E-2
Scans to average: 1
Electric dark correction enabled: true
Nonlinearity correction enabled: false
Boxcar width: 0
XAxis mode: Wavelengths
Number of Pixels in Spectrum: 3648
>>>>>Begin Spectral Data<<<<<
178.204	-158.89
178.424	-158.89
178.644	-158.89
178.864	-142.5
179.084	-197.8
179.304	4.95
179.524	-1.19
179.744	-31.91
179.964	-7.34
180.184	-19.63
180.404	-42.15
180.624	-15.53
180.844	29.52
181.064	37.72
181.283	-31.91
181.503	54.1
181.723	23.38
181.943	-46.25
182.163	58.2
182.383	-21.67
182.602	62.29
182.822	97.11
183.042	27.48
183.262	37.72
183.482	-21.67
183.701	37.72
183.921	-27.82
184.141	-60.59
184.361	70.48
184.58	-27.82
184.8	37.72
185.02	-36.01
185.239	29.52
185.459	27.48
185.679	-36.01
185.898	-46.25
186.118	17.24
186.338	-11.43
186.557	68.44
186.777	-33.96
186.997	-11.43
187.216	52.05
187.436	52.05
187.655	58.2
187.875	37.72
188.095	17.24
188.314	90.96
188.534	37.72
188.753	-25.77
188.973	70.48
189.192	50
189.412	7
189.631	21.33
189.851	66.39
190.07	70.48
190.29	-5.29
190.509	62.29
190.729	-38.06
190.948	39.76
191.168	193.36
191.387	25.43
191.607	25.43
191.826	17.24
192.045	54.1
192.265	-19.63
192.484	-1.19
192.704	2.9
192.923	-7.34
193.142	70.48
193.362	4.95
193.581	13.14
193.8	70.48
194.02	21.33
194.239	37.72
194.458	-3.24
194.678	4.95
194.897	29.52
195.116	17.24
195.335	17.24
195.555	21.33
195.774	-21.67
195.993	62.29
196.212	4.95
196.432	-9.39
196.651	50
196.87	35.67
197.089	70.48
197.308	74.58
197.528	54.1
197.747	-29.87
197.966	74.58
198.185	41.81
198.404	-36.01
198.623	33.62
198.842	72.53
199.062	33.62
199.281	25.43
199.5	29.52
199.719	84.82
199.938	68.44
200.157	84.82
200.376	60.24
200.595	68.44
200.814	56.15
201.033	-21.67
201.252	62.29
201.471	74.58
201.69	54.1
201.909	84.82
202.128	-31.91
202.347	-48.3
202.566	-29.87
202.785	-85.16
203.004	0.85
203.223	109.4
203.442	-29.87
203.661	-21.67
203.879	45.91
204.098	60.24
204.317	0.85
204.536	31.57
204.755	41.81
204.974	43.86
205.193	-3.24
205.411	43.86
205.63	74.58
205.849	37.72
206.068	-19.63
206.287	17.24
206.505	37.72
206.724	72.53
206.943	29.52
207.162	58.2
207.381	-79.02
207.599	-21.67
207.818	13.14
208.037	43.86
208.255	-15.53
208.474	17.24
208.693	-46.25
208.911	-19.63
209.13	29.52
209.349	58.2
209.567	37.72
209.786	33.62
210.005	43.86
210.223	-33.96
210.442	0.85
210.661	-42.15
210.879	-3.24
211.098	7
211.316	52.05
211.535	17.24
211.753	-70.83
211.972	27.48
212.191	43.86
212.409	52.05
212.628	43.86
212.846	60.24
213.065	2.9
213.283	84.82
213.502	21.33
213.72	33.62
213.938	-9.39
214.157	47.96
214.375	76.63
214.594	35.67
214.812	27.48
215.031	-19.63
215.249	-11.43
215.467	25.43
215.686	64.34
215.904	25.43
216.122	4.95
216.341	35.67
216.559	2.9
216.778	66.39
216.996	-54.44
217.214	-9.39
217.432	29.52
217.651	4.95
217.869	-27.82
218.087	-40.11
218.306	37.72
218.524	103.25
218.742	25.43
218.96	11.09
219.179	-27.82
219.397	37.72
219.615	37.72
219.833	29.52
220.051	-31.91
220.27	19.29
220.488	60.24
220.706	119.64
220.924	-21.67
221.142	13.14
221.36	21.33
221.578	19.29
221.796	13.14
222.015	-3.24
222.233	-3.24
222.451	21.33
222.669	43.86
222.887	-29.87
223.105	-11.43
223.323	23.38
223.541	45.91
223.759	68.44
223.977	52.05
224.195	23.38
224.413	56.15
224.631	41.81
224.849	17.24
225.067	70.48
225.285	2.9
225.503	0.85
225.721	-44.2
225.939	-19.63
226.157	27.48
226.375	80.72
226.592	-134.31
226.81	17.24
227.028	45.91
227.246	125.78
227.464	-11.43
227.682	54.1
227.9	2.9
228.117	23.38
228.335	-19.63
228.553	39.76
228.771	-5.29
228.989	29.52
229.206	54.1
229.424	19.29
229.642	-101.55
229.86	68.44
230.077	45.91
230.295	-36.01
230.513	95.06
230.731	82.77
230.948	99.16
231.166	76.63
231.384	-9.39
231.601	62.29
231.819	9.05
232.037	9.05
232.254	-7.34
232.472	11.09
232.689	-52.39
232.907	-48.3
233.125	25.43
233.342	52.05
233.56	-3.24
233.777	-5.29
233.995	-23.72
234.213	66.39
234.43	54.1
234.648	17.24
234.865	-44.2
235.083	25.43
235.3	70.48
235.518	13.14
235.735	99.16
235.953	90.96
236.17	-36.01
236.388	-23.72
236.605	45.91
236.822	107.35
237.04	103.25
237.257	-33.96
237.475	-23.72
237.692	47.96
237.909	60.24
238.127	-48.3
238.344	45.91
238.562	-13.48
238.779	-15.53
238.996	19.29
239.214	21.33
239.431	74.58
239.648	-7.34
239.865	7
240.083	52.05
240.3	-68.78
240.517	-54.44
240.735	37.72
240.952	101.2
241.169	52.05
241.386	76.63
241.603	19.29
241.821	68.44
242.038	21.33
242.255	13.14
242.472	-27.82
242.689	50
242.907	25.43
243.124	76.63
243.341	-60.59
243.558	45.91
243.775	-97.45
243.992	-44.2
244.209	68.44
244.426	115.54
244.643	56.15
244.86	45.91
245.078	54.1
245.295	45.91
245.512	21.33
245.729	-68.78
245.946	29.52
246.163	13.14
246.38	13.14
246.597	29.52
246.814	-40.11
247.031	-7.34
247.248	31.57
247.464	52.05
247.681	56.15
247.898	-19.63
248.115	74.58
248.332	-76.97
248.549	82.77
248.766	41.81
248.983	-23.72
249.2	15.19
249.417	45.91
249.633	17.24
249.85	45.91
250.067	-3.24
250.284	136.02
250.501	13.14
250.717	70.48
250.934	2.9
251.151	64.34
251.368	-7.34
251.585	-11.43
251.801	-15.53
252.018	-79.02
252.235	70.48
252.451	-13.48
252.668	-46.25
252.885	60.24
253.102	60.24
253.318	33.62
253.535	-5.29
253.752	-7.34
253.968	37.72
254.185	-46.25
254.401	9.05
254.618	37.72
254.835	-72.87
255.051	144.21
255.268	-11.43
255.484	21.33
255.701	68.44
255.917	33.62
256.134	4.95
256.351	9.05
256.567	21.33
256.784	7
257	-76.97
257.217	-3.24
257.433	19.29
257.65	121.68
257.866	27.48
258.082	-44.2
258.299	35.67
258.515	47.96
258.732	-27.82
258.948	-44.2
259.165	68.44
259.381	29.52
259.597	35.67
259.814	-29.87
260.03	15.19
260.246	7
260.463	31.57
260.679	56.15
260.895	11.09
261.112	113.49
261.328	-68.78
261.544	-29.87
261.761	19.29
261.977	-5.29
262.193	-9.39
262.409	54.1
262.626	62.29
262.842	25.43
263.058	-11.43
263.274	-5.29
263.49	54.1
263.707	35.67
263.923	-7.34
264.139	29.52
264.355	39.76
264.571	86.87
264.787	35.67
265.004	76.63
265.22	-3.24
265.436	27.48
265.652	0.85
265.868	4.95
266.084	68.44
266.3	-1.19
266.516	50
266.732	39.76
266.948	29.52
267.164	-76.97
267.38	70.48
267.596	-58.54
267.812	119.64
268.028	19.29
268.244	-56.49
268.46	11.09
268.676	13.14
268.892	2.9
269.108	27.48
269.324	-21.67
269.54	-72.87
269.756	125.78
269.972	-38.06
270.188	-3.24
270.403	-60.59
270.619	-3.24
270.835	25.43
271.051	-25.77
271.267	0.85
271.483	-19.63
271.698	66.39
271.914	76.63
272.13	17.24
272.346	7
272.562	-36.01
272.777	72.53
272.993	-7.34
273.209	103.25
273.425	-15.53
273.64	27.48
273.856	-7.34
274.072	-5.29
274.287	-9.39
274.503	17.24
274.719	35.67
274.934	-21.67
275.15	-36.01
275.366	43.86
275.581	33.62
275.797	29.52
276.012	45.91
276.228	15.19
276.444	21.33
276.659	58.2
276.875	-109.74
277.09	-19.63
277.306	27.48
277.521	62.29
277.737	29.52
277.952	29.52
278.168	78.68
278.383	-7.34
278.599	7
278.814	-11.43
279.03	-3.24
279.245	23.38
279.461	27.48
279.676	11.09
279.892	41.81
280.107	9.05
280.322	-27.82
280.538	-11.43
280.753	9.05
280.969	72.53
281.184	-29.87
281.399	58.2
281.615	19.29
281.83	33.62
282.045	-9.39
282.26	17.24
282.476	17.24
282.691	136.02
282.906	58.2
283.122	19.29
283.337	-19.63
283.552	39.76
283.767	13.14
283.983	27.48
284.198	56.15
284.413	0.85
284.628	17.24
284.843	-23.72
285.058	-3.24
285.274	31.57
285.489	-7.34
285.704	60.24
285.919	19.29
286.134	-44.2
286.349	11.09
286.564	-11.43
286.779	25.43
286.995	-46.25
287.21	-36.01
287.425	54.1
287.64	-54.44
287.855	13.14
288.07	-58.54
288.285	52.05
288.5	90.96
288.715	21.33
288.93	-54.44
289.145	-19.63
289.36	144.21
289.575	37.72
289.79	74.58
290.004	-17.58
290.219	15.19
290.434	2.9
290.649	2.9
290.864	-38.06
291.079	60.24
291.294	31.57
291.509	-36.01
291.724	33.62
291.938	-11.43
292.153	54.1
292.368	-29.87
292.583	2.9
292.798	19.29
293.012	27.48
293.227	-21.67
293.442	-3.24
293.657	0.85
293.871	84.82
294.086	4.95
294.301	76.63
294.516	60.24
294.73	45.91
294.945	-58.54
295.16	2.9
295.374	88.92
295.589	74.58
295.804	-60.59
296.018	2.9
296.233	86.87
296.447	23.38
296.662	-3.24
296.877	21.33
297.091	82.77
297.306	-27.82
297.52	111.44
297.735	68.44
297.949	-44.2
298.164	4.95
298.378	9.05
298.593	78.68
298.807	-17.58
299.022	7
299.236	185.17
299.451	-38.06
299.665	-31.91
299.88	50
300.094	27.48
300.309	31.57
300.523	-7.34
300.737	25.43
300.952	117.59
301.166	27.48
301.381	-48.3
301.595	45.91
301.809	23.38
302.024	4.95
302.238	-11.43
302.452	39.76
302.667	-11.43
302.881	72.53
303.095	41.81
303.309	17.24
303.524	-74.92
303.738	-21.67
303.952	25.43
304.166	-33.96
304.381	-56.49
304.595	78.68
304.809	-68.78
305.023	13.14
305.237	60.24
305.452	27.48
305.666	21.33
305.88	86.87
306.094	27.48
306.308	33.62
306.522	41.81
306.736	74.58
306.95	72.53
307.164	0.85
307.379	33.62
307.593	13.14
307.807	37.72
308.021	9.05
308.235	-15.53
308.449	-76.97
308.663	33.62
308.877	133.97
309.091	29.52
309.305	33.62
309.519	-19.63
309.733	43.86
309.947	-46.25
310.161	19.29
310.374	-5.29
310.588	29.52
310.802	-46.25
311.016	35.67
311.23	60.24
311.444	17.24
311.658	64.34
311.872	66.39
312.085	15.19
312.299	68.44
312.513	21.33
312.727	17.24
312.941	-50.35
313.154	60.24
313.368	43.86
313.582	68.44
313.796	-5.29
314.009	-5.29
314.223	58.2
314.437	13.14
314.651	76.63
314.864	29.52
315.078	37.72
315.292	11.09
315.505	-72.87
315.719	7
315.933	54.1
316.146	-11.43
316.36	9.05
316.573	37.72
316.787	0.85
317.001	74.58
317.214	-3.24
317.428	58.2
317.641	21.33
317.855	21.33
318.068	27.48
318.282	-29.87
318.495	95.06
318.709	45.91
318.922	-27.82
319.136	117.59
319.349	45.91
319.563	-5.29
319.776	11.09
319.99	4.95
320.203	60.24
320.417	95.06
320.63	-29.87
320.843	123.73
321.057	78.68
321.27	39.76
321.483	13.14
321.697	62.29
321.91	-50.35
322.124	-27.82
322.337	9.05
322.55	-60.59
322.763	23.38
322.977	-19.63
323.19	-76.97
323.403	7
323.617	35.67
323.83	86.87
324.043	27.48
324.256	21.33
324.469	109.4
324.683	21.33
324.896	29.52
325.109	-66.73
325.322	-64.68
325.535	-21.67
325.748	41.81
325.962	2.9
326.175	0.85
326.388	-42.15
326.601	84.82
326.814	-13.48
327.027	54.1
327.24	21.33
327.453	-15.53
327.666	70.48
327.879	70.48
328.092	-27.82
328.305	11.09
328.518	119.64
328.731	-5.29
328.944	58.2
329.157	29.52
329.37	-5.29
329.583	27.48
329.796	127.83
330.009	35.67
330.222	62.29
330.435	-48.3
330.648	-7.34
330.861	45.91
331.073	-31.91
331.286	78.68
331.499	52.05
331.712	45.91
331.925	-5.29
332.138	-9.39
332.35	43.86
332.563	-15.53
332.776	29.52
332.989	-52.39
333.202	45.91
333.414	33.62
333.627	88.92
333.84	37.72
334.053	68.44
334.265	27.48
334.478	84.82
334.691	-31.91
334.903	62.29
335.116	50
335.329	52.05
335.541	58.2
335.754	23.38
335.966	-9.39
336.179	62.29
336.392	21.33
336.604	74.58
336.817	-1.19
337.029	-15.53
337.242	-5.29
337.454	62.29
337.667	2.9
337.88	50
338.092	-44.2
338.305	17.24
338.517	-60.59
338.729	13.14
338.942	15.19
339.154	-29.87
339.367	43.86
339.579	4.95
339.792	-23.72
340.004	64.34
340.217	-11.43
340.429	-36.01
340.641	-27.82
340.854	45.91
341.066	9.05
341.278	45.91
341.491	97.11
341.703	15.19
341.915	-70.83
342.128	133.97
342.34	70.48
342.552	50
342.764	62.29
342.977	-60.59
343.189	101.2
343.401	29.52
343.613	-21.67
343.826	-38.06
344.038	-13.48
344.25	80.72
344.462	-19.63
344.674	33.62
344.886	-36.01
345.099	41.81
345.311	29.52
345.523	33.62
345.735	13.14
345.947	105.3
346.159	-13.48
346.371	-23.72
346.583	9.05
346.795	115.54
347.007	-40.11
347.219	52.05
347.431	23.38
347.643	21.33
347.855	-5.29
348.067	80.72
348.279	-3.24
348.491	-62.63
348.703	43.86
348.915	33.62
349.127	37.72
349.339	-50.35
349.551	0.85
349.763	-3.24
349.975	37.72
350.187	50
350.399	62.29
350.61	127.83
350.822	54.1
351.034	101.2
351.246	33.62
351.458	-48.3
351.669	19.29
351.881	45.91
352.093	90.96
352.305	-21.67
352.517	-5.29
352.728	50
352.94	-38.06
353.152	35.67
353.363	11.09
353.575	21.33
353.787	115.54
353.999	47.96
354.21	52.05
354.422	68.44
354.633	-23.72
354.845	-46.25
355.057	13.14
355.268	52.05
355.48	37.72
355.692	27.48
355.903	37.72
356.115	-52.39
356.326	-76.97
356.538	86.87
356.749	-11.43
356.961	4.95
357.172	-29.87
357.384	-5.29
357.595	158.55
357.807	-38.06
358.018	-33.96
358.23	-44.2
358.441	70.48
358.653	37.72
358.864	13.14
359.075	27.48
359.287	-15.53
359.498	37.72
359.709	82.77
359.921	-42.15
360.132	70.48
360.344	-29.87
360.555	9.05
360.766	-9.39
360.977	37.72
361.189	52.05
361.4	21.33
361.611	0.85
361.823	50
362.034	-5.29
362.245	27.48
362.456	-3.24
362.667	54.1
362.879	45.91
363.09	13.14
363.301	50
363.512	21.33
363.723	-9.39
363.935	43.86
364.146	82.77
364.357	45.91
364.568	2.9
364.779	17.24
364.99	45.91
365.201	-50.35
365.412	-7.34
365.623	21.33
365.834	13.14
366.045	-56.49
366.256	72.53
366.467	52.05
366.678	23.38
366.889	29.52
367.1	-9.39
367.311	37.72
367.522	15.19
367.733	86.87
367.944	82.77
368.155	21.33
368.366	72.53
368.577	52.05
368.788	23.38
368.999	-13.48
369.209	50
369.42	138.07
369.631	41.81
369.842	2.9
370.053	0.85
370.264	119.64
370.474	-3.24
370.685	35.67
370.896	101.2
371.107	50
371.317	56.15
371.528	-17.58
371.739	45.91
371.95	-15.53
372.16	62.29
372.371	82.77
372.582	107.35
372.792	21.33
373.003	111.44
373.214	25.43
373.424	-44.2
373.635	33.62
373.846	29.52
374.056	4.95
374.267	-11.43
374.477	66.39
374.688	-21.67
374.898	21.33
375.109	-15.53
375.319	-50.35
375.53	-11.43
375.74	62.29
375.951	4.95
376.161	-15.53
376.372	70.48
376.582	62.29
376.793	78.68
377.003	15.19
377.214	52.05
377.424	-52.39
377.635	4.95
377.845	19.29
378.055	9.05
378.266	-27.82
378.476	0.85
378.686	2.9
378.897	82.77
379.107	-27.82
379.317	74.58
379.528	-13.48
379.738	45.91
379.948	-60.59
380.158	60.24
380.369	-15.53
380.579	31.57
380.789	-54.44
380.999	47.96
381.21	86.87
381.42	93.01
381.63	33.62
381.84	29.52
382.05	31.57
382.261	17.24
382.471	60.24
382.681	-31.91
382.891	86.87
383.101	11.09
383.311	11.09
383.521	-5.29
383.731	35.67
383.941	43.86
384.151	86.87
384.361	-27.82
384.571	-31.91
384.781	-27.82
384.991	103.25
385.201	90.96
385.411	-15.53
385.621	19.29
385.831	103.25
386.041	39.76
386.251	60.24
386.461	95.06
386.671	21.33
386.881	45.91
387.091	29.52
387.301	111.44
387.511	35.67
387.72	37.72
387.93	50
388.14	11.09
388.35	74.58
388.56	103.25
388.769	17.24
388.979	21.33
389.189	-95.4
389.399	37.72
389.609	82.77
389.818	-15.53
390.028	25.43
390.238	74.58
390.447	45.91
390.657	90.96
390.867	0.85
391.076	-27.82
391.286	131.92
391.496	29.52
391.705	27.48
391.915	2.9
392.125	37.72
392.334	45.91
392.544	37.72
392.753	70.48
392.963	45.91
393.172	54.1
393.382	35.67
393.591	84.82
393.801	9.05
394.01	107.35
394.22	99.16
394.429	43.86
394.639	70.48
394.848	86.87
395.058	25.43
395.267	2.9
395.477	93.01
395.686	93.01
395.895	97.11
396.105	144.21
396.314	50
396.524	43.86
396.733	62.29
396.942	68.44
397.152	21.33
397.361	99.16
397.57	0.85
397.78	86.87
397.989	78.68
398.198	133.97
398.407	-36.01
398.617	27.48
398.826	54.1
399.035	72.53
399.244	105.3
399.453	70.48
399.663	115.54
399.872	111.44
400.081	17.24
400.29	119.64
400.499	35.67
400.708	131.92
400.917	158.55
401.127	11.09
401.336	54.1
401.545	129.88
401.754	-19.63
401.963	109.4
402.172	58.2
402.381	45.91
402.59	76.63
402.799	86.87
403.008	66.39
403.217	86.87
403.426	13.14
403.635	54.1
403.844	78.68
404.053	23.38
404.262	41.81
404.471	140.12
404.68	144.21
404.888	101.2
405.097	90.96
405.306	70.48
405.515	127.83
405.724	39.76
405.933	160.59
406.142	72.53
406.35	60.24
406.559	66.39
406.768	109.4
406.977	176.98
407.185	133.97
407.394	230.23
407.603	84.82
407.812	185.17
408.02	148.31
408.229	142.16
408.438	136.02
408.646	88.92
408.855	142.16
409.064	125.78
409.272	205.65
409.481	217.94
409.69	144.21
409.898	185.17
410.107	191.31
410.315	160.59
410.524	207.7
410.733	176.98
410.941	232.27
411.15	316.24
411.358	322.38
411.567	291.66
411.775	267.09
411.984	318.29
412.192	291.66
412.401	308.05
412.609	363.34
412.818	387.92
413.026	340.82
413.234	332.62
413.443	338.77
413.651	324.43
413.86	418.64
414.068	404.3
414.276	422.73
414.485	412.5
414.693	506.7
414.901	562
415.11	480.08
415.318	533.33
415.526	521.04
415.734	566.09
415.943	500.56
416.151	566.09
416.359	496.46
416.567	611.15
416.776	607.05
416.984	676.68
417.192	715.59
417.4	658.25
417.608	635.72
417.817	748.36
418.025	682.83
418.233	848.71
418.441	742.22
418.649	781.13
418.857	863.05
419.065	914.25
419.273	738.12
419.481	928.58
419.689	947.01
419.897	1002.31
420.105	1071.94
420.313	1102.66
420.521	1125.19
420.729	1180.48
420.937	1147.72
421.145	1209.15
421.353	1184.58
421.561	1266.5
421.769	1291.07
421.977	1299.27
422.185	1350.46
422.393	1438.53
422.601	1481.53
422.809	1536.83
423.017	1553.21
423.224	1635.13
423.432	1696.57
423.64	1733.43
423.848	1913.66
424.056	1841.98
424.263	1934.14
424.471	1971
424.679	2024.25
424.887	2085.69
425.094	2075.45
425.302	2106.17
425.51	2149.17
425.718	2302.77
425.925	2327.35
426.133	2448.18
426.341	2599.73
426.548	2638.64
426.756	2652.97
426.964	2614.06
427.171	2716.46
427.379	2962.22
427.586	2757.42
427.794	3046.18
428.001	3152.68
428.209	3386.15
428.417	3349.28
428.624	3439.39
428.832	3564.32
429.039	3580.7
429.247	3357.47
429.454	3617.57
429.662	4090.65
429.869	3746.59
430.076	4039.45
430.284	4035.35
430.491	4174.61
430.699	4451.09
430.906	4375.31
431.114	4229.91
431.321	4590.35
431.528	4516.62
431.736	5024.52
431.943	5208.84
432.15	5100.3
432.358	5157.64
432.565	5413.63
432.772	5278.47
432.979	5608.19
433.187	5718.78
433.394	5796.6
433.601	6140.66
433.808	6140.66
434.016	6111.99
434.223	6419.19
434.43	6810.35
434.637	6767.34
434.844	7058.15
435.052	7226.09
435.259	7131.88
435.466	7277.29
435.673	7195.37
435.88	7625.44
436.087	8078.04
436.294	7946.97
436.501	7793.37
436.708	8055.51
436.915	8180.44
437.122	8549.07
437.329	8581.84
437.537	8798.93
437.743	8950.48
437.95	8854.22
438.157	9511.62
438.364	9753.28
438.571	9712.32
438.778	9792.19
438.985	10457.78
439.192	10101.44
439.399	10678.96
439.606	10015.42
439.813	10881.71
440.02	11582.12
440.227	11608.74
440.433	11270.83
440.64	11647.65
440.847	11424.42
441.054	11899.55
441.261	12786.32
441.467	12559
441.674	12446.36
441.881	13163.15
442.088	13177.48
442.294	12962.45
442.501	13505.16
442.708	13777.54
442.914	14430.84
443.121	14828.15
443.328	14412.41
443.534	15598.18
443.741	15000.18
443.948	14740.08
444.154	16200.29
444.361	15837.8
444.568	15893.09
444.774	16013.92
444.981	16093.79
445.187	16669.27
445.394	17351.24
445.6	17046.1
445.807	18590.27
446.013	17756.74
446.22	18420.28
446.426	18936.37
446.633	19384.88
446.839	19583.53
447.046	18934.32
447.252	20124.19
447.459	20273.7
447.665	19841.57
447.871	20707.87
448.078	21887.5
448.284	20642.33
448.491	21467.66
448.697	22016.52
448.903	22589.95
449.11	22391.3
449.316	21662.22
449.522	22465.02
449.728	23099.89
449.935	23185.91
450.141	23065.08
450.347	23558.64
450.553	22880.76
450.76	23265.78
450.966	23998.95
451.172	23454.19
451.378	24621.53
451.584	23943.66
451.791	24318.43
451.997	24551.9
452.203	24332.77
452.409	24695.26
452.615	24887.77
452.821	23495.15
453.027	23294.45
453.233	24869.34
453.44	23642.6
453.646	23906.79
453.852	24150.5
454.058	24193.51
454.264	23572.97
454.47	23843.31
454.676	23773.67
454.882	24347.11
455.088	22209.03
455.294	22495.74
455.5	22583.8
455.705	22950.39
455.911	22010.37
456.117	21443.09
456.323	21262.86
456.529	20167.2
456.735	20765.21
456.941	20294.18
457.147	20171.3
457.352	19538.48
457.558	19151.41
457.764	19288.62
457.97	18956.85
458.176	18707
458.381	18432.57
458.587	17594.95
458.793	17613.38
458.999	16636.5
459.204	17963.59
459.41	17175.12
459.616	16253.53
459.821	16181.85
460.027	16087.65
460.233	15577.7
460.438	15170.16
460.644	15186.54
460.85	14549.62
461.055	14113.41
461.261	14023.3
461.466	13128.33
461.672	12614.29
461.878	13394.57
462.083	12913.3
462.289	12548.76
462.494	12472.98
462.7	12071.58
462.905	11616.93
463.111	12014.24
463.316	12067.49
463.522	11842.21
463.727	11516.58
463.932	11645.6
464.138	11553.45
464.343	11563.68
464.549	11055.79
464.754	11672.23
464.959	11674.28
465.165	11469.48
465.37	10973.87
465.575	10625.72
465.781	11162.28
465.986	11274.92
466.191	10840.75
466.397	10551.99
466.602	10367.67
466.807	10560.18
467.012	10422.97
467.218	10433.21
467.423	10087.1
467.628	10390.2
467.833	10807.98
468.038	10420.92
468.244	9947.84
468.449	10425.01
468.654	10105.53
468.859	9982.65
469.064	9943.74
469.269	9697.99
469.474	9554.63
469.679	9831.1
469.885	9415.37
470.09	9642.69
470.295	9560.77
470.5	9360.07
470.705	9351.88
470.91	9411.27
471.115	9106.12
471.32	9106.12
471.525	9319.11
471.73	9048.78
471.935	9071.31
472.139	8671.95
472.344	8932.05
472.549	8678.1
472.754	8544.98
472.959	8626.9
473.164	8254.17
473.369	8106.71
473.574	8473.3
473.778	8348.37
473.983	8112.86
474.188	8121.05
474.393	7930.59
474.598	7803.61
474.802	7705.31
475.007	7750.37
475.212	7836.38
475.417	7492.32
475.621	7645.92
475.826	7516.9
476.031	7385.83
476.235	7201.51
476.44	7226.09
476.645	7156.46
476.849	7172.84
477.054	7004.91
477.259	6886.12
477.463	6890.22
477.668	6755.05
477.872	6927.08
478.077	6595.31
478.282	6286.07
478.486	6718.19
478.691	6652.66
478.895	6494.96
479.1	6423.28
479.304	6476.53
479.509	6243.06
479.713	6398.71
479.918	6327.03
480.122	6066.94
480.326	6210.29
480.531	6142.71
480.735	6181.62
480.94	6277.88
481.144	6484.72
481.348	6021.88
481.553	6064.89
481.757	5989.11
481.961	6052.6
482.166	6085.37
482.37	6095.61
482.574	6005.5
482.778	5985.02
482.983	5999.35
483.187	5894.91
483.391	6023.93
483.595	5913.34
483.8	6023.93
484.004	6099.7
484.208	5950.2
484.412	6087.42
484.616	6101.75
484.821	5917.44
485.025	5923.58
485.229	6046.46
485.433	5935.87
485.637	6132.47
485.841	5964.54
486.045	5962.49
486.249	5878.52
486.453	5952.25
486.657	5921.53
486.861	5921.53
487.065	5722.88
487.269	5952.25
487.473	5987.07
487.677	6097.66
487.881	6126.33
488.085	5950.2
488.289	5974.78
488.493	5944.06
488.697	6050.55
488.901	5954.3
489.105	5960.44
489.309	6140.66
489.512	6071.03
489.716	6075.13
489.92	6001.4
490.124	5964.54
490.328	6013.69
490.531	6132.47
490.735	6064.89
490.939	6015.74
491.143	6083.32
491.346	6109.94
491.55	6187.77
491.754	6214.39
491.958	6331.12
492.161	6148.86
492.365	6322.93
492.569	6222.58
492.772	6275.83
492.976	6406.9
493.18	6374.13
493.383	6449.91
493.587	6363.89
493.79	6509.3
493.994	6400.76
494.197	6476.53
494.401	6476.53
494.605	6562.55
494.808	6720.24
495.012	6779.63
495.215	6836.97
495.419	6828.78
495.622	6865.64
495.825	6859.5
496.029	6849.26
496.232	7056.11
496.436	6898.41
496.639	7363.3
496.843	7070.44
497.046	7295.72
497.249	7496.42
497.453	7437.03
497.656	7539.43
497.859	7539.43
498.063	7602.91
498.266	7846.62
498.469	7639.78
498.673	7781.09
498.876	7998.17
499.079	7832.29
499.282	7959.26
499.485	8202.97
499.689	8415.96
499.892	8217.3
500.095	8395.48
500.298	8536.79
500.501	8549.07
500.705	8721.1
500.908	8952.52
501.111	8751.82
501.314	8839.89
501.517	8995.53
501.72	9155.27
501.923	9202.38
502.126	9454.28
502.329	9382.6
502.532	9474.76
502.735	9548.48
502.938	9847.49
503.141	9718.47
503.344	10128.06
503.547	9976.51
503.75	10142.39
503.953	10121.91
504.156	10373.82
504.359	10564.28
504.562	10556.08
504.765	10652.34
504.968	10777.26
505.17	10932.91
505.373	10898.1
505.576	11086.51
505.779	11193
505.982	11242.15
506.185	11514.53
506.387	11559.59
506.59	11686.56
506.793	11981.47
506.996	11846.3
507.198	12135.07
507.401	12223.13
507.604	12202.65
507.807	12446.36
508.009	12585.62
508.212	12579.48
508.415	12833.43
508.617	12946.06
508.82	12952.21
509.022	12972.69
509.225	13322.89
509.428	13349.51
509.63	13273.74
509.833	13402.76
510.035	14058.11
510.238	13873.79
510.44	14054.01
510.643	14150.27
510.845	14684.79
511.048	14209.66
511.25	14488.18
511.453	14520.95
511.655	15256.17
511.858	15121.01
512.06	15290.99
512.262	15237.74
512.465	15286.89
512.667	15286.89
512.87	15594.09
513.072	15888.99
513.274	15917.67
513.477	16198.24
513.679	16274.01
513.881	16253.53
514.084	16747.09
514.286	16493.15
514.488	16704.09
514.69	17164.88
514.893	17257.04
515.095	17187.41
515.297	17599.05
515.499	17515.08
515.701	17693.26
515.904	18039.36
516.106	18043.46
516.308	18238.02
516.51	18614.84
516.712	18408
516.914	18741.82
517.116	18870.84
517.318	18838.07
517.52	19247.66
517.722	19268.14
517.925	19348.01
518.127	19851.81
518.329	19657.26
518.531	19778.09
518.733	20238.88
518.935	20525.6
519.136	20396.57
519.338	20959.77
519.54	21031.44
519.742	21109.27
519.944	21139.99
520.146	21496.33
520.348	21932.55
520.55	21692.94
520.752	21854.73
520.954	22118.92
521.155	22231.55
521.357	22467.07
521.559	22616.57
521.761	23011.83
521.963	22903.29
522.164	23149.04
522.366	23204.34
522.568	23476.72
522.77	23572.97
522.971	24029.67
523.173	23779.82
523.375	23820.78
523.576	24308.19
523.778	24648.16
523.98	24977.88
524.181	24736.22
524.383	24941.02
524.584	25084.37
524.786	25213.4
524.988	25303.51
525.189	25719.24
525.391	25919.95
525.592	25969.1
525.794	25874.89
525.995	26368.45
526.197	26237.38
526.398	26798.52
526.6	26737.09
526.801	26853.82
527.003	27029.94
527.204	27023.8
527.406	27654.58
527.607	27228.6
527.808	27548.08
528.01	27158.97
528.211	27529.65
528.412	28121.51
528.614	28174.76
528.815	27781.55
529.016	28266.92
529.218	28072.36
529.419	28137.9
529.62	28182.95
529.822	28488.1
530.023	28412.32
530.224	28987.8
530.425	28791.2
530.626	28469.67
530.828	28502.43
531.029	29024.67
531.23	28803.49
531.431	29075.87
531.632	29006.23
531.833	29430.16
532.035	29125.02
532.236	28901.79
532.437	29411.73
532.638	29268.37
532.839	29442.45
533.04	29890.96
533.241	29563.28
533.442	29993.36
533.643	29710.74
533.844	29663.63
534.045	29923.72
534.246	29655.44
534.447	30114.19
534.648	29733.26
534.849	29944.2
535.05	30120.33
535.251	29936.01
535.451	30253.45
535.652	30312.84
535.853	30116.23
536.054	29956.49
536.255	29933.96
536.456	29718.93
536.657	30355.85
536.857	30550.4
537.058	30136.71
537.259	30153.1
537.46	30484.87
537.66	30048.65
537.861	30040.46
538.062	30120.33
538.263	30335.37
538.463	30310.79
538.664	30341.51
538.865	30431.62
539.065	30749.06
539.266	30095.75
539.466	30679.43
539.667	29741.46
539.868	30509.44
540.068	30138.76
540.269	30583.17
540.469	30216.58
540.67	30294.41
540.87	30230.92
541.071	30271.88
541.271	30210.44
541.472	30359.94
541.672	30294.41
541.873	30202.25
542.073	30116.23
542.274	30796.16
542.474	30175.62
542.675	30079.37
542.875	30300.55
543.075	30005.64
543.276	29981.07
543.476	30566.79
543.676	30210.44
543.877	30376.33
544.077	30460.29
544.277	30171.53
544.478	30241.16
544.678	30534.02
544.878	30298.5
545.078	30286.22
545.279	30355.85
545.479	30239.11
545.679	30329.22
545.879	30312.84
546.079	30140.81
546.28	30380.42
546.48	29933.96
546.68	30458.24
546.88	30060.94
547.08	30327.17
547.28	30189.96
547.48	29784.46
547.68	30402.95
547.88	29893.01
548.081	30218.63
548.281	30556.55
548.481	30343.56
548.681	30521.73
548.881	30224.78
549.081	29866.38
549.28	29888.91
549.48	30146.95
549.68	30075.27
549.88	30665.09
550.08	29931.92
550.28	30243.21
550.48	30056.84
550.68	30273.93
550.88	30282.12
551.08	30040.46
551.279	30253.45
551.479	30060.94
551.679	30237.06
551.879	29706.64
552.079	30257.54
552.278	30081.42
552.478	29995.4
552.678	30339.46
552.878	29985.16
553.077	29948.3
553.277	29788.56
553.477	30157.19
553.676	29628.82
553.876	30122.38
554.076	29776.27
554.275	29669.78
554.475	29677.97
554.674	29786.51
554.874	29567.38
555.074	29567.38
555.273	30024.08
555.473	29878.67
555.672	29473.17
555.872	29401.49
556.071	29532.56
556.271	29718.93
556.47	29469.08
556.67	29139.35
556.869	29047.19
557.068	29311.38
557.268	29223.32
557.467	29012.38
557.667	29217.18
557.866	29122.97
558.065	29180.31
558.265	29143.45
558.464	28746.14
558.663	28928.41
558.863	28582.31
559.062	28940.7
559.261	28352.93
559.461	28666.27
559.66	28174.76
559.859	28467.62
560.058	28498.34
560.258	28397.99
560.457	28098.98
560.656	28158.38
560.855	28334.5
561.054	28373.41
561.253	27722.16
561.453	27818.41
561.652	27906.48
561.851	28326.31
562.05	27658.67
562.249	27599.28
562.448	27785.65
562.647	27310.52
562.846	27470.26
563.045	27582.9
563.244	27163.06
563.443	27531.7
563.642	27173.3
563.841	27025.85
564.04	26847.68
564.239	27410.87
564.438	26982.84
564.637	26988.99
564.836	27148.73
565.035	26626.5
565.234	26558.91
565.432	26522.05
565.631	26196.42
565.83	26470.85
566.029	26223.05
566.228	25899.47
566.427	26163.65
566.625	25709.01
566.824	25711.05
567.023	26010.06
567.222	25285.08
567.42	25815.5
567.619	25678.29
567.818	25555.41
568.016	25450.96
568.215	25393.62
568.414	25272.79
568.612	25219.54
568.811	24863.19
569.01	25076.18
569.208	24734.17
569.407	25065.94
569.605	24355.3
569.804	24891.87
570.002	24637.92
570.201	24418.78
570.4	24314.34
570.598	24386.02
570.797	24093.16
570.995	24218.08
571.193	23886.31
571.392	24338.91
571.59	23777.77
571.789	23824.87
571.987	23667.18
572.186	23599.6
572.384	23413.23
572.582	23384.56
572.781	23378.42
572.979	23089.65
573.177	23204.34
573.376	23325.17
573.574	23159.28
573.772	22979.06
573.971	22905.34
574.169	22749.69
574.367	22647.29
574.565	22659.58
574.763	22344.19
574.962	22807.03
575.16	22477.31
575.358	22671.87
575.556	22077.96
575.754	22467.07
575.952	22112.77
576.151	22233.6
576.349	21946.89
576.547	22049.28
576.745	21910.02
576.943	21842.44
577.141	21699.08
577.339	21678.6
577.537	21479.95
577.735	21694.99
577.933	21522.96
578.131	21371.41
578.329	21291.54
578.527	21342.74
578.725	20947.48
578.923	21117.46
579.121	21115.41
579.319	20869.65
579.516	21064.21
579.714	20912.66
579.912	20621.85
580.11	20832.79
580.308	20709.91
580.506	20810.26
580.704	20214.3
580.901	20468.25
581.099	20460.06
581.297	20408.86
581.495	20253.22
581.692	20482.59
581.89	20312.61
582.088	20128.29
582.285	19900.97
582.483	20261.41
582.681	19833.38
582.878	20107.81
583.076	19935.78
583.274	19679.79
583.471	19878.44
583.669	19548.72
583.866	19599.91
584.064	19665.45
584.262	19274.29
584.459	19718.7
584.657	19403.31
584.854	19628.59
585.052	19034.67
585.249	19094.07
585.447	19245.62
585.644	18817.59
585.841	18915.89
586.039	19079.73
586.236	18649.66
586.434	18772.53
586.631	18657.85
586.828	18731.58
587.026	18901.56
587.223	18651.7
587.42	18432.57
587.618	18768.44
587.815	18356.8
588.012	18344.51
588.21	18305.6
588.407	18500.16
588.604	18065.99
588.801	18131.52
588.999	18063.94
589.196	18215.49
589.393	17891.91
589.59	18055.75
589.787	17736.26
589.984	17871.43
590.182	17738.31
590.379	17853
590.576	17513.03
590.773	17756.74
590.97	17394.25
591.167	17637.96
591.364	17289.81
591.561	17459.79
591.758	17230.41
591.955	17281.61
592.152	17273.42
592.349	17302.09
592.546	17146.45
592.743	17265.23
592.94	17080.91
593.137	16992.85
593.334	16960.08
593.531	16798.29
593.727	16724.57
593.924	17082.96
594.121	16704.09
594.318	16783.96
594.515	16433.75
594.712	16642.65
594.908	16380.51
595.105	16716.37
595.302	16265.82
595.499	16386.65
595.696	16188
595.892	16011.87
596.089	16128.61
596.286	16196.19
596.482	15944.29
596.679	15888.99
596.876	15929.95
597.072	15825.51
597.269	15966.82
597.466	15864.42
597.662	15909.47
597.859	15714.92
598.055	15755.88
598.252	15667.81
598.448	15784.55
598.645	15825.51
598.841	15518.31
599.038	15587.94
599.234	15790.69
599.431	15295.08
599.627	15446.63
599.824	15299.18
600.02	14852.72
600.217	15315.56
600.413	15164.01
600.609	15108.72
600.806	15018.61
601.002	15215.21
601.198	14758.52
601.395	14756.47
601.591	14813.81
601.787	14920.31
601.984	14676.6
602.18	14725.75
602.376	14574.2
602.572	14553.72
602.769	14602.87
602.965	14350.97
603.161	14432.89
603.357	14486.14
603.553	14420.6
603.75	14301.82
603.946	14305.92
604.142	14385.79
604.338	14115.45
604.534	14013.06
604.73	13988.48
604.926	13945.47
605.122	14111.36
605.318	14086.78
605.514	13748.87
605.71	14021.25
605.906	13927.04
606.102	13591.17
606.298	13849.22
606.494	13628.04
606.69	13636.23
606.886	13828.74
607.082	13271.69
607.278	13417.1
607.474	13486.73
607.67	13634.18
607.866	13343.37
608.062	13685.38
608.257	13310.6
608.453	13294.22
608.649	13529.73
608.845	13232.78
609.041	13380.23
609.236	13261.45
609.432	13138.57
609.628	13005.45
609.824	13001.36
610.019	13038.22
610.215	12978.83
610.411	13130.38
610.606	12780.18
610.802	12825.23
610.998	12995.22
611.193	12935.82
611.389	12843.67
611.584	12833.43
611.78	12864.15
611.976	12847.76
612.171	12941.97
612.367	12780.18
612.562	12667.54
612.758	12268.19
612.953	12700.31
613.149	12677.78
613.344	12481.17
613.539	12524.18
613.735	12546.71
613.93	12550.81
614.126	12243.61
614.321	12491.41
614.517	12468.89
614.712	12212.89
614.907	12214.94
615.103	12526.23
615.298	12407.45
615.493	12411.54
615.688	11958.94
615.884	12305.05
616.079	12350.1
616.274	12270.23
616.47	12194.46
616.665	12440.22
616.86	12055.2
617.055	12176.03
617.25	12018.33
617.445	11956.89
617.641	11684.52
617.836	11973.28
618.031	11758.24
618.226	11825.82
618.421	11782.82
618.616	11874.98
618.811	11608.74
619.006	11895.46
619.201	11700.9
619.396	11858.59
619.591	11481.77
619.786	11612.84
619.981	11528.87
620.176	11326.12
620.371	11213.48
620.566	11287.21
620.761	11379.37
620.956	11391.66
621.151	11293.35
621.346	11422.38
621.541	11070.12
621.735	11195.05
621.93	10990.25
622.125	10971.82
622.32	10676.91
622.515	10711.73
622.709	10711.73
622.904	10703.54
623.099	10767.03
623.294	10556.08
623.488	10488.5
623.683	10638
623.878	10382.01
624.072	10504.89
624.267	10332.86
624.462	10312.38
624.656	10140.35
624.851	10322.62
625.046	10103.48
625.24	10037.95
625.435	9931.45
625.629	10080.96
625.824	9964.22
626.018	9890.49
626.213	9792.19
626.407	9769.66
626.602	9786.05
626.796	9642.69
626.991	9736.9
627.185	9409.22
627.38	9446.09
627.574	9466.56
627.768	9394.89
627.963	9450.18
628.157	9036.49
628.352	9278.15
628.546	9063.12
628.74	9155.27
628.935	9261.77
629.129	9224.9
629.323	9048.78
629.517	8956.62
629.712	8778.45
629.906	8755.92
630.1	8876.75
630.294	9069.26
630.489	8717.01
630.683	8766.16
630.877	8823.5
631.071	8633.04
631.265	8516.31
631.459	8399.57
631.653	8405.72
631.848	8348.37
632.042	8372.95
632.236	8448.72
632.43	8334.04
632.624	8245.98
632.818	8334.04
633.012	8094.43
633.206	8053.47
633.4	8274.65
633.594	7936.73
633.788	8186.58
633.982	8067.8
634.176	7840.48
634.369	7834.33
634.563	7975.64
634.757	7707.36
634.951	7989.98
635.145	7791.33
635.339	7629.54
635.533	7770.85
635.726	7457.51
635.92	7426.79
636.114	7490.28
636.308	7346.92
636.501	7426.79
636.695	7621.35
636.889	7365.35
637.083	7379.68
637.276	7138.02
637.47	7250.66
637.664	7006.95
637.857	7166.7
638.051	7115.5
638.244	7017.19
638.438	7099.11
638.632	7052.01
638.825	6922.99
639.019	6898.41
639.212	6812.4
639.406	6812.4
639.599	6697.71
639.793	6865.64
639.986	6845.16
640.18	6791.92
640.373	6652.66
640.567	6640.37
640.76	6664.94
640.954	6533.87
641.147	6513.39
641.34	6316.79
641.534	6456.05
641.727	6529.78
641.92	6367.99
642.114	6380.28
642.307	6374.13
642.5	6296.31
642.694	6224.63
642.887	6341.36
643.08	6150.9
643.273	6163.19
643.467	6210.29
643.66	6144.76
643.853	6062.84
644.046	6087.42
644.239	5989.11
644.432	5858.04
644.626	6056.7
644.819	5907.2
645.012	5747.45
645.205	5882.62
645.398	5915.39
645.591	5767.93
645.784	5907.2
645.977	5634.82
646.17	5868.28
646.363	5800.7
646.556	5516.03
646.749	5542.66
646.942	5581.57
647.135	5493.51
647.328	5427.97
647.521	5550.85
647.714	5337.86
647.907	5360.39
648.099	5477.12
648.292	5544.7
648.485	5339.91
648.678	5372.68
648.871	5309.19
649.064	5384.96
649.256	5423.87
649.449	5190.41
649.642	5147.4
649.835	5262.09
650.027	5231.37
650.22	5065.48
650.413	5128.97
650.605	5018.38
650.798	5032.71
650.991	4983.56
651.183	5135.11
651.376	5131.02
651.568	4903.69
651.761	4930.31
651.954	4926.22
652.146	5083.91
652.339	4942.6
652.531	4741.9
652.724	4879.11
652.916	4567.82
653.109	4604.69
653.301	4741.9
653.494	4746
653.686	4678.41
653.879	4772.62
654.071	4682.51
654.263	4621.07
654.456	4670.22
654.648	4707.09
654.84	4606.74
655.033	4541.2
655.225	4582.16
655.417	4616.97
655.61	4367.12
655.802	4506.38
655.994	4592.4
656.186	4395.79
656.379	4403.99
656.571	4379.41
656.763	4309.78
656.955	4371.22
657.148	4379.41
657.34	4301.59
657.532	4289.3
657.724	4223.76
657.916	4264.72
658.108	4295.44
658.3	4264.72
658.492	4199.19
658.684	3994.39
658.876	4221.72
659.068	4199.19
659.26	4102.93
659.452	3955.48
659.644	4018.97
659.836	4125.46
660.028	4098.84
660.22	4043.54
660.412	3939.1
660.604	4059.93
660.796	4043.54
660.988	4150.04
661.18	3918.62
661.372	4021.02
661.563	4074.26
661.755	3902.23
661.947	4018.97
662.139	3785.5
662.331	3912.47
662.522	3945.24
662.714	3801.88
662.906	3787.55
663.097	3889.95
663.289	3789.6
663.481	3730.2
663.673	3844.89
663.864	3687.2
664.056	3738.4
664.247	3736.35
664.439	3703.58
664.631	3812.12
664.822	3771.16
665.014	3676.96
665.205	3521.31
665.397	3621.66
665.588	3611.42
665.78	3676.96
665.971	3728.16
666.163	3707.68
666.354	3664.67
666.546	3578.65
666.737	3670.81
666.929	3636
667.12	3650.33
667.311	3709.72
667.503	3490.59
667.694	3406.63
667.885	3506.98
668.077	3582.75
668.268	3437.34
668.459	3633.95
668.651	3603.23
668.842	3674.91
669.033	3541.79
669.224	3621.66
669.416	3633.95
669.607	3502.88
669.798	3443.49
669.989	3584.8
670.18	3588.89
670.371	3625.76
670.563	3621.66
670.754	3592.99
670.945	3611.42
671.136	3588.89
671.327	3570.46
671.518	3476.26
671.709	3597.09
671.9	3642.14
672.091	3558.18
672.282	3592.99
672.473	3429.15
672.664	3504.93
672.855	3633.95
673.046	3556.13
673.237	3697.44
673.428	3492.64
673.619	3494.69
673.809	3642.14
674	3554.08
674.191	3685.15
674.382	3511.07
674.573	3631.9
674.764	3580.7
674.954	3674.91
675.145	3492.64
675.336	3654.43
675.527	3580.7
675.717	3398.43
675.908	3543.84
676.099	3619.61
676.289	3640.09
676.48	3597.09
676.671	3668.77
676.861	3523.36
677.052	3613.47
677.243	3566.37
677.433	3666.72
677.624	3769.12
677.814	3781.4
678.005	3873.56
678.195	3855.13
678.386	3676.96
678.576	3810.08
678.767	3742.49
678.957	3881.75
679.148	3715.87
679.338	3793.69
679.529	3705.63
679.719	3785.5
679.909	3953.43
680.1	3840.79
680.29	4004.63
680.481	3984.15
680.671	3928.86
680.861	3953.43
681.052	3912.47
681.242	4023.06
681.432	3990.3
681.622	3840.79
681.813	3912.47
682.003	3906.33
682.193	4086.55
682.383	4176.66
682.573	3951.39
682.764	4064.02
682.954	3894.04
683.144	4035.35
683.334	4104.98
683.524	4010.78
683.714	4090.65
683.904	3939.1
684.094	3961.62
684.284	4145.94
684.474	4059.93
684.664	4102.93
684.854	4156.18
685.044	4016.92
685.234	4090.65
685.424	4041.5
685.614	4000.54
685.804	4041.5
685.994	4082.46
686.184	4055.83
686.374	4006.68
686.564	3975.96
686.753	3965.72
686.943	3916.57
687.133	3859.23
687.323	3912.47
687.513	3935
687.702	3947.29
687.892	3855.13
688.082	3791.64
688.272	3918.62
688.461	3769.12
688.651	3762.97
688.841	3709.72
689.03	3715.87
689.22	3740.44
689.41	3824.41
689.599	3660.57
689.789	3767.07
689.979	3713.82
690.168	3504.93
690.358	3560.22
690.547	3484.45
690.737	3570.46
690.926	3543.84
691.116	3504.93
691.305	3570.46
691.495	3480.35
691.684	3529.5
691.874	3423.01
692.063	3484.45
692.252	3451.68
692.442	3363.62
692.631	3388.19
692.82	3271.46
693.01	3296.04
693.199	3386.15
693.388	3257.12
693.578	3285.8
693.767	3226.4
693.956	3236.64
694.146	3191.59
694.335	3283.75
694.524	3207.97
694.713	3306.27
694.902	3173.16
695.092	3033.9
695.281	3068.71
695.47	3099.43
695.659	3019.56
695.848	3113.77
696.037	3072.81
696.226	3015.46
696.415	3001.13
696.604	3052.33
696.793	2919.21
696.982	2968.36
697.171	2923.3
697.36	2962.22
697.549	2913.06
697.738	2831.15
697.927	2917.16
698.116	2972.46
698.305	2937.64
698.494	2847.53
698.683	2806.57
698.872	3001.13
699.061	2886.44
699.25	2894.63
699.438	2894.63
699.627	2853.67
699.816	2886.44
700.005	2853.67
700.193	2798.38
700.382	2906.92
700.571	2839.34
700.76	2863.91
700.948	2960.17
701.137	2929.45
701.326	2839.34
701.514	2892.59
701.703	2966.31
701.892	2917.16
702.08	2806.57
702.269	2859.82
702.457	2892.59
702.646	2902.83
702.834	2859.82
703.023	2872.11
703.212	3044.13
703.4	2929.45
703.589	2802.47
703.777	2937.64
703.965	2767.66
704.154	2902.83
704.342	2941.74
704.531	2863.91
704.719	2872.11
704.907	2853.67
705.096	2951.98
705.284	2788.14
705.472	2958.12
705.661	2837.29
705.849	2943.78
706.037	3017.51
706.226	3076.9
706.414	3062.57
706.602	3044.13
706.79	3011.37
706.979	2986.79
707.167	3093.29
707.355	2915.11
707.543	3050.28
707.731	3011.37
707.919	3128.1
708.107	3191.59
708.296	3040.04
708.484	3128.1
708.672	3164.97
708.86	3101.48
709.048	3181.35
709.236	3158.82
709.424	3029.8
709.612	3287.84
709.8	3117.86
709.988	3197.73
710.176	3199.78
710.364	3279.65
710.551	3203.88
710.739	3197.73
710.927	3224.36
711.115	3253.03
711.303	3394.34
711.491	3238.69
711.679	3289.89
711.866	3312.42
712.054	3214.12
712.242	3326.75
712.43	3375.91
712.617	3269.41
712.805	3244.84
712.993	3437.34
713.181	3369.76
713.368	3533.6
713.556	3488.54
713.744	3418.91
713.931	3584.8
714.119	3400.48
714.306	3576.61
714.494	3482.4
714.682	3486.5
714.869	3375.91
715.057	3613.47
715.244	3576.61
715.432	3556.13
715.619	3650.33
715.807	3556.13
715.994	3705.63
716.182	3599.13
716.369	3748.64
716.556	3672.86
716.744	3592.99
716.931	3674.91
717.119	3779.36
717.306	3695.39
717.493	3769.12
717.681	3736.35
717.868	3822.36
718.055	3937.05
718.242	3848.99
718.43	4006.68
718.617	3955.48
718.804	3855.13
718.991	3846.94
719.179	3961.62
719.366	3912.47
719.553	4156.18
719.74	3971.86
719.927	3998.49
720.114	3998.49
720.301	3943.19
720.488	3879.71
720.676	4068.12
720.863	3949.34
721.05	4137.75
721.237	4129.56
721.424	4145.94
721.611	4219.67
721.798	4272.92
721.985	4082.46
722.172	4100.89
722.358	4133.65
722.545	4090.65
722.732	4207.38
722.919	4268.82
723.106	4059.93
723.293	4277.01
723.48	4328.21
723.667	4254.48
723.853	4348.69
724.04	4240.15
724.227	4203.29
724.414	4352.79
724.6	4453.14
724.787	4395.79
724.974	4440.85
725.161	4477.71
725.347	4203.29
725.534	4514.58
725.72	4516.62
725.907	4563.73
726.094	4705.04
726.28	4506.38
726.467	4537.1
726.653	4698.89
726.84	4696.85
727.027	4643.6
727.213	4561.68
727.4	4647.69
727.586	4616.97
727.773	4637.45
727.959	4621.07
728.145	4698.89
728.332	4692.75
728.518	4639.5
728.705	4713.23
728.891	4762.38
729.077	4684.56
729.264	4731.66
729.45	4746
729.636	4856.59
729.823	4647.69
730.009	4920.07
730.195	4725.52
730.382	4770.57
730.568	5001.99
730.754	4877.07
730.94	4793.1
731.126	4842.25
731.313	4936.46
731.499	4838.16
731.685	4928.27
731.871	4913.93
732.057	4889.35
732.243	4991.75
732.429	4989.71
732.615	4975.37
732.801	4985.61
732.987	4903.69
733.173	4805.39
733.359	4977.42
733.545	4975.37
733.731	5079.82
733.917	4932.36
734.103	4858.64
734.289	5067.53
734.475	4789
734.661	4997.9
734.847	5067.53
735.033	5071.62
735.219	5024.52
735.404	4979.47
735.59	4989.71
735.776	5022.47
735.962	5155.59
736.148	5186.31
736.333	5038.86
736.519	5030.66
736.705	5094.15
736.89	4987.66
737.076	5141.25
737.262	5022.47
737.447	5122.82
737.633	5069.58
737.819	4985.61
738.004	5131.02
738.19	5149.45
738.375	4977.42
738.561	5083.91
738.747	5069.58
738.932	5100.3
739.118	5067.53
739.303	5001.99
739.489	5096.2
739.674	5042.95
739.859	5036.81
740.045	5042.95
740.23	5063.43
740.416	5001.99
740.601	5073.67
740.786	5157.64
740.972	5034.76
741.157	5014.28
741.342	4977.42
741.528	4993.8
741.713	4907.79
741.898	4993.8
742.084	4807.44
742.269	5202.69
742.454	4770.57
742.639	4918.03
742.824	4731.66
743.01	4821.77
743.195	4991.75
743.38	4829.96
743.565	4764.43
743.75	4797.2
743.935	4729.61
744.12	4901.64
744.305	4690.7
744.49	4629.26
744.675	4592.4
744.86	4641.55
745.045	4637.45
745.23	4623.12
745.415	4655.89
745.6	4576.02
745.785	4571.92
745.97	4565.78
746.155	4533.01
746.34	4741.9
746.525	4420.37
746.71	4625.17
746.895	4436.75
747.079	4336.4
747.264	4344.6
747.449	4395.79
747.634	4514.58
747.819	4297.49
748.003	4186.9
748.188	4322.07
748.373	4123.41
748.557	4369.17
748.742	4238.1
748.927	4150.04
749.111	4131.61
749.296	4100.89
749.481	4059.93
749.665	4055.83
749.85	4055.83
750.034	4051.74
750.219	3945.24
750.404	4010.78
750.588	3920.67
750.773	3771.16
750.957	3949.34
751.141	3840.79
751.326	3857.18
751.51	3748.64
751.695	3760.92
751.879	3801.88
752.064	3703.58
752.248	3707.68
752.432	3816.22
752.617	3781.4
752.801	3695.39
752.985	3631.9
753.17	3625.76
753.354	3568.41
753.538	3619.61
753.722	3609.37
753.907	3449.63
754.091	3543.84
754.275	3318.56
754.459	3380
754.643	3289.89
754.828	3414.82
755.012	3332.9
755.196	3146.53
755.38	3173.16
755.564	3199.78
755.748	3171.11
755.932	3205.92
756.116	3132.2
756.3	3134.25
756.484	3175.2
756.668	3154.73
756.852	3044.13
757.036	3046.18
757.22	2951.98
757.404	3013.42
757.588	3027.75
757.772	2980.65
757.956	2908.97
758.14	3091.24
758.323	2962.22
758.507	2913.06
758.691	2935.59
758.875	2868.01
759.059	2986.79
759.242	2806.57
759.426	2716.46
759.61	2747.18
759.794	2712.36
759.977	2728.75
760.161	2843.43
760.345	2802.47
760.528	2722.6
760.712	2786.09
760.895	2575.15
761.079	2677.55
761.263	2544.43
761.446	2626.35
761.63	2646.83
761.813	2644.78
761.997	2609.97
762.18	2550.57
762.364	2532.14
762.547	2362.16
762.731	2487.09
762.914	2421.55
763.098	2593.58
763.281	2462.51
763.464	2491.18
763.648	2384.69
763.831	2313.01
764.015	2304.82
764.198	2358.07
764.381	2380.59
764.564	2415.41
764.748	2446.13
764.931	2403.12
765.114	2388.78
765.297	2388.78
765.481	2300.72
765.664	2227
765.847	2247.48
766.03	2337.59
766.213	2212.66
766.397	2204.47
766.58	2210.61
766.763	2214.71
766.946	2052.92
767.129	2200.37
767.312	2140.98
767.495	2183.99
767.678	2157.36
767.861	2220.85
768.044	2229.04
768.227	2102.07
768.41	2042.68
768.593	2089.78
768.776	2145.08
768.959	2073.4
769.142	2243.38
769.324	2044.73
769.507	1962.81
769.69	2116.41
769.873	1903.42
770.056	2052.92
770.239	1893.18
770.421	1971
770.604	2073.4
770.787	1954.62
770.97	1930.04
771.152	1876.79
771.335	1895.22
771.518	2024.25
771.7	1997.62
771.883	1952.57
772.066	2036.53
772.248	1925.94
772.431	1862.46
772.613	1831.74
772.796	1778.49
772.978	1889.08
773.161	1848.12
773.343	1755.96
773.526	1723.2
773.708	1715
773.891	1622.84
774.073	1659.71
774.256	1733.43
774.438	1737.53
774.621	1647.42
774.803	1594.17
774.985	1635.13
775.168	1672
775.35	1600.32
775.532	1639.23
775.715	1583.93
775.897	1590.08
776.079	1610.56
776.261	1487.68
776.444	1565.5
776.626	1532.73
776.808	1438.53
776.99	1477.44
777.173	1487.68
777.355	1551.17
777.537	1479.49
777.719	1506.11
777.901	1387.33
778.083	1420.1
778.265	1475.39
778.447	1428.29
778.629	1344.32
778.811	1291.07
778.993	1428.29
779.175	1487.68
779.357	1381.18
779.539	1311.55
779.721	1301.31
779.903	1321.79
780.085	1286.98
780.267	1235.78
780.449	1225.54
780.631	1299.27
780.812	1221.44
780.994	1325.89
781.176	1356.61
781.358	1151.81
781.54	1145.67
781.721	1198.92
781.903	1215.3
782.085	1157.96
782.267	1133.38
782.448	1043.27
782.63	1166.15
782.812	1180.48
782.993	1073.99
783.175	1143.62
783.357	1004.36
783.538	1069.89
783.72	1073.99
783.901	1117
784.083	1094.47
784.264	938.82
784.446	1037.13
784.627	938.82
784.809	1016.65
784.99	1010.5
785.172	1045.32
785.353	1002.31
785.535	998.21
785.716	1045.32
785.897	971.59
786.079	926.54
786.26	971.59
786.441	963.4
786.623	856.9
786.804	863.05
786.985	838.47
787.167	938.82
787.348	856.9
787.529	938.82
787.71	975.69
787.891	844.62
788.073	795.47
788.254	906.06
788.435	957.25
788.616	789.32
788.797	783.18
788.978	789.32
789.159	817.99
789.34	791.37
789.522	820.04
789.703	807.75
789.884	904.01
790.065	760.65
790.246	830.28
790.427	840.52
790.607	777.03
790.788	846.66
790.969	723.79
791.15	719.69
791.331	799.56
791.512	709.45
791.693	779.08
791.874	725.83
792.054	813.9
792.235	734.03
792.416	684.87
792.597	774.99
792.778	781.13
792.958	707.4
793.139	660.3
793.32	699.21
793.5	648.01
793.681	701.26
793.862	607.05
794.042	697.16
794.223	609.1
794.404	576.33
794.584	676.68
794.765	635.72
794.945	641.87
795.126	684.87
795.306	670.54
795.487	578.38
795.667	602.96
795.848	658.25
796.028	568.14
796.209	633.68
796.389	627.53
796.57	678.73
796.75	594.76
796.93	635.72
797.111	545.61
797.291	529.23
797.471	652.11
797.652	553.8
797.832	541.52
798.012	572.24
798.192	527.18
798.373	545.61
798.553	562
798.733	611.15
798.913	521.04
799.093	541.52
799.274	475.98
799.454	607.05
799.634	543.57
799.814	510.8
799.994	602.96
800.174	594.76
800.354	535.37
800.534	480.08
800.714	453.45
800.894	463.69
801.074	414.54
801.254	465.74
801.434	543.57
801.614	475.98
801.794	480.08
801.974	1170.24
802.154	488.27
802.334	570.19
802.514	471.89
802.693	379.73
802.873	396.11
803.053	551.76
803.233	496.46
803.413	447.31
803.592	361.3
803.772	402.26
803.952	437.07
804.131	447.31
804.311	414.54
804.491	494.41
804.67	502.61
804.85	451.41
805.03	512.85
805.209	406.35
805.389	344.91
805.568	406.35
805.748	389.97
805.928	486.22
806.107	447.31
806.287	471.89
806.466	387.92
806.646	449.36
806.825	406.35
807.004	402.26
807.184	389.97
807.363	387.92
807.543	328.53
807.722	404.3
807.901	365.39
808.081	385.87
808.26	293.71
808.439	428.88
808.619	324.43
808.798	406.35
808.977	392.02
809.156	435.02
809.336	426.83
809.515	361.3
809.694	398.16
809.873	398.16
810.052	398.16
810.231	451.41
810.411	398.16
810.59	406.35
810.769	430.93
810.948	412.5
811.127	285.52
811.306	271.19
811.485	303.95
811.664	406.35
811.843	340.82
812.022	349.01
812.201	346.96
812.38	344.91
812.559	275.28
812.737	389.97
812.916	240.47
813.095	310.1
813.274	318.29
813.453	357.2
813.632	322.38
813.811	385.87
813.989	273.23
814.168	312.14
814.347	209.75
814.526	295.76
814.704	332.62
814.883	316.24
815.062	287.57
815.24	326.48
815.419	254.8
815.598	242.51
815.776	281.43
815.955	262.99
816.133	279.38
816.312	262.99
816.49	289.62
816.669	283.47
816.847	242.51
817.026	287.57
817.204	273.23
817.383	267.09
817.561	281.43
817.74	279.38
817.918	267.09
818.097	271.19
818.275	254.8
818.453	303.95
818.632	265.04
818.81	258.9
818.988	277.33
819.167	240.47
819.345	224.08
819.523	246.61
819.701	334.67
819.879	279.38
820.058	242.51
820.236	258.9
820.414	303.95
820.592	142.16
820.77	258.9
820.948	197.46
821.127	275.28
821.305	246.61
821.483	158.55
821.661	193.36
821.839	224.08
822.017	197.46
822.195	203.6
822.373	297.81
822.551	154.45
822.729	267.09
822.907	234.32
823.085	271.19
823.262	242.51
823.44	160.59
823.618	172.88
823.796	226.13
823.974	156.5
824.152	127.83
824.329	224.08
824.507	228.18
824.685	142.16
824.863	271.19
825.04	265.04
825.218	187.22
825.396	248.66
825.574	197.46
825.751	185.17
825.929	240.47
826.107	185.17
826.284	174.93
826.462	201.55
826.639	144.21
826.817	176.98
826.994	181.07
827.172	246.61
827.349	189.27
827.527	136.02
827.704	176.98
827.882	131.92
828.059	232.27
828.237	95.06
828.414	230.23
828.591	93.01
828.769	232.27
828.946	164.69
829.124	226.13
829.301	236.37
829.478	201.55
829.655	185.17
829.833	144.21
830.01	123.73
830.187	275.28
830.364	236.37
830.542	176.98
830.719	189.27
830.896	140.12
831.073	217.94
831.25	172.88
831.427	199.51
831.604	140.12
831.782	136.02
831.959	228.18
832.136	142.16
832.313	234.32
832.49	150.36
832.667	123.73
832.844	115.54
833.021	248.66
833.198	168.79
833.374	115.54
833.551	174.93
833.728	162.64
833.905	150.36
834.082	140.12
834.259	142.16
834.436	215.89
834.612	199.51
834.789	127.83
834.966	136.02
835.143	168.79
835.319	127.83
835.496	183.12
835.673	117.59
835.85	164.69
836.026	127.83
836.203	127.83
836.38	127.83
836.556	54.1
836.733	123.73
836.909	185.17
837.086	66.39
837.262	50
837.439	99.16
837.616	148.31
837.792	193.36
837.968	66.39
838.145	62.29
838.321	105.3
838.498	103.25
838.674	185.17
838.851	136.02
839.027	84.82
839.203	62.29
839.38	99.16
839.556	95.06
839.732	176.98
839.909	111.44
840.085	131.92
840.261	21.33
840.437	138.07
840.614	70.48
840.79	156.5
840.966	144.21
841.142	66.39
841.318	37.72
841.494	101.2
841.671	127.83
841.847	115.54
842.023	154.45
842.199	162.64
842.375	123.73
842.551	70.48
842.727	76.63
842.903	189.27
843.079	97.11
843.255	144.21
843.431	125.78
843.607	174.93
843.783	111.44
843.959	133.97
844.134	41.81
844.31	95.06
844.486	52.05
844.662	68.44
844.838	17.24
845.013	138.07
845.189	136.02
845.365	74.58
845.541	62.29
845.716	68.44
845.892	70.48
846.068	43.86
846.244	127.83
846.419	95.06
846.595	78.68
846.77	15.19
846.946	37.72
847.122	119.64
847.297	39.76
847.473	86.87
847.648	54.1
847.824	35.67
847.999	90.96
848.175	64.34
848.35	68.44
848.526	78.68
848.701	121.68
848.876	138.07
849.052	68.44
849.227	62.29
849.403	101.2
849.578	66.39
849.753	93.01
849.929	95.06
850.104	33.62
850.279	25.43
850.454	62.29
850.63	103.25
850.805	142.16
850.98	-1.19
851.155	2.9
851.33	66.39
851.505	52.05
851.681	111.44
851.856	78.68
852.031	39.76
852.206	101.2
852.381	33.62
852.556	-7.34
852.731	82.77
852.906	70.48
853.081	41.81
853.256	13.14
853.431	52.05
853.606	90.96
853.781	-25.77
853.956	11.09
854.131	37.72
854.305	107.35
854.48	13.14
854.655	-27.82
854.83	-17.58
855.005	127.83
855.18	45.91
855.354	13.14
855.529	17.24
855.704	41.81
855.879	62.29
856.053	-40.11
856.228	66.39
856.403	43.86
856.577	74.58
856.752	-27.82
856.926	-3.24
857.101	37.72
857.276	-3.24
857.45	103.25
857.625	82.77
857.799	50
857.974	43.86
858.148	21.33
858.323	123.73
858.497	-17.58
858.672	-62.63
858.846	-1.19
859.02	33.62
859.195	35.67
859.369	68.44
859.543	62.29
859.718	11.09
859.892	45.91
860.066	74.58
860.241	33.62
860.415	-23.72
860.589	43.86
860.763	109.4
860.938	58.2
861.112	-3.24
861.286	50
861.46	37.72
861.634	2.9
861.808	66.39
861.982	-31.91
862.157	11.09
862.331	78.68
862.505	-70.83
862.679	-27.82
862.853	17.24
863.027	17.24
863.201	101.2
863.375	13.14
863.549	-13.48
863.722	54.1
863.896	54.1
864.07	54.1
864.244	-19.63
864.418	115.54
864.592	70.48
864.766	-3.24
864.939	45.91
865.113	9.05
865.287	45.91
865.461	-25.77
865.634	37.72
865.808	-15.53
865.982	50
866.156	-31.91
866.329	-29.87
866.503	13.14
866.676	56.15
866.85	2.9
867.024	31.57
867.197	45.91
867.371	78.68
867.544	74.58
867.718	13.14
867.891	78.68
868.065	4.95
868.238	-7.34
868.412	62.29
868.585	21.33
868.759	-5.29
868.932	0.85
869.105	35.67
869.279	15.19
869.452	-19.63
869.625	60.24
869.799	0.85
869.972	-68.78
870.145	-13.48
870.319	27.48
870.492	29.52
870.665	41.81
870.838	-13.48
871.011	-85.16
871.185	56.15
871.358	-52.39
871.531	45.91
871.704	-19.63
871.877	35.67
872.05	13.14
872.223	-7.34
872.396	103.25
872.569	45.91
872.742	-15.53
872.915	88.92
873.088	-48.3
873.261	-27.82
873.434	45.91
873.607	-15.53
873.78	95.06
873.953	-21.67
874.126	54.1
874.299	-19.63
874.471	-85.16
874.644	-3.24
874.817	-52.39
874.99	-3.24
875.163	45.91
875.335	27.48
875.508	-17.58
875.681	37.72
875.853	0.85
876.026	27.48
876.199	-25.77
876.371	-19.63
876.544	29.52
876.717	-15.53
876.889	-46.25
877.062	43.86
877.234	4.95
877.407	-25.77
877.579	27.48
877.752	37.72
877.924	76.63
878.097	37.72
878.269	78.68
878.442	56.15
878.614	56.15
878.786	47.96
878.959	41.81
879.131	74.58
879.303	33.62
879.476	29.52
879.648	56.15
879.82	35.67
879.993	0.85
880.165	27.48
880.337	-52.39
880.509	-13.48
880.681	-76.97
880.854	2.9
881.026	37.72
881.198	72.53
881.37	13.14
881.542	4.95
881.714	-56.49
881.886	37.72
882.058	21.33
882.23	35.67
882.402	41.81
882.574	80.72
882.746	-23.72
882.918	4.95
883.09	17.24
883.262	29.52
883.434	-5.29
883.606	-19.63
883.778	9.05
883.95	50
884.122	82.77
884.293	-44.2
884.465	50
884.637	-5.29
884.809	37.72
884.98	-7.34
885.152	115.54
885.324	90.96
885.496	-25.77
885.667	-44.2
885.839	11.09
886.011	111.44
886.182	54.1
886.354	45.91
886.525	13.14
886.697	-25.77
886.869	54.1
887.04	0.85
887.212	76.63
887.383	62.29
887.555	29.52
887.726	37.72
887.897	-25.77
888.069	-3.24
888.24	4.95
888.412	-81.07
888.583	-48.3
888.754	19.29
888.926	-40.11
889.097	-70.83
889.268	-11.43
889.44	52.05
889.611	-85.16
889.782	25.43
889.953	-109.74
890.125	52.05
890.296	-31.91
890.467	-60.59
890.638	-38.06
890.809	-5.29
890.98	-50.35
891.151	35.67
891.323	68.44
891.494	17.24
891.665	9.05
891.836	13.14
892.007	-3.24
892.178	66.39
892.349	2.9
892.52	-11.43
892.691	0.85
892.862	0.85
893.032	-68.78
893.203	-29.87
893.374	33.62
893.545	45.91
893.716	-27.82
893.887	43.86
894.057	-15.53
894.228	37.72
894.399	-109.74
894.57	68.44
894.74	-17.58
894.911	54.1
895.082	0.85
895.253	19.29
895.423	0.85
895.594	-31.91
895.764	23.38
895.935	54.1
896.106	21.33
896.276	13.14
896.447	-17.58
896.617	-38.06
896.788	-29.87
896.958	-60.59
897.129	-19.63
897.299	-52.39
897.47	68.44
897.64	35.67
897.81	11.09
897.981	45.91
898.151	-54.44
898.322	-1.19
898.492	7
898.662	-5.29
898.832	21.33
899.003	0.85
899.173	27.48
899.343	17.24
899.513	-7.34
