Data from USB4F104151__90__11-32-07-051.txt Node

Date: Fri Mar 14 11:32:07 EDT 2025
User: louis
Spectrometer: USB4F10415
Trigger mode: 4
Integration Time (sec): 5.000000E-2
Scans to average: 1
Electric dark correction enabled: true
Nonlinearity correction enabled: false
Boxcar width: 0
XAxis mode: Wavelengths
Number of Pixels in Spectrum: 3648
>>>>>Begin Spectral Data<<<<<
178.204	-133.12
178.424	-133.12
178.644	-133.12
178.864	-112.64
179.084	-129.02
179.304	14.34
179.524	40.96
179.744	-51.2
179.964	77.82
180.184	-55.3
180.404	18.43
180.624	-34.82
180.844	-49.15
181.064	-12.29
181.283	24.58
181.503	-2.05
181.723	28.67
181.943	-34.82
182.163	38.91
182.383	65.53
182.602	90.11
182.822	73.73
183.042	-38.91
183.262	10.24
183.482	53.25
183.701	55.3
183.921	49.15
184.141	26.62
184.361	81.92
184.58	24.58
184.8	18.43
185.02	26.62
185.239	67.58
185.459	2.05
185.679	-63.49
185.898	-59.39
186.118	-0
186.338	40.96
186.557	26.62
186.777	2.05
186.997	67.58
187.216	10.24
187.436	51.2
187.655	47.1
187.875	18.43
188.095	-22.53
188.314	47.1
188.534	124.93
188.753	-10.24
188.973	108.54
189.192	57.34
189.412	26.62
189.631	22.53
189.851	38.91
190.07	61.44
190.29	49.15
190.509	51.2
190.729	-2.05
190.948	75.77
191.168	206.84
191.387	88.06
191.607	2.05
191.826	59.39
192.045	8.19
192.265	30.72
192.484	34.82
192.704	34.82
192.923	-43.01
193.142	139.26
193.362	34.82
193.581	133.12
193.8	49.15
194.02	108.54
194.239	-6.14
194.458	75.77
194.678	43.01
194.897	26.62
195.116	26.62
195.335	26.62
195.555	43.01
195.774	-28.67
195.993	-45.06
196.212	45.06
196.432	32.77
196.651	22.53
196.87	34.82
197.089	135.17
197.308	139.26
197.528	90.11
197.747	-55.3
197.966	2.05
198.185	61.44
198.404	26.62
198.623	100.35
198.842	67.58
199.062	14.34
199.281	8.19
199.5	32.77
199.719	43.01
199.938	57.34
200.157	100.35
200.376	14.34
200.595	18.43
200.814	61.44
201.033	96.25
201.252	65.53
201.471	32.77
201.69	12.29
201.909	59.39
202.128	36.86
202.347	-38.91
202.566	88.06
202.785	-6.14
203.004	-8.19
203.223	143.36
203.442	12.29
203.661	14.34
203.879	51.2
204.098	81.92
204.317	-22.53
204.536	83.97
204.755	63.49
204.974	73.73
205.193	81.92
205.411	53.25
205.63	40.96
205.849	45.06
206.068	14.34
206.287	69.63
206.505	14.34
206.724	14.34
206.943	10.24
207.162	51.2
207.381	-0
207.599	59.39
207.818	-22.53
208.037	-22.53
208.255	-14.34
208.474	20.48
208.693	-2.05
208.911	114.69
209.13	-0
209.349	38.91
209.567	49.15
209.786	26.62
210.005	47.1
210.223	-14.34
210.442	-28.67
210.661	38.91
210.879	34.82
211.098	55.3
211.316	79.87
211.535	59.39
211.753	96.25
211.972	32.77
212.191	49.15
212.409	-2.05
212.628	10.24
212.846	10.24
213.065	38.91
213.283	90.11
213.502	-22.53
213.72	40.96
213.938	51.2
214.157	47.1
214.375	65.53
214.594	26.62
214.812	104.45
215.031	-65.54
215.249	28.67
215.467	51.2
215.686	45.06
215.904	47.1
216.122	-38.91
216.341	110.59
216.559	12.29
216.778	65.53
216.996	38.91
217.214	45.06
217.432	-2.05
217.651	-18.43
217.869	32.77
218.087	2.05
218.306	22.53
218.524	40.96
218.742	22.53
218.96	14.34
219.179	45.06
219.397	2.05
219.615	106.49
219.833	61.44
220.051	34.82
220.27	24.58
220.488	92.16
220.706	90.11
220.924	-38.91
221.142	14.34
221.36	63.49
221.578	83.97
221.796	112.64
222.015	51.2
222.233	73.73
222.451	169.98
222.669	8.19
222.887	12.29
223.105	-30.72
223.323	10.24
223.541	-30.72
223.759	81.92
223.977	55.3
224.195	57.34
224.413	67.58
224.631	-2.05
224.849	53.25
225.067	79.87
225.285	16.38
225.503	-8.19
225.721	-14.34
225.939	18.43
226.157	24.58
226.375	135.17
226.592	-43.01
226.81	2.05
227.028	139.26
227.246	51.2
227.464	40.96
227.682	24.58
227.9	47.1
228.117	32.77
228.335	40.96
228.553	18.43
228.771	18.43
228.989	34.82
229.206	40.96
229.424	6.14
229.642	55.3
229.86	-4.1
230.077	116.73
230.295	6.14
230.513	83.97
230.731	88.06
230.948	26.62
231.166	55.3
231.384	2.05
231.601	-32.77
231.819	67.58
232.037	30.72
232.254	131.07
232.472	-81.92
232.689	59.39
232.907	163.84
233.125	-4.1
233.342	-4.1
233.56	61.44
233.777	67.58
233.995	47.1
234.213	67.58
234.43	36.86
234.648	18.43
234.865	32.77
235.083	40.96
235.3	-2.05
235.518	83.97
235.735	94.21
235.953	104.45
236.17	79.87
236.388	22.53
236.605	63.49
236.822	59.39
237.04	47.1
237.257	49.15
237.475	16.38
237.692	43.01
237.909	34.82
238.127	-6.14
238.344	108.54
238.562	8.19
238.779	-26.62
238.996	-49.15
239.214	38.91
239.431	40.96
239.648	49.15
239.865	55.3
240.083	122.88
240.3	81.92
240.517	-10.24
240.735	43.01
240.952	124.93
241.169	90.11
241.386	36.86
241.603	51.2
241.821	77.82
242.038	43.01
242.255	-63.49
242.472	65.53
242.689	112.64
242.907	45.06
243.124	90.11
243.341	63.49
243.558	-0
243.775	-10.24
243.992	47.1
244.209	79.87
244.426	124.93
244.643	43.01
244.86	-10.24
245.078	57.34
245.295	34.82
245.512	90.11
245.729	-10.24
245.946	100.35
246.163	-16.38
246.38	-6.14
246.597	-34.82
246.814	53.25
247.031	18.43
247.248	14.34
247.464	34.82
247.681	2.05
247.898	88.06
248.115	61.44
248.332	-8.19
248.549	110.59
248.766	114.69
248.983	102.4
249.2	57.34
249.417	-18.43
249.633	67.58
249.85	34.82
250.067	-12.29
250.284	18.43
250.501	51.2
250.717	108.54
250.934	-16.38
251.151	-30.72
251.368	59.39
251.585	55.3
251.801	-34.82
252.018	-14.34
252.235	38.91
252.451	10.24
252.668	2.05
252.885	57.34
253.102	34.82
253.318	40.96
253.535	-34.82
253.752	8.19
253.968	20.48
254.185	-18.43
254.401	26.62
254.618	38.91
254.835	59.39
255.051	40.96
255.268	43.01
255.484	-4.1
255.701	40.96
255.917	14.34
256.134	65.53
256.351	32.77
256.567	-43.01
256.784	24.58
257	-63.49
257.217	100.35
257.433	34.82
257.65	38.91
257.866	100.35
258.082	-47.1
258.299	-28.67
258.515	24.58
258.732	90.11
258.948	-45.06
259.165	-36.86
259.381	8.19
259.597	47.1
259.814	-34.82
260.03	10.24
260.246	96.25
260.463	26.62
260.679	79.87
260.895	57.34
261.112	59.39
261.328	-30.72
261.544	-2.05
261.761	59.39
261.977	10.24
262.193	26.62
262.409	55.3
262.626	73.73
262.842	94.21
263.058	14.34
263.274	83.97
263.49	69.63
263.707	6.14
263.923	83.97
264.139	18.43
264.355	-0
264.571	67.58
264.787	-24.58
265.004	90.11
265.22	14.34
265.436	49.15
265.652	-20.48
265.868	112.64
266.084	47.1
266.3	104.45
266.516	32.77
266.732	69.63
266.948	34.82
267.164	40.96
267.38	-4.1
267.596	55.3
267.812	98.3
268.028	92.16
268.244	4.1
268.46	2.05
268.676	-0
268.892	47.1
269.108	18.43
269.324	141.31
269.54	-47.1
269.756	28.67
269.972	-36.86
270.188	65.53
270.403	-47.1
270.619	-18.43
270.835	90.11
271.051	-14.34
271.267	4.1
271.483	8.19
271.698	51.2
271.914	57.34
272.13	49.15
272.346	32.77
272.562	18.43
272.777	73.73
272.993	90.11
273.209	-49.15
273.425	-0
273.64	-28.67
273.856	63.49
274.072	12.29
274.287	30.72
274.503	59.39
274.719	40.96
274.934	18.43
275.15	-2.05
275.366	18.43
275.581	14.34
275.797	22.53
276.012	65.53
276.228	10.24
276.444	67.58
276.659	83.97
276.875	6.14
277.09	20.48
277.306	10.24
277.521	20.48
277.737	49.15
277.952	161.79
278.168	30.72
278.383	45.06
278.599	30.72
278.814	81.92
279.03	65.53
279.245	104.45
279.461	26.62
279.676	40.96
279.892	8.19
280.107	-6.14
280.322	20.48
280.538	8.19
280.753	47.1
280.969	63.49
281.184	-40.96
281.399	53.25
281.615	28.67
281.83	-2.05
282.045	83.97
282.26	40.96
282.476	67.58
282.691	22.53
282.906	49.15
283.122	12.29
283.337	26.62
283.552	55.3
283.767	32.77
283.983	108.54
284.198	59.39
284.413	18.43
284.628	12.29
284.843	26.62
285.058	12.29
285.274	53.25
285.489	12.29
285.704	34.82
285.919	-69.63
286.134	59.39
286.349	55.3
286.564	8.19
286.779	55.3
286.995	100.35
287.21	-71.68
287.425	47.1
287.64	12.29
287.855	22.53
288.07	-61.44
288.285	38.91
288.5	92.16
288.715	20.48
288.93	59.39
289.145	-10.24
289.36	112.64
289.575	96.25
289.79	10.24
290.004	-2.05
290.219	96.25
290.434	-34.82
290.649	-38.91
290.864	-10.24
291.079	20.48
291.294	53.25
291.509	51.2
291.724	-0
291.938	-26.62
292.153	67.58
292.368	-71.68
292.583	55.3
292.798	67.58
293.012	2.05
293.227	14.34
293.442	8.19
293.657	108.54
293.871	12.29
294.086	92.16
294.301	67.58
294.516	55.3
294.73	79.87
294.945	49.15
295.16	73.73
295.374	43.01
295.589	90.11
295.804	-14.34
296.018	18.43
296.233	174.08
296.447	8.19
296.662	47.1
296.877	10.24
297.091	73.73
297.306	40.96
297.52	73.73
297.735	126.97
297.949	79.87
298.164	67.58
298.378	51.2
298.593	55.3
298.807	-30.72
299.022	104.45
299.236	77.82
299.451	6.14
299.665	12.29
299.88	57.34
300.094	92.16
300.309	63.49
300.523	-0
300.737	26.62
300.952	57.34
301.166	24.58
301.381	-14.34
301.595	-6.14
301.809	6.14
302.024	14.34
302.238	-18.43
302.452	92.16
302.667	120.83
302.881	34.82
303.095	49.15
303.309	-30.72
303.524	16.38
303.738	-6.14
303.952	24.58
304.166	61.44
304.381	-6.14
304.595	67.58
304.809	-10.24
305.023	34.82
305.237	-6.14
305.452	10.24
305.666	88.06
305.88	43.01
306.094	122.88
306.308	49.15
306.522	137.21
306.736	26.62
306.95	108.54
307.164	26.62
307.379	49.15
307.593	18.43
307.807	73.73
308.021	57.34
308.235	83.97
308.449	12.29
308.663	79.87
308.877	155.65
309.091	81.92
309.305	34.82
309.519	59.39
309.733	49.15
309.947	-57.34
310.161	49.15
310.374	83.97
310.588	53.25
310.802	-22.53
311.016	38.91
311.23	24.58
311.444	108.54
311.658	-55.3
311.872	-6.14
312.085	45.06
312.299	53.25
312.513	92.16
312.727	124.93
312.941	-12.29
313.154	90.11
313.368	-30.72
313.582	81.92
313.796	143.36
314.009	40.96
314.223	-22.53
314.437	51.2
314.651	67.58
314.864	4.1
315.078	34.82
315.292	51.2
315.505	32.77
315.719	28.67
315.933	49.15
316.146	12.29
316.36	26.62
316.573	51.2
316.787	174.08
317.001	57.34
317.214	73.73
317.428	2.05
317.641	-20.48
317.855	94.21
318.068	22.53
318.282	59.39
318.495	149.5
318.709	108.54
318.922	51.2
319.136	96.25
319.349	98.3
319.563	28.67
319.776	59.39
319.99	-34.82
320.203	59.39
320.417	67.58
320.63	18.43
320.843	98.3
321.057	-2.05
321.27	75.77
321.483	112.64
321.697	67.58
321.91	-12.29
322.124	92.16
322.337	18.43
322.55	-22.53
322.763	-8.19
322.977	-6.14
323.19	38.91
323.403	69.63
323.617	88.06
323.83	45.06
324.043	22.53
324.256	10.24
324.469	10.24
324.683	26.62
324.896	-16.38
325.109	-2.05
325.322	18.43
325.535	55.3
325.748	114.69
325.962	-22.53
326.175	18.43
326.388	126.97
326.601	108.54
326.814	24.58
327.027	38.91
327.24	116.73
327.453	24.58
327.666	30.72
327.879	22.53
328.092	69.63
328.305	34.82
328.518	49.15
328.731	-8.19
328.944	2.05
329.157	53.25
329.37	43.01
329.583	116.73
329.796	108.54
330.009	34.82
330.222	83.97
330.435	45.06
330.648	40.96
330.861	-14.34
331.073	57.34
331.286	59.39
331.499	73.73
331.712	-14.34
331.925	75.77
332.138	75.77
332.35	83.97
332.563	-47.1
332.776	96.25
332.989	30.72
333.202	47.1
333.414	-0
333.627	43.01
333.84	34.82
334.053	6.14
334.265	129.02
334.478	4.1
334.691	34.82
334.903	55.3
335.116	34.82
335.329	43.01
335.541	75.77
335.754	86.01
335.966	36.86
336.179	40.96
336.392	77.82
336.604	47.1
336.817	59.39
337.029	51.2
337.242	4.1
337.454	100.35
337.667	2.05
337.88	88.06
338.092	108.54
338.305	51.2
338.517	51.2
338.729	79.87
338.942	49.15
339.154	-38.91
339.367	51.2
339.579	131.07
339.792	-6.14
340.004	43.01
340.217	26.62
340.429	59.39
340.641	-0
340.854	-0
341.066	-10.24
341.278	83.97
341.491	83.97
341.703	73.73
341.915	26.62
342.128	34.82
342.34	-22.53
342.552	75.77
342.764	90.11
342.977	18.43
343.189	57.34
343.401	71.68
343.613	43.01
343.826	10.24
344.038	26.62
344.25	43.01
344.462	2.05
344.674	155.65
344.886	32.77
345.099	92.16
345.311	59.39
345.523	4.1
345.735	-16.38
345.947	147.45
346.159	90.11
346.371	14.34
346.583	100.35
346.795	143.36
347.007	73.73
347.219	8.19
347.431	67.58
347.643	139.26
347.855	4.1
348.067	67.58
348.279	-53.25
348.491	34.82
348.703	73.73
348.915	10.24
349.127	-32.77
349.339	110.59
349.551	16.38
349.763	47.1
349.975	26.62
350.187	108.54
350.399	34.82
350.61	106.49
350.822	57.34
351.034	57.34
351.246	69.63
351.458	88.06
351.669	71.68
351.881	102.4
352.093	18.43
352.305	114.69
352.517	92.16
352.728	4.1
352.94	59.39
353.152	28.67
353.363	24.58
353.575	26.62
353.787	67.58
353.999	63.49
354.21	96.25
354.422	43.01
354.633	10.24
354.845	53.25
355.057	12.29
355.268	47.1
355.48	57.34
355.692	88.06
355.903	30.72
356.115	59.39
356.326	34.82
356.538	94.21
356.749	100.35
356.961	100.35
357.172	67.58
357.384	-4.1
357.595	133.12
357.807	14.34
358.018	-28.67
358.23	-30.72
358.441	204.8
358.653	26.62
358.864	-4.1
359.075	-34.82
359.287	18.43
359.498	90.11
359.709	26.62
359.921	34.82
360.132	59.39
360.344	18.43
360.555	43.01
360.766	34.82
360.977	43.01
361.189	55.3
361.4	24.58
361.611	90.11
361.823	73.73
362.034	67.58
362.245	-0
362.456	22.53
362.667	67.58
362.879	-43.01
363.09	32.77
363.301	45.06
363.512	124.93
363.723	47.1
363.935	43.01
364.146	92.16
364.357	-38.91
364.568	81.92
364.779	43.01
364.99	133.12
365.201	45.06
365.412	157.69
365.623	-43.01
365.834	-26.62
366.045	49.15
366.256	110.59
366.467	43.01
366.678	30.72
366.889	63.49
367.1	26.62
367.311	92.16
367.522	-4.1
367.733	36.86
367.944	40.96
368.155	10.24
368.366	45.06
368.577	57.34
368.788	155.65
368.999	-0
369.209	92.16
369.42	57.34
369.631	165.89
369.842	104.45
370.053	53.25
370.264	83.97
370.474	-59.39
370.685	30.72
370.896	-40.96
371.107	96.25
371.317	20.48
371.528	34.82
371.739	94.21
371.95	59.39
372.16	96.25
372.371	51.2
372.582	47.1
372.792	69.63
373.003	57.34
373.214	100.35
373.424	34.82
373.635	16.38
373.846	47.1
374.056	53.25
374.267	69.63
374.477	51.2
374.688	81.92
374.898	67.58
375.109	67.58
375.319	104.45
375.53	30.72
375.74	49.15
375.951	34.82
376.161	4.1
376.372	120.83
376.582	59.39
376.793	75.77
377.003	16.38
377.214	20.48
377.424	18.43
377.635	-0
377.845	12.29
378.055	59.39
378.266	-38.91
378.476	106.49
378.686	79.87
378.897	2.05
379.107	67.58
379.317	145.41
379.528	57.34
379.738	81.92
379.948	30.72
380.158	34.82
380.369	26.62
380.579	106.49
380.789	-8.19
380.999	32.77
381.21	112.64
381.42	92.16
381.63	49.15
381.84	90.11
382.05	36.86
382.261	16.38
382.471	53.25
382.681	-10.24
382.891	75.77
383.101	59.39
383.311	40.96
383.521	71.68
383.731	90.11
383.941	92.16
384.151	-2.05
384.361	73.73
384.571	92.16
384.781	157.69
384.991	126.97
385.201	163.84
385.411	92.16
385.621	16.38
385.831	155.65
386.041	86.01
386.251	100.35
386.461	86.01
386.671	34.82
386.881	112.64
387.091	67.58
387.301	96.25
387.511	26.62
387.72	69.63
387.93	120.83
388.14	71.68
388.35	14.34
388.56	34.82
388.769	61.44
388.979	59.39
389.189	43.01
389.399	-0
389.609	49.15
389.818	133.12
390.028	63.49
390.238	100.35
390.447	38.91
390.657	149.5
390.867	63.49
391.076	-6.14
391.286	75.77
391.496	61.44
391.705	18.43
391.915	100.35
392.125	147.45
392.334	83.97
392.544	141.31
392.753	32.77
392.963	30.72
393.172	51.2
393.382	122.88
393.591	65.53
393.801	75.77
394.01	114.69
394.22	59.39
394.429	32.77
394.639	65.53
394.848	-0
395.058	67.58
395.267	28.67
395.477	-12.29
395.686	118.78
395.895	153.6
396.105	180.22
396.314	49.15
396.524	92.16
396.733	133.12
396.942	67.58
397.152	108.54
397.361	96.25
397.57	63.49
397.78	147.45
397.989	108.54
398.198	176.13
398.407	102.4
398.617	43.01
398.826	83.97
399.035	65.53
399.244	90.11
399.453	104.45
399.663	141.31
399.872	178.17
400.081	90.11
400.29	118.78
400.499	45.06
400.708	116.73
400.917	102.4
401.127	137.21
401.336	81.92
401.545	149.5
401.754	190.46
401.963	133.12
402.172	71.68
402.381	59.39
402.59	88.06
402.799	141.31
403.008	198.65
403.217	155.65
403.426	149.5
403.635	118.78
403.844	96.25
404.053	153.6
404.262	149.5
404.471	178.17
404.68	206.84
404.888	139.26
405.097	198.65
405.306	161.79
405.515	90.11
405.724	59.39
405.933	221.18
406.142	174.08
406.35	212.99
406.559	149.5
406.768	237.56
406.977	253.95
407.185	133.12
407.394	221.18
407.603	176.13
407.812	210.94
408.02	133.12
408.229	190.46
408.438	165.89
408.646	235.52
408.855	245.76
409.064	233.47
409.272	202.75
409.481	323.58
409.69	256
409.898	272.38
410.107	253.95
410.315	296.96
410.524	307.2
410.733	217.08
410.941	266.24
411.15	339.96
411.358	452.6
411.567	413.69
411.775	364.54
411.984	374.78
412.192	376.83
412.401	385.02
412.609	501.75
412.818	419.83
413.026	538.62
413.234	518.14
413.443	477.18
413.651	593.91
413.86	575.48
414.068	540.66
414.276	567.29
414.485	591.86
414.693	544.76
414.901	667.64
415.11	628.73
415.318	598.01
415.526	593.91
415.734	718.84
415.943	776.18
416.151	792.56
416.359	794.61
416.567	749.56
416.776	827.38
416.984	858.1
417.192	909.3
417.4	970.74
417.608	894.96
417.817	929.78
418.025	1097.71
418.233	1118.19
418.441	999.41
418.649	1157.1
418.857	1230.83
419.065	1216.49
419.273	1093.62
419.481	1150.96
419.689	1239.02
419.897	1361.9
420.105	1400.81
420.313	1470.44
420.521	1482.73
420.729	1554.41
420.937	1535.98
421.145	1683.43
421.353	1554.41
421.561	1728.49
421.769	1851.36
421.977	1824.74
422.185	1853.41
422.393	1968.1
422.601	2082.78
422.809	2115.55
423.017	2127.84
423.224	2230.24
423.432	2351.07
423.64	2156.51
423.848	2529.24
424.056	2398.17
424.263	2662.36
424.471	2545.63
424.679	2672.6
424.887	2848.72
425.094	2897.88
425.302	2959.31
425.51	2981.84
425.718	3139.54
425.925	3082.19
426.133	3112.91
426.341	3352.52
426.548	3504.07
426.756	3522.51
426.964	3618.76
427.171	3811.27
427.379	3985.35
427.586	4003.78
427.794	4104.13
428.001	4323.26
428.209	4618.17
428.417	4616.12
428.624	4720.57
428.832	4720.57
429.039	4685.75
429.247	4802.49
429.454	5281.71
429.662	5504.94
429.869	5126.07
430.076	5429.17
430.284	5203.89
430.491	5650.35
430.699	5900.2
430.906	5963.68
431.114	5863.33
431.321	6248.35
431.528	6246.3
431.736	6645.66
431.943	7006.1
432.15	6725.53
432.358	6899.61
432.565	7339.92
432.772	7196.56
432.979	7462.8
433.187	7876.49
433.394	7876.49
433.601	8357.76
433.808	8509.31
434.016	8355.71
434.223	8497.02
434.43	9158.52
434.637	8877.94
434.844	9596.78
435.052	9676.65
435.259	9799.53
435.466	9738.09
435.673	9758.57
435.88	10346.34
436.087	10735.45
436.294	10858.33
436.501	10448.74
436.708	10788.7
436.915	11286.36
437.122	11753.29
437.329	11571.02
437.537	12369.73
437.743	12451.65
437.95	12009.29
438.157	12822.33
438.364	13199.16
438.571	13199.16
438.778	13246.26
438.985	14407.46
439.192	13932.33
439.399	14501.67
439.606	14055.21
439.813	14978.84
440.02	15646.48
440.227	15488.79
440.433	15320.85
440.64	15898.38
440.847	15546.13
441.054	16398.09
441.261	17237.75
441.467	16983.8
441.674	17250.04
441.881	17743.6
442.088	17778.42
442.294	17807.09
442.501	18169.58
442.708	18757.35
442.914	19207.9
443.121	20066
443.328	19490.52
443.534	20917.95
443.741	20188.88
443.948	20309.71
444.154	21669.56
444.361	21534.39
444.568	21601.97
444.774	21380.79
444.981	21665.46
445.187	22384.3
445.394	23060.13
445.6	22847.14
445.807	25337.47
446.013	24143.5
446.22	24772.23
446.426	25640.57
446.633	25800.31
446.839	26807.91
447.046	25728.63
447.252	26926.69
447.459	26818.15
447.665	26812.01
447.871	28024.4
448.078	29251.14
448.284	28085.84
448.491	28538.44
448.697	29650.49
448.903	30070.33
449.11	30182.96
449.316	29853.24
449.522	30565.93
449.728	31194.66
449.935	31393.31
450.141	31323.68
450.347	32527.89
450.553	31053.35
450.76	31321.63
450.966	32509.46
451.172	32136.73
451.378	32583.18
451.584	31942.17
451.791	33175.05
451.997	32906.76
452.203	33578.5
452.409	33467.91
452.615	33521.15
452.821	32165.4
453.027	31919.64
453.233	33213.96
453.44	32079.38
453.646	32292.37
453.852	32478.74
454.058	33170.95
454.264	31827.48
454.47	32865.8
454.676	31809.05
454.882	33107.46
455.088	30191.16
455.294	30412.34
455.5	30879.27
455.705	31467.04
455.911	30180.92
456.117	29580.86
456.323	28776.01
456.529	27410.01
456.735	28761.67
456.941	27985.49
457.147	27453.02
457.352	26646.12
457.558	26232.43
457.764	26390.13
457.97	25992.82
458.176	25087.62
458.381	25380.48
458.587	24333.96
458.793	24239.76
458.999	22750.88
459.204	24233.61
459.41	23647.9
459.616	22109.87
459.821	22226.6
460.027	22097.58
460.233	21796.53
460.438	20801.22
460.644	20700.87
460.85	20057.81
461.055	19599.06
461.261	19259.1
461.466	18067.18
461.672	17686.26
461.878	18763.49
462.083	17665.78
462.289	17231.61
462.494	16768.77
462.7	16144.14
462.905	15814.41
463.111	16535.3
463.316	16498.44
463.522	15957.77
463.727	16219.91
463.932	16011.02
464.138	15982.35
464.343	15908.62
464.549	15523.6
464.754	16062.22
464.959	15709.97
465.165	15929.1
465.37	14835.49
465.575	14649.12
465.781	15142.68
465.986	15249.18
466.191	14696.22
466.397	14497.57
466.602	13731.63
466.807	14241.57
467.012	14405.41
467.218	14212.9
467.423	14036.78
467.628	14069.55
467.833	14495.52
468.038	14264.1
468.244	13825.84
468.449	14348.07
468.654	13930.28
468.859	13616.94
469.064	13788.97
469.269	12928.83
469.474	13158.2
469.679	13643.57
469.885	12982.07
470.09	13301.56
470.295	13317.94
470.5	13039.42
470.705	13055.8
470.91	12711.74
471.115	12760.89
471.32	12846.91
471.525	12609.34
471.73	12535.62
471.935	12169.03
472.139	11880.27
472.344	12072.78
472.549	11964.23
472.754	11796.3
472.959	11698
473.164	11552.59
473.369	11106.13
473.574	11691.85
473.778	11452.24
473.983	11136.85
474.188	11204.44
474.393	10825.56
474.598	10813.27
474.802	10616.67
475.007	10671.97
475.212	10692.44
475.417	10282.85
475.621	10561.37
475.826	10127.21
476.031	10188.64
476.235	9860.97
476.44	10063.72
476.645	9797.48
476.849	9754.48
477.054	9779.05
477.259	9680.75
477.463	9494.38
477.668	9533.29
477.872	9447.28
478.077	9183.09
478.282	9109.36
478.486	9097.08
478.691	9088.89
478.895	9183.09
479.1	8951.67
479.304	8918.9
479.509	8697.72
479.713	8980.34
479.918	8515.45
480.122	8497.02
480.326	8642.43
480.531	8675.2
480.735	8558.46
480.94	8488.83
481.144	8746.87
481.348	8175.49
481.553	8374.14
481.757	8052.61
481.961	8419.2
482.166	8443.78
482.37	8355.71
482.574	7948.17
482.778	8243.07
482.983	8480.64
483.187	8210.31
483.391	8292.23
483.595	8191.87
483.8	8284.03
484.004	8331.14
484.208	8306.56
484.412	8228.74
484.616	8247.17
484.821	8318.85
485.025	8214.4
485.229	8224.64
485.433	8150.92
485.637	8144.77
485.841	8085.38
486.045	8202.11
486.249	8234.88
486.453	8257.41
486.657	8378.24
486.861	8302.47
487.065	8058.76
487.269	8165.25
487.473	8046.47
487.677	8337.28
487.881	8472.45
488.085	8298.37
488.289	8357.76
488.493	8220.55
488.697	8218.5
488.901	8292.23
489.105	8322.94
489.309	8300.42
489.512	8302.47
489.716	8374.14
489.92	8281.99
490.124	8142.72
490.328	8355.71
490.531	8298.37
490.735	8331.14
490.939	8386.43
491.143	8429.44
491.346	8435.58
491.55	8562.56
491.754	8560.51
491.958	8548.22
492.161	8687.48
492.365	8738.68
492.569	8560.51
492.772	8724.35
492.976	8832.89
493.18	8806.27
493.383	8753.02
493.587	8789.88
493.79	8974.2
493.994	8998.77
494.197	8996.73
494.401	9066.36
494.605	8849.27
494.808	9398.13
495.012	9215.86
495.215	9283.44
495.419	9611.12
495.622	9396.08
495.825	9742.19
496.029	9398.13
496.232	9969.51
496.436	9871.21
496.639	10004.33
496.843	9807.72
497.046	10043.24
497.249	10198.88
497.453	10272.61
497.656	10510.18
497.859	10477.41
498.063	10372.96
498.266	10764.12
498.469	10723.16
498.673	10694.49
498.876	10907.48
499.079	10923.87
499.282	11171.67
499.485	11474.77
499.689	11188.05
499.892	11698
500.095	11548.5
500.298	12042.06
500.501	11624.27
500.705	12064.58
500.908	12388.16
501.111	12339.01
501.314	12365.64
501.517	12777.28
501.72	12631.87
501.923	12711.74
502.126	12916.54
502.329	13180.73
502.532	13168.44
502.735	13242.17
502.938	13596.46
503.141	13627.18
503.344	13899.56
503.547	13979.43
503.75	14145.32
503.953	14421.8
504.156	14528.29
504.359	14788.38
504.562	14720.8
504.765	14905.12
504.968	15048.47
505.17	15193.88
505.373	15488.79
505.576	15759.12
505.779	15894.29
505.982	15998.73
506.185	16191.24
506.387	16377.61
506.59	16320.26
506.793	16680.71
506.996	16572.16
507.198	17383.16
507.401	17174.27
507.604	17331.96
507.807	17663.73
508.009	17997.55
508.212	18001.65
508.415	18345.7
508.617	18523.88
508.82	18591.46
509.022	18657
509.225	19013.34
509.428	19267.29
509.63	19502.81
509.833	19252.95
510.035	20270.79
510.238	19957.46
510.44	20186.83
510.643	20506.31
510.845	20635.33
511.048	20846.27
511.25	21034.69
511.453	20909.76
511.655	21946.03
511.858	21595.83
512.06	21915.31
512.262	22257.32
512.465	22023.86
512.667	22599.34
512.87	23027.36
513.072	23219.87
513.274	23492.25
513.477	23903.89
513.679	24182.42
513.881	24393.36
514.084	24770.18
514.286	24549
514.488	25028.23
514.69	25636.47
514.893	25663.1
515.095	25773.69
515.297	26193.52
515.499	26451.56
515.701	26484.33
515.904	27115.11
516.106	27334.24
516.308	27774.55
516.51	28223.06
516.712	28077.65
516.914	28540.49
517.116	29099.59
517.318	28874.31
517.52	29591.1
517.722	29695.55
517.925	30201.4
518.127	30342.7
518.329	30610.99
518.531	31016.49
518.733	31702.56
518.935	31813.15
519.136	32163.35
519.338	32345.62
519.54	32787.98
519.742	33005.06
519.944	33371.65
520.146	34076.15
520.348	34092.54
520.55	34516.47
520.752	34745.84
520.954	35118.57
521.155	35438.05
521.357	35724.77
521.559	36189.66
521.761	36435.41
521.963	36748.75
522.164	37158.34
522.366	36830.67
522.568	37825.98
522.77	37891.52
522.971	39095.72
523.173	39042.48
523.375	39321
523.576	39411.11
523.778	39544.23
523.98	40195.48
524.181	40258.97
524.383	40564.12
524.584	41418.12
524.786	41348.49
524.988	41465.22
525.189	42147.2
525.391	42532.21
525.592	42751.35
525.794	42960.24
525.995	42997.1
526.197	43537.77
526.398	43623.78
526.6	44027.23
526.801	44467.55
527.003	44344.67
527.204	44760.4
527.406	45131.09
527.607	45321.55
527.808	45784.39
528.01	45223.25
528.211	45698.37
528.412	47009.07
528.614	46509.37
528.815	46748.98
529.016	47344.94
529.218	46814.52
529.419	47213.87
529.62	47623.47
529.822	47381.8
530.023	47783.21
530.224	48035.11
530.425	48342.3
530.626	48125.22
530.828	47828.26
531.029	49020.18
531.23	48485.66
531.431	49016.08
531.632	49003.8
531.833	49241.36
532.035	49186.07
532.236	49220.88
532.437	49671.43
532.638	49401.1
532.839	50113.8
533.04	49992.97
533.241	49321.23
533.442	50390.27
533.643	50132.23
533.844	50099.46
534.045	50277.63
534.246	49849.61
534.447	50711.8
534.648	50564.35
534.849	50482.43
535.05	50279.68
535.251	50959.61
535.451	50582.78
535.652	51041.53
535.853	50906.36
536.054	51277.04
536.255	51477.74
536.456	50941.17
536.657	51743.98
536.857	50472.19
537.058	50889.98
537.259	51522.8
537.46	51057.91
537.66	51045.62
537.861	51215.6
538.062	51666.16
538.263	51768.55
538.463	51121.4
538.664	51148.02
538.865	51592.43
539.065	51379.44
539.266	50902.26
539.466	51776.75
539.667	51186.93
539.868	51449.07
540.068	51010.81
540.269	51375.34
540.469	51318
540.67	51342.58
540.87	50963.7
541.071	51231.99
541.271	51426.54
541.472	51365.1
541.672	51209.46
541.873	51301.62
542.073	51055.86
542.274	51873
542.474	51041.53
542.675	50810.1
542.875	51875.05
543.075	51518.7
543.276	50902.26
543.476	52059.37
543.676	51342.58
543.877	51455.21
544.077	51231.99
544.277	51375.34
544.478	51361.01
544.678	51637.48
544.878	51543.28
545.078	51412.21
545.279	51039.48
545.479	51256.56
545.679	51973.35
545.879	50826.49
546.079	50789.62
546.28	51191.03
546.48	51391.73
546.68	51703.02
546.88	51399.92
547.08	51784.94
547.28	51451.12
547.48	50992.37
547.68	51068.15
547.88	50949.37
548.081	51350.77
548.281	51363.06
548.481	51416.3
548.681	51350.77
548.881	51041.53
549.081	51145.97
549.28	51115.25
549.48	51469.55
549.68	51225.84
549.88	51737.83
550.08	51107.06
550.28	51490.03
550.48	51168.5
550.68	51555.57
550.88	51426.54
551.08	51250.42
551.279	51272.95
551.479	50982.13
551.679	51309.81
551.879	51172.6
552.079	51500.27
552.278	51033.33
552.478	51137.78
552.678	51162.36
552.878	51399.92
553.077	51391.73
553.277	50402.56
553.477	51320.05
553.676	51014.9
553.876	51107.06
554.076	50781.43
554.275	50818.3
554.475	50156.8
554.674	50623.74
554.874	50801.91
555.074	50631.93
555.273	50808.06
555.473	50740.47
555.672	50427.13
555.872	50234.63
556.071	50601.21
556.271	50476.29
556.47	50306.3
556.67	49806.6
556.869	49702.15
557.068	50035.97
557.268	49941.77
557.467	49960.2
557.667	49739.02
557.866	49863.94
558.065	49550.6
558.265	49523.98
558.464	49417.49
558.663	49747.21
558.863	49102.1
559.062	49485.07
559.261	48413.98
559.461	49360.14
559.66	48518.43
559.859	48430.36
560.058	48385.31
560.258	48500
560.457	47992.1
560.656	48710.94
560.855	47869.22
561.054	48002.34
561.253	47635.75
561.453	47543.59
561.652	48299.29
561.851	47664.42
562.05	47699.24
562.249	47041.84
562.448	47539.5
562.647	47189.3
562.846	47105.33
563.045	46900.53
563.244	46370.11
563.443	46927.16
563.642	46116.16
563.841	46335.29
564.04	46179.65
564.239	46429.5
564.438	45894.98
564.637	46269.76
564.836	45686.09
565.035	45524.3
565.234	45505.87
565.432	45102.42
565.631	44903.76
565.83	44883.28
566.029	44701.01
566.228	44512.6
566.427	44359
566.625	44615
566.824	43726.18
567.023	44334.43
567.222	43289.96
567.42	43644.26
567.619	43335.02
567.818	43183.47
568.016	42823.03
568.215	43244.91
568.414	42499.45
568.612	43105.65
568.811	42521.98
569.01	42395
569.208	41475.46
569.407	42136.96
569.605	41635.2
569.804	41905.54
570.002	41274.76
570.201	41500.04
570.4	40865.17
570.598	40603.03
570.797	40435.09
570.995	40584.6
571.193	40435.09
571.392	40713.62
571.59	39837.09
571.789	39939.49
571.987	39665.06
572.186	39685.54
572.384	39521.7
572.582	39656.87
572.781	39224.75
572.979	38800.82
573.177	39277.99
573.376	39407.01
573.574	38536.63
573.772	38950.32
573.971	38374.84
574.169	38036.92
574.367	37733.82
574.565	38110.65
574.763	37682.62
574.962	37416.39
575.16	37195.21
575.358	37690.82
575.556	36990.41
575.754	37463.49
575.952	37047.75
576.151	36845.01
576.349	37029.32
576.547	36306.39
576.745	36339.16
576.943	36507.09
577.141	35923.42
577.339	35991
577.537	36031.96
577.735	35739.1
577.933	35747.29
578.131	35798.49
578.329	35474.91
578.527	35065.32
578.725	35180.01
578.923	35376.61
579.121	34850.28
579.319	34758.13
579.516	34913.77
579.714	34430.45
579.912	34469.36
580.11	33992.19
580.308	34434.55
580.506	33781.24
580.704	33390.08
580.901	33840.64
581.099	34139.64
581.297	33615.36
581.495	33558.02
581.692	33490.43
581.89	33156.61
582.088	33295.88
582.285	32615.95
582.483	32923.15
582.681	32884.23
582.878	32685.58
583.076	32445.97
583.274	32792.08
583.471	32015.9
583.669	32040.47
583.866	31985.18
584.064	32112.15
584.262	31594.01
584.459	32189.97
584.657	31458.85
584.854	31993.37
585.052	31389.22
585.249	31417.89
585.447	31409.7
585.644	31012.39
585.841	30973.48
586.039	31274.53
586.236	30428.72
586.434	30756.39
586.631	30375.47
586.828	30869.03
587.026	30615.08
587.223	30613.04
587.42	30088.76
587.618	30185.01
587.815	30215.73
588.012	29787.71
588.21	29562.43
588.407	30045.75
588.604	29632.06
588.801	29607.48
588.999	29310.53
589.196	29492.8
589.393	29421.12
589.59	29038.15
589.787	29144.64
589.984	28884.55
590.182	28872.26
590.379	28765.77
590.576	28538.44
590.773	28542.54
590.97	28227.15
591.167	28282.45
591.364	28145.23
591.561	28419.66
591.758	27967.06
591.955	27895.38
592.152	27676.25
592.349	27833.94
592.546	27899.48
592.743	27766.36
592.94	27502.17
593.137	27334.24
593.334	27555.42
593.531	27266.66
593.727	27536.99
593.924	27192.93
594.121	27170.4
594.318	27270.75
594.515	26834.53
594.712	27031.14
594.908	26707.56
595.105	26736.23
595.302	26275.44
595.499	26656.36
595.696	26320.49
595.892	26066.55
596.089	26357.36
596.286	26271.34
596.482	26150.51
596.679	26033.78
596.876	25542.27
597.072	25785.97
597.269	25593.47
597.466	25523.83
597.662	25476.73
597.859	25374.33
598.055	25759.35
598.252	25429.63
598.448	25388.67
598.645	24964.74
598.841	24786.57
599.038	24874.63
599.234	24815.24
599.431	24850.05
599.627	24444.56
599.824	24866.44
600.02	24366.73
600.217	24665.74
600.413	24290.96
600.609	24360.59
600.806	24415.88
601.002	24323.72
601.198	23785.11
601.395	23832.21
601.591	23856.79
601.787	23797.4
601.984	23746.2
602.18	24098.45
602.376	23547.54
602.572	23697.05
602.769	23602.84
602.965	23365.28
603.161	23197.34
603.357	23080.61
603.553	23254.69
603.75	23090.85
603.946	22902.43
604.142	23105.18
604.338	22634.15
604.534	22937.25
604.73	22630.05
604.926	22814.37
605.122	22593.19
605.318	22658.73
605.514	22417.07
605.71	22060.72
605.906	22240.94
606.102	22261.42
606.298	22079.15
606.494	21898.93
606.69	21862.07
606.886	22050.48
607.082	21624.5
607.278	21956.27
607.474	21589.69
607.67	22038.19
607.866	21020.35
608.062	21669.56
608.257	21360.31
608.453	21526.2
608.649	21534.39
608.845	21319.35
609.041	21053.12
609.236	20950.72
609.432	20997.82
609.628	20897.47
609.824	20874.95
610.019	20948.67
610.215	20854.47
610.411	21229.24
610.606	20700.87
610.802	21034.69
610.998	20666.05
611.193	20541.13
611.389	20184.78
611.584	20575.94
611.78	20518.6
611.976	20438.73
612.171	20365
612.367	20260.55
612.562	20164.3
612.758	20049.61
612.953	19740.37
613.149	20221.64
613.344	19945.17
613.539	20258.51
613.735	19916.5
613.93	20127.44
614.126	19773.14
614.321	19599.06
614.517	19771.09
614.712	19822.29
614.907	19461.85
615.103	19594.97
615.298	19545.81
615.493	19506.9
615.688	19371.74
615.884	19560.15
616.079	19078.88
616.274	19367.64
616.47	19205.85
616.665	19236.57
616.86	18943.71
617.055	18996.96
617.25	19076.83
617.445	19130.08
617.641	18573.03
617.836	18974.43
618.031	18487.01
618.226	18876.13
618.421	18638.56
618.616	18966.24
618.811	18274.03
619.006	18697.95
619.201	18394.86
619.396	18450.15
619.591	18104.04
619.786	18138.86
619.981	17876.72
620.176	18120.43
620.371	17972.97
620.566	17837.81
620.761	17630.96
620.956	17630.96
621.151	17377.01
621.346	17645.3
621.541	17090.3
621.735	17465.08
621.93	17002.24
622.125	17223.42
622.32	16875.26
622.515	16987.9
622.709	16903.93
622.904	16869.12
623.099	16885.5
623.294	16817.92
623.488	16529.16
623.683	16502.53
623.878	16027.4
624.072	16437
624.267	16279.3
624.462	15861.52
624.656	15920.91
624.851	15900.43
625.046	15787.79
625.24	15990.54
625.435	15716.11
625.629	15599.38
625.824	15503.12
626.018	15449.88
626.213	15304.47
626.407	15423.25
626.602	15118.11
626.796	15226.65
626.991	15007.51
627.185	15195.93
627.38	14788.38
627.574	14702.37
627.768	14724.9
627.963	14645.02
628.157	14438.18
628.352	14647.07
628.546	14190.38
628.74	14343.97
628.935	14192.42
629.129	14204.71
629.323	14139.18
629.517	13979.43
629.712	14065.45
629.906	13901.61
630.1	13702.96
630.294	13809.45
630.489	13803.31
630.683	13473.59
630.877	13272.89
631.071	13428.53
631.265	13522.74
631.459	13276.98
631.653	13150.01
631.848	13221.69
632.042	13115.19
632.236	13027.13
632.43	12808
632.624	13111.1
632.818	12840.76
633.012	12699.45
633.206	12564.29
633.4	12894.01
633.594	12484.42
633.788	12615.49
633.982	12494.66
634.176	12476.23
634.369	12191.56
634.563	12162.89
634.757	12259.14
634.951	12293.96
635.145	11997
635.339	11968.33
635.533	11788.11
635.726	11890.51
635.92	11372.37
636.114	11816.78
636.308	11636.56
636.501	11628.37
636.695	11562.83
636.889	11577.17
637.083	11372.37
637.276	11337.56
637.47	11384.66
637.664	11237.2
637.857	11333.46
638.051	10940.25
638.244	11046.74
638.438	10905.43
638.632	10823.51
638.825	10776.41
639.019	10858.33
639.212	10745.69
639.406	10602.33
639.599	10700.64
639.793	10631.01
639.986	10461.02
640.18	10491.74
640.373	10405.73
640.567	10264.42
640.76	10213.22
640.954	10258.28
641.147	10092.39
641.34	9977.7
641.534	10028.9
641.727	9854.83
641.92	9899.88
642.114	9766.76
642.307	9789.29
642.5	9830.25
642.694	9680.75
642.887	9570.16
643.08	9553.77
643.273	9635.69
643.467	9455.47
643.66	9373.55
643.853	9183.09
644.046	9222
644.239	9135.99
644.432	9250.67
644.626	8877.94
644.819	8986.49
645.012	8894.33
645.205	8738.68
645.398	9025.4
645.591	8730.49
645.784	8689.53
645.977	8613.76
646.17	8877.94
646.363	8832.89
646.556	8468.35
646.749	8406.91
646.942	8451.97
647.135	8425.34
647.328	8505.21
647.521	8427.39
647.714	8216.45
647.907	8357.76
648.099	8179.59
648.292	8404.86
648.485	8126.34
648.678	8134.53
648.871	8005.51
649.064	7845.77
649.256	8175.49
649.449	7972.74
649.642	7825.29
649.835	7886.73
650.027	7901.06
650.22	7917.45
650.413	7784.33
650.605	7708.55
650.798	7620.49
650.991	7518.09
651.183	7774.09
651.376	7516.05
651.568	7540.62
651.761	7597.96
651.954	7511.95
652.146	7616.4
652.339	7518.09
652.531	7468.94
652.724	7491.47
652.916	7282.58
653.109	7235.47
653.301	7421.84
653.494	7276.43
653.686	6926.23
653.879	7167.89
654.071	7047.06
654.263	7171.99
654.456	7135.12
654.648	7120.79
654.84	6762.39
655.033	6926.23
655.225	7038.87
655.417	7018.39
655.61	6823.83
655.802	6717.34
655.994	6756.25
656.186	6834.07
656.379	6891.41
656.571	6741.91
656.763	6578.08
656.955	6606.75
657.148	6600.6
657.34	6533.02
657.532	6616.99
657.724	6461.34
657.916	6555.55
658.108	6457.25
658.3	6383.52
658.492	6455.2
658.684	6367.13
658.876	6191.01
659.068	6209.44
659.26	6043.56
659.452	6258.59
659.644	6195.11
659.836	6000.55
660.028	6016.93
660.22	6057.89
660.412	5951.4
660.604	5986.21
660.796	5935.01
660.988	5955.49
661.18	5971.88
661.372	5820.33
661.563	6035.36
661.755	5928.87
661.947	5859.24
662.139	5969.83
662.331	5869.48
662.522	5801.9
662.714	5810.09
662.906	5898.15
663.097	5775.27
663.289	5840.81
663.481	5707.69
663.673	5658.54
663.864	5650.35
664.056	5625.77
664.247	5636.01
664.439	5556.14
664.631	5670.83
664.822	5453.74
665.014	5644.2
665.205	5586.86
665.397	5574.57
665.588	5478.32
665.78	5539.76
665.971	5535.66
666.163	5580.71
666.354	5463.98
666.546	5402.54
666.737	5431.21
666.929	5466.03
667.12	5453.74
667.311	5416.88
667.503	5484.46
667.694	5380.01
667.885	5291.95
668.077	5398.45
668.268	5185.46
668.459	5314.48
668.651	5298.1
668.842	5144.5
669.033	5214.13
669.224	5418.93
669.416	5324.72
669.607	5351.34
669.798	5124.02
669.989	5304.24
670.18	5191.6
670.371	5164.98
670.563	5218.22
670.754	5152.69
670.945	5179.31
671.136	5066.67
671.327	5173.17
671.518	5160.88
671.709	5298.1
671.9	5216.18
672.091	5279.66
672.282	5103.54
672.473	5085.11
672.664	5207.98
672.855	5324.72
673.046	5189.55
673.237	5164.98
673.428	5261.23
673.619	5289.9
673.809	5210.03
674	5207.98
674.191	5220.27
674.382	5048.24
674.573	5136.31
674.764	5162.93
674.954	5179.31
675.145	5078.96
675.336	5121.97
675.527	5201.84
675.717	5328.81
675.908	5275.57
676.099	5060.53
676.289	5326.77
676.48	5121.97
676.671	5087.15
676.861	5253.04
677.052	5148.59
677.243	5250.99
677.433	5277.62
677.624	5359.53
677.814	5328.81
678.005	5349.29
678.195	5468.08
678.386	5261.23
678.576	5392.3
678.767	5406.64
678.957	5367.73
679.148	5314.48
679.338	5402.54
679.529	5396.4
679.719	5345.2
679.909	5337.01
680.1	5459.88
680.29	5408.69
680.481	5371.82
680.671	5560.24
680.861	5517.23
681.052	5578.67
681.242	5433.26
681.432	5455.79
681.622	5343.15
681.813	5466.03
682.003	5488.56
682.193	5449.64
682.383	5476.27
682.573	5441.45
682.764	5601.19
682.954	5488.56
683.144	5482.41
683.334	5504.94
683.524	5500.84
683.714	5554.09
683.904	5539.76
684.094	5681.07
684.284	5613.48
684.474	5691.31
684.664	5711.78
684.854	5572.52
685.044	5547.95
685.234	5388.21
685.424	5418.93
685.614	5603.24
685.804	5476.27
685.994	5547.95
686.184	5689.26
686.374	5590.95
686.564	5519.28
686.753	5517.23
686.943	5539.76
687.133	5412.78
687.323	5433.26
687.513	5375.92
687.702	5466.03
687.892	5439.4
688.082	5408.69
688.272	5525.42
688.461	5281.71
688.651	5463.98
688.841	5187.5
689.03	5427.12
689.22	5298.1
689.41	5402.54
689.599	5220.27
689.789	5332.91
689.979	5388.21
690.168	5320.62
690.358	5187.5
690.547	5128.11
690.737	5232.56
690.926	5240.75
691.116	5171.12
691.305	5255.09
691.495	5078.96
691.684	5113.78
691.874	5105.59
692.063	4913.08
692.252	5113.78
692.442	5027.76
692.631	4999.09
692.82	5001.14
693.01	5050.29
693.199	4933.56
693.388	4951.99
693.578	4841.4
693.767	5005.24
693.956	5048.24
694.146	4913.08
694.335	4782.01
694.524	5003.19
694.713	4923.32
694.902	4902.84
695.092	4970.42
695.281	4843.45
695.47	4900.79
695.659	4861.88
695.848	4966.32
696.037	4825.01
696.226	4917.17
696.415	4786.1
696.604	4831.16
696.793	4874.17
696.982	4841.4
697.171	5027.76
697.36	5007.28
697.549	4786.1
697.738	4810.68
697.927	4759.48
698.116	5097.39
698.305	4933.56
698.494	5005.24
698.683	4827.06
698.872	5019.57
699.061	4931.51
699.25	4990.9
699.438	5013.43
699.627	4884.41
699.816	5132.21
700.005	5023.67
700.193	4995
700.382	5142.45
700.571	4956.08
700.76	5134.26
700.948	5044.15
701.137	5066.67
701.326	5011.38
701.514	5035.96
701.703	5130.16
701.892	4949.94
702.08	5056.43
702.269	5064.63
702.457	5040.05
702.646	5179.31
702.834	5097.39
703.023	5060.53
703.212	5195.7
703.4	5195.7
703.589	5130.16
703.777	5085.11
703.965	4982.71
704.154	5234.61
704.342	5119.92
704.531	5169.07
704.719	5128.11
704.907	5156.79
705.096	5095.35
705.284	5093.3
705.472	5253.04
705.661	5095.35
705.849	5228.46
706.037	5224.37
706.226	5384.11
706.414	5283.76
706.602	5242.8
706.79	5353.39
706.979	5296.05
707.167	5255.09
707.355	5334.96
707.543	5455.79
707.731	5408.69
707.919	5273.52
708.107	5279.66
708.296	5273.52
708.484	5246.9
708.672	5396.4
708.86	5412.78
709.048	5427.12
709.236	5375.92
709.424	5609.39
709.612	5490.6
709.8	5506.99
709.988	5466.03
710.176	5496.75
710.364	5552.04
710.551	5535.66
710.739	5400.49
710.927	5564.33
711.115	5486.51
711.303	5650.35
711.491	5539.76
711.679	5439.4
711.866	5502.89
712.054	5568.43
712.242	5466.03
712.43	5615.53
712.617	5619.63
712.805	5668.78
712.993	5593
713.181	5531.56
713.368	5527.47
713.556	5660.59
713.744	5570.47
713.931	5924.77
714.119	5670.83
714.306	5736.36
714.494	5746.6
714.682	5836.71
714.869	5703.59
715.057	5877.67
715.244	5742.5
715.432	5842.85
715.619	5879.72
715.807	5892.01
715.994	5851.05
716.182	5816.23
716.369	5748.65
716.556	5783.46
716.744	5818.28
716.931	5853.09
717.119	5918.63
717.306	5965.73
717.493	5810.09
717.681	5904.29
717.868	5818.28
718.055	5994.4
718.242	5953.45
718.43	5742.5
718.617	6012.84
718.804	5945.25
718.991	5928.87
719.179	6035.36
719.366	5912.49
719.553	6014.88
719.74	5935.01
719.927	6002.6
720.114	5789.61
720.301	6010.79
720.488	5871.53
720.676	5943.21
720.863	6072.23
721.05	6213.54
721.237	5941.16
721.424	5935.01
721.611	5967.78
721.798	6004.64
721.985	6133.67
722.172	5855.14
722.358	6076.32
722.545	6250.4
722.732	5998.5
722.919	6258.59
723.106	6156.19
723.293	6061.99
723.48	6055.84
723.667	6055.84
723.853	6094.75
724.04	6064.04
724.227	6078.37
724.414	6094.75
724.6	5832.61
724.787	5998.5
724.974	6213.54
725.161	6141.86
725.347	5920.68
725.534	6236.06
725.72	6039.46
725.907	6119.33
726.094	6154.15
726.28	6240.16
726.467	6180.77
726.653	6191.01
726.84	6113.19
727.027	6172.58
727.213	5998.5
727.4	6121.38
727.586	6209.44
727.773	6201.25
727.959	6186.91
728.145	6266.78
728.332	5980.07
728.518	6236.06
728.705	6111.14
728.891	6008.74
729.077	6117.28
729.264	6205.35
729.45	6166.43
729.636	6248.35
729.823	6123.43
730.009	6197.15
730.195	6209.44
730.382	6086.56
730.568	6211.49
730.754	6119.33
730.94	6004.64
731.126	6162.34
731.313	6148
731.499	6014.88
731.685	6070.18
731.871	6215.59
732.057	6264.74
732.243	6111.14
732.429	6229.92
732.615	6322.08
732.801	6135.71
732.987	6268.83
733.173	6186.91
733.359	6008.74
733.545	6084.52
733.731	6121.38
733.917	6121.38
734.103	6158.24
734.289	6162.34
734.475	6072.23
734.661	6117.28
734.847	6209.44
735.033	6170.53
735.219	6191.01
735.404	5818.28
735.59	6094.75
735.776	5996.45
735.962	6166.43
736.148	6162.34
736.333	6201.25
736.519	5994.4
736.705	5941.16
736.89	5949.35
737.076	6035.36
737.262	5892.01
737.447	5947.3
737.633	5959.59
737.819	6039.46
738.004	6018.98
738.19	6092.71
738.375	5908.39
738.561	6137.76
738.747	5812.14
738.932	5980.07
739.118	5865.38
739.303	5900.2
739.489	5801.9
739.674	5842.85
739.859	5851.05
740.045	5781.42
740.23	5900.2
740.416	5744.55
740.601	5971.88
740.786	5750.7
740.972	5851.05
741.157	5871.53
741.342	5613.48
741.528	5687.21
741.713	5687.21
741.898	5629.87
742.084	5711.78
742.269	5580.71
742.454	5502.89
742.639	5504.94
742.824	5476.27
743.01	5588.91
743.195	5636.01
743.38	5547.95
743.565	5498.8
743.75	5541.8
743.935	5367.73
744.12	5472.17
744.305	5275.57
744.49	5341.1
744.675	5291.95
744.86	5304.24
745.045	5210.03
745.23	5386.16
745.415	5171.12
745.6	5195.7
745.785	5273.52
745.97	5191.6
746.155	5046.19
746.34	5187.5
746.525	5103.54
746.71	5093.3
746.895	4847.54
747.079	4951.99
747.264	4962.23
747.449	5005.24
747.634	4908.98
747.819	4886.45
748.003	4734.9
748.188	4751.29
748.373	4700.09
748.557	4777.91
748.742	4634.55
748.927	4732.86
749.111	4605.88
749.296	4560.83
749.481	4569.02
749.665	4575.16
749.85	4491.2
750.034	4538.3
750.219	4614.07
750.404	4569.02
750.588	4313.02
750.773	4337.6
750.957	4247.49
751.141	4372.41
751.326	4349.89
751.51	4214.72
751.695	4208.58
751.879	4157.38
752.064	4102.08
752.248	4218.82
752.432	4143.04
752.617	4106.18
752.801	3948.48
752.985	3899.33
753.17	4110.27
753.354	3987.4
753.538	4028.35
753.722	3860.42
753.907	3880.9
754.091	3815.37
754.275	3725.26
754.459	3801.03
754.643	3629
754.828	3794.89
755.012	3663.82
755.196	3762.12
755.38	3696.58
755.564	3602.38
755.748	3608.52
755.932	3518.41
756.116	3555.27
756.3	3463.12
756.484	3475.4
756.668	3530.7
756.852	3342.28
757.036	3409.87
757.22	3336.14
757.404	3344.33
757.588	3157.97
757.772	3325.9
757.956	3327.95
758.14	3233.74
758.323	3174.35
758.507	3225.55
758.691	3280.85
758.875	3112.91
759.059	3112.91
759.242	3065.81
759.426	3147.73
759.61	3082.19
759.794	2893.78
759.977	3020.75
760.161	3088.34
760.345	3014.61
760.528	2973.65
760.712	2940.88
760.895	2983.89
761.079	2944.98
761.263	2957.27
761.446	2801.62
761.63	2881.49
761.813	2766.81
761.997	2736.09
762.18	2842.58
762.364	2873.3
762.547	2748.37
762.731	2721.75
762.914	2623.45
763.098	2641.88
763.281	2731.99
763.464	2613.21
763.648	2691.03
763.831	2666.46
764.015	2734.04
764.198	2500.57
764.381	2648.02
764.564	2734.04
764.748	2551.77
764.931	2584.54
765.114	2625.5
765.297	2588.63
765.481	2514.91
765.664	2465.75
765.847	2406.36
766.03	2527.19
766.213	2576.34
766.397	2467.8
766.58	2379.74
766.763	2553.82
766.946	2455.51
767.129	2451.42
767.312	2410.46
767.495	2279.39
767.678	2295.77
767.861	2428.89
768.044	2379.74
768.227	2281.44
768.41	2306.01
768.593	2430.94
768.776	2287.58
768.959	2246.62
769.142	2238.43
769.324	2224.09
769.507	2289.63
769.69	2179.04
769.873	2156.51
770.056	2269.15
770.239	2154.46
770.421	2242.53
770.604	2144.22
770.787	2127.84
770.97	2099.17
771.152	2056.16
771.335	2222.05
771.518	2056.16
771.7	2144.22
771.883	2119.65
772.066	2070.5
772.248	2047.97
772.431	2023.39
772.613	2095.07
772.796	2004.96
772.978	1998.82
773.161	2082.78
773.343	1968.1
773.526	1984.48
773.708	1902.56
773.891	1869.8
774.073	1943.52
774.256	1992.67
774.438	1931.23
774.621	1810.4
774.803	1824.74
774.985	1859.56
775.168	1834.98
775.35	1818.6
775.532	1777.64
775.715	1834.98
775.897	1630.18
776.079	1765.35
776.261	1681.38
776.444	1789.92
776.626	1751.01
776.808	1798.12
776.99	1607.66
777.173	1660.9
777.355	1578.98
777.537	1679.33
777.719	1570.79
777.901	1708.01
778.083	1509.35
778.265	1511.4
778.447	1621.99
778.629	1499.11
778.811	1468.39
778.993	1501.16
779.175	1497.07
779.357	1546.22
779.539	1433.58
779.721	1333.23
779.903	1398.76
780.085	1400.81
780.267	1378.28
780.449	1390.57
780.631	1394.67
780.812	1357.8
780.994	1435.63
781.176	1413.1
781.358	1396.71
781.54	1329.13
781.721	1282.03
781.903	1390.57
782.085	1224.69
782.267	1327.08
782.448	1257.45
782.63	1230.83
782.812	1267.69
782.993	1173.49
783.175	1220.59
783.357	1206.25
783.538	1232.88
783.72	1265.64
783.901	1259.5
784.083	1245.16
784.264	1112.05
784.446	1144.81
784.627	1116.14
784.809	1216.49
784.99	1079.28
785.172	1058.8
785.353	1181.68
785.535	1167.34
785.716	1026.03
785.897	991.22
786.079	1058.8
786.26	1042.42
786.441	1095.66
786.623	937.97
786.804	1030.13
786.985	1087.47
787.167	1089.52
787.348	903.15
787.529	880.63
787.71	991.22
787.891	1009.65
788.073	1054.7
788.254	944.11
788.435	966.64
788.616	978.93
788.797	862.19
788.978	909.3
789.159	882.67
789.34	919.54
789.522	876.53
789.703	907.25
789.884	937.97
790.065	839.67
790.246	976.88
790.427	890.87
790.607	929.78
790.788	987.12
790.969	788.47
791.15	862.19
791.331	837.62
791.512	843.76
791.693	747.51
791.874	874.48
792.054	872.43
792.235	819.19
792.416	804.85
792.597	794.61
792.778	755.7
792.958	776.18
793.139	811
793.32	690.17
793.5	722.93
793.681	743.41
793.862	765.94
794.042	739.32
794.223	735.22
794.404	706.55
794.584	677.88
794.765	722.93
794.945	641.01
795.126	757.75
795.306	743.41
795.487	737.27
795.667	681.97
795.848	765.94
796.028	673.78
796.209	737.27
796.389	671.73
796.57	653.3
796.75	657.4
796.93	696.31
797.111	714.74
797.291	585.72
797.471	655.35
797.652	622.58
797.832	587.77
798.012	628.73
798.192	630.77
798.373	616.44
798.553	608.25
798.733	647.16
798.913	555
799.093	540.66
799.274	575.48
799.454	690.17
799.634	563.19
799.814	577.53
799.994	606.2
800.174	630.77
800.354	638.97
800.534	487.42
800.714	671.73
800.894	532.47
801.074	524.28
801.254	567.29
801.434	600.05
801.614	520.18
801.794	452.6
801.974	1312.75
802.154	516.09
802.334	559.1
802.514	509.94
802.693	524.28
802.873	550.9
803.053	620.53
803.233	540.66
803.413	473.08
803.592	485.37
803.772	495.61
803.952	557.05
804.131	432.12
804.311	583.67
804.491	600.05
804.67	559.1
804.85	473.08
805.03	475.13
805.209	604.15
805.389	452.6
805.568	423.93
805.748	448.51
805.928	446.46
806.107	495.61
806.287	499.7
806.466	485.37
806.646	460.79
806.825	425.98
807.004	452.6
807.184	477.18
807.363	477.18
807.543	483.32
807.722	385.02
807.901	483.32
808.081	483.32
808.26	399.35
808.439	407.55
808.619	460.79
808.798	458.74
808.977	401.4
809.156	534.52
809.336	452.6
809.515	468.98
809.694	387.07
809.873	399.35
810.052	411.64
810.231	423.93
810.411	430.07
810.59	421.88
810.769	434.17
810.948	444.41
811.127	337.91
811.306	387.07
811.485	315.39
811.664	495.61
811.843	387.07
812.022	456.7
812.201	397.31
812.38	360.44
812.559	399.35
812.737	413.69
812.916	346.11
813.095	313.34
813.274	393.21
813.453	346.11
813.632	368.63
813.811	448.51
813.989	331.77
814.168	309.24
814.347	352.25
814.526	370.68
814.704	391.16
814.883	411.64
815.062	313.34
815.24	348.15
815.419	260.09
815.598	309.24
815.776	237.56
815.955	333.82
816.133	231.42
816.312	342.01
816.49	292.86
816.669	272.38
816.847	288.76
817.026	428.03
817.204	286.72
817.383	266.24
817.561	268.28
817.74	378.87
817.918	342.01
818.097	264.19
818.275	219.13
818.453	348.15
818.632	337.91
818.81	264.19
818.988	215.04
819.167	319.48
819.345	284.67
819.523	262.14
819.701	286.72
819.879	385.02
820.058	309.24
820.236	335.87
820.414	280.57
820.592	200.7
820.77	274.43
820.948	288.76
821.127	172.03
821.305	319.48
821.483	292.86
821.661	344.06
821.839	215.04
822.017	225.28
822.195	270.33
822.373	301.05
822.551	258.04
822.729	309.24
822.907	321.53
823.085	256
823.262	235.52
823.44	192.51
823.618	223.23
823.796	311.29
823.974	243.71
824.152	264.19
824.329	235.52
824.507	256
824.685	212.99
824.863	231.42
825.04	301.05
825.218	256
825.396	284.67
825.574	276.48
825.751	190.46
825.929	280.57
826.107	157.69
826.284	253.95
826.462	256
826.639	161.79
826.817	159.74
826.994	233.47
827.172	167.93
827.349	311.29
827.527	264.19
827.704	174.08
827.882	190.46
828.059	217.08
828.237	159.74
828.414	204.8
828.591	108.54
828.769	296.96
828.946	212.99
829.124	186.37
829.301	202.75
829.478	163.84
829.655	182.27
829.833	223.23
830.01	243.71
830.187	241.66
830.364	180.22
830.542	196.6
830.719	241.66
830.896	178.17
831.073	212.99
831.25	135.17
831.427	241.66
831.604	186.37
831.782	202.75
831.959	143.36
832.136	182.27
832.313	186.37
832.49	176.13
832.667	149.5
832.844	176.13
833.021	192.51
833.198	208.89
833.374	223.23
833.551	153.6
833.728	83.97
833.905	200.7
834.082	153.6
834.259	180.22
834.436	268.28
834.612	88.06
834.789	215.04
834.966	157.69
835.143	124.93
835.319	145.41
835.496	212.99
835.673	161.79
835.85	163.84
836.026	133.12
836.203	165.89
836.38	141.31
836.556	172.03
836.733	198.65
836.909	212.99
837.086	139.26
837.262	102.4
837.439	143.36
837.616	108.54
837.792	143.36
837.968	186.37
838.145	143.36
838.321	149.5
838.498	92.16
838.674	202.75
838.851	206.84
839.027	174.08
839.203	200.7
839.38	190.46
839.556	104.45
839.732	182.27
839.909	59.39
840.085	188.41
840.261	65.53
840.437	178.17
840.614	88.06
840.79	108.54
840.966	167.93
841.142	147.45
841.318	157.69
841.494	157.69
841.671	161.79
841.847	122.88
842.023	67.58
842.199	102.4
842.375	202.75
842.551	51.2
842.727	47.1
842.903	149.5
843.079	96.25
843.255	172.03
843.431	118.78
843.607	145.41
843.783	36.86
843.959	174.08
844.134	155.65
844.31	192.51
844.486	63.49
844.662	83.97
844.838	124.93
845.013	163.84
845.189	133.12
845.365	129.02
845.541	129.02
845.716	92.16
845.892	26.62
846.068	100.35
846.244	69.63
846.419	118.78
846.595	112.64
846.77	30.72
846.946	186.37
847.122	92.16
847.297	55.3
847.473	141.31
847.648	75.77
847.824	69.63
847.999	90.11
848.175	108.54
848.35	135.17
848.526	143.36
848.701	77.82
848.876	59.39
849.052	133.12
849.227	81.92
849.403	139.26
849.578	59.39
849.753	43.01
849.929	88.06
850.104	28.67
850.279	71.68
850.454	79.87
850.63	122.88
850.805	88.06
850.98	71.68
851.155	116.73
851.33	112.64
851.505	40.96
851.681	75.77
851.856	79.87
852.031	90.11
852.206	98.3
852.381	98.3
852.556	55.3
852.731	124.93
852.906	65.53
853.081	102.4
853.256	131.07
853.431	12.29
853.606	4.1
853.781	55.3
853.956	-10.24
854.131	49.15
854.305	-8.19
854.48	51.2
854.655	38.91
854.83	141.31
855.005	16.38
855.18	155.65
855.354	16.38
855.529	122.88
855.704	-18.43
855.879	122.88
856.053	34.82
856.228	79.87
856.403	26.62
856.577	90.11
856.752	40.96
856.926	40.96
857.101	65.53
857.276	81.92
857.45	51.2
857.625	69.63
857.799	43.01
857.974	75.77
858.148	24.58
858.323	22.53
858.497	22.53
858.672	43.01
858.846	114.69
859.02	75.77
859.195	-36.86
859.369	55.3
859.543	73.73
859.718	65.53
859.892	38.91
860.066	34.82
860.241	63.49
860.415	53.25
860.589	98.3
860.763	16.38
860.938	51.2
861.112	102.4
861.286	18.43
861.46	75.77
861.634	18.43
861.808	145.41
861.982	-22.53
862.157	110.59
862.331	55.3
862.505	4.1
862.679	-24.58
862.853	-6.14
863.027	55.3
863.201	2.05
863.375	2.05
863.549	26.62
863.722	45.06
863.896	126.97
864.07	47.1
864.244	59.39
864.418	22.53
864.592	12.29
864.766	22.53
864.939	32.77
865.113	92.16
865.287	65.53
865.461	18.43
865.634	34.82
865.808	8.19
865.982	55.3
866.156	-2.05
866.329	32.77
866.503	22.53
866.676	98.3
866.85	14.34
867.024	104.45
867.197	90.11
867.371	34.82
867.544	69.63
867.718	30.72
867.891	57.34
868.065	-28.67
868.238	26.62
868.412	34.82
868.585	57.34
868.759	26.62
868.932	30.72
869.105	-16.38
869.279	32.77
869.452	40.96
869.625	18.43
869.799	-26.62
869.972	-0
870.145	81.92
870.319	-32.77
870.492	34.82
870.665	2.05
870.838	83.97
871.011	12.29
871.185	34.82
871.358	-8.19
871.531	14.34
871.704	-8.19
871.877	53.25
872.05	12.29
872.223	59.39
872.396	65.53
872.569	32.77
872.742	16.38
872.915	73.73
873.088	-0
873.261	-20.48
873.434	73.73
873.607	10.24
873.78	143.36
873.953	-43.01
874.126	32.77
874.299	47.1
874.471	34.82
874.644	18.43
874.817	77.82
874.99	20.48
875.163	-6.14
875.335	67.58
875.508	71.68
875.681	-18.43
875.853	-12.29
876.026	10.24
876.199	157.69
876.371	59.39
876.544	40.96
876.717	16.38
876.889	38.91
877.062	14.34
877.234	16.38
877.407	-18.43
877.579	14.34
877.752	8.19
877.924	120.83
878.097	-30.72
878.269	30.72
878.442	-49.15
878.614	51.2
878.786	63.49
878.959	59.39
879.131	16.38
879.303	61.44
879.476	-10.24
879.648	71.68
879.82	-6.14
879.993	40.96
880.165	-16.38
880.337	16.38
880.509	106.49
880.681	-73.73
880.854	-22.53
881.026	-16.38
881.198	118.78
881.37	16.38
881.542	24.58
881.714	59.39
881.886	63.49
882.058	55.3
882.23	43.01
882.402	18.43
882.574	47.1
882.746	45.06
882.918	67.58
883.09	43.01
883.262	-47.1
883.434	96.25
883.606	10.24
883.778	-16.38
883.95	40.96
884.122	-22.53
884.293	16.38
884.465	40.96
884.637	45.06
884.809	-26.62
884.98	-22.53
885.152	-10.24
885.324	34.82
885.496	-90.11
885.667	32.77
885.839	-51.2
886.011	53.25
886.182	16.38
886.354	43.01
886.525	-38.91
886.697	55.3
886.869	-116.73
887.04	36.86
887.212	88.06
887.383	106.49
887.555	16.38
887.726	-32.77
887.897	-47.1
888.069	34.82
888.24	34.82
888.412	14.34
888.583	-43.01
888.754	-30.72
888.926	32.77
889.097	32.77
889.268	-45.06
889.44	49.15
889.611	-30.72
889.782	-47.1
889.953	-47.1
890.125	-0
890.296	16.38
890.467	4.1
890.638	-18.43
890.809	43.01
890.98	-28.67
891.151	92.16
891.323	67.58
891.494	6.14
891.665	-131.07
891.836	-2.05
892.007	10.24
892.178	61.44
892.349	4.1
892.52	6.14
892.691	18.43
892.862	75.77
893.032	36.86
893.203	26.62
893.374	14.34
893.545	90.11
893.716	38.91
893.887	53.25
894.057	-51.2
894.228	40.96
894.399	47.1
894.57	73.73
894.74	-83.97
894.911	38.91
895.082	-32.77
895.253	10.24
895.423	61.44
895.594	4.1
895.764	71.68
895.935	16.38
896.106	34.82
896.276	-51.2
896.447	53.25
896.617	32.77
896.788	-30.72
896.958	-0
897.129	14.34
897.299	-43.01
897.47	79.87
897.64	63.49
897.81	-34.82
897.981	88.06
898.151	-47.1
898.322	57.34
898.492	8.19
898.662	-10.24
898.832	-8.19
899.003	28.67
899.173	16.38
899.343	49.15
899.513	10.24
