Data from USB4F104151__106__11-35-17-275.txt Node

Date: Fri Mar 14 11:35:17 EDT 2025
User: louis
Spectrometer: USB4F10415
Trigger mode: 4
Integration Time (sec): 2.000000E-2
Scans to average: 1
Electric dark correction enabled: true
Nonlinearity correction enabled: false
Boxcar width: 0
XAxis mode: Wavelengths
Number of Pixels in Spectrum: 3648
>>>>>Begin Spectral Data<<<<<
178.204	-100.52
178.424	-100.52
178.644	-100.52
178.864	-39.08
179.084	-59.56
179.304	34.64
179.524	-18.6
179.744	18.26
179.964	73.56
180.184	-47.27
180.404	12.12
180.624	24.4
180.844	-63.66
181.064	16.21
181.283	8.02
181.503	-37.03
181.723	-20.65
181.943	-34.99
182.163	102.23
182.383	8.02
182.602	3.93
182.822	57.17
183.042	79.7
183.262	12.12
183.482	5.97
183.701	20.31
183.921	79.7
184.141	48.98
184.361	51.03
184.58	44.88
184.8	26.45
185.02	1.88
185.239	-8.36
185.459	55.12
185.679	79.7
185.898	-41.13
186.118	16.21
186.338	-34.99
186.557	-24.75
186.777	5.97
186.997	-14.51
187.216	34.64
187.436	20.31
187.655	55.12
187.875	34.64
188.095	24.4
188.314	26.45
188.534	81.75
188.753	81.75
188.973	69.46
189.192	130.9
189.412	-32.94
189.631	53.08
189.851	-16.55
190.07	51.03
190.29	-45.23
190.509	69.46
190.729	-20.65
190.948	55.12
191.168	102.23
191.387	100.18
191.607	42.84
191.826	24.4
192.045	10.07
192.265	73.56
192.484	36.69
192.704	65.36
192.923	53.08
193.142	22.36
193.362	12.12
193.581	112.47
193.8	53.08
194.02	48.98
194.239	34.64
194.458	57.17
194.678	-49.32
194.897	-18.6
195.116	-2.22
195.335	61.27
195.555	-6.31
195.774	5.97
195.993	71.51
196.212	28.5
196.432	38.74
196.651	91.99
196.87	108.37
197.089	124.76
197.308	79.7
197.528	-6.31
197.747	1.88
197.966	-20.65
198.185	28.5
198.404	42.84
198.623	44.88
198.842	124.76
199.062	36.69
199.281	32.6
199.5	104.28
199.719	63.32
199.938	67.41
200.157	51.03
200.376	87.89
200.595	16.21
200.814	-8.36
201.033	3.93
201.252	32.6
201.471	18.26
201.69	-22.7
201.909	77.65
202.128	-32.94
202.347	61.27
202.566	46.93
202.785	83.8
203.004	-39.08
203.223	18.26
203.442	34.64
203.661	42.84
203.879	10.07
204.098	12.12
204.317	3.93
204.536	81.75
204.755	-0.17
204.974	30.55
205.193	22.36
205.411	38.74
205.63	73.56
205.849	10.07
206.068	71.51
206.287	63.32
206.505	46.93
206.724	1.88
206.943	20.31
207.162	-26.79
207.381	-26.79
207.599	38.74
207.818	-30.89
208.037	-12.46
208.255	20.31
208.474	96.08
208.693	51.03
208.911	8.02
209.13	79.7
209.349	-0.17
209.567	96.08
209.786	12.12
210.005	77.65
210.223	-22.7
210.442	12.12
210.661	53.08
210.879	63.32
211.098	38.74
211.316	77.65
211.535	55.12
211.753	48.98
211.972	-22.7
212.191	94.04
212.409	61.27
212.628	79.7
212.846	10.07
213.065	-61.61
213.283	87.89
213.502	22.36
213.72	71.51
213.938	5.97
214.157	30.55
214.375	75.6
214.594	-26.79
214.812	10.07
215.031	57.17
215.249	10.07
215.467	-0.17
215.686	-26.79
215.904	55.12
216.122	26.45
216.341	77.65
216.559	38.74
216.778	30.55
216.996	32.6
217.214	55.12
217.432	-32.94
217.651	14.17
217.869	44.88
218.087	8.02
218.306	-18.6
218.524	-2.22
218.742	98.13
218.96	-2.22
219.179	-2.22
219.397	20.31
219.615	55.12
219.833	42.84
220.051	44.88
220.27	-43.18
220.488	10.07
220.706	104.28
220.924	57.17
221.142	10.07
221.36	34.64
221.578	61.27
221.796	44.88
222.015	30.55
222.233	46.93
222.451	112.47
222.669	104.28
222.887	59.22
223.105	10.07
223.323	-18.6
223.541	-2.22
223.759	100.18
223.977	-30.89
224.195	16.21
224.413	91.99
224.631	118.61
224.849	83.8
225.067	69.46
225.285	-57.51
225.503	102.23
225.721	10.07
225.939	-2.22
226.157	73.56
226.375	46.93
226.592	-20.65
226.81	-4.27
227.028	67.41
227.246	14.17
227.464	79.7
227.682	14.17
227.9	14.17
228.117	67.41
228.335	30.55
228.553	34.64
228.771	46.93
228.989	63.32
229.206	32.6
229.424	53.08
229.642	38.74
229.86	48.98
230.077	28.5
230.295	30.55
230.513	67.41
230.731	14.17
230.948	-6.31
231.166	22.36
231.384	63.32
231.601	-12.46
231.819	36.69
232.037	20.31
232.254	-30.89
232.472	-28.84
232.689	-43.18
232.907	71.51
233.125	65.36
233.342	14.17
233.56	-16.55
233.777	57.17
233.995	10.07
234.213	59.22
234.43	26.45
234.648	-26.79
234.865	28.5
235.083	65.36
235.3	-65.71
235.518	36.69
235.735	69.46
235.953	63.32
236.17	1.88
236.388	96.08
236.605	46.93
236.822	32.6
237.04	28.5
237.257	38.74
237.475	-10.41
237.692	-26.79
237.909	71.51
238.127	28.5
238.344	-2.22
238.562	42.84
238.779	30.55
238.996	-4.27
239.214	14.17
239.431	100.18
239.648	30.55
239.865	36.69
240.083	94.04
240.3	1.88
240.517	-6.31
240.735	30.55
240.952	85.84
241.169	55.12
241.386	20.31
241.603	36.69
241.821	14.17
242.038	8.02
242.255	28.5
242.472	46.93
242.689	34.64
242.907	1.88
243.124	10.07
243.341	3.93
243.558	59.22
243.775	73.56
243.992	22.36
244.209	16.21
244.426	5.97
244.643	110.42
244.86	-0.17
245.078	22.36
245.295	108.37
245.512	69.46
245.729	75.6
245.946	-34.99
246.163	14.17
246.38	8.02
246.597	-28.84
246.814	89.94
247.031	22.36
247.248	22.36
247.464	14.17
247.681	71.51
247.898	63.32
248.115	94.04
248.332	48.98
248.549	69.46
248.766	46.93
248.983	28.5
249.2	85.84
249.417	83.8
249.633	118.61
249.85	-24.75
250.067	73.56
250.284	8.02
250.501	22.36
250.717	44.88
250.934	26.45
251.151	98.13
251.368	-10.41
251.585	-12.46
251.801	12.12
252.018	-39.08
252.235	3.93
252.451	26.45
252.668	28.5
252.885	106.32
253.102	36.69
253.318	-59.56
253.535	63.32
253.752	75.6
253.968	55.12
254.185	36.69
254.401	100.18
254.618	-4.27
254.835	1.88
255.051	40.79
255.268	-18.6
255.484	-34.99
255.701	18.26
255.917	1.88
256.134	12.12
256.351	42.84
256.567	34.64
256.784	-18.6
257	30.55
257.217	55.12
257.433	20.31
257.65	77.65
257.866	-18.6
258.082	46.93
258.299	-24.75
258.515	130.9
258.732	5.97
258.948	51.03
259.165	69.46
259.381	-30.89
259.597	26.45
259.814	42.84
260.03	10.07
260.246	3.93
260.463	79.7
260.679	-2.22
260.895	36.69
261.112	26.45
261.328	12.12
261.544	18.26
261.761	114.52
261.977	40.79
262.193	1.88
262.409	51.03
262.626	63.32
262.842	75.6
263.058	26.45
263.274	69.46
263.49	40.79
263.707	55.12
263.923	12.12
264.139	8.02
264.355	55.12
264.571	24.4
264.787	83.8
265.004	32.6
265.22	87.89
265.436	87.89
265.652	44.88
265.868	36.69
266.084	8.02
266.3	71.51
266.516	12.12
266.732	-6.31
266.948	46.93
267.164	-34.99
267.38	61.27
267.596	26.45
267.812	53.08
268.028	22.36
268.244	77.65
268.46	26.45
268.676	-28.84
268.892	42.84
269.108	14.17
269.324	-0.17
269.54	-20.65
269.756	61.27
269.972	1.88
270.188	98.13
270.403	65.36
270.619	112.47
270.835	36.69
271.051	69.46
271.267	38.74
271.483	36.69
271.698	71.51
271.914	73.56
272.13	24.4
272.346	48.98
272.562	-0.17
272.777	87.89
272.993	24.4
273.209	3.93
273.425	114.52
273.64	24.4
273.856	71.51
274.072	122.71
274.287	-6.31
274.503	63.32
274.719	-12.46
274.934	73.56
275.15	51.03
275.366	46.93
275.581	65.36
275.797	108.37
276.012	46.93
276.228	8.02
276.444	44.88
276.659	-4.27
276.875	-14.51
277.09	87.89
277.306	36.69
277.521	100.18
277.737	1.88
277.952	1.88
278.168	42.84
278.383	114.52
278.599	1.88
278.814	28.5
279.03	71.51
279.245	75.6
279.461	-24.75
279.676	46.93
279.892	-16.55
280.107	26.45
280.322	28.5
280.538	65.36
280.753	12.12
280.969	-22.7
281.184	65.36
281.399	34.64
281.615	100.18
281.83	44.88
282.045	40.79
282.26	-67.75
282.476	89.94
282.691	34.64
282.906	77.65
283.122	104.28
283.337	79.7
283.552	94.04
283.767	5.97
283.983	38.74
284.198	14.17
284.413	73.56
284.628	-6.31
284.843	55.12
285.058	51.03
285.274	8.02
285.489	48.98
285.704	40.79
285.919	40.79
286.134	16.21
286.349	-10.41
286.564	75.6
286.779	18.26
286.995	106.32
287.21	24.4
287.425	-26.79
287.64	3.93
287.855	55.12
288.07	-14.51
288.285	55.12
288.5	34.64
288.715	18.26
288.93	59.22
289.145	61.27
289.36	5.97
289.575	30.55
289.79	81.75
290.004	16.21
290.219	28.5
290.434	79.7
290.649	40.79
290.864	-51.37
291.079	1.88
291.294	63.32
291.509	112.47
291.724	48.98
291.938	77.65
292.153	53.08
292.368	-32.94
292.583	-2.22
292.798	30.55
293.012	28.5
293.227	71.51
293.442	28.5
293.657	-28.84
293.871	73.56
294.086	122.71
294.301	51.03
294.516	1.88
294.73	51.03
294.945	30.55
295.16	-16.55
295.374	46.93
295.589	30.55
295.804	46.93
296.018	22.36
296.233	59.22
296.447	22.36
296.662	-4.27
296.877	53.08
297.091	42.84
297.306	18.26
297.52	-26.79
297.735	10.07
297.949	51.03
298.164	65.36
298.378	-4.27
298.593	10.07
298.807	-16.55
299.022	77.65
299.236	5.97
299.451	75.6
299.665	-0.17
299.88	10.07
300.094	24.4
300.309	51.03
300.523	-18.6
300.737	91.99
300.952	30.55
301.166	83.8
301.381	55.12
301.595	28.5
301.809	42.84
302.024	-4.27
302.238	38.74
302.452	53.08
302.667	20.31
302.881	3.93
303.095	20.31
303.309	59.22
303.524	5.97
303.738	94.04
303.952	38.74
304.166	46.93
304.381	-2.22
304.595	100.18
304.809	5.97
305.023	83.8
305.237	14.17
305.452	40.79
305.666	53.08
305.88	85.84
306.094	65.36
306.308	57.17
306.522	46.93
306.736	77.65
306.95	1.88
307.164	-34.99
307.379	16.21
307.593	36.69
307.807	-2.22
308.021	10.07
308.235	34.64
308.449	-24.75
308.663	53.08
308.877	28.5
309.091	55.12
309.305	32.6
309.519	8.02
309.733	-12.46
309.947	18.26
310.161	61.27
310.374	69.46
310.588	104.28
310.802	14.17
311.016	63.32
311.23	-18.6
311.444	46.93
311.658	-16.55
311.872	48.98
312.085	18.26
312.299	89.94
312.513	18.26
312.727	-28.84
312.941	36.69
313.154	28.5
313.368	36.69
313.582	69.46
313.796	22.36
314.009	28.5
314.223	46.93
314.437	89.94
314.651	48.98
314.864	40.79
315.078	48.98
315.292	20.31
315.505	-6.31
315.719	38.74
315.933	22.36
316.146	-34.99
316.36	32.6
316.573	28.5
316.787	32.6
317.001	42.84
317.214	18.26
317.428	-28.84
317.641	-61.61
317.855	67.41
318.068	24.4
318.282	55.12
318.495	-2.22
318.709	-6.31
318.922	10.07
319.136	42.84
319.349	30.55
319.563	-0.17
319.776	8.02
319.99	3.93
320.203	40.79
320.417	36.69
320.63	14.17
320.843	77.65
321.057	63.32
321.27	-28.84
321.483	44.88
321.697	75.6
321.91	89.94
322.124	67.41
322.337	53.08
322.55	79.7
322.763	-8.36
322.977	89.94
323.19	-2.22
323.403	81.75
323.617	8.02
323.83	79.7
324.043	32.6
324.256	53.08
324.469	75.6
324.683	46.93
324.896	30.55
325.109	44.88
325.322	3.93
325.535	106.32
325.748	22.36
325.962	46.93
326.175	98.13
326.388	112.47
326.601	8.02
326.814	22.36
327.027	38.74
327.24	132.95
327.453	91.99
327.666	16.21
327.879	73.56
328.092	53.08
328.305	89.94
328.518	63.32
328.731	96.08
328.944	65.36
329.157	77.65
329.37	112.47
329.583	106.32
329.796	57.17
330.009	34.64
330.222	14.17
330.435	34.64
330.648	22.36
330.861	-12.46
331.073	61.27
331.286	151.38
331.499	108.37
331.712	-2.22
331.925	55.12
332.138	5.97
332.35	55.12
332.563	-4.27
332.776	53.08
332.989	-26.79
333.202	20.31
333.414	38.74
333.627	81.75
333.84	57.17
334.053	87.89
334.265	32.6
334.478	8.02
334.691	128.85
334.903	1.88
335.116	18.26
335.329	59.22
335.541	10.07
335.754	91.99
335.966	40.79
336.179	-22.7
336.392	28.5
336.604	63.32
336.817	12.12
337.029	26.45
337.242	-2.22
337.454	40.79
337.667	-20.65
337.88	40.79
338.092	91.99
338.305	36.69
338.517	3.93
338.729	-16.55
338.942	3.93
339.154	26.45
339.367	55.12
339.579	12.12
339.792	30.55
340.004	44.88
340.217	79.7
340.429	38.74
340.641	-41.13
340.854	59.22
341.066	53.08
341.278	67.41
341.491	55.12
341.703	75.6
341.915	26.45
342.128	94.04
342.34	44.88
342.552	69.46
342.764	16.21
342.977	65.36
343.189	36.69
343.401	30.55
343.613	79.7
343.826	46.93
344.038	44.88
344.25	63.32
344.462	-30.89
344.674	22.36
344.886	53.08
345.099	79.7
345.311	24.4
345.523	-8.36
345.735	26.45
345.947	46.93
346.159	38.74
346.371	14.17
346.583	1.88
346.795	57.17
347.007	-26.79
347.219	59.22
347.431	59.22
347.643	20.31
347.855	32.6
348.067	12.12
348.279	16.21
348.491	55.12
348.703	59.22
348.915	79.7
349.127	83.8
349.339	102.23
349.551	3.93
349.763	34.64
349.975	12.12
350.187	44.88
350.399	81.75
350.61	61.27
350.822	53.08
351.034	1.88
351.246	28.5
351.458	100.18
351.669	5.97
351.881	67.41
352.093	28.5
352.305	42.84
352.517	30.55
352.728	63.32
352.94	40.79
353.152	137.04
353.363	22.36
353.575	-20.65
353.787	55.12
353.999	114.52
354.21	5.97
354.422	1.88
354.633	77.65
354.845	16.21
355.057	87.89
355.268	85.84
355.48	102.23
355.692	53.08
355.903	-39.08
356.115	77.65
356.326	26.45
356.538	55.12
356.749	14.17
356.961	118.61
357.172	38.74
357.384	63.32
357.595	112.47
357.807	65.36
358.018	-43.18
358.23	-18.6
358.441	112.47
358.653	53.08
358.864	61.27
359.075	79.7
359.287	44.88
359.498	1.88
359.709	40.79
359.921	108.37
360.132	5.97
360.344	69.46
360.555	53.08
360.766	83.8
360.977	38.74
361.189	30.55
361.4	96.08
361.611	94.04
361.823	26.45
362.034	34.64
362.245	61.27
362.456	61.27
362.667	96.08
362.879	34.64
363.09	-4.27
363.301	77.65
363.512	55.12
363.723	59.22
363.935	71.51
364.146	77.65
364.357	-8.36
364.568	44.88
364.779	24.4
364.99	104.28
365.201	53.08
365.412	34.64
365.623	59.22
365.834	10.07
366.045	34.64
366.256	63.32
366.467	89.94
366.678	14.17
366.889	18.26
367.1	5.97
367.311	71.51
367.522	32.6
367.733	77.65
367.944	-24.75
368.155	42.84
368.366	34.64
368.577	112.47
368.788	42.84
368.999	48.98
369.209	30.55
369.42	77.65
369.631	159.57
369.842	-0.17
370.053	36.69
370.264	73.56
370.474	104.28
370.685	81.75
370.896	81.75
371.107	85.84
371.317	96.08
371.528	153.43
371.739	28.5
371.95	110.42
372.16	65.36
372.371	61.27
372.582	67.41
372.792	20.31
373.003	96.08
373.214	63.32
373.424	12.12
373.635	8.02
373.846	106.32
374.056	46.93
374.267	-22.7
374.477	61.27
374.688	5.97
374.898	-4.27
375.109	61.27
375.319	75.6
375.53	3.93
375.74	46.93
375.951	14.17
376.161	22.36
376.372	59.22
376.582	114.52
376.793	30.55
377.003	116.56
377.214	-57.51
377.424	87.89
377.635	77.65
377.845	51.03
378.055	81.75
378.266	22.36
378.476	100.18
378.686	81.75
378.897	59.22
379.107	57.17
379.317	-2.22
379.528	5.97
379.738	91.99
379.948	22.36
380.158	108.37
380.369	34.64
380.579	38.74
380.789	63.32
380.999	20.31
381.21	96.08
381.42	75.6
381.63	53.08
381.84	79.7
382.05	18.26
382.261	132.95
382.471	65.36
382.681	63.32
382.891	14.17
383.101	69.46
383.311	3.93
383.521	30.55
383.731	30.55
383.941	3.93
384.151	36.69
384.361	55.12
384.571	55.12
384.781	65.36
384.991	32.6
385.201	104.28
385.411	51.03
385.621	102.23
385.831	18.26
386.041	94.04
386.251	-2.22
386.461	18.26
386.671	53.08
386.881	46.93
387.091	12.12
387.301	8.02
387.511	46.93
387.72	14.17
387.93	87.89
388.14	73.56
388.35	59.22
388.56	98.13
388.769	20.31
388.979	81.75
389.189	30.55
389.399	53.08
389.609	14.17
389.818	59.22
390.028	32.6
390.238	132.95
390.447	53.08
390.657	87.89
390.867	87.89
391.076	143.19
391.286	104.28
391.496	79.7
391.705	65.36
391.915	165.71
392.125	26.45
392.334	30.55
392.544	108.37
392.753	18.26
392.963	59.22
393.172	91.99
393.382	32.6
393.591	137.04
393.801	79.7
394.01	104.28
394.22	85.84
394.429	44.88
394.639	112.47
394.848	77.65
395.058	75.6
395.267	139.09
395.477	30.55
395.686	96.08
395.895	151.38
396.105	122.71
396.314	61.27
396.524	83.8
396.733	32.6
396.942	63.32
397.152	157.52
397.361	137.04
397.57	55.12
397.78	108.37
397.989	22.36
398.198	79.7
398.407	79.7
398.617	137.04
398.826	51.03
399.035	87.89
399.244	85.84
399.453	63.32
399.663	14.17
399.872	108.37
400.081	40.79
400.29	161.62
400.499	71.51
400.708	147.28
400.917	83.8
401.127	167.76
401.336	71.51
401.545	75.6
401.754	85.84
401.963	71.51
402.172	122.71
402.381	87.89
402.59	128.85
402.799	178
403.008	153.43
403.217	118.61
403.426	89.94
403.635	108.37
403.844	118.61
404.053	100.18
404.262	175.95
404.471	137.04
404.68	157.52
404.888	153.43
405.097	87.89
405.306	130.9
405.515	124.76
405.724	169.81
405.933	135
406.142	126.8
406.35	210.77
406.559	190.29
406.768	161.62
406.977	208.72
407.185	233.3
407.394	194.39
407.603	149.33
407.812	153.43
408.02	221.01
408.229	190.29
408.438	245.59
408.646	157.52
408.855	180.05
409.064	261.97
409.272	251.73
409.481	253.78
409.69	311.12
409.898	235.35
410.107	302.93
410.315	329.55
410.524	292.69
410.733	354.13
410.941	296.78
411.15	284.5
411.358	362.32
411.567	257.87
411.775	370.51
411.984	386.9
412.192	309.07
412.401	413.52
412.609	460.62
412.818	395.09
413.026	491.34
413.234	454.48
413.443	464.72
413.651	454.48
413.86	503.63
414.068	560.97
414.276	585.55
414.485	511.82
414.693	595.79
414.901	583.5
415.11	632.65
415.318	542.54
415.526	595.79
415.734	689.99
415.943	624.46
416.151	720.71
416.359	792.39
416.567	694.09
416.776	847.69
416.984	913.22
417.192	890.7
417.4	890.7
417.608	900.94
417.817	948.04
418.025	1032.01
418.233	989
418.441	943.94
418.649	1085.25
418.857	1128.26
419.065	1169.22
419.273	1070.92
419.481	1201.99
419.689	1253.19
419.897	1314.63
420.105	1316.67
420.313	1394.5
420.521	1429.31
420.729	1388.35
420.937	1525.57
421.145	1476.41
421.353	1681.21
421.561	1713.98
421.769	1752.89
421.977	1828.67
422.185	1765.18
422.393	1814.33
422.601	2027.32
422.809	1965.88
423.017	2012.98
423.224	2086.71
423.432	2066.23
423.64	2180.92
423.848	2379.57
424.056	2289.46
424.263	2633.52
424.471	2492.21
424.679	2543.41
424.887	2740.01
425.094	2783.02
425.302	2746.16
425.51	2881.32
425.718	3036.97
425.925	3041.06
426.133	3082.02
426.341	3352.35
426.548	3360.55
426.756	3372.83
426.964	3600.16
427.171	3690.27
427.379	3831.58
427.586	3778.33
427.794	3929.88
428.001	4052.76
428.209	4427.54
428.417	4142.87
428.624	4560.66
428.832	4482.83
429.039	4566.8
429.247	4503.31
429.454	5091.08
429.662	5216.01
429.869	4970.25
430.076	5330.69
430.284	5273.35
430.491	5379.84
430.699	5750.53
430.906	5793.53
431.114	5777.15
431.321	5910.27
431.528	6016.76
431.736	6387.44
431.943	6616.82
432.15	6571.76
432.358	6647.54
432.565	7048.94
432.772	7028.46
432.979	7333.61
433.187	7497.44
433.394	7411.43
433.601	7993.05
433.808	8093.4
434.016	7937.76
434.223	8247
434.43	8857.29
434.637	8953.55
434.844	9184.97
435.052	9363.14
435.259	9217.74
435.466	9496.26
435.673	9199.3
435.88	9971.39
436.087	10344.12
436.294	10497.72
436.501	10114.75
436.708	10581.68
436.915	10858.16
437.122	11257.51
437.329	11353.77
437.537	11458.21
437.743	11753.12
437.95	11564.71
438.157	12256.92
438.364	12461.72
438.571	12840.59
438.778	12867.22
438.985	13866.63
439.192	13465.22
439.399	13827.71
439.606	13532.81
439.813	14177.92
440.02	15124.08
440.227	14710.39
440.433	14812.79
440.64	15126.13
440.847	15087.22
441.054	15699.56
441.261	16678.49
441.467	16426.59
441.674	16844.37
441.881	17378.89
442.088	17223.25
442.294	17141.33
442.501	17452.62
442.708	17993.28
442.914	18572.86
443.121	19516.97
443.328	18720.31
443.534	20145.7
443.741	19854.89
443.948	19338.8
444.154	20891.16
444.361	20725.27
444.568	20819.48
444.774	20536.86
444.981	21229.07
445.187	21911.05
445.394	22404.61
445.6	22617.6
445.807	24448.48
446.013	23653.87
446.22	23893.48
446.426	25019.86
446.633	25261.52
446.839	25998.79
447.046	24894.94
447.252	26170.82
447.459	26258.88
447.665	26166.73
447.871	27346.36
448.078	28358.05
448.284	27145.66
448.491	27923.88
448.697	29005.21
448.903	29509.01
449.11	29355.41
449.316	29181.34
449.522	29511.06
449.728	30096.78
449.935	30795.14
450.141	30522.76
450.347	31227.26
450.553	30533
450.76	30406.02
450.966	31550.84
451.172	31348.09
451.378	32152.94
451.584	31520.12
451.791	31942
451.997	32107.88
452.203	32400.74
452.409	32464.23
452.615	32824.67
452.821	31004.03
453.027	30899.58
453.233	32212.33
453.44	31194.49
453.646	31640.95
453.852	31898.99
454.058	32177.51
454.264	31223.16
454.47	31831.41
454.676	30844.29
454.882	32255.34
455.088	29275.54
455.294	29511.06
455.5	29965.71
455.705	30385.54
455.911	29298.07
456.117	28675.49
456.323	28315.05
456.529	26729.92
456.735	27878.83
456.941	27069.88
457.147	26615.23
457.352	25841.1
457.558	25918.92
457.764	25437.65
457.97	24956.38
458.176	24464.86
458.381	24520.16
458.587	23512.56
458.793	23215.6
458.999	22107.65
459.204	23901.67
459.41	22908.41
459.616	21782.02
459.821	21564.94
460.027	21464.59
460.233	21265.94
460.438	20147.75
460.644	20330.02
460.85	19236.4
461.055	19033.65
461.261	19162.67
461.466	17704.52
461.672	17014.35
461.878	18622.01
462.083	17104.46
462.289	16727.64
462.494	16705.11
462.7	16092.77
462.905	15421.03
463.111	16158.3
463.316	16158.3
463.522	15617.64
463.727	15681.13
463.932	15584.87
464.138	15382.12
464.343	15701.61
464.549	15103.6
464.754	15556.2
464.959	15326.83
465.165	15666.79
465.37	14745.2
465.575	14421.63
465.781	14960.24
465.986	14843.51
466.191	14593.65
466.397	14259.84
466.602	13561.48
466.807	14096
467.012	14020.22
467.218	13751.94
467.423	13780.61
467.628	13973.12
467.833	14474.87
468.038	13577.86
468.244	13522.57
468.449	14079.61
468.654	13772.42
468.859	13426.31
469.064	13409.93
469.269	12971.66
469.474	12940.94
469.679	13342.35
469.885	12605.08
470.09	13037.2
470.295	13008.53
470.5	12719.76
470.705	12533.4
470.91	12566.17
471.115	12297.88
471.32	12494.49
471.525	12424.86
471.73	11898.53
471.935	11974.3
472.139	11642.53
472.344	11849.38
472.549	11806.37
472.754	11613.86
472.959	11265.71
473.164	10976.94
473.369	10972.85
473.574	11232.94
473.778	11269.8
473.983	11114.16
474.188	11050.67
474.393	10503.86
474.598	10573.49
474.802	10518.2
475.007	10430.13
475.212	10589.88
475.417	10104.51
475.621	10180.28
475.826	10208.95
476.031	9948.86
476.235	9842.37
476.44	10016.44
476.645	9651.91
476.849	9856.7
477.054	9694.91
477.259	9459.4
477.463	9412.29
477.668	9197.26
477.872	9268.94
478.077	9043.66
478.282	8941.26
478.486	8879.82
478.691	8797.9
478.895	8711.89
479.1	8935.12
479.304	8685.26
479.509	8650.45
479.713	8562.39
479.918	8525.52
480.122	8341.21
480.326	8550.1
480.531	8380.12
480.735	8208.09
480.94	8271.58
481.144	8509.14
481.348	8173.27
481.553	8160.98
481.757	8189.66
481.961	8224.47
482.166	8316.63
482.37	8314.58
482.574	7878.37
482.778	8077.02
482.983	8281.81
483.187	8120.03
483.391	8228.57
483.595	7984.86
483.8	8167.13
484.004	8015.58
484.208	8183.51
484.412	7964.38
484.616	8089.31
484.821	8283.86
485.025	7876.32
485.229	8292.05
485.433	8142.55
485.637	8177.37
485.841	7984.86
486.045	8025.82
486.249	8136.41
486.453	8318.68
486.657	8091.35
486.861	8072.92
487.065	8058.59
487.269	8050.39
487.473	8021.72
487.677	8214.23
487.881	8228.57
488.085	8136.41
488.289	8249.05
488.493	8036.06
488.697	8410.84
488.901	8177.37
489.105	8105.69
489.309	8152.79
489.512	8222.42
489.716	8279.77
489.92	8255.19
490.124	8242.9
490.328	8570.58
490.531	8484.56
490.735	8333.01
490.939	8441.56
491.143	8359.64
491.346	8335.06
491.55	8503
491.754	8312.53
491.958	8591.06
492.161	8466.13
492.365	8515.28
492.569	8685.26
492.772	8675.02
492.976	8625.87
493.18	8629.97
493.383	9035.47
493.587	8847.05
493.79	8910.54
493.994	8847.05
494.197	8802
494.401	8865.49
494.605	9019.08
494.808	9203.4
495.012	9146.06
495.215	9164.49
495.419	9395.91
495.622	9334.47
495.825	9463.49
496.029	9553.6
496.232	9793.22
496.436	9324.23
496.639	9830.08
496.843	9811.65
497.046	10000.06
497.249	9938.62
497.453	10041.02
497.656	10102.46
497.859	10395.32
498.063	10288.82
498.266	10553.01
498.469	10614.45
498.673	10827.44
498.876	10755.76
499.079	10915.5
499.282	10788.53
499.485	11191.98
499.689	11384.49
499.892	11169.45
500.095	11222.7
500.298	11562.66
500.501	11574.95
500.705	11949.73
500.908	12107.42
501.111	12136.09
501.314	12330.65
501.517	12416.66
501.72	12459.67
501.923	12603.03
502.126	12666.52
502.329	13055.63
502.532	13162.12
502.735	13096.59
502.938	13397.64
503.141	13381.26
503.344	13440.65
503.547	13371.02
503.75	13878.91
503.953	14014.08
504.156	14239.36
504.359	14270.08
504.562	14300.8
504.765	14775.92
504.968	14882.42
505.17	15076.98
505.373	14675.57
505.576	15492.71
505.779	15406.7
505.982	15439.47
506.185	15562.34
506.387	15996.51
506.59	15787.62
506.793	16272.99
506.996	16029.28
507.198	16619.1
507.401	16563.8
507.604	16660.06
507.807	17040.98
508.009	17319.5
508.212	17466.95
508.415	17501.77
508.617	17729.09
508.82	17831.49
509.022	17647.18
509.225	18380.35
509.428	18558.52
509.63	18230.85
509.833	18517.56
510.035	18837.05
510.238	18859.57
510.44	19150.39
510.643	19586.6
510.845	19527.21
511.048	19471.92
511.25	20104.74
511.453	20010.53
511.655	20680.22
511.858	20153.89
512.06	20368.93
512.262	20739.61
512.465	20852.25
512.667	21132.82
512.87	21122.58
513.072	21308.94
513.274	21730.83
513.477	21874.18
513.679	22017.54
513.881	22519.29
514.084	22449.66
514.286	22566.4
514.488	22488.57
514.69	23311.86
514.893	23326.19
515.095	23324.15
515.297	23600.62
515.499	23510.51
515.701	23956.97
515.904	24047.08
516.106	24245.73
516.308	24638.94
516.51	24747.48
516.712	24653.28
516.914	25343.44
517.116	25298.39
517.318	25556.43
517.52	25783.76
517.722	25828.81
517.925	26052.04
518.127	26557.89
518.329	26551.74
518.531	26385.86
518.733	27073.98
518.935	27092.41
519.136	27155.89
519.338	27549.1
519.54	27714.99
519.742	27899.31
519.944	27970.99
520.146	28612
520.348	28493.22
520.55	28345.76
520.752	28753.31
520.954	29390.23
521.155	28933.53
521.357	29472.15
521.559	29377.94
521.761	30207.37
521.963	30178.7
522.164	30086.54
522.366	30317.96
522.568	30657.92
522.77	30711.17
522.971	31575.41
523.173	31149.43
523.375	31042.94
523.576	31106.43
523.778	31171.96
523.98	31645.04
524.181	31745.39
524.383	31399.29
524.584	32259.43
524.786	32087.4
524.988	32066.92
525.189	32849.25
525.391	32642.4
525.592	33146.2
525.794	32914.78
525.995	32746.85
526.197	32890.21
526.398	33021.28
526.6	33095
526.801	33654.1
527.003	33725.78
527.204	33561.94
527.406	34116.94
527.607	33711.44
527.808	34211.15
528.01	34082.13
528.211	34248.01
528.412	34624.84
528.614	34176.33
528.815	34245.96
529.016	34653.51
529.218	34315.59
529.419	34166.09
529.62	34731.33
529.822	34383.18
530.023	34717
530.224	34592.07
530.425	34571.59
530.626	34551.11
530.828	35059.01
531.029	35611.96
531.23	34796.87
531.431	35495.22
531.632	35087.68
531.833	35366.2
532.035	35159.36
532.236	35093.82
532.437	35546.42
532.638	35071.29
532.839	35509.56
533.04	35392.83
533.241	35253.56
533.442	35706.16
533.643	35355.96
533.844	35540.28
534.045	35489.08
534.246	35310.91
534.447	35716.4
534.648	35351.87
534.849	35472.7
535.05	35063.1
535.251	35448.12
535.451	35446.07
535.652	35765.56
535.853	35339.58
536.054	35544.37
536.255	35167.55
536.456	35392.83
536.657	35577.14
536.857	35685.68
537.058	35179.84
537.259	35413.3
537.46	35786.04
537.66	35575.09
537.861	35566.9
538.062	35595.57
538.263	35425.59
538.463	35484.98
538.664	35568.95
538.865	35495.22
539.065	35996.98
539.266	35190.08
539.466	35564.85
539.667	35278.14
539.868	35765.56
540.068	35388.73
540.269	35376.44
540.469	35695.92
540.67	35296.57
540.87	35462.46
541.071	35708.21
541.271	35360.06
541.472	35441.98
541.672	35097.92
541.873	35335.48
542.073	34827.59
542.274	35794.23
542.474	35259.71
542.675	34682.18
542.875	35544.37
543.075	35255.61
543.276	35126.59
543.476	35437.88
543.676	35102.01
543.877	35360.06
544.077	35188.03
544.277	35204.41
544.478	35214.65
544.678	35462.46
544.878	35294.52
545.078	35511.61
545.279	34938.18
545.479	34975.04
545.679	35358.01
545.879	35368.25
546.079	35235.13
546.28	35089.73
546.48	34954.56
546.68	35665.21
546.88	34962.75
547.08	35134.78
547.28	35077.44
547.48	35145.02
547.68	35157.31
547.88	34633.03
548.081	34905.41
548.281	34897.22
548.481	35257.66
548.681	35284.28
548.881	35081.53
549.081	35110.21
549.28	34903.36
549.48	35032.38
549.68	35155.26
549.88	35251.52
550.08	35110.21
550.28	35005.76
550.48	34776.39
550.68	34995.52
550.88	34755.91
551.08	34839.87
551.279	34821.44
551.479	34434.38
551.679	34972.99
551.879	34786.63
552.079	34979.14
552.278	34987.33
552.478	34753.86
552.678	35204.41
552.878	34903.36
553.077	34391.37
553.277	34766.15
553.477	34958.66
553.676	34723.14
553.876	34712.9
554.076	34317.64
554.275	34856.26
554.475	34573.64
554.674	34547.01
554.874	34237.77
555.074	33953.1
555.273	34876.74
555.473	34592.07
555.672	34084.17
555.872	34123.08
556.071	34495.81
556.271	34219.34
556.47	34442.57
556.67	33699.16
556.869	34454.86
557.068	34622.79
557.268	33807.7
557.467	34022.73
557.667	34071.89
557.866	33953.1
558.065	33709.39
558.265	33731.92
558.464	33699.16
558.663	34278.73
558.863	33328.47
559.062	34307.4
559.261	33367.38
559.461	34137.42
559.66	33412.44
559.859	33748.31
560.058	33469.78
560.258	33576.28
560.457	33086.81
560.656	33477.97
560.855	33404.25
561.054	33506.65
561.253	33211.74
561.453	32906.59
561.652	33492.31
561.851	33283.42
562.05	33097.05
562.249	33326.42
562.448	33133.92
562.647	33060.19
562.846	33064.28
563.045	33148.25
563.244	32480.61
563.443	32976.22
563.642	32376.17
563.841	32798.05
564.04	32466.28
564.239	32877.92
564.438	32490.85
564.637	32288.1
564.836	32621.92
565.035	32077.16
565.234	32509.29
565.432	31997.29
565.631	32261.48
565.83	32443.75
566.029	31970.67
566.228	32019.82
566.427	31944.05
566.625	31886.7
566.824	31565.17
567.023	32140.65
567.222	31688.05
567.42	31591.8
567.619	31716.72
567.818	31571.32
568.016	31542.64
568.215	31749.49
568.414	31309.18
568.612	31794.54
568.811	31096.19
569.01	31122.81
569.208	30883.2
569.407	31430.01
569.605	30674.31
569.804	30815.62
570.002	30893.44
570.201	30858.62
570.4	30459.27
570.598	30408.07
570.797	30465.41
570.995	30664.07
571.193	30152.07
571.392	30487.94
571.59	30492.04
571.789	30272.9
571.987	30352.77
572.186	30000.52
572.384	30297.48
572.582	30342.53
572.781	30094.73
572.979	29771.15
573.177	30236.04
573.376	30111.11
573.574	29744.53
573.772	29771.15
573.971	29590.93
574.169	29431.19
574.367	29466
574.565	29676.94
574.763	29361.56
574.962	29210.01
575.16	29312.41
575.358	29423
575.556	28667.3
575.754	29265.3
575.952	28575.14
576.151	29392.28
576.349	28812.7
576.547	28945.82
576.745	29033.88
576.943	28990.87
577.141	28831.13
577.339	28962.2
577.537	28732.83
577.735	28386.72
577.933	28057
578.131	28515.75
578.329	27964.84
578.527	28265.89
578.725	27985.32
578.923	28067.24
579.121	28085.67
579.319	28069.29
579.516	28026.28
579.714	27936.17
579.912	27966.89
580.11	27981.23
580.308	27712.94
580.506	27694.51
580.704	27108.79
580.901	27563.44
581.099	27573.68
581.297	26957.24
581.495	27211.19
581.692	27217.33
581.89	26779.07
582.088	27116.98
582.285	27116.98
582.483	26871.23
582.681	26981.82
582.878	26832.32
583.076	26514.88
583.274	26539.46
583.471	26494.4
583.669	26811.84
583.866	26342.85
584.064	26656.19
584.262	25937.35
584.459	26555.84
584.657	26099.14
584.854	26418.63
585.052	25691.6
585.249	25974.22
585.447	26437.06
585.644	25632.21
585.841	25923.02
586.039	26123.72
586.236	25509.33
586.434	25318.87
586.631	25413.07
586.828	25763.28
587.026	25494.99
587.223	25124.31
587.42	25308.63
587.618	25220.56
587.815	24972.76
588.012	25089.49
588.21	25122.26
588.407	25087.45
588.604	24802.78
588.801	24704.48
588.999	24894.94
589.196	24808.92
589.393	24733.15
589.59	24649.18
589.787	24454.62
589.984	24419.81
590.182	23887.34
590.379	24409.57
590.576	24131.05
590.773	24249.83
590.97	23969.26
591.167	24227.3
591.364	23703.02
591.561	24227.3
591.758	23772.65
591.955	24081.89
592.152	23977.45
592.349	23696.88
592.546	23672.3
592.743	23778.79
592.94	23328.24
593.137	23754.22
593.334	23401.97
593.531	23049.72
593.727	23168.5
593.924	23565.81
594.121	23156.21
594.318	22980.09
594.515	22664.7
594.712	23510.51
594.908	22654.46
595.105	22724.09
595.302	22517.25
595.499	22607.36
595.696	22570.49
595.892	22169.09
596.089	22539.77
596.286	22724.09
596.482	22318.59
596.679	22146.56
596.876	22369.79
597.072	22248.96
597.269	22298.11
597.466	21753.35
597.662	21798.41
597.859	21755.4
598.055	21689.87
598.252	21558.8
598.448	21865.99
598.645	21976.58
598.841	21593.61
599.038	21722.63
599.234	21390.86
599.431	21239.31
599.627	21147.15
599.824	21466.64
600.02	21159.44
600.217	21157.39
600.413	21323.28
600.609	20801.05
600.806	20766.23
601.002	20770.33
601.198	20930.07
601.395	20633.11
601.591	20629.02
601.787	20352.54
601.984	20663.83
602.18	20807.19
602.376	20389.41
602.572	20272.67
602.769	20565.53
602.965	20127.27
603.161	20332.06
603.357	20022.82
603.553	20096.55
603.75	20227.62
603.946	19904.04
604.142	20119.07
604.338	19967.52
604.534	19684.9
604.73	19516.97
604.926	19883.56
605.122	19795.5
605.318	19473.96
605.514	19609.13
605.71	19510.83
605.906	19312.17
606.102	19136.05
606.298	19592.75
606.494	19459.63
606.69	19361.33
606.886	19271.22
607.082	19099.19
607.278	18701.88
607.474	18826.81
607.67	19064.37
607.866	19150.39
608.062	19205.68
608.257	18882.1
608.453	18867.77
608.649	18751.03
608.845	18619.96
609.041	18777.65
609.236	18603.58
609.432	18677.3
609.628	18593.34
609.824	18644.54
610.019	18349.63
610.215	18187.84
610.411	18425.4
610.606	18499.13
610.802	18323.01
610.998	18388.54
611.193	18376.25
611.389	18062.91
611.584	18273.85
611.78	18107.97
611.976	18136.64
612.171	18107.97
612.367	18079.3
612.562	17929.8
612.758	17831.49
612.953	17960.52
613.149	18155.07
613.344	17849.92
613.539	18261.57
613.735	17819.21
613.93	17925.7
614.126	17831.49
614.321	17903.17
614.517	17819.21
614.712	17733.19
614.907	17253.97
615.103	17780.29
615.298	17520.2
615.493	17675.85
615.688	17413.71
615.884	17624.65
616.079	17112.66
616.274	17385.04
616.47	17604.17
616.665	17108.56
616.86	17126.99
617.055	17374.8
617.25	17391.18
617.445	17380.94
617.641	17088.08
617.836	17118.8
618.031	16774.74
618.226	17362.51
618.421	16862.8
618.616	17079.89
618.811	16531.03
619.006	17024.59
619.201	16477.79
619.396	16868.95
619.591	16338.52
619.786	16582.23
619.981	16238.17
620.176	16397.92
620.371	16352.86
620.566	16395.87
620.761	16363.1
620.956	16221.79
621.151	15904.35
621.346	16322.14
621.541	15916.64
621.735	16100.96
621.93	15584.87
622.125	15763.04
622.32	15666.79
622.515	15474.28
622.709	15476.33
622.904	15390.31
623.099	15187.57
623.294	15388.27
623.488	15025.78
623.683	15287.92
623.878	14700.15
624.072	15007.34
624.267	14993.01
624.462	14868.08
624.656	14769.78
624.851	14820.98
625.046	14640.76
625.24	14427.77
625.435	14300.8
625.629	14501.5
625.824	14270.08
626.018	14323.32
626.213	13993.6
626.407	14136.96
626.602	13989.5
626.796	13782.66
626.991	13760.13
627.185	13610.63
627.38	13610.63
627.574	13565.57
627.768	13473.42
627.963	13235.85
628.157	13178.51
628.352	13176.46
628.546	13168.27
628.74	13141.64
628.935	12953.23
629.129	13094.54
629.323	12832.4
629.517	12674.71
629.712	12824.21
629.906	12744.34
630.1	12721.81
630.294	12715.67
630.489	12588.69
630.683	12570.26
630.877	12095.13
631.071	12170.91
631.265	12404.38
631.459	12316.31
631.653	12224.15
631.848	12029.6
632.042	12058.27
632.236	12072.61
632.43	11892.38
632.624	11970.21
632.818	11880.1
633.012	11679.4
633.206	11593.38
633.4	11679.4
633.594	11527.85
633.788	11441.83
633.982	11560.61
634.176	11505.32
634.369	11204.27
634.563	11071.15
634.757	11341.48
634.951	10948.27
635.145	11310.76
635.339	11050.67
635.533	10948.27
635.726	10962.61
635.92	10792.62
636.114	10849.97
636.308	10858.16
636.501	10745.52
636.695	10690.23
636.889	10534.58
637.083	10571.44
637.276	10507.96
637.47	10518.2
637.664	10378.93
637.857	10430.13
638.051	10286.78
638.244	10329.78
638.438	10327.74
638.632	9950.91
638.825	10096.32
639.019	10129.08
639.212	9801.41
639.406	9924.29
639.599	9930.43
639.793	9866.94
639.986	9688.77
640.18	9678.53
640.373	9651.91
640.567	9510.6
640.76	9617.09
640.954	9418.44
641.147	9406.15
641.34	9389.77
641.534	9590.47
641.727	9152.2
641.92	9162.44
642.114	9094.86
642.307	9166.54
642.5	9287.37
642.694	8922.83
642.887	8951.5
643.08	9160.39
643.273	9064.14
643.467	8820.43
643.66	8885.97
643.853	8722.13
644.046	8763.09
644.239	8621.78
644.432	8797.9
644.626	8462.04
644.819	8398.55
645.012	8519.38
645.205	8472.28
645.398	8566.48
645.591	8388.31
645.784	8410.84
645.977	8347.35
646.17	8230.62
646.363	8345.3
646.556	8238.81
646.749	8050.39
646.942	8089.31
647.135	8177.37
647.328	8013.53
647.521	7952.09
647.714	7911.13
647.907	7976.67
648.099	7880.41
648.292	8050.39
648.485	8060.63
648.678	7708.38
648.871	7810.78
649.064	7634.66
649.256	7747.3
649.449	7526.11
649.642	7376.61
649.835	7444.2
650.027	7352.04
650.22	7466.72
650.413	7530.21
650.605	7597.79
650.798	7472.87
650.991	7104.23
651.183	7384.8
651.376	7038.7
651.568	7155.43
651.761	7044.84
651.954	7122.66
652.146	7012.07
652.339	7010.03
652.531	7112.42
652.724	6967.02
652.916	6715.12
653.109	6833.9
653.301	6891.24
653.494	7010.03
653.686	6708.97
653.879	6790.89
654.071	6725.36
654.263	6749.93
654.456	6770.41
654.648	6577.9
654.84	6428.4
655.033	6549.23
655.225	6414.07
655.417	6418.16
655.61	6571.76
655.802	6375.16
655.994	6338.29
656.186	6254.33
656.379	6332.15
656.571	6258.42
656.763	6080.25
656.955	6174.46
657.148	6295.29
657.34	6196.98
657.532	6080.25
657.724	6072.06
657.916	5945.08
658.108	6100.73
658.3	5955.32
658.492	5981.95
658.684	5730.05
658.876	5867.26
659.068	5742.33
659.26	5601.02
659.452	5689.09
659.644	5709.57
659.836	5551.87
660.028	5805.82
660.22	5488.39
660.412	5633.79
660.604	5633.79
660.796	5680.89
660.988	5607.17
661.18	5564.16
661.372	5420.8
661.563	5582.59
661.755	5396.23
661.947	5478.15
662.139	5416.71
662.331	5306.12
662.522	5242.63
662.714	5220.1
662.906	5248.77
663.097	5138.18
663.289	5156.61
663.481	5072.65
663.673	5197.57
663.864	5054.22
664.056	5154.57
664.247	5129.99
664.439	4945.67
664.631	5062.41
664.822	4994.83
665.014	4970.25
665.205	5003.02
665.397	5019.4
665.588	4919.05
665.78	4722.45
665.971	4792.08
666.163	4888.33
666.354	4824.84
666.546	4900.62
666.737	4650.77
666.929	4714.25
667.12	4704.01
667.311	4785.93
667.503	4824.84
667.694	4695.82
667.885	4695.82
668.077	4620.05
668.268	4577.04
668.459	4542.22
668.651	4523.79
668.842	4710.16
669.033	4411.15
669.224	4423.44
669.416	4531.98
669.607	4515.6
669.798	4450.07
669.989	4466.45
670.18	4364.05
670.371	4409.11
670.563	4421.39
670.754	4280.08
670.945	4454.16
671.136	4204.31
671.327	4349.71
671.518	4163.35
671.709	4235.03
671.9	4218.64
672.091	4216.6
672.282	4142.87
672.473	4155.16
672.664	4167.45
672.855	4161.3
673.046	4220.69
673.237	4216.6
673.428	4015.9
673.619	4214.55
673.809	4187.93
674	4011.8
674.191	4151.06
674.382	4101.91
674.573	4103.96
674.764	4153.11
674.954	3884.83
675.145	4065.05
675.336	3970.84
675.527	3960.6
675.717	3929.88
675.908	3942.17
676.099	3878.68
676.289	3999.51
676.48	3872.54
676.671	3948.31
676.861	3991.32
677.052	3936.03
677.243	3845.91
677.433	3835.67
677.624	3909.4
677.814	3845.91
678.005	3833.63
678.195	3821.34
678.386	3815.2
678.576	3696.41
678.767	3856.15
678.957	3706.65
679.148	3852.06
679.338	3731.23
679.529	3759.9
679.719	3673.89
679.909	3766.04
680.1	3784.48
680.29	3741.47
680.481	3741.47
680.671	3714.84
680.861	3708.7
681.052	3761.95
681.242	3694.36
681.432	3714.84
681.622	3622.69
681.813	3544.86
682.003	3698.46
682.193	3469.09
682.383	3577.63
682.573	3747.61
682.764	3698.46
682.954	3700.51
683.144	3655.45
683.334	3532.58
683.524	3503.9
683.714	3618.59
683.904	3665.69
684.094	3729.18
684.284	3512.1
684.474	3518.24
684.664	3661.6
684.854	3446.56
685.044	3493.66
685.234	3454.75
685.424	3594.01
685.614	3520.29
685.804	3479.33
685.994	3483.42
686.184	3368.74
686.374	3473.18
686.564	3311.39
686.753	3454.75
686.943	3325.73
687.133	3385.12
687.323	3346.21
687.513	3278.63
687.702	3325.73
687.892	3272.48
688.082	3364.64
688.272	3270.44
688.461	3307.3
688.651	3249.96
688.841	3325.73
689.03	3237.67
689.22	3196.71
689.41	3110.69
689.599	3122.98
689.789	3147.56
689.979	3266.34
690.168	3141.41
690.358	3098.41
690.547	3079.97
690.737	3260.2
690.926	3036.97
691.116	2975.53
691.305	3016.49
691.495	2955.05
691.684	2783.02
691.874	2989.86
692.063	2971.43
692.252	2770.73
692.442	2852.65
692.631	2883.37
692.82	2938.66
693.01	2959.14
693.199	2887.47
693.388	2807.59
693.578	2789.16
693.767	2836.27
693.956	2969.38
694.146	2871.08
694.335	2807.59
694.524	2791.21
694.713	2746.16
694.902	2762.54
695.092	2707.24
695.281	2633.52
695.47	2697
695.659	2510.64
695.848	2709.29
696.037	2557.74
696.226	2692.91
696.415	2627.37
696.604	2658.09
696.793	2672.43
696.982	2619.18
697.171	2570.03
697.36	2529.07
697.549	2438.96
697.738	2459.44
697.927	2520.88
698.116	2580.27
698.305	2574.13
698.494	2549.55
698.683	2541.36
698.872	2643.76
699.061	2502.45
699.25	2506.54
699.438	2346.8
699.627	2502.45
699.816	2379.57
700.005	2387.76
700.193	2475.82
700.382	2518.83
700.571	2334.51
700.76	2463.54
700.948	2395.95
701.137	2402.1
701.326	2373.43
701.514	2443.06
701.703	2477.87
701.892	2293.55
702.08	2463.54
702.269	2340.66
702.457	2367.28
702.646	2443.06
702.834	2354.99
703.023	2385.71
703.212	2359.09
703.4	2350.9
703.589	2201.4
703.777	2418.48
703.965	2254.64
704.154	2348.85
704.342	2373.43
704.531	2375.47
704.719	2230.07
704.907	2254.64
705.096	2246.45
705.284	2209.59
705.472	2381.62
705.661	2348.85
705.849	2381.62
706.037	2336.56
706.226	2316.08
706.414	2264.88
706.602	2379.57
706.79	2326.32
706.979	2412.34
707.167	2250.55
707.355	2295.6
707.543	2199.35
707.731	2371.38
707.919	2357.04
708.107	2240.31
708.296	2260.79
708.484	2144.05
708.672	2354.99
708.86	2232.12
709.048	2185.01
709.236	2316.08
709.424	2240.31
709.612	2258.74
709.8	2328.37
709.988	2303.79
710.176	2346.8
710.364	2273.07
710.551	2307.89
710.739	2303.79
710.927	2285.36
711.115	2406.19
711.303	2289.46
711.491	2357.04
711.679	2307.89
711.866	2305.84
712.054	2275.12
712.242	2185.01
712.43	2314.03
712.617	2193.2
712.805	2281.27
712.993	2289.46
713.181	2242.36
713.368	2328.37
713.556	2340.66
713.744	2264.88
713.931	2201.4
714.119	2389.81
714.306	2279.22
714.494	2250.55
714.682	2381.62
714.869	2297.65
715.057	2324.27
715.244	2236.21
715.432	2334.51
715.619	2318.13
715.807	2324.27
715.994	2381.62
716.182	2307.89
716.369	2410.29
716.556	2307.89
716.744	2367.28
716.931	2338.61
717.119	2324.27
717.306	2350.9
717.493	2371.38
717.681	2320.18
717.868	2463.54
718.055	2346.8
718.242	2328.37
718.43	2402.1
718.617	2459.44
718.804	2363.19
718.991	2357.04
719.179	2373.43
719.366	2365.23
719.553	2340.66
719.74	2271.03
719.927	2418.48
720.114	2373.43
720.301	2428.72
720.488	2357.04
720.676	2369.33
720.863	2316.08
721.05	2301.75
721.237	2252.59
721.424	2332.47
721.611	2461.49
721.798	2264.88
721.985	2570.03
722.172	2377.52
722.358	2291.51
722.545	2449.2
722.732	2279.22
722.919	2344.75
723.106	2273.07
723.293	2273.07
723.48	2398
723.667	2488.11
723.853	2477.87
724.04	2496.3
724.227	2377.52
724.414	2373.43
724.6	2311.99
724.787	2504.5
724.974	2512.69
725.161	2418.48
725.347	2438.96
725.534	2357.04
725.72	2359.09
725.907	2510.64
726.094	2398
726.28	2357.04
726.467	2479.92
726.653	2381.62
726.84	2443.06
727.027	2504.5
727.213	2432.82
727.4	2414.38
727.586	2391.86
727.773	2518.83
727.959	2492.21
728.145	2514.73
728.332	2520.88
728.518	2496.3
728.705	2520.88
728.891	2432.82
729.077	2443.06
729.264	2481.97
729.45	2438.96
729.636	2514.73
729.823	2441.01
730.009	2488.11
730.195	2520.88
730.382	2584.37
730.568	2357.04
730.754	2535.21
730.94	2533.17
731.126	2471.73
731.313	2553.65
731.499	2541.36
731.685	2502.45
731.871	2426.67
732.057	2502.45
732.243	2477.87
732.429	2516.78
732.615	2518.83
732.801	2518.83
732.987	2490.16
733.173	2570.03
733.359	2545.45
733.545	2580.27
733.731	2522.93
733.917	2447.15
734.103	2467.63
734.289	2524.97
734.475	2453.3
734.661	2475.82
734.847	2475.82
735.033	2447.15
735.219	2582.32
735.404	2506.54
735.59	2586.41
735.776	2479.92
735.962	2543.41
736.148	2479.92
736.333	2400.05
736.519	2398
736.705	2617.13
736.89	2510.64
737.076	2588.46
737.262	2420.53
737.447	2463.54
737.633	2498.35
737.819	2565.93
738.004	2438.96
738.19	2426.67
738.375	2582.32
738.561	2467.63
738.747	2430.77
738.932	2436.91
739.118	2572.08
739.303	2354.99
739.489	2410.29
739.674	2529.07
739.859	2268.98
740.045	2486.06
740.23	2379.57
740.416	2387.76
740.601	2453.3
740.786	2393.9
740.972	2340.66
741.157	2277.17
741.342	2311.99
741.528	2348.85
741.713	2420.53
741.898	2303.79
742.084	2297.65
742.269	2369.33
742.454	2340.66
742.639	2398
742.824	2314.03
743.01	2346.8
743.195	2359.09
743.38	2242.36
743.565	2301.75
743.75	2266.93
743.935	2213.68
744.12	2289.46
744.305	2207.54
744.49	2201.4
744.675	2191.16
744.86	2172.72
745.045	2213.68
745.23	2152.24
745.415	2279.22
745.6	2191.16
745.785	2142
745.97	2201.4
746.155	2084.66
746.34	2029.37
746.525	2064.18
746.71	2129.72
746.895	1955.64
747.079	2158.39
747.264	2049.85
747.449	1967.93
747.634	2088.76
747.819	2047.8
748.003	2047.8
748.188	2062.13
748.373	2025.27
748.557	2017.08
748.742	2000.69
748.927	1996.6
749.111	1914.68
749.296	1998.65
749.481	2025.27
749.665	1939.26
749.85	1886.01
750.034	1855.29
750.219	2092.85
750.404	1791.8
750.588	1836.86
750.773	1775.42
750.957	1881.91
751.141	1738.55
751.326	1888.06
751.51	1873.72
751.695	1795.9
751.879	1718.08
752.064	1847.1
752.248	1662.78
752.432	1759.03
752.617	1748.79
752.801	1754.94
752.985	1832.76
753.17	1748.79
753.354	1687.36
753.538	1660.73
753.722	1630.01
753.907	1677.12
754.091	1568.57
754.275	1554.24
754.459	1691.45
754.643	1625.92
754.828	1562.43
755.012	1568.57
755.196	1584.96
755.38	1548.09
755.564	1550.14
755.748	1523.52
755.932	1578.81
756.116	1560.38
756.3	1488.7
756.484	1527.61
756.668	1472.32
756.852	1396.54
757.036	1566.53
757.22	1400.64
757.404	1423.17
757.588	1455.94
757.772	1533.76
757.956	1517.37
758.14	1419.07
758.323	1322.82
758.507	1464.13
758.691	1322.82
758.875	1367.87
759.059	1468.22
759.242	1341.25
759.426	1300.29
759.61	1423.17
759.794	1320.77
759.977	1298.24
760.161	1304.39
760.345	1296.19
760.528	1337.15
760.712	1265.47
760.895	1212.23
761.079	1359.68
761.263	1316.67
761.446	1185.6
761.63	1206.08
761.813	1312.58
761.997	1142.6
762.18	1226.56
762.364	1341.25
762.547	1226.56
762.731	1253.19
762.914	1230.66
763.098	1222.47
763.281	1185.6
763.464	1214.27
763.648	1126.21
763.831	1158.98
764.015	1134.4
764.198	1144.64
764.381	1128.26
764.564	1095.49
764.748	1191.75
764.931	1187.65
765.114	1017.67
765.297	1120.07
765.481	1120.07
765.664	1156.93
765.847	1179.46
766.03	1038.15
766.213	1013.57
766.397	1034.05
766.58	1060.68
766.763	1101.64
766.946	1025.86
767.129	1136.45
767.312	993.09
767.495	1070.92
767.678	1099.59
767.861	1107.78
768.044	1027.91
768.227	1075.01
768.41	1103.68
768.593	1068.87
768.776	989
768.959	945.99
769.142	962.37
769.324	991.05
769.507	1038.15
769.69	1036.1
769.873	978.76
770.056	1042.25
770.239	960.33
770.421	1085.25
770.604	960.33
770.787	976.71
770.97	954.18
771.152	962.37
771.335	974.66
771.518	919.37
771.7	1009.48
771.883	956.23
772.066	909.13
772.248	888.65
772.431	954.18
772.613	898.89
772.796	874.31
772.978	905.03
773.161	997.19
773.343	814.92
773.526	882.5
773.708	989
773.891	923.46
774.073	837.45
774.256	925.51
774.438	919.37
774.621	796.49
774.803	814.92
774.985	825.16
775.168	767.82
775.35	821.06
775.532	804.68
775.715	800.59
775.897	765.77
776.079	812.87
776.261	837.45
776.444	898.89
776.626	794.44
776.808	841.54
776.99	694.09
777.173	802.63
777.355	755.53
777.537	735.05
777.719	718.67
777.901	649.04
778.083	765.77
778.265	630.6
778.447	702.28
778.629	759.63
778.811	710.47
778.993	646.99
779.175	597.84
779.357	681.8
779.539	730.95
779.721	710.47
779.903	692.04
780.085	724.81
780.267	728.91
780.449	601.93
780.631	640.84
780.812	694.09
780.994	655.18
781.176	663.37
781.358	644.94
781.54	644.94
781.721	589.64
781.903	651.08
782.085	581.45
782.267	618.32
782.448	560.97
782.63	616.27
782.812	636.75
782.993	563.02
783.175	612.17
783.357	524.11
783.538	608.08
783.72	632.65
783.901	593.74
784.083	536.4
784.264	558.92
784.446	603.98
784.627	487.25
784.809	540.49
784.99	571.21
785.172	540.49
785.353	522.06
785.535	501.58
785.716	487.25
785.897	450.38
786.079	511.82
786.26	546.64
786.441	511.82
786.623	407.38
786.804	487.25
786.985	497.49
787.167	436.05
787.348	427.85
787.529	431.95
787.71	513.87
787.891	444.24
788.073	513.87
788.254	481.1
788.435	458.57
788.616	395.09
788.797	415.57
788.978	501.58
789.159	374.61
789.34	434
789.522	399.18
789.703	411.47
789.884	456.53
790.065	429.9
790.246	538.45
790.427	411.47
790.607	415.57
790.788	429.9
790.969	345.94
791.15	415.57
791.331	372.56
791.512	393.04
791.693	434
791.874	421.71
792.054	374.61
792.235	431.95
792.416	374.61
792.597	466.77
792.778	403.28
792.958	339.79
793.139	366.42
793.32	380.75
793.5	290.64
793.681	419.66
793.862	311.12
794.042	425.81
794.223	323.41
794.404	300.88
794.584	380.75
794.765	407.38
794.945	366.42
795.126	335.7
795.306	364.37
795.487	331.6
795.667	294.74
795.848	366.42
796.028	327.5
796.209	331.6
796.389	290.64
796.57	358.22
796.75	253.78
796.93	325.46
797.111	272.21
797.291	294.74
797.471	259.92
797.652	323.41
797.832	337.74
798.012	315.22
798.192	274.26
798.373	282.45
798.553	296.78
798.733	278.35
798.913	284.5
799.093	294.74
799.274	319.31
799.454	288.59
799.634	350.03
799.814	298.83
799.994	313.17
800.174	347.98
800.354	360.27
800.534	245.59
800.714	311.12
800.894	243.54
801.074	292.69
801.254	245.59
801.434	266.07
801.614	296.78
801.794	192.34
801.974	669.52
802.154	264.02
802.334	229.2
802.514	290.64
802.693	270.16
802.873	235.35
803.053	294.74
803.233	225.11
803.413	233.3
803.592	253.78
803.772	282.45
803.952	190.29
804.131	286.54
804.311	165.71
804.491	268.11
804.67	241.49
804.85	354.13
805.03	300.88
805.209	288.59
805.389	225.11
805.568	233.3
805.748	212.82
805.928	227.15
806.107	223.06
806.287	223.06
806.466	212.82
806.646	182.1
806.825	239.44
807.004	190.29
807.184	161.62
807.363	210.77
807.543	116.56
807.722	186.19
807.901	175.95
808.081	274.26
808.26	225.11
808.439	212.82
808.619	190.29
808.798	190.29
808.977	210.77
809.156	239.44
809.336	241.49
809.515	192.34
809.694	210.77
809.873	188.24
810.052	192.34
810.231	210.77
810.411	225.11
810.59	317.26
810.769	243.54
810.948	221.01
811.127	178
811.306	198.48
811.485	157.52
811.664	237.39
811.843	223.06
812.022	198.48
812.201	227.15
812.38	223.06
812.559	169.81
812.737	173.91
812.916	210.77
813.095	184.15
813.274	223.06
813.453	212.82
813.632	135
813.811	145.24
813.989	96.08
814.168	221.01
814.347	147.28
814.526	163.67
814.704	227.15
814.883	257.87
815.062	165.71
815.24	137.04
815.419	169.81
815.598	202.58
815.776	210.77
815.955	198.48
816.133	135
816.312	132.95
816.49	157.52
816.669	108.37
816.847	178
817.026	194.39
817.204	157.52
817.383	212.82
817.561	94.04
817.74	182.1
817.918	186.19
818.097	190.29
818.275	141.14
818.453	157.52
818.632	188.24
818.81	182.1
818.988	128.85
819.167	141.14
819.345	173.91
819.523	87.89
819.701	114.52
819.879	143.19
820.058	135
820.236	110.42
820.414	132.95
820.592	173.91
820.77	100.18
820.948	145.24
821.127	122.71
821.305	135
821.483	71.51
821.661	141.14
821.839	182.1
822.017	184.15
822.195	118.61
822.373	155.47
822.551	104.28
822.729	122.71
822.907	159.57
823.085	167.76
823.262	108.37
823.44	104.28
823.618	87.89
823.796	102.23
823.974	83.8
824.152	167.76
824.329	149.33
824.507	161.62
824.685	118.61
824.863	169.81
825.04	83.8
825.218	91.99
825.396	73.56
825.574	114.52
825.751	55.12
825.929	137.04
826.107	151.38
826.284	132.95
826.462	116.56
826.639	67.41
826.817	85.84
826.994	124.76
827.172	112.47
827.349	178
827.527	96.08
827.704	159.57
827.882	128.85
828.059	108.37
828.237	202.58
828.414	192.34
828.591	38.74
828.769	91.99
828.946	69.46
829.124	135
829.301	141.14
829.478	167.76
829.655	132.95
829.833	96.08
830.01	112.47
830.187	124.76
830.364	96.08
830.542	94.04
830.719	155.47
830.896	182.1
831.073	96.08
831.25	112.47
831.427	120.66
831.604	167.76
831.782	42.84
831.959	81.75
832.136	143.19
832.313	167.76
832.49	79.7
832.667	116.56
832.844	83.8
833.021	46.93
833.198	89.94
833.374	85.84
833.551	124.76
833.728	89.94
833.905	139.09
834.082	5.97
834.259	108.37
834.436	169.81
834.612	48.98
834.789	91.99
834.966	118.61
835.143	46.93
835.319	100.18
835.496	161.62
835.673	71.51
835.85	83.8
836.026	153.43
836.203	77.65
836.38	100.18
836.556	85.84
836.733	94.04
836.909	139.09
837.086	91.99
837.262	85.84
837.439	135
837.616	110.42
837.792	10.07
837.968	75.6
838.145	44.88
838.321	73.56
838.498	30.55
838.674	116.56
838.851	96.08
839.027	44.88
839.203	100.18
839.38	135
839.556	75.6
839.732	51.03
839.909	79.7
840.085	46.93
840.261	89.94
840.437	79.7
840.614	42.84
840.79	96.08
840.966	91.99
841.142	112.47
841.318	71.51
841.494	91.99
841.671	63.32
841.847	22.36
842.023	26.45
842.199	16.21
842.375	28.5
842.551	42.84
842.727	59.22
842.903	153.43
843.079	71.51
843.255	98.13
843.431	71.51
843.607	135
843.783	22.36
843.959	106.32
844.134	63.32
844.31	94.04
844.486	61.27
844.662	126.8
844.838	100.18
845.013	104.28
845.189	51.03
845.365	-0.17
845.541	81.75
845.716	44.88
845.892	112.47
846.068	32.6
846.244	38.74
846.419	79.7
846.595	16.21
846.77	98.13
846.946	96.08
847.122	30.55
847.297	42.84
847.473	28.5
847.648	-4.27
847.824	63.32
847.999	57.17
848.175	36.69
848.35	83.8
848.526	81.75
848.701	69.46
848.876	87.89
849.052	85.84
849.227	104.28
849.403	61.27
849.578	12.12
849.753	96.08
849.929	77.65
850.104	1.88
850.279	-0.17
850.454	83.8
850.63	14.17
850.805	12.12
850.98	59.22
851.155	40.79
851.33	79.7
851.505	34.64
851.681	94.04
851.856	12.12
852.031	3.93
852.206	-24.75
852.381	20.31
852.556	48.98
852.731	30.55
852.906	38.74
853.081	73.56
853.256	28.5
853.431	118.61
853.606	83.8
853.781	53.08
853.956	1.88
854.131	83.8
854.305	40.79
854.48	20.31
854.655	94.04
854.83	77.65
855.005	20.31
855.18	42.84
855.354	63.32
855.529	53.08
855.704	10.07
855.879	102.23
856.053	69.46
856.228	81.75
856.403	85.84
856.577	20.31
856.752	28.5
856.926	24.4
857.101	24.4
857.276	8.02
857.45	-12.46
857.625	96.08
857.799	91.99
857.974	5.97
858.148	-14.51
858.323	30.55
858.497	-2.22
858.672	34.64
858.846	30.55
859.02	48.98
859.195	46.93
859.369	-59.56
859.543	71.51
859.718	18.26
859.892	-10.41
860.066	61.27
860.241	34.64
860.415	57.17
860.589	38.74
860.763	48.98
860.938	-10.41
861.112	-28.84
861.286	91.99
861.46	51.03
861.634	48.98
861.808	77.65
861.982	22.36
862.157	30.55
862.331	38.74
862.505	12.12
862.679	20.31
862.853	96.08
863.027	51.03
863.201	91.99
863.375	51.03
863.549	55.12
863.722	22.36
863.896	79.7
864.07	-6.31
864.244	5.97
864.418	46.93
864.592	14.17
864.766	-10.41
864.939	51.03
865.113	28.5
865.287	65.36
865.461	24.4
865.634	-2.22
865.808	59.22
865.982	34.64
866.156	-14.51
866.329	44.88
866.503	73.56
866.676	-12.46
866.85	18.26
867.024	30.55
867.197	48.98
867.371	40.79
867.544	18.26
867.718	18.26
867.891	22.36
868.065	-6.31
868.238	-34.99
868.412	96.08
868.585	28.5
868.759	81.75
868.932	106.32
869.105	22.36
869.279	-34.99
869.452	-22.7
869.625	53.08
869.799	61.27
869.972	-51.37
870.145	10.07
870.319	24.4
870.492	61.27
870.665	20.31
870.838	36.69
871.011	-4.27
871.185	24.4
871.358	3.93
871.531	38.74
871.704	-47.27
871.877	104.28
872.05	81.75
872.223	42.84
872.396	22.36
872.569	-8.36
872.742	51.03
872.915	83.8
873.088	28.5
873.261	53.08
873.434	12.12
873.607	14.17
873.78	36.69
873.953	51.03
874.126	77.65
874.299	30.55
874.471	-77.99
874.644	-147.62
874.817	51.03
874.99	71.51
875.163	26.45
875.335	36.69
875.508	-43.18
875.681	5.97
875.853	73.56
876.026	91.99
876.199	87.89
876.371	116.56
876.544	28.5
876.717	-69.8
876.889	14.17
877.062	8.02
877.234	28.5
877.407	30.55
877.579	1.88
877.752	5.97
877.924	18.26
878.097	89.94
878.269	69.46
878.442	3.93
878.614	12.12
878.786	55.12
878.959	63.32
879.131	-6.31
879.303	-47.27
879.476	-2.22
879.648	-2.22
879.82	59.22
879.993	5.97
880.165	69.46
880.337	-26.79
880.509	26.45
880.681	-18.6
880.854	28.5
881.026	34.64
881.198	120.66
881.37	-2.22
881.542	3.93
881.714	-2.22
881.886	-0.17
882.058	18.26
882.23	44.88
882.402	30.55
882.574	-45.23
882.746	18.26
882.918	5.97
883.09	-18.6
883.262	46.93
883.434	-51.37
883.606	22.36
883.778	67.41
883.95	14.17
884.122	46.93
884.293	63.32
884.465	18.26
884.637	96.08
884.809	18.26
884.98	-34.99
885.152	63.32
885.324	71.51
885.496	30.55
885.667	14.17
885.839	-41.13
886.011	59.22
886.182	1.88
886.354	-20.65
886.525	57.17
886.697	-2.22
886.869	8.02
887.04	26.45
887.212	-14.51
887.383	30.55
887.555	-59.56
887.726	46.93
887.897	5.97
888.069	22.36
888.24	-22.7
888.412	-6.31
888.583	18.26
888.754	69.46
888.926	40.79
889.097	-16.55
889.268	-10.41
889.44	18.26
889.611	-10.41
889.782	-20.65
889.953	30.55
890.125	71.51
890.296	26.45
890.467	5.97
890.638	-59.56
890.809	38.74
890.98	8.02
891.151	-8.36
891.323	89.94
891.494	-20.65
891.665	42.84
891.836	38.74
892.007	57.17
892.178	59.22
892.349	22.36
892.52	-26.79
892.691	24.4
892.862	18.26
893.032	-30.89
893.203	8.02
893.374	26.45
893.545	34.64
893.716	-14.51
893.887	-39.08
894.057	26.45
894.228	26.45
894.399	-6.31
894.57	20.31
894.74	61.27
894.911	-61.61
895.082	8.02
895.253	42.84
895.423	44.88
895.594	69.46
895.764	63.32
895.935	46.93
896.106	30.55
896.276	-2.22
896.447	20.31
896.617	14.17
896.788	-2.22
896.958	42.84
897.129	3.93
897.299	18.26
897.47	-6.31
897.64	161.62
897.81	77.65
897.981	65.36
898.151	22.36
898.322	26.45
898.492	-22.7
898.662	26.45
898.832	-2.22
899.003	20.31
899.173	-12.46
899.343	-0.17
899.513	-14.51
