Data from USB4F104151__17__11-29-48-967.txt Node

Date: Fri Mar 14 11:29:48 EDT 2025
User: louis
Spectrometer: USB4F10415
Trigger mode: 4
Integration Time (sec): 5.000000E-2
Scans to average: 1
Electric dark correction enabled: true
Nonlinearity correction enabled: false
Boxcar width: 0
XAxis mode: Wavelengths
Number of Pixels in Spectrum: 3648
>>>>>Begin Spectral Data<<<<<
178.204	-151.89
178.424	-151.89
178.644	-151.89
178.864	-155.99
179.084	-115.03
179.304	13.99
179.524	-35.16
179.744	-10.58
179.964	7.85
180.184	-53.59
180.404	11.95
180.624	57
180.844	16.04
181.064	3.75
181.283	-65.88
181.503	-49.49
181.723	104.11
181.943	16.04
182.163	57
182.383	32.43
182.602	24.23
182.822	-16.73
183.042	30.38
183.262	40.62
183.482	97.96
183.701	28.33
183.921	69.29
184.141	-6.49
184.361	71.34
184.58	46.76
184.8	20.14
185.02	97.96
185.239	65.19
185.459	61.1
185.679	54.95
185.898	32.43
186.118	100.01
186.338	97.96
186.557	95.91
186.777	-43.35
186.997	36.52
187.216	85.67
187.436	116.39
187.655	65.19
187.875	36.52
188.095	65.19
188.314	52.91
188.534	65.19
188.753	61.1
188.973	126.63
189.192	69.29
189.412	52.91
189.631	122.54
189.851	-26.96
190.07	63.15
190.29	44.71
190.509	48.81
190.729	89.77
190.948	65.19
191.168	167.59
191.387	120.49
191.607	32.43
191.826	61.1
192.045	24.23
192.265	-18.77
192.484	40.62
192.704	42.67
192.923	7.85
193.142	120.49
193.362	87.72
193.581	132.78
193.8	110.25
194.02	32.43
194.239	46.76
194.458	48.81
194.678	46.76
194.897	20.14
195.116	38.57
195.335	32.43
195.555	54.95
195.774	1.71
195.993	89.77
196.212	77.48
196.432	-16.73
196.651	85.67
196.87	50.86
197.089	110.25
197.308	18.09
197.528	65.19
197.747	16.04
197.966	93.87
198.185	95.91
198.404	-2.39
198.623	65.19
198.842	116.39
199.062	54.95
199.281	30.38
199.5	97.96
199.719	50.86
199.938	126.63
200.157	-12.63
200.376	54.95
200.595	57
200.814	-24.92
201.033	36.52
201.252	40.62
201.471	-8.53
201.69	52.91
201.909	24.23
202.128	122.54
202.347	67.24
202.566	40.62
202.785	40.62
203.004	9.9
203.223	212.65
203.442	97.96
203.661	71.34
203.879	16.04
204.098	24.23
204.317	13.99
204.536	38.57
204.755	63.15
204.974	114.34
205.193	24.23
205.411	69.29
205.63	22.19
205.849	91.82
206.068	87.72
206.287	5.8
206.505	59.05
206.724	5.8
206.943	52.91
207.162	65.19
207.381	26.28
207.599	11.95
207.818	85.67
208.037	73.39
208.255	122.54
208.474	-6.49
208.693	110.25
208.911	28.33
209.13	110.25
209.349	52.91
209.567	69.29
209.786	44.71
210.005	97.96
210.223	93.87
210.442	11.95
210.661	-10.58
210.879	44.71
211.098	32.43
211.316	79.53
211.535	95.91
211.753	52.91
211.972	100.01
212.191	42.67
212.409	50.86
212.628	48.81
212.846	1.71
213.065	69.29
213.283	106.15
213.502	3.75
213.72	22.19
213.938	54.95
214.157	57
214.375	161.45
214.594	79.53
214.812	40.62
215.031	22.19
215.249	102.06
215.467	16.04
215.686	81.58
215.904	155.3
216.122	79.53
216.341	79.53
216.559	34.47
216.778	32.43
216.996	128.68
217.214	32.43
217.432	77.48
217.651	-0.34
217.869	38.57
218.087	61.1
218.306	16.04
218.524	46.76
218.742	-4.44
218.96	54.95
219.179	48.81
219.397	48.81
219.615	157.35
219.833	28.33
220.051	-0.34
220.27	87.72
220.488	28.33
220.706	57
220.924	26.28
221.142	44.71
221.36	79.53
221.578	138.92
221.796	81.58
222.015	40.62
222.233	-2.39
222.451	89.77
222.669	-0.34
222.887	26.28
223.105	-45.4
223.323	100.01
223.541	-8.53
223.759	71.34
223.977	28.33
224.195	143.02
224.413	-0.34
224.631	81.58
224.849	30.38
225.067	65.19
225.285	-63.83
225.503	57
225.721	38.57
225.939	87.72
226.157	65.19
226.375	124.58
226.592	-41.3
226.81	16.04
227.028	30.38
227.246	143.02
227.464	44.71
227.682	13.99
227.9	30.38
228.117	65.19
228.335	28.33
228.553	-2.39
228.771	143.02
228.989	7.85
229.206	97.96
229.424	13.99
229.642	-8.53
229.86	57
230.077	48.81
230.295	38.57
230.513	75.43
230.731	91.82
230.948	95.91
231.166	69.29
231.384	81.58
231.601	-4.44
231.819	153.26
232.037	11.95
232.254	63.15
232.472	13.99
232.689	50.86
232.907	81.58
233.125	30.38
233.342	48.81
233.56	42.67
233.777	57
233.995	-0.34
234.213	73.39
234.43	32.43
234.648	50.86
234.865	40.62
235.083	126.63
235.3	54.95
235.518	52.91
235.735	30.38
235.953	83.63
236.17	16.04
236.388	81.58
236.605	34.47
236.822	52.91
237.04	57
237.257	-41.3
237.475	28.33
237.692	71.34
237.909	71.34
238.127	112.3
238.344	151.21
238.562	20.14
238.779	18.09
238.996	-49.49
239.214	16.04
239.431	65.19
239.648	20.14
239.865	32.43
240.083	54.95
240.3	-8.53
240.517	81.58
240.735	114.34
240.952	79.53
241.169	95.91
241.386	93.87
241.603	24.23
241.821	-12.63
242.038	138.92
242.255	30.38
242.472	-6.49
242.689	110.25
242.907	73.39
243.124	57
243.341	87.72
243.558	40.62
243.775	87.72
243.992	46.76
244.209	73.39
244.426	52.91
244.643	165.54
244.86	7.85
245.078	104.11
245.295	114.34
245.512	106.15
245.729	-4.44
245.946	57
246.163	130.73
246.38	28.33
246.597	-4.44
246.814	13.99
247.031	97.96
247.248	65.19
247.464	54.95
247.681	30.38
247.898	69.29
248.115	20.14
248.332	30.38
248.549	32.43
248.766	134.82
248.983	93.87
249.2	65.19
249.417	112.3
249.633	22.19
249.85	79.53
250.067	3.75
250.284	57
250.501	73.39
250.717	134.82
250.934	-57.68
251.151	120.49
251.368	-4.44
251.585	87.72
251.801	106.15
252.018	44.71
252.235	73.39
252.451	73.39
252.668	7.85
252.885	73.39
253.102	89.77
253.318	59.05
253.535	-37.2
253.752	93.87
253.968	11.95
254.185	85.67
254.401	87.72
254.618	40.62
254.835	65.19
255.051	95.91
255.268	40.62
255.484	61.1
255.701	11.95
255.917	67.24
256.134	-2.39
256.351	87.72
256.567	-0.34
256.784	-57.68
257	-51.54
257.217	30.38
257.433	65.19
257.65	1.71
257.866	73.39
258.082	-0.34
258.299	3.75
258.515	40.62
258.732	-24.92
258.948	16.04
259.165	32.43
259.381	16.04
259.597	42.67
259.814	40.62
260.03	-20.82
260.246	91.82
260.463	93.87
260.679	81.58
260.895	104.11
261.112	59.05
261.328	28.33
261.544	3.75
261.761	128.68
261.977	63.15
262.193	-4.44
262.409	71.34
262.626	48.81
262.842	52.91
263.058	30.38
263.274	22.19
263.49	-8.53
263.707	93.87
263.923	28.33
264.139	22.19
264.355	-0.34
264.571	81.58
264.787	65.19
265.004	145.06
265.22	-24.92
265.436	-8.53
265.652	22.19
265.868	44.71
266.084	-12.63
266.3	63.15
266.516	18.09
266.732	97.96
266.948	38.57
267.164	54.95
267.38	28.33
267.596	89.77
267.812	163.5
268.028	-4.44
268.244	54.95
268.46	-10.58
268.676	52.91
268.892	-31.06
269.108	40.62
269.324	73.39
269.54	63.15
269.756	65.19
269.972	50.86
270.188	40.62
270.403	24.23
270.619	3.75
270.835	71.34
271.051	159.4
271.267	24.23
271.483	-39.25
271.698	42.67
271.914	69.29
272.13	40.62
272.346	16.04
272.562	48.81
272.777	95.91
272.993	52.91
273.209	22.19
273.425	18.09
273.64	63.15
273.856	120.49
274.072	38.57
274.287	57
274.503	36.52
274.719	52.91
274.934	18.09
275.15	52.91
275.366	54.95
275.581	13.99
275.797	75.43
276.012	20.14
276.228	63.15
276.444	85.67
276.659	69.29
276.875	32.43
277.09	114.34
277.306	7.85
277.521	112.3
277.737	97.96
277.952	30.38
278.168	65.19
278.383	44.71
278.599	61.1
278.814	106.15
279.03	63.15
279.245	122.54
279.461	40.62
279.676	63.15
279.892	-45.4
280.107	59.05
280.322	9.9
280.538	130.73
280.753	32.43
280.969	54.95
281.184	7.85
281.399	110.25
281.615	104.11
281.83	30.38
282.045	-8.53
282.26	-29.01
282.476	13.99
282.691	32.43
282.906	46.76
283.122	116.39
283.337	52.91
283.552	71.34
283.767	44.71
283.983	11.95
284.198	46.76
284.413	95.91
284.628	24.23
284.843	52.91
285.058	83.63
285.274	69.29
285.489	7.85
285.704	28.33
285.919	48.81
286.134	93.87
286.349	24.23
286.564	-4.44
286.779	122.54
286.995	79.53
287.21	-0.34
287.425	65.19
287.64	30.38
287.855	73.39
288.07	-0.34
288.285	79.53
288.5	79.53
288.715	134.82
288.93	81.58
289.145	-8.53
289.36	59.05
289.575	63.15
289.79	114.34
290.004	-0.34
290.219	40.62
290.434	28.33
290.649	30.38
290.864	-12.63
291.079	-20.82
291.294	118.44
291.509	65.19
291.724	32.43
291.938	65.19
292.153	30.38
292.368	120.49
292.583	83.63
292.798	130.73
293.012	61.1
293.227	97.96
293.442	20.14
293.657	65.19
293.871	61.1
294.086	44.71
294.301	126.63
294.516	69.29
294.73	52.91
294.945	24.23
295.16	44.71
295.374	57
295.589	179.88
295.804	87.72
296.018	63.15
296.233	73.39
296.447	32.43
296.662	7.85
296.877	26.28
297.091	9.9
297.306	30.38
297.52	5.8
297.735	28.33
297.949	61.1
298.164	97.96
298.378	36.52
298.593	36.52
298.807	22.19
299.022	36.52
299.236	24.23
299.451	38.57
299.665	36.52
299.88	-20.82
300.094	11.95
300.309	93.87
300.523	57
300.737	-12.63
300.952	48.81
301.166	34.47
301.381	34.47
301.595	-4.44
301.809	81.58
302.024	77.48
302.238	-51.54
302.452	155.3
302.667	114.34
302.881	34.47
303.095	145.06
303.309	24.23
303.524	3.75
303.738	102.06
303.952	106.15
304.166	145.06
304.381	-53.59
304.595	134.82
304.809	52.91
305.023	57
305.237	11.95
305.452	16.04
305.666	95.91
305.88	63.15
306.094	104.11
306.308	32.43
306.522	57
306.736	110.25
306.95	91.82
307.164	-29.01
307.379	-29.01
307.593	81.58
307.807	122.54
308.021	79.53
308.235	18.09
308.449	18.09
308.663	59.05
308.877	83.63
309.091	69.29
309.305	-20.82
309.519	46.76
309.733	91.82
309.947	46.76
310.161	40.62
310.374	71.34
310.588	40.62
310.802	-55.64
311.016	57
311.23	89.77
311.444	16.04
311.658	54.95
311.872	124.58
312.085	147.11
312.299	16.04
312.513	65.19
312.727	1.71
312.941	20.14
313.154	73.39
313.368	7.85
313.582	38.57
313.796	11.95
314.009	30.38
314.223	93.87
314.437	151.21
314.651	44.71
314.864	18.09
315.078	1.71
315.292	-0.34
315.505	59.05
315.719	65.19
315.933	73.39
316.146	97.96
316.36	34.47
316.573	63.15
316.787	138.92
317.001	-45.4
317.214	32.43
317.428	102.06
317.641	13.99
317.855	32.43
318.068	79.53
318.282	79.53
318.495	63.15
318.709	36.52
318.922	57
319.136	132.78
319.349	93.87
319.563	112.3
319.776	83.63
319.99	20.14
320.203	30.38
320.417	-16.73
320.63	32.43
320.843	104.11
321.057	165.54
321.27	52.91
321.483	9.9
321.697	7.85
321.91	57
322.124	114.34
322.337	102.06
322.55	-4.44
322.763	30.38
322.977	46.76
323.19	63.15
323.403	48.81
323.617	-37.2
323.83	87.72
324.043	48.81
324.256	44.71
324.469	77.48
324.683	81.58
324.896	57
325.109	138.92
325.322	30.38
325.535	91.82
325.748	44.71
325.962	59.05
326.175	52.91
326.388	149.16
326.601	-33.11
326.814	38.57
327.027	147.11
327.24	77.48
327.453	-65.88
327.666	122.54
327.879	122.54
328.092	106.15
328.305	73.39
328.518	102.06
328.731	-4.44
328.944	-0.34
329.157	24.23
329.37	34.47
329.583	106.15
329.796	81.58
330.009	52.91
330.222	59.05
330.435	61.1
330.648	63.15
330.861	65.19
331.073	108.2
331.286	93.87
331.499	40.62
331.712	65.19
331.925	85.67
332.138	52.91
332.35	40.62
332.563	61.1
332.776	93.87
332.989	59.05
333.202	52.91
333.414	63.15
333.627	30.38
333.84	34.47
334.053	93.87
334.265	97.96
334.478	63.15
334.691	69.29
334.903	106.15
335.116	24.23
335.329	32.43
335.541	65.19
335.754	97.96
335.966	13.99
336.179	65.19
336.392	73.39
336.604	63.15
336.817	46.76
337.029	77.48
337.242	30.38
337.454	134.82
337.667	120.49
337.88	97.96
338.092	13.99
338.305	65.19
338.517	79.53
338.729	79.53
338.942	24.23
339.154	26.28
339.367	40.62
339.579	85.67
339.792	57
340.004	102.06
340.217	65.19
340.429	-10.58
340.641	73.39
340.854	-0.34
341.066	69.29
341.278	48.81
341.491	57
341.703	132.78
341.915	57
342.128	40.62
342.34	69.29
342.552	63.15
342.764	79.53
342.977	93.87
343.189	114.34
343.401	69.29
343.613	57
343.826	57
344.038	36.52
344.25	89.77
344.462	7.85
344.674	42.67
344.886	57
345.099	97.96
345.311	126.63
345.523	67.24
345.735	20.14
345.947	126.63
346.159	40.62
346.371	79.53
346.583	46.76
346.795	212.65
347.007	97.96
347.219	83.63
347.431	120.49
347.643	69.29
347.855	102.06
348.067	73.39
348.279	-33.11
348.491	46.76
348.703	54.95
348.915	130.73
349.127	57
349.339	87.72
349.551	50.86
349.763	54.95
349.975	32.43
350.187	112.3
350.399	124.58
350.61	30.38
350.822	34.47
351.034	40.62
351.246	24.23
351.458	73.39
351.669	7.85
351.881	106.15
352.093	132.78
352.305	89.77
352.517	120.49
352.728	50.86
352.94	87.72
353.152	50.86
353.363	63.15
353.575	102.06
353.787	11.95
353.999	93.87
354.21	48.81
354.422	28.33
354.633	5.8
354.845	40.62
355.057	54.95
355.268	-18.77
355.48	97.96
355.692	18.09
355.903	32.43
356.115	40.62
356.326	3.75
356.538	83.63
356.749	57
356.961	163.5
357.172	106.15
357.384	7.85
357.595	153.26
357.807	24.23
358.018	-10.58
358.23	81.58
358.441	124.58
358.653	177.83
358.864	93.87
359.075	13.99
359.287	-24.92
359.498	134.82
359.709	48.81
359.921	52.91
360.132	81.58
360.344	79.53
360.555	40.62
360.766	77.48
360.977	7.85
361.189	120.49
361.4	38.57
361.611	100.01
361.823	61.1
362.034	112.3
362.245	-12.63
362.456	38.57
362.667	-63.83
362.879	83.63
363.09	63.15
363.301	65.19
363.512	110.25
363.723	83.63
363.935	65.19
364.146	122.54
364.357	59.05
364.568	-4.44
364.779	44.71
364.99	126.63
365.201	36.52
365.412	44.71
365.623	48.81
365.834	112.3
366.045	81.58
366.256	128.68
366.467	81.58
366.678	16.04
366.889	89.77
367.1	73.39
367.311	89.77
367.522	7.85
367.733	61.1
367.944	97.96
368.155	-6.49
368.366	65.19
368.577	-0.34
368.788	52.91
368.999	75.43
369.209	75.43
369.42	157.35
369.631	132.78
369.842	87.72
370.053	104.11
370.264	50.86
370.474	34.47
370.685	106.15
370.896	83.63
371.107	130.73
371.317	77.48
371.528	145.06
371.739	140.97
371.95	48.81
372.16	28.33
372.371	-33.11
372.582	46.76
372.792	73.39
373.003	89.77
373.214	20.14
373.424	130.73
373.635	73.39
373.846	-45.4
374.056	81.58
374.267	57
374.477	95.91
374.688	-20.82
374.898	118.44
375.109	65.19
375.319	57
375.53	198.31
375.74	71.34
375.951	34.47
376.161	69.29
376.372	18.09
376.582	106.15
376.793	20.14
377.003	7.85
377.214	38.57
377.424	112.3
377.635	40.62
377.845	161.45
378.055	120.49
378.266	81.58
378.476	57
378.686	97.96
378.897	38.57
379.107	93.87
379.317	97.96
379.528	57
379.738	128.68
379.948	-12.63
380.158	28.33
380.369	7.85
380.579	167.59
380.789	36.52
380.999	110.25
381.21	116.39
381.42	155.3
381.63	36.52
381.84	61.1
382.05	130.73
382.261	20.14
382.471	95.91
382.681	77.48
382.891	79.53
383.101	46.76
383.311	65.19
383.521	-37.2
383.731	42.67
383.941	112.3
384.151	-2.39
384.361	114.34
384.571	102.06
384.781	7.85
384.991	40.62
385.201	169.64
385.411	22.19
385.621	81.58
385.831	100.01
386.041	13.99
386.251	59.05
386.461	69.29
386.671	30.38
386.881	48.81
387.091	40.62
387.301	5.8
387.511	-14.68
387.72	81.58
387.93	143.02
388.14	-33.11
388.35	85.67
388.56	81.58
388.769	79.53
388.979	91.82
389.189	95.91
389.399	112.3
389.609	120.49
389.818	104.11
390.028	81.58
390.238	112.3
390.447	48.81
390.657	42.67
390.867	122.54
391.076	73.39
391.286	73.39
391.496	69.29
391.705	102.06
391.915	110.25
392.125	112.3
392.334	24.23
392.544	69.29
392.753	79.53
392.963	114.34
393.172	104.11
393.382	52.91
393.591	97.96
393.801	161.45
394.01	110.25
394.22	16.04
394.429	112.3
394.639	95.91
394.848	95.91
395.058	151.21
395.267	126.63
395.477	114.34
395.686	112.3
395.895	143.02
396.105	163.5
396.314	136.87
396.524	145.06
396.733	132.78
396.942	145.06
397.152	106.15
397.361	183.98
397.57	89.77
397.78	93.87
397.989	110.25
398.198	136.87
398.407	155.3
398.617	140.97
398.826	110.25
399.035	81.58
399.244	126.63
399.453	167.59
399.663	122.54
399.872	159.4
400.081	57
400.29	196.26
400.499	81.58
400.708	167.59
400.917	75.43
401.127	69.29
401.336	198.31
401.545	175.78
401.754	81.58
401.963	138.92
402.172	110.25
402.381	153.26
402.59	145.06
402.799	208.55
403.008	210.6
403.217	140.97
403.426	177.83
403.635	63.15
403.844	138.92
404.053	165.54
404.262	200.36
404.471	218.79
404.68	171.69
404.888	149.16
405.097	212.65
405.306	147.11
405.515	204.46
405.724	128.68
405.933	192.17
406.142	216.74
406.35	161.45
406.559	196.26
406.768	175.78
406.977	226.98
407.185	257.7
407.394	220.84
407.603	231.08
407.812	259.75
408.02	333.48
408.229	288.42
408.438	274.09
408.646	233.13
408.855	224.94
409.064	308.9
409.272	317.09
409.481	308.9
409.69	294.57
409.898	325.29
410.107	372.39
410.315	333.48
410.524	333.48
410.733	353.96
410.941	292.52
411.15	415.4
411.358	376.48
411.567	401.06
411.775	396.96
411.984	423.59
412.192	417.44
412.401	534.18
412.609	548.51
412.818	513.7
413.026	554.66
413.234	462.5
413.443	546.47
413.651	573.09
413.86	548.51
414.068	646.82
414.276	661.15
414.485	622.24
414.693	638.62
414.901	728.74
415.11	675.49
415.318	657.06
415.526	769.69
415.734	810.65
415.943	818.85
416.151	855.71
416.359	884.38
416.567	982.68
416.776	868
416.984	958.11
417.192	986.78
417.4	1003.16
417.608	917.15
417.817	1080.99
418.025	1111.71
418.233	1281.69
418.441	1103.51
418.649	1101.47
418.857	1300.12
419.065	1351.32
419.273	1302.17
419.481	1267.35
419.689	1494.68
419.897	1445.52
420.105	1437.33
420.313	1515.16
420.521	1705.62
420.729	1736.34
420.937	1734.29
421.145	1695.38
421.353	1826.45
421.561	1969.8
421.769	1945.23
421.977	2039.44
422.185	2084.49
422.393	2088.59
422.601	2324.1
422.809	2317.96
423.017	2334.34
423.224	2391.69
423.432	2539.14
423.64	2412.17
423.848	2707.07
424.056	2692.74
424.263	2877.05
424.471	2956.93
424.679	2877.05
424.887	3112.57
425.094	3159.67
425.302	3178.11
425.51	3280.5
425.718	3473.01
425.925	3585.65
426.133	3755.63
426.341	3815.02
426.548	3997.29
426.756	3806.83
426.964	4052.59
427.171	4152.94
427.379	4316.78
427.586	4404.84
427.794	4445.8
428.001	4814.43
428.209	4914.78
428.417	4882.02
428.624	5262.94
428.832	5160.54
429.039	5129.82
429.247	5160.54
429.454	5652.05
429.662	5928.53
429.869	5697.11
430.076	6026.83
430.284	5713.49
430.491	6194.76
430.699	6446.66
430.906	6526.54
431.114	6657.61
431.321	6831.68
431.528	7040.58
431.736	7472.7
431.943	7683.64
432.15	7470.65
432.358	7380.54
432.565	8017.46
432.772	7781.94
432.979	8371.75
433.187	8685.09
433.394	8617.51
433.601	9254.43
433.808	9381.4
434.016	9182.75
434.223	9365.02
434.43	10219.02
434.637	9807.38
434.844	10323.47
435.052	10771.97
435.259	10690.06
435.466	10862.08
435.673	10755.59
435.88	11308.54
436.087	11902.45
436.294	12074.48
436.501	11972.08
436.708	11628.03
436.915	12330.48
437.122	13034.98
437.329	12850.66
437.537	13204.96
437.743	13589.98
437.95	13282.78
438.157	14151.12
438.364	14710.22
438.571	14439.89
438.778	14480.85
438.985	15969.72
439.192	15472.06
439.399	15949.24
439.606	15410.62
439.813	16489.9
440.02	17280.42
440.227	17141.16
440.433	16752.04
440.64	17544.61
440.847	17229.22
441.054	17917.34
441.261	19064.2
441.467	18433.43
441.674	19178.89
441.881	19996.03
442.088	19283.33
442.294	19709.31
442.501	19885.44
442.708	20290.93
442.914	21103.98
443.121	22259.03
443.328	21515.62
443.534	23123.27
443.741	22474.07
443.948	21970.27
444.154	24083.77
444.361	23631.17
444.568	23942.46
444.774	23876.93
444.981	24094.01
445.187	24827.18
445.394	25904.42
445.6	25580.84
445.807	28495.1
446.013	27096.33
446.22	27049.23
446.426	28343.55
446.633	28742.9
446.839	29582.57
447.046	28378.36
447.252	29859.04
447.459	29713.64
447.665	29582.57
447.871	31341.77
448.078	32214.21
448.284	30821.59
448.491	31737.03
448.697	32711.86
448.903	33262.77
449.11	33494.19
449.316	32867.51
449.522	33598.63
449.728	34602.14
449.935	34616.47
450.141	34725.02
450.347	35691.66
450.553	34358.43
450.76	34479.26
450.966	35986.57
451.172	35310.74
451.378	36572.28
451.584	35603.6
451.791	36238.47
451.997	35914.89
452.203	36834.42
452.409	36641.92
452.615	36637.82
452.821	35361.94
453.027	34829.46
453.233	36598.91
453.44	35566.73
453.646	35443.85
453.852	35529.87
454.058	36269.19
454.264	35140.75
454.47	35982.47
454.676	34858.13
454.882	36179.07
455.088	32902.32
455.294	33420.46
455.5	34020.52
455.705	34186.4
455.911	32885.94
456.117	32384.19
456.323	31825.09
456.529	29943.01
456.735	31257.81
456.941	30455
457.147	30145.76
457.352	28841.2
457.558	28601.59
457.764	28558.58
457.97	28048.64
458.176	27583.75
458.381	27436.3
458.587	26307.87
458.793	25732.39
458.999	24886.57
459.204	26584.34
459.41	25765.15
459.616	24132.92
459.821	24063.29
460.027	23997.76
460.233	23612.74
460.438	22297.94
460.644	22664.53
460.85	21763.42
461.055	21165.42
461.261	20856.17
461.466	19553.66
461.672	18947.47
461.878	20358.52
462.083	18961.8
462.289	18619.79
462.494	18320.79
462.7	17798.56
462.905	17243.56
463.111	17816.99
463.316	17892.76
463.522	17493.41
463.727	17470.88
463.932	17563.04
464.138	17180.07
464.343	17446.3
464.549	16770.47
464.754	17393.06
464.959	17016.23
465.165	17077.67
465.37	16512.43
465.575	15877.56
465.781	16547.25
465.986	16795.05
466.191	16012.73
466.397	15904.18
466.602	14919.11
466.807	15439.3
467.012	15709.63
467.218	15328.7
467.423	15453.63
467.628	15404.48
467.833	15955.38
468.038	15392.19
468.244	14857.67
468.449	15687.1
468.654	15171.01
468.859	14925.25
469.064	14716.36
469.269	14112.21
469.474	14470.61
469.679	14673.35
469.885	14210.51
470.09	14429.65
470.295	14429.65
470.5	14001.62
470.705	14167.51
470.91	13786.58
471.115	13630.94
471.32	13741.53
471.525	13870.55
471.73	13217.25
471.935	13252.06
472.139	12733.93
472.344	13159.91
472.549	12824.04
472.754	12717.54
472.959	12402.16
473.164	12289.52
473.369	12119.54
473.574	12740.07
473.778	12506.6
473.983	12555.76
474.188	12103.15
474.393	11650.55
474.598	11902.45
474.802	11628.03
475.007	11456
475.212	11484.67
475.417	11103.75
475.621	11021.83
475.826	11312.64
476.031	10956.29
476.235	10640.9
476.44	10794.5
476.645	10587.66
476.849	10706.44
477.054	10397.2
477.259	10423.82
477.463	10518.03
477.668	10173.97
477.872	10178.06
478.077	10022.42
478.282	9897.49
478.486	9774.61
478.691	9799.19
478.895	9764.37
479.1	9924.12
479.304	9758.23
479.509	9215.52
479.713	9528.86
479.918	9274.91
480.122	9078.3
480.326	9451.03
480.531	9295.39
480.735	9197.09
480.94	9043.49
481.144	9502.23
481.348	8928.8
481.553	9102.88
481.757	8730.15
481.961	9113.12
482.166	9178.65
482.37	9098.78
482.574	8736.29
482.778	8869.41
482.983	9209.37
483.187	8900.13
483.391	9133.6
483.595	8861.22
483.8	8697.38
484.004	9100.83
484.208	9080.35
484.412	8904.23
484.616	8883.75
484.821	9104.93
485.025	8736.29
485.229	8830.5
485.433	8863.27
485.637	8760.87
485.841	8779.3
486.045	8867.36
486.249	8902.18
486.453	8764.96
486.657	8928.8
486.861	8889.89
487.065	8648.23
487.269	8904.23
487.473	8879.65
487.677	9166.37
487.881	9031.2
488.085	8836.64
488.289	8775.2
488.493	8853.03
488.697	9000.48
488.901	8715.81
489.105	8842.79
489.309	9125.41
489.512	8846.88
489.716	9166.37
489.92	8838.69
490.124	9078.3
490.328	9035.3
490.531	9002.53
490.735	9344.54
490.939	9219.61
491.143	9082.4
491.346	9156.13
491.55	9039.39
491.754	9272.86
491.958	9383.45
492.161	9479.71
492.365	9348.64
492.569	9502.23
492.772	9225.76
492.976	9448.99
493.18	9571.86
493.383	9608.73
493.587	9506.33
493.79	9903.64
493.994	9764.37
494.197	9887.25
494.401	9952.79
494.605	9860.63
494.808	10137.1
495.012	9920.02
495.215	9879.06
495.419	10135.06
495.622	9971.22
495.825	10550.79
496.029	10282.51
496.232	10591.75
496.436	10493.45
496.639	10907.14
496.843	10712.58
497.046	11140.61
497.249	11128.32
497.453	11068.93
497.656	11101.7
497.859	11331.07
498.063	11609.59
498.266	11746.81
498.469	11779.57
498.673	11802.1
498.876	11701.75
499.079	11967.99
499.282	11918.84
499.485	12461.55
499.689	12250.61
499.892	12488.17
500.095	12715.5
500.298	12944.87
500.501	12639.72
500.705	12961.25
500.908	13012.45
501.111	13245.92
501.314	13385.18
501.517	13417.95
501.72	13434.33
501.923	13802.97
502.126	14028.24
502.329	14351.82
502.532	14468.56
502.735	14364.11
502.938	14763.47
503.141	14697.93
503.344	15048.13
503.547	14886.34
503.75	15205.83
503.953	15355.33
504.156	15283.65
504.359	15652.28
504.562	15861.18
504.765	16053.69
504.968	16170.42
505.17	16227.76
505.373	16166.32
505.576	16602.54
505.779	16799.15
505.982	16895.4
506.185	17411.49
506.387	17233.32
506.59	17497.5
506.793	17896.86
506.996	17718.68
507.198	18374.03
507.401	18392.47
507.604	18670.99
507.807	18757
508.009	18734.48
508.212	18824.59
508.415	19242.37
508.617	19146.12
508.82	19492.23
509.022	19252.61
509.225	20026.75
509.428	20403.57
509.63	20143.48
509.833	20487.54
510.035	20911.47
510.238	20886.89
510.44	21077.35
510.643	21517.67
510.845	21458.28
511.048	21407.08
511.25	22052.19
511.453	21814.62
511.655	22898
511.858	22553.94
512.06	22650.19
512.262	22736.21
512.465	22930.76
512.667	23551.3
512.87	23242.06
513.072	23532.87
513.274	23913.79
513.477	24333.62
513.679	24350.01
513.881	24544.56
514.084	24933.68
514.286	25068.84
514.488	24923.44
514.69	25603.36
514.893	25906.46
515.095	25730.34
515.297	26094.88
515.499	25933.09
515.701	26662.16
515.904	27024.65
516.106	26940.69
516.308	27239.69
516.51	27637
516.712	27591.94
516.914	27938.05
517.116	28577.01
517.318	28536.06
517.52	28701.94
517.722	28691.7
517.925	29002.99
518.127	29523.18
518.329	30002.4
518.531	29621.48
518.733	30082.27
518.935	30567.64
519.136	30293.21
519.338	30874.84
519.54	30840.02
519.742	31157.46
519.944	31515.85
520.146	31995.07
520.348	32318.65
520.55	32359.61
520.752	32144.58
520.954	32517.31
521.155	32830.65
521.357	33416.36
521.559	33791.14
521.761	33973.41
521.963	34002.08
522.164	34018.47
522.366	34540.7
522.568	34786.46
522.77	34737.3
522.971	35619.98
523.173	35046.55
523.375	35660.94
523.576	35744.91
523.778	36201.6
523.98	36138.12
524.181	36521.09
524.383	36695.16
524.584	37106.8
524.786	36848.76
524.988	37405.81
525.189	37885.03
525.391	38093.93
525.592	38126.69
525.794	38462.56
525.995	38284.39
526.197	38575.2
526.398	38734.94
526.6	38706.27
526.801	39038.04
527.003	39349.33
527.204	39765.07
527.406	39971.91
527.607	39572.56
527.808	40033.35
528.01	39900.23
528.211	39834.7
528.412	40539.2
528.614	40531.01
528.815	40778.81
529.016	41333.81
529.218	41102.39
529.419	41116.73
529.62	41348.15
529.822	41247.8
530.023	41501.75
530.224	41389.11
530.425	41200.69
530.626	41632.82
530.828	41452.59
531.029	41905.2
531.23	42105.9
531.431	41997.35
531.632	42095.66
531.833	42521.63
532.035	42036.27
532.236	42751.01
532.437	42693.66
532.638	42298.41
532.839	42818.59
533.04	43000.86
533.241	42650.66
533.442	43371.54
533.643	42880.03
533.844	42994.71
534.045	42996.76
534.246	42464.29
534.447	43275.29
534.648	43469.84
534.849	42830.88
535.05	42966.04
535.251	43355.16
535.451	43037.72
535.652	43508.75
535.853	43512.85
536.054	43207.7
536.255	43727.89
536.456	43144.22
536.657	43451.41
536.857	43344.92
537.058	43123.74
537.259	43805.71
537.46	43508.75
537.66	43451.41
537.861	43514.9
538.062	43410.45
538.263	43629.58
538.463	43666.45
538.664	43537.43
538.865	43656.21
539.065	43699.22
539.266	43181.08
539.466	44213.26
539.667	43387.92
539.868	43795.47
540.068	43289.62
540.269	43525.14
540.469	44008.46
540.67	43435.03
540.87	43688.98
541.071	43725.84
541.271	44010.51
541.472	43596.82
541.672	43326.49
541.873	43078.68
542.073	42927.13
542.274	43709.46
542.474	43353.11
542.675	43396.12
542.875	43738.13
543.075	43308.05
543.276	43054.11
543.476	44084.23
543.676	43424.79
543.877	43617.3
544.077	43414.55
544.277	43504.66
544.478	43258.9
544.678	43852.81
544.878	43332.63
545.078	43201.56
545.279	43287.57
545.479	42996.76
545.679	43322.39
545.879	43156.5
546.079	43121.69
546.28	43316.25
546.48	43324.44
546.68	43914.25
546.88	43420.69
547.08	43545.62
547.28	43396.12
547.48	42742.81
547.68	43635.73
547.88	43062.3
548.081	43467.8
548.281	43297.81
548.481	42968.09
548.681	43717.65
548.881	43224.09
549.081	42980.38
549.28	43099.16
549.48	43443.22
549.68	43041.82
549.88	43488.28
550.08	42824.73
550.28	43103.26
550.48	43045.91
550.68	43570.19
550.88	43140.12
551.08	43598.87
551.279	43066.39
551.479	42728.48
551.679	43148.31
551.879	42775.58
552.079	43168.79
552.278	42777.63
552.478	43275.29
552.678	43459.6
552.878	43258.9
553.077	42957.85
553.277	42411.04
553.477	43291.67
553.676	43129.88
553.876	42972.19
554.076	42404.9
554.275	42345.51
554.475	41976.87
554.674	42808.35
554.874	42654.75
555.074	42411.04
555.273	42636.32
555.473	42734.62
555.672	42214.44
555.872	42409
556.071	42503.2
556.271	42898.46
556.47	42236.97
556.67	42028.07
556.869	42271.78
557.068	42120.23
557.268	41919.53
557.467	41997.35
557.667	41952.3
557.866	41579.57
558.065	41591.86
558.265	41264.18
558.464	41135.16
558.663	42073.13
558.863	41350.2
559.062	41731.12
559.261	41299
559.461	41296.95
559.66	40434.75
559.859	41366.58
560.058	40723.52
560.258	40813.63
560.457	40643.65
560.656	40983.61
560.855	40420.42
561.054	40733.76
561.253	40232
561.453	40680.51
561.652	40363.07
561.851	40840.25
562.05	40166.47
562.249	39552.08
562.448	40391.75
562.647	39826.51
562.846	40012.87
563.045	39728.2
563.244	39177.3
563.443	39644.24
563.642	39134.29
563.841	39568.46
564.04	39248.98
564.239	39697.48
564.438	39162.97
564.637	38759.52
564.836	38644.83
565.035	38671.45
565.234	38720.6
565.432	38249.57
565.631	38272.1
565.83	38343.78
566.029	38341.73
566.228	38159.46
566.427	37930.09
566.625	37389.42
566.824	37401.71
567.023	37942.38
567.222	37180.53
567.42	37422.19
567.619	37379.18
567.818	37090.42
568.016	37004.41
568.215	37510.25
568.414	36965.49
568.612	36768.89
568.811	36328.58
569.01	36332.67
569.208	36174.98
569.407	36539.52
569.605	36150.4
569.804	36277.38
570.002	35869.83
570.201	36091.01
570.4	36088.96
570.598	35480.72
570.797	35234.96
570.995	35646.6
571.193	34858.13
571.392	35687.56
571.59	34974.87
571.789	34610.33
571.987	35048.6
572.186	34798.74
572.384	34563.23
572.582	34534.56
572.781	34636.95
572.979	33744.04
573.177	33995.94
573.376	34489.5
573.574	33916.07
573.772	34471.07
573.971	33514.67
574.169	33524.91
574.367	33387.69
574.565	33508.52
574.763	33584.3
574.962	33621.16
575.16	32890.04
575.358	33236.14
575.556	32558.27
575.754	33160.37
575.952	32853.17
576.151	33076.4
576.349	32615.61
576.547	32527.55
576.745	32660.66
576.943	32466.11
577.141	32376
577.339	32140.48
577.537	32091.33
577.735	31792.33
577.933	31864
578.131	31790.28
578.329	31448.27
578.527	31950.02
578.725	31421.64
578.923	31888.58
579.121	31327.44
579.319	31018.19
579.516	31575.24
579.714	31081.68
579.912	31057.1
580.11	30878.93
580.308	30866.64
580.506	30764.25
580.704	30196.96
580.901	30584.02
581.099	30901.46
581.297	30354.65
581.495	30452.95
581.692	30303.45
581.89	30020.83
582.088	30166.24
582.285	29619.43
582.483	30080.22
582.681	29916.39
582.878	29461.74
583.076	29306.09
583.274	29760.74
583.471	29428.97
583.669	29615.33
583.866	29385.96
584.064	29322.48
584.262	28757.24
584.459	29166.83
584.657	29113.58
584.854	29258.99
585.052	28626.17
585.249	29021.42
585.447	28900.59
585.644	28380.41
585.841	28376.31
586.039	28495.1
586.236	28120.32
586.434	27989.25
586.631	28206.33
586.828	28071.17
587.026	27782.4
587.223	27878.66
587.42	27692.29
587.618	27686.15
587.815	27538.69
588.012	27374.86
588.21	27436.3
588.407	27776.26
588.604	27038.99
588.801	27118.86
588.999	27411.72
589.196	27407.62
589.393	26817.81
589.59	27116.81
589.787	26815.76
589.984	26557.72
590.182	26615.06
590.379	26707.22
590.576	26365.21
590.773	26455.32
590.97	26580.25
591.167	26664.21
591.364	26250.52
591.561	26127.64
591.758	26170.65
591.955	26017.05
592.152	26217.75
592.349	25689.38
592.546	25845.02
592.743	25711.91
592.94	25044.27
593.137	25466.15
593.334	25410.85
593.531	25124.14
593.727	25269.55
593.924	25490.73
594.121	24931.63
594.318	25031.98
594.515	25054.51
594.712	25056.56
594.908	24778.03
595.105	24552.76
595.302	24474.93
595.499	24522.04
595.696	24491.32
595.892	24612.15
596.089	24235.32
596.286	24474.93
596.482	24071.48
596.679	24083.77
596.876	24200.51
597.072	24026.43
597.269	23872.83
597.466	23698.75
597.662	23729.47
597.859	23702.85
598.055	23686.47
598.252	23620.93
598.448	23287.11
598.645	23297.35
598.841	23377.22
599.038	23137.61
599.234	23336.26
599.431	23125.32
599.627	22967.63
599.824	23006.54
600.02	22629.71
600.217	22615.38
600.413	22615.38
600.609	22619.47
600.806	22314.33
601.002	22404.44
601.198	22152.54
601.395	22400.34
601.591	22117.72
601.787	22220.12
601.984	22252.89
602.18	22496.6
602.376	22113.63
602.572	21861.73
602.769	21882.2
602.965	21589.35
603.161	21732.7
603.357	21529.95
603.553	21822.81
603.75	21593.44
603.946	21607.78
604.142	21665.12
604.338	21114.22
604.534	21316.97
604.73	21140.84
604.926	21058.92
605.122	21206.38
605.318	21009.77
605.514	20809.07
605.71	20706.67
605.906	20792.69
606.102	20860.27
606.298	20913.52
606.494	20911.47
606.69	20628.85
606.886	20714.86
607.082	20409.72
607.278	20503.92
607.474	20297.08
607.67	20092.28
607.866	19877.24
608.062	20528.5
608.257	20211.06
608.453	20047.22
608.649	20223.35
608.845	19672.45
609.041	20055.42
609.236	20303.22
609.432	19950.97
609.628	19991.93
609.824	19826.04
610.019	19615.1
610.215	19611.01
610.411	19770.75
610.606	19600.77
610.802	19520.9
610.998	19363.2
611.193	19672.45
611.389	19357.06
611.584	19428.74
611.78	19436.93
611.976	19463.55
612.171	19225.99
612.367	19475.84
612.562	19309.96
612.758	18931.08
612.953	18908.55
613.149	19178.89
613.344	19029.38
613.539	19242.37
613.735	18730.38
613.93	19101.06
614.126	18605.45
614.321	18845.07
614.517	19023.24
614.712	18701.71
614.907	18513.3
615.103	18554.26
615.298	18623.89
615.493	18685.33
615.688	18460.05
615.884	18773.39
616.079	18443.67
616.274	18576.78
616.47	18230.68
616.665	18521.49
616.86	18347.41
617.055	18466.19
617.25	18292.12
617.445	18318.74
617.641	17780.12
617.836	17999.26
618.031	17937.82
618.226	17610.14
618.421	17741.21
618.616	17851.8
618.811	17702.3
619.006	18066.84
619.201	17567.13
619.396	17720.73
619.591	17348
619.786	17427.87
619.981	17200.55
620.176	17354.15
620.371	17069.48
620.566	17014.18
620.761	17139.11
620.956	17014.18
621.151	16801.19
621.346	16760.23
621.541	16700.84
621.735	16745.9
621.93	16285.11
622.125	16485.81
622.32	16506.29
622.515	16563.63
622.709	16326.07
622.904	16321.97
623.099	16074.17
623.294	16145.84
623.488	15982.01
623.683	15920.57
623.878	15672.76
624.072	15683
624.267	15531.45
624.462	15384
624.656	15250.88
624.851	15521.21
625.046	15199.68
625.24	15193.54
625.435	14704.07
625.629	15152.58
625.824	15074.76
626.018	14931.4
626.213	14742.99
626.407	14761.42
626.602	14540.24
626.796	14661.07
626.991	14755.27
627.185	14245.33
627.38	14392.78
627.574	14239.19
627.768	13964.76
627.963	14345.68
628.157	13784.54
628.352	14151.12
628.546	13719
628.74	13950.42
628.935	13688.28
629.129	13839.83
629.323	13331.94
629.517	13364.7
629.712	13536.73
629.906	13467.1
630.1	13069.8
630.294	13417.95
630.489	13014.5
630.683	13098.47
630.877	13024.74
631.071	13043.17
631.265	13264.35
631.459	12862.95
631.653	12735.98
631.848	12664.3
632.042	12637.67
632.236	12506.6
632.43	12465.64
632.624	12615.15
632.818	12467.69
633.012	12027.38
633.206	12248.56
633.4	12023.28
633.594	12056.05
633.788	12097.01
633.982	12197.36
634.176	11951.6
634.369	11730.42
634.563	11785.72
634.757	11492.86
634.951	11738.62
635.145	11791.86
635.339	11503.1
635.533	11664.89
635.726	11554.3
635.92	11296.25
636.114	11380.22
636.308	11351.55
636.501	11357.69
636.695	11173.38
636.889	11218.43
637.083	11130.37
637.276	11177.47
637.47	10954.24
637.664	10962.44
637.857	10817.03
638.051	10702.34
638.244	10696.2
638.438	10778.12
638.632	10608.14
638.825	10442.25
639.019	10558.99
639.212	10343.95
639.406	10444.3
639.599	10350.09
639.793	10208.78
639.986	10259.98
640.18	10094.1
640.373	10036.75
640.567	9954.83
640.76	9915.92
640.954	9999.89
641.147	9860.63
641.34	9608.73
641.534	9719.32
641.727	9903.64
641.92	9661.98
642.114	9518.62
642.307	9448.99
642.5	9596.44
642.694	9416.22
642.887	9387.55
643.08	9475.61
643.273	9408.03
643.467	9326.11
643.66	9276.96
643.853	9199.13
644.046	9119.26
644.239	9125.41
644.432	9205.28
644.626	8932.9
644.819	8967.71
645.012	9027.1
645.205	8865.32
645.398	9008.67
645.591	8533.54
645.784	8523.3
645.977	8724.01
646.17	8787.49
646.363	8511.02
646.556	8488.49
646.749	8367.66
646.942	8474.15
647.135	8521.26
647.328	8279.6
647.521	8302.12
647.714	8113.71
647.907	8371.75
648.099	8134.19
648.292	8302.12
648.485	8011.31
648.678	8111.66
648.871	7996.98
649.064	7984.69
649.256	7945.78
649.449	8060.46
649.642	7808.56
649.835	7695.93
650.027	7679.54
650.22	7833.14
650.413	7697.97
650.605	7775.8
650.798	7667.25
650.991	7398.97
651.183	7599.67
651.376	7663.16
651.568	7329.34
651.761	7360.06
651.954	7405.11
652.146	7548.47
652.339	7261.76
652.531	7380.54
652.724	7341.63
652.916	7272
653.109	7241.28
653.301	7159.36
653.494	7171.65
653.686	6929.98
653.879	7249.47
654.071	7196.22
654.263	6884.93
654.456	7042.62
654.648	7214.65
654.84	6903.36
655.033	6813.25
655.225	6753.86
655.417	6737.48
655.61	6780.48
655.802	6876.74
655.994	6786.63
656.186	6841.92
656.379	6778.44
656.571	6563.4
656.763	6495.82
656.955	6702.66
657.148	6536.77
657.34	6544.97
657.532	6372.94
657.724	6387.27
657.916	6528.58
658.108	6370.89
658.3	6264.4
658.492	6346.31
658.684	6295.11
658.876	6432.33
659.068	6237.77
659.26	6159.95
659.452	6139.47
659.644	6282.83
659.836	6268.49
660.028	6118.99
660.22	6278.73
660.412	6002.26
660.604	6055.5
660.796	5953.1
660.988	5903.95
661.18	5887.57
661.372	5795.41
661.563	5846.61
661.755	5805.65
661.947	5873.23
662.139	5877.33
662.331	5813.84
662.522	5912.14
662.714	5840.47
662.906	5699.16
663.097	5783.12
663.289	5633.62
663.481	5705.3
663.673	5781.07
663.864	5664.34
664.056	5600.85
664.247	5709.4
664.439	5508.69
664.631	5611.09
664.822	5670.48
665.014	5572.18
665.205	5723.73
665.397	5527.13
665.588	5422.68
665.78	5500.5
665.971	5543.51
666.163	5484.12
666.354	5357.14
666.546	5455.45
666.737	5490.26
666.929	5385.82
667.12	5402.2
667.311	5291.61
667.503	5307.99
667.694	5353.05
667.885	5226.07
668.077	5238.36
668.268	5215.84
668.459	5181.02
668.651	5277.27
668.842	5355.1
669.033	5275.23
669.224	5299.8
669.416	5264.99
669.607	5322.33
669.798	5359.19
669.989	5357.14
670.18	5156.44
670.371	5183.07
670.563	5056.09
670.754	5297.75
670.945	5230.17
671.136	5144.16
671.327	5185.12
671.518	5078.62
671.709	5168.73
671.9	5283.42
672.091	5148.25
672.282	5078.62
672.473	5133.92
672.664	5178.97
672.855	5234.27
673.046	5166.68
673.237	5142.11
673.428	5092.96
673.619	5146.2
673.809	5101.15
674	5140.06
674.191	5078.62
674.382	5111.39
674.573	5004.89
674.764	5054.05
674.954	5123.68
675.145	5199.45
675.336	5156.44
675.527	5052
675.717	5144.16
675.908	5103.2
676.099	4929.12
676.289	5086.81
676.48	5174.88
676.671	5090.91
676.861	5320.28
677.052	5228.12
677.243	5203.55
677.433	5213.79
677.624	5367.38
677.814	5219.93
678.005	5201.5
678.195	5260.89
678.386	5289.56
678.576	5219.93
678.767	5207.64
678.957	5318.23
679.148	5307.99
679.338	5314.14
679.529	5363.29
679.719	5277.27
679.909	5291.61
680.1	5312.09
680.29	5391.96
680.481	5342.81
680.671	5504.6
680.861	5328.47
681.052	5516.89
681.242	5447.26
681.432	5541.46
681.622	5381.72
681.813	5381.72
682.003	5484.12
682.193	5533.27
682.383	5545.56
682.573	5545.56
682.764	5525.08
682.954	5422.68
683.144	5547.61
683.334	5293.66
683.524	5467.74
683.714	5576.28
683.904	5486.17
684.094	5574.23
684.284	5578.33
684.474	5668.44
684.664	5447.26
684.854	5592.66
685.044	5459.54
685.234	5525.08
685.424	5373.53
685.614	5314.14
685.804	5516.89
685.994	5488.21
686.184	5469.78
686.374	5387.86
686.564	5359.19
686.753	5406.3
686.943	5377.62
687.133	5181.02
687.323	5326.43
687.513	5357.14
687.702	5283.42
687.892	5127.77
688.082	5082.72
688.272	5248.6
688.461	5168.73
688.651	5232.22
688.841	5144.16
689.03	5154.4
689.22	5047.9
689.41	5060.19
689.599	4963.93
689.789	5168.73
689.979	4941.41
690.168	4984.41
690.358	4828.77
690.547	4927.07
690.737	4826.72
690.926	4763.23
691.116	4580.96
691.305	4683.36
691.495	4656.74
691.684	4566.63
691.874	4789.86
692.063	4763.23
692.252	4562.53
692.442	4595.3
692.631	4521.57
692.82	4570.72
693.01	4611.68
693.199	4296.3
693.388	4513.38
693.578	4462.18
693.767	4382.31
693.956	4394.6
694.146	4482.66
694.335	4157.04
694.524	4404.84
694.713	4275.82
694.902	4273.77
695.092	4404.84
695.281	4284.01
695.47	4284.01
695.659	4144.75
695.848	4353.64
696.037	4177.51
696.226	4292.2
696.415	4101.74
696.604	4130.41
696.793	4154.99
696.982	4079.21
697.171	4146.8
697.36	4097.64
697.549	3995.25
697.738	4146.8
697.927	4064.88
698.116	4066.92
698.305	4089.45
698.494	3968.62
698.683	4058.73
698.872	4085.36
699.061	4023.92
699.25	4036.21
699.438	3939.95
699.627	4028.01
699.816	4048.49
700.005	3894.9
700.193	3919.47
700.382	4023.92
700.571	3905.14
700.76	4021.87
700.948	4009.58
701.137	3939.95
701.326	3868.27
701.514	3882.61
701.703	3999.34
701.892	4003.44
702.08	3980.91
702.269	4087.4
702.457	3939.95
702.646	4028.01
702.834	3968.62
703.023	4062.83
703.212	4030.06
703.4	4003.44
703.589	4009.58
703.777	4071.02
703.965	3993.2
704.154	4060.78
704.342	4021.87
704.531	4001.39
704.719	3972.72
704.907	4040.3
705.096	4003.44
705.284	3995.25
705.472	4001.39
705.661	4130.41
705.849	4189.8
706.037	4028.01
706.226	4050.54
706.414	4079.21
706.602	4152.94
706.79	4175.47
706.979	4023.92
707.167	4128.36
707.355	4066.92
707.543	4259.43
707.731	4202.09
707.919	4152.94
708.107	4091.5
708.296	4105.84
708.484	4001.39
708.672	4103.79
708.86	4109.93
709.048	4214.38
709.236	4150.89
709.424	4085.36
709.612	4185.71
709.8	4228.71
709.988	4275.82
710.176	4288.11
710.364	4300.39
710.551	4159.08
710.739	4324.97
710.927	4232.81
711.115	4218.47
711.303	4320.87
711.491	4408.94
711.679	4359.78
711.866	4341.35
712.054	4386.41
712.242	4367.98
712.43	4431.46
712.617	4472.42
712.805	4382.31
712.993	4470.37
713.181	4458.09
713.368	4472.42
713.556	4540.01
713.744	4593.25
713.931	4722.27
714.119	4529.77
714.306	4554.34
714.494	4535.91
714.682	4503.14
714.869	4660.84
715.057	4517.48
715.244	4619.88
715.432	4750.95
715.619	4576.87
715.807	4660.84
715.994	4716.13
716.182	4638.31
716.369	4685.41
716.556	4814.43
716.744	4615.78
716.931	4783.71
717.119	4916.83
717.306	4961.89
717.493	4902.5
717.681	4894.3
717.868	4937.31
718.055	4951.65
718.242	4843.1
718.43	5041.76
718.617	4994.65
718.804	4994.65
718.991	5129.82
719.179	5023.33
719.366	4904.54
719.553	5029.47
719.74	5078.62
719.927	5084.77
720.114	5043.81
720.301	4963.93
720.488	5076.57
720.676	5252.7
720.863	5207.64
721.05	5283.42
721.237	5117.53
721.424	5197.4
721.611	5150.3
721.798	5168.73
721.985	5275.23
722.172	5219.93
722.358	5318.23
722.545	5258.84
722.732	5279.32
722.919	5510.74
723.106	5361.24
723.293	5398.1
723.48	5394.01
723.667	5291.61
723.853	5244.51
724.04	5387.86
724.227	5406.3
724.414	5420.63
724.6	5545.56
724.787	5623.38
724.974	5508.69
725.161	5578.33
725.347	5551.7
725.534	5512.79
725.72	5666.39
725.907	5510.74
726.094	5641.81
726.28	5598.81
726.467	5602.9
726.653	5690.96
726.84	5645.91
727.027	5789.27
727.213	5643.86
727.4	5815.89
727.586	5791.31
727.773	5797.46
727.959	5684.82
728.145	5832.27
728.332	5592.66
728.518	5858.9
728.705	5785.17
728.891	5797.46
729.077	5834.32
729.264	5856.85
729.45	5678.68
729.636	5889.62
729.823	5834.32
730.009	5981.78
730.195	6026.83
730.382	5992.02
730.568	5897.81
730.754	5955.15
730.94	5895.76
731.126	5805.65
731.313	6075.98
731.499	6151.76
731.685	5959.25
731.871	6053.45
732.057	6065.74
732.243	6047.31
732.429	6086.22
732.615	5920.34
732.801	6106.7
732.987	6094.41
733.173	6106.7
733.359	6078.03
733.545	5963.34
733.731	6000.21
733.917	6078.03
734.103	6045.26
734.289	6182.48
734.475	6123.09
734.661	6403.66
734.847	6159.95
735.033	6221.39
735.219	6106.7
735.404	6207.05
735.59	6139.47
735.776	6149.71
735.962	6172.24
736.148	6256.2
736.333	6090.32
736.519	6063.69
736.705	6143.56
736.89	6073.93
737.076	6157.9
737.262	6032.97
737.447	6172.24
737.633	6151.76
737.819	6143.56
738.004	6049.36
738.19	6188.62
738.375	6172.24
738.561	6229.58
738.747	5977.68
738.932	6016.59
739.118	6053.45
739.303	6016.59
739.489	6245.96
739.674	6051.41
739.859	6065.74
740.045	6143.56
740.23	6061.65
740.416	6041.17
740.601	6063.69
740.786	6129.23
740.972	5967.44
741.157	6045.26
741.342	5963.34
741.528	5926.48
741.713	5977.68
741.898	5910.1
742.084	5889.62
742.269	5965.39
742.454	6043.21
742.639	6035.02
742.824	5760.59
743.01	5885.52
743.195	5797.46
743.38	5832.27
743.565	5666.39
743.75	5736.02
743.935	5570.13
744.12	5713.49
744.305	5703.25
744.49	5609.05
744.675	5604.95
744.86	5658.2
745.045	5752.4
745.23	5553.75
745.415	5602.9
745.6	5592.66
745.785	5475.93
745.97	5533.27
746.155	5414.49
746.34	5563.99
746.525	5428.82
746.71	5477.98
746.895	5283.42
747.079	5375.58
747.264	5254.75
747.449	5488.21
747.634	5234.27
747.819	5199.45
748.003	5348.95
748.188	5181.02
748.373	5097.05
748.557	5068.38
748.742	5103.2
748.927	4955.74
749.111	5070.43
749.296	4867.68
749.481	4953.7
749.665	4961.89
749.85	4787.81
750.034	4896.35
750.219	4800.1
750.404	4697.7
750.588	4709.99
750.773	4626.02
750.957	4705.89
751.141	4755.04
751.326	4685.41
751.51	4644.45
751.695	4521.57
751.879	4374.12
752.064	4593.25
752.248	4468.33
752.432	4486.76
752.617	4535.91
752.801	4398.7
752.985	4275.82
753.17	4247.15
753.354	4218.47
753.538	4175.47
753.722	4292.2
753.907	4193.9
754.091	4060.78
754.275	4011.63
754.459	4042.35
754.643	4042.35
754.828	4032.11
755.012	3898.99
755.196	3978.86
755.38	3944.05
755.564	3898.99
755.748	3808.88
755.932	3898.99
756.116	3870.32
756.3	3745.39
756.484	3714.67
756.668	3819.12
756.852	3683.95
757.036	3690.1
757.22	3632.76
757.404	3634.8
757.588	3499.64
757.772	3575.41
757.956	3559.03
758.14	3579.51
758.323	3430.01
758.507	3554.93
758.691	3530.36
758.875	3536.5
759.059	3440.25
759.242	3505.78
759.426	3253.88
759.61	3391.09
759.794	3364.47
759.977	3438.2
760.161	3421.81
760.345	3317.37
760.528	3247.74
760.712	3198.59
760.895	3178.11
761.079	3288.7
761.263	3085.95
761.446	3059.32
761.63	2969.21
761.813	3128.95
761.997	3063.42
762.18	3055.23
762.364	2993.79
762.547	3083.9
762.731	2924.16
762.914	2977.41
763.098	2938.49
763.281	2784.9
763.464	2981.5
763.648	2987.65
763.831	2846.34
764.015	2813.57
764.198	2866.81
764.381	2936.45
764.564	2889.34
764.748	2817.66
764.931	2899.58
765.114	2723.46
765.297	2881.15
765.481	2664.07
765.664	2682.5
765.847	2702.98
766.03	2735.74
766.213	2764.42
766.397	2694.79
766.58	2717.31
766.763	2678.4
766.946	2573.96
767.129	2559.62
767.312	2557.57
767.495	2539.14
767.678	2567.81
767.861	2604.67
768.044	2547.33
768.227	2471.56
768.41	2514.56
768.593	2502.28
768.776	2457.22
768.959	2487.94
769.142	2498.18
769.324	2471.56
769.507	2449.03
769.69	2436.74
769.873	2254.47
770.056	2373.25
770.239	2346.63
770.421	2330.25
770.604	2369.16
770.787	2340.49
770.97	2317.96
771.152	2211.46
771.335	2270.86
771.518	2252.42
771.7	2268.81
771.883	2358.92
772.066	2227.85
772.248	2143.88
772.431	2274.95
772.613	2250.38
772.796	2201.23
772.978	2150.03
773.161	2254.47
773.343	2178.7
773.526	2154.12
773.708	2021
773.891	2006.67
774.073	1992.33
774.256	2125.45
774.438	2078.35
774.621	2047.63
774.803	2002.57
774.985	1922.7
775.168	2002.57
775.35	1875.6
775.532	1908.37
775.715	1945.23
775.897	1873.55
776.079	1916.56
776.261	1842.83
776.444	1832.59
776.626	1760.91
776.808	1832.59
776.99	1767.06
777.173	1937.04
777.355	1722
777.537	1738.38
777.719	1732.24
777.901	1683.09
778.083	1676.95
778.265	1752.72
778.447	1726.1
778.629	1709.71
778.811	1638.03
778.993	1580.69
779.175	1678.99
779.357	1605.27
779.539	1613.46
779.721	1564.31
779.903	1592.98
780.085	1656.47
780.267	1515.16
780.449	1463.96
780.631	1515.16
780.812	1488.53
780.994	1449.62
781.176	1470.1
781.358	1437.33
781.54	1476.24
781.721	1439.38
781.903	1466
782.085	1441.43
782.267	1455.76
782.448	1351.32
782.63	1441.43
782.812	1318.55
782.993	1384.09
783.175	1384.09
783.357	1367.7
783.538	1318.55
783.72	1322.65
783.901	1334.93
784.083	1218.2
784.264	1275.54
784.446	1113.75
784.627	1183.38
784.809	1302.17
784.99	1154.71
785.172	1220.25
785.353	1234.58
785.535	1130.14
785.716	1117.85
785.897	1033.88
786.079	1128.09
786.26	1158.81
786.441	1105.56
786.623	1031.83
786.804	1117.85
786.985	1064.6
787.167	1089.18
787.348	1154.71
787.529	1080.99
787.71	1156.76
787.891	1091.23
788.073	1056.41
788.254	1148.57
788.435	1183.38
788.616	1023.64
788.797	1054.36
788.978	1076.89
789.159	1091.23
789.34	1003.16
789.522	994.97
789.703	915.1
789.884	1023.64
790.065	970.4
790.246	1031.83
790.427	986.78
790.607	972.44
790.788	1005.21
790.969	868
791.15	872.09
791.331	1007.26
791.512	917.15
791.693	849.57
791.874	921.24
792.054	888.48
792.235	976.54
792.416	851.61
792.597	839.33
792.778	882.33
792.958	927.39
793.139	814.75
793.32	900.76
793.5	798.37
793.681	745.12
793.862	849.57
794.042	784.03
794.223	874.14
794.404	784.03
794.584	700.06
794.765	769.69
794.945	786.08
795.126	790.17
795.306	835.23
795.487	726.69
795.667	824.99
795.848	714.4
796.028	734.88
796.209	759.46
796.389	673.44
796.57	736.93
796.75	802.46
796.93	743.07
797.111	659.1
797.291	736.93
797.471	657.06
797.652	724.64
797.832	669.34
798.012	745.12
798.192	759.46
798.373	638.62
798.553	663.2
798.733	685.73
798.913	685.73
799.093	562.85
799.274	644.77
799.454	702.11
799.634	726.69
799.814	679.58
799.994	628.39
800.174	679.58
800.354	734.88
800.534	614.05
800.714	603.81
800.894	646.82
801.074	589.47
801.254	577.19
801.434	638.62
801.614	671.39
801.794	474.79
801.974	1300.12
802.154	661.15
802.334	614.05
802.514	587.43
802.693	546.47
802.873	603.81
803.053	550.56
803.233	562.85
803.413	591.52
803.592	554.66
803.772	536.23
803.952	571.04
804.131	573.09
804.311	595.62
804.491	642.72
804.67	497.32
804.85	577.19
805.03	523.94
805.209	538.27
805.389	511.65
805.568	542.37
805.748	523.94
805.928	480.93
806.107	595.62
806.287	546.47
806.466	603.81
806.646	464.55
806.825	523.94
807.004	444.07
807.184	554.66
807.363	523.94
807.543	511.65
807.722	446.12
807.901	470.69
808.081	544.42
808.26	433.83
808.439	521.89
808.619	458.4
808.798	474.79
808.977	501.41
809.156	591.52
809.336	503.46
809.515	460.45
809.694	442.02
809.873	491.17
810.052	540.32
810.231	462.5
810.411	464.55
810.59	521.89
810.769	458.4
810.948	497.32
811.127	409.25
811.306	491.17
811.485	423.59
811.664	417.44
811.843	396.96
812.022	435.88
812.201	366.25
812.38	382.63
812.559	401.06
812.737	474.79
812.916	376.48
813.095	368.29
813.274	425.64
813.453	482.98
813.632	401.06
813.811	442.02
813.989	392.87
814.168	394.92
814.347	343.72
814.526	347.81
814.704	433.83
814.883	396.96
815.062	325.29
815.24	417.44
815.419	415.4
815.598	407.2
815.776	368.29
815.955	335.53
816.133	280.23
816.312	399.01
816.49	356.01
816.669	374.44
816.847	358.05
817.026	401.06
817.204	405.16
817.383	364.2
817.561	315.05
817.74	366.25
817.918	401.06
818.097	353.96
818.275	364.2
818.453	374.44
818.632	407.2
818.81	310.95
818.988	274.09
819.167	315.05
819.345	378.53
819.523	292.52
819.701	267.94
819.879	366.25
820.058	272.04
820.236	372.39
820.414	437.92
820.592	325.29
820.77	284.33
820.948	360.1
821.127	237.22
821.305	335.53
821.483	247.46
821.661	382.63
821.839	343.72
822.017	333.48
822.195	251.56
822.373	286.37
822.551	349.86
822.729	308.9
822.907	251.56
823.085	286.37
823.262	300.71
823.44	310.95
823.618	341.67
823.796	261.8
823.974	341.67
824.152	269.99
824.329	267.94
824.507	276.13
824.685	292.52
824.863	259.75
825.04	280.23
825.218	333.48
825.396	212.65
825.574	226.98
825.751	341.67
825.929	226.98
826.107	194.22
826.284	292.52
826.462	267.94
826.639	212.65
826.817	212.65
826.994	253.61
827.172	284.33
827.349	313
827.527	255.65
827.704	175.78
827.882	298.66
828.059	261.8
828.237	218.79
828.414	245.41
828.591	161.45
828.769	288.42
828.946	229.03
829.124	245.41
829.301	284.33
829.478	192.17
829.655	251.56
829.833	280.23
830.01	196.26
830.187	261.8
830.364	298.66
830.542	229.03
830.719	226.98
830.896	212.65
831.073	278.18
831.25	284.33
831.427	235.18
831.604	208.55
831.782	237.22
831.959	171.69
832.136	192.17
832.313	163.5
832.49	126.63
832.667	183.98
832.844	229.03
833.021	224.94
833.198	282.28
833.374	257.7
833.551	249.51
833.728	177.83
833.905	229.03
834.082	147.11
834.259	224.94
834.436	251.56
834.612	188.07
834.789	278.18
834.966	220.84
835.143	169.64
835.319	69.29
835.496	208.55
835.673	147.11
835.85	269.99
836.026	153.26
836.203	200.36
836.38	147.11
836.556	251.56
836.733	216.74
836.909	239.27
837.086	204.46
837.262	179.88
837.439	122.54
837.616	216.74
837.792	229.03
837.968	159.4
838.145	138.92
838.321	155.3
838.498	192.17
838.674	183.98
838.851	147.11
839.027	116.39
839.203	163.5
839.38	112.3
839.556	151.21
839.732	212.65
839.909	104.11
840.085	179.88
840.261	77.48
840.437	196.26
840.614	81.58
840.79	167.59
840.966	196.26
841.142	226.98
841.318	130.73
841.494	206.5
841.671	177.83
841.847	112.3
842.023	122.54
842.199	136.87
842.375	194.22
842.551	77.48
842.727	147.11
842.903	151.21
843.079	114.34
843.255	169.64
843.431	183.98
843.607	120.49
843.783	104.11
843.959	136.87
844.134	130.73
844.31	116.39
844.486	245.41
844.662	97.96
844.838	229.03
845.013	151.21
845.189	87.72
845.365	138.92
845.541	79.53
845.716	130.73
845.892	130.73
846.068	167.59
846.244	143.02
846.419	65.19
846.595	81.58
846.77	102.06
846.946	153.26
847.122	118.44
847.297	106.15
847.473	171.69
847.648	153.26
847.824	116.39
847.999	52.91
848.175	130.73
848.35	104.11
848.526	159.4
848.701	181.93
848.876	108.2
849.052	196.26
849.227	73.39
849.403	65.19
849.578	91.82
849.753	136.87
849.929	151.21
850.104	106.15
850.279	85.67
850.454	85.67
850.63	204.46
850.805	87.72
850.98	118.44
851.155	46.76
851.33	143.02
851.505	130.73
851.681	243.37
851.856	112.3
852.031	261.8
852.206	79.53
852.381	69.29
852.556	73.39
852.731	147.11
852.906	128.68
853.081	69.29
853.256	85.67
853.431	65.19
853.606	65.19
853.781	128.68
853.956	-16.73
854.131	114.34
854.305	52.91
854.48	69.29
854.655	83.63
854.83	36.52
855.005	120.49
855.18	102.06
855.354	48.81
855.529	95.91
855.704	81.58
855.879	106.15
856.053	57
856.228	132.78
856.403	87.72
856.577	54.95
856.752	44.71
856.926	50.86
857.101	138.92
857.276	36.52
857.45	114.34
857.625	89.77
857.799	116.39
857.974	91.82
858.148	-18.77
858.323	108.2
858.497	118.44
858.672	46.76
858.846	85.67
859.02	167.59
859.195	163.5
859.369	118.44
859.543	95.91
859.718	61.1
859.892	104.11
860.066	116.39
860.241	102.06
860.415	97.96
860.589	52.91
860.763	28.33
860.938	34.47
861.112	120.49
861.286	-16.73
861.46	114.34
861.634	108.2
861.808	69.29
861.982	24.23
862.157	30.38
862.331	46.76
862.505	-0.34
862.679	24.23
862.853	11.95
863.027	38.57
863.201	122.54
863.375	73.39
863.549	130.73
863.722	-8.53
863.896	77.48
864.07	38.57
864.244	89.77
864.418	48.81
864.592	108.2
864.766	81.58
864.939	155.3
865.113	93.87
865.287	71.34
865.461	81.58
865.634	40.62
865.808	30.38
865.982	18.09
866.156	34.47
866.329	104.11
866.503	104.11
866.676	83.63
866.85	61.1
867.024	106.15
867.197	63.15
867.371	114.34
867.544	143.02
867.718	-33.11
867.891	44.71
868.065	-10.58
868.238	18.09
868.412	75.43
868.585	-0.34
868.759	40.62
868.932	40.62
869.105	65.19
869.279	22.19
869.452	11.95
869.625	95.91
869.799	52.91
869.972	-0.34
870.145	44.71
870.319	63.15
870.492	22.19
870.665	40.62
870.838	26.28
871.011	-16.73
871.185	48.81
871.358	44.71
871.531	112.3
871.704	22.19
871.877	97.96
872.05	7.85
872.223	95.91
872.396	128.68
872.569	63.15
872.742	24.23
872.915	102.06
873.088	-16.73
873.261	42.67
873.434	16.04
873.607	97.96
873.78	85.67
873.953	32.43
874.126	20.14
874.299	95.91
874.471	16.04
874.644	81.58
874.817	77.48
874.99	97.96
875.163	28.33
875.335	57
875.508	-2.39
875.681	120.49
875.853	38.57
876.026	73.39
876.199	120.49
876.371	54.95
876.544	30.38
876.717	77.48
876.889	28.33
877.062	69.29
877.234	44.71
877.407	34.47
877.579	83.63
877.752	54.95
877.924	40.62
878.097	3.75
878.269	114.34
878.442	20.14
878.614	-10.58
878.786	26.28
878.959	61.1
879.131	100.01
879.303	-43.35
879.476	40.62
879.648	104.11
879.82	40.62
879.993	3.75
880.165	71.34
880.337	-14.68
880.509	79.53
880.681	32.43
880.854	42.67
881.026	-2.39
881.198	30.38
881.37	52.91
881.542	57
881.714	-16.73
881.886	24.23
882.058	11.95
882.23	-37.2
882.402	-18.77
882.574	-29.01
882.746	57
882.918	122.54
883.09	69.29
883.262	24.23
883.434	38.57
883.606	22.19
883.778	-16.73
883.95	87.72
884.122	122.54
884.293	97.96
884.465	-8.53
884.637	116.39
884.809	102.06
884.98	34.47
885.152	3.75
885.324	54.95
885.496	7.85
885.667	-16.73
885.839	63.15
886.011	114.34
886.182	30.38
886.354	130.73
886.525	85.67
886.697	9.9
886.869	-49.49
887.04	-12.63
887.212	52.91
887.383	89.77
887.555	22.19
887.726	63.15
887.897	52.91
888.069	61.1
888.24	81.58
888.412	89.77
888.583	-16.73
888.754	20.14
888.926	18.09
889.097	7.85
889.268	7.85
889.44	20.14
889.611	3.75
889.782	-8.53
889.953	16.04
890.125	81.58
890.296	5.8
890.467	52.91
890.638	75.43
890.809	40.62
890.98	48.81
891.151	16.04
891.323	128.68
891.494	40.62
891.665	18.09
891.836	32.43
892.007	-35.16
892.178	16.04
892.349	57
892.52	40.62
892.691	44.71
892.862	28.33
893.032	7.85
893.203	30.38
893.374	-24.92
893.545	22.19
893.716	11.95
893.887	-16.73
894.057	13.99
894.228	-26.96
894.399	26.28
894.57	65.19
894.74	-31.06
894.911	79.53
895.082	52.91
895.253	44.71
895.423	48.81
895.594	73.39
895.764	61.1
895.935	30.38
896.106	22.19
896.276	-0.34
896.447	65.19
896.617	-8.53
896.788	-45.4
896.958	-22.87
897.129	-0.34
897.299	20.14
897.47	112.3
897.64	22.19
897.81	20.14
897.981	-35.16
898.151	-24.92
898.322	57
898.492	11.95
898.662	48.81
898.832	-26.96
899.003	-43.35
899.173	24.23
899.343	-14.68
899.513	-0.34
