Data from USB4F104151__5__11-29-31-268.txt Node

Date: Fri Mar 14 11:29:31 EDT 2025
User: louis
Spectrometer: USB4F10415
Trigger mode: 4
Integration Time (sec): 5.000000E-2
Scans to average: 1
Electric dark correction enabled: true
Nonlinearity correction enabled: false
Boxcar width: 0
XAxis mode: Wavelengths
Number of Pixels in Spectrum: 3648
>>>>>Begin Spectral Data<<<<<
178.204	-197.29
178.424	-197.29
178.644	-197.29
178.864	-172.71
179.084	-164.52
179.304	17.75
179.524	54.61
179.744	-49.83
179.964	77.14
180.184	-15.02
180.404	-8.87
180.624	-15.02
180.844	-6.83
181.064	34.13
181.283	-41.64
181.503	-31.4
181.723	-15.02
181.943	-4.78
182.163	48.47
182.383	25.94
182.602	73.04
182.822	73.04
183.042	-39.59
183.262	58.71
183.482	21.85
183.701	42.32
183.921	9.56
184.141	36.18
184.361	46.42
184.58	21.85
184.8	42.32
185.02	-43.69
185.239	79.19
185.459	1.37
185.679	36.18
185.898	-15.02
186.118	27.99
186.338	46.42
186.557	-10.92
186.777	15.7
186.997	1.37
187.216	-12.97
187.436	30.04
187.655	42.32
187.875	89.43
188.095	-53.93
188.314	40.28
188.534	30.04
188.753	-0.68
188.973	93.52
189.192	138.58
189.412	32.08
189.631	23.89
189.851	-66.22
190.07	116.05
190.29	-17.07
190.509	-8.87
190.729	-17.07
190.948	87.38
191.168	171.35
191.387	46.42
191.607	11.61
191.826	-27.31
192.045	19.8
192.265	-41.64
192.484	-15.02
192.704	66.9
192.923	-74.41
193.142	99.67
193.362	25.94
193.581	-8.87
193.8	25.94
194.02	91.48
194.239	-8.87
194.458	-27.31
194.678	42.32
194.897	44.37
195.116	7.51
195.335	27.99
195.555	42.32
195.774	-27.31
195.993	27.99
196.212	11.61
196.432	15.7
196.651	-33.45
196.87	25.94
197.089	83.28
197.308	38.23
197.528	95.57
197.747	17.75
197.966	73.04
198.185	148.82
198.404	25.94
198.623	-15.02
198.842	25.94
199.062	-8.87
199.281	54.61
199.5	19.8
199.719	46.42
199.938	89.43
200.157	87.38
200.376	34.13
200.595	75.09
200.814	85.33
201.033	-39.59
201.252	99.67
201.471	13.65
201.69	34.13
201.909	9.56
202.128	34.13
202.347	-31.4
202.566	58.71
202.785	23.89
203.004	-49.83
203.223	66.9
203.442	25.94
203.661	-39.59
203.879	-17.07
204.098	97.62
204.317	-39.59
204.536	62.8
204.755	68.95
204.974	-33.45
205.193	40.28
205.411	114
205.63	15.7
205.849	-17.07
206.068	48.47
206.287	-12.97
206.505	46.42
206.724	1.37
206.943	-31.4
207.162	-19.11
207.381	-41.64
207.599	13.65
207.818	60.76
208.037	-31.4
208.255	5.46
208.474	23.89
208.693	34.13
208.911	1.37
209.13	46.42
209.349	89.43
209.567	83.28
209.786	48.47
210.005	46.42
210.223	15.7
210.442	-31.4
210.661	-6.83
210.879	-23.21
211.098	-8.87
211.316	56.66
211.535	44.37
211.753	21.85
211.972	23.89
212.191	-6.83
212.409	81.24
212.628	17.75
212.846	75.09
213.065	13.65
213.283	101.72
213.502	64.85
213.72	-29.35
213.938	23.89
214.157	19.8
214.375	87.38
214.594	-10.92
214.812	15.7
215.031	36.18
215.249	9.56
215.467	34.13
215.686	5.46
215.904	68.95
216.122	93.52
216.341	73.04
216.559	32.08
216.778	103.76
216.996	34.13
217.214	42.32
217.432	-47.79
217.651	-25.26
217.869	77.14
218.087	13.65
218.306	77.14
218.524	27.99
218.742	1.37
218.96	60.76
219.179	-25.26
219.397	48.47
219.615	64.85
219.833	-6.83
220.051	25.94
220.27	-0.68
220.488	105.81
220.706	9.56
220.924	34.13
221.142	5.46
221.36	1.37
221.578	103.76
221.796	83.28
222.015	54.61
222.233	23.89
222.451	58.71
222.669	-47.79
222.887	42.32
223.105	-74.41
223.323	46.42
223.541	-10.92
223.759	54.61
223.977	17.75
224.195	75.09
224.413	56.66
224.631	44.37
224.849	48.47
225.067	15.7
225.285	66.9
225.503	54.61
225.721	34.13
225.939	25.94
226.157	-8.87
226.375	95.57
226.592	-4.78
226.81	19.8
227.028	75.09
227.246	99.67
227.464	-27.31
227.682	25.94
227.9	-6.83
228.117	25.94
228.335	-17.07
228.553	38.23
228.771	-27.31
228.989	-15.02
229.206	42.32
229.424	13.65
229.642	25.94
229.86	30.04
230.077	15.7
230.295	13.65
230.513	66.9
230.731	42.32
230.948	17.75
231.166	-0.68
231.384	32.08
231.601	48.47
231.819	85.33
232.037	17.75
232.254	-6.83
232.472	23.89
232.689	58.71
232.907	42.32
233.125	34.13
233.342	-6.83
233.56	19.8
233.777	44.37
233.995	34.13
234.213	66.9
234.43	77.14
234.648	1.37
234.865	11.61
235.083	50.52
235.3	75.09
235.518	17.75
235.735	17.75
235.953	11.61
236.17	97.62
236.388	-58.03
236.605	34.13
236.822	-15.02
237.04	64.85
237.257	42.32
237.475	44.37
237.692	54.61
237.909	42.32
238.127	-23.21
238.344	1.37
238.562	21.85
238.779	-0.68
238.996	-15.02
239.214	-17.07
239.431	-2.73
239.648	58.71
239.865	62.8
240.083	107.86
240.3	25.94
240.517	17.75
240.735	27.99
240.952	73.04
241.169	144.72
241.386	46.42
241.603	79.19
241.821	1.37
242.038	-6.83
242.255	38.23
242.472	13.65
242.689	71
242.907	23.89
243.124	32.08
243.341	-2.73
243.558	-47.79
243.775	9.56
243.992	9.56
244.209	75.09
244.426	79.19
244.643	38.23
244.86	-29.35
245.078	89.43
245.295	17.75
245.512	42.32
245.729	-64.17
245.946	46.42
246.163	23.89
246.38	23.89
246.597	54.61
246.814	-8.87
247.031	-23.21
247.248	38.23
247.464	40.28
247.681	50.52
247.898	17.75
248.115	66.9
248.332	-23.21
248.549	64.85
248.766	38.23
248.983	95.57
249.2	83.28
249.417	11.61
249.633	64.85
249.85	46.42
250.067	-0.68
250.284	-15.02
250.501	58.71
250.717	-2.73
250.934	60.76
251.151	-17.07
251.368	25.94
251.585	-0.68
251.801	-35.5
252.018	79.19
252.235	66.9
252.451	-10.92
252.668	-62.12
252.885	23.89
253.102	95.57
253.318	46.42
253.535	-39.59
253.752	44.37
253.968	-33.45
254.185	-23.21
254.401	-47.79
254.618	17.75
254.835	81.24
255.051	36.18
255.268	132.44
255.484	34.13
255.701	-47.79
255.917	9.56
256.134	-6.83
256.351	38.23
256.567	-35.5
256.784	36.18
257	-15.02
257.217	54.61
257.433	11.61
257.65	91.48
257.866	87.38
258.082	15.7
258.299	40.28
258.515	83.28
258.732	17.75
258.948	-10.92
259.165	48.47
259.381	9.56
259.597	48.47
259.814	13.65
260.03	-39.59
260.246	71
260.463	-88.75
260.679	91.48
260.895	56.66
261.112	42.32
261.328	52.56
261.544	-82.6
261.761	58.71
261.977	-31.4
262.193	-6.83
262.409	75.09
262.626	81.24
262.842	73.04
263.058	42.32
263.274	36.18
263.49	25.94
263.707	-31.4
263.923	36.18
264.139	17.75
264.355	-15.02
264.571	85.33
264.787	38.23
265.004	11.61
265.22	30.04
265.436	56.66
265.652	40.28
265.868	36.18
266.084	-6.83
266.3	50.52
266.516	-47.79
266.732	73.04
266.948	75.09
267.164	56.66
267.38	75.09
267.596	25.94
267.812	99.67
268.028	-8.87
268.244	50.52
268.46	7.51
268.676	48.47
268.892	32.08
269.108	-33.45
269.324	38.23
269.54	1.37
269.756	193.87
269.972	-53.93
270.188	-43.69
270.403	-0.68
270.619	-37.55
270.835	17.75
271.051	48.47
271.267	-2.73
271.483	9.56
271.698	9.56
271.914	32.08
272.13	19.8
272.346	109.91
272.562	32.08
272.777	30.04
272.993	25.94
273.209	50.52
273.425	87.38
273.64	46.42
273.856	38.23
274.072	34.13
274.287	7.51
274.503	75.09
274.719	66.9
274.934	50.52
275.15	-78.51
275.366	34.13
275.581	-31.4
275.797	-8.87
276.012	46.42
276.228	15.7
276.444	50.52
276.659	64.85
276.875	50.52
277.09	-23.21
277.306	25.94
277.521	17.75
277.737	-19.11
277.952	-25.26
278.168	83.28
278.383	-0.68
278.599	30.04
278.814	64.85
279.03	50.52
279.245	50.52
279.461	34.13
279.676	58.71
279.892	-41.64
280.107	42.32
280.322	-19.11
280.538	54.61
280.753	15.7
280.969	122.2
281.184	32.08
281.399	-15.02
281.615	21.85
281.83	-2.73
282.045	-82.6
282.26	-15.02
282.476	25.94
282.691	77.14
282.906	25.94
283.122	-31.4
283.337	32.08
283.552	73.04
283.767	-41.64
283.983	62.8
284.198	83.28
284.413	50.52
284.628	-27.31
284.843	17.75
285.058	66.9
285.274	-10.92
285.489	9.56
285.704	75.09
285.919	34.13
286.134	44.37
286.349	-33.45
286.564	40.28
286.779	54.61
286.995	11.61
287.21	-25.26
287.425	62.8
287.64	-6.83
287.855	46.42
288.07	-4.78
288.285	126.29
288.5	128.34
288.715	9.56
288.93	23.89
289.145	-31.4
289.36	99.67
289.575	-23.21
289.79	56.66
290.004	-19.11
290.219	58.71
290.434	19.8
290.649	5.46
290.864	38.23
291.079	-27.31
291.294	132.44
291.509	23.89
291.724	62.8
291.938	-35.5
292.153	5.46
292.368	66.9
292.583	34.13
292.798	-8.87
293.012	95.57
293.227	-39.59
293.442	-6.83
293.657	34.13
293.871	83.28
294.086	105.81
294.301	71
294.516	134.48
294.73	64.85
294.945	-21.16
295.16	9.56
295.374	-0.68
295.589	83.28
295.804	-12.97
296.018	54.61
296.233	58.71
296.447	42.32
296.662	-10.92
296.877	83.28
297.091	21.85
297.306	17.75
297.52	5.46
297.735	-12.97
297.949	25.94
298.164	66.9
298.378	7.51
298.593	23.89
298.807	-0.68
299.022	1.37
299.236	44.37
299.451	34.13
299.665	50.52
299.88	64.85
300.094	66.9
300.309	11.61
300.523	15.7
300.737	27.99
300.952	73.04
301.166	89.43
301.381	56.66
301.595	27.99
301.809	56.66
302.024	-10.92
302.238	48.47
302.452	46.42
302.667	54.61
302.881	75.09
303.095	83.28
303.309	48.47
303.524	46.42
303.738	-15.02
303.952	27.99
304.166	-4.78
304.381	-31.4
304.595	68.95
304.809	54.61
305.023	25.94
305.237	15.7
305.452	66.9
305.666	-47.79
305.88	46.42
306.094	21.85
306.308	122.2
306.522	75.09
306.736	71
306.95	58.71
307.164	32.08
307.379	21.85
307.593	111.96
307.807	101.72
308.021	40.28
308.235	34.13
308.449	-10.92
308.663	58.71
308.877	146.77
309.091	34.13
309.305	23.89
309.519	9.56
309.733	75.09
309.947	-23.21
310.161	103.76
310.374	81.24
310.588	34.13
310.802	-8.87
311.016	17.75
311.23	-0.68
311.444	46.42
311.658	25.94
311.872	32.08
312.085	21.85
312.299	30.04
312.513	62.8
312.727	-0.68
312.941	40.28
313.154	48.47
313.368	34.13
313.582	15.7
313.796	-0.68
314.009	48.47
314.223	-6.83
314.437	13.65
314.651	34.13
314.864	-41.64
315.078	34.13
315.292	42.32
315.505	1.37
315.719	1.37
315.933	75.09
316.146	40.28
316.36	25.94
316.573	111.96
316.787	-2.73
317.001	71
317.214	-39.59
317.428	36.18
317.641	-6.83
317.855	42.32
318.068	11.61
318.282	91.48
318.495	105.81
318.709	1.37
318.922	-2.73
319.136	83.28
319.349	54.61
319.563	42.32
319.776	-58.03
319.99	46.42
320.203	3.41
320.417	5.46
320.63	25.94
320.843	81.24
321.057	1.37
321.27	-12.97
321.483	9.56
321.697	85.33
321.91	17.75
322.124	71
322.337	1.37
322.55	71
322.763	38.23
322.977	-8.87
323.19	42.32
323.403	46.42
323.617	21.85
323.83	50.52
324.043	75.09
324.256	60.76
324.469	89.43
324.683	13.65
324.896	68.95
325.109	64.85
325.322	42.32
325.535	91.48
325.748	46.42
325.962	15.7
326.175	-27.31
326.388	75.09
326.601	32.08
326.814	85.33
327.027	107.86
327.24	101.72
327.453	-10.92
327.666	83.28
327.879	122.2
328.092	91.48
328.305	-2.73
328.518	48.47
328.731	-49.83
328.944	50.52
329.157	73.04
329.37	-0.68
329.583	64.85
329.796	75.09
330.009	-25.26
330.222	13.65
330.435	34.13
330.648	56.66
330.861	17.75
331.073	58.71
331.286	71
331.499	58.71
331.712	75.09
331.925	60.76
332.138	124.24
332.35	93.52
332.563	-17.07
332.776	25.94
332.989	-23.21
333.202	-15.02
333.414	-2.73
333.627	64.85
333.84	38.23
334.053	54.61
334.265	38.23
334.478	21.85
334.691	21.85
334.903	32.08
335.116	19.8
335.329	-43.69
335.541	9.56
335.754	-4.78
335.966	-15.02
336.179	32.08
336.392	-23.21
336.604	17.75
336.817	48.47
337.029	15.7
337.242	5.46
337.454	64.85
337.667	56.66
337.88	126.29
338.092	122.2
338.305	77.14
338.517	13.65
338.729	64.85
338.942	132.44
339.154	34.13
339.367	66.9
339.579	73.04
339.792	25.94
340.004	148.82
340.217	21.85
340.429	64.85
340.641	9.56
340.854	71
341.066	42.32
341.278	27.99
341.491	81.24
341.703	56.66
341.915	-35.5
342.128	56.66
342.34	7.51
342.552	-0.68
342.764	58.71
342.977	95.57
343.189	17.75
343.401	91.48
343.613	36.18
343.826	79.19
344.038	32.08
344.25	58.71
344.462	-82.6
344.674	-6.83
344.886	73.04
345.099	46.42
345.311	46.42
345.523	-64.17
345.735	3.41
345.947	60.76
346.159	-80.55
346.371	21.85
346.583	58.71
346.795	58.71
347.007	81.24
347.219	62.8
347.431	34.13
347.643	48.47
347.855	42.32
348.067	99.67
348.279	9.56
348.491	-41.64
348.703	-6.83
348.915	48.47
349.127	9.56
349.339	-0.68
349.551	44.37
349.763	36.18
349.975	-21.16
350.187	54.61
350.399	44.37
350.61	9.56
350.822	-33.45
351.034	-23.21
351.246	83.28
351.458	34.13
351.669	81.24
351.881	42.32
352.093	107.86
352.305	157.01
352.517	13.65
352.728	126.29
352.94	34.13
353.152	17.75
353.363	-27.31
353.575	79.19
353.787	105.81
353.999	25.94
354.21	122.2
354.422	5.46
354.633	21.85
354.845	-0.68
355.057	-6.83
355.268	56.66
355.48	73.04
355.692	30.04
355.903	75.09
356.115	7.51
356.326	5.46
356.538	42.32
356.749	19.8
356.961	15.7
357.172	21.85
357.384	5.46
357.595	128.34
357.807	50.52
358.018	11.61
358.23	38.23
358.441	99.67
358.653	97.62
358.864	66.9
359.075	73.04
359.287	-31.4
359.498	11.61
359.709	89.43
359.921	54.61
360.132	5.46
360.344	77.14
360.555	15.7
360.766	79.19
360.977	9.56
361.189	56.66
361.4	19.8
361.611	83.28
361.823	50.52
362.034	46.42
362.245	-43.69
362.456	30.04
362.667	66.9
362.879	-76.46
363.09	38.23
363.301	42.32
363.512	120.15
363.723	7.51
363.935	17.75
364.146	-0.68
364.357	-10.92
364.568	50.52
364.779	83.28
364.99	-4.78
365.201	7.51
365.412	48.47
365.623	-31.4
365.834	89.43
366.045	27.99
366.256	38.23
366.467	95.57
366.678	30.04
366.889	-25.26
367.1	142.68
367.311	9.56
367.522	58.71
367.733	34.13
367.944	71
368.155	52.56
368.366	34.13
368.577	-10.92
368.788	83.28
368.999	44.37
369.209	56.66
369.42	148.82
369.631	150.87
369.842	17.75
370.053	83.28
370.264	25.94
370.474	23.89
370.685	5.46
370.896	56.66
371.107	34.13
371.317	99.67
371.528	-19.11
371.739	48.47
371.95	52.56
372.16	50.52
372.371	15.7
372.582	17.75
372.792	54.61
373.003	89.43
373.214	-0.68
373.424	89.43
373.635	13.65
373.846	107.86
374.056	36.18
374.267	21.85
374.477	-31.4
374.688	-15.02
374.898	58.71
375.109	99.67
375.319	73.04
375.53	124.24
375.74	15.7
375.951	50.52
376.161	56.66
376.372	34.13
376.582	40.28
376.793	68.95
377.003	25.94
377.214	-35.5
377.424	-6.83
377.635	87.38
377.845	52.56
378.055	38.23
378.266	-64.17
378.476	75.09
378.686	62.8
378.897	79.19
379.107	50.52
379.317	77.14
379.528	-17.07
379.738	38.23
379.948	-12.97
380.158	89.43
380.369	60.76
380.579	79.19
380.789	30.04
380.999	23.89
381.21	146.77
381.42	62.8
381.63	40.28
381.84	77.14
382.05	34.13
382.261	5.46
382.471	111.96
382.681	73.04
382.891	124.24
383.101	9.56
383.311	89.43
383.521	40.28
383.731	91.48
383.941	116.05
384.151	-27.31
384.361	75.09
384.571	105.81
384.781	17.75
384.991	68.95
385.201	44.37
385.411	15.7
385.621	75.09
385.831	87.38
386.041	64.85
386.251	99.67
386.461	89.43
386.671	71
386.881	-21.16
387.091	21.85
387.301	36.18
387.511	50.52
387.72	34.13
387.93	107.86
388.14	21.85
388.35	34.13
388.56	71
388.769	87.38
388.979	79.19
389.189	46.42
389.399	85.33
389.609	46.42
389.818	48.47
390.028	17.75
390.238	103.76
390.447	34.13
390.657	71
390.867	99.67
391.076	9.56
391.286	32.08
391.496	13.65
391.705	77.14
391.915	50.52
392.125	71
392.334	34.13
392.544	107.86
392.753	114
392.963	73.04
393.172	75.09
393.382	1.37
393.591	105.81
393.801	118.1
394.01	148.82
394.22	124.24
394.429	75.09
394.639	54.61
394.848	54.61
395.058	83.28
395.267	97.62
395.477	89.43
395.686	58.71
395.895	95.57
396.105	75.09
396.314	73.04
396.524	132.44
396.733	38.23
396.942	132.44
397.152	107.86
397.361	75.09
397.57	116.05
397.78	30.04
397.989	87.38
398.198	148.82
398.407	95.57
398.617	79.19
398.826	75.09
399.035	107.86
399.244	120.15
399.453	99.67
399.663	83.28
399.872	81.24
400.081	126.29
400.29	85.33
400.499	34.13
400.708	124.24
400.917	97.62
401.127	54.61
401.336	62.8
401.545	128.34
401.754	71
401.963	181.59
402.172	5.46
402.381	75.09
402.59	52.56
402.799	91.48
403.008	130.39
403.217	122.2
403.426	140.63
403.635	146.77
403.844	107.86
404.053	87.38
404.262	142.68
404.471	177.49
404.68	118.1
404.888	124.24
405.097	58.71
405.306	179.54
405.515	154.96
405.724	140.63
405.933	173.39
406.142	165.2
406.35	144.72
406.559	197.97
406.768	130.39
406.977	181.59
407.185	146.77
407.394	255.31
407.603	165.2
407.812	206.16
408.02	228.69
408.229	230.74
408.438	116.05
408.646	200.02
408.855	216.4
409.064	263.51
409.272	253.27
409.481	304.46
409.69	210.26
409.898	251.22
410.107	275.79
410.315	283.99
410.524	279.89
410.733	257.36
410.941	353.62
411.15	189.78
411.358	304.46
411.567	349.52
411.775	292.18
411.984	365.9
412.192	402.77
412.401	427.34
412.609	476.49
412.818	400.72
413.026	460.11
413.234	511.31
413.443	415.06
413.651	490.83
413.86	558.41
414.068	529.74
414.276	599.37
414.485	482.64
414.693	648.52
414.901	699.72
415.11	615.76
415.318	632.14
415.526	619.85
415.734	705.87
415.943	619.85
416.151	787.79
416.359	683.34
416.567	771.4
416.776	886.09
416.984	853.32
417.192	898.38
417.4	886.09
417.608	918.86
417.817	908.62
418.025	980.29
418.233	1123.65
418.441	1000.77
418.649	1105.22
418.857	1113.41
419.065	1199.43
419.273	1168.71
419.481	1213.76
419.689	1226.05
419.897	1310.02
420.105	1367.36
420.313	1484.09
420.521	1477.95
420.729	1471.81
420.937	1475.9
421.145	1568.06
421.353	1629.5
421.561	1760.57
421.769	1807.67
421.977	1873.21
422.185	1822.01
422.393	1998.13
422.601	2012.47
422.809	1951.03
423.017	2110.77
423.224	2196.79
423.432	2254.13
423.64	2262.32
423.848	2577.71
424.056	2372.91
424.263	2501.94
424.471	2508.08
424.679	2596.14
424.887	2770.22
425.094	2868.52
425.302	2944.3
425.51	2979.11
425.718	2970.92
425.925	3052.84
426.133	3474.72
426.341	3392.8
426.548	3626.27
426.756	3624.22
426.964	3618.08
427.171	3724.57
427.379	4171.03
427.586	3921.18
427.794	4046.1
428.001	4416.79
428.209	4416.79
428.417	4480.27
428.624	4777.23
428.832	4855.05
429.039	4822.28
429.247	4816.14
429.454	5109
429.662	5586.18
429.869	5268.74
430.076	5625.09
430.284	5420.29
430.491	5586.18
430.699	6028.54
430.906	6040.83
431.114	6157.56
431.321	6300.92
431.528	6352.12
431.736	6640.88
431.943	7128.3
432.15	7003.37
432.358	7111.91
432.565	7304.42
432.772	7202.02
432.979	7767.26
433.187	7812.32
433.394	7736.54
433.601	8379.61
433.808	8389.85
434.016	8281.3
434.223	8791.25
434.43	9379.01
434.637	9104.59
434.844	9471.17
435.052	9979.07
435.259	9716.93
435.466	9905.34
435.673	9829.57
435.88	10316.98
436.087	11134.12
436.294	11019.44
436.501	10620.08
436.708	11121.84
436.915	11351.21
437.122	11938.98
437.329	11818.15
437.537	12172.44
437.743	12600.47
437.95	12317.85
438.157	12952.72
438.364	13345.93
438.571	13382.79
438.778	13556.87
438.985	14644.34
439.192	14169.21
439.399	14285.95
439.606	14253.18
439.813	15117.42
440.02	15979.62
440.227	15883.36
440.433	15432.81
440.64	16063.58
440.847	16024.67
441.054	16630.87
441.261	17353.8
441.467	17009.75
441.674	17634.38
441.881	18203.71
442.088	18326.59
442.294	17714.25
442.501	18207.81
442.708	18631.74
442.914	19837.99
443.121	20646.94
443.328	20036.64
443.534	21296.14
443.741	20859.93
443.948	20225.06
444.154	21871.62
444.361	21832.71
444.568	21865.48
444.774	21830.66
444.981	22092.8
445.187	23098.36
445.394	23835.63
445.6	23624.68
445.807	25742.28
446.013	24757.21
446.22	25318.35
446.426	26153.93
446.633	26375.11
446.839	27368.37
447.046	25992.14
447.252	27407.28
447.459	27478.96
447.665	27501.49
447.871	28558.24
448.078	29715.34
448.284	28353.44
448.491	29404.05
448.697	30391.17
448.903	31169.4
449.11	30804.86
449.316	30299.01
449.522	30995.32
449.728	31511.41
449.935	32013.16
450.141	31863.66
450.347	32447.33
450.553	31648.63
450.76	32123.76
450.966	32930.65
451.172	32723.81
451.378	33166.17
451.584	32975.71
451.791	33774.42
451.997	33645.4
452.203	34034.51
452.409	33848.14
452.615	33821.52
452.821	32435.05
453.027	32222.06
453.233	33975.12
453.44	32492.39
453.646	32668.51
453.852	32838.5
454.058	33586
454.264	31912.81
454.47	32811.87
454.676	32263.02
454.882	33309.53
455.088	29901.71
455.294	30622.59
455.5	31128.44
455.705	31681.39
455.911	30444.42
456.117	29842.32
456.323	29297.56
456.529	27927.47
456.735	28631.97
456.941	28081.06
457.147	27667.38
457.352	26782.65
457.558	26389.44
457.764	26303.43
457.97	25875.4
458.176	25377.75
458.381	25314.26
458.587	23929.83
458.793	24267.75
458.999	22633.47
459.204	24679.39
459.41	23884.78
459.616	22189.06
459.821	22166.53
460.027	22318.08
460.233	21351.44
460.438	20323.36
460.644	20814.87
460.85	19852.33
461.055	19502.12
461.261	19330.09
461.466	18207.81
461.672	17302.61
461.878	18592.83
462.083	17450.06
462.289	17089.62
462.494	17030.23
462.7	16333.92
462.905	16014.43
463.111	16442.46
463.316	16364.64
463.522	15785.06
463.727	15971.43
463.932	16139.36
464.138	15836.26
464.343	15658.09
464.549	15529.06
464.754	15950.95
464.959	15570.02
465.165	15834.21
465.37	14953.59
465.575	14576.76
465.781	15283.31
465.986	15350.89
466.191	14789.75
466.397	14496.89
466.602	13763.72
466.807	14394.49
467.012	14066.81
467.218	14296.19
467.423	14199.93
467.628	14312.57
467.833	14765.17
468.038	14236.8
468.244	13522.06
468.449	14214.27
468.654	13876.35
468.859	13851.78
469.064	13595.78
469.269	13048.97
469.474	13378.7
469.679	13601.93
469.885	13030.54
470.09	13386.89
470.295	13202.57
470.5	12768.4
470.705	12723.35
470.91	12571.8
471.115	12487.83
471.32	12715.16
471.525	12344.47
471.73	12436.63
471.935	12315.8
472.139	11705.51
472.344	11992.22
472.549	12135.58
472.754	11754.66
472.959	11674.79
473.164	11246.76
473.369	11312.3
473.574	11633.83
473.778	11369.64
473.983	11246.76
474.188	11267.24
474.393	10773.68
474.598	10581.17
474.802	10601.65
475.007	10681.52
475.212	10687.67
475.417	10263.74
475.621	10298.55
475.826	10241.21
476.031	10036.41
476.235	10165.43
476.44	9999.55
476.645	9583.81
476.849	9868.48
477.054	9700.55
477.259	9729.22
477.463	9620.67
477.668	9495.75
477.872	9491.65
478.077	9272.52
478.282	9151.69
478.486	9159.88
478.691	8903.89
478.895	8977.61
479.1	8701.14
479.304	9002.19
479.509	8430.8
479.713	8864.97
479.918	8309.97
480.122	8617.17
480.326	8611.03
480.531	8496.34
480.735	8592.59
480.94	8107.23
481.144	8666.32
481.348	8246.49
481.553	8320.21
481.757	8195.29
481.961	8111.32
482.166	8447.19
482.37	8279.26
482.574	8187.1
482.778	8193.24
482.983	8330.45
483.187	8201.43
483.391	8293.59
483.595	8117.47
483.8	8049.88
484.004	8240.34
484.208	8275.16
484.412	8203.48
484.616	8254.68
484.821	8367.32
485.025	8133.85
485.229	8180.95
485.433	8082.65
485.637	8287.45
485.841	8103.13
486.045	8199.38
486.249	8094.94
486.453	8086.75
486.657	8029.4
486.861	8066.27
487.065	8092.89
487.269	8215.77
487.473	8078.55
487.677	8215.77
487.881	8389.85
488.085	8068.31
488.289	8277.21
488.493	8371.41
488.697	8176.86
488.901	8201.43
489.105	8258.78
489.309	8232.15
489.512	8234.2
489.716	8133.85
489.92	8254.68
490.124	8252.63
490.328	8377.56
490.531	8195.29
490.735	8604.88
490.939	8375.51
491.143	8375.51
491.346	8258.78
491.55	8582.35
491.754	8529.11
491.958	8561.87
492.161	8547.54
492.365	8639.7
492.569	8514.77
492.772	8645.84
492.976	8502.48
493.18	8862.93
493.383	8684.75
493.587	9008.33
493.79	8987.85
493.994	8774.86
494.197	8887.5
494.401	9002.19
494.605	9100.49
494.808	9450.69
495.012	9383.11
495.215	9344.2
495.419	9405.64
495.622	9168.07
495.825	9692.35
496.029	9549
496.232	9657.54
496.436	9696.45
496.639	9837.76
496.843	10069.18
497.046	10355.9
497.249	10153.15
497.453	10208.44
497.656	10290.36
497.859	10204.35
498.063	10482.87
498.266	10767.54
498.469	10620.08
498.673	10820.78
498.876	10935.47
499.079	11013.29
499.282	10994.86
499.485	11314.34
499.689	11199.66
499.892	11748.51
500.095	11959.45
500.298	11881.63
500.501	11642.02
500.705	12192.92
500.908	12043.42
501.111	12254.36
501.314	12319.9
501.517	12696.72
501.72	12731.54
501.923	12686.48
502.126	12770.45
502.329	13239.44
502.532	13055.12
502.735	13163.66
502.938	13665.41
503.141	13507.72
503.344	13980.8
503.547	13884.55
503.75	13837.44
503.953	14169.21
504.156	14351.48
504.359	14331
504.562	14574.71
504.765	14738.55
504.968	14902.39
505.17	14910.58
505.373	15219.82
505.576	15494.25
505.779	15608.94
505.982	15891.55
506.185	15948.9
506.387	16276.57
506.59	16208.99
506.793	16563.29
506.996	16194.65
507.198	16915.54
507.401	16942.16
507.604	17339.47
507.807	17552.46
508.009	17458.25
508.212	17640.52
508.415	17919.04
508.617	18019.39
508.82	18082.88
509.022	18027.59
509.225	18609.21
509.428	18844.73
509.63	18859.06
509.833	19029.04
510.035	19194.93
510.238	19035.19
510.44	19635.24
510.643	19829.8
510.845	19952.68
511.048	19799.08
511.25	20571.16
511.453	20601.88
511.655	20894.74
511.858	20947.99
512.06	21083.16
512.262	21326.86
512.465	21083.16
512.667	21660.68
512.87	21629.96
513.072	21910.53
513.274	22352.9
513.477	22430.72
513.679	22721.53
513.881	22891.51
514.084	22840.31
514.286	23235.57
514.488	23526.38
514.69	23944.17
514.893	23962.6
515.095	24163.3
515.297	24175.59
515.499	24568.8
515.701	24792.03
515.904	25240.53
516.106	25050.07
516.308	25465.81
516.51	25961.42
516.712	25893.83
516.914	26256.32
517.116	26588.1
517.318	26581.95
517.52	26942.39
517.722	27018.17
517.925	27083.7
518.127	27587.5
518.329	27653.04
518.531	27880.36
518.733	28281.77
518.935	28296.1
519.136	28687.26
519.338	29033.37
519.54	28742.56
519.742	29555.6
519.944	29590.42
520.146	29844.37
520.348	30274.44
520.55	30071.69
520.752	30538.63
520.954	31337.34
521.155	30991.23
521.357	31777.65
521.559	31789.94
521.761	31832.94
521.963	32191.34
522.164	32478.05
522.366	32525.16
522.568	33205.08
522.77	32869.22
522.971	33364.82
523.173	33645.4
523.375	33719.12
523.576	33915.73
523.778	33858.38
523.98	34253.64
524.181	34499.4
524.383	34839.36
524.584	34980.67
524.786	35298.11
524.988	35322.68
525.189	35773.24
525.391	35775.28
525.592	36320.04
525.794	35980.08
525.995	36520.74
526.197	36358.95
526.398	36842.28
526.6	36942.63
526.801	36985.63
527.003	37358.36
527.204	37135.13
527.406	37948.18
527.607	37845.78
527.808	38329.1
528.01	37413.66
528.211	37847.83
528.412	38699.78
528.614	38556.42
528.815	38701.83
529.016	39209.73
529.218	38695.69
529.419	39179.01
529.62	39168.77
529.822	39088.9
530.023	39045.89
530.224	39553.79
530.425	39459.58
530.626	39150.34
530.828	39408.38
531.029	40506.09
531.23	39779.06
531.431	40088.31
531.632	40069.87
531.833	40413.93
532.035	40178.42
532.236	40282.86
532.437	40598.25
532.638	40602.35
532.839	40667.88
533.04	40770.28
533.241	40538.86
533.442	40999.65
533.643	41036.52
533.844	40766.18
534.045	40848.1
534.246	40694.5
534.447	40882.92
534.648	40995.56
534.849	41290.46
535.05	40839.91
535.251	41130.72
535.451	41157.35
535.652	41274.08
535.853	41247.46
536.054	41233.12
536.255	41450.2
536.456	40729.32
536.657	41763.54
536.857	41241.31
537.058	41347.81
537.259	41673.43
537.46	41532.12
537.66	41523.93
537.861	41659.1
538.062	41419.49
538.263	41667.29
538.463	41294.56
538.664	41341.66
538.865	41568.99
539.065	41659.1
539.266	41175.78
539.466	41757.4
539.667	41200.35
539.868	41775.83
540.068	41591.51
540.269	41474.78
540.469	41859.8
540.67	41513.69
540.87	41237.22
541.071	41655
541.271	42146.51
541.472	41372.38
541.672	41229.02
541.873	41429.73
542.073	41151.2
542.274	41722.58
542.474	41286.37
542.675	41317.09
542.875	42363.6
543.075	41376.48
543.276	41046.75
543.476	41847.51
543.676	41272.03
543.877	41622.23
544.077	41341.66
544.277	41724.63
544.478	41472.73
544.678	41589.47
544.878	41087.71
545.078	41472.73
545.279	41161.44
545.479	41356
545.679	41552.6
545.879	41401.05
546.079	41382.62
546.28	41329.37
546.48	41290.46
546.68	41323.23
546.88	41534.17
547.08	41241.31
547.28	41085.67
547.48	41147.11
547.68	41263.84
547.88	41093.86
548.081	41290.46
548.281	41022.18
548.481	41163.49
548.681	41564.89
548.881	41069.28
549.081	41032.42
549.28	40813.29
549.48	41833.17
549.68	40905.45
549.88	41673.43
550.08	41231.07
550.28	41650.91
550.48	41016.04
550.68	41284.32
550.88	41013.99
551.08	41161.44
551.279	41327.33
551.479	40774.38
551.679	41194.21
551.879	41169.63
552.079	41642.71
552.278	40956.64
552.478	40899.3
552.678	41216.74
552.878	41263.84
553.077	40786.66
553.277	40889.06
553.477	41177.82
553.676	40323.82
553.876	40999.65
554.076	40962.79
554.275	40598.25
554.475	40450.8
554.674	40798.95
554.874	40573.67
555.074	40354.54
555.273	40567.53
555.473	40790.76
555.672	40127.22
555.872	40319.73
556.071	40475.37
556.271	40334.06
556.47	40213.23
556.67	39713.53
556.869	40102.64
557.068	40125.17
557.268	39918.32
557.467	39547.64
557.667	39920.37
557.866	40055.54
558.065	39594.75
558.265	39422.72
558.464	39400.19
558.663	39650.04
558.863	39019.27
559.062	40024.82
559.261	39336.7
559.461	39359.23
559.66	39113.47
559.859	38974.21
560.058	38765.32
560.258	38863.62
560.457	38265.61
560.656	39002.88
560.855	38710.02
561.054	38406.92
561.253	38165.26
561.453	38533.9
561.652	38787.85
561.851	38114.06
562.05	38075.15
562.249	37542.68
562.448	37874.45
562.647	38095.63
562.846	37524.25
563.045	37888.79
563.244	37663.51
563.443	37718.81
563.642	37352.22
563.841	37153.57
564.04	37341.98
564.239	37575.45
564.438	36891.43
564.637	37016.35
564.836	36936.48
565.035	36576.04
565.234	36668.2
565.432	36502.31
565.631	36492.07
565.83	36596.52
566.029	36117.29
566.228	35797.81
566.427	35994.42
566.625	35818.29
566.824	35470.14
567.023	35935.02
567.222	35302.2
567.42	35646.26
567.619	35277.63
567.818	35320.63
568.016	34892.61
568.215	35302.2
568.414	34999.1
568.612	34974.53
568.811	34786.11
569.01	34753.35
569.208	34075.47
569.407	34278.22
569.605	33887.06
569.804	34278.22
570.002	33864.53
570.201	34362.18
570.4	33731.41
570.598	33471.32
570.797	33344.34
570.995	33549.14
571.193	32883.55
571.392	33422.17
571.59	32832.35
571.789	33131.36
571.987	32680.8
572.186	32746.34
572.384	32545.64
572.582	32625.51
572.781	32527.2
572.979	31906.67
573.177	32238.44
573.376	32428.9
573.574	32179.05
573.772	31902.57
573.971	31791.98
574.169	31587.19
574.367	31591.28
574.565	31669.11
574.763	31347.58
574.962	31150.97
575.16	30616.45
575.358	31208.31
575.556	30983.04
575.754	31560.56
575.952	30616.45
576.151	30890.88
576.349	30337.93
576.547	30380.93
576.745	30122.89
576.943	30385.03
577.141	30280.58
577.339	29836.17
577.537	30243.72
577.735	30022.54
577.933	29598.61
578.131	29686.67
578.329	30002.06
578.527	29375.38
578.725	29627.28
578.923	29627.28
579.121	28941.21
579.319	29168.54
579.516	29367.19
579.714	29307.8
579.912	28978.08
580.11	28969.88
580.308	28998.55
580.506	28631.97
580.704	28230.57
580.901	28793.76
581.099	28924.83
581.297	28195.75
581.495	28380.07
581.692	28627.87
581.89	28052.39
582.088	28109.74
582.285	27876.27
582.483	28136.36
582.681	28007.34
582.878	27687.85
583.076	27630.51
583.274	27650.99
583.471	27333.56
583.669	27585.46
583.866	27446.19
584.064	27392.95
584.262	26823.61
584.459	26874.81
584.657	26971.07
584.854	27186.1
585.052	26774.46
585.249	26905.53
585.447	26702.78
585.644	26710.97
585.841	26532.8
586.039	26657.73
586.236	26491.84
586.434	25926.6
586.631	26155.97
586.828	26397.63
587.026	26381.25
587.223	26192.84
587.42	25838.54
587.618	25930.7
587.815	25603.02
588.012	25715.66
588.21	25488.34
588.407	25826.25
588.604	25691.09
588.801	25379.79
588.999	25119.7
589.196	25394.13
589.393	25344.98
589.59	25131.99
589.787	24855.51
589.984	24810.46
590.182	24550.37
590.379	24857.56
590.576	24538.08
590.773	24818.65
590.97	24353.76
591.167	24693.72
591.364	24345.57
591.561	24730.59
591.758	24019.94
591.955	24382.43
592.152	24419.3
592.349	24056.81
592.546	24208.36
592.743	23968.74
592.94	23522.29
593.137	24026.09
593.334	23788.52
593.531	23450.61
593.727	23854.06
593.924	23725.04
594.121	23262.19
594.318	23383.02
594.515	23075.83
594.712	23542.77
594.908	22877.18
595.105	23038.97
595.302	22881.27
595.499	22995.96
595.696	22678.52
595.892	22494.21
596.089	22817.79
596.286	22940.66
596.482	22637.56
596.679	22477.82
596.876	22346.75
597.072	22057.99
597.269	22547.45
597.466	22103.04
597.662	22123.52
597.859	21967.88
598.055	22041.6
598.252	21695.5
598.448	21908.49
598.645	22070.28
598.841	21605.39
599.038	21564.43
599.234	21570.57
599.431	21324.82
599.627	21371.92
599.824	21304.34
600.02	21148.69
600.217	21634.06
600.413	21267.47
600.609	21038.1
600.806	21101.59
601.002	21173.27
601.198	20829.21
601.395	20718.62
601.591	20532.25
601.787	20636.7
601.984	20386.85
602.18	20827.16
602.376	20448.29
602.572	20534.3
602.769	20364.32
602.965	19919.91
603.161	20325.41
603.357	20096.03
603.553	20276.26
603.75	20223.01
603.946	19737.64
604.142	20014.12
604.338	19668.01
604.534	19813.42
604.73	19629.1
604.926	19594.28
605.122	19911.72
605.318	19741.74
605.514	19577.9
605.71	19403.82
605.906	19252.27
606.102	19235.89
606.298	19369.01
606.494	19020.85
606.69	19205.17
606.886	19340.33
607.082	19158.06
607.278	19131.44
607.474	18957.36
607.67	19162.16
607.866	18607.16
608.062	19113.01
608.257	18943.03
608.453	18869.3
608.649	18795.57
608.845	18537.53
609.041	18596.92
609.236	18771
609.432	18539.58
609.628	18562.11
609.824	18207.81
610.019	18101.31
610.215	18439.23
610.411	18617.4
610.606	18265.15
610.802	18400.32
610.998	18168.9
611.193	18035.78
611.389	18216
611.584	18201.66
611.78	18015.3
611.976	17775.69
612.171	18197.57
612.367	17683.53
612.562	17804.36
612.758	17593.42
612.953	17658.95
613.149	17890.37
613.344	17695.82
613.539	17828.93
613.735	17704.01
613.93	17599.56
614.126	17171.54
614.321	17658.95
614.517	17609.8
614.712	17390.67
614.907	17386.57
615.103	17466.44
615.298	17134.67
615.493	17247.31
615.688	16942.16
615.884	17572.94
616.079	17024.08
616.274	17261.65
616.47	16936.02
616.665	17056.85
616.86	16917.59
617.055	16979.03
617.25	16823.38
617.445	16876.63
617.641	16720.98
617.836	16655.45
618.031	16491.61
618.226	16618.58
618.421	16598.1
618.616	16792.66
618.811	16323.68
619.006	16741.46
619.201	16295
619.396	16487.51
619.591	16262.24
619.786	16454.75
619.981	15991.91
620.176	16135.26
620.371	15971.43
620.566	15922.27
620.761	16004.19
620.956	16129.12
621.151	15631.46
621.346	15856.74
621.541	15586.41
621.735	15658.09
621.93	15629.41
622.125	15316.08
622.32	14980.21
622.515	15293.55
622.709	15068.27
622.904	15109.23
623.099	14947.44
623.294	14881.91
623.488	14564.47
623.683	14718.07
623.878	14537.85
624.072	14578.81
624.267	14599.29
624.462	14384.25
624.656	14320.76
624.851	14230.65
625.046	14277.76
625.24	14201.98
625.435	13937.79
625.629	13927.55
625.824	13890.69
626.018	14046.33
626.213	13403.27
626.407	13689.99
626.602	13638.79
626.796	13616.26
626.991	13599.88
627.185	13345.93
627.38	13321.35
627.574	13241.48
627.768	13192.33
627.963	13274.25
628.157	12999.82
628.352	13233.29
628.546	12958.86
628.74	12829.84
628.935	12598.42
629.129	12729.49
629.323	12549.27
629.517	12395.67
629.712	12510.36
629.906	12344.47
630.1	12106.91
630.294	12453.02
630.489	12389.53
630.683	12248.22
630.877	12143.77
631.071	11834.53
631.265	11844.77
631.459	11959.45
631.653	11861.15
631.848	12104.86
632.042	11789.47
632.236	11738.27
632.43	11560.1
632.624	11613.35
632.818	11482.28
633.012	11334.82
633.206	11289.77
633.4	11355.3
633.594	11187.37
633.788	11238.57
633.982	11281.58
634.176	11177.13
634.369	11103.4
634.563	11103.4
634.757	10615.99
634.951	10921.13
635.145	10861.74
635.339	10792.11
635.533	10790.06
635.726	10650.8
635.92	10464.44
636.114	10757.3
636.308	10429.62
636.501	10345.66
636.695	10456.25
636.889	10251.45
637.083	10450.1
637.276	10187.96
637.47	10110.14
637.664	10054.84
637.857	10163.39
638.051	9946.3
638.244	9862.33
638.438	9993.4
638.632	10020.03
638.825	9817.28
639.019	9860.29
639.212	9575.62
639.406	9657.54
639.599	9528.52
639.793	9430.21
639.986	9293
640.18	9446.6
640.373	9520.32
640.567	9153.74
640.76	9336.01
640.954	8977.61
641.147	9145.55
641.34	9082.06
641.534	9172.17
641.727	8979.66
641.92	9012.43
642.114	8942.8
642.307	8819.92
642.5	8922.32
642.694	8643.79
642.887	8709.33
643.08	8916.17
643.273	8633.55
643.467	8565.97
643.66	8588.5
643.853	8502.48
644.046	8393.94
644.239	8447.19
644.432	8238.3
644.626	8371.41
644.819	8357.08
645.012	8299.73
645.205	8283.35
645.398	8166.62
645.591	8094.94
645.784	8219.86
645.977	8056.03
646.17	7931.1
646.363	8062.17
646.556	7890.14
646.749	7865.57
646.942	7869.66
647.135	7726.3
647.328	7877.85
647.521	7742.69
647.714	7795.93
647.907	7488.74
648.099	7554.27
648.292	7419.11
648.485	7480.55
648.678	7429.35
648.871	7494.88
649.064	7380.2
649.256	7283.94
649.449	7290.09
649.642	7455.97
649.835	7193.83
650.027	7191.78
650.22	7099.62
650.413	7054.57
650.605	7070.95
650.798	7251.17
650.991	7165.16
651.183	6993.13
651.376	7093.48
651.568	7070.95
651.761	6997.23
651.954	6956.27
652.146	6804.72
652.339	6718.7
652.531	6681.84
652.724	6874.35
652.916	6628.59
653.109	6548.72
653.301	6698.22
653.494	6604.02
653.686	6595.82
653.879	6739.18
654.071	6536.43
654.263	6460.66
654.456	6534.39
654.648	6474.99
654.84	6436.08
655.033	6358.26
655.225	6268.15
655.417	6255.86
655.61	6296.82
655.802	6235.38
655.994	6309.11
656.186	6200.57
656.379	6051.07
656.571	6200.57
656.763	6173.94
656.955	6075.64
657.148	6067.45
657.34	5997.82
657.532	6008.06
657.724	5940.47
657.916	5975.29
658.108	6083.83
658.3	5901.56
658.492	5913.85
658.684	5782.78
658.876	5782.78
659.068	5741.82
659.26	5989.63
659.452	5725.44
659.644	5743.87
659.836	5850.36
660.028	5553.41
660.22	5633.28
660.412	5590.27
660.604	5563.65
660.796	5672.19
660.988	5537.02
661.18	5629.18
661.372	5477.63
661.563	5573.89
661.755	5471.49
661.947	5422.34
662.139	5373.19
662.331	5461.25
662.522	5240.07
662.714	5401.86
662.906	5324.04
663.097	5391.62
663.289	5244.17
663.481	5313.8
663.673	5201.16
663.864	5160.2
664.056	5086.47
664.247	5162.25
664.439	5094.66
664.631	5199.11
664.822	5109
665.014	5149.96
665.205	5178.63
665.397	4973.83
665.588	5096.71
665.78	4998.41
665.971	4982.03
666.163	5070.09
666.354	5047.56
666.546	4881.67
666.737	4941.07
666.929	5072.14
667.12	4910.35
667.311	4748.56
667.503	4867.34
667.694	4900.11
667.885	4939.02
668.077	4734.22
668.268	4756.75
668.459	4883.72
668.651	4891.91
668.842	4861.2
669.033	4848.91
669.224	4746.51
669.416	4785.42
669.607	4818.19
669.798	4812.04
669.989	4883.72
670.18	4775.18
670.371	4744.46
670.563	4762.89
670.754	4769.04
670.945	4603.15
671.136	4908.3
671.327	4699.41
671.518	4834.57
671.709	4781.32
671.9	4758.8
672.091	4773.13
672.282	4803.85
672.473	4738.32
672.664	4771.08
672.855	4687.12
673.046	4625.68
673.237	4848.91
673.428	4635.92
673.619	4683.02
673.809	4582.67
674	4699.41
674.191	4777.23
674.382	4623.63
674.573	4748.56
674.764	4699.41
674.954	4713.74
675.145	4699.41
675.336	4683.02
675.527	4711.69
675.717	4740.37
675.908	4760.84
676.099	4902.15
676.289	4748.56
676.48	4666.64
676.671	4732.17
676.861	4728.08
677.052	4840.72
677.243	4771.08
677.433	4840.72
677.624	4898.06
677.814	4775.18
678.005	4826.38
678.195	4799.76
678.386	4865.29
678.576	4885.77
678.767	4850.96
678.957	4801.8
679.148	4988.17
679.338	4988.17
679.529	4967.69
679.719	4840.72
679.909	5068.04
680.1	4889.87
680.29	4984.07
680.481	4865.29
680.671	4941.07
680.861	4998.41
681.052	5143.81
681.242	5113.1
681.432	5111.05
681.622	5045.51
681.813	4977.93
682.003	5104.9
682.193	4965.64
682.383	5104.9
682.573	4975.88
682.764	5143.81
682.954	5260.55
683.144	4986.12
683.334	5074.18
683.524	5125.38
683.714	5061.9
683.904	5070.09
684.094	5149.96
684.284	5240.07
684.474	5121.29
684.664	5170.44
684.854	5289.22
685.044	5205.25
685.234	5029.13
685.424	4945.16
685.614	5072.14
685.804	5070.09
685.994	5127.43
686.184	5096.71
686.374	5166.34
686.564	5158.15
686.753	5195.01
686.943	4867.34
687.133	4986.12
687.323	4881.67
687.513	4973.83
687.702	4930.83
687.892	4902.15
688.082	4998.41
688.272	4969.74
688.461	4732.17
688.651	4906.25
688.841	4836.62
689.03	4773.13
689.22	4814.09
689.41	4805.9
689.599	4717.84
689.789	4867.34
689.979	4658.45
690.168	4732.17
690.358	4726.03
690.547	4506.9
690.737	4554
690.926	4586.77
691.116	4478.23
691.305	4504.85
691.495	4400.4
691.684	4408.59
691.874	4537.62
692.063	4314.39
692.252	4367.63
692.442	4435.22
692.631	4255
692.82	4332.82
693.01	4330.77
693.199	4304.15
693.388	4273.43
693.578	3955.99
693.767	4265.24
693.956	4203.8
694.146	4064.54
694.335	4048.15
694.524	4160.79
694.713	4156.69
694.902	4064.54
695.092	4003.1
695.281	3974.42
695.47	4248.85
695.659	3943.71
695.848	3992.86
696.037	4056.34
696.226	3990.81
696.415	4050.2
696.604	3925.27
696.793	3915.03
696.982	3869.98
697.171	3867.93
697.36	3953.95
697.549	3816.73
697.738	3917.08
697.927	3767.58
698.116	3964.18
698.305	3763.48
698.494	3931.42
698.683	3786.01
698.872	3843.35
699.061	3869.98
699.25	3786.01
699.438	3888.41
699.627	3921.18
699.816	3843.35
700.005	3851.55
700.193	3736.86
700.382	3982.62
700.571	3896.6
700.76	3962.14
700.948	3882.27
701.137	3978.52
701.326	3829.02
701.514	3771.68
701.703	3872.03
701.892	3872.03
702.08	3867.93
702.269	3908.89
702.457	3732.76
702.646	3941.66
702.834	3769.63
703.023	3712.28
703.212	3876.12
703.4	4099.35
703.589	3867.93
703.777	3925.27
703.965	3874.07
704.154	3814.68
704.342	3745.05
704.531	3933.47
704.719	3826.97
704.907	3929.37
705.096	3910.94
705.284	3960.09
705.472	4023.58
705.661	3953.95
705.849	3970.33
706.037	3923.23
706.226	4052.25
706.414	3962.14
706.602	4007.19
706.79	4095.25
706.979	3896.6
707.167	3978.52
707.355	3908.89
707.543	3833.11
707.731	4107.54
707.919	3906.84
708.107	4005.14
708.296	4035.86
708.484	3960.09
708.672	4150.55
708.86	4326.68
709.048	4111.64
709.236	4068.63
709.424	4031.77
709.612	4232.47
709.8	4220.18
709.988	4128.02
710.176	4285.72
710.364	4293.91
710.551	4228.37
710.739	4117.78
710.927	4242.71
711.115	4242.71
711.303	4404.5
711.491	4259.09
711.679	4306.2
711.866	4384.02
712.054	4529.42
712.242	4381.97
712.43	4523.28
712.617	4416.79
712.805	4472.08
712.993	4314.39
713.181	4474.13
713.368	4386.07
713.556	4586.77
713.744	4498.7
713.931	4488.46
714.119	4556.05
714.306	4500.75
714.494	4605.2
714.682	4631.82
714.869	4439.31
715.057	4654.35
715.244	4678.93
715.432	4719.89
715.619	4738.32
715.807	4701.45
715.994	4656.4
716.182	4785.42
716.369	4627.73
716.556	4789.52
716.744	4883.72
716.931	4924.68
717.119	4961.55
717.306	4810
717.493	4961.55
717.681	5053.7
717.868	5022.98
718.055	5022.98
718.242	5119.24
718.43	5065.99
718.617	5102.86
718.804	5088.52
718.991	4902.15
719.179	5145.86
719.366	5094.66
719.553	5252.36
719.74	5264.65
719.927	5217.54
720.114	5137.67
720.301	5248.26
720.488	5231.88
720.676	5231.88
720.863	5309.7
721.05	5391.62
721.237	5240.07
721.424	5397.76
721.611	5383.43
721.798	5313.8
721.985	5317.89
722.172	5358.85
722.358	5440.77
722.545	5487.87
722.732	5473.54
722.919	5547.26
723.106	5438.72
723.293	5547.26
723.48	5530.88
723.667	5582.08
723.853	5571.84
724.04	5661.95
724.227	5612.8
724.414	5604.61
724.6	5625.09
724.787	5690.62
724.974	5760.25
725.161	5889.28
725.347	5651.71
725.534	5788.93
725.72	5670.14
725.907	5700.86
726.094	5872.89
726.28	5844.22
726.467	5727.49
726.653	5842.17
726.84	5848.32
727.027	5858.56
727.213	5772.54
727.4	6003.96
727.586	5795.07
727.773	6001.91
727.959	6012.15
728.145	6006.01
728.332	6079.74
728.518	5965.05
728.705	5899.52
728.891	6067.45
729.077	5997.82
729.264	5973.24
729.45	6030.59
729.636	6190.33
729.823	6036.73
730.009	6122.74
730.195	6051.07
730.382	6200.57
730.568	6225.14
730.754	6180.09
730.94	6239.48
731.126	6214.9
731.313	6223.09
731.499	6235.38
731.685	6264.05
731.871	6251.77
732.057	6341.88
732.243	6378.74
732.429	6219
732.615	6300.92
732.801	6247.67
732.987	6259.96
733.173	6474.99
733.359	6272.25
733.545	6280.44
733.731	6323.44
733.917	6368.5
734.103	6481.14
734.289	6472.95
734.475	6333.68
734.661	6362.36
734.847	6386.93
735.033	6141.18
735.219	6391.03
735.404	6487.28
735.59	6399.22
735.776	6464.75
735.962	6479.09
736.148	6601.97
736.333	6391.03
736.519	6421.75
736.705	6503.67
736.89	6554.87
737.076	6436.08
737.262	6452.47
737.447	6331.64
737.633	6483.19
737.819	6425.84
738.004	6358.26
738.19	6427.89
738.375	6458.61
738.561	6493.43
738.747	6288.63
738.932	6339.83
739.118	6397.17
739.303	6348.02
739.489	6345.97
739.674	6081.78
739.859	6339.83
740.045	6194.42
740.23	6479.09
740.416	6200.57
740.601	6341.88
740.786	6352.12
740.972	6178.04
741.157	6251.77
741.342	6106.36
741.528	6317.3
741.713	6305.01
741.898	6249.72
742.084	6292.73
742.269	6184.18
742.454	6141.18
742.639	6259.96
742.824	6028.54
743.01	6083.83
743.195	6247.67
743.38	6188.28
743.565	6116.6
743.75	6227.19
743.935	6055.16
744.12	6001.91
744.305	5911.8
744.49	5848.32
744.675	5768.45
744.86	5872.89
745.045	5813.5
745.23	5969.15
745.415	5958.91
745.6	5823.74
745.785	5795.07
745.97	5719.29
746.155	5750.01
746.34	5713.15
746.525	5522.69
746.71	5715.2
746.895	5555.46
747.079	5739.77
747.264	5496.07
747.449	5299.46
747.634	5494.02
747.819	5367.04
748.003	5426.43
748.188	5289.22
748.373	5221.64
748.557	5385.48
748.742	5375.24
748.927	5281.03
749.111	5336.32
749.296	5170.44
749.481	5246.21
749.665	5113.1
749.85	5121.29
750.034	5051.66
750.219	5137.67
750.404	4900.11
750.588	4918.54
750.773	4990.22
750.957	4869.39
751.141	4883.72
751.326	4863.24
751.51	4805.9
751.695	4781.32
751.879	4656.4
752.064	4519.18
752.248	4707.6
752.432	4732.17
752.617	4711.69
752.801	4517.14
752.985	4529.42
753.17	4601.1
753.354	4633.87
753.538	4474.13
753.722	4566.29
753.907	4470.03
754.091	4248.85
754.275	4283.67
754.459	4306.2
754.643	4281.62
754.828	4228.37
755.012	4164.89
755.196	4158.74
755.38	4085.02
755.564	4209.94
755.748	3951.9
755.932	4173.08
756.116	3900.7
756.3	3984.66
756.484	4031.77
756.668	3935.51
756.852	3802.4
757.036	3896.6
757.22	3904.79
757.404	3853.59
757.588	3794.2
757.772	3906.84
757.956	3822.88
758.14	3585.31
758.323	3689.76
758.507	3712.28
758.691	3544.35
758.875	3630.37
759.059	3697.95
759.242	3626.27
759.426	3548.45
759.61	3595.55
759.794	3456.29
759.977	3540.26
760.161	3513.63
760.345	3458.34
760.528	3294.5
760.712	3400.99
760.895	3298.6
761.079	3355.94
761.263	3276.07
761.446	3351.84
761.63	3181.86
761.813	3167.53
761.997	3216.68
762.18	3233.06
762.364	3142.95
762.547	3040.55
762.731	3145
762.914	3212.58
763.098	2991.4
763.281	3110.18
763.464	3157.29
763.648	3038.5
763.831	3018.02
764.015	2975.02
764.198	2946.34
764.381	3056.93
764.564	3040.55
764.748	2923.82
764.931	2925.86
765.114	2874.67
765.297	2942.25
765.481	2987.3
765.664	2848.04
765.847	2991.4
766.03	2757.93
766.213	2837.8
766.397	2745.64
766.58	2704.68
766.763	2778.41
766.946	2710.83
767.129	2770.22
767.312	2807.08
767.495	2811.18
767.678	2727.21
767.861	2630.96
768.044	2696.49
768.227	2692.4
768.41	2712.88
768.593	2684.2
768.776	2557.23
768.959	2606.38
769.142	2688.3
769.324	2508.08
769.507	2493.74
769.69	2557.23
769.873	2532.65
770.056	2559.28
770.239	2546.99
770.421	2594.09
770.604	2448.69
770.787	2417.97
770.97	2442.54
771.152	2471.22
771.335	2393.39
771.518	2241.84
771.7	2469.17
771.883	2395.44
772.066	2422.06
772.248	2405.68
772.431	2211.12
772.613	2344.24
772.796	2198.84
772.978	2184.5
773.161	2309.43
773.343	2194.74
773.526	2245.94
773.708	2188.6
773.891	2049.33
774.073	2131.25
774.256	2106.68
774.438	2188.6
774.621	2164.02
774.803	2182.45
774.985	2049.33
775.168	2137.4
775.35	1973.56
775.532	2094.39
775.715	2082.1
775.897	1975.61
776.079	1951.03
776.261	1965.37
776.444	1975.61
776.626	1967.42
776.808	1885.5
776.99	1758.52
777.173	1924.41
777.355	1877.3
777.537	1926.46
777.719	1811.77
777.901	1824.06
778.083	1779
778.265	1772.86
778.447	1776.95
778.629	1717.56
778.811	1645.88
778.993	1803.58
779.175	1742.14
779.357	1707.32
779.539	1627.45
779.721	1719.61
779.903	1606.97
780.085	1617.21
780.267	1701.18
780.449	1568.06
780.631	1553.73
780.812	1508.67
780.994	1555.77
781.176	1643.84
781.358	1574.21
781.54	1531.2
781.721	1561.92
781.903	1551.68
782.085	1566.01
782.267	1480
782.448	1459.52
782.63	1402.18
782.812	1434.94
782.993	1441.09
783.175	1547.58
783.357	1410.37
783.538	1453.38
783.72	1342.78
783.901	1398.08
784.083	1361.22
784.264	1346.88
784.446	1307.97
784.627	1226.05
784.809	1246.53
784.99	1281.35
785.172	1453.38
785.353	1287.49
785.535	1262.91
785.716	1230.15
785.897	1162.56
786.079	1310.02
786.26	1326.4
786.441	1221.95
786.623	1217.86
786.804	1219.91
786.985	1111.36
787.167	1131.84
787.348	1189.19
787.529	1135.94
787.71	1144.13
787.891	988.49
788.073	1062.21
788.254	1148.23
788.435	1146.18
788.616	1002.82
788.797	1084.74
788.978	1074.5
789.159	922.95
789.34	1021.25
789.522	1031.49
789.703	1037.64
789.884	1115.46
790.065	1013.06
790.246	996.68
790.427	1041.73
790.607	1000.77
790.788	1041.73
790.969	982.34
791.15	937.29
791.331	996.68
791.512	968.01
791.693	933.19
791.874	787.79
792.054	984.39
792.235	912.71
792.416	861.51
792.597	908.62
792.778	857.42
792.958	861.51
793.139	881.99
793.32	908.62
793.5	826.7
793.681	947.53
793.862	914.76
794.042	806.22
794.223	787.79
794.404	804.17
794.584	773.45
794.765	818.5
794.945	824.65
795.126	834.89
795.306	900.42
795.487	795.98
795.667	693.58
795.848	804.17
796.028	718.15
796.209	726.35
796.389	744.78
796.57	716.11
796.75	787.79
796.93	824.65
797.111	646.48
797.291	679.24
797.471	781.64
797.652	832.84
797.832	750.92
798.012	800.07
798.192	808.27
798.373	660.81
798.553	613.71
798.733	761.16
798.913	685.39
799.093	777.55
799.274	703.82
799.454	730.44
799.634	673.1
799.814	724.3
799.994	728.39
800.174	634.19
800.354	689.48
800.534	709.96
800.714	652.62
800.894	656.72
801.074	648.52
801.254	642.38
801.434	646.48
801.614	646.48
801.794	574.8
801.974	1379.65
802.154	648.52
802.334	523.6
802.514	582.99
802.693	591.18
802.873	585.04
803.053	570.7
803.233	603.47
803.413	580.94
803.592	578.89
803.772	574.8
803.952	605.52
804.131	574.8
804.311	539.98
804.491	615.76
804.67	556.36
804.85	482.64
805.03	525.65
805.209	548.17
805.389	496.97
805.568	499.02
805.748	595.28
805.928	501.07
806.107	558.41
806.287	515.41
806.466	499.02
806.646	525.65
806.825	458.06
807.004	548.17
807.184	486.73
807.363	539.98
807.543	482.64
807.722	433.49
807.901	527.69
808.081	486.73
808.26	466.25
808.439	451.92
808.619	527.69
808.798	509.26
808.977	556.36
809.156	486.73
809.336	507.21
809.515	537.93
809.694	443.73
809.873	466.25
810.052	550.22
810.231	472.4
810.411	449.87
810.59	482.64
810.769	384.34
810.948	484.69
811.127	419.15
811.306	394.58
811.485	402.77
811.664	435.53
811.843	480.59
812.022	398.67
812.201	427.34
812.38	415.06
812.559	447.82
812.737	367.95
812.916	429.39
813.095	365.9
813.274	488.78
813.453	482.64
813.632	431.44
813.811	458.06
813.989	419.15
814.168	480.59
814.347	345.42
814.526	376.14
814.704	466.25
814.883	433.49
815.062	402.77
815.24	410.96
815.419	320.85
815.598	460.11
815.776	398.67
815.955	408.91
816.133	380.24
816.312	384.34
816.49	333.14
816.669	439.63
816.847	320.85
817.026	449.87
817.204	402.77
817.383	427.34
817.561	322.9
817.74	335.18
817.918	361.81
818.097	359.76
818.275	337.23
818.453	410.96
818.632	363.86
818.81	308.56
818.988	316.75
819.167	331.09
819.345	324.94
819.523	286.03
819.701	353.62
819.879	335.18
820.058	333.14
820.236	259.41
820.414	306.51
820.592	353.62
820.77	300.37
820.948	302.42
821.127	312.66
821.305	283.99
821.483	238.93
821.661	294.22
821.839	267.6
822.017	296.27
822.195	220.5
822.373	286.03
822.551	300.37
822.729	302.42
822.907	206.16
823.085	288.08
823.262	245.07
823.44	261.46
823.618	335.18
823.796	322.9
823.974	273.75
824.152	245.07
824.329	304.46
824.507	353.62
824.685	279.89
824.863	206.16
825.04	324.94
825.218	283.99
825.396	212.31
825.574	273.75
825.751	296.27
825.929	261.46
826.107	292.18
826.284	245.07
826.462	152.92
826.639	286.03
826.817	134.48
826.994	279.89
827.172	214.35
827.349	370
827.527	296.27
827.704	222.55
827.882	296.27
828.059	298.32
828.237	224.59
828.414	267.6
828.591	140.63
828.769	255.31
828.946	271.7
829.124	193.87
829.301	214.35
829.478	222.55
829.655	269.65
829.833	275.79
830.01	152.92
830.187	243.03
830.364	238.93
830.542	281.94
830.719	236.88
830.896	335.18
831.073	197.97
831.25	181.59
831.427	173.39
831.604	169.3
831.782	161.11
831.959	255.31
832.136	255.31
832.313	195.92
832.49	267.6
832.667	204.11
832.844	124.24
833.021	181.59
833.198	187.73
833.374	157.01
833.551	183.63
833.728	179.54
833.905	255.31
834.082	165.2
834.259	238.93
834.436	304.46
834.612	148.82
834.789	218.45
834.966	91.48
835.143	218.45
835.319	212.31
835.496	234.83
835.673	189.78
835.85	193.87
836.026	214.35
836.203	218.45
836.38	189.78
836.556	228.69
836.733	54.61
836.909	193.87
837.086	107.86
837.262	101.72
837.439	148.82
837.616	116.05
837.792	185.68
837.968	218.45
838.145	140.63
838.321	128.34
838.498	187.73
838.674	185.68
838.851	150.87
839.027	111.96
839.203	177.49
839.38	204.11
839.556	140.63
839.732	152.92
839.909	169.3
840.085	107.86
840.261	165.2
840.437	200.02
840.614	181.59
840.79	118.1
840.966	77.14
841.142	193.87
841.318	165.2
841.494	220.5
841.671	189.78
841.847	173.39
842.023	169.3
842.199	103.76
842.375	197.97
842.551	109.91
842.727	122.2
842.903	179.54
843.079	54.61
843.255	165.2
843.431	161.11
843.607	71
843.783	85.33
843.959	165.2
844.134	64.85
844.31	181.59
844.486	85.33
844.662	89.43
844.838	140.63
845.013	99.67
845.189	148.82
845.365	97.62
845.541	152.92
845.716	179.54
845.892	81.24
846.068	148.82
846.244	99.67
846.419	99.67
846.595	-8.87
846.77	122.2
846.946	142.68
847.122	181.59
847.297	3.41
847.473	148.82
847.648	89.43
847.824	105.81
847.999	114
848.175	58.71
848.35	75.09
848.526	130.39
848.701	128.34
848.876	167.25
849.052	91.48
849.227	105.81
849.403	83.28
849.578	99.67
849.753	99.67
849.929	87.38
850.104	68.95
850.279	87.38
850.454	42.32
850.63	161.11
850.805	77.14
850.98	150.87
851.155	42.32
851.33	191.83
851.505	114
851.681	111.96
851.856	40.28
852.031	105.81
852.206	107.86
852.381	50.52
852.556	114
852.731	50.52
852.906	181.59
853.081	175.44
853.256	132.44
853.431	91.48
853.606	50.52
853.781	58.71
853.956	19.8
854.131	109.91
854.305	48.47
854.48	66.9
854.655	34.13
854.83	44.37
855.005	97.62
855.18	-49.83
855.354	64.85
855.529	62.8
855.704	66.9
855.879	87.38
856.053	-15.02
856.228	-2.73
856.403	105.81
856.577	91.48
856.752	-2.73
856.926	118.1
857.101	97.62
857.276	81.24
857.45	73.04
857.625	114
857.799	34.13
857.974	17.75
858.148	19.8
858.323	114
858.497	64.85
858.672	21.85
858.846	36.18
859.02	48.47
859.195	11.61
859.369	9.56
859.543	-15.02
859.718	77.14
859.892	75.09
860.066	136.53
860.241	38.23
860.415	38.23
860.589	66.9
860.763	56.66
860.938	46.42
861.112	89.43
861.286	-0.68
861.46	-31.4
861.634	46.42
861.808	128.34
861.982	17.75
862.157	-6.83
862.331	58.71
862.505	-25.26
862.679	48.47
862.853	23.89
863.027	66.9
863.201	87.38
863.375	36.18
863.549	42.32
863.722	19.8
863.896	48.47
864.07	75.09
864.244	50.52
864.418	34.13
864.592	-10.92
864.766	-4.78
864.939	54.61
865.113	1.37
865.287	77.14
865.461	-15.02
865.634	114
865.808	32.08
865.982	99.67
866.156	-15.02
866.329	30.04
866.503	21.85
866.676	124.24
866.85	99.67
867.024	111.96
867.197	54.61
867.371	58.71
867.544	-19.11
867.718	25.94
867.891	83.28
868.065	17.75
868.238	54.61
868.412	105.81
868.585	95.57
868.759	7.51
868.932	79.19
869.105	17.75
869.279	25.94
869.452	-2.73
869.625	34.13
869.799	-15.02
869.972	-39.59
870.145	40.28
870.319	83.28
870.492	52.56
870.665	-6.83
870.838	11.61
871.011	-27.31
871.185	-27.31
871.358	-0.68
871.531	79.19
871.704	-39.59
871.877	56.66
872.05	-0.68
872.223	-6.83
872.396	75.09
872.569	-39.59
872.742	-21.16
872.915	-15.02
873.088	-6.83
873.261	50.52
873.434	50.52
873.607	-6.83
873.78	34.13
873.953	-15.02
874.126	36.18
874.299	32.08
874.471	34.13
874.644	7.51
874.817	81.24
874.99	66.9
875.163	-21.16
875.335	54.61
875.508	27.99
875.681	118.1
875.853	-23.21
876.026	62.8
876.199	62.8
876.371	25.94
876.544	66.9
876.717	34.13
876.889	60.76
877.062	107.86
877.234	25.94
877.407	34.13
877.579	79.19
877.752	17.75
877.924	23.89
878.097	34.13
878.269	56.66
878.442	1.37
878.614	27.99
878.786	95.57
878.959	-8.87
879.131	34.13
879.303	46.42
879.476	-2.73
879.648	25.94
879.82	36.18
879.993	-8.87
880.165	11.61
880.337	-115.37
880.509	25.94
880.681	-23.21
880.854	-55.98
881.026	-2.73
881.198	66.9
881.37	42.32
881.542	-2.73
881.714	1.37
881.886	-72.36
882.058	38.23
882.23	50.52
882.402	32.08
882.574	-55.98
882.746	50.52
882.918	13.65
883.09	25.94
883.262	-72.36
883.434	3.41
883.606	52.56
883.778	42.32
883.95	116.05
884.122	17.75
884.293	36.18
884.465	30.04
884.637	58.71
884.809	17.75
884.98	38.23
885.152	42.32
885.324	9.56
885.496	7.51
885.667	-51.88
885.839	-25.26
886.011	46.42
886.182	32.08
886.354	89.43
886.525	-8.87
886.697	32.08
886.869	25.94
887.04	15.7
887.212	75.09
887.383	163.15
887.555	7.51
887.726	7.51
887.897	-35.5
888.069	-23.21
888.24	42.32
888.412	-15.02
888.583	-43.69
888.754	11.61
888.926	-23.21
889.097	42.32
889.268	-6.83
889.44	58.71
889.611	-72.36
889.782	-55.98
889.953	-39.59
890.125	38.23
890.296	5.46
890.467	52.56
890.638	-39.59
890.809	5.46
890.98	64.85
891.151	7.51
891.323	9.56
891.494	-10.92
891.665	75.09
891.836	27.99
892.007	21.85
892.178	30.04
892.349	-19.11
892.52	-64.17
892.691	-39.59
892.862	95.57
893.032	13.65
893.203	21.85
893.374	-15.02
893.545	9.56
893.716	15.7
893.887	-10.92
894.057	66.9
894.228	73.04
894.399	-68.27
894.57	50.52
894.74	-55.98
894.911	38.23
895.082	-0.68
895.253	9.56
895.423	9.56
895.594	25.94
895.764	21.85
895.935	9.56
896.106	-19.11
896.276	11.61
896.447	25.94
896.617	27.99
896.788	-96.94
896.958	-15.02
897.129	17.75
897.299	40.28
897.47	97.62
897.64	-27.31
897.81	34.13
897.981	-6.83
898.151	25.94
898.322	34.13
898.492	-53.93
898.662	15.7
898.832	-53.93
899.003	30.04
899.173	-6.83
899.343	-35.5
899.513	13.65
