Data from USB4F104151__46__11-30-29-712.txt Node

Date: Fri Mar 14 11:30:29 EDT 2025
User: louis
Spectrometer: USB4F10415
Trigger mode: 4
Integration Time (sec): 5.000000E-2
Scans to average: 1
Electric dark correction enabled: true
Nonlinearity correction enabled: false
Boxcar width: 0
XAxis mode: Wavelengths
Number of Pixels in Spectrum: 3648
>>>>>Begin Spectral Data<<<<<
178.204	-161.79
178.424	-161.79
178.644	-161.79
178.864	-155.65
179.084	-159.74
179.304	10.24
179.524	-18.43
179.744	-59.39
179.964	20.48
180.184	-20.48
180.404	-18.43
180.624	-4.1
180.844	-34.82
181.064	43.01
181.283	14.34
181.503	49.15
181.723	18.43
181.943	-98.3
182.163	34.82
182.383	4.1
182.602	34.82
182.822	100.35
183.042	-2.05
183.262	-28.67
183.482	6.14
183.701	71.68
183.921	63.49
184.141	-47.1
184.361	-16.38
184.58	2.05
184.8	116.73
185.02	-94.21
185.239	40.96
185.459	-10.24
185.679	36.86
185.898	-18.43
186.118	-6.14
186.338	-10.24
186.557	38.91
186.777	-14.34
186.997	-2.05
187.216	38.91
187.436	86.01
187.655	108.54
187.875	2.05
188.095	-12.29
188.314	2.05
188.534	14.34
188.753	4.1
188.973	77.82
189.192	63.49
189.412	61.44
189.631	4.1
189.851	-83.97
190.07	120.83
190.29	-8.19
190.509	24.58
190.729	-51.2
190.948	96.25
191.168	90.11
191.387	36.86
191.607	-116.73
191.826	22.53
192.045	55.3
192.265	47.1
192.484	8.19
192.704	28.67
192.923	16.38
193.142	126.97
193.362	45.06
193.581	38.91
193.8	47.1
194.02	20.48
194.239	-30.72
194.458	69.63
194.678	-22.53
194.897	2.05
195.116	20.48
195.335	47.1
195.555	77.82
195.774	4.1
195.993	55.3
196.212	-14.34
196.432	-12.29
196.651	28.67
196.87	18.43
197.089	120.83
197.308	6.14
197.528	34.82
197.747	-75.77
197.966	-45.06
198.185	71.68
198.404	-36.86
198.623	-63.49
198.842	96.25
199.062	43.01
199.281	63.49
199.5	79.87
199.719	18.43
199.938	24.58
200.157	71.68
200.376	6.14
200.595	4.1
200.814	-2.05
201.033	67.58
201.252	61.44
201.471	-4.1
201.69	24.58
201.909	30.72
202.128	-18.43
202.347	10.24
202.566	-10.24
202.785	12.29
203.004	34.82
203.223	10.24
203.442	20.48
203.661	-4.1
203.879	6.14
204.098	24.58
204.317	-43.01
204.536	20.48
204.755	71.68
204.974	-24.58
205.193	30.72
205.411	40.96
205.63	6.14
205.849	38.91
206.068	26.62
206.287	-30.72
206.505	-10.24
206.724	-4.1
206.943	69.63
207.162	14.34
207.381	59.39
207.599	16.38
207.818	61.44
208.037	22.53
208.255	38.91
208.474	-8.19
208.693	77.82
208.911	38.91
209.13	-2.05
209.349	30.72
209.567	-24.58
209.786	55.3
210.005	-4.1
210.223	51.2
210.442	-30.72
210.661	43.01
210.879	-2.05
211.098	-16.38
211.316	-8.19
211.535	-2.05
211.753	-55.3
211.972	26.62
212.191	6.14
212.409	-53.25
212.628	45.06
212.846	-30.72
213.065	47.1
213.283	-2.05
213.502	38.91
213.72	0
213.938	-4.1
214.157	79.87
214.375	118.78
214.594	28.67
214.812	55.3
215.031	-14.34
215.249	10.24
215.467	-73.73
215.686	61.44
215.904	36.86
216.122	-51.2
216.341	45.06
216.559	47.1
216.778	77.82
216.996	30.72
217.214	-4.1
217.432	-34.82
217.651	-71.68
217.869	-34.82
218.087	38.91
218.306	-55.3
218.524	22.53
218.742	40.96
218.96	133.12
219.179	-10.24
219.397	-14.34
219.615	133.12
219.833	26.62
220.051	-79.87
220.27	24.58
220.488	63.49
220.706	-6.14
220.924	36.86
221.142	-38.91
221.36	14.34
221.578	-45.06
221.796	16.38
222.015	69.63
222.233	-32.77
222.451	67.58
222.669	-22.53
222.887	38.91
223.105	-26.62
223.323	45.06
223.541	30.72
223.759	6.14
223.977	2.05
224.195	57.34
224.413	30.72
224.631	-28.67
224.849	63.49
225.067	71.68
225.285	22.53
225.503	61.44
225.721	-141.31
225.939	34.82
226.157	-12.29
226.375	116.73
226.592	69.63
226.81	16.38
227.028	77.82
227.246	32.77
227.464	-77.82
227.682	20.48
227.9	28.67
228.117	55.3
228.335	-28.67
228.553	10.24
228.771	10.24
228.989	30.72
229.206	26.62
229.424	10.24
229.642	-55.3
229.86	-45.06
230.077	112.64
230.295	28.67
230.513	77.82
230.731	104.45
230.948	-2.05
231.166	90.11
231.384	-26.62
231.601	-51.2
231.819	120.83
232.037	-73.73
232.254	-10.24
232.472	92.16
232.689	12.29
232.907	75.77
233.125	12.29
233.342	12.29
233.56	53.25
233.777	2.05
233.995	20.48
234.213	114.69
234.43	20.48
234.648	16.38
234.865	-32.77
235.083	2.05
235.3	-30.72
235.518	-30.72
235.735	88.06
235.953	38.91
236.17	-16.38
236.388	0
236.605	-20.48
236.822	81.92
237.04	53.25
237.257	2.05
237.475	-69.63
237.692	75.77
237.909	86.01
238.127	20.48
238.344	63.49
238.562	-65.53
238.779	-38.91
238.996	-10.24
239.214	61.44
239.431	8.19
239.648	-28.67
239.865	71.68
240.083	73.73
240.3	-63.49
240.517	-10.24
240.735	69.63
240.952	49.15
241.169	100.35
241.386	2.05
241.603	18.43
241.821	-22.53
242.038	22.53
242.255	45.06
242.472	63.49
242.689	32.77
242.907	79.87
243.124	-14.34
243.341	73.73
243.558	-61.44
243.775	-28.67
243.992	-51.2
244.209	34.82
244.426	20.48
244.643	81.92
244.86	-2.05
245.078	38.91
245.295	16.38
245.512	10.24
245.729	-10.24
245.946	45.06
246.163	4.1
246.38	45.06
246.597	26.62
246.814	-67.58
247.031	-2.05
247.248	32.77
247.464	69.63
247.681	10.24
247.898	24.58
248.115	24.58
248.332	-36.86
248.549	57.34
248.766	34.82
248.983	10.24
249.2	30.72
249.417	69.63
249.633	-12.29
249.85	-63.49
250.067	-16.38
250.284	71.68
250.501	-10.24
250.717	18.43
250.934	4.1
251.151	-4.1
251.368	-47.1
251.585	10.24
251.801	2.05
252.018	-26.62
252.235	20.48
252.451	-18.43
252.668	8.19
252.885	16.38
253.102	22.53
253.318	47.1
253.535	-4.1
253.752	6.14
253.968	2.05
254.185	-12.29
254.401	-30.72
254.618	30.72
254.835	2.05
255.051	38.91
255.268	61.44
255.484	38.91
255.701	47.1
255.917	55.3
256.134	30.72
256.351	22.53
256.567	14.34
256.784	65.54
257	-61.44
257.217	36.86
257.433	-73.73
257.65	-38.91
257.866	30.72
258.082	-20.48
258.299	-59.39
258.515	-2.05
258.732	6.14
258.948	12.29
259.165	-14.34
259.381	30.72
259.597	88.06
259.814	-12.29
260.03	-26.62
260.246	-6.14
260.463	63.49
260.679	28.67
260.895	94.21
261.112	-26.62
261.328	-12.29
261.544	0
261.761	153.6
261.977	65.54
262.193	-55.3
262.409	71.68
262.626	14.34
262.842	61.44
263.058	12.29
263.274	18.43
263.49	14.34
263.707	28.67
263.923	-45.06
264.139	-59.39
264.355	22.53
264.571	57.34
264.787	63.49
265.004	108.54
265.22	-18.43
265.436	28.67
265.652	-28.67
265.868	32.77
266.084	-51.2
266.3	83.97
266.516	-43.01
266.732	22.53
266.948	47.1
267.164	45.06
267.38	55.3
267.596	10.24
267.812	63.49
268.028	6.14
268.244	-49.15
268.46	26.62
268.676	4.1
268.892	-20.48
269.108	-59.39
269.324	-45.06
269.54	-14.34
269.756	96.25
269.972	-38.91
270.188	-51.2
270.403	53.25
270.619	12.29
270.835	47.1
271.051	-16.38
271.267	6.14
271.483	14.34
271.698	51.2
271.914	22.53
272.13	-49.15
272.346	-12.29
272.562	20.48
272.777	63.49
272.993	-18.43
273.209	36.86
273.425	28.67
273.64	-75.77
273.856	51.2
274.072	14.34
274.287	-79.87
274.503	36.86
274.719	-49.15
274.934	0
275.15	-102.4
275.366	28.67
275.581	2.05
275.797	-22.53
276.012	14.34
276.228	-47.1
276.444	24.58
276.659	65.54
276.875	-2.05
277.09	-24.58
277.306	-53.25
277.521	83.97
277.737	0
277.952	49.15
278.168	-53.25
278.383	-26.62
278.599	6.14
278.814	100.35
279.03	-67.58
279.245	129.02
279.461	45.06
279.676	6.14
279.892	-30.72
280.107	-38.91
280.322	-16.38
280.538	-22.53
280.753	-22.53
280.969	47.1
281.184	40.96
281.399	10.24
281.615	32.77
281.83	92.16
282.045	53.25
282.26	0
282.476	24.58
282.691	100.35
282.906	28.67
283.122	-24.58
283.337	38.91
283.552	61.44
283.767	-34.82
283.983	47.1
284.198	-30.72
284.413	47.1
284.628	-55.3
284.843	18.43
285.058	12.29
285.274	34.82
285.489	-86.01
285.704	73.73
285.919	-40.96
286.134	-10.24
286.349	10.24
286.564	-43.01
286.779	69.63
286.995	45.06
287.21	2.05
287.425	-20.48
287.64	-53.25
287.855	12.29
288.07	-34.82
288.285	0
288.5	61.44
288.715	16.38
288.93	-6.14
289.145	-6.14
289.36	22.53
289.575	45.06
289.79	40.96
290.004	59.39
290.219	67.58
290.434	14.34
290.649	-32.77
290.864	57.34
291.079	-4.1
291.294	-10.24
291.509	6.14
291.724	51.2
291.938	30.72
292.153	10.24
292.368	-24.58
292.583	-6.14
292.798	-28.67
293.012	-38.91
293.227	26.62
293.442	-49.15
293.657	30.72
293.871	104.45
294.086	10.24
294.301	108.54
294.516	36.86
294.73	75.77
294.945	-34.82
295.16	-6.14
295.374	104.45
295.589	79.87
295.804	32.77
296.018	79.87
296.233	32.77
296.447	-10.24
296.662	14.34
296.877	-6.14
297.091	-10.24
297.306	51.2
297.52	-2.05
297.735	-12.29
297.949	-28.67
298.164	71.68
298.378	8.19
298.593	-14.34
298.807	22.53
299.022	8.19
299.236	79.87
299.451	-4.1
299.665	10.24
299.88	-18.43
300.094	-28.67
300.309	43.01
300.523	2.05
300.737	-2.05
300.952	-18.43
301.166	34.82
301.381	-4.1
301.595	14.34
301.809	2.05
302.024	26.62
302.238	-86.01
302.452	38.91
302.667	47.1
302.881	65.54
303.095	104.45
303.309	-43.01
303.524	94.21
303.738	49.15
303.952	-2.05
304.166	-22.53
304.381	-83.97
304.595	57.34
304.809	12.29
305.023	51.2
305.237	49.15
305.452	-53.25
305.666	83.97
305.88	96.25
306.094	-2.05
306.308	-14.34
306.522	67.58
306.736	77.82
306.95	14.34
307.164	10.24
307.379	-10.24
307.593	53.25
307.807	83.97
308.021	38.91
308.235	38.91
308.449	-4.1
308.663	0
308.877	57.34
309.091	30.72
309.305	-28.67
309.519	-34.82
309.733	30.72
309.947	-8.19
310.161	38.91
310.374	61.44
310.588	69.63
310.802	4.1
311.016	-8.19
311.23	38.91
311.444	51.2
311.658	-22.53
311.872	38.91
312.085	-22.53
312.299	67.58
312.513	57.34
312.727	-6.14
312.941	-34.82
313.154	2.05
313.368	79.87
313.582	40.96
313.796	-6.14
314.009	10.24
314.223	77.82
314.437	-4.1
314.651	108.54
314.864	-45.06
315.078	2.05
315.292	10.24
315.505	86.01
315.719	-10.24
315.933	4.1
316.146	-16.38
316.36	20.48
316.573	6.14
316.787	-79.87
317.001	-2.05
317.214	-20.48
317.428	-10.24
317.641	47.1
317.855	-20.48
318.068	10.24
318.282	71.68
318.495	45.06
318.709	38.91
318.922	67.58
319.136	30.72
319.349	63.49
319.563	-16.38
319.776	-18.43
319.99	8.19
320.203	22.53
320.417	45.06
320.63	38.91
320.843	71.68
321.057	4.1
321.27	16.38
321.483	-10.24
321.697	47.1
321.91	79.87
322.124	79.87
322.337	69.63
322.55	61.44
322.763	26.62
322.977	69.63
323.19	-10.24
323.403	14.34
323.617	-14.34
323.83	6.14
324.043	14.34
324.256	65.54
324.469	36.86
324.683	120.83
324.896	45.06
325.109	-38.91
325.322	10.24
325.535	-51.2
325.748	69.63
325.962	-20.48
326.175	-14.34
326.388	20.48
326.601	51.2
326.814	53.25
327.027	20.48
327.24	167.93
327.453	-18.43
327.666	28.67
327.879	-26.62
328.092	102.4
328.305	22.53
328.518	30.72
328.731	-28.67
328.944	-12.29
329.157	-2.05
329.37	-2.05
329.583	18.43
329.796	55.3
330.009	34.82
330.222	45.06
330.435	88.06
330.648	40.96
330.861	53.25
331.073	-18.43
331.286	77.82
331.499	-6.14
331.712	-10.24
331.925	28.67
332.138	49.15
332.35	-8.19
332.563	8.19
332.776	12.29
332.989	22.53
333.202	65.54
333.414	-40.96
333.627	-6.14
333.84	10.24
334.053	53.25
334.265	-55.3
334.478	-20.48
334.691	71.68
334.903	28.67
335.116	14.34
335.329	61.44
335.541	86.01
335.754	59.39
335.966	-26.62
336.179	51.2
336.392	47.1
336.604	10.24
336.817	30.72
337.029	69.63
337.242	69.63
337.454	-26.62
337.667	18.43
337.88	18.43
338.092	-36.86
338.305	43.01
338.517	-28.67
338.729	28.67
338.942	53.25
339.154	-22.53
339.367	-24.58
339.579	-10.24
339.792	-22.53
340.004	71.68
340.217	14.34
340.429	49.15
340.641	-14.34
340.854	2.05
341.066	4.1
341.278	104.45
341.491	22.53
341.703	63.49
341.915	-10.24
342.128	26.62
342.34	36.86
342.552	6.14
342.764	-16.38
342.977	-12.29
343.189	24.58
343.401	-4.1
343.613	-16.38
343.826	-28.67
344.038	45.06
344.25	-18.43
344.462	24.58
344.674	0
344.886	4.1
345.099	55.3
345.311	8.19
345.523	26.62
345.735	-10.24
345.947	77.82
346.159	-12.29
346.371	10.24
346.583	-28.67
346.795	45.06
347.007	-6.14
347.219	55.3
347.431	67.58
347.643	12.29
347.855	10.24
348.067	120.83
348.279	34.82
348.491	47.1
348.703	22.53
348.915	-16.38
349.127	-108.54
349.339	-2.05
349.551	-26.62
349.763	59.39
349.975	-22.53
350.187	4.1
350.399	79.87
350.61	53.25
350.822	30.72
351.034	-6.14
351.246	86.01
351.458	4.1
351.669	-12.29
351.881	38.91
352.093	47.1
352.305	71.68
352.517	49.15
352.728	67.58
352.94	26.62
353.152	-26.62
353.363	-67.58
353.575	88.06
353.787	94.21
353.999	38.91
354.21	114.69
354.422	32.77
354.633	38.91
354.845	-45.06
355.057	30.72
355.268	0
355.48	45.06
355.692	-61.44
355.903	-43.01
356.115	-34.82
356.326	-34.82
356.538	67.58
356.749	-10.24
356.961	30.72
357.172	51.2
357.384	-49.15
357.595	98.3
357.807	26.62
358.018	-24.58
358.23	-18.43
358.441	59.39
358.653	51.2
358.864	30.72
359.075	26.62
359.287	26.62
359.498	65.54
359.709	49.15
359.921	-2.05
360.132	67.58
360.344	108.54
360.555	69.63
360.766	49.15
360.977	61.44
361.189	22.53
361.4	26.62
361.611	22.53
361.823	-43.01
362.034	-8.19
362.245	96.25
362.456	12.29
362.667	86.01
362.879	81.92
363.09	-22.53
363.301	55.3
363.512	-55.3
363.723	-34.82
363.935	10.24
364.146	34.82
364.357	51.2
364.568	-12.29
364.779	-53.25
364.99	75.77
365.201	38.91
365.412	118.78
365.623	12.29
365.834	38.91
366.045	38.91
366.256	20.48
366.467	-51.2
366.678	14.34
366.889	26.62
367.1	-55.3
367.311	49.15
367.522	83.97
367.733	69.63
367.944	61.44
368.155	45.06
368.366	-6.14
368.577	83.97
368.788	20.48
368.999	26.62
369.209	-45.06
369.42	124.93
369.631	53.25
369.842	-20.48
370.053	-12.29
370.264	131.07
370.474	20.48
370.685	55.3
370.896	75.77
371.107	112.64
371.317	53.25
371.528	-22.53
371.739	69.63
371.95	-12.29
372.16	38.91
372.371	2.05
372.582	6.14
372.792	30.72
373.003	12.29
373.214	4.1
373.424	112.64
373.635	-18.43
373.846	-30.72
374.056	-55.3
374.267	92.16
374.477	12.29
374.688	-20.48
374.898	67.58
375.109	34.82
375.319	104.45
375.53	77.82
375.74	6.14
375.951	20.48
376.161	96.25
376.372	53.25
376.582	-38.91
376.793	18.43
377.003	55.3
377.214	-30.72
377.424	63.49
377.635	6.14
377.845	77.82
378.055	120.83
378.266	-10.24
378.476	12.29
378.686	18.43
378.897	69.63
379.107	59.39
379.317	104.45
379.528	-18.43
379.738	63.49
379.948	71.68
380.158	34.82
380.369	-18.43
380.579	18.43
380.789	2.05
380.999	69.63
381.21	-36.86
381.42	63.49
381.63	36.86
381.84	36.86
382.05	79.87
382.261	88.06
382.471	61.44
382.681	-2.05
382.891	30.72
383.101	38.91
383.311	6.14
383.521	38.91
383.731	28.67
383.941	67.58
384.151	71.68
384.361	63.49
384.571	32.77
384.781	-16.38
384.991	102.4
385.201	81.92
385.411	40.96
385.621	28.67
385.831	30.72
386.041	22.53
386.251	102.4
386.461	88.06
386.671	59.39
386.881	-24.58
387.091	8.19
387.301	110.59
387.511	-2.05
387.72	-10.24
387.93	36.86
388.14	-6.14
388.35	55.3
388.56	83.97
388.769	83.97
388.979	-8.19
389.189	77.82
389.399	-10.24
389.609	49.15
389.818	47.1
390.028	94.21
390.238	96.25
390.447	6.14
390.657	79.87
390.867	10.24
391.076	12.29
391.286	73.73
391.496	-40.96
391.705	38.91
391.915	22.53
392.125	12.29
392.334	14.34
392.544	110.59
392.753	67.58
392.963	38.91
393.172	36.86
393.382	8.19
393.591	157.69
393.801	40.96
394.01	129.02
394.22	88.06
394.429	-10.24
394.639	79.87
394.848	10.24
395.058	94.21
395.267	81.92
395.477	110.59
395.686	92.16
395.895	137.21
396.105	208.89
396.314	-4.1
396.524	51.2
396.733	55.3
396.942	135.17
397.152	65.54
397.361	88.06
397.57	79.87
397.78	75.77
397.989	61.44
398.198	157.69
398.407	14.34
398.617	141.31
398.826	38.91
399.035	47.1
399.244	112.64
399.453	36.86
399.663	83.97
399.872	22.53
400.081	26.62
400.29	30.72
400.499	20.48
400.708	34.82
400.917	77.82
401.127	43.01
401.336	14.34
401.545	188.41
401.754	96.25
401.963	55.3
402.172	192.51
402.381	-12.29
402.59	14.34
402.799	100.35
403.008	110.59
403.217	104.45
403.426	47.1
403.635	51.2
403.844	71.68
404.053	79.87
404.262	135.17
404.471	151.55
404.68	145.41
404.888	153.6
405.097	133.12
405.306	104.45
405.515	67.58
405.724	112.64
405.933	63.49
406.142	133.12
406.35	143.36
406.559	110.59
406.768	120.83
406.977	180.22
407.185	122.88
407.394	178.17
407.603	157.69
407.812	196.61
408.02	161.79
408.229	182.27
408.438	194.56
408.646	194.56
408.855	217.08
409.064	200.7
409.272	178.17
409.481	256
409.69	219.13
409.898	188.41
410.107	258.04
410.315	270.33
410.524	227.32
410.733	251.9
410.941	243.71
411.15	296.96
411.358	358.39
411.567	331.77
411.775	323.58
411.984	243.71
412.192	317.44
412.401	325.63
412.609	391.16
412.818	460.79
413.026	372.73
413.234	350.2
413.443	395.26
413.651	401.4
413.86	456.7
414.068	612.34
414.276	530.42
414.485	493.56
414.693	577.53
414.901	684.02
415.11	622.58
415.318	616.44
415.526	526.33
415.734	643.06
415.943	602.1
416.151	645.11
416.359	579.58
416.567	667.64
416.776	821.24
416.984	817.14
417.192	845.81
417.4	847.86
417.608	798.71
417.817	825.33
418.025	835.57
418.233	1028.08
418.441	915.44
418.649	952.31
418.857	1007.6
419.065	1120.24
419.273	1021.94
419.481	1052.66
419.689	1232.88
419.897	1288.17
420.105	1216.49
420.313	1363.95
420.521	1439.72
420.729	1419.24
420.937	1335.28
421.145	1396.71
421.353	1697.77
421.561	1710.05
421.769	1658.85
421.977	1765.35
422.185	1730.53
422.393	1863.65
422.601	1904.61
422.809	1806.31
423.017	1906.66
423.224	2011.11
423.432	2076.64
423.64	1980.39
423.848	2295.77
424.056	2193.37
424.263	2355.16
424.471	2443.23
424.679	2553.82
424.887	2566.1
425.094	2545.63
425.302	2592.73
425.51	2723.8
425.718	2807.77
425.925	2895.83
426.133	2875.35
426.341	3219.41
426.548	3162.06
426.756	3280.85
426.964	3241.93
427.171	3387.34
427.379	3635.14
427.586	3651.53
427.794	3725.26
428.001	4005.83
428.209	4085.7
428.417	4040.64
428.624	4413.37
428.832	4249.54
429.039	4454.33
429.247	4245.44
429.454	4695.99
429.662	4984.76
429.869	4773.82
430.076	5187.5
430.284	5064.63
430.491	5103.54
430.699	5359.53
430.906	5390.25
431.114	5531.56
431.321	5719.98
431.528	5699.5
431.736	6211.49
431.943	6444.96
432.15	6277.02
432.358	6383.52
432.565	6672.28
432.772	6676.38
432.979	7143.31
433.187	7010.2
433.394	7139.22
433.601	7688.07
433.808	7751.56
434.016	7886.73
434.223	7980.93
434.43	8464.25
434.637	8247.17
434.844	8869.75
435.052	9064.31
435.259	9039.73
435.466	9021.3
435.673	8779.64
435.88	9504.62
436.087	9848.68
436.294	9785.19
436.501	9813.87
436.708	10037.09
436.915	10272.61
437.122	10704.73
437.329	10635.1
437.537	10843.99
437.743	11276.12
437.95	11235.16
438.157	11892.55
438.364	12154.69
438.571	12177.22
438.778	12195.65
438.985	13430.58
439.192	12771.13
439.399	13219.64
439.606	12834.62
439.813	13739.82
440.02	14481.19
440.227	14317.35
440.433	14110.5
440.64	14563.11
440.847	14681.89
441.054	14610.21
441.261	15572.75
441.467	15720.21
441.674	16058.12
441.881	16695.04
442.088	16510.72
442.294	16412.42
442.501	16836.35
442.708	17430.26
442.914	17594.1
443.121	18542.31
443.328	18042.6
443.534	19226.33
443.741	18958.05
443.948	18482.92
444.154	19996.37
444.361	19955.41
444.568	19875.54
444.774	19742.42
444.981	20231.88
445.187	20606.66
445.394	21898.93
445.6	21040.83
445.807	23191.2
446.013	22290.09
446.22	22757.03
446.426	23660.18
446.633	23940.75
446.839	24673.93
447.046	23748.25
447.252	25030.27
447.459	25126.53
447.665	25099.9
447.871	26031.73
448.078	27156.07
448.284	26007.16
448.491	26539.63
448.697	27553.37
448.903	28386.89
449.11	28192.34
449.316	27805.27
449.522	28106.32
449.728	28722.76
449.935	29009.48
450.141	29089.35
450.347	29799.99
450.553	28665.42
450.76	29066.82
450.966	30344.75
451.172	29748.79
451.378	30484.01
451.584	29849.14
451.791	30879.27
451.997	30299.7
452.203	30953
452.409	31008.29
452.615	30776.87
452.821	29310.53
453.027	29281.86
453.233	30957.1
453.44	29531.71
453.646	30004.79
453.852	30043.7
454.058	30633.52
454.264	29572.67
454.47	30004.79
454.676	29089.35
454.882	30459.44
455.088	27797.08
455.294	28472.91
455.5	28638.79
455.705	28905.03
455.911	27715.16
456.117	27160.16
456.323	26570.35
456.529	25216.64
456.735	26300.01
456.941	25716.34
457.147	25181.82
457.352	24532.62
457.558	24223.37
457.764	24217.23
457.97	23647.9
458.176	23248.54
458.381	23191.2
458.587	22292.14
458.793	21991.09
458.999	20950.72
459.204	22302.38
459.41	21511.86
459.616	20295.37
459.821	20551.37
460.027	20287.18
460.233	19877.58
460.438	18904.8
460.644	19156.7
460.85	18077.42
461.055	17913.58
461.261	17784.56
461.466	16514.82
461.672	15963.92
461.878	17280.76
462.083	16017.16
462.289	16008.97
462.494	15630.1
462.7	14894.88
462.905	14569.25
463.111	14978.84
463.316	14948.12
463.522	14808.86
463.727	14761.76
463.932	14546.72
464.138	14612.26
464.343	14473
464.549	14198.57
464.754	14677.79
464.959	14534.43
465.165	14364.45
465.37	13930.28
465.575	13406
465.781	13842.22
465.986	13981.48
466.191	13627.18
466.397	13193.01
466.602	12580.67
466.807	13248.31
467.012	13244.21
467.218	13170.49
467.423	12865.34
467.628	13141.82
467.833	13559.6
468.038	13059.9
468.244	12580.67
468.449	13211.45
468.654	12668.73
468.859	12703.55
469.064	12431.17
469.269	12105.54
469.474	12187.46
469.679	12498.75
469.885	12019.53
470.09	12144.45
470.295	11968.33
470.5	11687.76
470.705	11994.95
470.91	11736.91
471.115	11347.79
471.32	11790.16
471.525	11700.05
471.73	11337.55
471.935	11417.43
472.139	10803.04
472.344	11001.69
472.549	11073.37
472.754	10868.57
472.959	10534.75
473.164	10411.87
473.369	10307.43
473.574	10643.29
473.778	10579.81
473.983	10340.19
474.188	10315.62
474.393	9844.59
474.598	9764.71
474.802	9713.52
475.007	9676.65
475.212	9770.86
475.417	9398.13
475.621	9265.01
475.826	9351.03
476.031	9211.76
476.235	9117.56
476.44	9197.43
476.645	9041.78
476.849	9082.74
477.054	8951.67
477.259	8687.48
477.463	8912.76
477.668	8542.08
477.872	8828.79
478.077	8542.08
478.282	8228.74
478.486	8359.81
478.691	8230.79
478.895	8398.72
479.1	8179.59
479.304	8040.33
479.509	7874.44
479.713	8040.33
479.918	7735.18
480.122	7831.43
480.326	8056.71
480.531	7905.16
480.735	7700.36
480.94	7702.41
481.144	8091.52
481.348	7516.05
481.553	7823.24
481.757	7460.75
481.961	7788.43
482.166	7751.56
482.37	7722.89
482.574	7444.37
482.778	7587.72
482.983	7747.47
483.187	7655.31
483.391	7665.55
483.595	7548.81
483.8	7313.3
484.004	7432.08
484.208	7653.26
484.412	7610.25
484.616	7557
484.821	7620.49
485.025	7325.58
485.229	7616.4
485.433	7493.52
485.637	7690.12
485.841	7468.94
486.045	7591.82
486.249	7313.3
486.453	7618.44
486.657	7542.67
486.861	7573.39
487.065	7317.39
487.269	7638.92
487.473	7348.11
487.677	7581.58
487.881	7524.24
488.085	7378.83
488.289	7456.65
488.493	7495.57
488.697	7712.65
488.901	7747.47
489.105	7456.65
489.309	7567.24
489.512	7634.83
489.716	7794.57
489.92	7813
490.124	7683.98
490.328	7735.18
490.531	7761.8
490.735	7702.41
490.939	7661.45
491.143	7892.87
491.346	7817.1
491.55	7665.55
491.754	7843.72
491.958	7948.17
492.161	7753.61
492.365	8009.61
492.569	7976.84
492.772	8042.37
492.976	8140.68
493.18	8013.7
493.383	8243.07
493.587	8114.05
493.79	8253.31
493.994	8144.77
494.197	8218.5
494.401	8447.87
494.605	8234.88
494.808	8550.27
495.012	8484.73
495.215	8458.11
495.419	8630.14
495.622	8621.95
495.825	8615.8
496.029	8769.4
496.232	9023.35
496.436	8843.13
496.639	9095.03
496.843	9066.36
497.046	9086.84
497.249	9400.18
497.453	9318.26
497.656	9295.73
497.859	9555.82
498.063	9674.6
498.266	9783.15
498.469	9647.98
498.673	9869.16
498.876	9914.22
499.079	10061.67
499.282	10049.38
499.485	10364.77
499.689	10270.56
499.892	10645.34
500.095	10669.92
500.298	10819.42
500.501	10639.2
500.705	11083.61
500.908	11286.36
501.111	11210.58
501.314	11347.79
501.517	11544.4
501.72	11679.57
501.923	11482.96
502.126	11947.85
502.329	11997
502.532	12232.52
502.735	12119.88
502.938	12414.79
503.141	12343.11
503.344	12496.71
503.547	12646.21
503.75	12844.86
503.953	13061.94
504.156	13260.6
504.359	13457.2
504.562	13295.41
504.765	13485.87
504.968	13741.87
505.17	13915.95
505.373	13690.67
505.576	14182.18
505.779	14452.52
505.982	14407.46
506.185	14669.6
506.387	14450.47
506.59	14772
506.793	15089.43
506.996	15228.7
507.198	15732.5
507.401	15093.53
507.604	15380.25
507.807	15808.27
508.009	15914.77
508.212	16064.27
508.415	16162.57
508.617	16318.22
508.82	16758.53
509.022	16404.23
509.225	17059.58
509.428	16930.56
509.63	17270.52
509.833	17301.24
510.035	17608.44
510.238	17555.19
510.44	17921.77
510.643	17985.26
510.845	18089.71
511.048	18306.79
511.25	18566.88
511.453	18382.57
511.655	19173.08
511.858	19123.93
512.06	19330.78
512.262	19138.27
512.465	19379.93
512.667	19562.2
512.87	19816.15
513.072	19959.5
513.274	20418.25
513.477	20666.05
513.679	20698.82
513.881	20825.79
514.084	21388.99
514.286	21221.05
514.488	21147.33
514.69	21890.74
514.893	21948.08
515.095	22001.33
515.297	22486.7
515.499	22218.41
515.701	22408.87
515.904	22797.99
516.106	22929.06
516.308	23385.76
516.51	23363.23
516.712	23551.64
516.914	23858.84
517.116	24118.93
517.318	24493.71
517.52	24211.09
517.722	24127.12
517.925	24854.15
518.127	25126.53
518.329	25147.01
518.531	25325.18
518.733	25785.97
518.935	26103.41
519.136	26058.35
519.338	26625.64
519.54	26705.51
519.742	26756.71
519.944	26777.19
520.146	27201.12
520.348	27168.35
520.55	27711.07
520.752	27782.74
520.954	28294.74
521.155	28005.97
521.357	28702.28
521.559	28530.25
521.761	28911.17
521.963	29154.88
522.164	29306.43
522.366	29720.12
522.568	29679.16
522.77	29951.54
522.971	30625.32
523.173	30432.82
523.375	30619.18
523.576	30975.53
523.778	30723.63
523.98	31536.67
524.181	31452.7
524.383	31450.66
524.584	32013.85
524.786	32042.52
524.988	32042.52
525.189	32468.5
525.391	32691.73
525.592	32929.29
525.794	33115.65
525.995	33005.06
526.197	33351.17
526.398	33275.4
526.6	33191.43
526.801	33621.5
527.003	33922.55
527.204	33951.23
527.406	34512.37
527.607	34299.38
527.808	34840.04
528.01	34151.93
528.211	34729.45
528.412	35497.44
528.614	35294.69
528.815	35102.18
529.016	35825.12
529.218	35220.97
529.419	35735.01
529.62	35610.08
529.822	35829.21
530.023	35692
530.224	36179.42
530.425	36136.41
530.626	35886.56
530.828	36046.3
531.029	36953.55
531.23	36251.09
531.431	36699.6
531.632	36546
531.833	36969.93
532.035	36967.88
532.236	37035.47
532.437	37291.46
532.638	37250.5
532.839	37041.61
533.04	37273.03
533.241	37012.94
533.442	37285.32
533.643	37367.24
533.844	37572.03
534.045	37518.79
534.246	37268.94
534.447	37725.63
534.648	37574.08
534.849	37647.81
535.05	37629.38
535.251	37404.1
535.451	37561.79
535.652	37778.88
535.853	37801.41
536.054	37537.22
536.255	37944.76
536.456	37273.03
536.657	38454.71
536.857	37950.91
537.058	37471.68
537.259	38008.25
537.46	37952.96
537.66	37993.92
537.861	38176.19
538.062	37907.9
538.263	38323.64
538.463	37797.31
538.664	37987.77
538.865	38184.38
539.065	38084.03
539.266	37582.27
539.466	38176.19
539.667	37752.26
539.868	38032.83
540.068	38307.26
540.269	37733.82
540.469	38233.53
540.67	37864.89
540.87	38034.88
541.071	37596.61
541.271	38157.75
541.472	37977.53
541.672	37971.39
541.873	37850.56
542.073	37643.71
542.274	38196.67
542.474	37959.1
542.675	37881.28
542.875	38038.97
543.075	37623.23
543.276	37660.1
543.476	38161.85
543.676	37983.68
543.877	38182.33
544.077	37903.81
544.277	37932.48
544.478	37795.26
544.678	37973.44
544.878	37633.47
545.078	38196.67
545.279	37719.49
545.479	37944.76
545.679	37963.2
545.879	37854.65
546.079	38233.53
546.28	37936.57
546.48	37408.2
546.68	38157.75
546.88	37950.91
547.08	37899.71
547.28	37670.34
547.48	37567.94
547.68	37875.13
547.88	37692.86
548.081	38073.79
548.281	37592.51
548.481	37916.09
548.681	38254.01
548.881	38104.51
549.081	37600.71
549.28	37428.68
549.48	37801.41
549.68	37463.49
549.88	38176.19
550.08	37510.6
550.28	37559.75
550.48	37393.86
550.68	37944.76
550.88	37438.92
551.08	37856.7
551.279	37750.21
551.479	37531.08
551.679	37807.55
551.879	37322.18
552.079	38016.44
552.278	37559.75
552.478	37746.11
552.678	37709.25
552.878	37684.67
553.077	37756.35
553.277	37313.99
553.477	37676.48
553.676	37326.28
553.876	37502.4
554.076	37291.46
554.275	36847.05
554.475	36924.88
554.674	37334.47
554.874	37191.11
555.074	37318.09
555.273	37219.78
555.473	37334.47
555.672	36951.5
555.872	36779.47
556.071	37248.46
556.271	37080.52
556.47	36928.97
556.67	36857.29
556.869	36619.73
557.068	37000.65
557.268	36482.52
557.467	36961.74
557.667	36238.81
557.866	36472.28
558.065	36312.53
558.265	36247
558.464	36527.57
558.663	36406.74
558.863	35661.28
559.062	36468.18
559.261	35790.3
559.461	36308.44
559.66	35757.53
559.859	36130.26
560.058	35747.29
560.258	35997.15
560.457	35427.81
560.656	35864.03
560.855	35198.44
561.054	35771.87
561.253	35227.11
561.453	35016.17
561.652	35773.92
561.851	35374.56
562.05	35010.03
562.249	34792.94
562.448	34964.97
562.647	34870.76
562.846	34889.2
563.045	35149.29
563.244	34424.31
563.443	34608.62
563.642	34100.73
563.841	34299.38
564.04	33994.23
564.239	34635.25
564.438	33842.68
564.637	33926.65
564.836	34115.06
565.035	33742.33
565.234	33758.72
565.432	33494.53
565.631	33127.94
565.83	33752.57
566.029	33084.94
566.228	32992.78
566.427	32960.01
566.625	33050.12
566.824	32316.95
567.023	32968.2
567.222	32165.4
567.42	32650.77
567.619	32282.13
567.818	32224.79
568.016	32126.49
568.215	32562.7
568.414	31991.32
568.612	32101.91
568.811	31614.49
569.01	32079.38
569.208	31766.04
569.407	31872.54
569.605	31116.84
569.804	31630.88
570.002	30610.99
570.201	31266.34
570.4	30629.42
570.598	30778.92
570.797	30903.85
570.995	30703.15
571.193	30393.9
571.392	30387.76
571.59	30346.8
571.789	30281.27
571.987	30049.85
572.186	30086.71
572.384	29808.19
572.582	29926.97
572.781	30152.24
572.979	29605.44
573.177	29859.38
573.376	29603.39
573.574	29404.74
573.772	29490.75
573.971	28999.24
574.169	29216.32
574.367	28653.13
574.565	29146.69
574.763	28677.71
574.962	28669.51
575.16	28804.68
575.358	28577.36
575.556	28122.71
575.754	28481.1
575.952	28026.45
576.151	28374.61
576.349	27784.79
576.547	27938.39
576.745	27592.28
576.943	28114.51
577.141	27721.3
577.339	27860.57
577.537	27455.07
577.735	27160.16
577.933	27381.34
578.131	27375.2
578.329	27301.47
578.527	27235.94
578.725	27391.58
578.923	27088.48
579.121	26609.26
579.319	26848.87
579.516	26932.84
579.714	26680.94
579.912	26529.39
580.11	26488.43
580.308	26418.8
580.506	26404.46
580.704	26242.67
580.901	26130.03
581.099	26265.2
581.297	26113.65
581.495	25921.14
581.692	26072.69
581.89	25579.13
582.088	25933.43
582.285	25540.22
582.483	25626.23
582.681	25362.04
582.878	25415.29
583.076	25083.52
583.274	25538.17
583.471	25196.16
583.669	25011.84
583.866	24884.87
584.064	25255.55
584.262	24788.61
584.459	25175.68
584.657	24585.86
584.854	24716.93
585.052	24417.93
585.249	24592.01
585.447	24739.46
585.644	24012.43
585.841	24540.81
586.039	24651.4
586.236	24194.7
586.434	23920.27
586.631	24045.2
586.828	23744.15
587.026	24020.63
587.223	23907.99
587.42	23817.88
587.618	23830.16
587.815	23789.2
588.012	23309.98
588.21	23594.65
588.407	23674.52
588.604	23213.73
588.801	23129.76
588.999	23156.38
589.196	23137.95
589.393	23287.45
589.59	22859.43
589.787	22902.43
589.984	22711.97
590.182	22791.84
590.379	22773.41
590.576	22318.76
590.773	22396.59
590.97	22453.93
591.167	22582.95
591.364	22392.49
591.561	22455.98
591.758	22001.33
591.955	22202.03
592.152	22331.05
592.349	21993.14
592.546	22173.36
592.743	21917.36
592.94	21544.63
593.137	21825.2
593.334	21872.31
593.531	21657.27
593.727	21841.59
593.924	21857.97
594.121	21241.53
594.318	21741.24
594.515	21087.93
594.712	21653.17
594.908	21280.44
595.105	21409.47
595.302	20897.47
595.499	21180.09
595.696	20719.3
595.892	20881.09
596.089	21059.26
596.286	20606.66
596.482	20612.81
596.679	20678.34
596.876	20428.49
597.072	20354.76
597.269	20563.65
597.466	20350.67
597.662	20172.49
597.859	20436.68
598.055	20551.37
598.252	20287.18
598.448	20008.65
598.645	19687.12
598.841	19967.7
599.038	20039.37
599.234	20008.65
599.431	19539.67
599.627	19584.73
599.824	19977.94
600.02	19304.15
600.217	19490.52
600.413	19529.43
600.609	19351.26
600.806	19201.75
601.002	19101.4
601.198	19255
601.395	19015.39
601.591	18994.91
601.787	18865.89
601.984	19046.11
602.18	19234.52
602.376	18820.83
602.572	18935.52
602.769	18956
602.965	18667.24
603.161	18730.72
603.357	18296.55
603.553	18618.08
603.75	18691.81
603.946	18401
604.142	18480.87
604.338	18360.04
604.534	18269.93
604.73	18091.76
604.926	17835.76
605.122	17997.55
605.318	17862.38
605.514	17645.3
605.71	17645.3
605.906	17991.41
606.102	17665.78
606.298	17657.59
606.494	17618.68
606.69	17667.83
606.886	17610.48
607.082	17336.06
607.278	17549.04
607.474	17151.74
607.67	17700.59
607.866	17178.36
608.062	17258.23
608.257	17180.41
608.453	17364.73
608.649	17282.81
608.845	16977.66
609.041	17092.35
609.236	17084.16
609.432	17051.39
609.628	16879.36
609.824	16860.93
610.019	16785.15
610.215	16914.17
610.411	16852.73
610.606	16627.46
610.802	16709.38
610.998	16537.35
611.193	16791.3
611.389	16346.89
611.584	16518.92
611.78	16471.81
611.976	16285.45
612.171	16516.87
612.367	16590.59
612.562	16408.33
612.758	15970.06
612.953	15937.29
613.149	16359.17
613.344	16115.47
613.539	16205.58
613.735	16150.28
613.93	16226.06
614.126	15879.95
614.321	16094.99
614.517	16047.88
614.712	15849.23
614.907	15918.86
615.103	15785.74
615.298	15673.1
615.493	16029.45
615.688	15509.27
615.884	15869.71
616.079	15560.47
616.274	15521.56
616.47	15599.38
616.665	15507.22
616.86	15314.71
617.055	15486.74
617.25	15605.52
617.445	15628.05
617.641	15306.52
617.836	15609.62
618.031	15255.32
618.226	15333.14
618.421	15134.49
618.616	15279.89
618.811	15019.8
619.006	15333.14
619.201	14817.05
619.396	14919.45
619.591	14694.18
619.786	15085.34
619.981	14651.17
620.176	14845.73
620.371	14489.38
620.566	14585.63
620.761	14556.96
620.956	14489.38
621.151	14112.55
621.346	14507.81
621.541	14067.5
621.735	14313.25
621.93	14020.39
622.125	14055.21
622.32	14112.55
622.515	14227.24
622.709	14104.36
622.904	13668.14
623.099	13678.38
623.294	13907.76
623.488	13612.85
623.683	13449.01
623.878	13383.48
624.072	13395.76
624.267	13379.38
624.462	13188.92
624.656	12896.06
624.851	13076.28
625.046	12900.16
625.24	12969.79
625.435	12654.4
625.629	12595.01
625.824	12857.15
626.018	12832.57
626.213	12488.51
626.407	12519.23
626.602	12255.04
626.796	12398.4
626.991	12535.62
627.185	12478.27
627.38	12091.21
627.574	12042.06
627.768	12017.48
627.963	12281.67
628.157	12013.38
628.352	11929.42
628.546	11784.01
628.74	11614.03
628.935	11691.85
629.129	11601.74
629.323	11470.67
629.517	11417.43
629.712	11437.91
629.906	11509.58
630.1	11304.79
630.294	11364.18
630.489	11265.88
630.683	11407.19
630.877	11153.24
631.071	10997.59
631.265	10921.82
631.459	10831.71
631.653	10692.44
631.848	10923.87
632.042	10563.42
632.236	10770.27
632.43	10667.87
632.624	10749.79
632.818	10483.55
633.012	10426.21
633.206	10399.59
633.4	10520.42
633.594	10370.91
633.788	10153.83
633.982	10450.78
634.176	10282.85
634.369	10135.4
634.563	10073.96
634.757	9975.66
634.951	10033
635.145	10061.67
635.339	9961.32
635.533	9734
635.726	9766.76
635.92	9789.29
636.114	9693.04
636.308	9668.46
636.501	9590.64
636.695	9539.44
636.889	9365.36
637.083	9480.05
637.276	9379.7
637.47	9236.34
637.664	9334.64
637.857	9301.87
638.051	9238.39
638.244	8990.58
638.438	9187.19
638.632	8910.71
638.825	8789.88
639.019	9006.97
639.212	9009.01
639.406	9006.97
639.599	8808.31
639.793	8804.22
639.986	8783.74
640.18	8648.57
640.373	8685.44
640.567	8593.28
640.76	8570.75
640.954	8365.95
641.147	8275.84
641.34	8394.62
641.534	8200.07
641.727	8480.64
641.92	8394.62
642.114	8079.24
642.307	8017.8
642.5	8212.35
642.694	8034.18
642.887	7888.78
643.08	8232.83
643.273	7806.86
643.467	7913.35
643.66	7751.56
643.853	7638.92
644.046	7761.8
644.239	7800.71
644.432	7649.16
644.626	7563.15
644.819	7581.58
645.012	7614.35
645.205	7438.22
645.398	7567.24
645.591	7538.57
645.784	7243.67
645.977	7239.57
646.17	7591.82
646.363	7069.59
646.556	7284.62
646.749	7186.32
646.942	7475.09
647.135	7255.95
647.328	7075.73
647.521	7034.77
647.714	7055.25
647.907	7071.64
648.099	7079.83
648.292	6983.57
648.485	6959
648.678	6696.86
648.871	6801.3
649.064	6784.92
649.256	6952.85
649.449	6713.24
649.642	6584.22
649.835	6606.75
650.027	6557.6
650.22	6551.45
650.413	6590.36
650.605	6490.01
650.798	6457.25
650.991	6451.1
651.183	6463.39
651.376	6530.97
651.568	6399.9
651.761	6346.66
651.954	6371.23
652.146	6451.1
652.339	6344.61
652.531	6297.5
652.724	6174.63
652.916	5994.4
653.109	6135.71
653.301	6035.36
653.494	5947.3
653.686	6096.8
653.879	6303.65
654.071	6098.85
654.263	5879.72
654.456	6045.6
654.648	5945.25
654.84	5803.94
655.033	6010.79
655.225	5910.44
655.417	5744.55
655.61	5975.97
655.802	5619.63
655.994	5736.36
656.186	5658.54
656.379	5685.16
656.571	5584.81
656.763	5670.83
656.955	5572.52
657.148	5543.85
657.34	5461.93
657.532	5664.68
657.724	5509.04
657.916	5408.69
658.108	5369.77
658.3	5537.71
658.492	5240.75
658.684	5242.8
658.876	5267.38
659.068	5236.66
659.26	5175.22
659.452	5351.34
659.644	5394.35
659.836	5113.78
660.028	5210.03
660.22	5207.98
660.412	5173.17
660.604	5152.69
660.796	5121.97
660.988	5121.97
661.18	5017.52
661.372	4929.46
661.563	5052.34
661.755	4913.08
661.947	5066.67
662.139	4921.27
662.331	5126.07
662.522	4822.97
662.714	4829.11
662.906	5023.67
663.097	4925.36
663.289	4698.04
663.481	4880.31
663.673	4765.62
663.864	4704.18
664.056	4710.33
664.247	4749.24
664.439	4814.77
664.631	4706.23
664.822	4714.42
665.014	4769.72
665.205	4706.23
665.397	4683.7
665.588	4665.27
665.78	4599.74
665.971	4519.87
666.163	4657.08
666.354	4509.63
666.546	4515.77
666.737	4421.56
666.929	4710.33
667.12	4499.39
667.311	4429.76
667.503	4581.31
667.694	4523.96
667.885	4505.53
668.077	4468.67
668.268	4333.5
668.459	4569.02
668.651	4433.85
668.842	4437.95
669.033	4429.76
669.224	4364.22
669.416	4364.22
669.607	4437.95
669.798	4368.32
669.989	4372.41
670.18	4356.03
670.371	4454.33
670.563	4294.59
670.754	4243.39
670.945	4409.28
671.136	4390.85
671.327	4411.32
671.518	4298.69
671.709	4351.93
671.9	4450.24
672.091	4450.24
672.282	4440
672.473	4308.93
672.664	4458.43
672.855	4259.78
673.046	4450.24
673.237	4505.53
673.428	4384.7
673.619	4450.24
673.809	4392.89
674	4491.2
674.191	4261.82
674.382	4247.49
674.573	4429.76
674.764	4349.89
674.954	4403.13
675.145	4259.78
675.336	4380.61
675.527	4329.41
675.717	4487.1
675.908	4333.5
676.099	4403.13
676.289	4458.43
676.48	4458.43
676.671	4372.41
676.861	4491.2
677.052	4339.65
677.243	4417.47
677.433	4456.38
677.624	4548.54
677.814	4427.71
678.005	4569.02
678.195	4536.25
678.386	4442.04
678.576	4356.03
678.767	4724.66
678.957	4511.68
679.148	4560.83
679.338	4622.27
679.529	4589.5
679.719	4587.45
679.909	4659.13
680.1	4720.57
680.29	4818.87
680.481	4601.79
680.671	4691.9
680.861	4716.47
681.052	4579.26
681.242	4691.9
681.432	4777.91
681.622	4642.75
681.813	4638.65
682.003	4614.07
682.193	4632.51
682.383	4898.74
682.573	4839.35
682.764	4763.58
682.954	4753.34
683.144	4806.58
683.334	4700.09
683.524	4626.36
683.714	4712.38
683.904	4939.7
684.094	4853.69
684.284	4798.39
684.474	4894.65
684.664	4685.75
684.854	4966.32
685.044	4796.34
685.234	4720.57
685.424	4763.58
685.614	4732.86
685.804	4777.91
685.994	4712.38
686.184	4763.58
686.374	4722.62
686.564	4695.99
686.753	4695.99
686.943	4544.44
687.133	4808.63
687.323	4650.94
687.513	4749.24
687.702	4636.6
687.892	4544.44
688.082	4595.64
688.272	4657.08
688.461	4509.63
688.651	4544.44
688.841	4474.81
689.03	4450.24
689.22	4380.61
689.41	4401.08
689.599	4515.77
689.789	4509.63
689.979	4456.38
690.168	4331.45
690.358	4265.92
690.547	4216.77
690.737	4323.26
690.926	4177.86
691.116	4042.69
691.305	4315.07
691.495	4026.31
691.684	4089.79
691.874	4014.02
692.063	4028.35
692.252	3987.4
692.442	4007.87
692.631	3921.86
692.82	3870.66
693.01	3917.76
693.199	3846.09
693.388	3897.28
693.578	3878.85
693.767	3737.54
693.956	3885
694.146	3819.46
694.335	3776.45
694.524	3768.26
694.713	3717.06
694.902	3700.68
695.092	3592.14
695.281	3608.52
695.47	3571.66
695.659	3542.99
695.848	3588.04
696.037	3694.54
696.226	3686.34
696.415	3510.22
696.604	3504.07
696.793	3579.85
696.982	3514.31
697.171	3592.14
697.36	3542.99
697.549	3567.56
697.738	3397.58
697.927	3522.51
698.116	3383.24
698.305	3452.88
698.494	3487.69
698.683	3385.29
698.872	3547.08
699.061	3483.59
699.25	3432.4
699.438	3405.77
699.627	3393.48
699.816	3436.49
700.005	3487.69
700.193	3420.11
700.382	3454.92
700.571	3405.77
700.76	3452.88
700.948	3346.38
701.137	3233.74
701.326	3540.94
701.514	3340.24
701.703	3487.69
701.892	3360.72
702.08	3397.58
702.269	3473.36
702.457	3395.53
702.646	3405.77
702.834	3364.81
703.023	3354.57
703.212	3321.81
703.4	3545.03
703.589	3297.23
703.777	3461.07
703.965	3241.93
704.154	3340.24
704.342	3450.83
704.531	3420.11
704.719	3364.81
704.907	3485.64
705.096	3420.11
705.284	3405.77
705.472	3438.54
705.661	3377.1
705.849	3444.68
706.037	3469.26
706.226	3477.45
706.414	3540.94
706.602	3590.09
706.79	3659.72
706.979	3567.56
707.167	3547.08
707.355	3536.84
707.543	3475.4
707.731	3592.14
707.919	3479.5
708.107	3510.22
708.296	3672.01
708.484	3624.9
708.672	3631.05
708.86	3622.86
709.048	3717.06
709.236	3639.24
709.424	3649.48
709.612	3708.87
709.8	3561.42
709.988	3579.85
710.176	3846.09
710.364	3692.49
710.551	3667.91
710.739	3665.86
710.927	3825.61
711.115	3766.21
711.303	3706.82
711.491	3725.26
711.679	3815.37
711.866	3854.28
712.054	3911.62
712.242	3856.33
712.43	3946.44
712.617	3829.7
712.805	3882.95
712.993	3991.49
713.181	3977.16
713.368	3930.05
713.556	3848.13
713.744	3762.12
713.931	4175.81
714.119	3925.96
714.306	4014.02
714.494	4159.42
714.682	3985.35
714.869	3985.35
715.057	3952.58
715.244	4038.59
715.432	4026.31
715.619	4313.02
715.807	4227.01
715.994	4208.58
716.182	4294.59
716.369	4140.99
716.556	4296.64
716.744	4413.37
716.931	4241.34
717.119	4272.06
717.306	4466.62
717.493	4308.93
717.681	4351.93
717.868	4227.01
718.055	4530.11
718.242	4437.95
718.43	4263.87
718.617	4442.04
718.804	4321.21
718.991	4450.24
719.179	4560.83
719.366	4499.39
719.553	4423.61
719.74	4448.19
719.927	4564.92
720.114	4560.83
720.301	4583.35
720.488	4505.53
720.676	4538.3
720.863	4650.94
721.05	4745.14
721.237	4659.13
721.424	4659.13
721.611	4718.52
721.798	4693.94
721.985	4767.67
722.172	4671.42
722.358	4757.43
722.545	4816.82
722.732	4626.36
722.919	4716.47
723.106	4818.87
723.293	4839.35
723.48	4925.36
723.667	4847.54
723.853	4886.45
724.04	4896.69
724.227	4902.84
724.414	4970.42
724.6	4970.42
724.787	4892.6
724.974	5048.24
725.161	4937.65
725.347	4954.04
725.534	4968.37
725.72	4990.9
725.907	5056.43
726.094	5207.98
726.28	4933.56
726.467	5072.82
726.653	5042.1
726.84	5240.75
727.027	5136.31
727.213	4908.98
727.4	5191.6
727.586	5191.6
727.773	5107.63
727.959	5269.42
728.145	5351.34
728.332	4995
728.518	5199.79
728.705	5220.27
728.891	5371.82
729.077	5164.98
729.264	5277.62
729.45	5132.21
729.636	5394.35
729.823	5375.92
730.009	5287.86
730.195	5371.82
730.382	5396.4
730.568	5373.87
730.754	5377.97
730.94	5212.08
731.126	5289.9
731.313	5388.21
731.499	5429.17
731.685	5466.03
731.871	5492.65
732.057	5439.41
732.243	5404.59
732.429	5470.12
732.615	5601.19
732.801	5482.41
732.987	5351.34
733.173	5386.16
733.359	5625.77
733.545	5519.28
733.731	5562.28
733.917	5566.38
734.103	5599.15
734.289	5457.84
734.475	5523.37
734.661	5535.66
734.847	5574.57
735.033	5445.55
735.219	5498.8
735.404	5423.02
735.59	5654.44
735.776	5484.46
735.962	5656.49
736.148	5660.59
736.333	5584.81
736.519	5517.23
736.705	5478.32
736.89	5623.72
737.076	5595.05
737.262	5595.05
737.447	5590.95
737.633	5584.81
737.819	5466.03
738.004	5515.18
738.19	5396.4
738.375	5416.88
738.561	5674.92
738.747	5541.8
738.932	5369.77
739.118	5562.28
739.303	5406.64
739.489	5451.69
739.674	5603.24
739.859	5429.17
740.045	5509.04
740.23	5547.95
740.416	5232.56
740.601	5527.47
740.786	5447.6
740.972	5420.97
741.157	5558.19
741.342	5248.94
741.528	5373.87
741.713	5371.82
741.898	5134.26
742.084	5265.33
742.269	5363.63
742.454	5326.77
742.639	5240.75
742.824	5365.68
743.01	5320.62
743.195	5400.49
743.38	5339.05
743.565	5302.19
743.75	5173.17
743.935	5189.55
744.12	5269.42
744.305	5031.86
744.49	5115.83
744.675	5146.55
744.86	5167.03
745.045	5189.55
745.23	4954.04
745.415	4937.65
745.6	5056.43
745.785	5107.63
745.97	4978.61
746.155	5007.28
746.34	5083.06
746.525	4779.96
746.71	4913.08
746.895	4865.97
747.079	4741.05
747.264	4833.21
747.449	4749.24
747.634	4698.04
747.819	4880.31
748.003	4700.09
748.188	4716.47
748.373	4638.65
748.557	4644.79
748.742	4380.61
748.927	4712.38
749.111	4341.69
749.296	4528.06
749.481	4491.2
749.665	4476.86
749.85	4384.7
750.034	4503.48
750.219	4485.05
750.404	4343.74
750.588	4300.73
750.773	4206.53
750.957	4255.68
751.141	4274.11
751.326	4151.23
751.51	4222.91
751.695	4063.17
751.879	4071.36
752.064	4179.9
752.248	3938.24
752.432	4116.42
752.617	3962.82
752.801	3934.15
752.985	3905.48
753.17	3950.53
753.354	3885
753.538	3848.13
753.722	3835.85
753.907	3788.74
754.091	3827.65
754.275	3747.78
754.459	3753.93
754.643	3643.34
754.828	3780.55
755.012	3573.71
755.196	3626.95
755.38	3522.51
755.564	3497.93
755.748	3352.52
755.932	3684.3
756.116	3483.59
756.3	3561.42
756.484	3416.01
756.668	3393.48
756.852	3252.17
757.036	3325.9
757.22	3266.51
757.404	3248.08
757.588	3411.92
757.772	3336.14
757.956	3145.68
758.14	3311.57
758.323	3084.24
758.507	3252.17
758.691	3110.86
758.875	3241.93
759.059	3094.48
759.242	3149.78
759.426	2971.6
759.61	3004.37
759.794	2990.03
759.977	2961.36
760.161	3063.76
760.345	3049.43
760.528	2959.31
760.712	2848.72
760.895	2842.58
761.079	2824.15
761.263	2760.66
761.446	2869.2
761.63	2775
761.813	2830.29
761.997	2766.81
762.18	2803.67
762.364	2783.19
762.547	2738.13
762.731	2682.84
762.914	2738.13
763.098	2617.3
763.281	2578.39
763.464	2615.26
763.648	2686.94
763.831	2578.39
764.015	2578.39
764.198	2576.34
764.381	2633.69
764.564	2531.29
764.748	2471.9
764.931	2531.29
765.114	2500.57
765.297	2494.43
765.481	2404.32
765.664	2514.91
765.847	2527.19
766.03	2529.24
766.213	2492.38
766.397	2457.56
766.58	2508.76
766.763	2430.94
766.946	2428.89
767.129	2404.32
767.312	2234.33
767.495	2338.78
767.678	2308.06
767.861	2465.75
768.044	2301.92
768.227	2287.58
768.41	2183.13
768.593	2191.33
768.776	2224.09
768.959	2389.98
769.142	2322.4
769.324	2082.78
769.507	2193.37
769.69	2201.57
769.873	2291.68
770.056	2312.16
770.239	2142.18
770.421	2189.28
770.604	2138.08
770.787	2164.7
770.97	2205.66
771.152	2111.46
771.335	2099.17
771.518	2021.35
771.7	2133.98
771.883	2129.89
772.066	2037.73
772.248	1970.15
772.431	2174.94
772.613	2064.35
772.796	2037.73
772.978	2013.15
773.161	1982.43
773.343	1857.51
773.526	1955.81
773.708	1914.85
773.891	1894.37
774.073	1869.8
774.256	1875.94
774.438	1900.52
774.621	1734.63
774.803	1785.83
774.985	1798.12
775.168	1767.4
775.35	1744.87
775.532	1812.45
775.715	1783.78
775.897	1763.3
776.079	1732.58
776.261	1779.68
776.444	1748.97
776.626	1638.38
776.808	1687.53
776.99	1789.92
777.173	1615.85
777.355	1656.81
777.537	1593.32
777.719	1568.74
777.901	1482.73
778.083	1576.94
778.265	1513.45
778.447	1511.4
778.629	1544.17
778.811	1550.31
778.993	1562.6
779.175	1601.51
779.357	1519.59
779.539	1394.67
779.721	1439.72
779.903	1411.05
780.085	1499.11
780.267	1353.71
780.449	1372.14
780.631	1439.72
780.812	1443.82
780.994	1320.94
781.176	1384.43
781.358	1271.79
781.54	1329.13
781.721	1349.61
781.903	1234.93
782.085	1308.65
782.267	1271.79
782.448	1259.5
782.63	1161.2
782.812	1320.94
782.993	1224.69
783.175	1251.31
783.357	1163.25
783.538	1286.12
783.72	1245.17
783.901	1251.31
784.083	1243.12
784.264	1191.92
784.446	1093.62
784.627	1105.9
784.809	1204.21
784.99	1112.05
785.172	1169.39
785.353	1034.22
785.535	1093.62
785.716	1007.6
785.897	1009.65
786.079	1060.85
786.26	1148.91
786.441	950.26
786.623	958.45
786.804	940.02
786.985	1005.55
787.167	987.12
787.348	962.55
787.529	993.26
787.71	1046.51
787.891	983.03
788.073	931.83
788.254	940.02
788.435	968.69
788.616	1017.84
788.797	856.05
788.978	894.96
789.159	782.32
789.34	827.38
789.522	905.2
789.703	841.72
789.884	837.62
790.065	804.85
790.246	983.03
790.427	880.63
790.607	843.76
790.788	948.21
790.969	778.23
791.15	759.8
791.331	792.56
791.512	901.11
791.693	843.76
791.874	829.43
792.054	849.91
792.235	833.52
792.416	839.67
792.597	792.56
792.778	813.04
792.958	759.8
793.139	735.22
793.32	790.52
793.5	724.98
793.681	839.67
793.862	706.55
794.042	759.8
794.223	710.65
794.404	737.27
794.584	634.87
794.765	741.36
794.945	604.15
795.126	749.56
795.306	675.83
795.487	780.28
795.667	673.78
795.848	718.84
796.028	653.3
796.209	663.54
796.389	704.5
796.57	702.45
796.75	604.15
796.93	630.77
797.111	579.58
797.291	546.81
797.471	677.88
797.652	595.96
797.832	573.43
798.012	727.03
798.192	530.42
798.373	669.69
798.553	579.58
798.733	714.74
798.913	622.58
799.093	620.53
799.274	606.2
799.454	550.9
799.634	684.02
799.814	550.9
799.994	563.19
800.174	559.1
800.354	536.57
800.534	511.99
800.714	563.19
800.894	604.15
801.074	595.96
801.254	565.24
801.434	593.91
801.614	536.57
801.794	536.57
801.974	1234.93
802.154	503.8
802.334	460.79
802.514	493.56
802.693	495.61
802.873	456.7
803.053	471.03
803.233	544.76
803.413	444.41
803.592	454.65
803.772	561.14
803.952	454.65
804.131	473.08
804.311	471.03
804.491	516.09
804.67	483.32
804.85	522.23
805.03	436.22
805.209	552.95
805.389	454.65
805.568	462.84
805.748	438.27
805.928	440.31
806.107	489.46
806.287	436.22
806.466	421.88
806.646	432.12
806.825	487.42
807.004	505.85
807.184	514.04
807.363	440.31
807.543	501.75
807.722	358.39
807.901	436.22
808.081	446.46
808.26	407.55
808.439	374.78
808.619	397.31
808.798	421.88
808.977	374.78
809.156	489.46
809.336	323.58
809.515	389.11
809.694	407.55
809.873	405.5
810.052	413.69
810.231	370.68
810.411	372.73
810.59	425.98
810.769	241.66
810.948	421.88
811.127	309.24
811.306	382.97
811.485	337.91
811.664	479.22
811.843	366.59
812.022	323.58
812.201	374.78
812.38	327.68
812.559	313.34
812.737	366.59
812.916	337.91
813.095	284.67
813.274	364.54
813.453	382.97
813.632	350.2
813.811	288.76
813.989	227.32
814.168	354.3
814.347	266.24
814.526	280.57
814.704	391.16
814.883	309.24
815.062	366.59
815.24	315.39
815.419	325.63
815.598	329.72
815.776	395.26
815.955	325.63
816.133	290.81
816.312	294.91
816.49	268.28
816.669	309.24
816.847	276.48
817.026	358.39
817.204	331.77
817.383	260.09
817.561	282.62
817.74	292.86
817.918	329.72
818.097	374.78
818.275	260.09
818.453	339.96
818.632	272.38
818.81	227.32
818.988	323.58
819.167	292.86
819.345	284.67
819.523	290.81
819.701	206.84
819.879	227.32
820.058	284.67
820.236	288.76
820.414	288.76
820.592	210.94
820.77	309.24
820.948	239.61
821.127	198.65
821.305	301.05
821.483	208.89
821.661	243.71
821.839	350.2
822.017	245.76
822.195	227.32
822.373	251.9
822.551	256
822.729	292.86
822.907	186.37
823.085	172.03
823.262	292.86
823.44	260.09
823.618	253.95
823.796	169.98
823.974	124.93
824.152	260.09
824.329	233.47
824.507	225.28
824.685	235.52
824.863	194.56
825.04	241.66
825.218	208.89
825.396	184.32
825.574	219.13
825.751	202.75
825.929	210.94
826.107	194.56
826.284	268.28
826.462	202.75
826.639	215.04
826.817	192.51
826.994	237.56
827.172	122.88
827.349	264.19
827.527	200.7
827.704	212.99
827.882	237.56
828.059	133.12
828.237	210.94
828.414	210.94
828.591	104.45
828.769	219.13
828.946	149.5
829.124	227.32
829.301	229.37
829.478	157.69
829.655	149.5
829.833	180.22
830.01	184.32
830.187	249.85
830.364	169.98
830.542	247.8
830.719	231.42
830.896	212.99
831.073	147.45
831.25	200.7
831.427	149.5
831.604	149.5
831.782	186.37
831.959	243.71
832.136	163.84
832.313	157.69
832.49	184.32
832.667	206.84
832.844	159.74
833.021	143.36
833.198	102.4
833.374	104.45
833.551	192.51
833.728	178.17
833.905	169.98
834.082	145.41
834.259	161.79
834.436	194.56
834.612	88.06
834.789	129.02
834.966	159.74
835.143	204.8
835.319	79.87
835.496	137.21
835.673	102.4
835.85	147.45
836.026	192.51
836.203	192.51
836.38	100.35
836.556	116.73
836.733	165.89
836.909	231.42
837.086	137.21
837.262	28.67
837.439	110.59
837.616	157.69
837.792	124.93
837.968	184.32
838.145	131.07
838.321	120.83
838.498	256
838.674	182.27
838.851	131.07
839.027	217.08
839.203	143.36
839.38	163.84
839.556	96.25
839.732	186.37
839.909	92.16
840.085	96.25
840.261	45.06
840.437	100.35
840.614	102.4
840.79	133.12
840.966	98.3
841.142	178.17
841.318	98.3
841.494	135.17
841.671	122.88
841.847	100.35
842.023	114.69
842.199	174.08
842.375	157.69
842.551	151.55
842.727	88.06
842.903	120.83
843.079	49.15
843.255	141.31
843.431	81.92
843.607	129.02
843.783	45.06
843.959	45.06
844.134	137.21
844.31	86.01
844.486	86.01
844.662	86.01
844.838	92.16
845.013	83.97
845.189	61.44
845.365	77.82
845.541	34.82
845.716	129.02
845.892	157.69
846.068	100.35
846.244	69.63
846.419	108.54
846.595	53.25
846.77	86.01
846.946	100.35
847.122	79.87
847.297	100.35
847.473	94.21
847.648	38.91
847.824	106.49
847.999	4.1
848.175	20.48
848.35	20.48
848.526	174.08
848.701	71.68
848.876	131.07
849.052	55.3
849.227	59.39
849.403	53.25
849.578	126.97
849.753	49.15
849.929	81.92
850.104	86.01
850.279	43.01
850.454	59.39
850.63	112.64
850.805	83.97
850.98	43.01
851.155	71.68
851.33	141.31
851.505	57.34
851.681	163.84
851.856	116.73
852.031	122.88
852.206	96.25
852.381	10.24
852.556	59.39
852.731	53.25
852.906	102.4
853.081	94.21
853.256	94.21
853.431	75.77
853.606	8.19
853.781	34.82
853.956	-47.1
854.131	71.68
854.305	-2.05
854.48	24.58
854.655	108.54
854.83	20.48
855.005	77.82
855.18	104.45
855.354	34.82
855.529	71.68
855.704	26.62
855.879	69.63
856.053	30.72
856.228	61.44
856.403	-20.48
856.577	6.14
856.752	47.1
856.926	94.21
857.101	92.16
857.276	94.21
857.45	122.88
857.625	106.49
857.799	67.58
857.974	14.34
858.148	59.39
858.323	83.97
858.497	2.05
858.672	-8.19
858.846	63.49
859.02	67.58
859.195	-6.14
859.369	59.39
859.543	96.25
859.718	-12.29
859.892	6.14
860.066	30.72
860.241	-6.14
860.415	-40.96
860.589	-43.01
860.763	-12.29
860.938	45.06
861.112	63.49
861.286	51.2
861.46	83.97
861.634	45.06
861.808	88.06
861.982	-8.19
862.157	-10.24
862.331	-14.34
862.505	30.72
862.679	-4.1
862.853	-34.82
863.027	2.05
863.201	112.64
863.375	-4.1
863.549	43.01
863.722	28.67
863.896	71.68
864.07	-10.24
864.244	-34.82
864.418	55.3
864.592	-18.43
864.766	55.3
864.939	73.73
865.113	12.29
865.287	36.86
865.461	-30.72
865.634	-75.77
865.808	22.53
865.982	53.25
866.156	14.34
866.329	90.11
866.503	-10.24
866.676	122.88
866.85	-18.43
867.024	-10.24
867.197	79.87
867.371	100.35
867.544	38.91
867.718	-47.1
867.891	18.43
868.065	32.77
868.238	69.63
868.412	71.68
868.585	86.01
868.759	-43.01
868.932	-12.29
869.105	116.73
869.279	-20.48
869.452	-34.82
869.625	-2.05
869.799	-14.34
869.972	-75.77
870.145	-12.29
870.319	4.1
870.492	-34.82
870.665	45.06
870.838	-12.29
871.011	-24.58
871.185	0
871.358	-14.34
871.531	47.1
871.704	14.34
871.877	14.34
872.05	22.53
872.223	-22.53
872.396	83.97
872.569	-6.14
872.742	-34.82
872.915	-4.1
873.088	137.21
873.261	6.14
873.434	55.3
873.607	28.67
873.78	53.25
873.953	-49.15
874.126	-38.91
874.299	26.62
874.471	30.72
874.644	63.49
874.817	-24.58
874.99	69.63
875.163	10.24
875.335	38.91
875.508	-18.43
875.681	28.67
875.853	32.77
876.026	14.34
876.199	96.25
876.371	6.14
876.544	40.96
876.717	61.44
876.889	14.34
877.062	-18.43
877.234	-16.38
877.407	-51.2
877.579	47.1
877.752	-10.24
877.924	-38.91
878.097	51.2
878.269	-2.05
878.442	-55.3
878.614	-4.1
878.786	-10.24
878.959	-18.43
879.131	77.82
879.303	-67.58
879.476	-75.77
879.648	28.67
879.82	-2.05
879.993	-4.1
880.165	18.43
880.337	-43.01
880.509	-10.24
880.681	-59.39
880.854	-96.25
881.026	-4.1
881.198	108.54
881.37	12.29
881.542	45.06
881.714	-55.3
881.886	-10.24
882.058	-32.77
882.23	-10.24
882.402	4.1
882.574	22.53
882.746	75.77
882.918	30.72
883.09	86.01
883.262	-2.05
883.434	22.53
883.606	63.49
883.778	-69.63
883.95	81.92
884.122	-36.86
884.293	-18.43
884.465	-55.3
884.637	-2.05
884.809	30.72
884.98	14.34
885.152	10.24
885.324	-2.05
885.496	-59.39
885.667	-77.82
885.839	-2.05
886.011	24.58
886.182	55.3
886.354	112.64
886.525	-47.1
886.697	-51.2
886.869	59.39
887.04	22.53
887.212	4.1
887.383	59.39
887.555	-77.82
887.726	-18.43
887.897	-32.77
888.069	32.77
888.24	-18.43
888.412	-34.82
888.583	-83.97
888.754	-51.2
888.926	-73.73
889.097	-22.53
889.268	-51.2
889.44	-51.2
889.611	-51.2
889.782	-38.91
889.953	-34.82
890.125	45.06
890.296	-6.14
890.467	-106.49
890.638	14.34
890.809	-32.77
890.98	-4.1
891.151	12.29
891.323	-18.43
891.494	47.1
891.665	-34.82
891.836	-12.29
892.007	24.58
892.178	40.96
892.349	-10.24
892.52	-28.67
892.691	-4.1
892.862	-14.34
893.032	-22.53
893.203	10.24
893.374	-55.3
893.545	-47.1
893.716	-45.06
893.887	2.05
894.057	-36.86
894.228	22.53
894.399	-55.3
894.57	22.53
894.74	18.43
894.911	28.67
895.082	-8.19
895.253	-32.77
895.423	-51.2
895.594	20.48
895.764	22.53
895.935	-40.96
896.106	-10.24
896.276	-36.86
896.447	-34.82
896.617	-38.91
896.788	57.34
896.958	-22.53
897.129	-26.62
897.299	-51.2
897.47	28.67
897.64	8.19
897.81	-49.15
897.981	73.73
898.151	-92.16
898.322	-71.68
898.492	2.05
898.662	2.05
898.832	0
899.003	43.01
899.173	-75.77
899.343	8.19
899.513	-2.05
