Data from USB4F104151__17__11-57-39-191.txt Node

Date: Wed Feb 19 11:57:39 EST 2025
User: louis
Spectrometer: USB4F10415
Trigger mode: 4
Integration Time (sec): 2.250200E-1
Scans to average: 1
Electric dark correction enabled: true
Nonlinearity correction enabled: false
Boxcar width: 0
XAxis mode: Wavelengths
Number of Pixels in Spectrum: 3648
>>>>>Begin Spectral Data<<<<<
178.204	-812.53
178.424	-812.53
178.644	-812.53
178.864	-779.76
179.084	-771.57
179.304	211.45
179.524	109.05
179.744	2.56
179.964	-224.76
180.184	219.64
180.404	127.49
180.624	-210.43
180.844	-79.36
181.064	-71.17
181.283	135.68
181.503	-177.66
181.723	-42.5
181.943	-75.26
182.163	391.67
182.383	-138.75
182.602	-110.08
182.822	475.64
183.042	240.12
183.262	-177.66
183.482	-120.32
183.701	248.32
183.921	381.43
184.141	-101.89
184.361	-110.08
184.58	369.15
184.8	264.7
185.02	-142.85
185.239	-36.35
185.459	309.76
185.679	469.5
185.898	-222.72
186.118	-278.01
186.338	266.75
186.557	365.05
186.777	-232.96
186.997	-241.15
187.216	266.75
187.436	535.03
187.655	-77.31
187.875	12.8
188.095	305.66
188.314	315.9
188.534	-44.54
188.753	-251.39
188.973	256.51
189.192	479.74
189.412	-286.2
189.631	-159.23
189.851	320
190.07	528.89
190.29	-239.1
190.509	-218.62
190.729	338.43
190.948	498.17
191.168	-17.92
191.387	-95.74
191.607	217.6
191.826	301.56
192.045	-161.28
192.265	-85.5
192.484	328.19
192.704	248.32
192.923	-110.08
193.142	-46.59
193.362	373.24
193.581	457.21
193.8	-46.59
194.02	-122.37
194.239	313.85
194.458	250.36
194.678	-112.13
194.897	-202.24
195.116	326.14
195.335	322.04
195.555	-114.17
195.774	-243.2
195.993	438.78
196.212	268.8
196.432	-118.27
196.651	-241.15
196.87	233.98
197.089	575.99
197.308	-189.95
197.528	-118.27
197.747	29.18
197.966	305.66
198.185	-87.55
198.404	-265.72
198.623	369.15
198.842	438.78
199.062	-169.47
199.281	-91.65
199.5	248.32
199.719	274.94
199.938	-185.85
200.157	-103.93
200.376	358.91
200.595	408.06
200.814	-77.31
201.033	-171.52
201.252	414.2
201.471	281.08
201.69	-105.98
201.909	-44.54
202.128	285.18
202.347	330.23
202.566	-132.61
202.785	-310.78
203.004	209.4
203.223	481.78
203.442	-120.32
203.661	-257.53
203.879	420.35
204.098	387.58
204.317	-153.09
204.536	8.7
204.755	356.86
204.974	352.76
205.193	-337.4
205.411	-161.28
205.63	395.77
205.849	309.76
206.068	-71.17
206.287	-232.96
206.505	385.53
206.724	276.99
206.943	-224.76
207.162	-103.93
207.381	289.28
207.599	297.47
207.818	-146.94
208.037	-144.89
208.255	233.98
208.474	264.7
208.693	-155.13
208.911	-120.32
209.13	352.76
209.349	307.71
209.567	-13.82
209.786	-151.04
210.005	348.67
210.223	252.41
210.442	-402.94
210.661	-157.18
210.879	348.67
211.098	238.08
211.316	-79.36
211.535	-101.89
211.753	346.62
211.972	307.71
212.191	-198.14
212.409	-87.55
212.628	317.95
212.846	184.83
213.065	-93.69
213.283	-30.21
213.502	260.6
213.72	315.9
213.938	-181.76
214.157	-161.28
214.375	279.04
214.594	199.16
214.812	-124.41
215.031	-181.76
215.249	279.04
215.467	190.97
215.686	-97.79
215.904	-116.22
216.122	201.21
216.341	414.2
216.559	-40.45
216.778	-69.12
216.996	485.88
217.214	170.49
217.432	-52.74
217.651	-226.81
217.869	285.18
218.087	231.93
218.306	-241.15
218.524	-118.27
218.742	141.82
218.96	385.53
219.179	-161.28
219.397	-155.13
219.615	565.75
219.833	346.62
220.051	-144.89
220.27	-108.03
220.488	453.11
220.706	276.99
220.924	-265.72
221.142	-192
221.36	264.7
221.578	281.08
221.796	-161.28
222.015	-13.82
222.233	229.88
222.451	416.25
222.669	-120.32
222.887	-46.59
223.105	98.81
223.323	154.11
223.541	-120.32
223.759	10.75
223.977	256.51
224.195	524.79
224.413	-65.02
224.631	-116.22
224.849	379.39
225.067	596.47
225.285	-120.32
225.503	-189.95
225.721	-13.82
225.939	223.74
226.157	-128.51
226.375	72.19
226.592	164.35
226.81	258.56
227.028	27.14
227.246	-112.13
227.464	258.56
227.682	264.7
227.9	-108.03
228.117	-11.78
228.335	289.28
228.553	227.84
228.771	-198.14
228.989	-118.27
229.206	297.47
229.424	166.4
229.642	-163.33
229.86	-124.41
230.077	403.96
230.295	238.08
230.513	0.51
230.731	-87.55
230.948	496.12
231.166	406.01
231.384	-60.93
231.601	-153.09
231.819	477.69
232.037	119.29
232.254	-28.16
232.472	-110.08
232.689	172.54
232.907	432.63
233.125	-120.32
233.342	-206.33
233.56	74.24
233.777	244.22
233.995	-204.28
234.213	-5.63
234.43	301.56
234.648	201.21
234.865	-101.89
235.083	-60.93
235.3	266.75
235.518	307.71
235.735	10.75
235.953	-69.12
236.17	211.45
236.388	186.88
236.605	16.9
236.822	-44.54
237.04	383.48
237.257	287.23
237.475	-128.51
237.692	-132.61
237.909	367.1
238.127	209.4
238.344	45.57
238.562	-67.07
238.779	35.33
238.996	74.24
239.214	-9.73
239.431	-83.45
239.648	180.73
239.865	248.32
240.083	-28.16
240.3	-142.85
240.517	168.45
240.735	299.52
240.952	47.62
241.169	-151.04
241.386	340.47
241.603	184.83
241.821	-165.37
242.038	-153.09
242.255	320
242.472	68.09
242.689	-83.45
242.907	-89.6
243.124	174.59
243.341	209.4
243.558	-56.83
243.775	-165.37
243.992	-36.35
244.209	287.23
244.426	-5.63
244.643	-112.13
244.86	248.32
245.078	260.6
245.295	-89.6
245.512	-38.4
245.729	129.53
245.946	256.51
246.163	-114.17
246.38	-153.09
246.597	272.89
246.814	205.31
247.031	-89.6
247.248	-196.09
247.464	365.05
247.681	260.6
247.898	-99.84
248.115	-108.03
248.332	96.77
248.549	403.96
248.766	10.75
248.983	-52.74
249.2	397.82
249.417	403.96
249.633	-144.89
249.85	-77.31
250.067	260.6
250.284	246.27
250.501	-134.65
250.717	-71.17
250.934	92.67
251.151	203.26
251.368	-54.78
251.585	-52.74
251.801	287.23
252.018	-1.54
252.235	39.42
252.451	-179.71
252.668	150.01
252.885	354.81
253.102	-22.02
253.318	-136.7
253.535	203.26
253.752	195.07
253.968	-157.18
254.185	-192
254.401	303.61
254.618	340.47
254.835	-140.8
255.051	-112.13
255.268	281.08
255.484	266.75
255.701	-75.26
255.917	-58.88
256.134	47.62
256.351	242.17
256.567	-140.8
256.784	20.99
257	-5.63
257.217	363
257.433	88.57
257.65	-99.84
257.866	363
258.082	8.7
258.299	-15.87
258.515	-54.78
258.732	141.82
258.948	139.77
259.165	-77.31
259.381	-105.98
259.597	363
259.814	231.93
260.03	-122.37
260.246	-75.26
260.463	348.67
260.679	346.62
260.895	-9.73
261.112	-22.02
261.328	147.97
261.544	117.25
261.761	-22.02
261.977	-128.51
262.193	78.33
262.409	344.57
262.626	68.09
262.842	-40.45
263.058	80.38
263.274	365.05
263.49	6.66
263.707	-126.46
263.923	276.99
264.139	70.14
264.355	8.7
264.571	-19.97
264.787	299.52
265.004	379.39
265.22	33.28
265.436	-101.89
265.652	182.78
265.868	344.57
266.084	-116.22
266.3	-134.65
266.516	88.57
266.732	266.75
266.948	-11.78
267.164	-128.51
267.38	305.66
267.596	291.32
267.812	94.72
268.028	-65.02
268.244	258.56
268.46	203.26
268.676	-17.92
268.892	29.18
269.108	102.91
269.324	37.38
269.54	-112.13
269.756	-114.17
269.972	147.97
270.188	199.16
270.403	-67.07
270.619	-87.55
270.835	145.92
271.051	274.94
271.267	-91.65
271.483	-103.93
271.698	395.77
271.914	256.51
272.13	0.51
272.346	-85.5
272.562	221.69
272.777	381.43
272.993	-26.11
273.209	-69.12
273.425	270.84
273.64	51.71
273.856	-110.08
274.072	-181.76
274.287	18.94
274.503	332.28
274.719	35.33
274.934	-126.46
275.15	76.29
275.366	86.53
275.581	-67.07
275.797	-73.21
276.012	193.02
276.228	29.18
276.444	39.42
276.659	70.14
276.875	74.24
277.09	117.25
277.306	-34.3
277.521	25.09
277.737	168.45
277.952	152.06
278.168	-34.3
278.383	18.94
278.599	172.54
278.814	205.31
279.03	-112.13
279.245	18.94
279.461	219.64
279.676	281.08
279.892	-32.26
280.107	-87.55
280.322	139.77
280.538	301.56
280.753	-32.26
280.969	-97.79
281.184	199.16
281.399	276.99
281.615	31.23
281.83	98.81
282.045	23.04
282.26	18.94
282.476	12.8
282.691	152.06
282.906	225.79
283.122	178.69
283.337	12.8
283.552	82.43
283.767	184.83
283.983	260.6
284.198	-26.11
284.413	-71.17
284.628	18.94
284.843	137.73
285.058	31.23
285.274	-54.78
285.489	152.06
285.704	186.88
285.919	-46.59
286.134	-28.16
286.349	180.73
286.564	166.4
286.779	117.25
286.995	-1.54
287.21	45.57
287.425	229.88
287.64	-9.73
287.855	193.02
288.07	-28.16
288.285	313.85
288.5	74.24
288.715	31.23
288.93	174.59
289.145	27.14
289.36	6.66
289.575	2.56
289.79	403.96
290.004	152.06
290.219	92.67
290.434	14.85
290.649	133.63
290.864	147.97
291.079	31.23
291.294	64
291.509	246.27
291.724	121.34
291.938	-3.58
292.153	-38.4
292.368	199.16
292.583	256.51
292.798	57.86
293.012	70.14
293.227	270.84
293.442	111.1
293.657	43.52
293.871	33.28
294.086	217.6
294.301	350.71
294.516	-11.78
294.73	100.86
294.945	49.66
295.16	227.84
295.374	78.33
295.589	115.2
295.804	109.05
296.018	129.53
296.233	-67.07
296.447	109.05
296.662	82.43
296.877	309.76
297.091	49.66
297.306	-69.12
297.52	152.06
297.735	246.27
297.949	92.67
298.164	-155.13
298.378	199.16
298.593	-17.92
298.807	43.52
299.022	-1.54
299.236	346.62
299.451	72.19
299.665	68.09
299.88	49.66
300.094	272.89
300.309	141.82
300.523	-54.78
300.737	-22.02
300.952	248.32
301.166	287.23
301.381	-32.26
301.595	-112.13
301.809	186.88
302.024	109.05
302.238	-38.4
302.452	86.53
302.667	180.73
302.881	254.46
303.095	23.04
303.309	51.71
303.524	92.67
303.738	145.92
303.952	20.99
304.166	92.67
304.381	0.51
304.595	297.47
304.809	-7.68
305.023	-5.63
305.237	125.44
305.452	90.62
305.666	-11.78
305.88	115.2
306.094	281.08
306.308	209.4
306.522	-11.78
306.736	68.09
306.95	283.13
307.164	100.86
307.379	51.71
307.593	111.1
307.807	281.08
308.021	250.36
308.235	168.45
308.449	-75.26
308.663	131.58
308.877	483.83
309.091	51.71
309.305	76.29
309.519	-36.35
309.733	193.02
309.947	25.09
310.161	49.66
310.374	268.8
310.588	393.72
310.802	-50.69
311.016	41.47
311.23	289.28
311.444	59.9
311.658	25.09
311.872	213.5
312.085	317.95
312.299	270.84
312.513	229.88
312.727	29.18
312.941	53.76
313.154	152.06
313.368	64
313.582	12.8
313.796	233.98
314.009	209.4
314.223	141.82
314.437	55.81
314.651	238.08
314.864	76.29
315.078	33.28
315.292	-118.27
315.505	113.15
315.719	217.6
315.933	135.68
316.146	-50.69
316.36	59.9
316.573	287.23
316.787	254.46
317.001	49.66
317.214	39.42
317.428	225.79
317.641	-69.12
317.855	23.04
318.068	209.4
318.282	221.69
318.495	154.11
318.709	-19.97
318.922	156.16
319.136	295.42
319.349	74.24
319.563	-19.97
319.776	203.26
319.99	82.43
320.203	6.66
320.417	27.14
320.63	86.53
320.843	268.8
321.057	121.34
321.27	-17.92
321.483	180.73
321.697	168.45
321.91	-48.64
322.124	-7.68
322.337	195.07
322.55	74.24
322.763	10.75
322.977	-28.16
323.19	55.81
323.403	113.15
323.617	27.14
323.83	236.03
324.043	141.82
324.256	231.93
324.469	-175.61
324.683	227.84
324.896	176.64
325.109	133.63
325.322	-136.7
325.535	94.72
325.748	424.44
325.962	94.72
326.175	66.05
326.388	-54.78
326.601	240.12
326.814	133.63
327.027	8.7
327.24	227.84
327.453	4.61
327.666	227.84
327.879	121.34
328.092	55.81
328.305	328.19
328.518	121.34
328.731	51.71
328.944	-28.16
329.157	137.73
329.37	86.53
329.583	72.19
329.796	107.01
330.009	8.7
330.222	260.6
330.435	68.09
330.648	20.99
330.861	231.93
331.073	193.02
331.286	125.44
331.499	20.99
331.712	100.86
331.925	205.31
332.138	8.7
332.35	-38.4
332.563	90.62
332.776	295.42
332.989	4.61
333.202	-60.93
333.414	172.54
333.627	166.4
333.84	45.57
334.053	102.91
334.265	158.21
334.478	-9.73
334.691	-46.59
334.903	84.48
335.116	66.05
335.329	49.66
335.541	18.94
335.754	231.93
335.966	176.64
336.179	141.82
336.392	59.9
336.604	37.38
336.817	227.84
337.029	252.41
337.242	-52.74
337.454	147.97
337.667	242.17
337.88	324.09
338.092	80.38
338.305	47.62
338.517	170.49
338.729	190.97
338.942	20.99
339.154	-30.21
339.367	94.72
339.579	246.27
339.792	-105.98
340.004	53.76
340.217	156.16
340.429	281.08
340.641	-67.07
340.854	-73.21
341.066	158.21
341.278	340.47
341.491	190.97
341.703	-7.68
341.915	88.57
342.128	281.08
342.34	109.05
342.552	-46.59
342.764	203.26
342.977	223.74
343.189	111.1
343.401	57.86
343.613	45.57
343.826	197.12
344.038	-91.65
344.25	100.86
344.462	68.09
344.674	162.3
344.886	-19.97
345.099	96.77
345.311	254.46
345.523	135.68
345.735	-11.78
345.947	84.48
346.159	182.78
346.371	254.46
346.583	107.01
346.795	186.88
347.007	137.73
347.219	276.99
347.431	59.9
347.643	209.4
347.855	186.88
348.067	264.7
348.279	-5.63
348.491	43.52
348.703	354.81
348.915	129.53
349.127	-36.35
349.339	-3.58
349.551	166.4
349.763	301.56
349.975	43.52
350.187	68.09
350.399	297.47
350.61	264.7
350.822	6.66
351.034	53.76
351.246	276.99
351.458	209.4
351.669	14.85
351.881	-34.3
352.093	365.05
352.305	315.9
352.517	-3.58
352.728	102.91
352.94	145.92
353.152	238.08
353.363	-120.32
353.575	117.25
353.787	336.38
353.999	190.97
354.21	158.21
354.422	-69.12
354.633	141.82
354.845	168.45
355.057	4.61
355.268	-24.06
355.48	305.66
355.692	64
355.903	82.43
356.115	-124.41
356.326	-32.26
356.538	401.91
356.749	45.57
356.961	90.62
357.172	160.25
357.384	-28.16
357.595	260.6
357.807	100.86
358.018	129.53
358.23	184.83
358.441	25.09
358.653	-7.68
358.864	166.4
359.075	37.38
359.287	45.57
359.498	150.01
359.709	272.89
359.921	158.21
360.132	61.95
360.344	-56.83
360.555	143.87
360.766	199.16
360.977	-81.41
361.189	117.25
361.4	109.05
361.611	299.52
361.823	158.21
362.034	-15.87
362.245	-36.35
362.456	213.5
362.667	201.21
362.879	-103.93
363.09	254.46
363.301	188.93
363.512	-7.68
363.723	-54.78
363.935	104.96
364.146	320
364.357	-1.54
364.568	-13.82
364.779	14.85
364.99	373.24
365.201	129.53
365.412	164.35
365.623	14.85
365.834	227.84
366.045	66.05
366.256	68.09
366.467	334.33
366.678	170.49
366.889	59.9
367.1	-13.82
367.311	332.28
367.522	172.54
367.733	109.05
367.944	51.71
368.155	111.1
368.366	334.33
368.577	39.42
368.788	150.01
368.999	39.42
369.209	240.12
369.42	55.81
369.631	379.39
369.842	236.03
370.053	209.4
370.264	29.18
370.474	-69.12
370.685	313.85
370.896	150.01
371.107	129.53
371.317	94.72
371.528	141.82
371.739	350.71
371.95	51.71
372.16	4.61
372.371	49.66
372.582	174.59
372.792	-7.68
373.003	170.49
373.214	240.12
373.424	256.51
373.635	94.72
373.846	129.53
374.056	166.4
374.267	186.88
374.477	131.58
374.688	-30.21
374.898	283.13
375.109	201.21
375.319	109.05
375.53	45.57
375.74	332.28
375.951	66.05
376.161	107.01
376.372	33.28
376.582	158.21
376.793	260.6
377.003	-60.93
377.214	-30.21
377.424	336.38
377.635	209.4
377.845	76.29
378.055	51.71
378.266	127.49
378.476	174.59
378.686	94.72
378.897	78.33
379.107	334.33
379.317	254.46
379.528	-67.07
379.738	68.09
379.948	76.29
380.158	348.67
380.369	53.76
380.579	201.21
380.789	203.26
380.999	188.93
381.21	115.2
381.42	182.78
381.63	143.87
381.84	311.8
382.05	113.15
382.261	131.58
382.471	432.63
382.681	143.87
382.891	70.14
383.101	188.93
383.311	12.8
383.521	41.47
383.731	-17.92
383.941	170.49
384.151	166.4
384.361	61.95
384.571	27.14
384.781	27.14
384.991	281.08
385.201	522.74
385.411	158.21
385.621	72.19
385.831	266.75
386.041	217.6
386.251	84.48
386.461	221.69
386.671	188.93
386.881	250.36
387.091	70.14
387.301	168.45
387.511	272.89
387.72	150.01
387.93	82.43
388.14	35.33
388.35	219.64
388.56	203.26
388.769	41.47
388.979	-5.63
389.189	92.67
389.399	150.01
389.609	37.38
389.818	131.58
390.028	266.75
390.238	209.4
390.447	-44.54
390.657	84.48
390.867	176.64
391.076	59.9
391.286	20.99
391.496	27.14
391.705	279.04
391.915	422.39
392.125	53.76
392.334	66.05
392.544	430.59
392.753	176.64
392.963	45.57
393.172	35.33
393.382	121.34
393.591	438.78
393.801	16.9
394.01	100.86
394.22	252.41
394.429	125.44
394.639	88.57
394.848	102.91
395.058	266.75
395.267	113.15
395.477	141.82
395.686	154.11
395.895	387.58
396.105	354.81
396.314	82.43
396.524	98.81
396.733	70.14
396.942	320
397.152	29.18
397.361	201.21
397.57	168.45
397.78	182.78
397.989	88.57
398.198	215.55
398.407	160.25
398.617	195.07
398.826	45.57
399.035	41.47
399.244	305.66
399.453	223.74
399.663	-42.5
399.872	-87.55
400.081	45.57
400.29	326.14
400.499	23.04
400.708	113.15
400.917	233.98
401.127	94.72
401.336	20.99
401.545	307.71
401.754	356.86
401.963	211.45
402.172	104.96
402.381	-46.59
402.59	248.32
402.799	119.29
403.008	188.93
403.217	104.96
403.426	264.7
403.635	-5.63
403.844	-36.35
404.053	4.61
404.262	176.64
404.471	348.67
404.68	64
404.888	131.58
405.097	147.97
405.306	162.3
405.515	80.38
405.724	37.38
405.933	289.28
406.142	215.55
406.35	119.29
406.559	0.51
406.768	209.4
406.977	414.2
407.185	107.01
407.394	111.1
407.603	45.57
407.812	223.74
408.02	195.07
408.229	121.34
408.438	311.8
408.646	-11.78
408.855	-5.63
409.064	-22.02
409.272	133.63
409.481	227.84
409.69	18.94
409.898	-48.64
410.107	274.94
410.315	297.47
410.524	37.38
410.733	23.04
410.941	217.6
411.15	369.15
411.358	80.38
411.567	270.84
411.775	295.42
411.984	293.37
412.192	182.78
412.401	6.66
412.609	381.43
412.818	340.47
413.026	137.73
413.234	-19.97
413.443	274.94
413.651	18.94
413.86	-38.4
414.068	242.17
414.276	461.3
414.485	127.49
414.693	109.05
414.901	303.61
415.11	231.93
415.318	188.93
415.526	68.09
415.734	182.78
415.943	211.45
416.151	403.96
416.359	49.66
416.567	160.25
416.776	299.52
416.984	242.17
417.192	172.54
417.4	109.05
417.608	182.78
417.817	37.38
418.025	231.93
418.233	139.77
418.441	109.05
418.649	111.1
418.857	168.45
419.065	131.58
419.273	281.08
419.481	313.85
419.689	193.02
419.897	119.29
420.105	66.05
420.313	354.81
420.521	248.32
420.729	217.6
420.937	268.8
421.145	119.29
421.353	182.78
421.561	240.12
421.769	283.13
421.977	221.69
422.185	176.64
422.393	168.45
422.601	408.06
422.809	283.13
423.017	188.93
423.224	158.21
423.432	440.83
423.64	276.99
423.848	139.77
424.056	61.95
424.263	428.54
424.471	248.32
424.679	283.13
424.887	152.06
425.094	526.84
425.302	342.52
425.51	123.39
425.718	195.07
425.925	371.19
426.133	293.37
426.341	276.99
426.548	201.21
426.756	283.13
426.964	266.75
427.171	270.84
427.379	274.94
427.586	375.29
427.794	436.73
428.001	305.66
428.209	305.66
428.417	512.5
428.624	496.12
428.832	287.23
429.039	330.23
429.247	436.73
429.454	438.78
429.662	393.72
429.869	293.37
430.076	545.27
430.284	569.85
430.491	387.58
430.699	403.96
430.906	647.67
431.114	487.93
431.321	469.5
431.528	465.4
431.736	520.7
431.943	594.42
432.15	473.59
432.358	389.63
432.565	780.79
432.772	289.28
432.979	561.66
433.187	373.24
433.394	772.6
433.601	502.26
433.808	578.04
434.016	592.37
434.223	680.44
434.43	616.95
434.637	492.02
434.844	776.69
435.052	860.66
435.259	793.08
435.466	668.15
435.673	717.3
435.88	897.52
436.087	989.68
436.294	899.57
436.501	809.46
436.708	909.81
436.915	977.39
437.122	909.81
437.329	694.77
437.537	928.24
437.743	1006.06
437.95	958.96
438.157	823.8
438.364	1034.74
438.571	1004.02
438.778	977.39
438.985	1040.88
439.192	1118.7
439.399	1098.22
439.606	1075.7
439.813	1092.08
440.02	1458.67
440.227	1575.4
440.433	1212.91
440.64	1161.71
440.847	1210.86
441.054	1264.11
441.261	1262.06
441.467	1233.39
441.674	1346.03
441.881	1587.69
442.088	1290.73
442.294	1370.6
442.501	1634.79
442.708	1614.31
442.914	1386.99
443.121	1505.77
443.328	1755.62
443.534	1774.05
443.741	1630.7
443.948	1485.29
444.154	1837.54
444.361	2019.81
444.568	1755.62
444.774	1812.96
444.981	1831.4
445.187	2120.16
445.394	1845.73
445.6	1751.53
445.807	2279.9
446.013	1964.51
446.22	1823.2
446.426	2165.21
446.633	2320.86
446.839	2519.51
447.046	1909.22
447.252	2464.22
447.459	2359.77
447.665	2415.07
447.871	2380.25
448.078	2744.79
448.284	2718.17
448.491	2681.3
448.697	2851.28
448.903	2802.13
449.11	2947.54
449.316	2828.76
449.522	3107.28
449.728	3113.42
449.935	3361.23
450.141	3170.77
450.347	3242.45
450.553	3209.68
450.76	3529.16
450.966	3686.86
451.172	3539.4
451.378	3738.05
451.584	3754.44
451.791	4051.39
451.997	3795.4
452.203	3965.38
452.409	4213.18
452.615	4297.15
452.821	3914.18
453.027	4043.2
453.233	4721.08
453.44	4336.06
453.646	4288.96
453.852	4487.61
454.058	4532.67
454.264	4798.9
454.47	4942.26
454.676	4829.62
454.882	5218.74
455.088	4757.94
455.294	4860.34
455.5	5011.89
455.705	5308.85
455.911	5267.89
456.117	5226.93
456.323	5269.94
456.529	5140.91
456.735	5401.01
456.941	5216.69
457.147	5183.92
457.352	5331.37
457.558	5112.24
457.764	5366.19
457.97	5243.31
458.176	5394.86
458.381	5538.22
458.587	5382.57
458.793	5312.94
458.999	5351.85
459.204	5663.15
459.41	5452.2
459.616	5394.86
459.821	5642.67
460.027	5366.19
460.233	5517.74
460.438	5237.17
460.644	5413.29
460.85	5202.35
461.055	5173.68
461.261	5110.19
461.466	4846.01
461.672	4870.58
461.878	4821.43
462.083	5046.71
462.289	4606.39
462.494	4719.03
462.7	4508.09
462.905	4342.21
463.111	4856.25
463.316	4729.27
463.522	4485.56
463.727	4407.74
463.932	4585.91
464.138	4542.91
464.343	4618.68
464.549	4381.12
464.754	4698.55
464.959	4667.83
465.165	4520.38
465.37	4202.94
465.575	4204.99
465.781	4340.16
465.986	4270.53
466.191	4145.6
466.397	4352.45
466.602	4315.58
466.807	4204.99
467.012	4200.9
467.218	4495.8
467.423	4196.8
467.628	4043.2
467.833	4293.05
468.038	4450.75
468.244	4047.3
468.449	4241.86
468.654	4118.98
468.859	4135.36
469.064	4207.04
469.269	3844.55
469.474	4069.83
469.679	4274.62
469.885	4149.7
470.09	3922.37
470.295	4006.34
470.5	4135.36
470.705	4415.93
470.91	4073.92
471.115	3959.24
471.32	4223.42
471.525	4501.95
471.73	4008.39
471.935	4159.94
472.139	4131.26
472.344	4024.77
472.549	4161.98
472.754	4121.03
472.959	4161.98
473.164	4215.23
473.369	3981.76
473.574	4307.39
473.778	4426.17
473.983	4383.17
474.188	4295.1
474.393	4045.25
474.598	4338.11
474.802	4256.19
475.007	4182.46
475.212	4159.94
475.417	4223.42
475.621	4303.29
475.826	4145.6
476.031	4174.27
476.235	4217.28
476.44	4198.85
476.645	4123.07
476.849	4059.59
477.054	4065.73
477.259	4053.44
477.463	4229.57
477.668	4041.15
477.872	4495.8
478.077	4118.98
478.282	3899.84
478.486	4051.39
478.691	3985.86
478.895	3940.8
479.1	4147.65
479.304	3934.66
479.509	3862.98
479.713	4303.29
479.918	3852.74
480.122	3690.95
480.326	4065.73
480.531	4223.42
480.735	3940.8
480.94	3807.69
481.144	4340.16
481.348	4090.31
481.553	4041.15
481.757	3989.96
481.961	4035.01
482.166	3989.96
482.37	3920.32
482.574	4010.43
482.778	4098.5
482.983	4385.21
483.187	4004.29
483.391	4008.39
483.595	4041.15
483.8	4291.01
484.004	4098.5
484.208	4041.15
484.412	4286.91
484.616	4243.9
484.821	4184.51
485.025	4090.31
485.229	4202.94
485.433	4344.25
485.637	4196.8
485.841	4227.52
486.045	4456.89
486.249	4405.69
486.453	4204.99
486.657	4211.14
486.861	4248
487.065	4434.36
487.269	4221.38
487.473	4233.66
487.677	4508.09
487.881	4680.12
488.085	4211.14
488.289	4395.45
488.493	4516.28
488.697	4755.9
488.901	4501.95
489.105	4477.37
489.309	4684.22
489.512	4860.34
489.716	4616.63
489.92	4551.1
490.124	4745.66
490.328	4848.05
490.531	4628.92
490.735	4731.32
490.939	4788.66
491.143	4682.17
491.346	4579.77
491.55	4850.1
491.754	4958.64
491.958	4921.78
492.161	4862.39
492.365	4813.24
492.569	4938.16
492.772	4993.46
492.976	4846.01
493.18	4954.55
493.383	5036.47
493.587	5095.86
493.79	5087.67
493.994	4841.91
494.197	5099.95
494.401	5063.09
494.605	4905.4
494.808	5128.63
495.012	5196.21
495.215	5403.05
495.419	5392.81
495.622	5132.72
495.825	5401.01
496.029	5261.74
496.232	5384.62
496.436	5181.87
496.639	5726.63
496.843	5368.24
497.046	5468.59
497.249	5519.79
497.453	5609.9
497.656	5362.09
497.859	5503.4
498.063	5536.17
498.266	5861.8
498.469	5560.75
498.673	5552.56
498.876	5425.58
499.079	5704.1
499.282	5749.16
499.485	5712.3
499.689	5765.54
499.892	6054.31
500.095	5947.81
500.298	5921.19
500.501	5829.03
500.705	6130.08
500.908	6005.16
501.111	6076.84
501.314	6285.73
501.517	6351.26
501.72	6390.17
501.923	6162.85
502.126	6240.67
502.329	6644.12
502.532	6451.61
502.735	6255.01
502.938	6513.05
503.141	6580.64
503.344	6617.5
503.547	6601.12
503.75	6511
503.953	6547.87
504.156	6908.31
504.359	6775.19
504.562	6814.1
504.765	6812.06
504.968	7088.53
505.17	7221.65
505.373	6873.5
505.576	7080.34
505.779	7467.41
505.982	7162.26
506.185	7104.92
506.387	7459.21
506.59	7457.17
506.793	7584.14
506.996	7604.62
507.198	7991.69
507.401	7940.49
507.604	7715.21
507.807	7713.16
508.009	8139.14
508.212	8198.53
508.415	8104.32
508.617	7901.58
508.82	8370.56
509.022	8305.03
509.225	8458.62
509.428	8466.81
509.63	8413.57
509.833	8552.83
510.035	8741.24
510.238	8665.47
510.44	8829.31
510.643	9134.45
510.845	9173.36
511.048	8939.9
511.25	9361.78
511.453	9177.46
511.655	9572.72
511.858	9296.24
512.06	9740.65
512.262	9556.33
512.465	9640.3
512.667	9709.93
512.87	9849.19
513.072	10068.33
513.274	9869.67
513.477	9963.88
513.679	10197.35
513.881	10522.98
514.084	10305.89
514.286	10545.5
514.488	10727.77
514.69	11032.92
514.893	10838.36
515.095	10985.82
515.297	11250
515.499	11266.39
515.701	11276.63
515.904	11432.27
516.106	12083.53
516.308	11872.59
516.51	11751.76
516.712	11987.27
516.914	12153.16
517.116	12202.31
517.318	12237.13
517.52	12595.52
517.722	12880.19
517.925	12673.34
518.127	12802.36
518.329	13070.65
518.531	12540.22
518.733	13207.86
518.935	13224.25
519.136	13732.14
519.338	13635.89
519.54	14016.81
519.742	13875.5
519.944	14094.63
520.146	14194.98
520.348	14496.03
520.55	14326.05
520.752	14260.52
520.954	14827.81
521.155	14825.76
521.357	14899.48
521.559	15468.82
521.761	15728.91
521.963	15313.17
522.164	15487.25
522.366	15644.95
522.568	15827.21
522.77	16234.76
522.971	16058.63
523.173	15794.45
523.375	16390.41
523.576	16216.33
523.778	16380.17
523.98	16697.6
524.181	17004.8
524.383	16959.74
524.584	17137.91
524.786	17236.22
524.988	17260.79
525.189	17371.38
525.391	17524.98
525.592	17475.83
525.794	17764.59
525.995	17899.76
526.197	17998.06
526.398	17969.39
526.6	18204.91
526.801	18342.12
527.003	18225.39
527.204	18376.94
527.406	18645.22
527.607	18764
527.808	18819.3
528.01	18710.75
528.211	18843.87
528.412	19101.92
528.614	19081.44
528.815	18952.41
529.016	19468.5
529.218	19230.94
529.419	19280.09
529.62	19484.89
529.822	19648.72
530.023	19542.23
530.224	19450.07
530.425	19925.2
530.626	19564.76
530.828	19366.1
531.029	19808.47
531.23	19753.17
531.431	19867.86
531.632	20048.08
531.833	19917.01
532.035	20058.32
532.236	19865.81
532.437	20242.64
532.638	20046.03
532.839	20287.69
533.04	20551.88
533.241	20359.37
533.442	20144.33
533.643	20293.83
533.844	20259.02
534.045	20451.53
534.246	20281.55
534.447	20535.49
534.648	20486.34
534.849	20916.42
535.05	20551.88
535.251	20279.5
535.451	20687.04
535.652	20707.52
535.853	20371.66
536.054	20830.4
536.255	20854.98
536.456	20711.62
536.657	20998.34
536.857	20570.31
537.058	20926.66
537.259	21080.25
537.46	21041.34
537.66	20474.06
537.861	20771.01
538.062	20994.24
538.263	20779.2
538.463	20803.78
538.664	20992.19
538.865	20670.66
539.065	21029.06
539.266	20277.45
539.466	21012.67
539.667	20871.36
539.868	21020.86
540.068	20940.99
540.269	21129.41
540.469	21061.82
540.67	20820.16
540.87	20930.75
541.071	21127.36
541.271	21336.25
541.472	21041.34
541.672	21139.65
541.873	20861.12
542.073	20799.68
542.274	21475.51
542.474	21008.58
542.675	20719.81
542.875	21283
543.075	20932.8
543.276	20699.33
543.476	21381.31
543.676	21110.97
543.877	21244.09
544.077	21086.4
544.277	21416.12
544.478	21104.83
544.678	21088.45
544.878	21070.01
545.078	21227.71
545.279	21283
545.479	21043.39
545.679	21297.34
545.879	21233.85
546.079	21315.77
546.28	21117.12
546.48	21158.08
546.68	21764.28
546.88	21596.34
547.08	21276.86
547.28	21240
547.48	21078.21
547.68	21510.33
547.88	21405.88
548.081	21747.89
548.281	21383.35
548.481	21510.33
548.681	21565.62
548.881	21235.9
549.081	21737.65
549.28	21166.27
549.48	21450.94
549.68	21399.74
549.88	21661.88
550.08	21178.56
550.28	21713.08
550.48	21637.3
550.68	21704.88
550.88	21450.94
551.08	21438.65
551.279	21749.94
551.479	21432.5
551.679	21565.62
551.879	21172.41
552.079	21491.9
552.278	21641.4
552.478	21799.09
552.678	21297.34
552.878	21926.07
553.077	21162.17
553.277	21342.39
553.477	21616.82
553.676	21536.95
553.876	21567.67
554.076	21907.63
554.275	21776.56
554.475	21237.95
554.674	21665.97
554.874	21698.74
555.074	21235.9
555.273	21985.46
555.473	21665.97
555.672	21582.01
555.872	21452.98
556.071	21672.12
556.271	21858.48
556.47	21424.31
556.67	21182.65
556.869	21600.44
557.068	21336.25
557.268	21334.2
557.467	21274.81
557.667	21436.6
557.866	21268.67
558.065	20975.81
558.265	21215.42
558.464	21110.97
558.663	21383.35
558.863	21070.01
559.062	21178.56
559.261	20504.78
559.461	21399.74
559.66	21047.49
559.859	20728
560.058	20746.44
560.258	20877.51
560.457	20820.16
560.656	20940.99
560.855	20558.02
561.054	21262.52
561.253	20768.96
561.453	20791.49
561.652	20656.32
561.851	20771.01
562.05	20472.01
562.249	20246.73
562.448	20558.02
562.647	19988.69
562.846	20256.97
563.045	20453.58
563.244	19970.26
563.443	20515.01
563.642	19962.06
563.841	20046.03
564.04	19982.54
564.239	20330.7
564.438	19943.63
564.637	19767.51
564.836	20046.03
565.035	19661.01
565.234	19818.71
565.432	19466.45
565.631	19515.61
565.83	19650.77
566.029	19349.72
566.228	19339.48
566.427	19325.15
566.625	19003.61
566.824	19071.2
567.023	19165.4
567.222	18821.34
567.42	19282.14
567.619	18933.98
567.818	19017.95
568.016	18944.22
568.215	18811.1
568.414	18725.09
568.612	18723.04
568.811	18483.43
569.01	18508.01
569.208	17971.44
569.407	18385.13
569.605	18151.66
569.804	18104.56
570.002	18043.12
570.201	18002.16
570.4	17850.61
570.598	17844.46
570.797	17746.16
570.995	17707.25
571.193	17862.9
571.392	17930.48
571.59	17518.84
571.789	17457.4
571.987	17379.57
572.186	17492.21
572.384	17117.43
572.582	17299.7
572.781	17344.76
572.979	16787.71
573.177	17217.79
573.376	16953.6
573.574	16853.25
573.772	16986.36
573.971	16718.08
574.169	16494.85
574.367	16462.08
574.565	16818.43
574.763	16670.98
574.962	16212.23
575.16	16283.91
575.358	16535.81
575.556	16130.31
575.754	16257.29
575.952	16025.87
576.151	16193.8
576.349	16077.07
576.547	15859.98
576.745	16040.2
576.943	16087.31
577.141	15880.46
577.339	15468.82
577.537	15692.05
577.735	15749.39
577.933	15919.37
578.131	15675.66
578.329	15730.96
578.527	15485.2
578.725	15651.09
578.923	15345.94
579.121	15194.39
579.319	15266.07
579.516	15472.92
579.714	15319.32
579.912	15325.46
580.11	15120.67
580.308	15223.06
580.506	15214.87
580.704	14573.86
580.901	14866.72
581.099	15098.14
581.297	14741.79
581.495	14846.24
581.692	14864.67
581.89	14872.86
582.088	14973.21
582.285	14653.73
582.483	14719.26
582.681	14977.31
582.878	14625.06
583.076	14627.1
583.274	14692.64
583.471	14819.61
583.669	14250.28
583.866	14190.89
584.064	14625.06
584.262	14051.63
584.459	14319.91
584.657	14350.63
584.854	14625.06
585.052	14117.16
585.249	14422.31
585.447	14248.23
585.644	13906.22
585.841	14465.32
586.039	14352.68
586.236	14016.81
586.434	14180.65
586.631	13807.92
586.828	14039.34
587.026	13842.73
587.223	13953.32
587.42	13859.12
587.618	13820.21
587.815	13922.6
588.012	13900.08
588.21	13707.57
588.407	14108.97
588.604	13922.6
588.801	13660.46
588.999	13852.97
589.196	13627.7
589.393	13541.68
589.59	13603.12
589.787	13576.5
589.984	13676.85
590.182	13412.66
590.379	13609.26
590.576	13728.05
590.773	13543.73
590.97	13379.89
591.167	13744.43
591.364	13523.25
591.561	13209.91
591.758	13427
591.955	13470
592.152	13586.74
592.349	13371.7
592.546	13214.01
592.743	13357.36
592.94	13166.9
593.137	13365.56
593.334	13340.98
593.531	13189.43
593.727	13332.79
593.924	13271.35
594.121	13115.7
594.318	13242.68
594.515	13234.49
594.712	13484.34
594.908	13146.42
595.105	12755.26
595.302	13287.73
595.499	12980.54
595.696	13191.48
595.892	13023.55
596.089	13445.43
596.286	13023.55
596.482	12888.38
596.679	12996.92
596.876	12939.58
597.072	13001.02
597.269	12781.88
597.466	13025.59
597.662	12990.78
597.859	12624.19
598.055	12886.33
598.252	13066.55
598.448	13168.95
598.645	12833.08
598.841	12863.8
599.038	13009.21
599.234	13209.91
599.431	13013.31
599.627	12853.56
599.824	13066.55
600.02	12845.37
600.217	12716.35
600.413	12554.56
600.609	12857.66
600.806	13199.67
601.002	12847.42
601.198	12724.54
601.395	12904.76
601.591	12751.17
601.787	12765.5
601.984	12472.64
602.18	13015.35
602.376	12874.04
602.572	12572.99
602.769	12626.24
602.965	12970.3
603.161	12843.32
603.357	12556.61
603.553	12753.21
603.75	12759.36
603.946	12769.6
604.142	12669.25
604.338	12511.55
604.534	12720.45
604.73	12622.14
604.926	12323.14
605.122	12540.22
605.318	12450.11
605.514	12742.97
605.71	12595.52
605.906	12407.11
606.102	12609.86
606.298	12683.58
606.494	12587.33
606.69	12636.48
606.886	12642.62
607.082	12372.29
607.278	12419.39
607.474	12280.13
607.67	12618.05
607.866	12376.39
608.062	12654.91
608.257	12206.41
608.453	12249.41
608.649	12659.01
608.845	12312.9
609.041	12448.07
609.236	12847.42
609.432	12671.29
609.628	12360
609.824	12425.54
610.019	12724.54
610.215	12341.57
610.411	12372.29
610.606	12570.94
610.802	12310.85
610.998	12501.31
611.193	12370.24
611.389	12167.49
611.584	12671.29
611.78	12439.87
611.976	12257.6
612.171	12271.94
612.367	12521.79
612.562	12413.25
612.758	12194.12
612.953	12144.97
613.149	12325.19
613.344	12284.23
613.539	12325.19
613.735	12273.99
613.93	12421.44
614.126	12265.8
614.321	12276.04
614.517	12286.28
614.712	12593.47
614.907	12360
615.103	12386.63
615.298	12085.58
615.493	12273.99
615.688	12083.53
615.884	12407.11
616.079	12108.1
616.274	12392.77
616.47	12259.65
616.665	12292.42
616.86	12210.5
617.055	12353.86
617.25	12171.59
617.445	12327.24
617.641	12136.77
617.836	12552.51
618.031	11968.84
618.226	12386.63
618.421	12147.01
618.616	12454.21
618.811	12269.89
619.006	12423.49
619.201	11843.92
619.396	12280.13
619.591	11966.79
619.786	12099.91
619.981	12032.33
620.176	12140.87
620.371	12009.8
620.566	11919.69
620.761	11903.31
620.956	12061
621.151	11659.6
621.346	11915.59
621.541	11530.58
621.735	11985.23
621.93	11673.93
622.125	11698.51
622.32	11323.73
622.515	11733.32
622.709	11882.83
622.904	12032.33
623.099	11567.44
623.294	11614.54
623.488	11725.13
623.683	11530.58
623.878	11356.5
624.072	11639.12
624.267	11397.46
624.462	11278.68
624.656	11211.09
624.851	11589.97
625.046	11440.47
625.24	11266.39
625.435	10994.01
625.629	11342.16
625.824	11411.79
626.018	11143.51
626.213	11045.21
626.407	11254.1
626.602	11127.13
626.796	11086.17
626.991	11194.71
627.185	10965.34
627.38	10955.1
627.574	10961.24
627.768	10858.84
627.963	10953.05
628.157	10867.03
628.352	10793.31
628.546	10711.39
628.74	10914.14
628.935	10699.1
629.129	10744.16
629.323	10680.67
629.517	10553.69
629.712	10795.36
629.906	10465.63
630.1	10443.1
630.294	10807.64
630.489	10473.82
630.683	10758.49
630.877	10383.71
631.071	10789.21
631.265	10305.89
631.459	10398.05
631.653	10234.21
631.848	10436.96
632.042	10348.9
632.236	10375.52
632.43	10074.47
632.624	10271.08
632.818	10287.46
633.012	10172.77
633.206	10099.05
633.4	10533.22
633.594	10109.29
633.788	10129.77
633.982	10047.85
634.176	10262.88
634.369	9980.26
634.563	9998.7
634.757	9582.96
634.951	9924.97
635.145	10002.79
635.339	9695.6
635.533	9634.16
635.726	9734.51
635.92	9472.37
636.114	9480.56
636.308	9398.64
636.501	9517.42
636.695	9482.61
636.889	9025.91
637.083	9251.19
637.276	9185.65
637.47	9128.31
637.664	8999.29
637.857	8995.19
638.051	9048.44
638.244	8991.09
638.438	8827.26
638.632	8812.92
638.825	8563.07
639.019	9046.39
639.212	8477.05
639.406	8446.34
639.599	8636.8
639.793	8495.49
639.986	8163.72
640.18	8638.84
640.373	8417.66
640.567	8028.55
640.76	8104.32
640.954	7907.72
641.147	7813.51
641.34	7854.47
641.534	7987.59
641.727	7850.38
641.92	8008.07
642.114	7782.79
642.307	7762.31
642.5	7543.18
642.694	7403.92
642.887	7367.06
643.08	7598.48
643.273	7401.87
643.467	7295.38
643.66	7213.46
643.853	6799.77
644.046	7076.24
644.239	7092.63
644.432	6932.89
644.626	6715.8
644.819	6572.44
645.012	6826.39
645.205	6863.26
645.398	6832.54
645.591	6609.31
645.784	6498.72
645.977	6394.27
646.17	6541.72
646.363	6345.12
646.556	6248.86
646.749	6285.73
646.942	6269.34
647.135	6400.41
647.328	6203.81
647.521	6277.54
647.714	6015.4
647.907	6058.4
648.099	5927.33
648.292	6085.03
648.485	6058.4
648.678	5714.34
648.871	5867.94
649.064	5908.9
649.256	5732.78
649.449	5521.84
649.642	5646.76
649.835	5720.49
650.027	5573.03
650.22	5700.01
650.413	5552.56
650.605	5665.19
650.798	5599.66
650.991	5460.4
651.183	5542.32
651.376	5497.26
651.568	5487.02
651.761	5355.95
651.954	5525.93
652.146	5423.53
652.339	5392.81
652.531	5314.99
652.724	5370.29
652.916	5171.63
653.109	5058.99
653.301	5343.66
653.494	5358
653.686	5196.21
653.879	5382.57
654.071	5347.76
654.263	5095.86
654.456	5204.4
654.648	5081.52
654.84	5044.66
655.033	5030.32
655.225	5145.01
655.417	4798.9
655.61	5009.84
655.802	5153.2
655.994	5241.26
656.186	4907.45
656.379	5075.38
656.571	4993.46
656.763	4925.88
656.955	4741.56
657.148	4786.61
657.34	5142.96
657.532	4938.16
657.724	4821.43
657.916	4755.9
658.108	4999.6
658.3	4874.68
658.492	4852.15
658.684	4551.1
658.876	4835.77
659.068	4628.92
659.26	4454.84
659.452	4524.47
659.644	4805.05
659.836	4850.1
660.028	4604.35
660.22	4213.18
660.412	4598.2
660.604	4424.12
660.796	4428.22
660.988	4395.45
661.18	4510.14
661.372	4409.79
661.563	4385.21
661.755	4248
661.947	4166.08
662.139	4319.68
662.331	4348.35
662.522	4139.46
662.714	4278.72
662.906	4041.15
663.097	4022.72
663.289	3953.09
663.481	3901.89
663.673	4186.56
663.864	3942.85
664.056	3955.14
664.247	3881.41
664.439	4184.51
664.631	4010.43
664.822	4104.64
665.014	4035.01
665.205	4024.77
665.397	3832.26
665.588	3883.46
665.78	4006.34
665.971	4116.93
666.163	3799.49
666.354	3559.88
666.546	3897.8
666.737	3770.82
666.929	3819.97
667.12	3746.25
667.311	3946.95
667.503	3629.51
667.694	3654.09
667.885	3658.18
668.077	3729.86
668.268	3670.47
668.459	3531.21
668.651	3568.07
668.842	3740.1
669.033	3541.45
669.224	3508.68
669.416	3662.28
669.607	3699.14
669.798	3467.72
669.989	3520.97
670.18	3447.24
670.371	3754.44
670.563	3385.8
670.754	3715.53
670.945	3523.02
671.136	3578.31
671.327	3537.35
671.518	3500.49
671.709	3480.01
671.9	3686.86
672.091	3797.45
672.282	3555.79
672.473	3146.19
672.664	3518.92
672.855	3398.09
673.046	3322.32
673.237	3488.2
673.428	3588.55
673.619	3666.38
673.809	3336.65
674	3486.15
674.191	3686.86
674.382	3504.59
674.573	3379.66
674.764	3400.14
674.954	3713.48
675.145	3303.89
675.336	3498.44
675.527	3512.78
675.717	3447.24
675.908	3508.68
676.099	3467.72
676.289	3373.52
676.48	3232.21
676.671	3652.04
676.861	3396.04
677.052	3379.66
677.243	3559.88
677.433	3498.44
677.624	3508.68
677.814	3365.32
678.005	3541.45
678.195	3703.24
678.386	3361.23
678.576	3447.24
678.767	3500.49
678.957	3629.51
679.148	3512.78
679.338	3660.23
679.529	3649.99
679.719	3449.29
679.909	3711.43
680.1	3543.5
680.29	3772.87
680.481	3471.82
680.671	3625.42
680.861	3527.11
681.052	3762.63
681.242	3523.02
681.432	3817.93
681.622	3621.32
681.813	3619.27
682.003	3783.11
682.193	3572.17
682.383	3627.46
682.573	3649.99
682.764	3852.74
682.954	3865.03
683.144	3862.98
683.334	3809.73
683.524	3754.44
683.714	3697.1
683.904	3766.73
684.094	3912.13
684.284	3762.63
684.474	3946.95
684.664	3926.47
684.854	3928.52
685.044	3967.43
685.234	3873.22
685.424	3768.77
685.614	3951.04
685.804	4098.5
685.994	4004.29
686.184	3910.08
686.374	4106.69
686.564	4004.29
686.753	3983.81
686.943	3867.08
687.133	4004.29
687.323	4043.2
687.513	3840.45
687.702	4041.15
687.892	4198.85
688.082	4348.35
688.272	4149.7
688.461	4245.95
688.651	4409.79
688.841	4458.94
689.03	4202.94
689.22	4041.15
689.41	4438.46
689.599	4334.01
689.789	4315.58
689.979	4426.17
690.168	4352.45
690.358	4512.19
690.547	4430.27
690.737	4360.64
690.926	4475.32
691.116	4651.45
691.305	4469.18
691.495	4448.7
691.684	4573.63
691.874	4673.98
692.063	4649.4
692.252	4561.34
692.442	5038.52
692.631	4766.14
692.82	4647.35
693.01	4835.77
693.199	4889.01
693.388	4956.6
693.578	4876.73
693.767	4993.46
693.956	5165.49
694.146	5241.26
694.335	5099.95
694.524	4995.51
694.713	5454.25
694.902	5124.53
695.092	5255.6
695.281	5097.91
695.47	5446.06
695.659	5521.84
695.848	5347.76
696.037	5585.32
696.226	5738.92
696.415	5689.77
696.604	5898.66
696.793	5665.19
696.982	5794.22
697.171	6001.06
697.36	5530.03
697.549	5657
697.738	5769.64
697.927	5755.3
698.116	5972.39
698.305	6054.31
698.494	6205.86
698.683	6220.19
698.872	6171.04
699.061	5906.85
699.25	6295.97
699.438	6173.09
699.627	6140.32
699.816	6418.85
700.005	6193.57
700.193	6308.26
700.382	6240.67
700.571	6398.37
700.76	6625.69
700.948	6719.9
701.137	6355.36
701.326	6584.73
701.514	6527.39
701.703	6672.79
701.892	6590.88
702.08	6738.33
702.269	6738.33
702.457	6732.19
702.646	6752.66
702.834	6656.41
703.023	7137.68
703.212	6850.97
703.4	6844.82
703.589	6814.1
703.777	7010.71
703.965	6873.5
704.154	6701.47
704.342	6764.95
704.531	7125.4
704.719	7004.57
704.907	6902.17
705.096	6781.34
705.284	6920.6
705.472	7156.11
705.661	6965.65
705.849	7129.49
706.037	7295.38
706.226	7182.74
706.414	7092.63
706.602	6799.77
706.79	7287.18
706.979	6963.61
707.167	6971.8
707.355	7080.34
707.543	7285.14
707.731	7424.4
707.919	7221.65
708.107	6984.09
708.296	7094.68
708.484	7047.57
708.672	7229.84
708.86	7043.48
709.048	7223.7
709.236	7010.71
709.424	7143.83
709.612	7213.46
709.8	6977.94
709.988	7111.06
710.176	7154.07
710.364	7131.54
710.551	7186.83
710.739	7066
710.927	6834.58
711.115	7025.04
711.303	7295.38
711.491	7395.73
711.679	7014.8
711.866	7100.82
712.054	7164.31
712.242	7051.67
712.43	7068.05
712.617	7043.48
712.805	7129.49
712.993	6953.37
713.181	6775.19
713.368	6820.25
713.556	7205.27
713.744	6961.56
713.931	6994.33
714.119	6908.31
714.306	7023
714.494	6930.84
714.682	6746.52
714.869	6742.43
715.057	7106.96
715.244	6826.39
715.432	7057.81
715.619	6869.4
715.807	6850.97
715.994	6959.51
716.182	6826.39
716.369	6844.82
716.556	6994.33
716.744	6597.02
716.931	6678.94
717.119	6621.59
717.306	7027.09
717.493	6828.44
717.681	6517.15
717.868	6609.31
718.055	6738.33
718.242	6785.43
718.43	6666.65
718.617	6668.7
718.804	6959.51
718.991	6758.81
719.179	6525.34
719.366	6539.68
719.553	6873.5
719.74	6629.79
719.927	6445.47
720.114	6654.36
720.301	6416.8
720.488	6517.15
720.676	6345.12
720.863	6345.12
721.05	6777.24
721.237	6703.51
721.424	6492.57
721.611	6324.64
721.798	6334.88
721.985	6351.26
722.172	6396.32
722.358	6302.11
722.545	6470.05
722.732	6480.29
722.919	6422.94
723.106	6203.81
723.293	6375.84
723.48	6343.07
723.667	6185.38
723.853	6185.38
724.04	6660.51
724.227	6414.75
724.414	6101.41
724.6	6031.78
724.787	6390.17
724.974	6527.39
725.161	6181.28
725.347	5857.7
725.534	6445.47
725.72	6156.71
725.907	6050.21
726.094	6130.08
726.28	5988.77
726.467	5966.24
726.653	5956.01
726.84	5958.05
727.027	6308.26
727.213	5835.17
727.4	6209.95
727.586	5888.42
727.773	6109.6
727.959	5867.94
728.145	5953.96
728.332	5913
728.518	5777.83
728.705	5976.48
728.891	5521.84
729.077	5607.85
729.264	5736.87
729.45	5771.69
729.636	6037.92
729.823	5681.58
730.009	5990.82
730.195	5896.61
730.382	5751.21
730.568	5589.42
730.754	5894.57
730.94	5611.95
731.126	5509.55
731.313	5564.84
731.499	5747.11
731.685	5800.36
731.871	5556.65
732.057	5515.69
732.243	5767.59
732.429	5657
732.615	5659.05
732.801	5411.25
732.987	5646.76
733.173	5593.51
733.359	5351.85
733.545	5532.08
733.731	5460.4
733.917	5691.82
734.103	5460.4
734.289	5499.31
734.475	5388.72
734.661	5583.27
734.847	5286.32
735.033	5196.21
735.219	5466.54
735.404	5384.62
735.59	4999.6
735.776	5228.98
735.962	5433.77
736.148	5323.18
736.333	5435.82
736.519	5155.25
736.705	5484.97
736.89	5269.94
737.076	5018.04
737.262	5018.04
737.447	5231.02
737.633	5267.89
737.819	4985.27
738.004	5075.38
738.19	5222.83
738.375	5247.41
738.561	4897.21
738.747	4991.41
738.932	4925.88
739.118	5233.07
739.303	5042.61
739.489	4913.59
739.674	4927.92
739.859	4981.17
740.045	4858.29
740.23	4798.9
740.416	4641.21
740.601	4809.14
740.786	4651.45
740.972	4712.89
741.157	4805.05
741.342	4544.95
741.528	4598.2
741.713	4698.55
741.898	4796.85
742.084	4723.13
742.269	4577.72
742.454	4682.17
742.639	4835.77
742.824	4630.97
743.01	4624.83
743.195	4637.11
743.38	4669.88
743.565	4590.01
743.75	4381.12
743.935	4393.4
744.12	4721.08
744.305	4241.86
744.49	4180.42
744.675	4278.72
744.86	4379.07
745.045	4327.87
745.23	4157.89
745.415	4256.19
745.6	4544.95
745.785	4188.61
745.97	4200.9
746.155	4155.84
746.34	4315.58
746.525	4223.42
746.71	4008.39
746.895	3905.99
747.079	4045.25
747.264	4125.12
747.449	4024.77
747.634	3938.76
747.819	4053.44
748.003	3920.32
748.188	3801.54
748.373	3946.95
748.557	4041.15
748.742	3928.52
748.927	3719.62
749.111	3731.91
749.296	3914.18
749.481	3754.44
749.665	3766.73
749.85	3770.82
750.034	3879.36
750.219	3701.19
750.404	3439.05
750.588	3666.38
750.773	3441.1
750.957	3611.08
751.141	3459.53
751.326	3654.09
751.51	3422.67
751.695	3482.06
751.879	3467.72
752.064	3623.37
752.248	3469.77
752.432	3625.42
752.617	3234.25
752.801	3334.61
752.985	3307.98
753.17	3496.39
753.354	3129.81
753.538	3271.12
753.722	3213.77
753.907	3221.97
754.091	3092.94
754.275	3109.33
754.459	3045.84
754.643	3068.37
754.828	3058.13
755.012	2931.16
755.196	2978.26
755.38	3109.33
755.564	2879.96
755.748	2929.11
755.932	3088.85
756.116	3006.93
756.3	2922.96
756.484	2918.87
756.668	2980.31
756.852	2773.46
757.036	2845.14
757.22	2974.16
757.404	2638.3
757.588	2789.85
757.772	2687.45
757.956	2724.31
758.14	2972.11
758.323	2775.51
758.507	2759.13
758.691	2650.58
758.875	2798.04
759.059	2888.15
759.242	2486.75
759.426	2615.77
759.61	2617.82
759.794	2564.57
759.977	2499.03
760.161	2900.44
760.345	2605.53
760.528	2691.54
760.712	2251.23
760.895	2269.66
761.079	2240.99
761.263	2251.23
761.446	2206.17
761.63	2142.69
761.813	2394.59
761.997	2200.03
762.18	2224.61
762.364	2318.81
762.547	2128.35
762.731	2251.23
762.914	2265.57
763.098	2058.72
763.281	2128.35
763.464	2152.93
763.648	2116.06
763.831	2107.87
764.015	1984.99
764.198	2363.87
764.381	2093.54
764.564	2152.93
764.748	2136.54
764.931	2331.1
765.114	2011.62
765.297	2122.21
765.481	1980.9
765.664	2099.68
765.847	2077.15
766.03	2185.69
766.213	2064.86
766.397	2062.82
766.58	2066.91
766.763	2099.68
766.946	2136.54
767.129	2054.62
767.312	2028
767.495	2064.86
767.678	2066.91
767.861	2232.8
768.044	2032.1
768.227	2175.45
768.41	2157.02
768.593	2238.94
768.776	2134.5
768.959	2079.2
769.142	2273.76
769.324	2009.57
769.507	2038.24
769.69	2003.43
769.873	2048.48
770.056	2308.57
770.239	1894.88
770.421	2136.54
770.604	2150.88
770.787	2081.25
770.97	2050.53
771.152	1812.96
771.335	2083.3
771.518	1841.64
771.7	1874.4
771.883	2185.69
772.066	1966.56
772.248	2073.06
772.431	1855.97
772.613	1948.13
772.796	1984.99
772.978	2085.34
773.161	2001.38
773.343	1837.54
773.526	1931.75
773.708	1747.43
773.891	1698.28
774.073	1847.78
774.256	1778.15
774.438	2087.39
774.621	1769.96
774.803	1788.39
774.985	1704.42
775.168	1919.46
775.35	1595.88
775.532	1755.62
775.715	1612.26
775.897	1933.79
776.079	1765.86
776.261	1751.53
776.444	1821.16
776.626	1724.9
776.808	1726.95
776.99	1571.3
777.173	1731.05
777.355	1716.71
777.537	1561.06
777.719	1853.92
777.901	1634.79
778.083	1659.37
778.265	1477.1
778.447	1577.45
778.629	1559.02
778.811	1540.58
778.993	1538.54
779.175	1470.95
779.357	1624.55
779.539	1542.63
779.721	1511.91
779.903	1624.55
780.085	1516.01
780.267	1649.13
780.449	1380.84
780.631	1575.4
780.812	1602.02
780.994	1499.63
781.176	1331.69
781.358	1356.27
781.54	1466.86
781.721	1452.52
781.903	1313.26
782.085	1331.69
782.267	1612.26
782.448	1249.77
782.63	1309.16
782.812	1217.01
782.993	1554.92
783.175	1419.75
783.357	1280.49
783.538	1319.4
783.72	1264.11
783.901	1280.49
784.083	1233.39
784.264	1268.2
784.446	1108.46
784.627	1100.27
784.809	1221.1
784.99	1034.74
785.172	1276.4
785.353	1192.43
785.535	1223.15
785.716	950.77
785.897	1087.98
786.079	1266.16
786.26	1171.95
786.441	1155.57
786.623	1008.11
786.804	1147.37
786.985	1122.8
787.167	1087.98
787.348	1153.52
787.529	1145.33
787.71	989.68
787.891	987.63
788.073	1028.59
788.254	866.8
788.435	1143.28
788.616	965.11
788.797	965.11
788.978	1110.51
789.159	870.9
789.34	1026.54
789.522	1098.22
789.703	911.86
789.884	989.68
790.065	1001.97
790.246	1235.44
790.427	1010.16
790.607	954.87
790.788	985.58
790.969	932.34
791.15	1044.98
791.331	905.71
791.512	958.96
791.693	821.75
791.874	920.05
792.054	1161.71
792.235	872.95
792.416	772.6
792.597	821.75
792.778	846.32
792.958	846.32
793.139	1061.36
793.32	836.08
793.5	696.82
793.681	977.39
793.862	940.53
794.042	891.38
794.223	698.87
794.404	758.26
794.584	768.5
794.765	823.8
794.945	805.36
795.126	854.51
795.306	909.81
795.487	809.46
795.667	713.21
795.848	754.16
796.028	860.66
796.209	797.17
796.389	866.8
796.57	690.68
796.75	692.73
796.93	922.1
797.111	625.14
797.291	676.34
797.471	834.04
797.652	811.51
797.832	676.34
798.012	729.59
798.192	737.78
798.373	743.92
798.553	748.02
798.733	893.43
798.913	672.25
799.093	657.91
799.274	600.57
799.454	686.58
799.634	889.33
799.814	887.28
799.994	686.58
800.174	756.21
800.354	786.93
800.534	487.93
800.714	690.68
800.894	522.74
801.074	606.71
801.254	516.6
801.434	848.37
801.614	543.22
801.794	690.68
801.974	4495.8
802.154	559.61
802.334	559.61
802.514	555.51
802.693	575.99
802.873	473.59
803.053	717.3
803.233	725.49
803.413	698.87
803.592	477.69
803.772	504.31
803.952	664.05
804.131	430.59
804.311	700.92
804.491	612.85
804.67	524.79
804.85	438.78
805.03	676.34
805.209	850.42
805.389	614.9
805.568	471.54
805.748	567.8
805.928	500.22
806.107	748.02
806.287	702.97
806.466	563.7
806.646	510.46
806.825	707.06
807.004	592.37
807.184	571.9
807.363	590.33
807.543	657.91
807.722	403.96
807.901	608.76
808.081	508.41
808.26	248.32
808.439	608.76
808.619	430.59
808.798	557.56
808.977	662.01
809.156	729.59
809.336	541.18
809.515	489.98
809.694	526.84
809.873	473.59
810.052	485.88
810.231	637.43
810.411	598.52
810.59	666.1
810.769	457.21
810.948	559.61
811.127	313.85
811.306	387.58
811.485	371.19
811.664	489.98
811.843	492.02
812.022	600.57
812.201	379.39
812.38	291.32
812.559	494.07
812.737	608.76
812.916	348.67
813.095	338.43
813.274	561.66
813.453	494.07
813.632	436.73
813.811	543.22
813.989	348.67
814.168	586.23
814.347	295.42
814.526	436.73
814.704	657.91
814.883	614.9
815.062	240.12
815.24	389.63
815.419	309.76
815.598	567.8
815.776	258.56
815.955	356.86
816.133	199.16
816.312	428.54
816.49	313.85
816.669	403.96
816.847	373.24
817.026	514.55
817.204	356.86
817.383	391.67
817.561	283.13
817.74	549.37
817.918	401.91
818.097	272.89
818.275	322.04
818.453	367.1
818.632	397.82
818.81	430.59
818.988	313.85
819.167	307.71
819.345	363
819.523	225.79
819.701	446.97
819.879	444.92
820.058	354.81
820.236	338.43
820.414	557.56
820.592	373.24
820.77	317.95
820.948	258.56
821.127	363
821.305	453.11
821.483	152.06
821.661	410.11
821.839	432.63
822.017	313.85
822.195	315.9
822.373	274.94
822.551	422.39
822.729	391.67
822.907	289.28
823.085	350.71
823.262	410.11
823.44	274.94
823.618	254.46
823.796	283.13
823.974	297.47
824.152	301.56
824.329	301.56
824.507	324.09
824.685	422.39
824.863	426.49
825.04	233.98
825.218	236.03
825.396	371.19
825.574	438.78
825.751	203.26
825.929	242.17
826.107	190.97
826.284	442.87
826.462	276.99
826.639	213.5
826.817	195.07
826.994	256.51
827.172	109.05
827.349	365.05
827.527	324.09
827.704	346.62
827.882	406.01
828.059	219.64
828.237	262.65
828.414	457.21
828.591	92.67
828.769	254.46
828.946	213.5
829.124	500.22
829.301	373.24
829.478	322.04
829.655	403.96
829.833	291.32
830.01	78.33
830.187	383.48
830.364	240.12
830.542	408.06
830.719	276.99
830.896	285.18
831.073	401.91
831.25	440.83
831.427	195.07
831.604	221.69
831.782	301.56
831.959	354.81
832.136	246.27
832.313	340.47
832.49	334.33
832.667	324.09
832.844	164.35
833.021	475.64
833.198	369.15
833.374	258.56
833.551	215.55
833.728	244.22
833.905	430.59
834.082	84.48
834.259	322.04
834.436	373.24
834.612	207.36
834.789	492.02
834.966	279.04
835.143	283.13
835.319	182.78
835.496	330.23
835.673	248.32
835.85	309.76
836.026	365.05
836.203	547.32
836.38	188.93
836.556	176.64
836.733	266.75
836.909	545.27
837.086	172.54
837.262	92.67
837.439	256.51
837.616	268.8
837.792	258.56
837.968	238.08
838.145	29.18
838.321	301.56
838.498	188.93
838.674	313.85
838.851	276.99
839.027	346.62
839.203	160.25
839.38	301.56
839.556	219.64
839.732	391.67
839.909	246.27
840.085	164.35
840.261	201.21
840.437	301.56
840.614	160.25
840.79	311.8
840.966	340.47
841.142	307.71
841.318	125.44
841.494	240.12
841.671	412.15
841.847	125.44
842.023	84.48
842.199	211.45
842.375	555.51
842.551	70.14
842.727	115.2
842.903	322.04
843.079	115.2
843.255	510.46
843.431	141.82
843.607	334.33
843.783	4.61
843.959	373.24
844.134	174.59
844.31	336.38
844.486	129.53
844.662	135.68
844.838	209.4
845.013	131.58
845.189	467.45
845.365	264.7
845.541	133.63
845.716	209.4
845.892	436.73
846.068	215.55
846.244	145.92
846.419	94.72
846.595	240.12
846.77	96.77
846.946	260.6
847.122	111.1
847.297	276.99
847.473	526.84
847.648	102.91
847.824	184.83
847.999	37.38
848.175	311.8
848.35	317.95
848.526	385.53
848.701	444.92
848.876	358.91
849.052	383.48
849.227	188.93
849.403	213.5
849.578	201.21
849.753	219.64
849.929	215.55
850.104	135.68
850.279	297.47
850.454	227.84
850.63	236.03
850.805	283.13
850.98	264.7
851.155	211.45
851.33	274.94
851.505	152.06
851.681	410.11
851.856	156.16
852.031	209.4
852.206	287.23
852.381	109.05
852.556	55.81
852.731	176.64
852.906	324.09
853.081	201.21
853.256	281.08
853.431	104.96
853.606	131.58
853.781	84.48
853.956	-3.58
854.131	248.32
854.305	154.11
854.48	176.64
854.655	143.87
854.83	102.91
855.005	291.32
855.18	266.75
855.354	100.86
855.529	152.06
855.704	217.6
855.879	289.28
856.053	92.67
856.228	174.59
856.403	143.87
856.577	330.23
856.752	53.76
856.926	78.33
857.101	291.32
857.276	109.05
857.45	201.21
857.625	295.42
857.799	227.84
857.974	221.69
858.148	16.9
858.323	184.83
858.497	246.27
858.672	76.29
858.846	152.06
859.02	225.79
859.195	57.86
859.369	283.13
859.543	244.22
859.718	207.36
859.892	346.62
860.066	283.13
860.241	82.43
860.415	102.91
860.589	193.02
860.763	213.5
860.938	137.73
861.112	141.82
861.286	72.19
861.46	330.23
861.634	158.21
861.808	178.69
861.982	176.64
862.157	74.24
862.331	98.81
862.505	-13.82
862.679	27.14
862.853	90.62
863.027	119.29
863.201	180.73
863.375	184.83
863.549	250.36
863.722	170.49
863.896	190.97
864.07	150.01
864.244	150.01
864.418	203.26
864.592	176.64
864.766	326.14
864.939	252.41
865.113	61.95
865.287	322.04
865.461	102.91
865.634	207.36
865.808	119.29
865.982	25.09
866.156	61.95
866.329	-11.78
866.503	203.26
866.676	207.36
866.85	250.36
867.024	133.63
867.197	211.45
867.371	117.25
867.544	231.93
867.718	6.66
867.891	184.83
868.065	41.47
868.238	231.93
868.412	207.36
868.585	107.01
868.759	96.77
868.932	117.25
869.105	43.52
869.279	289.28
869.452	53.76
869.625	289.28
869.799	236.03
869.972	8.7
870.145	170.49
870.319	369.15
870.492	86.53
870.665	47.62
870.838	12.8
871.011	-30.21
871.185	184.83
871.358	158.21
871.531	268.8
871.704	64
871.877	164.35
872.05	51.71
872.223	18.94
872.396	332.28
872.569	258.56
872.742	12.8
872.915	201.21
873.088	211.45
873.261	35.33
873.434	215.55
873.607	141.82
873.78	346.62
873.953	45.57
874.126	131.58
874.299	240.12
874.471	172.54
874.644	217.6
874.817	195.07
874.99	266.75
875.163	133.63
875.335	201.21
875.508	100.86
875.681	317.95
875.853	160.25
876.026	172.54
876.199	250.36
876.371	119.29
876.544	186.88
876.717	152.06
876.889	76.29
877.062	258.56
877.234	68.09
877.407	86.53
877.579	123.39
877.752	143.87
877.924	303.61
878.097	209.4
878.269	111.1
878.442	223.74
878.614	264.7
878.786	231.93
878.959	100.86
879.131	178.69
879.303	-58.88
879.476	223.74
879.648	281.08
879.82	76.29
879.993	193.02
880.165	135.68
880.337	6.66
880.509	125.44
880.681	-17.92
880.854	160.25
881.026	184.83
881.198	233.98
881.37	213.5
881.542	162.3
881.714	47.62
881.886	20.99
882.058	221.69
882.23	145.92
882.402	145.92
882.574	117.25
882.746	291.32
882.918	381.43
883.09	170.49
883.262	117.25
883.434	221.69
883.606	6.66
883.778	109.05
883.95	246.27
884.122	72.19
884.293	281.08
884.465	113.15
884.637	223.74
884.809	100.86
884.98	217.6
885.152	264.7
885.324	246.27
885.496	72.19
885.667	207.36
885.839	125.44
886.011	137.73
886.182	209.4
886.354	274.94
886.525	195.07
886.697	51.71
886.869	133.63
887.04	197.12
887.212	375.29
887.383	219.64
887.555	197.12
887.726	80.38
887.897	68.09
888.069	76.29
888.24	344.57
888.412	92.67
888.583	129.53
888.754	113.15
888.926	-83.45
889.097	119.29
889.268	6.66
889.44	92.67
889.611	25.09
889.782	12.8
889.953	4.61
890.125	219.64
890.296	0.51
890.467	102.91
890.638	90.62
890.809	113.15
890.98	84.48
891.151	236.03
891.323	229.88
891.494	76.29
891.665	201.21
891.836	164.35
892.007	184.83
892.178	184.83
892.349	250.36
892.52	-26.11
892.691	119.29
892.862	64
893.032	-46.59
893.203	174.59
893.374	207.36
893.545	115.2
893.716	98.81
893.887	270.84
894.057	33.28
894.228	150.01
894.399	102.91
894.57	389.63
894.74	78.33
894.911	188.93
895.082	215.55
895.253	88.57
895.423	84.48
895.594	264.7
895.764	225.79
895.935	41.47
896.106	133.63
896.276	12.8
896.447	190.97
896.617	45.57
896.788	-79.36
896.958	72.19
897.129	92.67
897.299	23.04
897.47	317.95
897.64	147.97
897.81	109.05
897.981	199.16
898.151	16.9
898.322	72.19
898.492	225.79
898.662	-42.5
898.832	45.57
899.003	4.61
899.173	240.12
899.343	102.91
899.513	31.23
