Data from USB4F104151__18__11-58-01-240.txt Node

Date: Wed Feb 19 11:58:01 EST 2025
User: louis
Spectrometer: USB4F10415
Trigger mode: 4
Integration Time (sec): 2.250200E-1
Scans to average: 1
Electric dark correction enabled: true
Nonlinearity correction enabled: false
Boxcar width: 0
XAxis mode: Wavelengths
Number of Pixels in Spectrum: 3648
>>>>>Begin Spectral Data<<<<<
178.204	-829.43
178.424	-829.43
178.644	-829.43
178.864	-864.24
179.084	-813.04
179.304	129.02
179.524	145.41
179.744	55.3
179.964	-217.08
180.184	192.51
180.404	98.3
180.624	-229.37
180.844	-83.97
181.064	-12.29
181.283	141.31
181.503	-79.87
181.723	-139.26
181.943	-106.49
182.163	428.03
182.383	-219.13
182.602	-233.47
182.822	436.22
183.042	231.42
183.262	-229.37
183.482	-161.79
183.701	208.89
183.921	151.55
184.141	-180.22
184.361	-169.98
184.58	215.04
184.8	247.8
185.02	-219.13
185.239	-14.34
185.459	266.24
185.679	360.44
185.898	-229.37
186.118	-237.56
186.338	180.22
186.557	335.87
186.777	-321.53
186.997	-227.32
187.216	159.74
187.436	411.64
187.655	-165.89
187.875	-51.2
188.095	258.04
188.314	401.4
188.534	-176.13
188.753	-237.56
188.973	399.35
189.192	532.47
189.412	-233.47
189.631	-133.12
189.851	301.05
190.07	440.31
190.29	-235.52
190.509	-278.52
190.729	190.46
190.948	325.63
191.168	-45.06
191.387	-133.12
191.607	225.28
191.826	344.06
192.045	-157.69
192.265	-182.27
192.484	333.82
192.704	225.28
192.923	-139.26
193.142	-10.24
193.362	344.06
193.581	380.92
193.8	-100.35
194.02	-188.41
194.239	233.47
194.458	260.09
194.678	-129.02
194.897	-251.9
195.116	217.08
195.335	229.37
195.555	-172.03
195.774	-229.37
195.993	307.2
196.212	190.46
196.432	-172.03
196.651	-262.14
196.87	131.07
197.089	606.2
197.308	-122.88
197.528	-153.6
197.747	122.88
197.966	245.76
198.185	-49.15
198.404	-305.15
198.623	323.58
198.842	413.69
199.062	-53.25
199.281	-104.45
199.5	135.17
199.719	323.58
199.938	-178.17
200.157	-131.07
200.376	425.98
200.595	348.15
200.814	-163.84
201.033	-192.51
201.252	419.83
201.471	231.42
201.69	-206.84
201.909	-198.65
202.128	342.01
202.347	294.91
202.566	-102.4
202.785	-225.28
203.004	98.3
203.223	419.83
203.442	-149.5
203.661	-241.66
203.879	202.75
204.098	342.01
204.317	-251.9
204.536	-75.77
204.755	346.11
204.974	288.76
205.193	-360.44
205.411	-163.84
205.63	417.79
205.849	260.09
206.068	-155.65
206.287	-327.67
206.505	362.49
206.724	145.41
206.943	-278.52
207.162	-221.18
207.381	239.61
207.599	124.93
207.818	-88.06
208.037	-327.67
208.255	219.13
208.474	247.8
208.693	-157.69
208.911	-116.73
209.13	294.91
209.349	315.39
209.567	-38.91
209.786	-180.22
210.005	407.55
210.223	153.6
210.442	-288.76
210.661	-237.56
210.879	225.28
211.098	174.08
211.316	-61.44
211.535	-59.39
211.753	335.87
211.972	235.52
212.191	-161.79
212.409	-217.08
212.628	415.74
212.846	202.75
213.065	-247.8
213.283	-28.67
213.502	198.65
213.72	169.98
213.938	-172.03
214.157	-202.75
214.375	196.61
214.594	169.98
214.812	-100.35
215.031	-131.07
215.249	210.94
215.467	284.67
215.686	-26.62
215.904	-174.08
216.122	272.38
216.341	405.5
216.559	-24.58
216.778	-106.49
216.996	452.6
217.214	157.69
217.432	-186.37
217.651	-210.94
217.869	227.32
218.087	215.04
218.306	-200.7
218.524	-190.46
218.742	161.79
218.96	301.05
219.179	-190.46
219.397	-172.03
219.615	518.14
219.833	251.9
220.051	-192.51
220.27	-32.77
220.488	376.83
220.706	186.37
220.924	-256
221.142	-231.42
221.36	321.53
221.578	292.86
221.796	-157.69
222.015	-63.49
222.233	256
222.451	473.08
222.669	-163.84
222.887	-112.64
223.105	126.97
223.323	229.37
223.541	-180.22
223.759	-147.45
223.977	147.45
224.195	430.07
224.413	-131.07
224.631	-157.69
224.849	299
225.067	550.9
225.285	-155.65
225.503	-231.42
225.721	-26.62
225.939	137.21
226.157	-178.17
226.375	-18.43
226.592	178.17
226.81	194.56
227.028	24.58
227.246	-155.65
227.464	339.96
227.682	307.2
227.9	-61.44
228.117	-92.16
228.335	219.13
228.553	184.32
228.771	-256
228.989	-157.69
229.206	200.7
229.424	112.64
229.642	-153.6
229.86	-155.65
230.077	368.63
230.295	194.56
230.513	-69.63
230.731	-159.74
230.948	382.97
231.166	475.13
231.384	-167.93
231.601	-184.32
231.819	428.03
232.037	32.77
232.254	-116.73
232.472	-180.22
232.689	135.17
232.907	350.2
233.125	-233.47
233.342	-239.61
233.56	100.35
233.777	116.73
233.995	-190.46
234.213	-40.96
234.43	366.59
234.648	169.98
234.865	-184.32
235.083	-86.01
235.3	260.09
235.518	303.1
235.735	-108.54
235.953	-135.17
236.17	172.03
236.388	196.61
236.605	57.34
236.822	-92.16
237.04	342.01
237.257	256
237.475	-151.55
237.692	-153.6
237.909	305.15
238.127	-4.1
238.344	-67.58
238.562	-133.12
238.779	145.41
238.996	49.15
239.214	-28.67
239.431	-165.89
239.648	174.08
239.865	229.37
240.083	-122.88
240.3	-204.8
240.517	96.25
240.735	161.79
240.952	8.19
241.169	-169.98
241.386	280.57
241.603	223.23
241.821	-223.23
242.038	-145.41
242.255	372.73
242.472	69.63
242.689	-122.88
242.907	-137.21
243.124	206.84
243.341	206.84
243.558	-149.5
243.775	-268.28
243.992	40.96
244.209	303.1
244.426	-57.34
244.643	-104.45
244.86	110.59
245.078	268.28
245.295	-63.49
245.512	-174.08
245.729	51.2
245.946	243.71
246.163	-122.88
246.38	-155.65
246.597	180.22
246.814	239.61
247.031	-106.49
247.248	-180.22
247.464	389.11
247.681	137.21
247.898	-110.59
248.115	20.48
248.332	75.77
248.549	348.15
248.766	24.58
248.983	-104.45
249.2	329.72
249.417	305.15
249.633	-178.17
249.85	28.67
250.067	96.25
250.284	192.51
250.501	-149.5
250.717	-32.77
250.934	-4.1
251.151	229.37
251.368	-120.83
251.585	-65.53
251.801	206.84
252.018	-26.62
252.235	0
252.451	-202.75
252.668	194.56
252.885	305.15
253.102	-135.17
253.318	-180.22
253.535	159.74
253.752	98.3
253.968	-92.16
254.185	-153.6
254.401	223.23
254.618	245.76
254.835	-71.68
255.051	-182.27
255.268	219.13
255.484	251.9
255.701	-182.27
255.917	-67.58
256.134	-2.05
256.351	231.42
256.567	-165.89
256.784	-65.53
257	-106.49
257.217	364.54
257.433	108.54
257.65	-174.08
257.866	319.48
258.082	2.05
258.299	-73.73
258.515	-36.86
258.732	114.69
258.948	108.54
259.165	-30.72
259.381	-180.22
259.597	284.67
259.814	90.11
260.03	-157.69
260.246	-131.07
260.463	274.43
260.679	362.49
260.895	-88.06
261.112	-116.73
261.328	100.35
261.544	129.02
261.761	-149.5
261.977	-108.54
262.193	79.87
262.409	245.76
262.626	65.53
262.842	-75.77
263.058	147.45
263.274	268.28
263.49	-90.11
263.707	-141.31
263.923	245.76
264.139	-2.05
264.355	-143.36
264.571	-10.24
264.787	278.52
265.004	251.9
265.22	-32.77
265.436	-114.69
265.652	165.89
265.868	284.67
266.084	-167.93
266.3	-104.45
266.516	151.55
266.732	212.99
266.948	-108.54
267.164	-192.51
267.38	247.8
267.596	163.84
267.812	30.72
268.028	-131.07
268.244	157.69
268.46	169.98
268.676	-108.54
268.892	-110.59
269.108	120.83
269.324	55.3
269.54	-157.69
269.756	-157.69
269.972	63.49
270.188	221.18
270.403	-141.31
270.619	-96.25
270.835	221.18
271.051	194.56
271.267	-88.06
271.483	-198.65
271.698	239.61
271.914	237.56
272.13	26.62
272.346	-83.97
272.562	217.08
272.777	393.21
272.993	-22.53
273.209	-77.82
273.425	280.57
273.64	-18.43
273.856	-69.63
274.072	-221.18
274.287	106.49
274.503	276.48
274.719	0
274.934	-86.01
275.15	-71.68
275.366	143.36
275.581	-108.54
275.797	-22.53
276.012	133.12
276.228	75.77
276.444	-71.68
276.659	57.34
276.875	81.92
277.09	55.3
277.306	-45.06
277.521	2.05
277.737	243.71
277.952	219.13
278.168	-59.39
278.383	-61.44
278.599	155.65
278.814	212.99
279.03	-151.55
279.245	0
279.461	206.84
279.676	165.89
279.892	-94.21
280.107	-161.79
280.322	32.77
280.538	247.8
280.753	-122.88
280.969	-96.25
281.184	92.16
281.399	292.86
281.615	-57.34
281.83	-10.24
282.045	-94.21
282.26	-34.82
282.476	10.24
282.691	40.96
282.906	186.37
283.122	88.06
283.337	-100.35
283.552	-43.01
283.767	96.25
283.983	196.61
284.198	-92.16
284.413	-59.39
284.628	71.68
284.843	180.22
285.058	-4.1
285.274	-79.87
285.489	126.97
285.704	180.22
285.919	-69.63
286.134	-30.72
286.349	153.6
286.564	81.92
286.779	16.38
286.995	-55.3
287.21	-69.63
287.425	163.84
287.64	-59.39
287.855	163.84
288.07	51.2
288.285	311.29
288.5	-22.53
288.715	-14.34
288.93	141.31
289.145	79.87
289.36	-139.26
289.575	-10.24
289.79	260.09
290.004	73.73
290.219	47.1
290.434	-90.11
290.649	96.25
290.864	73.73
291.079	-69.63
291.294	-32.77
291.509	237.56
291.724	86.01
291.938	-6.14
292.153	-112.64
292.368	67.58
292.583	221.18
292.798	-36.86
293.012	-43.01
293.227	206.84
293.442	57.34
293.657	24.58
293.871	108.54
294.086	243.71
294.301	210.94
294.516	61.44
294.73	57.34
294.945	32.77
295.16	194.56
295.374	24.58
295.589	63.49
295.804	-34.82
296.018	83.97
296.233	-116.73
296.447	63.49
296.662	122.88
296.877	292.86
297.091	-36.86
297.306	-57.34
297.52	98.3
297.735	184.32
297.949	53.25
298.164	-231.42
298.378	178.17
298.593	-38.91
298.807	-6.14
299.022	-32.77
299.236	251.9
299.451	49.15
299.665	8.19
299.88	28.67
300.094	219.13
300.309	40.96
300.523	-47.1
300.737	-10.24
300.952	296.96
301.166	227.32
301.381	-88.06
301.595	-184.32
301.809	96.25
302.024	147.45
302.238	-90.11
302.452	114.69
302.667	174.08
302.881	260.09
303.095	12.29
303.309	-2.05
303.524	110.59
303.738	165.89
303.952	55.3
304.166	-55.3
304.381	-112.64
304.595	227.32
304.809	-30.72
305.023	-18.43
305.237	86.01
305.452	81.92
305.666	-63.49
305.88	59.39
306.094	204.8
306.308	231.42
306.522	-24.58
306.736	34.82
306.95	296.96
307.164	88.06
307.379	40.96
307.593	92.16
307.807	194.56
308.021	217.08
308.235	88.06
308.449	-137.21
308.663	153.6
308.877	612.34
309.091	34.82
309.305	45.06
309.519	-81.92
309.733	243.71
309.947	-169.98
310.161	-73.73
310.374	116.73
310.588	313.34
310.802	-137.21
311.016	-40.96
311.23	225.28
311.444	77.82
311.658	0
311.872	178.17
312.085	258.04
312.299	235.52
312.513	163.84
312.727	-43.01
312.941	36.86
313.154	83.97
313.368	-10.24
313.582	-8.19
313.796	157.69
314.009	192.51
314.223	149.5
314.437	131.07
314.651	229.37
314.864	53.25
315.078	-92.16
315.292	-126.97
315.505	112.64
315.719	153.6
315.933	102.4
316.146	-88.06
316.36	-14.34
316.573	212.99
316.787	194.56
317.001	40.96
317.214	2.05
317.428	161.79
317.641	-71.68
317.855	24.58
318.068	167.93
318.282	186.37
318.495	174.08
318.709	-63.49
318.922	131.07
319.136	315.39
319.349	47.1
319.563	-61.44
319.776	196.61
319.99	-83.97
320.203	0
320.417	-69.63
320.63	47.1
320.843	278.52
321.057	69.63
321.27	-10.24
321.483	270.33
321.697	167.93
321.91	-71.68
322.124	100.35
322.337	180.22
322.55	6.14
322.763	-22.53
322.977	-65.53
323.19	28.67
323.403	147.45
323.617	47.1
323.83	233.47
324.043	174.08
324.256	202.75
324.469	-212.99
324.683	188.41
324.896	180.22
325.109	86.01
325.322	-120.83
325.535	30.72
325.748	296.96
325.962	124.93
326.175	-2.05
326.388	-12.29
326.601	272.38
326.814	88.06
327.027	69.63
327.24	59.39
327.453	-71.68
327.666	202.75
327.879	249.85
328.092	26.62
328.305	206.84
328.518	49.15
328.731	16.38
328.944	-124.93
329.157	157.69
329.37	-63.49
329.583	139.26
329.796	71.68
330.009	-106.49
330.222	174.08
330.435	67.58
330.648	-81.92
330.861	194.56
331.073	112.64
331.286	57.34
331.499	-16.38
331.712	34.82
331.925	137.21
332.138	18.43
332.35	-83.97
332.563	71.68
332.776	249.85
332.989	-81.92
333.202	-75.77
333.414	98.3
333.627	192.51
333.84	-104.45
334.053	30.72
334.265	-2.05
334.478	49.15
334.691	22.53
334.903	8.19
335.116	20.48
335.329	53.25
335.541	6.14
335.754	241.66
335.966	90.11
336.179	235.52
336.392	-133.12
336.604	77.82
336.817	196.61
337.029	206.84
337.242	-18.43
337.454	43.01
337.667	163.84
337.88	276.48
338.092	86.01
338.305	188.41
338.517	79.87
338.729	147.45
338.942	32.77
339.154	-98.3
339.367	2.05
339.579	139.26
339.792	-83.97
340.004	-6.14
340.217	147.45
340.429	184.32
340.641	-30.72
340.854	-75.77
341.066	178.17
341.278	284.67
341.491	139.26
341.703	-67.58
341.915	40.96
342.128	305.15
342.34	-59.39
342.552	-45.06
342.764	163.84
342.977	83.97
343.189	57.34
343.401	114.69
343.613	-8.19
343.826	155.65
344.038	-10.24
344.25	69.63
344.462	81.92
344.674	163.84
344.886	-104.45
345.099	8.19
345.311	178.17
345.523	100.35
345.735	-180.22
345.947	-28.67
346.159	192.51
346.371	237.56
346.583	-2.05
346.795	69.63
347.007	137.21
347.219	135.17
347.431	0
347.643	96.25
347.855	16.38
348.067	212.99
348.279	-90.11
348.491	-43.01
348.703	299
348.915	92.16
349.127	-59.39
349.339	40.96
349.551	186.37
349.763	337.91
349.975	-10.24
350.187	59.39
350.399	382.97
350.61	215.04
350.822	18.43
351.034	108.54
351.246	227.32
351.458	147.45
351.669	71.68
351.881	-69.63
352.093	284.67
352.305	167.93
352.517	-32.77
352.728	38.91
352.94	147.45
353.152	251.9
353.363	-96.25
353.575	16.38
353.787	374.78
353.999	169.98
354.21	155.65
354.422	-124.93
354.633	139.26
354.845	172.03
355.057	79.87
355.268	-4.1
355.48	196.61
355.692	-4.1
355.903	6.14
356.115	-120.83
356.326	-92.16
356.538	348.15
356.749	16.38
356.961	79.87
357.172	159.74
357.384	53.25
357.595	198.65
357.807	-51.2
358.018	112.64
358.23	151.55
358.441	-59.39
358.653	-22.53
358.864	169.98
359.075	59.39
359.287	-8.19
359.498	137.21
359.709	292.86
359.921	194.56
360.132	55.3
360.344	-32.77
360.555	40.96
360.766	122.88
360.977	-88.06
361.189	133.12
361.4	141.31
361.611	186.37
361.823	22.53
362.034	-65.53
362.245	-22.53
362.456	135.17
362.667	137.21
362.879	-73.73
363.09	233.47
363.301	165.89
363.512	-63.49
363.723	-71.68
363.935	88.06
364.146	243.71
364.357	32.77
364.568	-67.58
364.779	-47.1
364.99	307.2
365.201	28.67
365.412	126.97
365.623	40.96
365.834	186.37
366.045	40.96
366.256	38.91
366.467	231.42
366.678	139.26
366.889	6.14
367.1	-43.01
367.311	348.15
367.522	112.64
367.733	38.91
367.944	6.14
368.155	110.59
368.366	190.46
368.577	73.73
368.788	47.1
368.999	14.34
369.209	86.01
369.42	110.59
369.631	421.88
369.842	235.52
370.053	169.98
370.264	32.77
370.474	-55.3
370.685	215.04
370.896	165.89
371.107	30.72
371.317	-88.06
371.528	145.41
371.739	309.24
371.95	22.53
372.16	141.31
372.371	79.87
372.582	83.97
372.792	2.05
373.003	96.25
373.214	188.41
373.424	178.17
373.635	-20.48
373.846	190.46
374.056	120.83
374.267	77.82
374.477	47.1
374.688	-38.91
374.898	272.38
375.109	159.74
375.319	51.2
375.53	47.1
375.74	333.82
375.951	75.77
376.161	131.07
376.372	102.4
376.582	161.79
376.793	219.13
377.003	-26.62
377.214	16.38
377.424	253.95
377.635	186.37
377.845	-65.53
378.055	108.54
378.266	-26.62
378.476	116.73
378.686	47.1
378.897	10.24
379.107	303.1
379.317	280.57
379.528	-24.58
379.738	40.96
379.948	-34.82
380.158	155.65
380.369	53.25
380.579	-10.24
380.789	102.4
380.999	145.41
381.21	180.22
381.42	210.94
381.63	155.65
381.84	315.39
382.05	114.69
382.261	65.53
382.471	348.15
382.681	174.08
382.891	92.16
383.101	120.83
383.311	24.58
383.521	92.16
383.731	-83.97
383.941	172.03
384.151	143.36
384.361	-34.82
384.571	-34.82
384.781	34.82
384.991	251.9
385.201	370.68
385.411	153.6
385.621	47.1
385.831	233.47
386.041	200.7
386.251	63.49
386.461	106.49
386.671	227.32
386.881	239.61
387.091	49.15
387.301	133.12
387.511	139.26
387.72	194.56
387.93	118.78
388.14	-36.86
388.35	182.27
388.56	344.06
388.769	43.01
388.979	30.72
389.189	104.45
389.399	241.66
389.609	24.58
389.818	6.14
390.028	206.84
390.238	174.08
390.447	-24.58
390.657	102.4
390.867	71.68
391.076	22.53
391.286	18.43
391.496	-71.68
391.705	159.74
391.915	333.82
392.125	2.05
392.334	81.92
392.544	321.53
392.753	147.45
392.963	2.05
393.172	12.29
393.382	131.07
393.591	362.49
393.801	-14.34
394.01	57.34
394.22	212.99
394.429	145.41
394.639	47.1
394.848	137.21
395.058	200.7
395.267	116.73
395.477	118.78
395.686	6.14
395.895	417.79
396.105	368.63
396.314	28.67
396.524	94.21
396.733	137.21
396.942	276.48
397.152	43.01
397.361	178.17
397.57	210.94
397.78	163.84
397.989	88.06
398.198	303.1
398.407	182.27
398.617	231.42
398.826	75.77
399.035	-71.68
399.244	278.52
399.453	174.08
399.663	10.24
399.872	-102.4
400.081	135.17
400.29	294.91
400.499	4.1
400.708	67.58
400.917	217.08
401.127	129.02
401.336	26.62
401.545	266.24
401.754	276.48
401.963	241.66
402.172	-6.14
402.381	-14.34
402.59	227.32
402.799	126.97
403.008	172.03
403.217	51.2
403.426	243.71
403.635	32.77
403.844	-26.62
404.053	-26.62
404.262	157.69
404.471	333.82
404.68	88.06
404.888	149.5
405.097	98.3
405.306	276.48
405.515	43.01
405.724	51.2
405.933	286.72
406.142	202.75
406.35	49.15
406.559	47.1
406.768	143.36
406.977	450.55
407.185	34.82
407.394	51.2
407.603	47.1
407.812	159.74
408.02	98.3
408.229	65.53
408.438	176.13
408.646	-45.06
408.855	-38.91
409.064	18.43
409.272	165.89
409.481	163.84
409.69	-38.91
409.898	43.01
410.107	229.37
410.315	303.1
410.524	73.73
410.733	36.86
410.941	196.61
411.15	243.71
411.358	45.06
411.567	233.47
411.775	165.89
411.984	122.88
412.192	165.89
412.401	-24.58
412.609	417.79
412.818	313.34
413.026	108.54
413.234	53.25
413.443	178.17
413.651	26.62
413.86	-77.82
414.068	229.37
414.276	399.35
414.485	172.03
414.693	122.88
414.901	169.98
415.11	229.37
415.318	180.22
415.526	71.68
415.734	110.59
415.943	231.42
416.151	337.91
416.359	24.58
416.567	108.54
416.776	237.56
416.984	262.14
417.192	94.21
417.4	61.44
417.608	100.35
417.817	22.53
418.025	192.51
418.233	178.17
418.441	106.49
418.649	98.3
418.857	53.25
419.065	161.79
419.273	172.03
419.481	169.98
419.689	45.06
419.897	-51.2
420.105	120.83
420.313	350.2
420.521	114.69
420.729	143.36
420.937	129.02
421.145	12.29
421.353	104.45
421.561	241.66
421.769	190.46
421.977	133.12
422.185	75.77
422.393	145.41
422.601	237.56
422.809	284.67
423.017	98.3
423.224	96.25
423.432	417.79
423.64	202.75
423.848	-14.34
424.056	40.96
424.263	423.93
424.471	198.65
424.679	229.37
424.887	69.63
425.094	430.07
425.302	307.2
425.51	14.34
425.718	98.3
425.925	303.1
426.133	120.83
426.341	219.13
426.548	77.82
426.756	198.65
426.964	323.58
427.171	73.73
427.379	67.58
427.586	296.96
427.794	309.24
428.001	153.6
428.209	202.75
428.417	448.51
428.624	448.51
428.832	190.46
429.039	210.94
429.247	278.52
429.454	329.72
429.662	251.9
429.869	227.32
430.076	438.27
430.284	374.78
430.491	133.12
430.699	223.23
430.906	491.51
431.114	423.93
431.321	245.76
431.528	260.09
431.736	299
431.943	382.97
432.15	286.72
432.358	194.56
432.565	518.14
432.772	102.4
432.979	356.35
433.187	243.71
433.394	528.38
433.601	227.32
433.808	337.91
434.016	436.22
434.223	477.18
434.43	376.83
434.637	342.01
434.844	372.73
435.052	450.55
435.259	524.28
435.466	374.78
435.673	309.24
435.88	614.39
436.087	589.82
436.294	604.15
436.501	471.03
436.708	546.81
436.915	589.82
437.122	548.86
437.329	317.44
437.537	526.33
437.743	565.24
437.95	477.18
438.157	524.28
438.364	669.69
438.571	630.77
438.778	428.03
438.985	577.53
439.192	724.98
439.399	540.66
439.606	569.34
439.813	614.39
440.02	946.16
440.227	946.16
440.433	595.96
440.64	518.14
440.847	694.26
441.054	751.6
441.261	714.74
441.467	677.88
441.674	714.74
441.881	950.26
442.088	759.8
442.294	780.28
442.501	997.36
442.708	1052.66
442.914	776.18
443.121	778.23
443.328	923.63
443.534	1181.68
443.741	782.32
443.948	647.16
444.154	1026.03
444.361	1218.54
444.568	960.5
444.774	1058.8
444.981	974.83
445.187	1263.6
445.394	1066.99
445.6	964.59
445.807	1114.09
446.013	1155.05
446.22	894.96
446.426	1091.57
446.633	1312.75
446.839	1525.74
447.046	1050.61
447.252	1341.42
447.459	1208.3
447.665	1269.74
447.871	1134.57
448.078	1535.98
448.284	1525.74
448.491	1576.94
448.697	1370.09
448.903	1495.02
449.11	1560.55
449.316	1492.97
449.522	1677.29
449.728	1583.08
449.935	1806.31
450.141	1785.83
450.347	1710.05
450.553	1667.05
450.76	1910.75
450.966	2025.44
451.172	1847.27
451.378	1810.4
451.584	1986.53
451.791	2234.33
451.997	2119.65
452.203	2025.44
452.409	2363.36
452.615	2346.97
452.821	1978.34
453.027	2064.35
453.233	2660.31
453.44	2400.22
453.646	2224.09
453.852	2344.92
454.058	2316.25
454.264	2519
454.47	2652.12
454.676	2424.79
454.882	2936.79
455.088	2594.78
455.294	2617.3
455.5	2766.81
455.705	2955.22
455.911	2799.57
456.117	2654.17
456.323	2828.24
456.529	2701.27
456.735	2953.17
456.941	2801.62
457.147	2875.35
457.352	3043.28
457.558	2787.29
457.764	2885.59
457.97	2760.66
458.176	3010.51
458.381	2934.74
458.587	2934.74
458.793	2846.68
458.999	2734.04
459.204	3057.62
459.41	2908.12
459.616	2883.54
459.821	2965.46
460.027	2717.65
460.233	2942.93
460.438	2768.85
460.644	2850.77
460.85	2955.22
461.055	2719.7
461.261	2781.14
461.466	2588.63
461.672	2815.96
461.878	2516.95
462.083	2592.73
462.289	2643.93
462.494	2545.63
462.7	2590.68
462.905	2226.14
463.111	2805.72
463.316	2609.11
463.522	2484.19
463.727	2426.84
463.932	2545.63
464.138	2500.57
464.343	2357.21
464.549	2322.4
464.754	2672.6
464.959	2605.02
465.165	2342.88
465.37	2293.72
465.575	2303.96
465.781	2475.99
465.986	2316.25
466.191	2265.05
466.397	2320.35
466.602	2482.14
466.807	2107.36
467.012	2197.47
467.218	2349.02
467.423	2250.72
467.628	2004.96
467.833	2308.06
468.038	2389.98
468.244	2152.42
468.449	2334.68
468.654	2287.58
468.859	2318.3
469.064	2408.41
469.269	2160.61
469.474	2158.56
469.679	2363.36
469.885	2336.73
470.09	2127.84
470.295	2209.76
470.5	2275.29
470.705	2383.84
470.91	2246.62
471.115	2328.54
471.32	2418.65
471.525	2629.59
471.73	2037.73
471.935	2283.49
472.139	2258.91
472.344	2316.25
472.549	2242.53
472.754	2357.21
472.959	2322.4
473.164	2432.99
473.369	2228.19
473.574	2275.29
473.778	2514.91
473.983	2527.19
474.188	2402.27
474.393	2074.59
474.598	2424.79
474.802	2482.14
475.007	2152.42
475.212	2351.07
475.417	2306.01
475.621	2375.64
475.826	2326.49
476.031	2273.25
476.235	2406.36
476.44	2373.6
476.645	2248.67
476.849	2136.03
477.054	2293.72
477.259	2379.74
477.463	2267.1
477.668	2385.88
477.872	2578.39
478.077	2269.15
478.282	2250.72
478.486	2201.57
478.691	2404.32
478.895	2447.32
479.1	2445.27
479.304	2349.02
479.509	2230.24
479.713	2568.15
479.918	2299.87
480.122	2355.16
480.326	2240.48
480.531	2414.56
480.735	2332.64
480.94	2166.75
481.144	2592.73
481.348	2328.54
481.553	2308.06
481.757	2150.37
481.961	2398.17
482.166	2441.18
482.37	2222.05
482.574	2265.05
482.778	2344.92
482.983	2598.87
483.187	2293.72
483.391	2359.26
483.595	2478.04
483.8	2529.24
484.004	2406.36
484.208	2375.64
484.412	2537.43
484.616	2521.05
484.821	2254.81
485.025	2306.01
485.229	2377.69
485.433	2514.91
485.637	2428.89
485.841	2381.79
486.045	2691.03
486.249	2766.81
486.453	2473.95
486.657	2285.53
486.861	2291.68
487.065	2582.49
487.269	2367.45
487.473	2414.56
487.677	2637.78
487.881	2904.02
488.085	2512.86
488.289	2562.01
488.493	2627.54
488.697	2865.11
488.901	2688.98
489.105	2568.15
489.309	2672.6
489.512	2990.03
489.716	2752.47
489.92	2744.28
490.124	2856.92
490.328	3030.99
490.531	2791.38
490.735	2809.81
490.939	2850.77
491.143	2750.42
491.346	2764.76
491.55	2920.4
491.754	3051.47
491.958	2949.08
492.161	2750.42
492.365	2840.53
492.569	2961.36
492.772	3059.67
492.976	2934.74
493.18	2879.44
493.383	3155.92
493.587	3137.49
493.79	2983.89
493.994	2842.58
494.197	3129.3
494.401	3229.65
494.605	2977.75
494.808	3096.53
495.012	3200.98
495.215	3426.25
495.419	3309.52
495.622	3213.26
495.825	3221.45
496.029	3260.37
496.232	3284.94
496.436	3284.94
496.639	3493.83
496.843	3393.48
497.046	3172.3
497.249	3495.88
497.453	3622.86
497.656	3438.54
497.859	3469.26
498.063	3506.12
498.266	3762.12
498.469	3442.64
498.673	3467.21
498.876	3551.18
499.079	3682.25
499.282	3798.98
499.485	3786.69
499.689	3903.43
499.892	3893.19
500.095	3739.59
500.298	3798.98
500.501	3690.44
500.705	3987.4
500.908	3948.48
501.111	3915.72
501.314	3966.92
501.517	4186.05
501.72	4212.67
501.923	4077.51
502.126	4079.55
502.329	4331.45
502.532	4270.01
502.735	4286.4
502.938	4478.91
503.141	4394.94
503.344	4315.07
503.547	4458.43
503.75	4306.88
503.953	4476.86
504.156	4749.24
504.359	4614.07
504.562	4575.16
504.765	4753.34
504.968	4782.01
505.17	4728.76
505.373	4978.61
505.576	5060.53
505.779	4896.69
505.982	4870.07
506.185	4941.75
506.387	5105.59
506.59	5267.38
506.793	5140.4
506.996	5162.93
507.198	5511.08
507.401	5498.8
507.604	5214.13
507.807	5472.17
508.009	5558.19
508.212	5838.76
508.415	5578.67
508.617	5664.68
508.82	5722.02
509.022	5900.2
509.225	5765.03
509.428	5885.86
509.63	6055.84
509.833	6158.24
510.035	6451.1
510.238	6258.59
510.44	6336.42
510.643	6541.21
510.845	6569.88
511.048	6436.77
511.25	6475.68
511.453	6551.45
511.655	6870.94
511.858	6688.67
512.06	7387.02
512.262	6954.9
512.465	6791.06
512.667	7096.21
512.87	7233.43
513.072	7743.37
513.274	7278.48
513.477	7196.56
513.679	7630.73
513.881	7630.73
514.084	7503.76
514.286	7817.1
514.488	8247.17
514.69	8148.87
514.893	8054.66
515.095	8058.76
515.297	8359.81
515.499	8597.37
515.701	8296.32
515.904	8634.24
516.106	9021.3
516.308	9002.87
516.51	8955.77
516.712	9056.12
516.914	9283.44
517.116	9213.81
517.318	9154.42
517.52	9543.53
517.722	9533.29
517.925	9725.8
518.127	9766.76
518.329	9828.2
518.531	9834.35
518.733	10264.42
518.935	9863.02
519.136	10295.14
519.338	10170.21
519.54	10725.21
519.742	10487.65
519.944	10950.49
520.146	11204.44
520.348	11097.94
520.55	11108.18
520.752	11251.54
520.954	11267.92
521.155	11442
521.357	11601.74
521.559	11999.05
521.761	12101.45
521.963	12078.92
522.164	12101.45
522.366	12226.37
522.568	12322.63
522.77	12560.19
522.971	12453.7
523.173	12605.25
523.375	12941.11
523.576	12777.28
523.778	12801.85
523.98	13190.97
524.181	13129.53
524.383	13309.75
524.584	13287.22
524.786	13360.95
524.988	13416.24
525.189	13770.54
525.391	13838.12
525.592	13756.21
525.794	13823.79
525.995	14014.25
526.197	14202.66
526.398	14243.62
526.6	14350.12
526.801	14341.93
527.003	14221.1
527.204	14337.83
527.406	14792.48
527.607	14622.5
527.808	14876.44
528.01	14610.21
528.211	14870.3
528.412	14997.28
528.614	15251.22
528.815	15017.75
529.016	15415.06
529.218	15388.44
529.419	15288.09
529.62	15316.76
529.822	15611.67
530.023	15505.17
530.224	15421.2
530.425	15988.49
530.626	15617.81
530.828	15478.55
531.029	15867.66
531.23	15757.07
531.431	15546.13
531.632	16066.31
531.833	15582.99
532.035	15890.19
532.236	15947.53
532.437	15982.35
532.638	15968.01
532.839	16033.55
533.04	16348.93
533.241	15961.87
533.442	16387.85
533.643	16217.86
533.844	16305.93
534.045	16185.1
534.246	16267.02
534.447	16574.21
534.648	16275.21
534.849	16727.81
535.05	16301.83
535.251	16559.88
535.451	16455.43
535.652	16527.11
535.853	16418.57
536.054	16527.11
536.255	16692.99
536.456	16338.69
536.657	16664.32
536.857	16428.81
537.058	16645.89
537.259	16674.56
537.46	16672.51
537.66	16160.52
537.861	16828.16
538.062	16635.65
538.263	16393.99
538.463	16504.58
538.664	16549.64
538.865	16576.26
539.065	16723.71
539.266	16668.42
539.466	16754.43
539.667	16424.71
539.868	16979.71
540.068	16731.9
540.269	16992
540.469	16836.35
540.67	16584.45
540.87	16764.67
541.071	16727.81
541.271	16897.79
541.472	16828.16
541.672	16881.41
541.873	16690.95
542.073	16705.28
542.274	16832.26
542.474	16627.46
542.675	16862.97
542.875	16957.18
543.075	16809.73
543.276	16537.35
543.476	17235.7
543.676	16834.3
543.877	16834.3
544.077	16768.77
544.277	17313.53
544.478	17131.26
544.678	16905.98
544.878	16787.2
545.078	17270.52
545.279	16744.19
545.479	16836.35
545.679	16901.89
545.879	16758.53
546.079	16953.09
546.28	16660.23
546.48	16740.1
546.68	17170.17
546.88	17207.03
547.08	17039.1
547.28	16965.37
547.48	16887.55
547.68	17047.29
547.88	16879.36
548.081	16891.65
548.281	16934.65
548.481	17092.35
548.681	16946.94
548.881	17213.18
549.081	17069.82
549.28	17032.96
549.48	17172.22
549.68	16975.61
549.88	17434.36
550.08	17063.68
550.28	16889.6
550.48	17231.61
550.68	17254.14
550.88	16948.99
551.08	16928.51
551.279	17256.18
551.479	17123.07
551.679	17424.12
551.879	17174.27
552.079	17082.11
552.278	17252.09
552.478	17352.44
552.678	17106.68
552.878	17229.56
553.077	16992
553.277	16781.06
553.477	17256.18
553.676	17291
553.876	17501.94
554.076	17016.57
554.275	16926.46
554.475	16916.22
554.674	17172.22
554.874	16875.26
555.074	16959.23
555.273	17112.83
555.473	17348.34
555.672	16875.26
555.872	17207.03
556.071	17178.36
556.271	17506.04
556.47	17204.99
556.67	16783.1
556.869	16746.24
557.068	16918.27
557.268	17082.11
557.467	16658.18
557.667	17276.66
557.866	17035
558.065	17000.19
558.265	16480
558.464	16563.97
558.663	17063.68
558.863	16555.78
559.062	17123.07
559.261	16490.24
559.461	17028.86
559.66	16486.15
559.859	16529.16
560.058	16355.08
560.258	16441.09
560.457	16305.93
560.656	16531.2
560.855	16293.64
561.054	16473.86
561.253	16498.44
561.453	16627.46
561.652	16256.78
561.851	16334.6
562.05	16312.07
562.249	15781.65
562.448	16283.4
562.647	16121.61
562.846	16051.98
563.045	16133.9
563.244	15824.65
563.443	16482.05
563.642	15865.61
563.841	16166.67
564.04	15531.79
564.239	16039.69
564.438	15656.72
564.637	15437.59
564.836	15736.59
565.035	15496.98
565.234	15320.85
565.432	15392.53
565.631	15171.35
565.83	15673.1
566.029	15281.94
566.228	15048.47
566.427	15193.88
566.625	15009.56
566.824	15003.42
567.023	15034.14
567.222	14884.64
567.42	15202.07
567.619	14870.3
567.818	14728.99
568.016	15034.14
568.215	14952.22
568.414	14737.18
568.612	14741.28
568.811	14466.85
569.01	14872.35
569.208	14325.54
569.407	14667.55
569.605	14176.04
569.804	14325.54
570.002	14198.57
570.201	13954.86
570.4	13977.39
570.598	14016.3
570.797	13803.31
570.995	13674.29
571.193	13834.03
571.392	13858.6
571.59	13674.29
571.789	13776.69
571.987	13602.61
572.186	13778.73
572.384	13621.04
572.582	13383.48
572.781	13551.41
572.979	13135.67
573.177	13395.76
573.376	13371.19
573.574	13156.15
573.772	13270.84
573.971	12939.07
574.169	12894.01
574.367	12828.48
574.565	13109.05
574.763	12881.72
574.962	12607.3
575.16	12736.32
575.358	12660.54
575.556	12519.23
575.754	12549.95
575.952	12330.82
576.151	12760.89
576.349	12533.57
576.547	12195.65
576.745	12371.78
576.943	12480.32
577.141	12375.88
577.339	12371.78
577.537	12166.98
577.735	12382.02
577.933	12031.82
578.131	12097.35
578.329	11990.86
578.527	12113.74
578.725	12156.74
578.923	11716.43
579.121	11642.7
579.319	11861.83
579.516	11765.58
579.714	11843.4
579.912	11638.61
580.11	11761.48
580.308	11673.42
580.506	11587.41
580.704	11401.04
580.901	11556.69
581.099	11794.25
581.297	11355.99
581.495	11353.94
581.692	11603.79
581.89	11585.36
582.088	11575.12
582.285	11130.71
582.483	11425.62
582.681	11423.57
582.878	11329.36
583.076	11255.64
583.274	11310.93
583.471	11460.43
583.669	11102.04
583.866	10772.32
584.064	11163.48
584.262	10882.91
584.459	11036.5
584.657	10874.71
584.854	11198.29
585.052	10917.72
585.249	10905.43
585.447	10856.28
585.644	10657.63
585.841	10915.67
586.039	10917.72
586.236	10637.15
586.434	10733.4
586.631	10798.94
586.828	10356.58
587.026	10676.06
587.223	10501.98
587.42	10295.14
587.618	10444.64
587.815	10436.45
588.012	10702.68
588.21	10370.91
588.407	10747.74
588.604	10555.23
588.801	10418.02
588.999	10215.27
589.196	10463.07
589.393	10375.01
589.59	10389.35
589.787	10524.51
589.984	10291.04
590.182	10172.26
590.379	10049.38
590.576	10227.56
590.773	9987.94
590.97	10127.21
591.167	10231.65
591.364	10143.59
591.561	10141.54
591.758	10270.56
591.955	10200.93
592.152	10188.64
592.349	9875.31
592.546	10008.42
592.743	9856.87
592.94	10026.85
593.137	9949.03
593.334	10153.83
593.531	10143.59
593.727	9897.83
593.924	9869.16
594.121	9860.97
594.318	9971.56
594.515	10092.39
594.712	9934.7
594.908	9918.31
595.105	10041.19
595.302	9879.4
595.499	9779.05
595.696	9807.72
595.892	9496.43
596.089	10020.71
596.286	9725.8
596.482	9705.32
596.679	9994.09
596.876	9645.93
597.072	9695.08
597.269	9629.55
597.466	9713.52
597.662	9635.69
597.859	9535.34
598.055	9713.52
598.252	9713.52
598.448	9850.73
598.645	9623.41
598.841	9568.11
599.038	9893.74
599.234	9914.22
599.431	9633.65
599.627	9404.27
599.824	9647.98
600.02	9617.26
600.217	9537.39
600.413	9609.07
600.609	9738.09
600.806	10092.39
601.002	9414.51
601.198	9430.9
601.395	9824.11
601.591	9498.48
601.787	9633.65
601.984	9467.76
602.18	9727.85
602.376	9465.71
602.572	9293.68
602.769	9592.69
602.965	9557.87
603.161	9492.34
603.357	9500.53
603.553	9488.24
603.75	9414.51
603.946	9604.97
604.142	9463.66
604.338	9453.42
604.534	9267.06
604.73	9400.18
604.926	9553.77
605.122	9611.12
605.318	9439.09
605.514	9695.08
605.71	9181.04
605.906	9381.74
606.102	9398.13
606.298	9647.98
606.494	9344.88
606.69	9461.62
606.886	9406.32
607.082	9246.58
607.278	9113.46
607.474	9400.18
607.67	9463.66
607.866	8996.73
608.062	9420.66
608.257	9324.4
608.453	8871.8
608.649	9398.13
608.845	9191.28
609.041	9049.97
609.236	9609.07
609.432	9154.42
609.628	9123.7
609.824	9113.46
610.019	8976.25
610.215	9334.64
610.411	9265.01
610.606	9336.69
610.802	9092.98
610.998	9131.89
611.193	9183.09
611.389	8996.73
611.584	9062.26
611.78	9045.88
611.976	9017.21
612.171	9199.48
612.367	9312.11
612.562	9076.6
612.758	9021.3
612.953	8748.92
613.149	9183.09
613.344	9105.27
613.539	9234.29
613.735	8939.38
613.93	9240.43
614.126	9195.38
614.321	8963.96
614.517	9119.6
614.712	9174.9
614.907	8988.53
615.103	8996.73
615.298	9070.45
615.493	9070.45
615.688	8923
615.884	9185.14
616.079	8859.51
616.274	8943.48
616.47	8755.07
616.665	8802.17
616.86	9054.07
617.055	8994.68
617.25	8787.83
617.445	9121.65
617.641	8693.63
617.836	8828.79
618.031	8761.21
618.226	8888.18
618.421	8914.81
618.616	8961.91
618.811	8759.16
619.006	8841.08
619.201	8730.49
619.396	8781.69
619.591	8677.24
619.786	8793.98
619.981	8773.5
620.176	8894.33
620.371	8513.41
620.566	8523.65
620.761	8550.27
620.956	8900.47
621.151	8476.54
621.346	8480.64
621.541	8353.66
621.735	8740.73
621.93	8580.99
622.125	8386.43
622.32	8279.94
622.515	8267.65
622.709	8593.28
622.904	8447.87
623.099	8271.75
623.294	8609.66
623.488	8435.58
623.683	8509.31
623.878	8449.92
624.072	8617.85
624.267	8191.88
624.462	8075.14
624.656	7980.93
624.851	8230.79
625.046	8152.96
625.24	8238.98
625.435	8155.01
625.629	8150.92
625.824	8329.09
626.018	8114.05
626.213	8042.37
626.407	7980.93
626.602	7845.77
626.796	7997.32
626.991	7784.33
627.185	7923.59
627.38	7939.97
627.574	7884.68
627.768	7874.44
627.963	7837.58
628.157	7888.78
628.352	7851.91
628.546	7640.97
628.74	7866.25
628.935	7737.23
629.129	7694.22
629.323	7665.55
629.517	7524.24
629.712	7640.97
629.906	7548.81
630.1	7600.01
630.294	7647.12
630.489	7722.89
630.683	7600.01
630.877	7348.11
631.071	7636.88
631.265	7552.91
631.459	7626.64
631.653	7335.82
631.848	7511.95
632.042	7612.3
632.236	7339.92
632.43	7210.9
632.624	7317.39
632.818	7440.27
633.012	7217.04
633.206	7075.73
633.4	7284.62
633.594	7163.79
633.788	7034.77
633.982	7214.99
634.176	7505.81
634.369	7110.55
634.563	7022.48
634.757	6709.15
634.951	7147.41
635.145	7040.92
635.339	6862.74
635.533	6936.47
635.726	7004.05
635.92	6983.57
636.114	6723.48
636.308	6746.01
636.501	6760.34
636.695	6772.63
636.889	6406.05
637.083	6428.57
637.276	6553.5
637.47	6231.97
637.664	6381.47
637.857	6289.31
638.051	6612.89
638.244	6373.28
638.438	6330.27
638.632	6168.48
638.825	6068.13
639.019	6367.13
639.212	5904.29
639.406	6023.08
639.599	6072.23
639.793	5787.56
639.986	5593
640.18	5781.42
640.373	5691.31
640.567	5701.55
640.76	5683.11
640.954	5713.83
641.147	5392.3
641.34	5388.21
641.534	5476.27
641.727	5371.82
641.92	5554.09
642.114	5431.21
642.307	5259.18
642.5	5068.72
642.694	5277.62
642.887	5146.55
643.08	5134.26
643.273	5017.52
643.467	5087.15
643.66	4880.31
643.853	4650.94
644.046	4886.45
644.239	4863.93
644.432	4603.83
644.626	4519.87
644.819	4560.83
645.012	4755.38
645.205	4587.45
645.398	4573.11
645.591	4495.29
645.784	4290.49
645.977	4282.3
646.17	4452.28
646.363	4265.92
646.556	4159.42
646.749	4181.95
646.942	4136.9
647.135	4239.3
647.328	4175.81
647.521	4118.47
647.714	3760.07
647.907	4136.9
648.099	3971.01
648.292	4175.81
648.485	4069.31
648.678	3753.93
648.871	4016.07
649.064	3848.13
649.256	3743.69
649.449	3801.03
649.642	3620.81
649.835	3710.92
650.027	3717.06
650.22	3633.1
650.413	3807.17
650.605	3831.75
650.798	3553.23
650.991	3504.07
651.183	3737.54
651.376	3676.1
651.568	3698.63
651.761	3469.26
651.954	3622.86
652.146	3573.71
652.339	3577.8
652.531	3475.4
652.724	3241.93
652.916	3428.3
653.109	3188.69
653.301	3508.17
653.494	3551.18
653.686	3334.09
653.879	3362.76
654.071	3413.96
654.263	3323.85
654.456	3438.54
654.648	3180.5
654.84	3246.03
655.033	3332.05
655.225	3409.87
655.417	2947.03
655.61	3260.37
655.802	3432.4
655.994	3512.27
656.186	3135.44
656.379	3229.65
656.571	3114.96
656.763	3086.29
656.955	3096.53
657.148	3049.43
657.34	3286.99
657.532	3166.16
657.724	3145.68
657.916	3192.78
658.108	3334.09
658.3	3243.98
658.492	3135.44
658.684	2770.9
658.876	3157.97
659.068	2996.18
659.26	2777.05
659.452	2764.76
659.644	3028.95
659.836	3194.83
660.028	3008.47
660.22	2789.33
660.412	2924.5
660.604	2811.86
660.796	2822.1
660.988	2760.66
661.18	2830.29
661.372	2883.54
661.563	2820.05
661.755	2734.04
661.947	2631.64
662.139	2826.2
662.331	2762.71
662.522	2533.34
662.714	2602.97
662.906	2529.24
663.097	2576.34
663.289	2447.32
663.481	2508.76
663.673	2742.23
663.864	2545.63
664.056	2607.06
664.247	2510.81
664.439	2590.68
664.631	2449.37
664.822	2523.1
665.014	2754.52
665.205	2465.75
665.397	2310.11
665.588	2463.71
665.78	2508.76
665.971	2484.19
666.163	2217.95
666.354	2240.48
666.546	2387.93
666.737	2314.2
666.929	2269.15
667.12	2246.62
667.311	2457.56
667.503	2291.68
667.694	2291.68
667.885	2185.18
668.077	2426.84
668.268	2103.26
668.459	2148.32
668.651	2236.38
668.842	2400.22
669.033	2201.57
669.224	2146.27
669.416	2291.68
669.607	2226.14
669.798	2164.7
669.989	2197.47
670.18	2088.93
670.371	2293.72
670.563	2162.66
670.754	2242.53
670.945	2197.47
671.136	2383.84
671.327	2166.75
671.518	2054.11
671.709	2176.99
671.9	2324.44
672.091	2291.68
672.282	2166.75
672.473	1998.82
672.664	2228.19
672.855	2193.37
673.046	2168.8
673.237	2136.03
673.428	2103.26
673.619	2236.38
673.809	2009.06
674	2062.3
674.191	2293.72
674.382	2160.61
674.573	2007.01
674.764	2129.89
674.954	2416.6
675.145	1982.43
675.336	2136.03
675.527	2080.74
675.717	2136.03
675.908	2086.88
676.099	2072.54
676.289	2080.74
676.48	2115.55
676.671	2246.62
676.861	2056.16
677.052	2058.21
677.243	2168.8
677.433	2224.09
677.624	2176.99
677.814	2242.53
678.005	2123.74
678.195	2416.6
678.386	2201.57
678.576	2152.42
678.767	2168.8
678.957	2185.18
679.148	2303.96
679.338	2213.85
679.529	2355.16
679.719	2252.77
679.909	2445.27
680.1	2115.55
680.29	2351.07
680.481	2160.61
680.671	2316.25
680.861	2293.72
681.052	2594.78
681.242	2332.64
681.432	2457.56
681.622	2299.87
681.813	2275.29
682.003	2381.79
682.193	2252.77
682.383	2260.96
682.573	2451.42
682.764	2553.82
682.954	2418.65
683.144	2541.53
683.334	2514.91
683.524	2523.1
683.714	2521.05
683.904	2475.99
684.094	2426.84
684.284	2471.9
684.474	2584.54
684.664	2516.95
684.854	2629.59
685.044	2611.16
685.234	2457.56
685.424	2709.46
685.614	2504.67
685.804	2777.05
685.994	2660.31
686.184	2697.17
686.374	2846.68
686.564	2609.11
686.753	2807.77
686.943	2519
687.133	2856.92
687.323	2785.24
687.513	2906.07
687.702	2729.94
687.892	2758.61
688.082	3014.61
688.272	2840.53
688.461	2797.53
688.651	3182.54
688.841	3100.62
689.03	2895.83
689.22	3008.47
689.41	3190.74
689.599	3155.92
689.789	3004.37
689.979	3305.42
690.168	3258.32
690.358	3274.7
690.547	3131.34
690.737	3295.18
690.926	3356.62
691.116	3426.25
691.305	3336.14
691.495	3282.89
691.684	3239.89
691.874	3514.31
692.063	3350.48
692.252	3497.93
692.442	3778.5
692.631	3495.88
692.82	3356.62
693.01	3540.94
693.199	3856.33
693.388	3739.59
693.578	3612.62
693.767	3719.11
693.956	3925.96
694.146	3882.95
694.335	3878.85
694.524	3809.22
694.713	4249.54
694.902	3923.91
695.092	4061.12
695.281	3979.2
695.47	4130.75
695.659	4140.99
695.848	4005.83
696.037	4167.62
696.226	4417.47
696.415	4331.45
696.604	4478.91
696.793	4462.52
696.982	4413.37
697.171	4601.79
697.36	4366.27
697.549	4435.9
697.738	4423.61
697.927	4607.93
698.116	4431.8
698.305	4790.2
698.494	4929.46
698.683	4726.71
698.872	4925.36
699.061	4808.63
699.25	4954.04
699.438	5068.72
699.627	4741.05
699.816	5156.79
700.005	5072.82
700.193	5052.34
700.382	5117.87
700.571	5078.96
700.76	5429.17
700.948	5273.52
701.137	4923.32
701.326	5406.64
701.514	5183.41
701.703	5275.57
701.892	5322.67
702.08	5330.86
702.269	5496.75
702.457	5353.39
702.646	5308.33
702.834	5226.42
703.023	5617.58
703.212	5584.81
703.4	5466.03
703.589	5298.1
703.777	5607.34
703.965	5480.36
704.154	5390.25
704.342	5414.83
704.531	5795.75
704.719	5494.7
704.907	5578.67
705.096	5490.6
705.284	5537.71
705.472	5748.65
705.661	5805.99
705.849	5660.59
706.037	5908.39
706.226	5869.48
706.414	5590.95
706.602	5570.48
706.79	6041.51
706.979	5556.14
707.167	5838.76
707.355	5527.47
707.543	5767.08
707.731	5941.16
707.919	5754.79
708.107	5693.35
708.296	5750.7
708.484	5717.93
708.672	5875.62
708.86	5816.23
709.048	5916.58
709.236	5791.66
709.424	5879.72
709.612	5849
709.8	5580.71
709.988	5805.99
710.176	5785.51
710.364	5779.37
710.551	5894.05
710.739	5937.06
710.927	5603.24
711.115	5797.8
711.303	5980.07
711.491	5957.54
711.679	5613.48
711.866	5695.4
712.054	6033.32
712.242	5894.05
712.43	5924.77
712.617	5552.04
712.805	5965.73
712.993	5746.6
713.181	5494.7
713.368	5644.2
713.556	5955.49
713.744	5728.17
713.931	5787.56
714.119	5674.92
714.306	5875.62
714.494	5638.06
714.682	5679.02
714.869	5468.08
715.057	5603.24
715.244	5490.6
715.432	5715.88
715.619	5506.99
715.807	5750.7
715.994	5652.39
716.182	5638.06
716.369	5672.87
716.556	5814.18
716.744	5509.04
716.931	5597.1
717.119	5420.97
717.306	5765.03
717.493	5629.87
717.681	5396.4
717.868	5414.83
718.055	5797.8
718.242	5558.19
718.43	5351.34
718.617	5406.64
718.804	5425.07
718.991	5613.48
719.179	5359.53
719.366	5377.97
719.553	5267.38
719.74	5541.8
719.927	5294
720.114	5353.39
720.301	5214.13
720.488	5140.4
720.676	5183.41
720.863	5404.59
721.05	5683.11
721.237	5478.32
721.424	5396.4
721.611	5248.94
721.798	5287.86
721.985	5162.93
722.172	5281.71
722.358	5015.48
722.545	5547.95
722.732	5382.06
722.919	5287.86
723.106	5058.48
723.293	5218.22
723.48	5203.89
723.667	5083.06
723.853	4929.46
724.04	5334.96
724.227	5339.05
724.414	4892.6
724.6	4865.97
724.787	5191.6
724.974	5384.11
725.161	5263.28
725.347	4833.21
725.534	5218.22
725.72	5187.5
725.907	4956.08
726.094	5111.73
726.28	5017.52
726.467	5164.98
726.653	4908.98
726.84	4806.58
727.027	5228.46
727.213	4775.86
727.4	4902.84
727.586	4810.68
727.773	5093.3
727.959	4896.69
728.145	4771.77
728.332	4800.44
728.518	4751.29
728.705	5042.1
728.891	4878.26
729.077	4777.91
729.264	4691.9
729.45	4825.01
729.636	4704.18
729.823	4706.23
730.009	4837.3
730.195	4802.49
730.382	4712.38
730.568	4431.8
730.754	4771.77
730.94	4663.22
731.126	4616.12
731.313	4519.87
731.499	4605.88
731.685	4741.05
731.871	4636.6
732.057	4671.42
732.243	4777.91
732.429	4718.52
732.615	4612.03
732.801	4446.14
732.987	4480.96
733.173	4431.8
733.359	4476.86
733.545	4437.95
733.731	4569.02
733.917	4880.31
734.103	4380.61
734.289	4431.8
734.475	4374.46
734.661	4636.6
734.847	4378.56
735.033	4474.81
735.219	4675.51
735.404	4419.52
735.59	4196.29
735.776	4290.49
735.962	4399.04
736.148	4460.48
736.333	4304.83
736.519	4196.29
736.705	4472.76
736.89	4224.96
737.076	4102.08
737.262	4095.94
737.447	4210.62
737.633	4155.33
737.819	4218.82
738.004	4095.94
738.19	4200.38
738.375	4249.54
738.561	4095.94
738.747	4042.69
738.932	4085.7
739.118	4214.72
739.303	4077.51
739.489	3934.15
739.674	4204.48
739.859	3971.01
740.045	3856.33
740.23	3989.44
740.416	3921.86
740.601	3991.49
740.786	3876.8
740.972	3626.95
741.157	3747.78
741.342	3801.03
741.528	3825.61
741.713	3860.42
741.898	3907.52
742.084	3772.36
742.269	3833.8
742.454	3801.03
742.639	3934.15
742.824	3876.8
743.01	3753.93
743.195	3794.89
743.38	3725.26
743.565	3737.54
743.75	3577.8
743.935	3604.42
744.12	3856.33
744.305	3344.33
744.49	3610.57
744.675	3448.78
744.86	3485.64
745.045	3661.77
745.23	3508.17
745.415	3522.51
745.6	3700.68
745.785	3456.97
745.97	3467.21
746.155	3413.96
746.34	3612.62
746.525	3385.29
746.71	3542.99
746.895	3227.6
747.079	3385.29
747.264	3307.47
747.449	3348.43
747.634	3162.06
747.819	3342.28
748.003	3196.88
748.188	3190.74
748.373	3198.93
748.557	3190.74
748.742	3241.93
748.927	3000.27
749.111	3065.81
749.296	3194.83
749.481	3172.3
749.665	3074
749.85	2955.22
750.034	3219.41
750.219	3203.02
750.404	2793.43
750.588	2836.44
750.773	2830.29
750.957	3071.95
751.141	2854.87
751.326	2928.6
751.51	2875.35
751.695	2828.24
751.879	2867.16
752.064	2850.77
752.248	2858.96
752.432	3002.32
752.617	2695.13
752.801	2838.48
752.985	2668.5
753.17	2850.77
753.354	2725.85
753.538	2666.46
753.722	2676.7
753.907	2709.46
754.091	2504.67
754.275	2521.05
754.459	2607.06
754.643	2478.04
754.828	2666.46
755.012	2426.84
755.196	2412.51
755.38	2496.47
755.564	2349.02
755.748	2334.68
755.932	2602.97
756.116	2496.47
756.3	2459.61
756.484	2293.72
756.668	2578.39
756.852	2222.05
757.036	2291.68
757.22	2207.71
757.404	2242.53
757.588	2289.63
757.772	2258.91
757.956	2285.53
758.14	2482.14
758.323	2195.42
758.507	2138.08
758.691	2074.59
758.875	2375.64
759.059	2291.68
759.242	2043.87
759.426	2095.07
759.61	2211.81
759.794	1812.45
759.977	2056.16
760.161	2369.5
760.345	2213.85
760.528	2187.23
760.712	1820.64
760.895	1857.51
761.079	2009.06
761.263	1689.57
761.446	1685.48
761.63	1705.96
761.813	1920.99
761.997	1716.2
762.18	1693.67
762.364	1785.83
762.547	1654.76
762.731	1621.99
762.914	1759.21
763.098	1644.52
763.281	1798.12
763.464	1730.53
763.648	1722.34
763.831	1642.47
764.015	1703.91
764.198	1925.09
764.381	1697.77
764.564	1705.96
764.748	1767.4
764.931	1798.12
765.114	1474.54
765.297	1695.72
765.481	1490.92
765.664	1820.64
765.847	1515.5
766.03	1726.44
766.213	1611.75
766.397	1763.3
766.58	1556.46
766.763	1757.16
766.946	1716.2
767.129	1746.92
767.312	1636.33
767.495	1685.48
767.678	1726.44
767.861	1765.35
768.044	1654.76
768.227	1654.76
768.41	1697.77
768.593	1824.74
768.776	1820.64
768.959	1701.86
769.142	1947.62
769.324	1783.78
769.507	1648.61
769.69	1599.46
769.873	1818.6
770.056	1920.99
770.239	1683.43
770.421	1927.14
770.604	1720.29
770.787	1720.29
770.97	1585.13
771.152	1581.03
771.335	1763.3
771.518	1673.19
771.7	1572.84
771.883	1806.31
772.066	1585.13
772.248	1753.06
772.431	1665
772.613	1603.56
772.796	1607.66
772.978	1767.4
773.161	1726.44
773.343	1454.06
773.526	1515.5
773.708	1404.91
773.891	1400.81
774.073	1554.41
774.256	1531.88
774.438	1875.94
774.621	1433.58
774.803	1531.88
774.985	1462.25
775.168	1763.3
775.35	1337.32
775.532	1521.64
775.715	1390.57
775.897	1517.54
776.079	1409
776.261	1343.47
776.444	1533.93
776.626	1286.12
776.808	1386.47
776.99	1167.34
777.173	1492.97
777.355	1433.58
777.537	1376.24
777.719	1376.24
777.901	1259.5
778.083	1306.6
778.265	1073.14
778.447	1417.19
778.629	1337.32
778.811	1322.99
778.993	1245.16
779.175	1363.95
779.357	1226.73
779.539	1122.29
779.721	1220.59
779.903	1155.05
780.085	1202.16
780.267	1337.32
780.449	1185.77
780.631	1251.31
780.812	1472.49
780.994	1165.29
781.176	1095.66
781.358	1105.9
781.54	1116.14
781.721	1292.27
781.903	1028.08
782.085	1075.18
782.267	1357.8
782.448	1007.6
782.63	1093.62
782.812	1126.38
782.993	1234.93
783.175	1128.43
783.357	1019.89
783.538	1128.43
783.72	1056.75
783.901	1075.18
784.083	1093.62
784.264	1112.05
784.446	989.17
784.627	950.26
784.809	1073.14
784.99	819.19
785.172	1054.7
785.353	1089.52
785.535	1003.5
785.716	841.72
785.897	960.5
786.079	972.79
786.26	888.82
786.441	942.07
786.623	808.95
786.804	843.76
786.985	884.72
787.167	909.3
787.348	1034.22
787.529	858.1
787.71	931.83
787.891	897.01
788.073	921.59
788.254	804.85
788.435	974.83
788.616	765.94
788.797	804.85
788.978	813.04
789.159	782.32
789.34	849.91
789.522	937.97
789.703	772.08
789.884	835.57
790.065	933.87
790.246	1107.95
790.427	851.95
790.607	890.87
790.788	935.92
790.969	720.88
791.15	888.82
791.331	759.8
791.512	794.61
791.693	759.8
791.874	870.39
792.054	942.07
792.235	772.08
792.416	712.69
792.597	600.05
792.778	788.47
792.958	733.17
793.139	890.87
793.32	702.45
793.5	565.24
793.681	796.66
793.862	907.25
794.042	720.88
794.223	528.38
794.404	608.25
794.584	581.62
794.765	669.69
794.945	620.53
795.126	690.17
795.306	776.18
795.487	651.25
795.667	542.71
795.848	569.34
796.028	710.65
796.209	669.69
796.389	806.9
796.57	557.05
796.75	534.52
796.93	657.4
797.111	442.36
797.291	600.05
797.471	784.37
797.652	618.49
797.832	471.03
798.012	591.86
798.192	571.38
798.373	417.79
798.553	540.66
798.733	716.79
798.913	495.61
799.093	589.82
799.274	567.29
799.454	638.97
799.634	653.3
799.814	698.36
799.994	571.38
800.174	643.06
800.354	684.02
800.534	446.46
800.714	468.98
800.894	366.59
801.074	352.25
801.254	536.57
801.434	583.67
801.614	354.3
801.794	413.69
801.974	4716.47
802.154	448.51
802.334	606.2
802.514	405.5
802.693	514.04
802.873	432.12
803.053	555
803.233	573.43
803.413	514.04
803.592	417.79
803.772	423.93
803.952	524.28
804.131	425.98
804.311	528.38
804.491	501.75
804.67	450.55
804.85	337.91
805.03	503.8
805.209	729.08
805.389	505.85
805.568	448.51
805.748	454.65
805.928	446.46
806.107	636.92
806.287	647.16
806.466	481.27
806.646	378.87
806.825	522.23
807.004	403.45
807.184	505.85
807.363	485.37
807.543	509.94
807.722	481.27
807.901	530.42
808.081	495.61
808.26	296.96
808.439	546.81
808.619	413.69
808.798	389.11
808.977	573.43
809.156	636.92
809.336	434.17
809.515	456.7
809.694	407.55
809.873	460.79
810.052	417.79
810.231	563.19
810.411	622.58
810.59	532.47
810.769	380.92
810.948	462.84
811.127	282.62
811.306	468.98
811.485	325.63
811.664	516.09
811.843	563.19
812.022	417.79
812.201	376.83
812.38	194.56
812.559	313.34
812.737	464.89
812.916	221.18
813.095	243.71
813.274	497.66
813.453	473.08
813.632	409.59
813.811	409.59
813.989	190.46
814.168	534.52
814.347	172.03
814.526	253.95
814.704	571.38
814.883	624.63
815.062	137.21
815.24	344.06
815.419	161.79
815.598	495.61
815.776	110.59
815.955	206.84
816.133	159.74
816.312	393.21
816.49	309.24
816.669	323.58
816.847	329.72
817.026	393.21
817.204	294.91
817.383	307.2
817.561	317.44
817.74	460.79
817.918	260.09
818.097	215.04
818.275	311.29
818.453	415.74
818.632	382.97
818.81	233.47
818.988	329.72
819.167	235.52
819.345	223.23
819.523	206.84
819.701	448.51
819.879	401.4
820.058	280.57
820.236	143.36
820.414	350.2
820.592	374.78
820.77	247.8
820.948	151.55
821.127	374.78
821.305	409.59
821.483	151.55
821.661	313.34
821.839	376.83
822.017	237.56
822.195	147.45
822.373	235.52
822.551	305.15
822.729	352.25
822.907	153.6
823.085	303.1
823.262	337.91
823.44	243.71
823.618	268.28
823.796	258.04
823.974	286.72
824.152	245.76
824.329	215.04
824.507	286.72
824.685	466.94
824.863	288.76
825.04	251.9
825.218	153.6
825.396	317.44
825.574	317.44
825.751	276.48
825.929	174.08
826.107	141.31
826.284	268.28
826.462	247.8
826.639	161.79
826.817	184.32
826.994	268.28
827.172	116.73
827.349	260.09
827.527	270.33
827.704	370.68
827.882	368.63
828.059	243.71
828.237	247.8
828.414	391.16
828.591	8.19
828.769	186.37
828.946	145.41
829.124	417.79
829.301	360.44
829.478	59.39
829.655	284.67
829.833	311.29
830.01	45.06
830.187	348.15
830.364	368.63
830.542	315.39
830.719	239.61
830.896	260.09
831.073	376.83
831.25	354.3
831.427	221.18
831.604	196.61
831.782	145.41
831.959	274.43
832.136	182.27
832.313	251.9
832.49	217.08
832.667	284.67
832.844	83.97
833.021	288.76
833.198	335.87
833.374	315.39
833.551	151.55
833.728	129.02
833.905	380.92
834.082	94.21
834.259	337.91
834.436	315.39
834.612	206.84
834.789	370.68
834.966	196.61
835.143	206.84
835.319	40.96
835.496	292.86
835.673	223.23
835.85	253.95
836.026	374.78
836.203	370.68
836.38	79.87
836.556	47.1
836.733	157.69
836.909	421.88
837.086	157.69
837.262	18.43
837.439	251.9
837.616	126.97
837.792	258.04
837.968	139.26
838.145	43.01
838.321	311.29
838.498	77.82
838.674	276.48
838.851	311.29
839.027	180.22
839.203	159.74
839.38	264.19
839.556	301.05
839.732	397.31
839.909	126.97
840.085	57.34
840.261	165.89
840.437	303.1
840.614	151.55
840.79	239.61
840.966	280.57
841.142	292.86
841.318	145.41
841.494	190.46
841.671	296.96
841.847	75.77
842.023	14.34
842.199	92.16
842.375	452.6
842.551	-34.82
842.727	137.21
842.903	266.24
843.079	202.75
843.255	466.94
843.431	169.98
843.607	204.8
843.783	-45.06
843.959	284.67
844.134	139.26
844.31	317.44
844.486	237.56
844.662	176.13
844.838	202.75
845.013	100.35
845.189	356.35
845.365	200.7
845.541	94.21
845.716	235.52
845.892	309.24
846.068	116.73
846.244	90.11
846.419	81.92
846.595	141.31
846.77	98.3
846.946	241.66
847.122	73.73
847.297	114.69
847.473	454.65
847.648	-47.1
847.824	79.87
847.999	-49.15
848.175	231.42
848.35	204.8
848.526	258.04
848.701	450.55
848.876	249.85
849.052	294.91
849.227	122.88
849.403	221.18
849.578	231.42
849.753	219.13
849.929	65.53
850.104	71.68
850.279	194.56
850.454	92.16
850.63	178.17
850.805	311.29
850.98	288.76
851.155	83.97
851.33	182.27
851.505	26.62
851.681	370.68
851.856	77.82
852.031	151.55
852.206	161.79
852.381	169.98
852.556	165.89
852.731	59.39
852.906	344.06
853.081	272.38
853.256	309.24
853.431	43.01
853.606	106.49
853.781	43.01
853.956	-4.1
854.131	163.84
854.305	88.06
854.48	180.22
854.655	6.14
854.83	75.77
855.005	235.52
855.18	258.04
855.354	159.74
855.529	34.82
855.704	145.41
855.879	221.18
856.053	34.82
856.228	184.32
856.403	12.29
856.577	301.05
856.752	20.48
856.926	102.4
857.101	270.33
857.276	47.1
857.45	180.22
857.625	169.98
857.799	217.08
857.974	210.94
858.148	6.14
858.323	79.87
858.497	131.07
858.672	192.51
858.846	36.86
859.02	196.61
859.195	63.49
859.369	149.5
859.543	206.84
859.718	120.83
859.892	260.09
860.066	235.52
860.241	63.49
860.415	45.06
860.589	231.42
860.763	122.88
860.938	116.73
861.112	112.64
861.286	112.64
861.46	200.7
861.634	169.98
861.808	126.97
861.982	88.06
862.157	69.63
862.331	167.93
862.505	-49.15
862.679	20.48
862.853	16.38
863.027	110.59
863.201	106.49
863.375	114.69
863.549	157.69
863.722	159.74
863.896	110.59
864.07	92.16
864.244	145.41
864.418	153.6
864.592	49.15
864.766	178.17
864.939	208.89
865.113	38.91
865.287	247.8
865.461	-2.05
865.634	196.61
865.808	49.15
865.982	-32.77
866.156	55.3
866.329	-30.72
866.503	118.78
866.676	126.97
866.85	239.61
867.024	81.92
867.197	196.61
867.371	141.31
867.544	309.24
867.718	-57.34
867.891	221.18
868.065	-59.39
868.238	141.31
868.412	245.76
868.585	145.41
868.759	75.77
868.932	126.97
869.105	-10.24
869.279	190.46
869.452	10.24
869.625	251.9
869.799	69.63
869.972	34.82
870.145	55.3
870.319	233.47
870.492	43.01
870.665	145.41
870.838	55.3
871.011	-194.56
871.185	104.45
871.358	172.03
871.531	227.32
871.704	161.79
871.877	151.55
872.05	24.58
872.223	-10.24
872.396	274.43
872.569	135.17
872.742	-34.82
872.915	182.27
873.088	40.96
873.261	45.06
873.434	208.89
873.607	8.19
873.78	325.63
873.953	53.25
874.126	155.65
874.299	110.59
874.471	112.64
874.644	114.69
874.817	194.56
874.99	344.06
875.163	92.16
875.335	116.73
875.508	22.53
875.681	200.7
875.853	129.02
876.026	223.23
876.199	169.98
876.371	18.43
876.544	98.3
876.717	137.21
876.889	51.2
877.062	96.25
877.234	40.96
877.407	32.77
877.579	112.64
877.752	90.11
877.924	262.14
878.097	147.45
878.269	83.97
878.442	143.36
878.614	264.19
878.786	202.75
878.959	47.1
879.131	110.59
879.303	-110.59
879.476	-8.19
879.648	167.93
879.82	6.14
879.993	178.17
880.165	22.53
880.337	-40.96
880.509	161.79
880.681	-61.44
880.854	49.15
881.026	204.8
881.198	172.03
881.37	131.07
881.542	139.26
881.714	104.45
881.886	98.3
882.058	92.16
882.23	210.94
882.402	30.72
882.574	266.24
882.746	284.67
882.918	276.48
883.09	112.64
883.262	100.35
883.434	251.9
883.606	-16.38
883.778	67.58
883.95	139.26
884.122	88.06
884.293	303.1
884.465	81.92
884.637	114.69
884.809	-30.72
884.98	157.69
885.152	145.41
885.324	147.45
885.496	-26.62
885.667	-4.1
885.839	18.43
886.011	40.96
886.182	247.8
886.354	319.48
886.525	81.92
886.697	-26.62
886.869	6.14
887.04	129.02
887.212	249.85
887.383	243.71
887.555	174.08
887.726	90.11
887.897	73.73
888.069	49.15
888.24	327.68
888.412	137.21
888.583	20.48
888.754	73.73
888.926	-65.53
889.097	43.01
889.268	-49.15
889.44	32.77
889.611	-55.3
889.782	-10.24
889.953	-141.31
890.125	172.03
890.296	63.49
890.467	26.62
890.638	53.25
890.809	38.91
890.98	-8.19
891.151	221.18
891.323	215.04
891.494	0
891.665	174.08
891.836	149.5
892.007	4.1
892.178	73.73
892.349	157.69
892.52	-16.38
892.691	47.1
892.862	-32.77
893.032	-73.73
893.203	71.68
893.374	120.83
893.545	161.79
893.716	30.72
893.887	278.52
894.057	59.39
894.228	90.11
894.399	-34.82
894.57	260.09
894.74	40.96
894.911	122.88
895.082	116.73
895.253	12.29
895.423	88.06
895.594	206.84
895.764	219.13
895.935	10.24
896.106	20.48
896.276	55.3
896.447	260.09
896.617	-2.05
896.788	-53.25
896.958	-88.06
897.129	77.82
897.299	38.91
897.47	247.8
897.64	122.88
897.81	55.3
897.981	163.84
898.151	55.3
898.322	116.73
898.492	135.17
898.662	92.16
898.832	-22.53
899.003	-22.53
899.173	268.28
899.343	26.62
899.513	4.1
