Data from USB4F104151__71__09-29-40-593.txt Node

Date: Wed Feb 26 09:29:40 EST 2025
User: louis
Spectrometer: USB4F10415
Trigger mode: 4
Integration Time (sec): 1.000000E-1
Scans to average: 1
Electric dark correction enabled: true
Nonlinearity correction enabled: false
Boxcar width: 0
XAxis mode: Wavelengths
Number of Pixels in Spectrum: 3648
>>>>>Begin Spectral Data<<<<<
178.204	-308.56
178.424	-308.56
178.644	-308.56
178.864	-310.61
179.084	-361.81
179.304	2.73
179.524	-30.04
179.744	-21.85
179.964	-9.56
180.184	17.07
180.404	60.07
180.624	-13.65
180.844	-1.37
181.064	-27.99
181.283	37.55
181.503	-15.7
181.723	2.73
181.943	-66.9
182.163	164.52
182.383	-1.37
182.602	51.88
182.822	109.22
183.042	51.88
183.262	-103.76
183.482	6.83
183.701	8.87
183.921	27.31
184.141	-48.47
184.361	92.84
184.58	17.07
184.8	37.55
185.02	-54.61
185.239	146.09
185.459	-13.65
185.679	58.03
185.898	-73.04
186.118	-1.37
186.338	2.73
186.557	72.36
186.777	84.65
186.997	6.83
187.216	2.73
187.436	215.72
187.655	49.83
187.875	137.9
188.095	10.92
188.314	121.51
188.534	-19.8
188.753	-21.85
188.973	113.32
189.192	158.38
189.412	55.98
189.631	35.5
189.851	10.92
190.07	203.43
190.29	-1.37
190.509	0.68
190.729	88.75
190.948	86.7
191.168	225.96
191.387	80.55
191.607	-15.7
191.826	64.17
192.045	43.69
192.265	-7.51
192.484	76.46
192.704	4.78
192.923	29.35
193.142	125.61
193.362	92.84
193.581	144.04
193.8	-38.23
194.02	43.69
194.239	31.4
194.458	68.27
194.678	47.79
194.897	66.22
195.116	74.41
195.335	-15.7
195.555	58.03
195.774	-25.94
195.993	12.97
196.212	60.07
196.432	47.79
196.651	25.26
196.87	-48.47
197.089	283.3
197.308	88.75
197.528	68.27
197.747	-60.76
197.966	43.69
198.185	141.99
198.404	78.51
198.623	105.13
198.842	64.17
199.062	96.94
199.281	152.23
199.5	-27.99
199.719	37.55
199.938	111.27
200.157	133.8
200.376	19.11
200.595	127.66
200.814	25.26
201.033	80.55
201.252	119.46
201.471	96.94
201.69	148.14
201.909	-17.75
202.128	80.55
202.347	35.5
202.566	58.03
202.785	-71
203.004	0.68
203.223	199.34
203.442	35.5
203.661	-17.75
203.879	88.75
204.098	92.84
204.317	17.07
204.536	113.32
204.755	55.98
204.974	49.83
205.193	55.98
205.411	191.14
205.63	96.94
205.849	88.75
206.068	2.73
206.287	47.79
206.505	78.51
206.724	53.93
206.943	29.35
207.162	19.11
207.381	92.84
207.599	43.69
207.818	47.79
208.037	-1.37
208.255	60.07
208.474	-11.61
208.693	98.99
208.911	-15.7
209.13	129.7
209.349	78.51
209.567	51.88
209.786	60.07
210.005	131.75
210.223	47.79
210.442	-50.52
210.661	94.89
210.879	74.41
211.098	-38.23
211.316	96.94
211.535	129.7
211.753	8.87
211.972	101.03
212.191	-1.37
212.409	94.89
212.628	68.27
212.846	-62.8
213.065	49.83
213.283	88.75
213.502	-52.56
213.72	101.03
213.938	72.36
214.157	10.92
214.375	80.55
214.594	31.4
214.812	68.27
215.031	19.11
215.249	103.08
215.467	96.94
215.686	33.45
215.904	51.88
216.122	60.07
216.341	135.85
216.559	23.21
216.778	51.88
216.996	129.7
217.214	19.11
217.432	-30.04
217.651	-48.47
217.869	25.26
218.087	19.11
218.306	62.12
218.524	82.6
218.742	17.07
218.96	17.07
219.179	-52.56
219.397	66.22
219.615	156.33
219.833	10.92
220.051	19.11
220.27	109.22
220.488	60.07
220.706	25.26
220.924	25.26
221.142	-9.56
221.36	72.36
221.578	123.56
221.796	33.45
222.015	49.83
222.233	88.75
222.451	250.53
222.669	-128.34
222.887	146.09
223.105	23.21
223.323	-9.56
223.541	47.79
223.759	80.55
223.977	45.74
224.195	135.85
224.413	70.31
224.631	19.11
224.849	109.22
225.067	101.03
225.285	15.02
225.503	-38.23
225.721	-95.57
225.939	31.4
226.157	41.64
226.375	236.2
226.592	-17.75
226.81	43.69
227.028	76.46
227.246	90.79
227.464	76.46
227.682	90.79
227.9	107.18
228.117	27.31
228.335	74.41
228.553	51.88
228.771	27.31
228.989	17.07
229.206	58.03
229.424	92.84
229.642	51.88
229.86	-13.65
230.077	109.22
230.295	21.16
230.513	133.8
230.731	58.03
230.948	158.38
231.166	107.18
231.384	15.02
231.601	25.26
231.819	158.38
232.037	-3.41
232.254	-71
232.472	35.5
232.689	-15.7
232.907	139.94
233.125	6.83
233.342	-17.75
233.56	-38.23
233.777	43.69
233.995	-38.23
234.213	119.46
234.43	74.41
234.648	70.31
234.865	-5.46
235.083	68.27
235.3	76.46
235.518	115.37
235.735	60.07
235.953	88.75
236.17	47.79
236.388	10.92
236.605	84.65
236.822	172.71
237.04	98.99
237.257	-7.51
237.475	4.78
237.692	119.46
237.909	64.17
238.127	-60.76
238.344	0.68
238.562	55.98
238.779	-75.09
238.996	-73.04
239.214	49.83
239.431	68.27
239.648	23.21
239.865	96.94
240.083	117.42
240.3	4.78
240.517	-21.85
240.735	51.88
240.952	133.8
241.169	101.03
241.386	121.51
241.603	-75.09
241.821	-13.65
242.038	129.7
242.255	64.17
242.472	-32.08
242.689	27.31
242.907	98.99
243.124	10.92
243.341	2.73
243.558	41.64
243.775	-38.23
243.992	-3.41
244.209	146.09
244.426	146.09
244.643	19.11
244.86	-15.7
245.078	78.51
245.295	2.73
245.512	60.07
245.729	19.11
245.946	125.61
246.163	74.41
246.38	10.92
246.597	45.74
246.814	4.78
247.031	2.73
247.248	-5.46
247.464	84.65
247.681	49.83
247.898	19.11
248.115	66.22
248.332	-13.65
248.549	146.09
248.766	121.51
248.983	92.84
249.2	27.31
249.417	133.8
249.633	-30.04
249.85	47.79
250.067	27.31
250.284	76.46
250.501	96.94
250.717	35.5
250.934	-34.13
251.151	17.07
251.368	31.4
251.585	125.61
251.801	17.07
252.018	-17.75
252.235	133.8
252.451	-79.19
252.668	49.83
252.885	117.42
253.102	55.98
253.318	-15.7
253.535	-21.85
253.752	-42.32
253.968	-30.04
254.185	-50.52
254.401	72.36
254.618	74.41
254.835	-30.04
255.051	141.99
255.268	146.09
255.484	53.93
255.701	19.11
255.917	72.36
256.134	39.59
256.351	-21.85
256.567	-5.46
256.784	55.98
257	-15.7
257.217	115.37
257.433	58.03
257.65	4.78
257.866	141.99
258.082	-30.04
258.299	35.5
258.515	58.03
258.732	-13.65
258.948	-58.71
259.165	-15.7
259.381	17.07
259.597	51.88
259.814	10.92
260.03	35.5
260.246	-25.94
260.463	70.31
260.679	125.61
260.895	-7.51
261.112	68.27
261.328	21.16
261.544	-5.46
261.761	144.04
261.977	-13.65
262.193	-48.47
262.409	25.26
262.626	84.65
262.842	-54.61
263.058	53.93
263.274	53.93
263.49	90.79
263.707	76.46
263.923	55.98
264.139	-46.42
264.355	49.83
264.571	109.22
264.787	58.03
265.004	117.42
265.22	-19.8
265.436	94.89
265.652	23.21
265.868	-19.8
266.084	-66.9
266.3	88.75
266.516	-32.08
266.732	-13.65
266.948	51.88
267.164	12.97
267.38	137.9
267.596	84.65
267.812	203.43
268.028	58.03
268.244	-50.52
268.46	98.99
268.676	72.36
268.892	98.99
269.108	25.26
269.324	-48.47
269.54	-30.04
269.756	53.93
269.972	-23.89
270.188	-71
270.403	-25.94
270.619	-32.08
270.835	23.21
271.051	-38.23
271.267	-17.75
271.483	-9.56
271.698	84.65
271.914	84.65
272.13	113.32
272.346	33.45
272.562	86.7
272.777	154.28
272.993	111.27
273.209	-5.46
273.425	76.46
273.64	-83.28
273.856	74.41
274.072	-66.9
274.287	31.4
274.503	31.4
274.719	66.22
274.934	60.07
275.15	-27.99
275.366	-34.13
275.581	27.31
275.797	53.93
276.012	84.65
276.228	-66.9
276.444	47.79
276.659	176.81
276.875	-34.13
277.09	39.59
277.306	-34.13
277.521	113.32
277.737	72.36
277.952	86.7
278.168	111.27
278.383	68.27
278.599	49.83
278.814	101.03
279.03	4.78
279.245	123.56
279.461	49.83
279.676	80.55
279.892	-116.05
280.107	-21.85
280.322	-32.08
280.538	51.88
280.753	0.68
280.969	47.79
281.184	2.73
281.399	101.03
281.615	27.31
281.83	92.84
282.045	-56.66
282.26	-64.85
282.476	29.35
282.691	86.7
282.906	60.07
283.122	115.37
283.337	-50.52
283.552	49.83
283.767	-13.65
283.983	197.29
284.198	-9.56
284.413	43.69
284.628	-38.23
284.843	41.64
285.058	62.12
285.274	35.5
285.489	-75.09
285.704	68.27
285.919	31.4
286.134	33.45
286.349	70.31
286.564	109.22
286.779	109.22
286.995	15.02
287.21	-93.52
287.425	31.4
287.64	53.93
287.855	62.12
288.07	-95.57
288.285	127.66
288.5	123.56
288.715	146.09
288.93	-32.08
289.145	58.03
289.36	107.18
289.575	-15.7
289.79	80.55
290.004	-30.04
290.219	133.8
290.434	-32.08
290.649	-30.04
290.864	51.88
291.079	-71
291.294	43.69
291.509	47.79
291.724	31.4
291.938	33.45
292.153	88.75
292.368	6.83
292.583	10.92
292.798	74.41
293.012	43.69
293.227	62.12
293.442	4.78
293.657	139.94
293.871	41.64
294.086	129.7
294.301	170.66
294.516	148.14
294.73	82.6
294.945	-15.7
295.16	21.16
295.374	27.31
295.589	39.59
295.804	-9.56
296.018	47.79
296.233	70.31
296.447	-46.42
296.662	-27.99
296.877	92.84
297.091	119.46
297.306	39.59
297.52	10.92
297.735	47.79
297.949	47.79
298.164	35.5
298.378	64.17
298.593	-46.42
298.807	-34.13
299.022	76.46
299.236	105.13
299.451	-19.8
299.665	41.64
299.88	0.68
300.094	113.32
300.309	-46.42
300.523	39.59
300.737	-54.61
300.952	96.94
301.166	47.79
301.381	-21.85
301.595	19.11
301.809	33.45
302.024	-1.37
302.238	6.83
302.452	129.7
302.667	0.68
302.881	170.66
303.095	152.23
303.309	107.18
303.524	2.73
303.738	35.5
303.952	-38.23
304.166	117.42
304.381	-173.39
304.595	23.21
304.809	8.87
305.023	92.84
305.237	27.31
305.452	10.92
305.666	60.07
305.88	55.98
306.094	74.41
306.308	101.03
306.522	51.88
306.736	94.89
306.95	111.27
307.164	-1.37
307.379	-34.13
307.593	109.22
307.807	84.65
308.021	58.03
308.235	115.37
308.449	-54.61
308.663	43.69
308.877	137.9
309.091	15.02
309.305	53.93
309.519	-66.9
309.733	121.51
309.947	-30.04
310.161	141.99
310.374	92.84
310.588	78.51
310.802	43.69
311.016	33.45
311.23	107.18
311.444	-11.61
311.658	-9.56
311.872	125.61
312.085	125.61
312.299	115.37
312.513	92.84
312.727	72.36
312.941	-36.18
313.154	2.73
313.368	2.73
313.582	19.11
313.796	35.5
314.009	31.4
314.223	123.56
314.437	0.68
314.651	129.7
314.864	17.07
315.078	31.4
315.292	6.83
315.505	-66.9
315.719	64.17
315.933	39.59
316.146	-21.85
316.36	-42.32
316.573	62.12
316.787	49.83
317.001	55.98
317.214	-30.04
317.428	2.73
317.641	-75.09
317.855	68.27
318.068	-40.28
318.282	74.41
318.495	160.42
318.709	41.64
318.922	10.92
319.136	119.46
319.349	107.18
319.563	-75.09
319.776	90.79
319.99	-66.9
320.203	19.11
320.417	17.07
320.63	78.51
320.843	172.71
321.057	27.31
321.27	123.56
321.483	45.74
321.697	111.27
321.91	88.75
322.124	90.79
322.337	10.92
322.55	-15.7
322.763	-73.04
322.977	62.12
323.19	2.73
323.403	43.69
323.617	80.55
323.83	174.76
324.043	15.02
324.256	129.7
324.469	-62.8
324.683	92.84
324.896	58.03
325.109	84.65
325.322	-38.23
325.535	58.03
325.748	64.17
325.962	19.11
326.175	4.78
326.388	78.51
326.601	115.37
326.814	-25.94
327.027	41.64
327.24	129.7
327.453	21.16
327.666	68.27
327.879	94.89
328.092	94.89
328.305	33.45
328.518	-71
328.731	39.59
328.944	33.45
329.157	101.03
329.37	-83.28
329.583	178.86
329.796	133.8
330.009	8.87
330.222	60.07
330.435	45.74
330.648	25.26
330.861	43.69
331.073	6.83
331.286	-21.85
331.499	-75.09
331.712	-75.09
331.925	-23.89
332.138	-7.51
332.35	144.04
332.563	-50.52
332.776	105.13
332.989	-21.85
333.202	47.79
333.414	12.97
333.627	15.02
333.84	70.31
334.053	68.27
334.265	-23.89
334.478	21.16
334.691	-19.8
334.903	27.31
335.116	2.73
335.329	-5.46
335.541	47.79
335.754	152.23
335.966	55.98
336.179	-46.42
336.392	103.08
336.604	6.83
336.817	68.27
337.029	4.78
337.242	51.88
337.454	72.36
337.667	43.69
337.88	90.79
338.092	80.55
338.305	105.13
338.517	49.83
338.729	33.45
338.942	74.41
339.154	29.35
339.367	31.4
339.579	72.36
339.792	-54.61
340.004	43.69
340.217	62.12
340.429	-17.75
340.641	-40.28
340.854	-7.51
341.066	-13.65
341.278	117.42
341.491	139.94
341.703	80.55
341.915	-21.85
342.128	23.21
342.34	41.64
342.552	-58.71
342.764	96.94
342.977	-7.51
343.189	-13.65
343.401	117.42
343.613	-52.56
343.826	49.83
344.038	15.02
344.25	41.64
344.462	-56.66
344.674	66.22
344.886	39.59
345.099	55.98
345.311	121.51
345.523	47.79
345.735	-99.67
345.947	68.27
346.159	68.27
346.371	29.35
346.583	-40.28
346.795	98.99
347.007	68.27
347.219	6.83
347.431	70.31
347.643	101.03
347.855	45.74
348.067	139.94
348.279	-15.7
348.491	-17.75
348.703	98.99
348.915	-9.56
349.127	10.92
349.339	12.97
349.551	51.88
349.763	137.9
349.975	35.5
350.187	43.69
350.399	86.7
350.61	113.32
350.822	2.73
351.034	33.45
351.246	109.22
351.458	41.64
351.669	35.5
351.881	166.57
352.093	123.56
352.305	74.41
352.517	49.83
352.728	82.6
352.94	41.64
353.152	92.84
353.363	8.87
353.575	70.31
353.787	148.14
353.999	35.5
354.21	121.51
354.422	2.73
354.633	49.83
354.845	31.4
355.057	27.31
355.268	-15.7
355.48	64.17
355.692	8.87
355.903	39.59
356.115	-5.46
356.326	-32.08
356.538	127.66
356.749	35.5
356.961	203.43
357.172	10.92
357.384	-17.75
357.595	172.71
357.807	-1.37
358.018	-34.13
358.23	-32.08
358.441	191.14
358.653	78.51
358.864	29.35
359.075	-40.28
359.287	31.4
359.498	76.46
359.709	123.56
359.921	-9.56
360.132	-3.41
360.344	2.73
360.555	58.03
360.766	29.35
360.977	92.84
361.189	127.66
361.4	92.84
361.611	111.27
361.823	82.6
362.034	94.89
362.245	-85.33
362.456	-58.71
362.667	64.17
362.879	-36.18
363.09	66.22
363.301	2.73
363.512	27.31
363.723	35.5
363.935	-48.47
364.146	82.6
364.357	-21.85
364.568	113.32
364.779	-103.76
364.99	107.18
365.201	0.68
365.412	78.51
365.623	-38.23
365.834	53.93
366.045	-5.46
366.256	-30.04
366.467	68.27
366.678	72.36
366.889	15.02
367.1	35.5
367.311	121.51
367.522	19.11
367.733	92.84
367.944	131.75
368.155	-9.56
368.366	117.42
368.577	115.37
368.788	139.94
368.999	-81.24
369.209	8.87
369.42	264.87
369.631	246.44
369.842	90.79
370.053	-23.89
370.264	125.61
370.474	-46.42
370.685	98.99
370.896	-13.65
371.107	90.79
371.317	80.55
371.528	-54.61
371.739	154.28
371.95	64.17
372.16	156.33
372.371	-50.52
372.582	-21.85
372.792	92.84
373.003	64.17
373.214	58.03
373.424	131.75
373.635	-21.85
373.846	195.24
374.056	-5.46
374.267	15.02
374.477	23.21
374.688	31.4
374.898	68.27
375.109	49.83
375.319	-52.56
375.53	82.6
375.74	62.12
375.951	-36.18
376.161	45.74
376.372	174.76
376.582	41.64
376.793	146.09
377.003	-54.61
377.214	-40.28
377.424	23.21
377.635	80.55
377.845	-17.75
378.055	86.7
378.266	-46.42
378.476	6.83
378.686	66.22
378.897	60.07
379.107	101.03
379.317	31.4
379.528	60.07
379.738	47.79
379.948	-58.71
380.158	105.13
380.369	76.46
380.579	43.69
380.789	-58.71
380.999	70.31
381.21	146.09
381.42	215.72
381.63	0.68
381.84	129.7
382.05	90.79
382.261	92.84
382.471	101.03
382.681	2.73
382.891	64.17
383.101	66.22
383.311	-9.56
383.521	-1.37
383.731	113.32
383.941	109.22
384.151	-32.08
384.361	8.87
384.571	41.64
384.781	51.88
384.991	121.51
385.201	154.28
385.411	133.8
385.621	51.88
385.831	68.27
386.041	43.69
386.251	62.12
386.461	41.64
386.671	-9.56
386.881	129.7
387.091	41.64
387.301	51.88
387.511	35.5
387.72	115.37
387.93	6.83
388.14	-46.42
388.35	39.59
388.56	72.36
388.769	92.84
388.979	37.55
389.189	-25.94
389.399	39.59
389.609	117.42
389.818	76.46
390.028	90.79
390.238	92.84
390.447	-36.18
390.657	90.79
390.867	-34.13
391.076	-75.09
391.286	107.18
391.496	4.78
391.705	-21.85
391.915	101.03
392.125	113.32
392.334	-21.85
392.544	182.95
392.753	23.21
392.963	2.73
393.172	96.94
393.382	21.16
393.591	158.38
393.801	-11.61
394.01	103.08
394.22	43.69
394.429	-71
394.639	-56.66
394.848	103.08
395.058	55.98
395.267	19.11
395.477	94.89
395.686	68.27
395.895	154.28
396.105	101.03
396.314	41.64
396.524	31.4
396.733	10.92
396.942	96.94
397.152	-21.85
397.361	109.22
397.57	27.31
397.78	74.41
397.989	49.83
398.198	129.7
398.407	43.69
398.617	45.74
398.826	47.79
399.035	27.31
399.244	139.94
399.453	139.94
399.663	-36.18
399.872	10.92
400.081	12.97
400.29	127.66
400.499	10.92
400.708	86.7
400.917	33.45
401.127	23.21
401.336	-19.8
401.545	113.32
401.754	137.9
401.963	37.55
402.172	47.79
402.381	74.41
402.59	41.64
402.799	45.74
403.008	68.27
403.217	103.08
403.426	70.31
403.635	-15.7
403.844	72.36
404.053	47.79
404.262	-13.65
404.471	141.99
404.68	43.69
404.888	21.16
405.097	64.17
405.306	-1.37
405.515	41.64
405.724	76.46
405.933	78.51
406.142	17.07
406.35	82.6
406.559	51.88
406.768	84.65
406.977	96.94
407.185	25.26
407.394	115.37
407.603	-38.23
407.812	141.99
408.02	45.74
408.229	47.79
408.438	47.79
408.646	8.87
408.855	12.97
409.064	76.46
409.272	4.78
409.481	111.27
409.69	-44.37
409.898	-23.89
410.107	113.32
410.315	125.61
410.524	-9.56
410.733	29.35
410.941	60.07
411.15	64.17
411.358	88.75
411.567	152.23
411.775	23.21
411.984	-7.51
412.192	90.79
412.401	58.03
412.609	113.32
412.818	115.37
413.026	88.75
413.234	60.07
413.443	-13.65
413.651	-17.75
413.86	58.03
414.068	232.1
414.276	180.9
414.485	68.27
414.693	39.59
414.901	105.13
415.11	58.03
415.318	35.5
415.526	-19.8
415.734	33.45
415.943	35.5
416.151	195.24
416.359	49.83
416.567	43.69
416.776	88.75
416.984	51.88
417.192	139.94
417.4	64.17
417.608	29.35
417.817	70.31
418.025	109.22
418.233	150.18
418.441	-11.61
418.649	-13.65
418.857	84.65
419.065	98.99
419.273	8.87
419.481	92.84
419.689	-23.89
419.897	-9.56
420.105	-60.76
420.313	64.17
420.521	201.38
420.729	68.27
420.937	43.69
421.145	8.87
421.353	68.27
421.561	135.85
421.769	105.13
421.977	-56.66
422.185	133.8
422.393	47.79
422.601	111.27
422.809	41.64
423.017	0.68
423.224	113.32
423.432	-3.41
423.64	-19.8
423.848	225.96
424.056	41.64
424.263	125.61
424.471	82.6
424.679	203.43
424.887	-5.46
425.094	107.18
425.302	55.98
425.51	74.41
425.718	53.93
425.925	66.22
426.133	-21.85
426.341	125.61
426.548	-34.13
426.756	-60.76
426.964	101.03
427.171	19.11
427.379	131.75
427.586	115.37
427.794	131.75
428.001	146.09
428.209	60.07
428.417	166.57
428.624	129.7
428.832	141.99
429.039	43.69
429.247	166.57
429.454	51.88
429.662	156.33
429.869	133.8
430.076	135.85
430.284	139.94
430.491	146.09
430.699	187.05
430.906	158.38
431.114	139.94
431.321	68.27
431.528	64.17
431.736	58.03
431.943	92.84
432.15	166.57
432.358	150.18
432.565	205.48
432.772	-13.65
432.979	193.19
433.187	115.37
433.394	178.86
433.601	70.31
433.808	168.62
434.016	213.67
434.223	185
434.43	68.27
434.637	203.43
434.844	150.18
435.052	187.05
435.259	176.81
435.466	228.01
435.673	273.06
435.88	164.52
436.087	230.06
436.294	311.97
436.501	244.39
436.708	213.67
436.915	195.24
437.122	246.44
437.329	228.01
437.537	287.4
437.743	295.59
437.95	330.41
438.157	303.78
438.364	314.02
438.571	342.69
438.778	279.21
438.985	410.28
439.192	350.89
439.399	318.12
439.606	424.61
439.813	455.33
440.02	510.63
440.227	510.63
440.433	455.33
440.64	510.63
440.847	352.93
441.054	406.18
441.261	613.03
441.467	471.72
441.674	459.43
441.881	488.1
442.088	434.85
442.294	570.02
442.501	561.83
442.708	672.42
442.914	508.58
443.121	656.03
443.328	699.04
443.534	668.32
443.741	772.77
443.948	582.31
444.154	776.86
444.361	938.65
444.568	965.28
444.774	826.01
444.981	817.82
445.187	918.17
445.394	926.36
445.6	897.69
445.807	1030.81
446.013	975.52
446.22	940.7
446.426	1112.73
446.633	1139.35
446.839	1268.38
447.046	1059.48
447.252	1319.57
447.459	1305.24
447.665	1280.66
447.871	1448.6
448.078	1553.04
448.284	1469.08
448.491	1591.95
448.697	1704.59
448.903	1639.06
449.11	1669.78
449.316	1620.63
449.522	1897.1
449.728	1893.01
449.935	2003.6
450.141	1850
450.347	2040.46
450.553	2083.47
450.76	2126.47
450.966	2196.11
451.172	2345.61
451.378	2396.81
451.584	2570.88
451.791	2740.86
451.997	2830.98
452.203	2615.94
452.409	2794.11
452.615	2996.86
452.821	2884.22
453.027	2992.76
453.233	3461.75
453.44	3158.65
453.646	3377.78
453.852	3619.44
454.058	3646.07
454.264	3738.23
454.47	3992.17
454.676	3965.55
454.882	4555.37
455.088	4092.52
455.294	4493.93
455.5	4717.15
455.705	5038.69
455.911	4989.53
456.117	5190.24
456.323	5405.27
456.529	5497.43
456.735	5835.35
456.941	6052.43
457.147	6191.69
457.352	6373.96
457.558	6775.36
457.764	6965.82
457.97	7326.27
458.176	7277.12
458.381	7721.52
458.587	8016.43
458.793	8391.21
458.999	8254
459.204	9378.33
459.41	9527.83
459.616	9501.21
459.821	10250.77
460.027	10500.62
460.233	10994.18
460.438	11176.45
460.644	11676.15
460.85	11846.13
461.055	12306.93
461.261	12804.58
461.466	12831.21
461.672	12849.64
461.878	14326.22
462.083	14236.11
462.289	14490.06
462.494	14969.29
462.7	15192.51
462.905	15204.8
463.111	16435.63
463.316	17340.83
463.522	17953.18
463.727	18266.52
463.932	18956.68
464.138	19736.96
464.343	20408.69
464.549	20457.84
464.754	22094.17
464.959	22759.76
465.165	22927.69
465.37	22974.8
465.575	22796.62
465.781	24572.21
465.986	25325.86
466.191	25033
466.397	25252.14
466.602	24330.55
466.807	26038.56
467.012	26239.26
467.218	26857.74
467.423	26702.1
467.628	27599.11
467.833	29024.5
468.038	28369.15
468.244	28094.72
468.449	29421.8
468.654	28848.37
468.859	28821.75
469.064	29087.98
469.269	28119.29
469.474	28469.5
469.679	29315.31
469.885	28399.87
470.09	28985.58
470.295	29343.98
470.5	28578.04
470.705	29026.54
470.91	28035.33
471.115	27943.17
471.32	28377.34
471.525	27920.64
471.73	27113.74
471.935	26968.34
472.139	25807.14
472.344	26239.26
472.549	25839.9
472.754	25542.95
472.959	24774.96
473.164	23884.09
473.369	23761.22
473.574	24533.3
473.778	23675.2
473.983	23546.18
474.188	23347.53
474.393	21780.83
474.598	21815.65
474.802	21471.59
475.007	21281.13
475.212	20941.16
475.417	20097.4
475.621	20189.56
475.826	19894.65
476.031	19145.09
476.235	18819.47
476.44	19161.48
476.645	18350.48
476.849	18211.22
477.054	17723.8
477.259	17146.28
477.463	17641.89
477.668	17099.17
477.872	17017.26
478.077	16398.77
478.282	16028.09
478.486	16230.83
478.691	15864.25
478.895	15284.67
479.1	15387.07
479.304	15374.78
479.509	14774.73
479.713	15108.55
479.918	14459.34
480.122	14379.47
480.326	14406.09
480.531	14285.26
480.735	14172.63
480.94	13900.25
481.144	14479.82
481.348	13812.18
481.553	13801.94
481.757	13316.58
481.961	13369.82
482.166	13375.97
482.37	13296.1
482.574	13177.31
482.778	13246.94
482.983	12982.76
483.187	12909.03
483.391	12806.63
483.595	12491.24
483.8	12388.85
484.004	12384.75
484.208	12739.05
484.412	12345.84
484.616	12159.47
484.821	12112.37
485.025	11549.18
485.229	11649.53
485.433	11592.19
485.637	11387.39
485.841	11123.2
486.045	11368.96
486.249	11092.48
486.453	10816.01
486.657	10746.37
486.861	10643.98
487.065	10271.25
487.269	10234.38
487.473	9781.78
487.677	10144.27
487.881	10152.46
488.085	9632.28
488.289	9566.74
488.493	9208.35
488.697	9183.77
488.901	9126.43
489.105	8768.04
489.309	8796.71
489.512	8747.56
489.716	8489.51
489.92	8102.45
490.124	8219.18
490.328	8018.48
490.531	7860.79
490.735	7717.43
490.939	7592.5
491.143	7582.26
491.346	7287.36
491.55	7150.14
491.754	7182.91
491.958	7115.33
492.161	6881.86
492.365	6785.6
492.569	6744.64
492.772	6593.09
492.976	6449.74
493.18	6343.24
493.383	6242.89
493.587	6355.53
493.79	6183.5
493.994	5964.37
494.197	6130.25
494.401	6040.14
494.605	5753.43
494.808	5851.73
495.012	5704.28
495.215	5794.39
495.419	5800.53
495.622	5759.57
495.825	5622.36
496.029	5626.45
496.232	5569.11
496.436	5479
496.639	5610.07
496.843	5567.06
497.046	5440.09
497.249	5773.91
497.453	5608.02
497.656	5515.86
497.859	5569.11
498.063	5519.96
498.266	5421.66
498.469	5425.75
498.673	5646.93
498.876	5474.9
499.079	5401.18
499.282	5544.53
499.485	5743.19
499.689	5501.53
499.892	5773.91
500.095	5601.88
500.298	5821.01
500.501	5536.34
500.705	5866.07
500.908	5833.3
501.111	5972.56
501.314	5909.07
501.517	6083.15
501.72	6255.18
501.923	6138.44
502.126	6167.12
502.329	6289.99
502.532	6363.72
502.735	6199.88
502.938	6425.16
503.141	6402.63
503.344	6423.11
503.547	6709.83
503.75	6683.2
503.953	6765.12
504.156	6947.39
504.359	6935.1
504.562	6939.2
504.765	7340.6
504.968	7389.75
505.17	7551.54
505.373	7371.32
505.576	7899.7
505.779	7768.63
505.982	7877.17
506.185	8010.29
506.387	8206.89
506.59	8192.56
506.793	8585.77
506.996	8495.66
507.198	8770.08
507.401	8753.7
507.604	9093.66
507.807	9249.31
508.009	9323.04
508.212	9607.7
508.415	9648.66
508.617	9941.52
508.82	9988.63
509.022	10181.14
509.225	10658.31
509.428	10611.21
509.63	10881.54
509.833	10967.56
510.035	11606.52
510.238	11612.67
510.44	11794.93
510.643	12159.47
510.845	12360.17
511.048	12560.87
511.25	12925.41
511.453	13371.87
511.655	13570.52
511.858	13935.06
512.06	14076.37
512.262	14473.68
512.465	14545.36
512.667	14959.05
512.87	15358.4
513.072	15385.02
513.274	16169.4
513.477	16419.25
513.679	16730.54
513.881	17254.82
514.084	17381.79
514.286	18149.78
514.488	18184.6
514.69	18936.2
514.893	19177.86
515.095	19370.37
515.297	19935.61
515.499	20085.11
515.701	20642.16
515.904	21322.09
516.106	21537.12
516.308	22016.35
516.51	22976.84
516.712	22913.36
516.914	23474.5
517.116	24101.18
517.318	24314.17
517.52	24815.92
517.722	25047.34
517.925	25508.13
518.127	25999.65
518.329	26779.92
518.531	26655
518.733	27324.68
518.935	28170.49
519.136	28012.8
519.338	29253.87
519.54	29556.97
519.742	29649.13
519.944	30191.84
520.146	30896.34
520.348	31178.96
520.55	31394
520.752	31654.09
520.954	32424.12
521.155	32420.03
521.357	33474.73
521.559	33294.51
521.761	34189.47
521.963	34338.97
522.164	34535.58
522.366	34840.73
522.568	35336.34
522.77	35301.52
522.971	36077.7
523.173	35745.93
523.375	36350.08
523.576	35907.72
523.778	36644.99
523.98	36728.95
524.181	36903.03
524.383	37255.28
524.584	37703.79
524.786	37576.81
524.988	36962.42
525.189	37746.79
525.391	38064.23
525.592	38097
525.794	37955.69
525.995	38119.52
526.197	37924.97
526.398	37888.1
526.6	37892.2
526.801	37904.49
527.003	38178.92
527.204	37451.89
527.406	37787.75
527.607	37329.01
527.808	37963.88
528.01	36540.54
528.211	36890.74
528.412	37199.99
528.614	36847.74
528.815	36550.78
529.016	36708.47
529.218	35569.8
529.419	35608.72
529.62	35520.65
529.822	34922.65
530.023	34787.48
530.224	34779.29
530.425	34265.25
530.626	33747.11
530.828	33276.08
531.029	33896.61
531.23	32753.85
531.431	32616.63
531.632	32340.16
531.833	31873.22
532.035	31240.4
532.236	31195.34
532.437	31107.28
532.638	30302.43
532.839	30122.21
533.04	30085.34
533.241	29282.54
533.442	29935.84
533.643	28414.2
533.844	28279.04
534.045	27906.3
534.246	27218.19
534.447	27011.34
534.648	26655
534.849	26587.41
535.05	25981.21
535.251	25753.89
535.451	25434.41
535.652	25274.67
535.853	24432.95
536.054	24596.79
536.255	24355.13
536.456	23624
536.657	23759.17
536.857	23105.87
537.058	23052.62
537.259	22817.1
537.46	22249.82
537.66	21946.72
537.861	21805.41
538.062	21406.05
538.263	21074.28
538.463	20928.88
538.664	20517.23
538.865	20455.79
539.065	20408.69
539.266	19757.44
539.466	20035.96
539.667	19272.07
539.868	19167.62
540.068	18805.13
540.269	18858.38
540.469	18717.07
540.67	18131.35
540.87	18018.71
541.071	17627.55
541.271	17789.34
541.472	17492.38
541.672	17412.51
541.873	17035.69
542.073	16859.56
542.274	16925.1
542.474	16589.23
542.675	16204.21
542.875	16275.89
543.075	15882.68
543.276	15780.28
543.476	15745.47
543.676	15557.05
543.877	15090.12
544.077	15311.3
544.277	15096.26
544.478	14995.91
544.678	14600.65
544.878	14449.1
545.078	14346.7
545.279	13978.07
545.479	13701.59
545.679	13855.19
545.879	13535.71
546.079	13326.82
546.28	13189.6
546.48	13191.65
546.68	13232.61
546.88	13144.55
547.08	12763.62
547.28	12681.71
547.48	12263.92
547.68	12542.44
547.88	12163.57
548.081	11799.03
548.281	11665.91
548.481	11842.04
548.681	11704.82
548.881	11348.48
549.081	11254.27
549.28	11045.38
549.48	11012.61
549.68	11008.51
549.88	10791.43
550.08	10531.34
550.28	10177.04
550.48	10344.97
550.68	10193.42
550.88	9976.34
551.08	9931.28
551.279	9808.4
551.479	9546.26
551.679	9531.93
551.879	9277.98
552.079	9202.21
552.278	8981.03
552.478	8972.83
552.678	8825.38
552.878	8694.31
553.077	8667.69
553.277	8350.25
553.477	8440.36
553.676	8315.44
553.876	8182.32
554.076	7862.83
554.275	7881.27
554.475	7533.11
554.674	7555.64
554.874	7397.95
555.074	7176.77
555.273	7010.88
555.473	6988.35
555.672	6904.39
555.872	6838.85
556.071	6959.68
556.271	6662.72
556.47	6584.9
556.67	6273.61
556.869	6025.81
557.068	6208.08
557.268	6105.68
557.467	6056.53
557.667	5984.85
557.866	5786.19
558.065	5843.54
558.265	5728.85
558.464	5583.45
558.663	5495.38
558.863	5444.18
559.062	5343.83
559.261	5136.99
559.461	5130.84
559.66	4964.96
559.859	4915.81
560.058	4733.54
560.258	4778.59
560.457	4651.62
560.656	4739.68
560.855	4461.16
561.054	4590.18
561.253	4313.7
561.453	4436.58
561.652	4235.88
561.851	4244.07
562.05	4016.75
562.249	4029.04
562.448	4102.76
562.647	4045.42
562.846	3910.26
563.045	3897.97
563.244	3828.34
563.443	3814
563.642	3725.94
563.841	3537.52
564.04	3504.76
564.239	3621.49
564.438	3324.54
564.637	3271.29
564.836	3332.73
565.035	3416.69
565.234	3289.72
565.432	3254.9
565.631	3232.38
565.83	3244.67
566.029	3097.21
566.228	2992.76
566.427	2964.09
566.625	2894.46
566.824	2884.22
567.023	2845.31
567.222	2916.99
567.42	2740.86
567.619	2738.82
567.818	2699.91
568.016	2800.26
568.215	2622.08
568.414	2724.48
568.612	2577.03
568.811	2450.05
569.01	2431.62
569.208	2349.7
569.407	2454.15
569.605	2357.89
569.804	2226.82
570.002	2257.54
570.201	2237.06
570.4	2255.5
570.598	2132.62
570.797	2124.43
570.995	2038.41
571.193	2077.32
571.392	2130.57
571.59	2001.55
571.789	2087.56
571.987	2034.32
572.186	1972.88
572.384	1907.34
572.582	1815.18
572.781	1923.73
572.979	1768.08
573.177	1766.03
573.376	1845.9
573.574	1753.74
573.772	1702.54
573.971	1763.98
574.169	1663.63
574.367	1651.35
574.565	1680.02
574.763	1559.19
574.962	1661.59
575.16	1589.91
575.358	1444.5
575.556	1581.71
575.754	1489.56
575.952	1487.51
576.151	1473.17
576.349	1501.84
576.547	1262.23
576.745	1452.69
576.943	1268.38
577.141	1237.66
577.339	1295
577.537	1192.6
577.735	1309.33
577.933	1227.42
578.131	1211.03
578.329	1319.57
578.527	1165.98
578.725	1172.12
578.923	1024.67
579.121	1188.5
579.319	973.47
579.516	1129.11
579.714	1295
579.912	1135.26
580.11	1032.86
580.308	940.7
580.506	969.37
580.704	799.39
580.901	875.17
581.099	1053.34
581.297	930.46
581.495	952.99
581.692	916.12
581.89	1065.63
582.088	961.18
582.285	815.77
582.483	887.45
582.681	873.12
582.878	893.6
583.076	797.34
583.274	838.3
583.471	860.83
583.669	817.82
583.866	758.43
584.064	666.27
584.262	758.43
584.459	680.61
584.657	776.86
584.854	762.53
585.052	725.66
585.249	752.29
585.447	715.42
585.644	598.69
585.841	770.72
586.039	651.94
586.236	686.75
586.434	682.66
586.631	596.64
586.828	553.63
587.026	629.41
587.223	580.26
587.42	514.72
587.618	596.64
587.815	725.66
588.012	484
588.21	582.31
588.407	621.22
588.604	547.49
588.801	541.35
588.999	494.24
589.196	656.03
589.393	479.91
589.59	541.35
589.787	506.53
589.984	600.74
590.182	551.59
590.379	475.81
590.576	547.49
590.773	535.2
590.97	500.39
591.167	543.39
591.364	596.64
591.561	428.71
591.758	600.74
591.955	592.55
592.152	486.05
592.349	461.48
592.546	537.25
592.743	463.52
592.94	481.96
593.137	563.87
593.334	565.92
593.531	453.28
593.727	561.83
593.924	594.59
594.121	457.38
594.318	471.72
594.515	559.78
594.712	688.8
594.908	635.55
595.105	436.9
595.302	563.87
595.499	576.16
595.696	690.85
595.892	486.05
596.089	635.55
596.286	602.79
596.482	666.27
596.679	703.14
596.876	623.27
597.072	703.14
597.269	670.37
597.466	658.08
597.662	608.93
597.859	631.46
598.055	600.74
598.252	680.61
598.448	686.75
598.645	778.91
598.841	762.53
599.038	817.82
599.234	961.18
599.431	895.64
599.627	996
599.824	979.61
600.02	987.8
600.217	1079.96
600.413	1079.96
600.609	1073.82
600.806	1323.67
601.002	1125.02
601.198	1108.63
601.395	1241.75
601.591	1395.35
601.787	1372.82
601.984	1409.69
602.18	1516.18
602.376	1460.88
602.572	1587.86
602.769	1647.25
602.965	1706.64
603.161	1763.98
603.357	1854.09
603.553	1780.37
603.75	1876.62
603.946	2038.41
604.142	2099.85
604.338	2230.92
604.534	2210.44
604.73	2384.52
604.926	2278.02
605.122	2585.22
605.318	2478.72
605.514	2669.19
605.71	2693.76
605.906	2835.07
606.102	2837.12
606.298	3000.96
606.494	3046.01
606.69	3132.03
606.886	3082.88
607.082	3177.08
607.278	3408.5
607.474	3484.28
607.67	3451.51
607.866	3416.69
608.062	3684.98
608.257	3805.81
608.453	3959.41
608.649	4160.11
608.845	4014.7
609.041	4260.46
609.236	4385.38
609.432	4643.43
609.628	4811.36
609.824	4749.92
610.019	4688.48
610.215	4946.53
610.411	5278.3
610.606	5415.51
610.802	5354.07
610.998	5552.73
611.193	5833.3
611.389	5665.36
611.584	5833.3
611.78	6074.96
611.976	6144.59
612.171	6709.83
612.367	6599.24
612.562	6818.37
612.758	6933.06
612.953	7051.84
613.149	7311.93
613.344	7465.53
613.539	7676.47
613.735	7848.5
613.93	8161.84
614.126	8139.31
614.321	8471.08
614.517	8880.68
614.712	8892.96
614.907	9435.67
615.103	9540.12
615.298	9552.41
615.493	10031.63
615.688	10080.78
615.884	10445.32
616.079	10486.28
616.274	10971.65
616.47	11211.26
616.665	11448.83
616.86	11653.62
617.055	11921.91
617.25	12464.62
617.445	12603.88
617.641	12644.84
617.836	13119.97
618.031	13224.42
618.226	13791.7
618.421	14168.53
618.616	14629.32
618.811	14750.15
619.006	15225.28
619.201	15485.37
619.396	16165.3
619.591	15964.6
619.786	16595.37
619.981	16701.87
620.176	17494.43
620.371	17734.04
620.566	18123.16
620.761	18465.17
620.956	18540.94
621.151	18989.45
621.346	19640.7
621.541	19440
621.735	20394.36
621.93	20365.68
622.125	21088.62
622.32	21287.27
622.515	21649.76
622.709	22212.95
622.904	22608.21
623.099	22989.13
623.294	23204.17
623.488	23456.07
623.683	24174.91
623.878	24441.14
624.072	24842.54
624.267	25258.28
624.462	25508.13
624.656	26030.37
624.851	26566.93
625.046	26642.71
625.24	26824.98
625.435	27369.74
625.629	27932.93
625.824	28389.63
626.018	28850.42
626.213	28410.11
626.407	29544.68
626.602	29319.4
626.796	30071.01
626.991	30634.2
627.185	30499.03
627.38	30574.81
627.574	30998.74
627.768	30849.24
627.963	31094.99
628.157	31078.61
628.352	31563.98
628.546	31273.17
628.74	31989.95
628.935	31561.93
629.129	31862.98
629.323	31645.9
629.517	31412.43
629.712	31224.01
629.906	31105.23
630.1	30826.71
630.294	30783.7
630.489	30142.69
630.683	30064.86
630.877	28938.48
631.071	29356.27
631.265	28752.12
631.459	28266.75
631.653	27687.17
631.848	27083.02
632.042	26605.84
632.236	26052.89
632.43	25121.07
632.624	24727.86
632.818	23814.46
633.012	23339.33
633.206	22815.05
633.4	22006.11
633.594	21172.58
633.788	20756.85
633.982	19825.02
634.176	19376.51
634.369	18432.4
634.563	17961.37
634.757	17140.13
634.951	16802.22
635.145	15999.41
635.339	15464.89
635.533	14684.62
635.726	14248.4
635.92	13488.6
636.114	13036
636.308	12511.72
636.501	12030.45
636.695	11518.46
636.889	10940.93
637.083	10525.19
637.276	10449.42
637.47	9759.25
637.664	9398.81
637.857	8958.5
638.051	8684.07
638.244	8385.07
638.438	8032.82
638.632	7838.26
638.825	7244.35
639.019	7066.17
639.212	6709.83
639.406	6390.35
639.599	6210.12
639.793	5995.09
639.986	5700.18
640.18	5796.43
640.373	5364.31
640.567	5044.83
640.76	5012.06
640.954	4942.43
641.147	4641.38
641.34	4321.9
641.534	4170.35
641.727	4196.97
641.92	4108.91
642.114	3875.44
642.307	3656.31
642.5	3517.05
642.694	3281.53
642.887	3246.71
643.08	3207.8
643.273	3162.75
643.467	2986.62
643.66	2615.94
643.853	2691.71
644.046	2574.98
644.239	2443.91
644.432	2341.51
644.626	2108.04
644.819	2175.63
645.012	2157.19
645.205	2083.47
645.398	2083.47
645.591	1903.25
645.784	1815.18
645.977	1694.35
646.17	1655.44
646.363	1620.63
646.556	1602.19
646.749	1450.64
646.942	1432.21
647.135	1421.97
647.328	1387.16
647.521	1364.63
647.714	1174.17
647.907	1215.13
648.099	1098.39
648.292	1139.35
648.485	1059.48
648.678	959.13
648.871	1026.71
649.064	918.17
649.256	942.75
649.449	846.49
649.642	817.82
649.835	795.29
650.027	678.56
650.22	805.53
650.413	748.19
650.605	752.29
650.798	674.46
650.991	658.08
651.183	680.61
651.376	653.98
651.568	666.27
651.761	670.37
651.954	555.68
652.146	527.01
652.339	588.45
652.531	608.93
652.724	410.28
652.916	477.86
653.109	371.36
653.301	469.67
653.494	486.05
653.686	404.13
653.879	555.68
654.071	379.56
654.263	402.08
654.456	336.55
654.648	434.85
654.84	426.66
655.033	277.16
655.225	367.27
655.417	238.25
655.61	400.04
655.802	389.8
655.994	428.71
656.186	189.1
656.379	436.9
656.571	154.28
656.763	320.17
656.955	258.73
657.148	291.49
657.34	330.41
657.532	266.92
657.724	191.14
657.916	252.58
658.108	287.4
658.3	225.96
658.492	303.78
658.684	244.39
658.876	246.44
659.068	217.77
659.26	62.12
659.452	172.71
659.644	207.53
659.836	314.02
660.028	215.72
660.22	164.52
660.412	197.29
660.604	195.24
660.796	191.14
660.988	260.77
661.18	189.1
661.372	166.57
661.563	168.62
661.755	160.42
661.947	131.75
662.139	76.46
662.331	119.46
662.522	121.51
662.714	51.88
662.906	35.5
663.097	90.79
663.289	117.42
663.481	66.22
663.673	248.49
663.864	103.08
664.056	199.34
664.247	105.13
664.439	277.16
664.631	119.46
664.822	144.04
665.014	172.71
665.205	51.88
665.397	127.66
665.588	193.19
665.78	166.57
665.971	191.14
666.163	125.61
666.354	125.61
666.546	150.18
666.737	144.04
666.929	78.51
667.12	-7.51
667.311	92.84
667.503	137.9
667.694	160.42
667.885	101.03
668.077	82.6
668.268	6.83
668.459	144.04
668.651	240.29
668.842	199.34
669.033	84.65
669.224	39.59
669.416	232.1
669.607	47.79
669.798	51.88
669.989	154.28
670.18	74.41
670.371	156.33
670.563	64.17
670.754	225.96
670.945	205.48
671.136	127.66
671.327	64.17
671.518	170.66
671.709	139.94
671.9	111.27
672.091	193.19
672.282	121.51
672.473	113.32
672.664	82.6
672.855	55.98
673.046	172.71
673.237	127.66
673.428	121.51
673.619	166.57
673.809	39.59
674	119.46
674.191	101.03
674.382	170.66
674.573	49.83
674.764	154.28
674.954	154.28
675.145	76.46
675.336	88.75
675.527	47.79
675.717	78.51
675.908	47.79
676.099	141.99
676.289	174.76
676.48	64.17
676.671	182.95
676.861	98.99
677.052	137.9
677.243	125.61
677.433	133.8
677.624	225.96
677.814	76.46
678.005	27.31
678.195	230.06
678.386	33.45
678.576	109.22
678.767	113.32
678.957	96.94
679.148	150.18
679.338	246.44
679.529	105.13
679.719	92.84
679.909	164.52
680.1	260.77
680.29	213.67
680.481	66.22
680.671	195.24
680.861	195.24
681.052	121.51
681.242	117.42
681.432	156.33
681.622	156.33
681.813	109.22
682.003	180.9
682.193	68.27
682.383	182.95
682.573	139.94
682.764	123.56
682.954	230.06
683.144	221.86
683.334	74.41
683.524	189.1
683.714	141.99
683.904	182.95
684.094	74.41
684.284	166.57
684.474	314.02
684.664	256.68
684.854	217.77
685.044	187.05
685.234	180.9
685.424	141.99
685.614	199.34
685.804	297.64
685.994	211.62
686.184	213.67
686.374	268.97
686.564	133.8
686.753	182.95
686.943	64.17
687.133	96.94
687.323	178.86
687.513	160.42
687.702	189.1
687.892	176.81
688.082	246.44
688.272	209.58
688.461	170.66
688.651	297.64
688.841	170.66
689.03	182.95
689.22	109.22
689.41	205.48
689.599	254.63
689.789	90.79
689.979	240.29
690.168	137.9
690.358	305.83
690.547	199.34
690.737	86.7
690.926	182.95
691.116	131.75
691.305	111.27
691.495	195.24
691.684	154.28
691.874	195.24
692.063	187.05
692.252	213.67
692.442	174.76
692.631	156.33
692.82	139.94
693.01	152.23
693.199	154.28
693.388	137.9
693.578	205.48
693.767	178.86
693.956	205.48
694.146	172.71
694.335	174.76
694.524	90.79
694.713	137.9
694.902	68.27
695.092	168.62
695.281	197.29
695.47	158.38
695.659	31.4
695.848	133.8
696.037	162.47
696.226	240.29
696.415	146.09
696.604	236.2
696.793	203.43
696.982	111.27
697.171	268.97
697.36	111.27
697.549	121.51
697.738	78.51
697.927	129.7
698.116	170.66
698.305	127.66
698.494	146.09
698.683	131.75
698.872	232.1
699.061	105.13
699.25	156.33
699.438	156.33
699.627	133.8
699.816	228.01
700.005	141.99
700.193	111.27
700.382	219.82
700.571	180.9
700.76	141.99
700.948	174.76
701.137	170.66
701.326	156.33
701.514	150.18
701.703	174.76
701.892	211.62
702.08	277.16
702.269	133.8
702.457	84.65
702.646	170.66
702.834	70.31
703.023	178.86
703.212	213.67
703.4	199.34
703.589	223.91
703.777	141.99
703.965	129.7
704.154	125.61
704.342	84.65
704.531	105.13
704.719	174.76
704.907	203.43
705.096	68.27
705.284	86.7
705.472	189.1
705.661	105.13
705.849	185
706.037	238.25
706.226	166.57
706.414	146.09
706.602	107.18
706.79	223.91
706.979	62.12
707.167	213.67
707.355	117.42
707.543	207.53
707.731	160.42
707.919	127.66
708.107	113.32
708.296	68.27
708.484	121.51
708.672	174.76
708.86	217.77
709.048	170.66
709.236	121.51
709.424	199.34
709.612	150.18
709.8	60.07
709.988	115.37
710.176	191.14
710.364	197.29
710.551	178.86
710.739	150.18
710.927	101.03
711.115	160.42
711.303	148.14
711.491	266.92
711.679	131.75
711.866	158.38
712.054	92.84
712.242	236.2
712.43	242.34
712.617	125.61
712.805	180.9
712.993	158.38
713.181	23.21
713.368	191.14
713.556	92.84
713.744	66.22
713.931	322.21
714.119	232.1
714.306	125.61
714.494	119.46
714.682	117.42
714.869	117.42
715.057	148.14
715.244	90.79
715.432	111.27
715.619	113.32
715.807	148.14
715.994	76.46
716.182	160.42
716.369	176.81
716.556	205.48
716.744	158.38
716.931	88.75
717.119	162.47
717.306	158.38
717.493	152.23
717.681	152.23
717.868	156.33
718.055	174.76
718.242	209.58
718.43	234.15
718.617	250.53
718.804	144.04
718.991	256.68
719.179	178.86
719.366	152.23
719.553	191.14
719.74	148.14
719.927	154.28
720.114	203.43
720.301	94.89
720.488	92.84
720.676	152.23
720.863	268.97
721.05	252.58
721.237	248.49
721.424	264.87
721.611	221.86
721.798	152.23
721.985	103.08
722.172	195.24
722.358	182.95
722.545	271.01
722.732	223.91
722.919	381.6
723.106	246.44
723.293	88.75
723.48	201.38
723.667	166.57
723.853	363.17
724.04	240.29
724.227	234.15
724.414	162.47
724.6	266.92
724.787	316.07
724.974	367.27
725.161	273.06
725.347	178.86
725.534	211.62
725.72	225.96
725.907	318.12
726.094	219.82
726.28	244.39
726.467	123.56
726.653	182.95
726.84	254.63
727.027	273.06
727.213	252.58
727.4	260.77
727.586	277.16
727.773	285.35
727.959	201.38
728.145	238.25
728.332	262.82
728.518	246.44
728.705	178.86
728.891	268.97
729.077	158.38
729.264	182.95
729.45	250.53
729.636	211.62
729.823	187.05
730.009	281.25
730.195	293.54
730.382	293.54
730.568	166.57
730.754	158.38
730.94	195.24
731.126	256.68
731.313	266.92
731.499	281.25
731.685	318.12
731.871	240.29
732.057	197.29
732.243	305.83
732.429	320.17
732.615	248.49
732.801	283.3
732.987	273.06
733.173	178.86
733.359	207.53
733.545	238.25
733.731	244.39
733.917	320.17
734.103	262.82
734.289	217.77
734.475	228.01
734.661	379.56
734.847	256.68
735.033	215.72
735.219	314.02
735.404	238.25
735.59	234.15
735.776	203.43
735.962	221.86
736.148	199.34
736.333	297.64
736.519	221.86
736.705	260.77
736.89	281.25
737.076	285.35
737.262	311.97
737.447	193.19
737.633	193.19
737.819	307.88
738.004	277.16
738.19	203.43
738.375	285.35
738.561	311.97
738.747	322.21
738.932	223.91
739.118	473.76
739.303	352.93
739.489	334.5
739.674	180.9
739.859	234.15
740.045	338.6
740.23	271.01
740.416	55.98
740.601	221.86
740.786	305.83
740.972	250.53
741.157	254.63
741.342	195.24
741.528	146.09
741.713	311.97
741.898	195.24
742.084	139.94
742.269	318.12
742.454	277.16
742.639	289.45
742.824	354.98
743.01	348.84
743.195	379.56
743.38	228.01
743.565	174.76
743.75	252.58
743.935	256.68
744.12	289.45
744.305	144.04
744.49	199.34
744.675	262.82
744.86	232.1
745.045	299.69
745.23	291.49
745.415	174.76
745.6	387.75
745.785	172.71
745.97	201.38
746.155	328.36
746.34	346.79
746.525	289.45
746.71	285.35
746.895	195.24
747.079	189.1
747.264	205.48
747.449	207.53
747.634	273.06
747.819	297.64
748.003	293.54
748.188	215.72
748.373	277.16
748.557	201.38
748.742	221.86
748.927	217.77
749.111	254.63
749.296	187.05
749.481	318.12
749.665	320.17
749.85	215.72
750.034	250.53
750.219	236.2
750.404	168.62
750.588	250.53
750.773	244.39
750.957	199.34
751.141	146.09
751.326	320.17
751.51	187.05
751.695	166.57
751.879	133.8
752.064	262.82
752.248	187.05
752.432	221.86
752.617	250.53
752.801	195.24
752.985	96.94
753.17	277.16
753.354	139.94
753.538	215.72
753.722	139.94
753.907	170.66
754.091	76.46
754.275	207.53
754.459	96.94
754.643	158.38
754.828	262.82
755.012	199.34
755.196	66.22
755.38	174.76
755.564	162.47
755.748	117.42
755.932	180.9
756.116	242.34
756.3	256.68
756.484	107.18
756.668	234.15
756.852	92.84
757.036	150.18
757.22	199.34
757.404	178.86
757.588	119.46
757.772	164.52
757.956	211.62
758.14	182.95
758.323	150.18
758.507	211.62
758.691	203.43
758.875	197.29
759.059	279.21
759.242	164.52
759.426	72.36
759.61	207.53
759.794	125.61
759.977	195.24
760.161	240.29
760.345	182.95
760.528	156.33
760.712	162.47
760.895	150.18
761.079	119.46
761.263	64.17
761.446	90.79
761.63	164.52
761.813	311.97
761.997	88.75
762.18	117.42
762.364	156.33
762.547	47.79
762.731	115.37
762.914	70.31
763.098	137.9
763.281	133.8
763.464	113.32
763.648	156.33
763.831	60.07
764.015	62.12
764.198	72.36
764.381	92.84
764.564	60.07
764.748	92.84
764.931	98.99
765.114	88.75
765.297	101.03
765.481	-1.37
765.664	115.37
765.847	10.92
766.03	219.82
766.213	60.07
766.397	53.93
766.58	10.92
766.763	129.7
766.946	113.32
767.129	84.65
767.312	133.8
767.495	119.46
767.678	105.13
767.861	92.84
768.044	111.27
768.227	101.03
768.41	129.7
768.593	84.65
768.776	15.02
768.959	78.51
769.142	187.05
769.324	80.55
769.507	25.26
769.69	70.31
769.873	19.11
770.056	277.16
770.239	37.55
770.421	191.14
770.604	178.86
770.787	80.55
770.97	180.9
771.152	10.92
771.335	101.03
771.518	101.03
771.7	262.82
771.883	152.23
772.066	127.66
772.248	101.03
772.431	117.42
772.613	96.94
772.796	111.27
772.978	164.52
773.161	207.53
773.343	84.65
773.526	92.84
773.708	-58.71
773.891	-56.66
774.073	23.21
774.256	35.5
774.438	248.49
774.621	92.84
774.803	90.79
774.985	27.31
775.168	129.7
775.35	55.98
775.532	117.42
775.715	27.31
775.897	144.04
776.079	31.4
776.261	144.04
776.444	80.55
776.626	66.22
776.808	64.17
776.99	19.11
777.173	92.84
777.355	39.59
777.537	31.4
777.719	144.04
777.901	6.83
778.083	37.55
778.265	8.87
778.447	164.52
778.629	101.03
778.811	0.68
778.993	29.35
779.175	60.07
779.357	72.36
779.539	-19.8
779.721	76.46
779.903	76.46
780.085	39.59
780.267	74.41
780.449	55.98
780.631	62.12
780.812	76.46
780.994	15.02
781.176	139.94
781.358	45.74
781.54	68.27
781.721	119.46
781.903	88.75
782.085	-5.46
782.267	135.85
782.448	-42.32
782.63	2.73
782.812	51.88
782.993	47.79
783.175	68.27
783.357	-71
783.538	123.56
783.72	-11.61
783.901	41.64
784.083	86.7
784.264	74.41
784.446	-11.61
784.627	-38.23
784.809	80.55
784.99	-17.75
785.172	33.45
785.353	78.51
785.535	41.64
785.716	37.55
785.897	-3.41
786.079	45.74
786.26	55.98
786.441	17.07
786.623	-62.8
786.804	25.26
786.985	6.83
787.167	113.32
787.348	33.45
787.529	17.07
787.71	166.57
787.891	43.69
788.073	37.55
788.254	-34.13
788.435	187.05
788.616	-1.37
788.797	10.92
788.978	27.31
789.159	-23.89
789.34	23.21
789.522	-1.37
789.703	19.11
789.884	101.03
790.065	76.46
790.246	158.38
790.427	45.74
790.607	162.47
790.788	66.22
790.969	8.87
791.15	78.51
791.331	55.98
791.512	-5.46
791.693	49.83
791.874	47.79
792.054	150.18
792.235	68.27
792.416	-46.42
792.597	-11.61
792.778	78.51
792.958	90.79
793.139	29.35
793.32	19.11
793.5	-42.32
793.681	189.1
793.862	47.79
794.042	6.83
794.223	-73.04
794.404	27.31
794.584	-66.9
794.765	-44.37
794.945	-9.56
795.126	60.07
795.306	133.8
795.487	-32.08
795.667	15.02
795.848	39.59
796.028	12.97
796.209	-40.28
796.389	70.31
796.57	-32.08
796.75	-64.85
796.93	45.74
797.111	-5.46
797.291	-19.8
797.471	55.98
797.652	10.92
797.832	-93.52
798.012	31.4
798.192	10.92
798.373	-15.7
798.553	-5.46
798.733	96.94
798.913	19.11
799.093	17.07
799.274	-17.75
799.454	33.45
799.634	84.65
799.814	127.66
799.994	31.4
800.174	146.09
800.354	-71
800.534	-85.33
800.714	88.75
800.894	-68.95
801.074	-42.32
801.254	-17.75
801.434	66.22
801.614	25.26
801.794	-27.99
801.974	1575.57
802.154	-64.85
802.334	84.65
802.514	-75.09
802.693	51.88
802.873	41.64
803.053	119.46
803.233	43.69
803.413	94.89
803.592	23.21
803.772	-9.56
803.952	2.73
804.131	-95.57
804.311	72.36
804.491	90.79
804.67	-48.47
804.85	-25.94
805.03	90.79
805.209	98.99
805.389	-62.8
805.568	6.83
805.748	-58.71
805.928	-38.23
806.107	41.64
806.287	66.22
806.466	45.74
806.646	-15.7
806.825	43.69
807.004	-13.65
807.184	35.5
807.363	111.27
807.543	45.74
807.722	-48.47
807.901	111.27
808.081	6.83
808.26	-132.44
808.439	23.21
808.619	31.4
808.798	19.11
808.977	96.94
809.156	109.22
809.336	25.26
809.515	12.97
809.694	-38.23
809.873	27.31
810.052	4.78
810.231	90.79
810.411	10.92
810.59	39.59
810.769	-7.51
810.948	23.21
811.127	-111.96
811.306	-64.85
811.485	41.64
811.664	113.32
811.843	55.98
812.022	39.59
812.201	55.98
812.38	-46.42
812.559	19.11
812.737	80.55
812.916	-42.32
813.095	-23.89
813.274	92.84
813.453	-42.32
813.632	8.87
813.811	55.98
813.989	-87.38
814.168	92.84
814.347	-62.8
814.526	-21.85
814.704	107.18
814.883	141.99
815.062	-13.65
815.24	101.03
815.419	17.07
815.598	33.45
815.776	-46.42
815.955	-3.41
816.133	-120.15
816.312	43.69
816.49	-36.18
816.669	-32.08
816.847	2.73
817.026	84.65
817.204	27.31
817.383	-62.8
817.561	4.78
817.74	43.69
817.918	58.03
818.097	-1.37
818.275	-32.08
818.453	-5.46
818.632	68.27
818.81	-21.85
818.988	10.92
819.167	-42.32
819.345	-21.85
819.523	-101.72
819.701	19.11
819.879	58.03
820.058	-9.56
820.236	-50.52
820.414	-5.46
820.592	39.59
820.77	-9.56
820.948	39.59
821.127	70.31
821.305	-7.51
821.483	-85.33
821.661	43.69
821.839	-23.89
822.017	-48.47
822.195	-77.14
822.373	125.61
822.551	2.73
822.729	64.17
822.907	-25.94
823.085	60.07
823.262	19.11
823.44	4.78
823.618	-75.09
823.796	-46.42
823.974	0.68
824.152	-13.65
824.329	-19.8
824.507	-11.61
824.685	27.31
824.863	10.92
825.04	49.83
825.218	31.4
825.396	68.27
825.574	60.07
825.751	47.79
825.929	-15.7
826.107	-46.42
826.284	10.92
826.462	15.02
826.639	-13.65
826.817	-64.85
826.994	-42.32
827.172	-101.72
827.349	92.84
827.527	17.07
827.704	-58.71
827.882	35.5
828.059	25.26
828.237	58.03
828.414	74.41
828.591	-23.89
828.769	-5.46
828.946	-9.56
829.124	53.93
829.301	109.22
829.478	21.16
829.655	55.98
829.833	10.92
830.01	-120.15
830.187	2.73
830.364	-13.65
830.542	-9.56
830.719	82.6
830.896	64.17
831.073	-7.51
831.25	31.4
831.427	-44.37
831.604	-13.65
831.782	-58.71
831.959	-30.04
832.136	49.83
832.313	80.55
832.49	19.11
832.667	-17.75
832.844	-15.7
833.021	64.17
833.198	41.64
833.374	-11.61
833.551	-5.46
833.728	6.83
833.905	74.41
834.082	-85.33
834.259	86.7
834.436	131.75
834.612	-71
834.789	96.94
834.966	4.78
835.143	8.87
835.319	0.68
835.496	35.5
835.673	-5.46
835.85	55.98
836.026	25.26
836.203	55.98
836.38	-21.85
836.556	-48.47
836.733	-32.08
836.909	170.66
837.086	-25.94
837.262	-71
837.439	60.07
837.616	-73.04
837.792	-25.94
837.968	-21.85
838.145	-132.44
838.321	31.4
838.498	-34.13
838.674	101.03
838.851	6.83
839.027	-25.94
839.203	19.11
839.38	41.64
839.556	-32.08
839.732	29.35
839.909	-9.56
840.085	-17.75
840.261	-64.85
840.437	-68.95
840.614	-52.56
840.79	82.6
840.966	21.16
841.142	-9.56
841.318	-15.7
841.494	-38.23
841.671	96.94
841.847	2.73
842.023	4.78
842.199	68.27
842.375	76.46
842.551	-89.43
842.727	-71
842.903	105.13
843.079	-42.32
843.255	178.86
843.431	55.98
843.607	31.4
843.783	-146.77
843.959	51.88
844.134	-25.94
844.31	107.18
844.486	-52.56
844.662	-36.18
844.838	8.87
845.013	98.99
845.189	25.26
845.365	-38.23
845.541	-7.51
845.716	0.68
845.892	115.37
846.068	-60.76
846.244	-73.04
846.419	8.87
846.595	0.68
846.77	-13.65
846.946	90.79
847.122	27.31
847.297	-21.85
847.473	70.31
847.648	-128.34
847.824	29.35
847.999	-34.13
848.175	-48.47
848.35	35.5
848.526	94.89
848.701	35.5
848.876	70.31
849.052	113.32
849.227	-50.52
849.403	-62.8
849.578	10.92
849.753	-5.46
849.929	66.22
850.104	-19.8
850.279	-36.18
850.454	66.22
850.63	-7.51
850.805	19.11
850.98	49.83
851.155	-95.57
851.33	17.07
851.505	-95.57
851.681	76.46
851.856	15.02
852.031	86.7
852.206	-17.75
852.381	-32.08
852.556	8.87
852.731	19.11
852.906	129.7
853.081	8.87
853.256	148.14
853.431	-11.61
853.606	-9.56
853.781	-118.1
853.956	-101.72
854.131	49.83
854.305	-60.76
854.48	-1.37
854.655	-73.04
854.83	-44.37
855.005	23.21
855.18	-89.43
855.354	-1.37
855.529	15.02
855.704	-25.94
855.879	31.4
856.053	-124.24
856.228	37.55
856.403	-23.89
856.577	68.27
856.752	-148.82
856.926	-40.28
857.101	-1.37
857.276	-44.37
857.45	37.55
857.625	82.6
857.799	-38.23
857.974	66.22
858.148	-64.85
858.323	-40.28
858.497	-38.23
858.672	-89.43
858.846	-77.14
859.02	43.69
859.195	-38.23
859.369	-58.71
859.543	2.73
859.718	25.26
859.892	23.21
860.066	55.98
860.241	-64.85
860.415	-79.19
860.589	25.26
860.763	49.83
860.938	-40.28
861.112	10.92
861.286	-23.89
861.46	8.87
861.634	-38.23
861.808	60.07
861.982	-50.52
862.157	-44.37
862.331	64.17
862.505	-95.57
862.679	-30.04
862.853	-71
863.027	17.07
863.201	92.84
863.375	45.74
863.549	-21.85
863.722	92.84
863.896	27.31
864.07	-46.42
864.244	-42.32
864.418	43.69
864.592	-38.23
864.766	-40.28
864.939	2.73
865.113	-71
865.287	109.22
865.461	-48.47
865.634	12.97
865.808	-50.52
865.982	-1.37
866.156	-116.05
866.329	-87.38
866.503	23.21
866.676	10.92
866.85	-111.96
867.024	-62.8
867.197	66.22
867.371	-25.94
867.544	-3.41
867.718	-136.53
867.891	-30.04
868.065	-87.38
868.238	17.07
868.412	62.12
868.585	-54.61
868.759	-73.04
868.932	-5.46
869.105	-150.87
869.279	10.92
869.452	-5.46
869.625	62.12
869.799	-32.08
869.972	-75.09
870.145	-75.09
870.319	55.98
870.492	-46.42
870.665	25.26
870.838	-34.13
871.011	-163.15
871.185	-75.09
871.358	-36.18
871.531	60.07
871.704	-42.32
871.877	17.07
872.05	-32.08
872.223	-83.28
872.396	-13.65
872.569	68.27
872.742	-77.14
872.915	86.7
873.088	-19.8
873.261	-52.56
873.434	6.83
873.607	86.7
873.78	117.42
873.953	-122.2
874.126	12.97
874.299	10.92
874.471	-56.66
874.644	-36.18
874.817	35.5
874.99	109.22
875.163	-34.13
875.335	47.79
875.508	-13.65
875.681	90.79
875.853	8.87
876.026	2.73
876.199	27.31
876.371	-109.91
876.544	70.31
876.717	-15.7
876.889	-23.89
877.062	45.74
877.234	-75.09
877.407	-97.62
877.579	43.69
877.752	21.16
877.924	107.18
878.097	12.97
878.269	-79.19
878.442	-5.46
878.614	43.69
878.786	-42.32
878.959	-50.52
879.131	-3.41
879.303	-99.67
879.476	-13.65
879.648	51.88
879.82	10.92
879.993	-79.19
880.165	-5.46
880.337	-101.72
880.509	-13.65
880.681	-130.39
880.854	-44.37
881.026	103.08
881.198	76.46
881.37	-46.42
881.542	-7.51
881.714	-50.52
881.886	-1.37
882.058	19.11
882.23	-23.89
882.402	47.79
882.574	43.69
882.746	88.75
882.918	55.98
883.09	88.75
883.262	-9.56
883.434	-34.13
883.606	-105.81
883.778	-9.56
883.95	119.46
884.122	-64.85
884.293	58.03
884.465	-42.32
884.637	45.74
884.809	-25.94
884.98	-11.61
885.152	-13.65
885.324	96.94
885.496	19.11
885.667	8.87
885.839	-32.08
886.011	109.22
886.182	72.36
886.354	-5.46
886.525	-50.52
886.697	33.45
886.869	-25.94
887.04	0.68
887.212	101.03
887.383	92.84
887.555	-7.51
887.726	-21.85
887.897	-27.99
888.069	10.92
888.24	49.83
888.412	-17.75
888.583	6.83
888.754	17.07
888.926	-58.71
889.097	-56.66
889.268	-62.8
889.44	-54.61
889.611	-87.38
889.782	-68.95
889.953	-105.81
890.125	-25.94
890.296	-21.85
890.467	-62.8
890.638	25.26
890.809	-15.7
890.98	-54.61
891.151	27.31
891.323	0.68
891.494	-46.42
891.665	-62.8
891.836	-42.32
892.007	-42.32
892.178	-73.04
892.349	-5.46
892.52	-25.94
892.691	-25.94
892.862	-30.04
893.032	-87.38
893.203	-11.61
893.374	-21.85
893.545	82.6
893.716	21.16
893.887	101.03
894.057	-44.37
894.228	8.87
894.399	-60.76
894.57	119.46
894.74	-5.46
894.911	-9.56
895.082	-66.9
895.253	-109.91
895.423	-1.37
895.594	-3.41
895.764	0.68
895.935	-50.52
896.106	-38.23
896.276	-58.71
896.447	10.92
896.617	-77.14
896.788	-87.38
896.958	6.83
897.129	19.11
897.299	19.11
897.47	121.51
897.64	62.12
897.81	-71
897.981	37.55
898.151	-23.89
898.322	37.55
898.492	-38.23
898.662	-50.52
898.832	-118.1
899.003	-91.48
899.173	19.11
899.343	-62.8
899.513	-3.41
