Data from USB4F104151__49__09-28-09-404.txt Node

Date: Wed Feb 26 09:28:09 EST 2025
User: louis
Spectrometer: USB4F10415
Trigger mode: 4
Integration Time (sec): 1.000000E-1
Scans to average: 1
Electric dark correction enabled: true
Nonlinearity correction enabled: false
Boxcar width: 0
XAxis mode: Wavelengths
Number of Pixels in Spectrum: 3648
>>>>>Begin Spectral Data<<<<<
178.204	-340.3
178.424	-340.3
178.644	-340.3
178.864	-362.83
179.084	-346.45
179.304	-4.44
179.524	-0.34
179.744	63.15
179.964	16.04
180.184	32.43
180.404	-0.34
180.624	-20.82
180.844	9.9
181.064	-12.63
181.283	-24.92
181.503	-63.83
181.723	5.8
181.943	-67.92
182.163	175.78
182.383	-41.3
182.602	30.38
182.822	61.1
183.042	1.71
183.262	-31.06
183.482	46.76
183.701	-67.92
183.921	30.38
184.141	-110.93
184.361	77.48
184.58	89.77
184.8	13.99
185.02	-22.87
185.239	87.72
185.459	40.62
185.679	136.87
185.898	-135.51
186.118	48.81
186.338	71.34
186.557	89.77
186.777	-43.35
186.997	9.9
187.216	-29.01
187.436	143.02
187.655	52.91
187.875	118.44
188.095	3.75
188.314	143.02
188.534	59.05
188.753	-45.4
188.973	54.95
189.192	110.25
189.412	-33.11
189.631	118.44
189.851	30.38
190.07	167.59
190.29	-31.06
190.509	-49.49
190.729	-8.53
190.948	73.39
191.168	257.7
191.387	97.96
191.607	24.23
191.826	114.34
192.045	52.91
192.265	1.71
192.484	89.77
192.704	44.71
192.923	-65.88
193.142	108.2
193.362	93.87
193.581	136.87
193.8	81.58
194.02	112.3
194.239	91.82
194.458	38.57
194.678	-8.53
194.897	116.39
195.116	22.19
195.335	22.19
195.555	46.76
195.774	42.67
195.993	114.34
196.212	24.23
196.432	-51.54
196.651	-18.77
196.87	44.71
197.089	216.74
197.308	38.57
197.528	34.47
197.747	-0.34
197.966	40.62
198.185	102.06
198.404	-8.53
198.623	79.53
198.842	69.29
199.062	89.77
199.281	93.87
199.5	-22.87
199.719	18.09
199.938	63.15
200.157	155.3
200.376	124.58
200.595	97.96
200.814	95.91
201.033	-2.39
201.252	134.82
201.471	106.15
201.69	40.62
201.909	46.76
202.128	48.81
202.347	77.48
202.566	63.15
202.785	-61.78
203.004	-39.25
203.223	186.02
203.442	-16.73
203.661	-8.53
203.879	38.57
204.098	114.34
204.317	1.71
204.536	52.91
204.755	63.15
204.974	122.54
205.193	13.99
205.411	153.26
205.63	89.77
205.849	95.91
206.068	61.1
206.287	3.75
206.505	122.54
206.724	-10.58
206.943	7.85
207.162	46.76
207.381	26.28
207.599	87.72
207.818	5.8
208.037	-0.34
208.255	-41.3
208.474	106.15
208.693	61.1
208.911	-22.87
209.13	110.25
209.349	161.45
209.567	91.82
209.786	81.58
210.005	100.01
210.223	13.99
210.442	-80.21
210.661	67.24
210.879	42.67
211.098	42.67
211.316	-33.11
211.535	173.74
211.753	3.75
211.972	32.43
212.191	24.23
212.409	20.14
212.628	110.25
212.846	-67.92
213.065	-2.39
213.283	79.53
213.502	-0.34
213.72	-22.87
213.938	46.76
214.157	3.75
214.375	63.15
214.594	79.53
214.812	34.47
215.031	34.47
215.249	7.85
215.467	32.43
215.686	40.62
215.904	116.39
216.122	5.8
216.341	165.54
216.559	81.58
216.778	71.34
216.996	77.48
217.214	13.99
217.432	-57.68
217.651	52.91
217.869	71.34
218.087	26.28
218.306	-94.55
218.524	11.95
218.742	-2.39
218.96	104.11
219.179	9.9
219.397	32.43
219.615	237.22
219.833	69.29
220.051	-43.35
220.27	140.97
220.488	87.72
220.706	73.39
220.924	-26.96
221.142	16.04
221.36	26.28
221.578	16.04
221.796	-26.96
222.015	-49.49
222.233	112.3
222.451	110.25
222.669	-49.49
222.887	40.62
223.105	-4.44
223.323	-31.06
223.541	-24.92
223.759	93.87
223.977	79.53
224.195	95.91
224.413	81.58
224.631	40.62
224.849	24.23
225.067	155.3
225.285	-26.96
225.503	7.85
225.721	-65.88
225.939	77.48
226.157	-4.44
226.375	222.89
226.592	-47.44
226.81	18.09
227.028	61.1
227.246	85.67
227.464	18.09
227.682	71.34
227.9	116.39
228.117	118.44
228.335	40.62
228.553	44.71
228.771	32.43
228.989	102.06
229.206	46.76
229.424	-37.2
229.642	20.14
229.86	16.04
230.077	169.64
230.295	36.52
230.513	67.24
230.731	22.19
230.948	155.3
231.166	114.34
231.384	-51.54
231.601	-10.58
231.819	159.4
232.037	-31.06
232.254	-12.63
232.472	28.33
232.689	30.38
232.907	93.87
233.125	34.47
233.342	-31.06
233.56	-57.68
233.777	34.47
233.995	-55.64
234.213	157.35
234.43	20.14
234.648	87.72
234.865	-55.64
235.083	11.95
235.3	5.8
235.518	95.91
235.735	79.53
235.953	110.25
236.17	11.95
236.388	20.14
236.605	7.85
236.822	87.72
237.04	32.43
237.257	46.76
237.475	-41.3
237.692	67.24
237.909	69.29
238.127	-35.16
238.344	7.85
238.562	57
238.779	-16.73
238.996	-12.63
239.214	5.8
239.431	40.62
239.648	-53.59
239.865	34.47
240.083	11.95
240.3	24.23
240.517	-20.82
240.735	22.19
240.952	192.17
241.169	71.34
241.386	106.15
241.603	40.62
241.821	34.47
242.038	52.91
242.255	77.48
242.472	-74.07
242.689	42.67
242.907	122.54
243.124	108.2
243.341	11.95
243.558	48.81
243.775	-24.92
243.992	1.71
244.209	104.11
244.426	140.97
244.643	59.05
244.86	-4.44
245.078	97.96
245.295	112.3
245.512	24.23
245.729	-26.96
245.946	89.77
246.163	118.44
246.38	61.1
246.597	77.48
246.814	52.91
247.031	28.33
247.248	104.11
247.464	52.91
247.681	126.63
247.898	136.87
248.115	77.48
248.332	-45.4
248.549	118.44
248.766	155.3
248.983	46.76
249.2	40.62
249.417	40.62
249.633	32.43
249.85	36.52
250.067	46.76
250.284	28.33
250.501	59.05
250.717	110.25
250.934	-53.59
251.151	36.52
251.368	7.85
251.585	24.23
251.801	20.14
252.018	-2.39
252.235	110.25
252.451	-6.49
252.668	13.99
252.885	110.25
253.102	97.96
253.318	13.99
253.535	-2.39
253.752	7.85
253.968	-16.73
254.185	-57.68
254.401	7.85
254.618	65.19
254.835	48.81
255.051	116.39
255.268	97.96
255.484	24.23
255.701	24.23
255.917	42.67
256.134	-26.96
256.351	24.23
256.567	16.04
256.784	20.14
257	-33.11
257.217	145.06
257.433	89.77
257.65	48.81
257.866	89.77
258.082	-57.68
258.299	-26.96
258.515	114.34
258.732	-16.73
258.948	-112.98
259.165	65.19
259.381	-41.3
259.597	114.34
259.814	-20.82
260.03	7.85
260.246	36.52
260.463	128.68
260.679	116.39
260.895	52.91
261.112	61.1
261.328	30.38
261.544	-57.68
261.761	177.83
261.977	3.75
262.193	-102.74
262.409	79.53
262.626	89.77
262.842	77.48
263.058	-24.92
263.274	108.2
263.49	67.24
263.707	77.48
263.923	110.25
264.139	-59.73
264.355	57
264.571	40.62
264.787	52.91
265.004	81.58
265.22	-35.16
265.436	24.23
265.652	-47.44
265.868	63.15
266.084	3.75
266.3	40.62
266.516	57
266.732	30.38
266.948	89.77
267.164	-29.01
267.38	11.95
267.596	149.16
267.812	161.45
268.028	-12.63
268.244	-8.53
268.46	63.15
268.676	71.34
268.892	83.63
269.108	-24.92
269.324	-33.11
269.54	-110.93
269.756	54.95
269.972	-51.54
270.188	-59.73
270.403	22.19
270.619	85.67
270.835	136.87
271.051	11.95
271.267	13.99
271.483	-33.11
271.698	32.43
271.914	-12.63
272.13	28.33
272.346	-0.34
272.562	16.04
272.777	46.76
272.993	63.15
273.209	-47.44
273.425	79.53
273.64	-82.26
273.856	63.15
274.072	-35.16
274.287	24.23
274.503	71.34
274.719	104.11
274.934	1.71
275.15	-12.63
275.366	40.62
275.581	18.09
275.797	13.99
276.012	40.62
276.228	5.8
276.444	16.04
276.659	106.15
276.875	-53.59
277.09	52.91
277.306	34.47
277.521	24.23
277.737	71.34
277.952	97.96
278.168	57
278.383	-43.35
278.599	54.95
278.814	36.52
279.03	18.09
279.245	165.54
279.461	-61.78
279.676	75.43
279.892	-104.79
280.107	-65.88
280.322	-22.87
280.538	-26.96
280.753	-20.82
280.969	75.43
281.184	40.62
281.399	147.11
281.615	-37.2
281.83	46.76
282.045	-41.3
282.26	-41.3
282.476	50.86
282.691	147.11
282.906	79.53
283.122	42.67
283.337	24.23
283.552	130.73
283.767	-4.44
283.983	48.81
284.198	57
284.413	44.71
284.628	-72.02
284.843	24.23
285.058	81.58
285.274	3.75
285.489	-10.58
285.704	116.39
285.919	5.8
286.134	-22.87
286.349	38.57
286.564	28.33
286.779	73.39
286.995	-57.68
287.21	-16.73
287.425	85.67
287.64	16.04
287.855	13.99
288.07	-41.3
288.285	114.34
288.5	65.19
288.715	108.2
288.93	61.1
289.145	20.14
289.36	73.39
289.575	61.1
289.79	112.3
290.004	67.24
290.219	93.87
290.434	-12.63
290.649	32.43
290.864	-49.49
291.079	24.23
291.294	32.43
291.509	38.57
291.724	-33.11
291.938	24.23
292.153	24.23
292.368	-55.64
292.583	5.8
292.798	61.1
293.012	48.81
293.227	-12.63
293.442	71.34
293.657	116.39
293.871	63.15
294.086	-53.59
294.301	159.4
294.516	114.34
294.73	32.43
294.945	-88.4
295.16	89.77
295.374	102.06
295.589	79.53
295.804	24.23
296.018	52.91
296.233	44.71
296.447	65.19
296.662	40.62
296.877	73.39
297.091	85.67
297.306	20.14
297.52	61.1
297.735	65.19
297.949	100.01
298.164	32.43
298.378	-4.44
298.593	-92.5
298.807	-35.16
299.022	-8.53
299.236	136.87
299.451	9.9
299.665	44.71
299.88	13.99
300.094	-33.11
300.309	-37.2
300.523	52.91
300.737	-24.92
300.952	140.97
301.166	87.72
301.381	-49.49
301.595	-53.59
301.809	42.67
302.024	36.52
302.238	-57.68
302.452	73.39
302.667	11.95
302.881	118.44
303.095	116.39
303.309	73.39
303.524	16.04
303.738	-74.07
303.952	-24.92
304.166	69.29
304.381	-94.55
304.595	134.82
304.809	-69.97
305.023	65.19
305.237	-65.88
305.452	-0.34
305.666	20.14
305.88	61.1
306.094	65.19
306.308	138.92
306.522	116.39
306.736	3.75
306.95	46.76
307.164	36.52
307.379	-24.92
307.593	73.39
307.807	118.44
308.021	83.63
308.235	18.09
308.449	-63.83
308.663	-2.39
308.877	130.73
309.091	-0.34
309.305	71.34
309.519	-67.92
309.733	71.34
309.947	-45.4
310.161	-24.92
310.374	143.02
310.588	59.05
310.802	-12.63
311.016	7.85
311.23	50.86
311.444	-37.2
311.658	13.99
311.872	132.78
312.085	57
312.299	106.15
312.513	89.77
312.727	48.81
312.941	-41.3
313.154	-0.34
313.368	46.76
313.582	73.39
313.796	73.39
314.009	5.8
314.223	157.35
314.437	85.67
314.651	89.77
314.864	34.47
315.078	81.58
315.292	1.71
315.505	54.95
315.719	57
315.933	87.72
316.146	-4.44
316.36	-6.49
316.573	104.11
316.787	73.39
317.001	36.52
317.214	-20.82
317.428	46.76
317.641	-102.74
317.855	40.62
318.068	3.75
318.282	128.68
318.495	138.92
318.709	16.04
318.922	3.75
319.136	89.77
319.349	38.57
319.563	-2.39
319.776	7.85
319.99	-37.2
320.203	57
320.417	7.85
320.63	24.23
320.843	171.69
321.057	22.19
321.27	-80.21
321.483	93.87
321.697	13.99
321.91	1.71
322.124	34.47
322.337	24.23
322.55	-31.06
322.763	22.19
322.977	-61.78
323.19	-88.4
323.403	57
323.617	97.96
323.83	59.05
324.043	24.23
324.256	16.04
324.469	-2.39
324.683	57
324.896	38.57
325.109	-20.82
325.322	-55.64
325.535	73.39
325.748	95.91
325.962	36.52
326.175	-18.77
326.388	40.62
326.601	126.63
326.814	-16.73
327.027	73.39
327.24	130.73
327.453	-65.88
327.666	124.58
327.879	134.82
328.092	100.01
328.305	52.91
328.518	-12.63
328.731	-12.63
328.944	-47.44
329.157	48.81
329.37	11.95
329.583	138.92
329.796	143.02
330.009	-82.26
330.222	69.29
330.435	120.49
330.648	3.75
330.861	93.87
331.073	65.19
331.286	159.4
331.499	-41.3
331.712	-74.07
331.925	32.43
332.138	54.95
332.35	32.43
332.563	-41.3
332.776	104.11
332.989	61.1
333.202	13.99
333.414	9.9
333.627	3.75
333.84	16.04
334.053	89.77
334.265	7.85
334.478	-31.06
334.691	28.33
334.903	85.67
335.116	-8.53
335.329	7.85
335.541	3.75
335.754	114.34
335.966	-26.96
336.179	-82.26
336.392	73.39
336.604	11.95
336.817	132.78
337.029	77.48
337.242	-41.3
337.454	81.58
337.667	-10.58
337.88	145.06
338.092	-53.59
338.305	69.29
338.517	-24.92
338.729	50.86
338.942	130.73
339.154	-20.82
339.367	-53.59
339.579	118.44
339.792	-59.73
340.004	38.57
340.217	-51.54
340.429	48.81
340.641	-0.34
340.854	26.28
341.066	40.62
341.278	114.34
341.491	173.74
341.703	9.9
341.915	-108.88
342.128	81.58
342.34	95.91
342.552	-2.39
342.764	16.04
342.977	3.75
343.189	40.62
343.401	38.57
343.613	-90.45
343.826	16.04
344.038	-110.93
344.25	36.52
344.462	-26.96
344.674	63.15
344.886	40.62
345.099	16.04
345.311	65.19
345.523	5.8
345.735	-43.35
345.947	73.39
346.159	97.96
346.371	112.3
346.583	-76.12
346.795	118.44
347.007	-20.82
347.219	40.62
347.431	59.05
347.643	163.5
347.855	-6.49
348.067	163.5
348.279	-35.16
348.491	83.63
348.703	71.34
348.915	-14.68
349.127	-59.73
349.339	28.33
349.551	7.85
349.763	61.1
349.975	57
350.187	65.19
350.399	95.91
350.61	28.33
350.822	95.91
351.034	71.34
351.246	77.48
351.458	28.33
351.669	54.95
351.881	120.49
352.093	48.81
352.305	97.96
352.517	57
352.728	114.34
352.94	-22.87
353.152	89.77
353.363	-8.53
353.575	40.62
353.787	130.73
353.999	48.81
354.21	91.82
354.422	5.8
354.633	36.52
354.845	16.04
355.057	16.04
355.268	44.71
355.48	106.15
355.692	-24.92
355.903	42.67
356.115	-0.34
356.326	-74.07
356.538	97.96
356.749	102.06
356.961	118.44
357.172	44.71
357.384	-45.4
357.595	259.75
357.807	26.28
358.018	-33.11
358.23	-33.11
358.441	122.54
358.653	61.1
358.864	-31.06
359.075	46.76
359.287	69.29
359.498	81.58
359.709	83.63
359.921	65.19
360.132	77.48
360.344	-4.44
360.555	40.62
360.766	20.14
360.977	5.8
361.189	38.57
361.4	-41.3
361.611	85.67
361.823	112.3
362.034	71.34
362.245	-24.92
362.456	106.15
362.667	44.71
362.879	-88.4
363.09	52.91
363.301	36.52
363.512	30.38
363.723	-51.54
363.935	-29.01
364.146	136.87
364.357	5.8
364.568	-14.68
364.779	13.99
364.99	87.72
365.201	-0.34
365.412	138.92
365.623	-31.06
365.834	65.19
366.045	20.14
366.256	40.62
366.467	95.91
366.678	48.81
366.889	138.92
367.1	-35.16
367.311	97.96
367.522	16.04
367.733	38.57
367.944	52.91
368.155	-16.73
368.366	5.8
368.577	114.34
368.788	54.95
368.999	-31.06
369.209	-16.73
369.42	210.6
369.631	128.68
369.842	20.14
370.053	-2.39
370.264	118.44
370.474	-41.3
370.685	-8.53
370.896	13.99
371.107	161.45
371.317	-29.01
371.528	61.1
371.739	110.25
371.95	16.04
372.16	95.91
372.371	-127.32
372.582	79.53
372.792	122.54
373.003	95.91
373.214	50.86
373.424	46.76
373.635	-20.82
373.846	97.96
374.056	44.71
374.267	100.01
374.477	-0.34
374.688	-80.21
374.898	69.29
375.109	-2.39
375.319	26.28
375.53	163.5
375.74	136.87
375.951	50.86
376.161	52.91
376.372	38.57
376.582	61.1
376.793	110.25
377.003	-43.35
377.214	-10.58
377.424	69.29
377.635	22.19
377.845	9.9
378.055	71.34
378.266	-92.5
378.476	13.99
378.686	48.81
378.897	-0.34
379.107	42.67
379.317	7.85
379.528	7.85
379.738	83.63
379.948	-33.11
380.158	118.44
380.369	20.14
380.579	3.75
380.789	106.15
380.999	18.09
381.21	81.58
381.42	220.84
381.63	38.57
381.84	124.58
382.05	3.75
382.261	102.06
382.471	106.15
382.681	65.19
382.891	157.35
383.101	102.06
383.311	-86.36
383.521	16.04
383.731	61.1
383.941	65.19
384.151	67.24
384.361	-8.53
384.571	46.76
384.781	20.14
384.991	167.59
385.201	175.78
385.411	57
385.621	48.81
385.831	57
386.041	1.71
386.251	89.77
386.461	108.2
386.671	61.1
386.881	-18.77
387.091	40.62
387.301	93.87
387.511	24.23
387.72	79.53
387.93	18.09
388.14	-12.63
388.35	54.95
388.56	145.06
388.769	128.68
388.979	83.63
389.189	-24.92
389.399	59.05
389.609	65.19
389.818	110.25
390.028	87.72
390.238	48.81
390.447	48.81
390.657	36.52
390.867	16.04
391.076	-98.64
391.286	67.24
391.496	48.81
391.705	34.47
391.915	104.11
392.125	89.77
392.334	32.43
392.544	108.2
392.753	32.43
392.963	11.95
393.172	26.28
393.382	38.57
393.591	106.15
393.801	-51.54
394.01	79.53
394.22	122.54
394.429	-29.01
394.639	-10.58
394.848	83.63
395.058	3.75
395.267	36.52
395.477	44.71
395.686	67.24
395.895	124.58
396.105	163.5
396.314	18.09
396.524	75.43
396.733	-37.2
396.942	155.3
397.152	75.43
397.361	54.95
397.57	13.99
397.78	44.71
397.989	7.85
398.198	130.73
398.407	38.57
398.617	59.05
398.826	42.67
399.035	32.43
399.244	102.06
399.453	48.81
399.663	7.85
399.872	24.23
400.081	-6.49
400.29	97.96
400.499	3.75
400.708	104.11
400.917	40.62
401.127	-10.58
401.336	-0.34
401.545	151.21
401.754	28.33
401.963	106.15
402.172	16.04
402.381	40.62
402.59	-35.16
402.799	24.23
403.008	106.15
403.217	91.82
403.426	28.33
403.635	-0.34
403.844	34.47
404.053	13.99
404.262	44.71
404.471	247.46
404.68	85.67
404.888	22.19
405.097	-16.73
405.306	93.87
405.515	77.48
405.724	46.76
405.933	50.86
406.142	97.96
406.35	89.77
406.559	63.15
406.768	81.58
406.977	75.43
407.185	-12.63
407.394	61.1
407.603	-78.16
407.812	69.29
408.02	75.43
408.229	65.19
408.438	79.53
408.646	57
408.855	52.91
409.064	-24.92
409.272	-4.44
409.481	38.57
409.69	3.75
409.898	-37.2
410.107	24.23
410.315	155.3
410.524	5.8
410.733	106.15
410.941	11.95
411.15	44.71
411.358	114.34
411.567	24.23
411.775	18.09
411.984	-37.2
412.192	54.95
412.401	16.04
412.609	128.68
412.818	89.77
413.026	54.95
413.234	97.96
413.443	38.57
413.651	-31.06
413.86	-0.34
414.068	124.58
414.276	208.55
414.485	-8.53
414.693	110.25
414.901	163.5
415.11	81.58
415.318	26.28
415.526	40.62
415.734	13.99
415.943	50.86
416.151	54.95
416.359	106.15
416.567	20.14
416.776	116.39
416.984	79.53
417.192	173.74
417.4	-20.82
417.608	9.9
417.817	-82.26
418.025	143.02
418.233	192.17
418.441	61.1
418.649	-65.88
418.857	-41.3
419.065	171.69
419.273	22.19
419.481	20.14
419.689	40.62
419.897	-2.39
420.105	3.75
420.313	75.43
420.521	120.49
420.729	155.3
420.937	-14.68
421.145	-74.07
421.353	108.2
421.561	108.2
421.769	-6.49
421.977	16.04
422.185	85.67
422.393	9.9
422.601	75.43
422.809	40.62
423.017	22.19
423.224	34.47
423.432	71.34
423.64	32.43
423.848	145.06
424.056	73.39
424.263	79.53
424.471	85.67
424.679	175.78
424.887	3.75
425.094	138.92
425.302	106.15
425.51	20.14
425.718	112.3
425.925	-12.63
426.133	42.67
426.341	171.69
426.548	-8.53
426.756	-22.87
426.964	108.2
427.171	-0.34
427.379	104.11
427.586	97.96
427.794	87.72
428.001	124.58
428.209	106.15
428.417	112.3
428.624	89.77
428.832	1.71
429.039	102.06
429.247	79.53
429.454	67.24
429.662	143.02
429.869	134.82
430.076	87.72
430.284	122.54
430.491	179.88
430.699	138.92
430.906	163.5
431.114	89.77
431.321	126.63
431.528	97.96
431.736	77.48
431.943	116.39
432.15	106.15
432.358	134.82
432.565	274.09
432.772	-6.49
432.979	147.11
433.187	44.71
433.394	245.41
433.601	59.05
433.808	161.45
434.016	138.92
434.223	169.64
434.43	226.98
434.637	276.13
434.844	147.11
435.052	102.06
435.259	138.92
435.466	196.26
435.673	257.7
435.88	151.21
436.087	224.94
436.294	269.99
436.501	261.8
436.708	134.82
436.915	249.51
437.122	315.05
437.329	179.88
437.537	231.08
437.743	257.7
437.95	353.96
438.157	276.13
438.364	286.37
438.571	259.75
438.778	341.67
438.985	323.24
439.192	401.06
439.399	335.53
439.606	390.82
439.813	421.54
440.02	442.02
440.227	425.64
440.433	394.92
440.64	433.83
440.847	423.59
441.054	466.6
441.261	478.88
441.467	464.55
441.674	417.44
441.881	517.79
442.088	523.94
442.294	523.94
442.501	544.42
442.708	628.39
442.914	532.13
443.121	677.54
443.328	536.23
443.534	747.17
443.741	749.22
443.948	642.72
444.154	736.93
444.361	855.71
444.568	767.65
444.774	790.17
444.981	790.17
445.187	958.11
445.394	845.47
445.6	906.91
445.807	1013.4
446.013	992.92
446.22	954.01
446.426	1001.12
446.633	1072.79
446.839	1341.08
447.046	1093.27
447.252	1285.78
447.459	1289.88
447.665	1220.25
447.871	1296.02
448.078	1515.16
448.284	1441.43
448.491	1547.92
448.697	1576.59
448.903	1611.41
449.11	1717.9
449.316	1570.45
449.522	1828.49
449.728	1920.65
449.935	1943.18
450.141	1922.7
450.347	1998.48
450.553	2006.67
450.76	2137.74
450.966	2279.05
451.172	2287.24
451.378	2428.55
451.584	2424.45
451.791	2514.56
451.997	2571.91
452.203	2664.07
452.409	2807.42
452.615	2893.44
452.821	2950.78
453.027	2805.38
453.233	3288.7
453.44	3141.24
453.646	3270.26
453.852	3460.73
454.058	3575.41
454.264	3628.66
454.47	4126.32
454.676	3980.91
454.882	4314.73
455.088	4111.98
455.294	4367.98
455.5	4693.6
455.705	4884.06
455.911	4773.47
456.117	4955.74
456.323	5219.93
456.529	5183.07
456.735	5717.59
456.941	5742.16
457.147	6131.28
457.352	6219.34
457.558	6219.34
457.764	6829.63
457.97	7110.21
458.176	7310.91
458.381	7691.83
458.587	7661.11
458.793	8240.68
458.999	7917.11
459.204	9170.46
459.41	9453.08
459.616	9297.44
459.821	9950.74
460.027	10403.34
460.233	10796.55
460.438	11003.39
460.644	11396.6
460.85	11378.17
461.055	11947.51
461.261	12662.25
461.466	12625.39
461.672	12555.76
461.878	14138.83
462.083	13911.51
462.289	14196.18
462.494	14890.44
462.7	14726.6
462.905	15246.79
463.111	16297.39
463.316	16797.1
463.522	17479.07
463.727	17886.62
463.932	18654.61
464.138	19342.72
464.343	20043.13
464.549	20098.42
464.754	21386.6
464.959	21939.55
465.165	22611.28
465.37	22457.68
465.575	22621.52
465.781	23854.4
465.986	24483.13
466.191	24075.58
466.397	24577.33
466.602	24030.52
466.807	25208.11
467.012	25611.56
467.218	25945.37
467.423	26084.64
467.628	27100.43
467.833	28183.8
468.038	27821.31
468.244	26899.73
468.449	29109.49
468.654	28595.45
468.859	28148.99
469.064	28343.55
469.269	27282.7
469.474	27645.19
469.679	28642.55
469.885	27651.33
470.09	28148.99
470.295	28194.04
470.5	27424.01
470.705	27852.03
470.91	26989.84
471.115	26658.07
471.32	27305.23
471.525	26916.11
471.73	25894.18
471.935	26213.66
472.139	25197.87
472.344	25142.57
472.549	25062.7
472.754	24489.27
472.959	23885.12
473.164	23049.55
473.369	22900.05
473.574	23532.87
473.778	22955.34
473.983	22879.57
474.188	22248.79
474.393	21130.6
474.598	21216.61
474.802	20600.18
475.007	20503.92
475.212	20503.92
475.417	19334.53
475.621	19314.05
475.826	19066.25
476.031	18707.85
476.235	18265.49
476.44	18345.36
476.645	17843.61
476.849	17378.72
477.054	17450.4
477.259	16790.95
477.463	16838.06
477.668	16184.76
477.872	16379.31
478.077	15867.32
478.282	15336.9
478.486	15187.39
478.691	14876.1
478.895	14874.06
479.1	14978.5
479.304	15033.8
479.509	14374.35
479.713	14374.35
479.918	13991.38
480.122	13778.39
480.326	14085.59
480.531	13954.52
480.735	13792.73
480.94	13571.55
481.144	13796.82
481.348	13207.01
481.553	13483.48
481.757	12938.73
481.961	13092.32
482.166	13049.32
482.37	12883.43
482.574	12404.21
482.778	12703.21
482.983	12901.86
483.187	12447.21
483.391	12416.49
483.595	12221.94
483.8	12068.34
484.004	12023.28
484.208	12199.41
484.412	11984.37
484.616	11798.01
484.821	11798.01
485.025	11191.81
485.229	11632.12
485.433	11316.73
485.637	10948.1
485.841	10931.72
486.045	10776.07
486.249	10800.65
486.453	10472.97
486.657	10499.59
486.861	10288.65
487.065	9883.16
487.269	10083.86
487.473	9715.22
487.677	9715.22
487.881	9616.92
488.085	9111.07
488.289	9113.12
488.493	8936.99
488.697	9004.58
488.901	8785.44
489.105	8539.69
489.309	8656.42
489.512	8367.66
489.716	8310.32
489.92	8156.72
490.124	7921.2
490.328	7867.95
490.531	7640.63
490.735	7687.73
490.939	7347.77
491.143	7360.06
491.346	7278.14
491.55	7089.73
491.754	6800.96
491.958	6870.59
492.161	6753.86
492.365	6635.08
492.569	6559.3
492.772	6342.22
492.976	6436.42
493.18	6303.31
493.383	6282.83
493.587	6309.45
493.79	6131.28
493.994	5951.06
494.197	6127.18
494.401	6008.4
494.605	5832.27
494.808	5852.75
495.012	5916.24
495.215	5807.7
495.419	5889.62
495.622	5719.64
495.825	5654.1
496.029	5609.05
496.232	5615.19
496.436	5492.31
496.639	5815.89
496.843	5418.58
497.046	5492.31
497.249	5570.13
497.453	5803.6
497.656	5572.18
497.859	5426.78
498.063	5619.28
498.266	5699.16
498.469	5461.59
498.673	5426.78
498.876	5676.63
499.079	5674.58
499.282	5590.61
499.485	5987.92
499.689	5803.6
499.892	5971.54
500.095	5789.27
500.298	6032.97
500.501	5832.27
500.705	6073.93
500.908	5961.3
501.111	5865.04
501.314	6241.87
501.517	6520.39
501.72	6186.57
501.923	6258.25
502.126	6356.55
502.329	6604.36
502.532	6639.17
502.735	6692.42
502.938	6868.55
503.141	6891.07
503.344	6708.8
503.547	6932.03
503.75	6989.38
503.953	7089.73
504.156	7323.19
504.359	7413.31
504.562	7374.39
504.765	7577.14
504.968	7740.98
505.17	7706.17
505.373	8115.76
505.576	8246.83
505.779	8269.36
505.982	8267.31
506.185	8420.91
506.387	8533.54
506.59	8699.43
506.793	8965.67
506.996	8971.81
507.198	9405.98
507.401	9313.82
507.604	9631.26
507.807	9700.89
508.009	10071.57
508.212	10223.12
508.415	10554.89
508.617	10554.89
508.82	10817.03
509.022	10896.9
509.225	11150.85
509.428	11431.42
509.63	11773.43
509.833	11826.68
510.035	12412.4
510.238	12406.25
510.44	12744.17
510.643	13086.18
510.845	13333.98
511.048	13719
511.25	13819.35
511.453	13972.95
511.655	14695.88
511.858	14931.4
512.06	15367.62
512.262	15365.57
512.465	15742.39
512.667	16166.32
512.87	16575.92
513.072	16887.21
513.274	17659.29
513.477	17728.92
513.679	18214.29
513.881	18511.25
514.084	18986.38
514.286	19537.28
514.488	19674.49
514.69	20569.46
514.893	20626.8
515.095	21296.49
515.297	21740.89
515.499	21884.25
515.701	22717.78
515.904	23235.91
516.106	23680.32
516.308	24128.83
516.51	24763.7
516.712	25087.28
516.914	25666.85
517.116	26047.77
517.318	26600.72
517.52	27010.32
517.722	27540.74
517.925	27913.47
518.127	28742.9
518.329	29517.03
518.531	29234.41
518.733	29891.81
518.935	30637.27
519.136	31040.72
519.338	31638.73
519.54	32142.53
519.742	32773.3
519.944	33154.22
520.146	33901.73
520.348	34204.83
520.55	34688.15
520.752	34788.5
520.954	35796.1
521.155	35441.81
521.357	36367.49
521.559	36824.18
521.761	37319.79
521.963	37459.06
522.164	37991.53
522.366	38384.74
522.568	38597.73
522.77	39068.76
522.971	39881.8
523.173	39570.51
523.375	40307.78
523.576	39883.85
523.778	40463.43
523.98	40997.95
524.181	40586.3
524.383	41075.77
524.584	41446.45
524.786	41299
524.988	41335.86
525.189	41970.73
525.391	41937.96
525.592	41561.14
525.794	41980.97
525.995	41501.75
526.197	41755.69
526.398	41831.47
526.6	42124.33
526.801	41665.58
527.003	41819.18
527.204	41741.36
527.406	41839.66
527.607	41112.63
527.808	41569.33
528.01	40514.62
528.211	40600.64
528.412	41309.24
528.614	40782.91
528.815	40285.25
529.016	40086.6
529.218	39134.29
529.419	39629.9
529.62	38855.77
529.822	38794.33
530.023	38661.21
530.224	38147.17
530.425	37614.7
530.626	36977.78
530.828	36582.52
531.029	37168.24
531.23	35994.76
531.431	35771.53
531.632	35785.86
531.833	35341.46
532.035	34593.95
532.236	34444.45
532.437	34204.83
532.638	33658.03
532.839	33518.76
533.04	33449.13
533.241	32208.06
533.442	32523.45
533.643	31855.81
533.844	31454.41
534.045	30946.51
534.246	30033.12
534.447	30174.43
534.648	29766.88
534.849	29388.01
535.05	28716.28
535.251	28267.77
535.451	28132.61
535.652	27796.74
535.853	27682.05
536.054	27356.43
536.255	26750.23
536.456	25877.79
536.657	26346.78
536.857	25541.92
537.058	25337.13
537.259	25107.76
537.46	24921.39
537.66	24515.89
537.861	23795.01
538.062	23588.16
538.263	23379.27
538.463	23225.67
538.664	22875.47
538.865	22580.56
539.065	22469.97
539.266	22117.72
539.466	22056.28
539.667	21386.6
539.868	21353.83
540.068	21230.95
540.269	20723.05
540.469	20467.06
540.67	20534.64
540.87	20127.1
541.071	19639.68
541.271	19637.63
541.472	19432.83
541.672	19430.79
541.873	19033.48
542.073	18427.28
542.274	18599.31
542.474	18402.71
542.675	18111.89
542.875	18038.17
543.075	17522.08
543.276	17135.01
543.476	17345.95
543.676	17079.72
543.877	16936.36
544.077	16870.83
544.277	16678.32
544.478	16414.13
544.678	16195
544.878	15771.07
545.078	16029.11
545.279	15584.7
545.479	15297.99
545.679	15326.66
545.879	15322.56
546.079	14908.87
546.28	14540.24
546.48	14573
546.68	14474.7
546.88	14280.14
547.08	14183.89
547.28	14124.5
547.48	13618.65
547.68	13647.32
547.88	13235.68
548.081	13383.13
548.281	13151.71
548.481	12981.73
548.681	12817.9
548.881	12758.5
549.081	12373.49
549.28	12344.81
549.48	12008.95
549.68	12193.26
549.88	11718.14
550.08	11927.03
550.28	11533.82
550.48	11404.8
550.68	11185.66
550.88	10984.96
551.08	11048.45
551.279	10718.73
551.479	10534.41
551.679	10511.88
551.879	10167.82
552.079	10151.44
552.278	9819.67
552.478	9801.24
552.678	9633.3
552.878	9696.79
553.077	9371.16
553.277	8988.19
553.477	9223.71
553.676	9078.3
553.876	8928.8
554.076	8717.86
554.275	8578.6
554.475	8261.16
554.674	8263.21
554.874	8269.36
555.074	7872.05
555.273	7923.25
555.473	7917.11
555.672	7546.42
555.872	7620.15
556.071	7388.73
556.271	7415.35
556.47	7222.84
556.67	6932.03
556.869	6884.93
557.068	6768.2
557.268	6749.76
557.467	6669.89
557.667	6508.1
557.866	6385.23
558.065	6311.5
558.265	6010.45
558.464	6094.41
558.663	6129.23
558.863	5924.43
559.062	5846.61
559.261	5529.17
559.461	5811.79
559.66	5559.89
559.859	5439.06
560.058	5338.71
560.258	5131.87
560.457	5176.92
560.656	5281.37
560.855	5035.61
561.054	4892.26
561.253	4820.58
561.453	4800.1
561.652	4732.51
561.851	4683.36
562.05	4572.77
562.249	4419.18
562.448	4568.68
562.647	4271.72
562.846	4259.43
563.045	4374.12
563.244	4208.23
563.443	4187.75
563.642	3890.8
563.841	4038.25
564.04	3905.14
564.239	3851.89
564.438	3763.83
564.637	3698.29
564.836	3610.23
565.035	3591.8
565.234	3505.78
565.432	3487.35
565.631	3505.78
565.83	3554.93
566.029	3333.75
566.228	3321.46
566.427	3393.14
566.625	3073.66
566.824	3149.43
567.023	3206.78
567.222	3071.61
567.42	2883.2
567.619	2952.83
567.818	2899.58
568.016	2885.25
568.215	2788.99
568.414	2799.23
568.612	2862.72
568.811	2653.83
569.01	2668.16
569.208	2619.01
569.407	2561.67
569.605	2674.31
569.804	2580.1
570.002	2573.96
570.201	2356.87
570.4	2453.13
570.598	2299.53
570.797	2340.49
570.995	2117.26
571.193	2344.58
571.392	2190.99
571.59	2070.16
571.789	2170.51
571.987	2182.79
572.186	2178.7
572.384	2064.01
572.582	2061.96
572.781	2143.88
572.979	1957.52
573.177	2027.15
573.376	1945.23
573.574	1760.91
573.772	1848.97
573.971	1801.87
574.169	1687.18
574.367	1848.97
574.565	1752.72
574.763	1588.88
574.962	1644.18
575.16	1703.57
575.358	1590.93
575.556	1693.33
575.754	1541.78
575.952	1525.4
576.151	1531.54
576.349	1449.62
576.547	1359.51
576.745	1539.73
576.943	1449.62
577.141	1287.83
577.339	1359.51
577.537	1257.11
577.735	1408.66
577.933	1343.13
578.131	1281.69
578.329	1396.37
578.527	1285.78
578.725	1289.88
578.923	1154.71
579.121	1242.78
579.319	1101.47
579.516	1113.75
579.714	1355.41
579.912	1126.04
580.11	1064.6
580.308	1050.27
580.506	1070.75
580.704	917.15
580.901	997.02
581.099	1066.65
581.297	966.3
581.495	945.82
581.692	933.53
581.89	1001.12
582.088	956.06
582.285	1031.83
582.483	935.58
582.681	908.96
582.878	911
583.076	929.44
583.274	841.37
583.471	915.1
583.669	917.15
583.866	751.26
584.064	771.74
584.262	747.17
584.459	755.36
584.657	743.07
584.854	775.84
585.052	831.13
585.249	831.13
585.447	759.46
585.644	650.91
585.841	855.71
586.039	710.3
586.236	718.5
586.434	704.16
586.631	720.54
586.828	695.97
587.026	673.44
587.223	636.58
587.42	599.71
587.618	669.34
587.815	765.6
588.012	607.91
588.21	568.99
588.407	671.39
588.604	687.78
588.801	519.84
588.999	579.23
589.196	648.86
589.393	540.32
589.59	552.61
589.787	583.33
589.984	638.62
590.182	630.43
590.379	462.5
590.576	665.25
590.773	499.36
590.97	509.6
591.167	564.9
591.364	560.8
591.561	452.26
591.758	614.05
591.955	605.86
592.152	534.18
592.349	497.32
592.546	495.27
592.743	509.6
592.94	493.22
593.137	450.21
593.334	587.43
593.531	515.75
593.727	478.88
593.924	493.22
594.121	505.51
594.318	509.6
594.515	589.47
594.712	655.01
594.908	595.62
595.105	474.79
595.302	609.95
595.499	503.46
595.696	630.43
595.892	499.36
596.089	564.9
596.286	489.12
596.482	630.43
596.679	587.43
596.876	609.95
597.072	722.59
597.269	558.75
597.466	714.4
597.662	669.34
597.859	704.16
598.055	667.3
598.252	769.69
598.448	824.99
598.645	890.53
598.841	865.95
599.038	888.48
599.234	962.2
599.431	970.4
599.627	980.64
599.824	976.54
600.02	1048.22
600.217	978.59
600.413	1017.5
600.609	1103.51
600.806	1416.85
601.002	1228.44
601.198	1152.67
601.395	1396.37
601.591	1265.3
601.787	1275.54
601.984	1416.85
602.18	1537.68
602.376	1611.41
602.572	1650.32
602.769	1750.67
602.965	1693.33
603.161	1836.69
603.357	1859.21
603.553	1947.28
603.75	1883.79
603.946	1994.38
604.142	2221.7
604.338	2150.03
604.534	2117.26
604.73	2305.67
604.926	2279.05
605.122	2533
605.318	2563.72
605.514	2619.01
605.71	2668.16
605.906	2721.41
606.102	2668.16
606.298	3055.23
606.494	2993.79
606.69	3264.12
606.886	3159.67
607.082	3186.3
607.278	3272.31
607.474	3466.87
607.67	3559.03
607.866	3448.44
608.062	3800.69
608.257	3866.22
608.453	3847.79
608.649	4089.45
608.845	3964.53
609.041	4056.68
609.236	4374.12
609.432	4394.6
609.628	4605.54
609.824	4709.99
610.019	4830.82
610.215	4961.89
610.411	5041.76
610.606	5185.12
610.802	5357.14
610.998	5475.93
611.193	5809.75
611.389	5688.92
611.584	5942.86
611.78	6010.45
611.976	6303.31
612.171	6467.14
612.367	6409.8
612.562	6784.58
612.758	6821.44
612.953	6987.33
613.149	7190.08
613.344	7425.59
613.539	7628.34
613.735	7659.06
613.93	8035.89
614.126	8205.87
614.321	8670.76
614.517	8697.38
614.712	8533.54
614.907	8955.43
615.103	9313.82
615.298	9455.13
615.493	9707.03
615.688	10118.67
615.884	10464.78
616.079	10491.4
616.274	10718.73
616.47	11027.97
616.665	11140.61
616.86	11580.92
617.055	11691.51
617.25	12058.1
617.445	12512.75
617.641	12414.45
617.836	13153.76
618.031	13260.26
618.226	13774.3
618.421	13997.53
618.616	14468.56
618.811	14622.16
619.006	15093.19
619.201	15222.21
619.396	15711.67
619.591	15500.73
619.786	16608.69
619.981	16782.76
620.176	16999.85
620.371	17124.77
620.566	17679.77
620.761	18128.28
620.956	18269.59
621.151	18740.62
621.346	19187.08
621.541	19008.9
621.735	19920.25
621.93	20252.02
622.125	20698.48
622.32	20602.22
622.515	21233
622.709	21405.03
622.904	21933.4
623.099	22570.32
623.294	22816.08
623.488	23045.45
623.683	23502.15
623.878	23739.71
624.072	24319.29
624.267	24685.87
624.462	25007.41
624.656	25275.69
624.851	26086.68
625.046	26289.43
625.24	26647.83
625.435	26436.89
625.629	27426.06
625.824	27424.01
626.018	27862.27
626.213	27655.43
626.407	28636.41
626.602	28708.08
626.796	29297.9
626.991	29115.63
627.185	29512.94
627.38	29568.23
627.574	30127.33
627.768	30186.72
627.963	30557.4
628.157	30504.15
628.352	31036.63
628.546	30239.97
628.74	30936.27
628.935	30547.16
629.129	30639.32
629.323	30141.66
629.517	30495.96
629.712	30295.26
629.906	30090.46
630.1	29566.18
630.294	30010.59
630.489	28933.36
630.683	28865.78
630.877	28112.13
631.071	27923.71
631.265	27768.07
631.459	26899.73
631.653	26496.28
631.848	25951.52
632.042	25515.3
632.236	24857.9
632.43	23813.44
632.624	23979.32
632.818	22838.61
633.012	22318.42
633.206	21669.22
633.4	20839.79
633.594	20262.26
633.788	19703.17
633.982	18935.18
634.176	18349.46
634.369	17501.6
634.563	16917.93
634.757	16080.31
634.951	15766.97
635.145	15031.75
635.339	14274
635.533	13829.59
635.726	13673.95
635.92	12713.45
636.114	12287.47
636.308	11632.12
636.501	11269.63
636.695	10714.63
636.889	10391.05
637.083	10223.12
637.276	9616.92
637.47	9084.45
637.664	8844.84
637.857	8574.5
638.051	8173.1
638.244	7833.14
638.438	7499.32
638.632	7333.43
638.825	6624.84
639.019	6721.09
639.212	6422.09
639.406	6149.71
639.599	5942.86
639.793	5586.52
639.986	5480.02
640.18	5217.88
640.373	5045.85
640.567	4642.4
640.76	4648.55
640.954	4488.81
641.147	4210.28
641.34	4122.22
641.534	3962.48
641.727	3804.78
641.92	3708.53
642.114	3702.39
642.307	3325.56
642.5	3325.56
642.694	3274.36
642.887	2963.07
643.08	2995.84
643.273	2885.25
643.467	2653.83
643.66	2498.18
643.853	2422.41
644.046	2522.76
644.239	2225.8
644.432	2193.03
644.626	2088.59
644.819	2084.49
645.012	1914.51
645.205	1912.46
645.398	1826.45
645.591	1805.97
645.784	1738.38
645.977	1592.98
646.17	1502.87
646.363	1506.96
646.556	1386.13
646.749	1326.74
646.942	1316.5
647.135	1318.55
647.328	1201.82
647.521	1259.16
647.714	1187.48
647.907	1068.7
648.099	982.68
648.292	1105.56
648.485	933.53
648.678	941.72
648.871	892.57
649.064	898.72
649.256	786.08
649.449	726.69
649.642	749.22
649.835	747.17
650.027	663.2
650.22	771.74
650.413	724.64
650.605	812.7
650.798	661.15
650.991	603.81
651.183	546.47
651.376	632.48
651.568	562.85
651.761	482.98
651.954	644.77
652.146	423.59
652.339	573.09
652.531	523.94
652.724	478.88
652.916	489.12
653.109	323.24
653.301	480.93
653.494	351.91
653.686	380.58
653.879	431.78
654.071	431.78
654.263	237.22
654.456	302.76
654.648	396.96
654.84	337.57
655.033	239.27
655.225	421.54
655.417	245.41
655.61	384.68
655.802	358.05
655.994	417.44
656.186	175.78
656.379	257.7
656.571	253.61
656.763	253.61
656.955	259.75
657.148	169.64
657.34	282.28
657.532	261.8
657.724	224.94
657.916	251.56
658.108	253.61
658.3	263.85
658.492	253.61
658.684	147.11
658.876	175.78
659.068	143.02
659.26	118.44
659.452	151.21
659.644	194.22
659.836	323.24
660.028	179.88
660.22	110.25
660.412	196.26
660.604	110.25
660.796	231.08
660.988	206.5
661.18	251.56
661.372	147.11
661.563	145.06
661.755	202.41
661.947	120.49
662.139	118.44
662.331	202.41
662.522	143.02
662.714	57
662.906	65.19
663.097	132.78
663.289	93.87
663.481	61.1
663.673	233.13
663.864	145.06
664.056	179.88
664.247	194.22
664.439	212.65
664.631	130.73
664.822	165.54
665.014	116.39
665.205	110.25
665.397	89.77
665.588	183.98
665.78	151.21
665.971	169.64
666.163	177.83
666.354	212.65
666.546	22.19
666.737	65.19
666.929	85.67
667.12	13.99
667.311	104.11
667.503	138.92
667.694	138.92
667.885	188.07
668.077	145.06
668.268	54.95
668.459	155.3
668.651	112.3
668.842	147.11
669.033	-67.92
669.224	73.39
669.416	251.56
669.607	87.72
669.798	48.81
669.989	212.65
670.18	114.34
670.371	114.34
670.563	95.91
670.754	188.07
670.945	132.78
671.136	97.96
671.327	38.57
671.518	194.22
671.709	212.65
671.9	175.78
672.091	204.46
672.282	192.17
672.473	143.02
672.664	52.91
672.855	106.15
673.046	192.17
673.237	210.6
673.428	73.39
673.619	143.02
673.809	81.58
674	200.36
674.191	181.93
674.382	36.52
674.573	155.3
674.764	77.48
674.954	251.56
675.145	73.39
675.336	50.86
675.527	138.92
675.717	65.19
675.908	69.29
676.099	73.39
676.289	183.98
676.48	79.53
676.671	163.5
676.861	116.39
677.052	171.69
677.243	130.73
677.433	46.76
677.624	175.78
677.814	171.69
678.005	118.44
678.195	192.17
678.386	20.14
678.576	151.21
678.767	30.38
678.957	118.44
679.148	95.91
679.338	243.37
679.529	145.06
679.719	153.26
679.909	192.17
680.1	183.98
680.29	130.73
680.481	30.38
680.671	196.26
680.861	259.75
681.052	177.83
681.242	104.11
681.432	261.8
681.622	229.03
681.813	97.96
682.003	216.74
682.193	81.58
682.383	132.78
682.573	202.41
682.764	149.16
682.954	222.89
683.144	229.03
683.334	89.77
683.524	143.02
683.714	210.6
683.904	163.5
684.094	85.67
684.284	194.22
684.474	331.43
684.664	196.26
684.854	212.65
685.044	163.5
685.234	220.84
685.424	134.82
685.614	140.97
685.804	269.99
685.994	171.69
686.184	231.08
686.374	186.02
686.564	200.36
686.753	194.22
686.943	169.64
687.133	159.4
687.323	179.88
687.513	188.07
687.702	196.26
687.892	153.26
688.082	300.71
688.272	267.94
688.461	239.27
688.651	265.89
688.841	175.78
689.03	108.2
689.22	253.61
689.41	237.22
689.599	233.13
689.789	171.69
689.979	237.22
690.168	208.55
690.358	226.98
690.547	169.64
690.737	206.5
690.926	196.26
691.116	171.69
691.305	235.18
691.495	231.08
691.684	136.87
691.874	89.77
692.063	198.31
692.252	208.55
692.442	222.89
692.631	100.01
692.82	171.69
693.01	171.69
693.199	157.35
693.388	218.79
693.578	130.73
693.767	235.18
693.956	208.55
694.146	155.3
694.335	151.21
694.524	118.44
694.713	206.5
694.902	130.73
695.092	122.54
695.281	249.51
695.47	114.34
695.659	120.49
695.848	145.06
696.037	124.58
696.226	226.98
696.415	89.77
696.604	343.72
696.793	310.95
696.982	102.06
697.171	235.18
697.36	175.78
697.549	147.11
697.738	73.39
697.927	157.35
698.116	124.58
698.305	188.07
698.494	216.74
698.683	145.06
698.872	231.08
699.061	186.02
699.25	177.83
699.438	173.74
699.627	159.4
699.816	216.74
700.005	40.62
700.193	122.54
700.382	224.94
700.571	272.04
700.76	235.18
700.948	325.29
701.137	204.46
701.326	173.74
701.514	190.12
701.703	147.11
701.892	120.49
702.08	286.37
702.269	114.34
702.457	136.87
702.646	194.22
702.834	112.3
703.023	171.69
703.212	294.57
703.4	143.02
703.589	155.3
703.777	102.06
703.965	100.01
704.154	163.5
704.342	194.22
704.531	93.87
704.719	181.93
704.907	360.1
705.096	147.11
705.284	97.96
705.472	177.83
705.661	179.88
705.849	190.12
706.037	202.41
706.226	167.59
706.414	229.03
706.602	161.45
706.79	218.79
706.979	46.76
707.167	188.07
707.355	11.95
707.543	181.93
707.731	163.5
707.919	149.16
708.107	126.63
708.296	67.24
708.484	87.72
708.672	196.26
708.86	128.68
709.048	186.02
709.236	52.91
709.424	171.69
709.612	186.02
709.8	77.48
709.988	183.98
710.176	249.51
710.364	216.74
710.551	81.58
710.739	147.11
710.927	204.46
711.115	204.46
711.303	167.59
711.491	253.61
711.679	77.48
711.866	171.69
712.054	138.92
712.242	128.68
712.43	214.7
712.617	157.35
712.805	214.7
712.993	102.06
713.181	61.1
713.368	204.46
713.556	147.11
713.744	112.3
713.931	310.95
714.119	196.26
714.306	151.21
714.494	153.26
714.682	163.5
714.869	100.01
715.057	116.39
715.244	128.68
715.432	214.7
715.619	171.69
715.807	128.68
715.994	140.97
716.182	171.69
716.369	226.98
716.556	163.5
716.744	138.92
716.931	153.26
717.119	183.98
717.306	171.69
717.493	253.61
717.681	200.36
717.868	126.63
718.055	278.18
718.242	85.67
718.43	143.02
718.617	282.28
718.804	89.77
718.991	274.09
719.179	237.22
719.366	249.51
719.553	147.11
719.74	267.94
719.927	128.68
720.114	177.83
720.301	155.3
720.488	138.92
720.676	85.67
720.863	259.75
721.05	292.52
721.237	229.03
721.424	167.59
721.611	102.06
721.798	120.49
721.985	102.06
722.172	163.5
722.358	198.31
722.545	274.09
722.732	278.18
722.919	239.27
723.106	208.55
723.293	186.02
723.48	257.7
723.667	179.88
723.853	329.38
724.04	206.5
724.227	296.61
724.414	253.61
724.6	269.99
724.787	220.84
724.974	265.89
725.161	257.7
725.347	151.21
725.534	196.26
725.72	229.03
725.907	188.07
726.094	302.76
726.28	163.5
726.467	138.92
726.653	118.44
726.84	286.37
727.027	294.57
727.213	171.69
727.4	181.93
727.586	212.65
727.773	208.55
727.959	210.6
728.145	220.84
728.332	171.69
728.518	233.13
728.705	241.32
728.891	194.22
729.077	155.3
729.264	183.98
729.45	179.88
729.636	358.05
729.823	298.66
730.009	276.13
730.195	241.32
730.382	286.37
730.568	196.26
730.754	235.18
730.94	181.93
731.126	186.02
731.313	313
731.499	233.13
731.685	241.32
731.871	265.89
732.057	218.79
732.243	310.95
732.429	229.03
732.615	276.13
732.801	257.7
732.987	267.94
733.173	278.18
733.359	265.89
733.545	212.65
733.731	196.26
733.917	194.22
734.103	288.42
734.289	272.04
734.475	161.45
734.661	366.25
734.847	298.66
735.033	313
735.219	282.28
735.404	190.12
735.59	198.31
735.776	128.68
735.962	200.36
736.148	229.03
736.333	257.7
736.519	302.76
736.705	298.66
736.89	204.46
737.076	241.32
737.262	155.3
737.447	108.2
737.633	241.32
737.819	278.18
738.004	255.65
738.19	251.56
738.375	284.33
738.561	310.95
738.747	282.28
738.932	229.03
739.118	384.68
739.303	341.67
739.489	304.81
739.674	224.94
739.859	179.88
740.045	290.47
740.23	245.41
740.416	130.73
740.601	231.08
740.786	245.41
740.972	177.83
741.157	239.27
741.342	134.82
741.528	237.22
741.713	306.85
741.898	331.43
742.084	220.84
742.269	175.78
742.454	220.84
742.639	315.05
742.824	251.56
743.01	374.44
743.195	349.86
743.38	220.84
743.565	259.75
743.75	261.8
743.935	327.33
744.12	306.85
744.305	138.92
744.49	237.22
744.675	229.03
744.86	245.41
745.045	286.37
745.23	290.47
745.415	265.89
745.6	253.61
745.785	181.93
745.97	292.52
746.155	267.94
746.34	282.28
746.525	206.5
746.71	325.29
746.895	247.46
747.079	171.69
747.264	175.78
747.449	241.32
747.634	315.05
747.819	290.47
748.003	171.69
748.188	147.11
748.373	276.13
748.557	237.22
748.742	190.12
748.927	261.8
749.111	147.11
749.296	126.63
749.481	294.57
749.665	249.51
749.85	177.83
750.034	345.77
750.219	212.65
750.404	95.91
750.588	214.7
750.773	212.65
750.957	181.93
751.141	163.5
751.326	302.76
751.51	151.21
751.695	153.26
751.879	167.59
752.064	288.42
752.248	147.11
752.432	345.77
752.617	245.41
752.801	237.22
752.985	202.41
753.17	231.08
753.354	181.93
753.538	239.27
753.722	151.21
753.907	140.97
754.091	67.24
754.275	204.46
754.459	155.3
754.643	100.01
754.828	249.51
755.012	231.08
755.196	112.3
755.38	212.65
755.564	169.64
755.748	140.97
755.932	204.46
756.116	224.94
756.3	226.98
756.484	104.11
756.668	163.5
756.852	71.34
757.036	138.92
757.22	231.08
757.404	118.44
757.588	106.15
757.772	134.82
757.956	65.19
758.14	224.94
758.323	97.96
758.507	153.26
758.691	134.82
758.875	151.21
759.059	202.41
759.242	100.01
759.426	85.67
759.61	130.73
759.794	91.82
759.977	161.45
760.161	216.74
760.345	171.69
760.528	192.17
760.712	126.63
760.895	130.73
761.079	93.87
761.263	46.76
761.446	65.19
761.63	124.58
761.813	206.5
761.997	36.52
762.18	147.11
762.364	97.96
762.547	-2.39
762.731	214.7
762.914	196.26
763.098	85.67
763.281	69.29
763.464	87.72
763.648	179.88
763.831	118.44
764.015	114.34
764.198	157.35
764.381	57
764.564	100.01
764.748	136.87
764.931	106.15
765.114	102.06
765.297	145.06
765.481	118.44
765.664	114.34
765.847	46.76
766.03	147.11
766.213	54.95
766.397	65.19
766.58	42.67
766.763	171.69
766.946	95.91
767.129	110.25
767.312	57
767.495	24.23
767.678	89.77
767.861	87.72
768.044	69.29
768.227	48.81
768.41	93.87
768.593	104.11
768.776	126.63
768.959	30.38
769.142	140.97
769.324	40.62
769.507	36.52
769.69	143.02
769.873	59.05
770.056	247.46
770.239	89.77
770.421	155.3
770.604	171.69
770.787	132.78
770.97	120.49
771.152	57
771.335	81.58
771.518	-16.73
771.7	120.49
771.883	204.46
772.066	16.04
772.248	157.35
772.431	173.74
772.613	183.98
772.796	63.15
772.978	118.44
773.161	155.3
773.343	-8.53
773.526	73.39
773.708	5.8
773.891	48.81
774.073	118.44
774.256	69.29
774.438	138.92
774.621	71.34
774.803	102.06
774.985	138.92
775.168	124.58
775.35	-4.44
775.532	75.43
775.715	97.96
775.897	95.91
776.079	24.23
776.261	40.62
776.444	118.44
776.626	30.38
776.808	54.95
776.99	38.57
777.173	100.01
777.355	65.19
777.537	77.48
777.719	155.3
777.901	1.71
778.083	44.71
778.265	38.57
778.447	130.73
778.629	32.43
778.811	159.4
778.993	91.82
779.175	167.59
779.357	57
779.539	34.47
779.721	69.29
779.903	126.63
780.085	110.25
780.267	155.3
780.449	134.82
780.631	85.67
780.812	106.15
780.994	34.47
781.176	85.67
781.358	-4.44
781.54	85.67
781.721	97.96
781.903	126.63
782.085	52.91
782.267	93.87
782.448	-53.59
782.63	-0.34
782.812	108.2
782.993	44.71
783.175	54.95
783.357	57
783.538	22.19
783.72	24.23
783.901	40.62
784.083	24.23
784.264	122.54
784.446	-14.68
784.627	-22.87
784.809	73.39
784.99	11.95
785.172	140.97
785.353	9.9
785.535	18.09
785.716	48.81
785.897	40.62
786.079	63.15
786.26	83.63
786.441	73.39
786.623	-8.53
786.804	-63.83
786.985	-29.01
787.167	36.52
787.348	112.3
787.529	73.39
787.71	188.07
787.891	77.48
788.073	44.71
788.254	-35.16
788.435	151.21
788.616	-18.77
788.797	-0.34
788.978	22.19
789.159	-10.58
789.34	61.1
789.522	-8.53
789.703	52.91
789.884	38.57
790.065	36.52
790.246	179.88
790.427	77.48
790.607	102.06
790.788	104.11
790.969	-41.3
791.15	20.14
791.331	-61.78
791.512	26.28
791.693	-45.4
791.874	11.95
792.054	155.3
792.235	40.62
792.416	-69.97
792.597	-106.84
792.778	48.81
792.958	9.9
793.139	69.29
793.32	30.38
793.5	-24.92
793.681	110.25
793.862	79.53
794.042	26.28
794.223	-84.31
794.404	-51.54
794.584	-49.49
794.765	-43.35
794.945	32.43
795.126	11.95
795.306	73.39
795.487	22.19
795.667	-26.96
795.848	32.43
796.028	-12.63
796.209	63.15
796.389	-12.63
796.57	50.86
796.75	54.95
796.93	54.95
797.111	-57.68
797.291	13.99
797.471	120.49
797.652	-47.44
797.832	-22.87
798.012	65.19
798.192	-26.96
798.373	-45.4
798.553	-57.68
798.733	52.91
798.913	69.29
799.093	-18.77
799.274	57
799.454	163.5
799.634	85.67
799.814	67.24
799.994	1.71
800.174	71.34
800.354	30.38
800.534	-106.84
800.714	16.04
800.894	-63.83
801.074	-78.16
801.254	7.85
801.434	-2.39
801.614	20.14
801.794	-51.54
801.974	1771.15
802.154	-26.96
802.334	36.52
802.514	-131.41
802.693	7.85
802.873	7.85
803.053	122.54
803.233	87.72
803.413	-26.96
803.592	-37.2
803.772	-8.53
803.952	16.04
804.131	-65.88
804.311	77.48
804.491	147.11
804.67	-39.25
804.85	-102.74
805.03	7.85
805.209	87.72
805.389	-24.92
805.568	44.71
805.748	-110.93
805.928	11.95
806.107	87.72
806.287	22.19
806.466	11.95
806.646	-41.3
806.825	-33.11
807.004	44.71
807.184	-55.64
807.363	20.14
807.543	26.28
807.722	-51.54
807.901	97.96
808.081	122.54
808.26	-117.08
808.439	-16.73
808.619	48.81
808.798	-24.92
808.977	11.95
809.156	48.81
809.336	-4.44
809.515	50.86
809.694	-8.53
809.873	-16.73
810.052	24.23
810.231	73.39
810.411	18.09
810.59	112.3
810.769	81.58
810.948	110.25
811.127	-123.22
811.306	-55.64
811.485	-16.73
811.664	63.15
811.843	30.38
812.022	-29.01
812.201	-0.34
812.38	26.28
812.559	-74.07
812.737	18.09
812.916	-127.32
813.095	-33.11
813.274	69.29
813.453	32.43
813.632	-16.73
813.811	85.67
813.989	-53.59
814.168	36.52
814.347	-41.3
814.526	11.95
814.704	161.45
814.883	77.48
815.062	-53.59
815.24	124.58
815.419	-96.6
815.598	59.05
815.776	-84.31
815.955	-18.77
816.133	-49.49
816.312	13.99
816.49	-33.11
816.669	-65.88
816.847	16.04
817.026	30.38
817.204	-29.01
817.383	-69.97
817.561	-90.45
817.74	-72.02
817.918	18.09
818.097	3.75
818.275	-18.77
818.453	-24.92
818.632	42.67
818.81	1.71
818.988	-18.77
819.167	-16.73
819.345	-16.73
819.523	-39.25
819.701	-20.82
819.879	83.63
820.058	-4.44
820.236	-22.87
820.414	77.48
820.592	-53.59
820.77	28.33
820.948	-65.88
821.127	-37.2
821.305	36.52
821.483	-78.16
821.661	91.82
821.839	-8.53
822.017	-33.11
822.195	-24.92
822.373	18.09
822.551	40.62
822.729	7.85
822.907	-108.88
823.085	11.95
823.262	-6.49
823.44	52.91
823.618	7.85
823.796	48.81
823.974	-4.44
824.152	-6.49
824.329	-0.34
824.507	42.67
824.685	-4.44
824.863	-33.11
825.04	-12.63
825.218	-14.68
825.396	16.04
825.574	36.52
825.751	-10.58
825.929	89.77
826.107	-43.35
826.284	44.71
826.462	44.71
826.639	-37.2
826.817	-100.69
826.994	-39.25
827.172	-115.03
827.349	145.06
827.527	-33.11
827.704	-49.49
827.882	81.58
828.059	-57.68
828.237	-4.44
828.414	3.75
828.591	-115.03
828.769	71.34
828.946	-76.12
829.124	16.04
829.301	38.57
829.478	7.85
829.655	-37.2
829.833	-8.53
830.01	-53.59
830.187	63.15
830.364	42.67
830.542	112.3
830.719	149.16
830.896	54.95
831.073	-100.69
831.25	3.75
831.427	-4.44
831.604	1.71
831.782	-65.88
831.959	65.19
832.136	-82.26
832.313	38.57
832.49	-26.96
832.667	110.25
832.844	-133.46
833.021	118.44
833.198	1.71
833.374	-57.68
833.551	-22.87
833.728	-0.34
833.905	38.57
834.082	-57.68
834.259	28.33
834.436	87.72
834.612	-63.83
834.789	79.53
834.966	20.14
835.143	11.95
835.319	-69.97
835.496	38.57
835.673	32.43
835.85	128.68
836.026	85.67
836.203	85.67
836.38	-0.34
836.556	-63.83
836.733	-86.36
836.909	83.63
837.086	-51.54
837.262	-94.55
837.439	28.33
837.616	42.67
837.792	5.8
837.968	9.9
838.145	-74.07
838.321	-2.39
838.498	81.58
838.674	-14.68
838.851	57
839.027	-49.49
839.203	-4.44
839.38	104.11
839.556	-76.12
839.732	24.23
839.909	-29.01
840.085	28.33
840.261	-20.82
840.437	-24.92
840.614	-16.73
840.79	69.29
840.966	28.33
841.142	-4.44
841.318	-65.88
841.494	52.91
841.671	65.19
841.847	-20.82
842.023	-69.97
842.199	24.23
842.375	9.9
842.551	-102.74
842.727	-67.92
842.903	73.39
843.079	-31.06
843.255	77.48
843.431	9.9
843.607	85.67
843.783	-125.27
843.959	30.38
844.134	-92.5
844.31	40.62
844.486	-0.34
844.662	-55.64
844.838	7.85
845.013	16.04
845.189	108.2
845.365	-20.82
845.541	7.85
845.716	-26.96
845.892	52.91
846.068	36.52
846.244	7.85
846.419	28.33
846.595	-82.26
846.77	-94.55
846.946	-18.77
847.122	-76.12
847.297	-12.63
847.473	69.29
847.648	-61.78
847.824	-74.07
847.999	-98.64
848.175	-37.2
848.35	7.85
848.526	77.48
848.701	-0.34
848.876	130.73
849.052	114.34
849.227	7.85
849.403	-47.44
849.578	-63.83
849.753	16.04
849.929	44.71
850.104	-29.01
850.279	-88.4
850.454	65.19
850.63	-33.11
850.805	7.85
850.98	9.9
851.155	-49.49
851.33	3.75
851.505	-41.3
851.681	52.91
851.856	-57.68
852.031	65.19
852.206	22.19
852.381	-61.78
852.556	-57.68
852.731	42.67
852.906	32.43
853.081	11.95
853.256	77.48
853.431	-2.39
853.606	-26.96
853.781	-69.97
853.956	-82.26
854.131	16.04
854.305	-2.39
854.48	-80.21
854.655	-4.44
854.83	-82.26
855.005	-76.12
855.18	44.71
855.354	24.23
855.529	5.8
855.704	7.85
855.879	54.95
856.053	-59.73
856.228	-55.64
856.403	-110.93
856.577	61.1
856.752	-18.77
856.926	-26.96
857.101	46.76
857.276	-33.11
857.45	20.14
857.625	11.95
857.799	91.82
857.974	-86.36
858.148	-74.07
858.323	83.63
858.497	-10.58
858.672	-41.3
858.846	-57.68
859.02	73.39
859.195	-90.45
859.369	-45.4
859.543	7.85
859.718	32.43
859.892	-26.96
860.066	3.75
860.241	5.8
860.415	-117.08
860.589	5.8
860.763	73.39
860.938	-26.96
861.112	44.71
861.286	-6.49
861.46	-26.96
861.634	-41.3
861.808	120.49
861.982	-80.21
862.157	-84.31
862.331	36.52
862.505	-106.84
862.679	-49.49
862.853	-16.73
863.027	-22.87
863.201	102.06
863.375	-65.88
863.549	28.33
863.722	-24.92
863.896	81.58
864.07	-57.68
864.244	-8.53
864.418	44.71
864.592	-29.01
864.766	22.19
864.939	-22.87
865.113	-29.01
865.287	40.62
865.461	-57.68
865.634	44.71
865.808	18.09
865.982	-4.44
866.156	-20.82
866.329	-78.16
866.503	28.33
866.676	-22.87
866.85	48.81
867.024	-47.44
867.197	-0.34
867.371	-4.44
867.544	57
867.718	-53.59
867.891	22.19
868.065	-94.55
868.238	40.62
868.412	97.96
868.585	-26.96
868.759	-20.82
868.932	-69.97
869.105	-72.02
869.279	69.29
869.452	-20.82
869.625	-16.73
869.799	-26.96
869.972	-76.12
870.145	-49.49
870.319	67.24
870.492	16.04
870.665	-80.21
870.838	-78.16
871.011	-160.08
871.185	-4.44
871.358	32.43
871.531	-41.3
871.704	-49.49
871.877	-24.92
872.05	-24.92
872.223	-4.44
872.396	102.06
872.569	7.85
872.742	-98.64
872.915	-12.63
873.088	-51.54
873.261	-49.49
873.434	50.86
873.607	-74.07
873.78	106.15
873.953	-37.2
874.126	38.57
874.299	30.38
874.471	-63.83
874.644	-2.39
874.817	89.77
874.99	48.81
875.163	-24.92
875.335	5.8
875.508	-22.87
875.681	85.67
875.853	1.71
876.026	5.8
876.199	28.33
876.371	65.19
876.544	9.9
876.717	24.23
876.889	-65.88
877.062	22.19
877.234	-96.6
877.407	-24.92
877.579	40.62
877.752	28.33
877.924	73.39
878.097	24.23
878.269	22.19
878.442	-45.4
878.614	87.72
878.786	-24.92
878.959	-49.49
879.131	-41.3
879.303	-108.88
879.476	-2.39
879.648	26.28
879.82	-61.78
879.993	5.8
880.165	28.33
880.337	-59.73
880.509	24.23
880.681	-74.07
880.854	-74.07
881.026	-24.92
881.198	138.92
881.37	24.23
881.542	-16.73
881.714	28.33
881.886	-26.96
882.058	-84.31
882.23	54.95
882.402	-74.07
882.574	3.75
882.746	71.34
882.918	13.99
883.09	63.15
883.262	-53.59
883.434	-37.2
883.606	-51.54
883.778	-37.2
883.95	71.34
884.122	-94.55
884.293	63.15
884.465	18.09
884.637	-43.35
884.809	-74.07
884.98	48.81
885.152	1.71
885.324	-0.34
885.496	-53.59
885.667	7.85
885.839	-106.84
886.011	57
886.182	159.4
886.354	46.76
886.525	11.95
886.697	16.04
886.869	-92.5
887.04	-88.4
887.212	77.48
887.383	93.87
887.555	-35.16
887.726	-33.11
887.897	52.91
888.069	-16.73
888.24	65.19
888.412	18.09
888.583	-8.53
888.754	11.95
888.926	-86.36
889.097	-33.11
889.268	-115.03
889.44	16.04
889.611	-0.34
889.782	-57.68
889.953	-59.73
890.125	20.14
890.296	-67.92
890.467	-20.82
890.638	30.38
890.809	46.76
890.98	-98.64
891.151	38.57
891.323	61.1
891.494	-24.92
891.665	16.04
891.836	-24.92
892.007	65.19
892.178	28.33
892.349	30.38
892.52	5.8
892.691	13.99
892.862	-6.49
893.032	-51.54
893.203	-47.44
893.374	-6.49
893.545	-8.53
893.716	-20.82
893.887	40.62
894.057	-31.06
894.228	-33.11
894.399	-37.2
894.57	52.91
894.74	34.47
894.911	-8.53
895.082	-8.53
895.253	-55.64
895.423	36.52
895.594	-18.77
895.764	106.15
895.935	-59.73
896.106	-4.44
896.276	-80.21
896.447	42.67
896.617	-41.3
896.788	-98.64
896.958	-8.53
897.129	42.67
897.299	30.38
897.47	54.95
897.64	5.8
897.81	7.85
897.981	-16.73
898.151	-18.77
898.322	-90.45
898.492	44.71
898.662	-49.49
898.832	-90.45
899.003	-35.16
899.173	24.23
899.343	-0.34
899.513	-16.73
