Data from USB4F104151__66__11-30-57-064.txt Node

Date: Wed Feb 26 11:30:57 EST 2025
User: louis
Spectrometer: USB4F10415
Trigger mode: 4
Integration Time (sec): 1.000000E-1
Scans to average: 1
Electric dark correction enabled: true
Nonlinearity correction enabled: false
Boxcar width: 0
XAxis mode: Wavelengths
Number of Pixels in Spectrum: 3648
>>>>>Begin Spectral Data<<<<<
178.204	-422.22
178.424	-422.22
178.644	-422.22
178.864	-424.27
179.084	-379.22
179.304	77.48
179.524	-24.92
179.744	9.9
179.964	-0.34
180.184	11.95
180.404	104.11
180.624	-90.45
180.844	-8.53
181.064	-80.21
181.283	11.95
181.503	-47.44
181.723	36.52
181.943	-141.65
182.163	171.69
182.383	-104.79
182.602	67.24
182.822	89.77
183.042	130.73
183.262	-57.68
183.482	-43.35
183.701	93.87
183.921	114.34
184.141	-39.25
184.361	32.43
184.58	5.8
184.8	-26.96
185.02	20.14
185.239	61.1
185.459	79.53
185.679	52.91
185.898	-129.36
186.118	18.09
186.338	16.04
186.557	112.3
186.777	-39.25
186.997	36.52
187.216	40.62
187.436	179.88
187.655	-6.49
187.875	104.11
188.095	-16.73
188.314	93.87
188.534	220.84
188.753	-57.68
188.973	67.24
189.192	108.2
189.412	3.75
189.631	93.87
189.851	114.34
190.07	116.39
190.29	-20.82
190.509	13.99
190.729	69.29
190.948	171.69
191.168	112.3
191.387	11.95
191.607	-47.44
191.826	73.39
192.045	3.75
192.265	11.95
192.484	67.24
192.704	-0.34
192.923	-112.98
193.142	177.83
193.362	95.91
193.581	128.68
193.8	69.29
194.02	136.87
194.239	122.54
194.458	-10.58
194.678	30.38
194.897	44.71
195.116	22.19
195.335	32.43
195.555	77.48
195.774	-14.68
195.993	106.15
196.212	44.71
196.432	32.43
196.651	-8.53
196.87	-12.63
197.089	229.03
197.308	46.76
197.528	77.48
197.747	-61.78
197.966	61.1
198.185	79.53
198.404	-59.73
198.623	67.24
198.842	32.43
199.062	97.96
199.281	112.3
199.5	20.14
199.719	11.95
199.938	97.96
200.157	22.19
200.376	124.58
200.595	108.2
200.814	28.33
201.033	11.95
201.252	114.34
201.471	57
201.69	24.23
201.909	65.19
202.128	34.47
202.347	81.58
202.566	9.9
202.785	-57.68
203.004	59.05
203.223	282.28
203.442	102.06
203.661	-69.97
203.879	122.54
204.098	138.92
204.317	-6.49
204.536	89.77
204.755	104.11
204.974	28.33
205.193	46.76
205.411	20.14
205.63	167.59
205.849	5.8
206.068	13.99
206.287	-61.78
206.505	93.87
206.724	-24.92
206.943	-4.44
207.162	-106.84
207.381	110.25
207.599	57
207.818	42.67
208.037	26.28
208.255	22.19
208.474	30.38
208.693	22.19
208.911	-16.73
209.13	110.25
209.349	-20.82
209.567	130.73
209.786	59.05
210.005	75.43
210.223	24.23
210.442	-151.89
210.661	54.95
210.879	7.85
211.098	44.71
211.316	9.9
211.535	-2.39
211.753	85.67
211.972	165.54
212.191	63.15
212.409	40.62
212.628	93.87
212.846	-2.39
213.065	52.91
213.283	130.73
213.502	-31.06
213.72	9.9
213.938	50.86
214.157	83.63
214.375	104.11
214.594	-24.92
214.812	126.63
215.031	42.67
215.249	18.09
215.467	75.43
215.686	38.57
215.904	87.72
216.122	-22.87
216.341	169.64
216.559	22.19
216.778	71.34
216.996	114.34
217.214	36.52
217.432	1.71
217.651	-47.44
217.869	-22.87
218.087	48.81
218.306	-31.06
218.524	97.96
218.742	34.47
218.96	9.9
219.179	63.15
219.397	61.1
219.615	173.74
219.833	77.48
220.051	-31.06
220.27	93.87
220.488	-6.49
220.706	26.28
220.924	1.71
221.142	-67.92
221.36	93.87
221.578	26.28
221.796	-0.34
222.015	13.99
222.233	-26.96
222.451	93.87
222.669	-53.59
222.887	75.43
223.105	44.71
223.323	-59.73
223.541	-2.39
223.759	-51.54
223.977	36.52
224.195	216.74
224.413	87.72
224.631	46.76
224.849	5.8
225.067	122.54
225.285	7.85
225.503	13.99
225.721	-129.36
225.939	16.04
226.157	48.81
226.375	126.63
226.592	5.8
226.81	69.29
227.028	124.58
227.246	212.65
227.464	79.53
227.682	95.91
227.9	63.15
228.117	65.19
228.335	93.87
228.553	79.53
228.771	-12.63
228.989	118.44
229.206	97.96
229.424	-24.92
229.642	11.95
229.86	-22.87
230.077	155.3
230.295	36.52
230.513	110.25
230.731	87.72
230.948	208.55
231.166	34.47
231.384	-24.92
231.601	-16.73
231.819	190.12
232.037	26.28
232.254	-76.12
232.472	-108.88
232.689	-6.49
232.907	194.22
233.125	-20.82
233.342	-43.35
233.56	34.47
233.777	-26.96
233.995	-63.83
234.213	138.92
234.43	32.43
234.648	42.67
234.865	50.86
235.083	48.81
235.3	48.81
235.518	136.87
235.735	120.49
235.953	65.19
236.17	-16.73
236.388	44.71
236.605	-8.53
236.822	100.01
237.04	104.11
237.257	81.58
237.475	24.23
237.692	11.95
237.909	67.24
238.127	13.99
238.344	46.76
238.562	79.53
238.779	-18.77
238.996	-41.3
239.214	61.1
239.431	9.9
239.648	-6.49
239.865	42.67
240.083	-20.82
240.3	75.43
240.517	11.95
240.735	54.95
240.952	116.39
241.169	79.53
241.386	61.1
241.603	61.1
241.821	-47.44
242.038	36.52
242.255	16.04
242.472	13.99
242.689	89.77
242.907	52.91
243.124	26.28
243.341	18.09
243.558	-49.49
243.775	-16.73
243.992	-49.49
244.209	57
244.426	202.41
244.643	71.34
244.86	77.48
245.078	95.91
245.295	83.63
245.512	54.95
245.729	-16.73
245.946	32.43
246.163	114.34
246.38	-69.97
246.597	83.63
246.814	46.76
247.031	93.87
247.248	18.09
247.464	75.43
247.681	-2.39
247.898	63.15
248.115	79.53
248.332	-76.12
248.549	161.45
248.766	161.45
248.983	100.01
249.2	122.54
249.417	87.72
249.633	-55.64
249.85	87.72
250.067	5.8
250.284	-26.96
250.501	59.05
250.717	40.62
250.934	-29.01
251.151	-6.49
251.368	48.81
251.585	36.52
251.801	30.38
252.018	48.81
252.235	22.19
252.451	-69.97
252.668	75.43
252.885	112.3
253.102	91.82
253.318	5.8
253.535	69.29
253.752	-14.68
253.968	-18.77
254.185	-84.31
254.401	16.04
254.618	63.15
254.835	42.67
255.051	122.54
255.268	50.86
255.484	-8.53
255.701	-2.39
255.917	46.76
256.134	-14.68
256.351	46.76
256.567	-37.2
256.784	38.57
257	-133.46
257.217	136.87
257.433	42.67
257.65	65.19
257.866	75.43
258.082	-74.07
258.299	7.85
258.515	54.95
258.732	-43.35
258.948	-104.79
259.165	40.62
259.381	-88.4
259.597	20.14
259.814	44.71
260.03	46.76
260.246	-41.3
260.463	130.73
260.679	186.02
260.895	20.14
261.112	18.09
261.328	50.86
261.544	1.71
261.761	122.54
261.977	-80.21
262.193	-88.4
262.409	75.43
262.626	59.05
262.842	13.99
263.058	-76.12
263.274	61.1
263.49	63.15
263.707	89.77
263.923	102.06
264.139	-55.64
264.355	18.09
264.571	116.39
264.787	-2.39
265.004	97.96
265.22	-8.53
265.436	-57.68
265.652	52.91
265.868	20.14
266.084	-14.68
266.3	26.28
266.516	-72.02
266.732	67.24
266.948	9.9
267.164	50.86
267.38	81.58
267.596	159.4
267.812	171.69
268.028	-12.63
268.244	13.99
268.46	18.09
268.676	-16.73
268.892	5.8
269.108	1.71
269.324	-47.44
269.54	-26.96
269.756	13.99
269.972	-51.54
270.188	-51.54
270.403	-51.54
270.619	110.25
270.835	75.43
271.051	83.63
271.267	-4.44
271.483	50.86
271.698	38.57
271.914	89.77
272.13	40.62
272.346	20.14
272.562	50.86
272.777	114.34
272.993	26.28
273.209	-76.12
273.425	100.01
273.64	-35.16
273.856	147.11
274.072	-18.77
274.287	-24.92
274.503	122.54
274.719	138.92
274.934	3.75
275.15	-80.21
275.366	46.76
275.581	-39.25
275.797	1.71
276.012	106.15
276.228	-43.35
276.444	7.85
276.659	44.71
276.875	-117.08
277.09	36.52
277.306	28.33
277.521	30.38
277.737	20.14
277.952	118.44
278.168	38.57
278.383	-8.53
278.599	48.81
278.814	97.96
279.03	-61.78
279.245	77.48
279.461	-14.68
279.676	22.19
279.892	-92.5
280.107	-51.54
280.322	-12.63
280.538	75.43
280.753	-59.73
280.969	122.54
281.184	26.28
281.399	145.06
281.615	34.47
281.83	-14.68
282.045	-33.11
282.26	-18.77
282.476	-12.63
282.691	52.91
282.906	61.1
283.122	-43.35
283.337	50.86
283.552	-0.34
283.767	9.9
283.983	110.25
284.198	7.85
284.413	40.62
284.628	-6.49
284.843	91.82
285.058	95.91
285.274	-8.53
285.489	-78.16
285.704	126.63
285.919	16.04
286.134	38.57
286.349	-47.44
286.564	-14.68
286.779	165.54
286.995	61.1
287.21	-74.07
287.425	83.63
287.64	52.91
287.855	22.19
288.07	-86.36
288.285	110.25
288.5	89.77
288.715	83.63
288.93	-37.2
289.145	1.71
289.36	124.58
289.575	28.33
289.79	149.16
290.004	36.52
290.219	67.24
290.434	-6.49
290.649	-16.73
290.864	-6.49
291.079	-37.2
291.294	-35.16
291.509	-14.68
291.724	-14.68
291.938	-31.06
292.153	97.96
292.368	30.38
292.583	20.14
292.798	61.1
293.012	3.75
293.227	110.25
293.442	32.43
293.657	79.53
293.871	153.26
294.086	128.68
294.301	140.97
294.516	97.96
294.73	87.72
294.945	-0.34
295.16	7.85
295.374	67.24
295.589	132.78
295.804	-2.39
296.018	57
296.233	77.48
296.447	63.15
296.662	-20.82
296.877	140.97
297.091	89.77
297.306	9.9
297.52	16.04
297.735	46.76
297.949	71.34
298.164	32.43
298.378	7.85
298.593	-51.54
298.807	9.9
299.022	-14.68
299.236	192.17
299.451	-53.59
299.665	42.67
299.88	93.87
300.094	83.63
300.309	13.99
300.523	28.33
300.737	28.33
300.952	81.58
301.166	73.39
301.381	-0.34
301.595	24.23
301.809	-16.73
302.024	13.99
302.238	-24.92
302.452	149.16
302.667	57
302.881	102.06
303.095	46.76
303.309	-14.68
303.524	24.23
303.738	32.43
303.952	-80.21
304.166	126.63
304.381	-78.16
304.595	151.21
304.809	-8.53
305.023	26.28
305.237	-78.16
305.452	104.11
305.666	50.86
305.88	71.34
306.094	54.95
306.308	16.04
306.522	59.05
306.736	46.76
306.95	153.26
307.164	54.95
307.379	-43.35
307.593	108.2
307.807	114.34
308.021	134.82
308.235	69.29
308.449	-41.3
308.663	102.06
308.877	218.79
309.091	9.9
309.305	134.82
309.519	-86.36
309.733	110.25
309.947	-29.01
310.161	52.91
310.374	112.3
310.588	145.06
310.802	79.53
311.016	-14.68
311.23	126.63
311.444	-14.68
311.658	22.19
311.872	128.68
312.085	67.24
312.299	81.58
312.513	149.16
312.727	95.91
312.941	-31.06
313.154	106.15
313.368	36.52
313.582	42.67
313.796	57
314.009	40.62
314.223	116.39
314.437	67.24
314.651	69.29
314.864	54.95
315.078	5.8
315.292	-37.2
315.505	5.8
315.719	3.75
315.933	145.06
316.146	-29.01
316.36	-14.68
316.573	81.58
316.787	149.16
317.001	100.01
317.214	-18.77
317.428	-6.49
317.641	-6.49
317.855	36.52
318.068	26.28
318.282	71.34
318.495	171.69
318.709	11.95
318.922	-45.4
319.136	106.15
319.349	118.44
319.563	-43.35
319.776	-2.39
319.99	-53.59
320.203	161.45
320.417	18.09
320.63	9.9
320.843	155.3
321.057	3.75
321.27	-47.44
321.483	95.91
321.697	132.78
321.91	57
322.124	18.09
322.337	104.11
322.55	-2.39
322.763	63.15
322.977	-4.44
323.19	-145.75
323.403	11.95
323.617	75.43
323.83	46.76
324.043	26.28
324.256	59.05
324.469	-65.88
324.683	52.91
324.896	-45.4
325.109	28.33
325.322	-67.92
325.535	136.87
325.748	52.91
325.962	-59.73
326.175	-33.11
326.388	57
326.601	122.54
326.814	5.8
327.027	28.33
327.24	145.06
327.453	-74.07
327.666	54.95
327.879	145.06
328.092	130.73
328.305	81.58
328.518	-14.68
328.731	-6.49
328.944	-55.64
329.157	134.82
329.37	3.75
329.583	237.22
329.796	179.88
330.009	-35.16
330.222	69.29
330.435	124.58
330.648	13.99
330.861	-2.39
331.073	50.86
331.286	81.58
331.499	-12.63
331.712	-18.77
331.925	-14.68
332.138	63.15
332.35	75.43
332.563	18.09
332.776	124.58
332.989	-41.3
333.202	-57.68
333.414	36.52
333.627	63.15
333.84	-24.92
334.053	20.14
334.265	-4.44
334.478	-6.49
334.691	-18.77
334.903	20.14
335.116	28.33
335.329	44.71
335.541	83.63
335.754	159.4
335.966	11.95
336.179	5.8
336.392	-8.53
336.604	-26.96
336.817	50.86
337.029	36.52
337.242	-4.44
337.454	54.95
337.667	79.53
337.88	173.74
338.092	46.76
338.305	38.57
338.517	-45.4
338.729	108.2
338.942	169.64
339.154	-12.63
339.367	-31.06
339.579	-41.3
339.792	-41.3
340.004	102.06
340.217	44.71
340.429	71.34
340.641	-0.34
340.854	-12.63
341.066	24.23
341.278	112.3
341.491	157.35
341.703	46.76
341.915	20.14
342.128	116.39
342.34	34.47
342.552	-14.68
342.764	48.81
342.977	-35.16
343.189	54.95
343.401	69.29
343.613	38.57
343.826	30.38
344.038	-119.12
344.25	69.29
344.462	-4.44
344.674	54.95
344.886	26.28
345.099	128.68
345.311	104.11
345.523	38.57
345.735	-57.68
345.947	69.29
346.159	36.52
346.371	16.04
346.583	-16.73
346.795	151.21
347.007	-2.39
347.219	77.48
347.431	1.71
347.643	145.06
347.855	-51.54
348.067	116.39
348.279	-12.63
348.491	89.77
348.703	3.75
348.915	-55.64
349.127	-10.58
349.339	36.52
349.551	22.19
349.763	114.34
349.975	34.47
350.187	26.28
350.399	171.69
350.61	54.95
350.822	54.95
351.034	87.72
351.246	42.67
351.458	24.23
351.669	75.43
351.881	77.48
352.093	16.04
352.305	118.44
352.517	75.43
352.728	16.04
352.94	63.15
353.152	36.52
353.363	-12.63
353.575	-22.87
353.787	147.11
353.999	75.43
354.21	100.01
354.422	-2.39
354.633	32.43
354.845	-14.68
355.057	73.39
355.268	-14.68
355.48	138.92
355.692	-106.84
355.903	-2.39
356.115	5.8
356.326	-112.98
356.538	147.11
356.749	9.9
356.961	83.63
357.172	71.34
357.384	-65.88
357.595	235.18
357.807	57
358.018	-51.54
358.23	24.23
358.441	124.58
358.653	57
358.864	-12.63
359.075	-43.35
359.287	69.29
359.498	75.43
359.709	59.05
359.921	3.75
360.132	69.29
360.344	44.71
360.555	59.05
360.766	24.23
360.977	57
361.189	87.72
361.4	11.95
361.611	67.24
361.823	161.45
362.034	59.05
362.245	-39.25
362.456	-10.58
362.667	36.52
362.879	36.52
363.09	83.63
363.301	-6.49
363.512	11.95
363.723	-26.96
363.935	-76.12
364.146	116.39
364.357	132.78
364.568	42.67
364.779	-72.02
364.99	138.92
365.201	-37.2
365.412	73.39
365.623	-14.68
365.834	93.87
366.045	-37.2
366.256	75.43
366.467	71.34
366.678	61.1
366.889	89.77
367.1	40.62
367.311	200.36
367.522	-12.63
367.733	28.33
367.944	100.01
368.155	-2.39
368.366	40.62
368.577	44.71
368.788	87.72
368.999	7.85
369.209	-41.3
369.42	175.78
369.631	249.51
369.842	54.95
370.053	26.28
370.264	77.48
370.474	-37.2
370.685	65.19
370.896	-43.35
371.107	132.78
371.317	79.53
371.528	120.49
371.739	48.81
371.95	81.58
372.16	28.33
372.371	-41.3
372.582	-45.4
372.792	48.81
373.003	40.62
373.214	52.91
373.424	69.29
373.635	50.86
373.846	163.5
374.056	81.58
374.267	61.1
374.477	46.76
374.688	34.47
374.898	77.48
375.109	61.1
375.319	132.78
375.53	83.63
375.74	91.82
375.951	54.95
376.161	126.63
376.372	138.92
376.582	-8.53
376.793	54.95
377.003	-4.44
377.214	-12.63
377.424	44.71
377.635	46.76
377.845	13.99
378.055	22.19
378.266	-53.59
378.476	-8.53
378.686	75.43
378.897	7.85
379.107	89.77
379.317	83.63
379.528	26.28
379.738	106.15
379.948	-12.63
380.158	63.15
380.369	28.33
380.579	116.39
380.789	50.86
380.999	73.39
381.21	40.62
381.42	183.98
381.63	-29.01
381.84	59.05
382.05	104.11
382.261	63.15
382.471	231.08
382.681	-4.44
382.891	177.83
383.101	79.53
383.311	-69.97
383.521	-67.92
383.731	118.44
383.941	36.52
384.151	52.91
384.361	7.85
384.571	102.06
384.781	130.73
384.991	212.65
385.201	136.87
385.411	57
385.621	63.15
385.831	50.86
386.041	77.48
386.251	30.38
386.461	61.1
386.671	81.58
386.881	93.87
387.091	75.43
387.301	81.58
387.511	16.04
387.72	61.1
387.93	44.71
388.14	-57.68
388.35	116.39
388.56	112.3
388.769	112.3
388.979	13.99
389.189	-33.11
389.399	50.86
389.609	95.91
389.818	134.82
390.028	52.91
390.238	30.38
390.447	16.04
390.657	93.87
390.867	-37.2
391.076	-41.3
391.286	104.11
391.496	38.57
391.705	54.95
391.915	153.26
392.125	110.25
392.334	-33.11
392.544	153.26
392.753	16.04
392.963	-22.87
393.172	75.43
393.382	-29.01
393.591	188.07
393.801	38.57
394.01	165.54
394.22	79.53
394.429	32.43
394.639	67.24
394.848	28.33
395.058	50.86
395.267	-72.02
395.477	57
395.686	-8.53
395.895	173.74
396.105	194.22
396.314	-22.87
396.524	-20.82
396.733	-14.68
396.942	42.67
397.152	149.16
397.361	110.25
397.57	73.39
397.78	69.29
397.989	-2.39
398.198	161.45
398.407	3.75
398.617	40.62
398.826	48.81
399.035	44.71
399.244	46.76
399.453	77.48
399.663	75.43
399.872	36.52
400.081	-92.5
400.29	120.49
400.499	-22.87
400.708	143.02
400.917	81.58
401.127	-41.3
401.336	-43.35
401.545	229.03
401.754	155.3
401.963	130.73
402.172	61.1
402.381	28.33
402.59	32.43
402.799	-2.39
403.008	108.2
403.217	116.39
403.426	-12.63
403.635	7.85
403.844	50.86
404.053	16.04
404.262	-67.92
404.471	206.5
404.68	79.53
404.888	3.75
405.097	-22.87
405.306	-6.49
405.515	116.39
405.724	54.95
405.933	145.06
406.142	63.15
406.35	177.83
406.559	73.39
406.768	18.09
406.977	173.74
407.185	18.09
407.394	138.92
407.603	-78.16
407.812	73.39
408.02	149.16
408.229	7.85
408.438	42.67
408.646	-55.64
408.855	57
409.064	63.15
409.272	-14.68
409.481	95.91
409.69	65.19
409.898	-12.63
410.107	116.39
410.315	112.3
410.524	1.71
410.733	-2.39
410.941	28.33
411.15	110.25
411.358	40.62
411.567	102.06
411.775	75.43
411.984	22.19
412.192	157.35
412.401	-29.01
412.609	165.54
412.818	65.19
413.026	65.19
413.234	77.48
413.443	40.62
413.651	-12.63
413.86	36.52
414.068	175.78
414.276	177.83
414.485	7.85
414.693	106.15
414.901	153.26
415.11	46.76
415.318	36.52
415.526	44.71
415.734	48.81
415.943	-26.96
416.151	126.63
416.359	120.49
416.567	116.39
416.776	151.21
416.984	100.01
417.192	159.4
417.4	34.47
417.608	7.85
417.817	-35.16
418.025	59.05
418.233	177.83
418.441	-33.11
418.649	-20.82
418.857	69.29
419.065	173.74
419.273	-8.53
419.481	102.06
419.689	32.43
419.897	-6.49
420.105	-45.4
420.313	61.1
420.521	173.74
420.729	102.06
420.937	75.43
421.145	-39.25
421.353	118.44
421.561	128.68
421.769	50.86
421.977	32.43
422.185	108.2
422.393	46.76
422.601	132.78
422.809	140.97
423.017	52.91
423.224	18.09
423.432	95.91
423.64	22.19
423.848	110.25
424.056	18.09
424.263	132.78
424.471	9.9
424.679	138.92
424.887	28.33
425.094	138.92
425.302	106.15
425.51	-29.01
425.718	116.39
425.925	102.06
426.133	-20.82
426.341	239.27
426.548	5.8
426.756	22.19
426.964	102.06
427.171	20.14
427.379	102.06
427.586	67.24
427.794	65.19
428.001	173.74
428.209	-47.44
428.417	161.45
428.624	91.82
428.832	132.78
429.039	122.54
429.247	149.16
429.454	91.82
429.662	194.22
429.869	65.19
430.076	59.05
430.284	138.92
430.491	108.2
430.699	130.73
430.906	259.75
431.114	77.48
431.321	159.4
431.528	89.77
431.736	46.76
431.943	161.45
432.15	149.16
432.358	143.02
432.565	183.98
432.772	54.95
432.979	239.27
433.187	179.88
433.394	292.52
433.601	118.44
433.808	194.22
434.016	216.74
434.223	224.94
434.43	214.7
434.637	239.27
434.844	267.94
435.052	239.27
435.259	261.8
435.466	233.13
435.673	247.46
435.88	294.57
436.087	347.81
436.294	382.63
436.501	265.89
436.708	310.95
436.915	253.61
437.122	386.72
437.329	255.65
437.537	370.34
437.743	370.34
437.95	452.26
438.157	403.11
438.364	403.11
438.571	429.73
438.778	444.07
438.985	437.92
439.192	532.13
439.399	528.03
439.606	485.03
439.813	552.61
440.02	667.3
440.227	659.1
440.433	614.05
440.64	630.43
440.847	556.71
441.054	642.72
441.261	745.12
441.467	681.63
441.674	669.34
441.881	831.13
442.088	538.27
442.294	827.04
442.501	804.51
442.708	902.81
442.914	704.16
443.121	958.11
443.328	898.72
443.534	986.78
443.741	954.01
443.948	827.04
444.154	1021.6
444.361	1148.57
444.568	1074.84
444.774	1246.87
444.981	1095.32
445.187	1244.82
445.394	1310.36
445.6	1218.2
445.807	1445.52
446.013	1379.99
446.22	1367.7
446.426	1506.96
446.633	1627.79
446.839	1666.71
447.046	1560.21
447.252	1879.69
447.459	1689.23
447.665	1824.4
447.871	1928.85
448.078	2076.3
448.284	2021
448.491	2207.37
448.697	2317.96
448.903	2342.53
449.11	2541.19
449.316	2358.92
449.522	2553.48
449.728	2639.49
449.935	2657.92
450.141	2774.66
450.347	2958.97
450.553	2975.36
450.76	3118.72
450.966	3065.47
451.172	3233.4
451.378	3329.66
451.584	3522.16
451.791	3624.56
451.997	3731.06
452.203	3851.89
452.409	4087.4
452.615	4269.67
452.821	4177.51
453.027	4202.09
453.233	4730.47
453.44	4679.27
453.646	4849.25
453.852	5074.53
454.058	5287.51
454.264	5260.89
454.47	5875.28
454.676	5926.48
454.882	6276.68
455.088	5918.29
455.294	6432.33
455.5	6719.04
455.705	7161.41
455.911	7138.88
456.117	7337.53
456.323	7753.27
456.529	7878.19
456.735	8326.7
456.941	8465.96
457.147	8807.97
457.352	9078.3
457.558	9385.5
457.764	10038.8
457.97	10280.46
458.176	10755.59
458.381	11341.31
458.587	11165.18
458.793	12056.05
458.999	11988.47
459.204	13354.46
459.41	13944.28
459.616	13796.82
459.821	14591.44
460.027	15197.63
460.233	15846.84
460.438	16022.97
460.644	17005.99
460.85	16848.3
461.055	17702.3
461.261	18517.39
461.466	18097.56
461.672	18640.27
461.878	20739.44
462.083	20428.15
462.289	20950.38
462.494	21427.56
462.7	21972.32
462.905	21878.11
463.111	24147.26
463.316	25036.08
463.522	25918.75
463.727	26316.06
463.932	27571.46
464.138	28325.11
464.343	29633.77
464.549	29900
464.754	31933.64
464.959	32412.86
465.165	33289.39
465.37	32732.34
465.575	33113.27
465.781	35071.12
465.986	36170.88
466.191	35609.74
466.397	35894.41
466.602	34825.37
466.807	36891.77
467.012	38001.77
467.218	38284.39
467.423	38265.95
467.628	39498.83
467.833	41579.57
468.038	40752.19
468.244	40238.15
468.449	41882.67
468.654	41149.49
468.859	41538.61
469.064	40946.75
469.269	40358.98
469.474	40664.13
469.679	41917.48
469.885	40488
470.09	41493.55
470.295	41028.66
470.5	40492.1
470.705	40817.72
470.91	39767.12
471.115	39177.3
471.32	39574.61
471.525	39334.99
471.73	38612.06
471.935	38126.69
472.139	36463.74
472.344	36686.97
472.549	36541.57
472.754	36115.59
472.959	35255.44
473.164	33737.9
473.369	33598.63
473.574	34673.82
473.778	33375.41
473.983	32935.09
474.188	32304.32
474.393	30815.44
474.598	31032.53
474.802	30151.9
475.007	29605.09
475.212	29529.32
475.417	28318.97
475.621	27948.29
475.826	27680
476.031	26995.98
476.235	26498.33
476.44	26602.77
476.645	25924.9
476.849	25632.04
477.054	25111.85
477.259	24669.49
477.463	24687.92
477.668	23893.31
477.872	23786.82
478.077	23229.77
478.282	22644.05
478.486	22297.94
478.691	21779.81
478.895	22226.26
479.1	22046.04
479.304	21570.91
479.509	21103.98
479.713	21175.66
479.918	20886.89
480.122	20352.37
480.326	20471.15
480.531	20434.29
480.735	20200.82
480.94	19875.2
481.144	20448.63
481.348	19469.7
481.553	19459.46
481.757	18861.45
481.961	19068.3
482.166	19475.84
482.37	19236.23
482.574	18455.95
482.778	18701.71
482.983	18660.75
483.187	18644.37
483.391	18419.09
483.595	17882.52
483.8	17624.48
484.004	18118.04
484.208	17851.8
484.412	17491.36
484.616	17497.5
484.821	17456.54
485.025	17020.33
485.229	16924.07
485.433	16651.69
485.637	16559.53
485.841	16102.84
486.045	16045.49
486.249	15683
486.453	15492.54
486.657	15355.33
486.861	15140.29
487.065	14699.98
487.269	14624.2
487.473	14155.22
487.677	14513.61
487.881	14222.8
488.085	13546.97
488.289	13798.87
488.493	13313.5
488.697	13383.13
488.901	13026.79
489.105	12662.25
489.309	12512.75
489.512	12357.1
489.716	11890.17
489.92	11689.46
490.124	11388.41
490.328	11503.1
490.531	11318.78
490.735	11118.08
490.939	10837.51
491.143	10397.2
491.346	10503.69
491.55	10300.94
491.754	10120.72
491.958	10038.8
492.161	9731.61
492.365	9719.32
492.569	9408.03
492.772	9215.52
492.976	9422.36
493.18	9066.02
493.383	8947.23
493.587	8812.07
493.79	8801.83
493.994	8547.88
494.197	8560.17
494.401	8527.4
494.605	8115.76
494.808	8355.37
495.012	8115.76
495.215	8062.51
495.419	8179.25
495.622	7966.26
495.825	7951.92
496.029	7960.11
496.232	8001.07
496.436	7829.04
496.639	7978.54
496.843	7849.52
497.046	7919.15
497.249	8058.42
497.453	7880.24
497.656	7898.67
497.859	7603.77
498.063	7759.41
498.266	7943.73
498.469	7861.81
498.673	7783.99
498.876	7992.88
499.079	7880.24
499.282	7882.29
499.485	8224.3
499.689	8113.71
499.892	8177.2
500.095	8179.25
500.298	8347.18
500.501	7968.31
500.705	8318.51
500.908	8607.27
501.111	8324.65
501.314	8603.18
501.517	8697.38
501.72	8646.18
501.923	8640.04
502.126	8785.44
502.329	9080.35
502.532	9084.45
502.735	9195.04
502.938	9498.14
503.141	9342.49
503.344	9326.11
503.547	9563.67
503.75	9602.58
503.953	9649.69
504.156	9702.93
504.359	10090
504.562	9991.7
504.765	10329.61
504.968	10554.89
505.17	10712.58
505.373	10657.29
505.576	10763.78
505.779	11081.22
505.982	11318.78
506.185	11400.7
506.387	11580.92
506.59	11755
506.793	12035.57
506.996	12064.24
507.198	12731.88
507.401	12815.85
507.604	12887.53
507.807	13286.88
508.009	13475.29
508.212	13936.09
508.415	13878.74
508.617	14077.4
508.82	14443.98
509.022	14439.89
509.225	15605.18
509.428	15330.75
509.63	15648.19
509.833	15805.88
510.035	16524.72
510.238	16532.91
510.44	16750
510.643	17794.46
510.845	18048.41
511.048	18044.31
511.25	18589.07
511.453	18961.8
511.655	19805.56
511.858	19897.72
512.06	20438.39
512.262	20530.55
512.465	21083.5
512.667	21726.56
512.87	21822.81
513.072	22334.81
513.274	23528.77
513.477	23694.66
513.679	24145.21
513.881	24784.18
514.084	25378.09
514.286	25421.09
514.488	26314.01
514.69	27153.68
514.893	27467.02
515.095	28087.55
515.297	28699.89
515.499	29177.07
515.701	29988.07
515.904	30729.43
516.106	31202.51
516.308	31759.56
516.51	32246.97
516.712	32562.36
516.914	33510.57
517.116	34561.18
517.318	34862.23
517.52	35173.52
517.722	36072.58
517.925	36615.29
518.127	37837.93
518.329	38544.48
518.531	38380.64
518.733	39576.65
518.935	40162.37
519.136	40438.85
519.338	41440.31
519.54	42087.46
519.742	42859.55
519.944	43336.73
520.146	43951.12
520.348	44444.68
520.55	44846.08
520.752	45196.28
520.954	46494.69
521.155	46281.7
521.357	47203.29
521.559	48034.77
521.761	48944.06
521.963	48581.57
522.164	49136.57
522.366	49474.49
522.568	50062.25
522.77	50328.49
522.971	51305.37
523.173	50756.52
523.375	51585.94
523.576	51350.43
523.778	51385.24
523.98	52046.74
524.181	52556.68
524.383	52358.03
524.584	53019.52
524.786	53119.87
524.988	53033.86
525.189	53228.41
525.391	53363.58
525.592	53189.5
525.794	53562.23
525.995	53537.66
526.197	53304.19
526.398	53156.74
526.6	53519.23
526.801	53386.11
527.003	53453.69
527.204	52812.68
527.406	52833.16
527.607	52485
527.808	52833.16
528.01	51350.43
528.211	51680.15
528.412	51811.22
528.614	51235.74
528.815	50957.22
529.016	51215.26
529.218	50187.18
529.419	50387.88
529.62	49646.52
529.822	49224.64
530.023	48638.92
530.224	48139.21
530.425	47928.27
530.626	46746.59
530.828	46566.37
531.029	46937.05
531.23	45544.44
531.431	45534.2
531.632	45214.71
531.833	44612.61
532.035	44055.56
532.236	43166.74
532.437	43473.94
532.638	42576.93
532.839	42126.38
533.04	41718.83
533.241	40891.45
533.442	40877.11
533.643	40301.64
533.844	39515.22
534.045	39478.35
534.246	37981.29
534.447	38163.56
534.648	37424.24
534.849	37352.56
535.05	36496.51
535.251	36064.39
535.451	35642.51
535.652	35169.43
535.853	34559.13
536.054	34163.87
536.255	34053.28
536.456	33107.12
536.657	33524.91
536.857	32054.47
537.058	31712.45
537.259	31780.04
537.46	31532.23
537.66	30731.48
537.861	30377.18
538.062	29740.26
538.263	29627.62
538.463	29246.7
538.664	28660.98
538.865	28642.55
539.065	28476.66
539.266	27747.59
539.466	27784.45
539.667	27520.26
539.868	27122.96
540.068	26621.2
540.269	26563.86
540.469	26164.51
540.67	26045.73
540.87	25654.56
541.071	25220.39
541.271	24995.12
541.472	24716.59
541.672	24409.4
541.873	23696.71
542.073	23248.2
542.274	23682.37
542.474	23434.57
542.675	22721.87
542.875	23117.13
543.075	22390.1
543.276	22152.54
543.476	22162.78
543.676	21816.67
543.877	21587.3
544.077	21433.7
544.277	21024.11
544.478	20671.86
544.678	20778.35
544.878	20419.96
545.078	20104.57
545.279	19955.07
545.479	19471.75
545.679	19709.31
545.879	19070.34
546.079	19119.49
546.28	18875.79
546.48	18744.72
546.68	18605.45
546.88	18331.03
547.08	17978.78
547.28	17898.91
547.48	17634.72
547.68	17604
547.88	17149.35
548.081	16958.89
548.281	16641.45
548.481	16696.75
548.681	16242.1
548.881	16113.08
549.081	15875.51
549.28	15746.49
549.48	15623.61
549.68	15406.53
549.88	15404.48
550.08	14613.96
550.28	14661.07
550.48	14441.93
550.68	14300.62
550.88	13946.33
551.08	13915.61
551.279	13946.33
551.479	13354.46
551.679	13520.35
551.879	13047.27
552.079	12946.92
552.278	12764.65
552.478	12946.92
552.678	12312.05
552.878	12299.76
553.077	11884.02
553.277	11691.51
553.477	11589.11
553.676	11492.86
553.876	11269.63
554.076	11073.03
554.275	10915.33
554.475	10690.06
554.674	10720.78
554.874	10421.77
555.074	10210.83
555.273	10253.84
555.473	10081.81
555.672	9879.06
555.872	9823.76
556.071	9528.86
556.271	9522.71
556.47	9246.24
556.67	8855.08
556.869	8838.69
557.068	8674.85
557.268	8547.88
557.467	8459.82
557.667	8218.16
557.866	8183.34
558.065	8183.34
558.265	7843.38
558.464	7618.1
558.663	7638.58
558.863	7446.07
559.062	7632.44
559.261	7376.44
559.461	7204.41
559.66	6981.18
559.859	6929.98
560.058	6843.97
560.258	6651.46
560.457	6581.83
560.656	6663.75
560.855	6411.85
561.054	6452.81
561.253	6360.65
561.453	6256.2
561.652	6127.18
561.851	6147.66
562.05	5746.26
562.249	5582.42
562.448	5805.65
562.647	5543.51
562.846	5514.84
563.045	5588.57
563.244	5289.56
563.443	5434.97
563.642	5133.92
563.841	5215.84
564.04	5031.52
564.239	5080.67
564.438	5002.85
564.637	4720.23
564.836	4697.7
565.035	4648.55
565.234	4634.21
565.432	4451.94
565.631	4658.79
565.83	4527.72
566.029	4396.65
566.228	4290.15
566.427	4378.22
566.625	4083.31
566.824	4087.4
567.023	3962.48
567.222	3864.18
567.42	3866.22
567.619	3878.51
567.818	3724.91
568.016	3964.53
568.215	3706.48
568.414	3745.39
568.612	3686
568.811	3520.12
569.01	3542.64
569.208	3446.39
569.407	3405.43
569.605	3372.66
569.804	3307.13
570.002	3329.66
570.201	3157.63
570.4	3210.87
570.598	2985.6
570.797	3092.09
570.995	2889.34
571.193	2893.44
571.392	3098.24
571.59	2864.77
571.789	2946.69
571.987	2889.34
572.186	2899.58
572.384	2567.81
572.582	2707.07
572.781	2629.25
572.979	2410.12
573.177	2528.9
573.376	2442.89
573.574	2559.62
573.772	2356.87
573.971	2338.44
574.169	2354.82
574.367	2387.59
574.565	2285.19
574.763	2238.09
574.962	2190.99
575.16	2166.41
575.358	2170.51
575.556	2070.16
575.754	2053.77
575.952	2076.3
576.151	1982.09
576.349	2068.11
576.547	1689.23
576.745	1945.23
576.943	2012.81
577.141	1832.59
577.339	1832.59
577.537	1826.45
577.735	1924.75
577.933	1683.09
578.131	1713.81
578.329	1818.25
578.527	1656.47
578.725	1607.31
578.923	1494.68
579.121	1621.65
579.319	1492.63
579.516	1556.11
579.714	1836.69
579.912	1533.59
580.11	1351.32
580.308	1453.72
580.506	1406.61
580.704	1234.58
580.901	1322.65
581.099	1521.3
581.297	1306.26
581.495	1312.41
581.692	1386.13
581.89	1404.57
582.088	1253.02
582.285	1265.3
582.483	1220.25
582.681	1101.47
582.878	1179.29
583.076	1191.58
583.274	1167
583.471	1232.54
583.669	1103.51
583.866	1097.37
584.064	962.2
584.262	1013.4
584.459	939.68
584.657	1169.05
584.854	1056.41
585.052	1027.74
585.249	1019.55
585.447	1035.93
585.644	945.82
585.841	1119.9
586.039	997.02
586.236	1050.27
586.434	827.04
586.631	915.1
586.828	829.09
587.026	956.06
587.223	849.57
587.42	812.7
587.618	870.05
587.815	949.92
588.012	915.1
588.21	853.66
588.407	954.01
588.604	835.23
588.801	693.92
588.999	847.52
589.196	851.61
589.393	759.46
589.59	743.07
589.787	777.89
589.984	820.89
590.182	818.85
590.379	687.78
590.576	736.93
590.773	640.67
590.97	657.06
591.167	743.07
591.364	802.46
591.561	671.39
591.758	947.87
591.955	808.61
592.152	708.26
592.349	683.68
592.546	718.5
592.743	665.25
592.94	728.74
593.137	814.75
593.334	698.02
593.531	786.08
593.727	751.26
593.924	712.35
594.121	730.78
594.318	704.16
594.515	773.79
594.712	958.11
594.908	827.04
595.105	704.16
595.302	779.93
595.499	784.03
595.696	999.07
595.892	745.12
596.089	945.82
596.286	802.46
596.482	966.3
596.679	997.02
596.876	812.7
597.072	1060.51
597.269	1009.31
597.466	1121.95
597.662	988.83
597.859	1066.65
598.055	1078.94
598.252	1185.43
598.448	1224.34
598.645	1330.84
598.841	1326.74
599.038	1420.95
599.234	1400.47
599.431	1459.86
599.627	1416.85
599.824	1517.2
600.02	1504.92
600.217	1695.38
600.413	1668.75
600.609	1762.96
600.806	2016.91
601.002	1912.46
601.198	1996.43
601.395	2162.31
601.591	2070.16
601.787	2293.38
601.984	2446.98
602.18	2473.6
602.376	2483.84
602.572	2639.49
602.769	2776.7
602.965	2754.18
603.161	2944.64
603.357	2952.83
603.553	3096.19
603.75	3133.05
603.946	3186.3
604.142	3440.25
604.338	3602.04
604.534	3507.83
604.73	3677.81
604.926	3694.19
605.122	4181.61
605.318	3968.62
605.514	4259.43
605.71	4355.69
605.906	4658.79
606.102	4601.44
606.298	4884.06
606.494	4990.56
606.69	5086.81
606.886	5365.34
607.082	5312.09
607.278	5340.76
607.474	5572.18
607.67	5903.95
607.866	5822.03
608.062	6301.26
608.257	6362.7
608.453	6356.55
608.649	6641.22
608.845	6688.32
609.041	6991.42
609.236	7052.86
609.432	7423.55
609.628	7614.01
609.824	7845.43
610.019	7945.78
610.215	8105.52
610.411	8490.54
610.606	8785.44
610.802	8850.98
610.998	9078.3
611.193	9209.37
611.389	9457.18
611.584	9883.16
611.78	10003.99
611.976	10286.61
612.171	10741.25
612.367	10974.72
612.562	10872.32
612.758	11369.98
612.953	11486.72
613.149	12240.37
613.344	12131.83
613.539	12797.42
613.735	13155.81
613.93	13430.24
614.126	13659.61
614.321	14138.83
614.517	14493.13
614.712	14781.9
614.907	15089.09
615.103	15846.84
615.298	16004.53
615.493	16364.98
615.688	16598.45
615.884	17438.11
616.079	17450.4
616.274	18038.17
616.47	18075.03
616.665	19176.84
616.86	19463.55
617.055	19893.63
617.25	20415.86
617.445	21310.82
617.641	21089.64
617.836	22048.09
618.031	22437.2
618.226	23240.01
618.421	23508.29
618.616	24294.71
618.811	24534.32
619.006	25408.81
619.201	25462.05
619.396	26529.05
619.591	26553.62
619.786	27409.67
619.981	27610.37
620.176	29076.72
620.371	28896.5
620.566	29725.93
620.761	30196.96
620.956	31227.09
621.151	31366.35
621.346	32482.49
621.541	32783.54
621.735	33600.68
621.93	33748.14
622.125	34491.55
622.32	34925.72
622.515	35990.66
622.709	36371.58
622.904	37317.75
623.099	37940.33
623.294	38343.78
623.488	39269.46
623.683	40047.69
623.878	39844.94
624.072	40819.77
624.267	41587.76
624.462	42013.74
624.656	42380.32
624.851	43469.84
625.046	44157.96
625.24	44608.51
625.435	44925.95
625.629	45876.21
625.824	46369.77
626.018	46851.04
626.213	46885.86
626.407	47588.31
626.602	47610.84
626.796	48942.02
626.991	49187.77
627.185	49189.82
627.38	49437.62
627.574	50113.45
627.768	50000.82
627.963	50183.08
628.157	50070.45
628.352	50842.53
628.546	50314.15
628.74	51295.13
628.935	50422.7
629.129	50314.15
629.323	49580.98
629.517	49730.48
629.712	49394.62
629.906	48763.84
630.1	48163.79
630.294	48421.83
630.489	47393.75
630.683	46961.63
630.877	45890.54
631.071	45143.03
631.265	44690.43
631.459	43680.78
631.653	42452
631.848	41591.86
632.042	40191.05
632.236	39566.41
632.43	38401.12
632.624	37573.74
632.818	36195.46
633.012	35124.37
633.206	33717.42
633.4	32881.84
633.594	31706.31
633.788	30721.24
633.982	29816.04
634.176	28859.63
634.369	27348.23
634.563	26477.85
634.757	25347.37
634.951	25064.75
635.145	23676.23
635.339	22900.05
635.533	21841.25
635.726	21316.97
635.92	20053.37
636.114	19146.12
636.308	18455.95
636.501	17763.74
636.695	17120.68
636.889	16281.01
637.083	15674.81
637.276	15011.27
637.47	14511.57
637.664	13868.5
637.857	13368.8
638.051	12541.42
638.244	12133.87
638.438	11662.84
638.632	11245.06
638.825	10466.83
639.019	10360.33
639.212	9797.14
639.406	9776.66
639.599	9182.75
639.793	8840.74
639.986	8459.82
640.18	8392.23
640.373	7601.72
640.567	7476.79
640.76	7386.68
640.954	7018.05
641.147	6796.87
641.34	6399.56
641.534	6325.83
641.727	6272.59
641.92	5764.69
642.114	5609.05
642.307	5357.14
642.5	5133.92
642.694	4884.06
642.887	4818.53
643.08	4800.1
643.273	4519.53
643.467	4218.47
643.66	4138.6
643.853	3917.42
644.046	3675.76
644.239	3624.56
644.432	3399.29
644.626	3255.93
644.819	3307.13
645.012	3137.15
645.205	3036.8
645.398	3090.04
645.591	2635.39
645.784	2657.92
645.977	2483.84
646.17	2506.37
646.363	2391.69
646.556	2178.7
646.749	2127.5
646.942	2119.31
647.135	2109.07
647.328	2078.35
647.521	1869.45
647.714	1779.34
647.907	1738.38
648.099	1689.23
648.292	1699.47
648.485	1480.34
648.678	1531.54
648.871	1470.1
649.064	1414.81
649.256	1291.93
649.449	1224.34
649.642	1109.66
649.835	1107.61
650.027	1089.18
650.22	1187.48
650.413	1173.14
650.605	1017.5
650.798	1017.5
650.991	951.96
651.183	865.95
651.376	847.52
651.568	892.57
651.761	810.65
651.954	814.75
652.146	767.65
652.339	884.38
652.531	890.53
652.724	714.4
652.916	644.77
653.109	577.19
653.301	659.1
653.494	695.97
653.686	661.15
653.879	691.87
654.071	624.29
654.263	503.46
654.456	499.36
654.648	655.01
654.84	581.28
655.033	460.45
655.225	605.86
655.417	317.09
655.61	605.86
655.802	456.36
655.994	577.19
656.186	396.96
656.379	474.79
656.571	380.58
656.763	399.01
656.955	331.43
657.148	351.91
657.34	452.26
657.532	315.05
657.724	329.38
657.916	392.87
658.108	341.67
658.3	472.74
658.492	370.34
658.684	216.74
658.876	493.22
659.068	218.79
659.26	200.36
659.452	206.5
659.644	308.9
659.836	515.75
660.028	321.19
660.22	237.22
660.412	222.89
660.604	237.22
660.796	202.41
660.988	294.57
661.18	286.37
661.372	310.95
661.563	163.5
661.755	267.94
661.947	112.3
662.139	188.07
662.331	253.61
662.522	229.03
662.714	65.19
662.906	97.96
663.097	198.31
663.289	169.64
663.481	110.25
663.673	243.37
663.864	145.06
664.056	253.61
664.247	102.06
664.439	224.94
664.631	190.12
664.822	235.18
665.014	143.02
665.205	120.49
665.397	169.64
665.588	136.87
665.78	147.11
665.971	276.13
666.163	122.54
666.354	233.13
666.546	134.82
666.737	188.07
666.929	95.91
667.12	61.1
667.311	235.18
667.503	54.95
667.694	208.55
667.885	196.26
668.077	167.59
668.268	118.44
668.459	151.21
668.651	128.68
668.842	136.87
669.033	40.62
669.224	-14.68
669.416	290.47
669.607	95.91
669.798	102.06
669.989	157.35
670.18	5.8
670.371	126.63
670.563	81.58
670.754	218.79
670.945	208.55
671.136	206.5
671.327	7.85
671.518	188.07
671.709	218.79
671.9	216.74
672.091	175.78
672.282	124.58
672.473	145.06
672.664	87.72
672.855	95.91
673.046	183.98
673.237	239.27
673.428	147.11
673.619	153.26
673.809	83.63
674	243.37
674.191	188.07
674.382	106.15
674.573	140.97
674.764	85.67
674.954	181.93
675.145	34.47
675.336	136.87
675.527	57
675.717	85.67
675.908	104.11
676.099	140.97
676.289	104.11
676.48	91.82
676.671	106.15
676.861	114.34
677.052	75.43
677.243	112.3
677.433	104.11
677.624	194.22
677.814	177.83
678.005	108.2
678.195	177.83
678.386	44.71
678.576	161.45
678.767	22.19
678.957	186.02
679.148	186.02
679.338	255.65
679.529	149.16
679.719	132.78
679.909	245.41
680.1	235.18
680.29	136.87
680.481	89.77
680.671	261.8
680.861	200.36
681.052	196.26
681.242	50.86
681.432	263.85
681.622	210.6
681.813	91.82
682.003	91.82
682.193	46.76
682.383	134.82
682.573	36.52
682.764	173.74
682.954	145.06
683.144	290.47
683.334	159.4
683.524	91.82
683.714	126.63
683.904	157.35
684.094	140.97
684.284	161.45
684.474	302.76
684.664	243.37
684.854	198.31
685.044	112.3
685.234	194.22
685.424	210.6
685.614	167.59
685.804	362.15
685.994	163.5
686.184	237.22
686.374	216.74
686.564	280.23
686.753	188.07
686.943	77.48
687.133	126.63
687.323	202.41
687.513	177.83
687.702	226.98
687.892	208.55
688.082	239.27
688.272	341.67
688.461	210.6
688.651	290.47
688.841	198.31
689.03	263.85
689.22	204.46
689.41	190.12
689.599	167.59
689.789	167.59
689.979	263.85
690.168	272.04
690.358	337.57
690.547	183.98
690.737	241.32
690.926	224.94
691.116	218.79
691.305	255.65
691.495	224.94
691.684	128.68
691.874	110.25
692.063	222.89
692.252	200.36
692.442	296.61
692.631	110.25
692.82	237.22
693.01	200.36
693.199	177.83
693.388	198.31
693.578	263.85
693.767	210.6
693.956	218.79
694.146	157.35
694.335	284.33
694.524	161.45
694.713	243.37
694.902	122.54
695.092	110.25
695.281	272.04
695.47	194.22
695.659	206.5
695.848	224.94
696.037	212.65
696.226	226.98
696.415	157.35
696.604	292.52
696.793	226.98
696.982	212.65
697.171	292.52
697.36	87.72
697.549	89.77
697.738	106.15
697.927	145.06
698.116	97.96
698.305	175.78
698.494	235.18
698.683	153.26
698.872	257.7
699.061	214.7
699.25	179.88
699.438	198.31
699.627	132.78
699.816	308.9
700.005	87.72
700.193	202.41
700.382	272.04
700.571	212.65
700.76	276.13
700.948	251.56
701.137	224.94
701.326	241.32
701.514	118.44
701.703	235.18
701.892	247.46
702.08	274.09
702.269	165.54
702.457	132.78
702.646	259.75
702.834	192.17
703.023	204.46
703.212	280.23
703.4	208.55
703.589	163.5
703.777	175.78
703.965	222.89
704.154	157.35
704.342	120.49
704.531	177.83
704.719	206.5
704.907	247.46
705.096	126.63
705.284	120.49
705.472	198.31
705.661	280.23
705.849	218.79
706.037	181.93
706.226	202.41
706.414	239.27
706.602	89.77
706.79	276.13
706.979	124.58
707.167	190.12
707.355	83.63
707.543	206.5
707.731	245.41
707.919	173.74
708.107	169.64
708.296	128.68
708.484	114.34
708.672	233.13
708.86	259.75
709.048	212.65
709.236	128.68
709.424	202.41
709.612	247.46
709.8	75.43
709.988	224.94
710.176	226.98
710.364	298.66
710.551	132.78
710.739	165.54
710.927	122.54
711.115	171.69
711.303	231.08
711.491	247.46
711.679	155.3
711.866	274.09
712.054	134.82
712.242	251.56
712.43	274.09
712.617	163.5
712.805	300.71
712.993	212.65
713.181	81.58
713.368	308.9
713.556	165.54
713.744	198.31
713.931	419.49
714.119	255.65
714.306	188.07
714.494	89.77
714.682	269.99
714.869	151.21
715.057	269.99
715.244	75.43
715.432	212.65
715.619	198.31
715.807	249.51
715.994	186.02
716.182	247.46
716.369	290.47
716.556	284.33
716.744	128.68
716.931	167.59
717.119	165.54
717.306	255.65
717.493	274.09
717.681	247.46
717.868	73.39
718.055	247.46
718.242	222.89
718.43	183.98
718.617	331.43
718.804	190.12
718.991	372.39
719.179	333.48
719.366	294.57
719.553	231.08
719.74	212.65
719.927	247.46
720.114	210.6
720.301	186.02
720.488	159.4
720.676	175.78
720.863	323.24
721.05	294.57
721.237	247.46
721.424	233.13
721.611	214.7
721.798	163.5
721.985	143.02
722.172	229.03
722.358	265.89
722.545	358.05
722.732	310.95
722.919	294.57
723.106	165.54
723.293	272.04
723.48	253.61
723.667	253.61
723.853	319.14
724.04	292.52
724.227	319.14
724.414	155.3
724.6	278.18
724.787	419.49
724.974	403.11
725.161	253.61
725.347	224.94
725.534	288.42
725.72	306.85
725.907	310.95
726.094	272.04
726.28	136.87
726.467	247.46
726.653	308.9
726.84	333.48
727.027	378.53
727.213	214.7
727.4	298.66
727.586	251.56
727.773	208.55
727.959	288.42
728.145	278.18
728.332	345.77
728.518	222.89
728.705	341.67
728.891	235.18
729.077	220.84
729.264	235.18
729.45	317.09
729.636	284.33
729.823	329.38
730.009	329.38
730.195	290.47
730.382	331.43
730.568	204.46
730.754	224.94
730.94	327.33
731.126	245.41
731.313	290.47
731.499	255.65
731.685	333.48
731.871	286.37
732.057	296.61
732.243	341.67
732.429	304.81
732.615	372.39
732.801	280.23
732.987	315.05
733.173	263.85
733.359	116.39
733.545	212.65
733.731	296.61
733.917	343.72
734.103	315.05
734.289	276.13
734.475	247.46
734.661	364.2
734.847	292.52
735.033	298.66
735.219	409.25
735.404	329.38
735.59	239.27
735.776	267.94
735.962	259.75
736.148	362.15
736.333	339.62
736.519	218.79
736.705	272.04
736.89	329.38
737.076	315.05
737.262	222.89
737.447	224.94
737.633	319.14
737.819	335.53
738.004	337.57
738.19	319.14
738.375	349.86
738.561	329.38
738.747	302.76
738.932	194.22
739.118	409.25
739.303	306.85
739.489	360.1
739.674	192.17
739.859	175.78
740.045	276.13
740.23	337.57
740.416	188.07
740.601	341.67
740.786	296.61
740.972	249.51
741.157	337.57
741.342	298.66
741.528	276.13
741.713	353.96
741.898	302.76
742.084	288.42
742.269	200.36
742.454	349.86
742.639	382.63
742.824	259.75
743.01	372.39
743.195	435.88
743.38	394.92
743.565	243.37
743.75	302.76
743.935	286.37
744.12	376.48
744.305	226.98
744.49	284.33
744.675	278.18
744.86	282.28
745.045	302.76
745.23	265.89
745.415	261.8
745.6	366.25
745.785	241.32
745.97	349.86
746.155	259.75
746.34	368.29
746.525	269.99
746.71	386.72
746.895	183.98
747.079	126.63
747.264	237.22
747.449	276.13
747.634	333.48
747.819	343.72
748.003	245.41
748.188	140.97
748.373	245.41
748.557	347.81
748.742	249.51
748.927	267.94
749.111	198.31
749.296	243.37
749.481	321.19
749.665	313
749.85	276.13
750.034	272.04
750.219	298.66
750.404	269.99
750.588	276.13
750.773	179.88
750.957	202.41
751.141	259.75
751.326	278.18
751.51	153.26
751.695	132.78
751.879	272.04
752.064	347.81
752.248	202.41
752.432	298.66
752.617	310.95
752.801	294.57
752.985	194.22
753.17	306.85
753.354	290.47
753.538	278.18
753.722	145.06
753.907	102.06
754.091	89.77
754.275	243.37
754.459	89.77
754.643	192.17
754.828	247.46
755.012	233.13
755.196	145.06
755.38	255.65
755.564	173.74
755.748	200.36
755.932	265.89
756.116	280.23
756.3	313
756.484	169.64
756.668	210.6
756.852	77.48
757.036	102.06
757.22	151.21
757.404	114.34
757.588	167.59
757.772	212.65
757.956	175.78
758.14	308.9
758.323	136.87
758.507	208.55
758.691	95.91
758.875	188.07
759.059	300.71
759.242	130.73
759.426	155.3
759.61	149.16
759.794	157.35
759.977	267.94
760.161	458.4
760.345	251.56
760.528	341.67
760.712	190.12
760.895	159.4
761.079	106.15
761.263	83.63
761.446	100.01
761.63	181.93
761.813	239.27
761.997	63.15
762.18	110.25
762.364	198.31
762.547	38.57
762.731	147.11
762.914	69.29
763.098	112.3
763.281	34.47
763.464	124.58
763.648	81.58
763.831	157.35
764.015	67.24
764.198	136.87
764.381	102.06
764.564	140.97
764.748	186.02
764.931	198.31
765.114	32.43
765.297	216.74
765.481	16.04
765.664	114.34
765.847	122.54
766.03	226.98
766.213	-26.96
766.397	83.63
766.58	36.52
766.763	134.82
766.946	83.63
767.129	85.67
767.312	93.87
767.495	87.72
767.678	75.43
767.861	61.1
768.044	30.38
768.227	171.69
768.41	42.67
768.593	183.98
768.776	159.4
768.959	65.19
769.142	241.32
769.324	71.34
769.507	153.26
769.69	36.52
769.873	108.2
770.056	278.18
770.239	95.91
770.421	167.59
770.604	100.01
770.787	54.95
770.97	104.11
771.152	85.67
771.335	108.2
771.518	48.81
771.7	173.74
771.883	208.55
772.066	102.06
772.248	61.1
772.431	102.06
772.613	173.74
772.796	42.67
772.978	75.43
773.161	237.22
773.343	100.01
773.526	102.06
773.708	-20.82
773.891	9.9
774.073	140.97
774.256	32.43
774.438	194.22
774.621	79.53
774.803	145.06
774.985	34.47
775.168	102.06
775.35	145.06
775.532	46.76
775.715	36.52
775.897	85.67
776.079	44.71
776.261	42.67
776.444	40.62
776.626	93.87
776.808	110.25
776.99	-4.44
777.173	116.39
777.355	73.39
777.537	91.82
777.719	63.15
777.901	5.8
778.083	7.85
778.265	63.15
778.447	20.14
778.629	9.9
778.811	32.43
778.993	183.98
779.175	110.25
779.357	167.59
779.539	-53.59
779.721	73.39
779.903	120.49
780.085	-14.68
780.267	77.48
780.449	89.77
780.631	140.97
780.812	175.78
780.994	26.28
781.176	32.43
781.358	48.81
781.54	-16.73
781.721	95.91
781.903	69.29
782.085	28.33
782.267	81.58
782.448	-24.92
782.63	97.96
782.812	5.8
782.993	145.06
783.175	128.68
783.357	24.23
783.538	81.58
783.72	36.52
783.901	87.72
784.083	63.15
784.264	71.34
784.446	-72.02
784.627	20.14
784.809	71.34
784.99	-24.92
785.172	-35.16
785.353	28.33
785.535	40.62
785.716	-10.58
785.897	-47.44
786.079	13.99
786.26	67.24
786.441	118.44
786.623	-47.44
786.804	-18.77
786.985	93.87
787.167	104.11
787.348	-18.77
787.529	54.95
787.71	161.45
787.891	44.71
788.073	-26.96
788.254	-39.25
788.435	140.97
788.616	34.47
788.797	-53.59
788.978	16.04
789.159	-53.59
789.34	57
789.522	-20.82
789.703	1.71
789.884	32.43
790.065	20.14
790.246	147.11
790.427	13.99
790.607	175.78
790.788	30.38
790.969	-59.73
791.15	89.77
791.331	-4.44
791.512	-100.69
791.693	-67.92
791.874	-12.63
792.054	181.93
792.235	59.05
792.416	-35.16
792.597	-18.77
792.778	161.45
792.958	-31.06
793.139	-47.44
793.32	54.95
793.5	-4.44
793.681	100.01
793.862	1.71
794.042	32.43
794.223	-59.73
794.404	-10.58
794.584	-65.88
794.765	34.47
794.945	38.57
795.126	63.15
795.306	40.62
795.487	38.57
795.667	1.71
795.848	85.67
796.028	-53.59
796.209	52.91
796.389	-6.49
796.57	106.15
796.75	-39.25
796.93	30.38
797.111	-33.11
797.291	-16.73
797.471	122.54
797.652	40.62
797.832	-12.63
798.012	54.95
798.192	1.71
798.373	-61.78
798.553	48.81
798.733	3.75
798.913	-45.4
799.093	-51.54
799.274	116.39
799.454	93.87
799.634	28.33
799.814	67.24
799.994	77.48
800.174	46.76
800.354	9.9
800.534	-137.56
800.714	52.91
800.894	11.95
801.074	-145.75
801.254	-90.45
801.434	124.58
801.614	-0.34
801.794	-74.07
801.974	1877.65
802.154	5.8
802.334	48.81
802.514	-59.73
802.693	-37.2
802.873	-12.63
803.053	110.25
803.233	16.04
803.413	30.38
803.592	-86.36
803.772	-65.88
803.952	63.15
804.131	-57.68
804.311	120.49
804.491	69.29
804.67	3.75
804.85	11.95
805.03	24.23
805.209	48.81
805.389	3.75
805.568	3.75
805.748	9.9
805.928	26.28
806.107	50.86
806.287	34.47
806.466	38.57
806.646	36.52
806.825	-47.44
807.004	-35.16
807.184	38.57
807.363	67.24
807.543	69.29
807.722	-55.64
807.901	61.1
808.081	32.43
808.26	-123.22
808.439	48.81
808.619	13.99
808.798	-43.35
808.977	91.82
809.156	89.77
809.336	59.05
809.515	57
809.694	-178.51
809.873	-0.34
810.052	22.19
810.231	155.3
810.411	42.67
810.59	89.77
810.769	-12.63
810.948	46.76
811.127	-170.32
811.306	-35.16
811.485	-29.01
811.664	179.88
811.843	52.91
812.022	9.9
812.201	44.71
812.38	42.67
812.559	-90.45
812.737	30.38
812.916	-115.03
813.095	-29.01
813.274	44.71
813.453	-0.34
813.632	18.09
813.811	106.15
813.989	-72.02
814.168	63.15
814.347	-57.68
814.526	75.43
814.704	112.3
814.883	143.02
815.062	-88.4
815.24	54.95
815.419	-119.12
815.598	-0.34
815.776	-100.69
815.955	40.62
816.133	-168.27
816.312	-18.77
816.49	-43.35
816.669	1.71
816.847	-4.44
817.026	-10.58
817.204	-39.25
817.383	-12.63
817.561	-33.11
817.74	48.81
817.918	-20.82
818.097	-69.97
818.275	-78.16
818.453	-10.58
818.632	130.73
818.81	-10.58
818.988	-55.64
819.167	-0.34
819.345	-39.25
819.523	-67.92
819.701	22.19
819.879	20.14
820.058	26.28
820.236	-69.97
820.414	-72.02
820.592	-4.44
820.77	3.75
820.948	-100.69
821.127	-26.96
821.305	69.29
821.483	-24.92
821.661	79.53
821.839	63.15
822.017	28.33
822.195	-90.45
822.373	5.8
822.551	-94.55
822.729	75.43
822.907	-24.92
823.085	13.99
823.262	30.38
823.44	-0.34
823.618	-18.77
823.796	-37.2
823.974	-108.88
824.152	-18.77
824.329	-0.34
824.507	-16.73
824.685	85.67
824.863	-0.34
825.04	13.99
825.218	5.8
825.396	-74.07
825.574	63.15
825.751	7.85
825.929	24.23
826.107	-72.02
826.284	28.33
826.462	-8.53
826.639	-41.3
826.817	-45.4
826.994	30.38
827.172	-57.68
827.349	110.25
827.527	36.52
827.704	-24.92
827.882	95.91
828.059	-14.68
828.237	-80.21
828.414	50.86
828.591	-74.07
828.769	36.52
828.946	-86.36
829.124	-33.11
829.301	108.2
829.478	26.28
829.655	16.04
829.833	57
830.01	-158.03
830.187	9.9
830.364	-43.35
830.542	44.71
830.719	106.15
830.896	65.19
831.073	71.34
831.25	32.43
831.427	34.47
831.604	-2.39
831.782	-12.63
831.959	110.25
832.136	-6.49
832.313	20.14
832.49	-100.69
832.667	-26.96
832.844	-94.55
833.021	-37.2
833.198	7.85
833.374	-26.96
833.551	57
833.728	-6.49
833.905	67.24
834.082	-121.17
834.259	1.71
834.436	73.39
834.612	-14.68
834.789	34.47
834.966	-8.53
835.143	-22.87
835.319	-98.64
835.496	-20.82
835.673	40.62
835.85	34.47
836.026	34.47
836.203	46.76
836.38	-86.36
836.556	-82.26
836.733	7.85
836.909	67.24
837.086	-12.63
837.262	-108.88
837.439	-67.92
837.616	-47.44
837.792	1.71
837.968	44.71
838.145	-63.83
838.321	-2.39
838.498	9.9
838.674	26.28
838.851	63.15
839.027	-22.87
839.203	-24.92
839.38	5.8
839.556	-65.88
839.732	71.34
839.909	-31.06
840.085	5.8
840.261	-53.59
840.437	-4.44
840.614	-43.35
840.79	24.23
840.966	-20.82
841.142	38.57
841.318	-76.12
841.494	-18.77
841.671	71.34
841.847	-96.6
842.023	-43.35
842.199	34.47
842.375	50.86
842.551	-98.64
842.727	-94.55
842.903	97.96
843.079	-141.65
843.255	59.05
843.431	-6.49
843.607	65.19
843.783	-182.61
843.959	42.67
844.134	-8.53
844.31	28.33
844.486	-65.88
844.662	-41.3
844.838	-16.73
845.013	24.23
845.189	-14.68
845.365	-74.07
845.541	30.38
845.716	132.78
845.892	120.49
846.068	-14.68
846.244	-14.68
846.419	-8.53
846.595	-74.07
846.77	-33.11
846.946	36.52
847.122	-33.11
847.297	26.28
847.473	194.22
847.648	-65.88
847.824	57
847.999	-143.7
848.175	-18.77
848.35	22.19
848.526	3.75
848.701	54.95
848.876	122.54
849.052	11.95
849.227	-14.68
849.403	-31.06
849.578	-51.54
849.753	54.95
849.929	-2.39
850.104	-117.08
850.279	-69.97
850.454	-16.73
850.63	30.38
850.805	-10.58
850.98	9.9
851.155	67.24
851.33	-22.87
851.505	1.71
851.681	155.3
851.856	-20.82
852.031	63.15
852.206	-88.4
852.381	-115.03
852.556	-88.4
852.731	81.58
852.906	11.95
853.081	-29.01
853.256	50.86
853.431	-82.26
853.606	-106.84
853.781	-51.54
853.956	-143.7
854.131	-29.01
854.305	3.75
854.48	-76.12
854.655	-69.97
854.83	-78.16
855.005	-29.01
855.18	9.9
855.354	-45.4
855.529	7.85
855.704	-2.39
855.879	36.52
856.053	-65.88
856.228	18.09
856.403	-45.4
856.577	67.24
856.752	-98.64
856.926	-6.49
857.101	1.71
857.276	-74.07
857.45	-14.68
857.625	54.95
857.799	13.99
857.974	-26.96
858.148	-72.02
858.323	40.62
858.497	-78.16
858.672	-104.79
858.846	-102.74
859.02	28.33
859.195	-110.93
859.369	9.9
859.543	1.71
859.718	44.71
859.892	-18.77
860.066	-55.64
860.241	-41.3
860.415	-4.44
860.589	-37.2
860.763	20.14
860.938	-127.32
861.112	-51.54
861.286	-20.82
861.46	24.23
861.634	-82.26
861.808	102.06
861.982	-104.79
862.157	-133.46
862.331	-63.83
862.505	-67.92
862.679	-125.27
862.853	-2.39
863.027	-12.63
863.201	120.49
863.375	-37.2
863.549	-69.97
863.722	-2.39
863.896	63.15
864.07	20.14
864.244	-76.12
864.418	40.62
864.592	16.04
864.766	42.67
864.939	-94.55
865.113	-84.31
865.287	-16.73
865.461	-33.11
865.634	-90.45
865.808	52.91
865.982	-53.59
866.156	-61.78
866.329	-112.98
866.503	20.14
866.676	38.57
866.85	26.28
867.024	-16.73
867.197	48.81
867.371	85.67
867.544	-16.73
867.718	-168.27
867.891	106.15
868.065	-78.16
868.238	-16.73
868.412	-16.73
868.585	-4.44
868.759	-76.12
868.932	-45.4
869.105	-176.47
869.279	-18.77
869.452	-82.26
869.625	26.28
869.799	-67.92
869.972	-53.59
870.145	-123.22
870.319	61.1
870.492	-39.25
870.665	-10.58
870.838	-33.11
871.011	-135.51
871.185	-39.25
871.358	-47.44
871.531	46.76
871.704	-51.54
871.877	13.99
872.05	-96.6
872.223	-53.59
872.396	1.71
872.569	16.04
872.742	-127.32
872.915	-69.97
873.088	-45.4
873.261	-57.68
873.434	13.99
873.607	-29.01
873.78	104.11
873.953	-86.36
874.126	59.05
874.299	-43.35
874.471	-78.16
874.644	40.62
874.817	36.52
874.99	140.97
875.163	-10.58
875.335	44.71
875.508	18.09
875.681	100.01
875.853	-137.56
876.026	-16.73
876.199	-72.02
876.371	-33.11
876.544	-24.92
876.717	-43.35
876.889	-168.27
877.062	-24.92
877.234	-164.18
877.407	-149.84
877.579	-94.55
877.752	63.15
877.924	61.1
878.097	3.75
878.269	-39.25
878.442	42.67
878.614	-29.01
878.786	7.85
878.959	87.72
879.131	-31.06
879.303	-108.88
879.476	-67.92
879.648	77.48
879.82	-72.02
879.993	13.99
880.165	20.14
880.337	-20.82
880.509	38.57
880.681	-135.51
880.854	-22.87
881.026	-2.39
881.198	169.64
881.37	26.28
881.542	-6.49
881.714	-55.64
881.886	38.57
882.058	-24.92
882.23	-41.3
882.402	-8.53
882.574	65.19
882.746	5.8
882.918	71.34
883.09	-41.3
883.262	-33.11
883.434	-37.2
883.606	-94.55
883.778	-125.27
883.95	147.11
884.122	-147.8
884.293	65.19
884.465	9.9
884.637	104.11
884.809	-100.69
884.98	7.85
885.152	-12.63
885.324	65.19
885.496	-78.16
885.667	-8.53
885.839	-45.4
886.011	85.67
886.182	54.95
886.354	69.29
886.525	-61.78
886.697	32.43
886.869	-84.31
887.04	24.23
887.212	163.5
887.383	179.88
887.555	3.75
887.726	-20.82
887.897	-51.54
888.069	13.99
888.24	50.86
888.412	-29.01
888.583	-10.58
888.754	20.14
888.926	-137.56
889.097	-14.68
889.268	-65.88
889.44	108.2
889.611	-139.6
889.782	-86.36
889.953	-80.21
890.125	83.63
890.296	-96.6
890.467	-43.35
890.638	-33.11
890.809	22.19
890.98	-18.77
891.151	-14.68
891.323	110.25
891.494	-4.44
891.665	34.47
891.836	11.95
892.007	-18.77
892.178	93.87
892.349	24.23
892.52	-106.84
892.691	-0.34
892.862	-39.25
893.032	-188.75
893.203	-29.01
893.374	-8.53
893.545	13.99
893.716	-51.54
893.887	79.53
894.057	-51.54
894.228	-69.97
894.399	-115.03
894.57	81.58
894.74	-6.49
894.911	22.19
895.082	-41.3
895.253	-26.96
895.423	-57.68
895.594	-8.53
895.764	34.47
895.935	-59.73
896.106	59.05
896.276	-74.07
896.447	-86.36
896.617	-39.25
896.788	-100.69
896.958	-39.25
897.129	-80.21
897.299	-55.64
897.47	85.67
897.64	-6.49
897.81	-24.92
897.981	-12.63
898.151	-131.41
898.322	-29.01
898.492	38.57
898.662	-149.84
898.832	-14.68
899.003	3.75
899.173	-4.44
899.343	-57.68
899.513	-24.92
