Data from USB4F104151__16__11-24-30-107.txt Node

Date: Wed Feb 26 11:24:30 EST 2025
User: louis
Spectrometer: USB4F10415
Trigger mode: 4
Integration Time (sec): 1.000000E-1
Scans to average: 1
Electric dark correction enabled: true
Nonlinearity correction enabled: false
Boxcar width: 0
XAxis mode: Wavelengths
Number of Pixels in Spectrum: 3648
>>>>>Begin Spectral Data<<<<<
178.204	-431.95
178.424	-431.95
178.644	-431.95
178.864	-333.65
179.084	-460.62
179.304	75.95
179.524	-20.31
179.744	-14.17
179.964	-12.12
180.184	-12.12
180.404	28.84
180.624	18.6
180.844	-18.26
181.064	-44.88
181.283	10.41
181.503	-44.88
181.723	32.94
181.943	-89.94
182.163	178.34
182.383	-20.31
182.602	88.23
182.822	157.86
183.042	77.99
183.262	-40.79
183.482	-20.31
183.701	96.43
183.921	4.27
184.141	20.65
184.361	166.06
184.58	34.99
184.8	18.6
185.02	0.17
185.239	133.29
185.459	65.71
185.679	133.29
185.898	-85.84
186.118	0.17
186.338	139.43
186.557	71.85
186.777	-51.03
186.997	30.89
187.216	67.75
187.436	161.96
187.655	65.71
187.875	86.19
188.095	45.23
188.314	196.78
188.534	116.9
188.753	-48.98
188.973	153.77
189.192	286.89
189.412	-16.21
189.631	123.05
189.851	53.42
190.07	129.19
190.29	18.6
190.509	18.6
190.729	-18.26
190.948	176.3
191.168	305.32
191.387	41.13
191.607	-44.88
191.826	118.95
192.045	14.51
192.265	-24.4
192.484	73.9
192.704	100.52
192.923	-104.28
193.142	141.48
193.362	149.67
193.581	59.56
193.8	51.37
194.02	94.38
194.239	34.99
194.458	133.29
194.678	49.32
194.897	-12.12
195.116	98.47
195.335	22.7
195.555	30.89
195.774	4.27
195.993	145.58
196.212	69.8
196.432	28.84
196.651	30.89
196.87	-3.93
197.089	247.97
197.308	125.1
197.528	45.23
197.747	-1.88
197.966	20.65
198.185	178.34
198.404	47.27
198.623	65.71
198.842	133.29
199.062	86.19
199.281	102.57
199.5	-20.31
199.719	125.1
199.938	77.99
200.157	71.85
200.376	16.55
200.595	37.03
200.814	82.09
201.033	26.79
201.252	186.54
201.471	110.76
201.69	71.85
201.909	43.18
202.128	172.2
202.347	67.75
202.566	34.99
202.785	-5.97
203.004	-65.36
203.223	280.74
203.442	55.47
203.661	-46.93
203.879	84.14
204.098	125.1
204.317	-59.22
204.536	161.96
204.755	147.62
204.974	211.11
205.193	-8.02
205.411	170.15
205.63	98.47
205.849	45.23
206.068	104.62
206.287	26.79
206.505	151.72
206.724	49.32
206.943	10.41
207.162	20.65
207.381	53.42
207.599	94.38
207.818	37.03
208.037	92.33
208.255	67.75
208.474	16.55
208.693	100.52
208.911	-24.4
209.13	88.23
209.349	164.01
209.567	57.51
209.786	80.04
210.005	71.85
210.223	59.56
210.442	-118.61
210.661	86.19
210.879	53.42
211.098	59.56
211.316	86.19
211.535	121
211.753	59.56
211.972	49.32
212.191	-20.31
212.409	51.37
212.628	100.52
212.846	-40.79
213.065	10.41
213.283	190.63
213.502	39.08
213.72	-12.12
213.938	14.51
214.157	14.51
214.375	192.68
214.594	2.22
214.812	69.8
215.031	114.86
215.249	34.99
215.467	98.47
215.686	82.09
215.904	104.62
216.122	39.08
216.341	231.59
216.559	84.14
216.778	80.04
216.996	133.29
217.214	-5.97
217.432	-63.32
217.651	-18.26
217.869	41.13
218.087	-8.02
218.306	-32.6
218.524	94.38
218.742	90.28
218.96	141.48
219.179	22.7
219.397	-1.88
219.615	209.06
219.833	155.82
220.051	-48.98
220.27	129.19
220.488	151.72
220.706	30.89
220.924	-55.12
221.142	-22.36
221.36	43.18
221.578	102.57
221.796	14.51
222.015	69.8
222.233	127.14
222.451	110.76
222.669	-36.69
222.887	34.99
223.105	-28.5
223.323	75.95
223.541	-28.5
223.759	55.47
223.977	61.61
224.195	178.34
224.413	133.29
224.631	26.79
224.849	51.37
225.067	149.67
225.285	-3.93
225.503	-51.03
225.721	-81.75
225.939	75.95
226.157	-18.26
226.375	239.78
226.592	37.03
226.81	43.18
227.028	61.61
227.246	180.39
227.464	39.08
227.682	71.85
227.9	41.13
228.117	92.33
228.335	61.61
228.553	57.51
228.771	59.56
228.989	59.56
229.206	84.14
229.424	51.37
229.642	-77.65
229.86	-22.36
230.077	90.28
230.295	53.42
230.513	104.62
230.731	100.52
230.948	211.11
231.166	229.54
231.384	32.94
231.601	-30.55
231.819	129.19
232.037	-28.5
232.254	-108.37
232.472	6.31
232.689	43.18
232.907	94.38
233.125	73.9
233.342	0.17
233.56	53.42
233.777	65.71
233.995	24.75
234.213	137.38
234.43	65.71
234.648	168.1
234.865	-51.03
235.083	37.03
235.3	82.09
235.518	118.95
235.735	149.67
235.953	94.38
236.17	10.41
236.388	65.71
236.605	82.09
236.822	88.23
237.04	127.14
237.257	65.71
237.475	20.65
237.692	22.7
237.909	28.84
238.127	49.32
238.344	57.51
238.562	112.81
238.779	-63.32
238.996	39.08
239.214	55.47
239.431	110.76
239.648	112.81
239.865	30.89
240.083	65.71
240.3	10.41
240.517	-22.36
240.735	80.04
240.952	129.19
241.169	88.23
241.386	80.04
241.603	24.75
241.821	-36.69
242.038	129.19
242.255	133.29
242.472	-57.17
242.689	43.18
242.907	37.03
243.124	84.14
243.341	43.18
243.558	-22.36
243.775	-63.32
243.992	-28.5
244.209	110.76
244.426	188.58
244.643	4.27
244.86	26.79
245.078	41.13
245.295	47.27
245.512	57.51
245.729	47.27
245.946	69.8
246.163	61.61
246.38	6.31
246.597	80.04
246.814	49.32
247.031	86.19
247.248	61.61
247.464	28.84
247.681	125.1
247.898	55.47
248.115	77.99
248.332	-22.36
248.549	114.86
248.766	229.54
248.983	86.19
249.2	69.8
249.417	59.56
249.633	98.47
249.85	73.9
250.067	96.43
250.284	61.61
250.501	69.8
250.717	84.14
250.934	-8.02
251.151	30.89
251.368	-18.26
251.585	98.47
251.801	65.71
252.018	-71.51
252.235	63.66
252.451	18.6
252.668	39.08
252.885	80.04
253.102	57.51
253.318	16.55
253.535	-14.17
253.752	57.51
253.968	-22.36
254.185	-96.08
254.401	65.71
254.618	73.9
254.835	14.51
255.051	143.53
255.268	77.99
255.484	30.89
255.701	90.28
255.917	155.82
256.134	-3.93
256.351	47.27
256.567	-28.5
256.784	4.27
257	-83.8
257.217	133.29
257.433	90.28
257.65	73.9
257.866	43.18
258.082	-10.07
258.299	10.41
258.515	98.47
258.732	8.36
258.948	6.31
259.165	65.71
259.381	-30.55
259.597	73.9
259.814	61.61
260.03	24.75
260.246	90.28
260.463	131.24
260.679	196.78
260.895	57.51
261.112	34.99
261.328	98.47
261.544	-3.93
261.761	170.15
261.977	6.31
262.193	-46.93
262.409	28.84
262.626	18.6
262.842	57.51
263.058	-3.93
263.274	100.52
263.49	10.41
263.707	20.65
263.923	96.43
264.139	-65.36
264.355	34.99
264.571	59.56
264.787	55.47
265.004	133.29
265.22	14.51
265.436	45.23
265.652	75.95
265.868	49.32
266.084	-46.93
266.3	24.75
266.516	10.41
266.732	75.95
266.948	47.27
267.164	24.75
267.38	100.52
267.596	116.9
267.812	215.21
268.028	-10.07
268.244	-24.4
268.46	32.94
268.676	-42.84
268.892	63.66
269.108	-14.17
269.324	-36.69
269.54	43.18
269.756	49.32
269.972	10.41
270.188	37.03
270.403	-18.26
270.619	110.76
270.835	59.56
271.051	-3.93
271.267	-32.6
271.483	10.41
271.698	106.67
271.914	53.42
272.13	32.94
272.346	-44.88
272.562	26.79
272.777	98.47
272.993	59.56
273.209	32.94
273.425	71.85
273.64	-73.56
273.856	145.58
274.072	-3.93
274.287	34.99
274.503	16.55
274.719	114.86
274.934	24.75
275.15	-36.69
275.366	41.13
275.581	-40.79
275.797	49.32
276.012	10.41
276.228	-100.18
276.444	49.32
276.659	92.33
276.875	-8.02
277.09	59.56
277.306	34.99
277.521	32.94
277.737	49.32
277.952	86.19
278.168	61.61
278.383	16.55
278.599	16.55
278.814	106.67
279.03	47.27
279.245	153.77
279.461	69.8
279.676	143.53
279.892	26.79
280.107	-34.64
280.322	-20.31
280.538	34.99
280.753	-48.98
280.969	121
281.184	34.99
281.399	108.71
281.615	184.49
281.83	110.76
282.045	-34.64
282.26	32.94
282.476	28.84
282.691	88.23
282.906	6.31
283.122	43.18
283.337	26.79
283.552	75.95
283.767	-73.56
283.983	84.14
284.198	-1.88
284.413	49.32
284.628	-77.65
284.843	-14.17
285.058	123.05
285.274	32.94
285.489	-36.69
285.704	123.05
285.919	24.75
286.134	39.08
286.349	65.71
286.564	47.27
286.779	166.06
286.995	0.17
287.21	-46.93
287.425	186.54
287.64	-3.93
287.855	41.13
288.07	2.22
288.285	121
288.5	116.9
288.715	118.95
288.93	129.19
289.145	118.95
289.36	114.86
289.575	65.71
289.79	207.02
290.004	24.75
290.219	57.51
290.434	51.37
290.649	53.42
290.864	41.13
291.079	-20.31
291.294	75.95
291.509	82.09
291.724	49.32
291.938	37.03
292.153	114.86
292.368	28.84
292.583	47.27
292.798	73.9
293.012	28.84
293.227	159.91
293.442	45.23
293.657	92.33
293.871	190.63
294.086	73.9
294.301	204.97
294.516	118.95
294.73	57.51
294.945	10.41
295.16	16.55
295.374	159.91
295.589	73.9
295.804	-5.97
296.018	82.09
296.233	190.63
296.447	41.13
296.662	-42.84
296.877	151.72
297.091	127.14
297.306	65.71
297.52	14.51
297.735	106.67
297.949	96.43
298.164	18.6
298.378	-3.93
298.593	-51.03
298.807	-16.21
299.022	77.99
299.236	178.34
299.451	53.42
299.665	-42.84
299.88	-12.12
300.094	-26.45
300.309	6.31
300.523	55.47
300.737	18.6
300.952	172.2
301.166	84.14
301.381	-12.12
301.595	34.99
301.809	77.99
302.024	2.22
302.238	37.03
302.452	47.27
302.667	30.89
302.881	170.15
303.095	75.95
303.309	65.71
303.524	-51.03
303.738	73.9
303.952	-22.36
304.166	73.9
304.381	-48.98
304.595	161.96
304.809	-12.12
305.023	114.86
305.237	82.09
305.452	34.99
305.666	43.18
305.88	112.81
306.094	45.23
306.308	157.86
306.522	57.51
306.736	67.75
306.95	127.14
307.164	125.1
307.379	-3.93
307.593	172.2
307.807	96.43
308.021	184.49
308.235	112.81
308.449	-69.46
308.663	30.89
308.877	225.45
309.091	-8.02
309.305	116.9
309.519	16.55
309.733	69.8
309.947	-18.26
310.161	55.47
310.374	176.3
310.588	135.34
310.802	-89.94
311.016	14.51
311.23	47.27
311.444	47.27
311.658	-12.12
311.872	174.25
312.085	94.38
312.299	149.67
312.513	123.05
312.727	67.75
312.941	-12.12
313.154	37.03
313.368	84.14
313.582	30.89
313.796	114.86
314.009	12.46
314.223	102.57
314.437	106.67
314.651	67.75
314.864	-34.64
315.078	71.85
315.292	-26.45
315.505	59.56
315.719	104.62
315.933	123.05
316.146	32.94
316.36	-14.17
316.573	217.26
316.787	16.55
317.001	86.19
317.214	-26.45
317.428	28.84
317.641	-42.84
317.855	18.6
318.068	47.27
318.282	43.18
318.495	200.87
318.709	20.65
318.922	59.56
319.136	217.26
319.349	166.06
319.563	-53.08
319.776	127.14
319.99	-145.24
320.203	159.91
320.417	77.99
320.63	92.33
320.843	217.26
321.057	49.32
321.27	71.85
321.483	98.47
321.697	141.48
321.91	108.71
322.124	69.8
322.337	75.95
322.55	47.27
322.763	80.04
322.977	-16.21
323.19	12.46
323.403	88.23
323.617	88.23
323.83	102.57
324.043	10.41
324.256	77.99
324.469	-34.64
324.683	133.29
324.896	55.47
325.109	28.84
325.322	-116.56
325.535	174.25
325.748	100.52
325.962	86.19
326.175	61.61
326.388	37.03
326.601	149.67
326.814	-51.03
327.027	51.37
327.24	118.95
327.453	-85.84
327.666	20.65
327.879	164.01
328.092	53.42
328.305	80.04
328.518	12.46
328.731	-10.07
328.944	20.65
329.157	49.32
329.37	-61.27
329.583	168.1
329.796	151.72
330.009	-124.76
330.222	82.09
330.435	135.34
330.648	71.85
330.861	63.66
331.073	65.71
331.286	211.11
331.499	53.42
331.712	30.89
331.925	63.66
332.138	123.05
332.35	157.86
332.563	-5.97
332.776	151.72
332.989	-36.69
333.202	28.84
333.414	26.79
333.627	65.71
333.84	65.71
334.053	14.51
334.265	43.18
334.478	4.27
334.691	34.99
334.903	32.94
335.116	20.65
335.329	4.27
335.541	98.47
335.754	164.01
335.966	12.46
336.179	18.6
336.392	12.46
336.604	12.46
336.817	94.38
337.029	114.86
337.242	18.6
337.454	73.9
337.667	-22.36
337.88	151.72
338.092	80.04
338.305	98.47
338.517	49.32
338.729	166.06
338.942	96.43
339.154	-53.08
339.367	-38.74
339.579	24.75
339.792	20.65
340.004	133.29
340.217	37.03
340.429	43.18
340.641	8.36
340.854	57.51
341.066	73.9
341.278	137.38
341.491	254.12
341.703	49.32
341.915	-10.07
342.128	57.51
342.34	67.75
342.552	14.51
342.764	73.9
342.977	34.99
343.189	61.61
343.401	-24.4
343.613	-34.64
343.826	94.38
344.038	-10.07
344.25	71.85
344.462	2.22
344.674	65.71
344.886	110.76
345.099	77.99
345.311	71.85
345.523	-14.17
345.735	-98.13
345.947	34.99
346.159	51.37
346.371	26.79
346.583	8.36
346.795	231.59
347.007	-26.45
347.219	71.85
347.431	28.84
347.643	133.29
347.855	-1.88
348.067	153.77
348.279	-44.88
348.491	61.61
348.703	75.95
348.915	22.7
349.127	18.6
349.339	37.03
349.551	22.7
349.763	133.29
349.975	30.89
350.187	98.47
350.399	174.25
350.61	75.95
350.822	49.32
351.034	53.42
351.246	88.23
351.458	112.81
351.669	129.19
351.881	118.95
352.093	55.47
352.305	141.48
352.517	32.94
352.728	172.2
352.94	61.61
353.152	75.95
353.363	-10.07
353.575	106.67
353.787	178.34
353.999	75.95
354.21	149.67
354.422	-22.36
354.633	55.47
354.845	32.94
355.057	102.57
355.268	90.28
355.48	155.82
355.692	-106.32
355.903	8.36
356.115	-14.17
356.326	-36.69
356.538	129.19
356.749	45.23
356.961	184.49
357.172	94.38
357.384	49.32
357.595	219.3
357.807	80.04
358.018	-67.41
358.23	82.09
358.441	168.1
358.653	129.19
358.864	2.22
359.075	16.55
359.287	108.71
359.498	131.24
359.709	86.19
359.921	82.09
360.132	24.75
360.344	28.84
360.555	12.46
360.766	104.62
360.977	45.23
361.189	127.14
361.4	2.22
361.611	77.99
361.823	41.13
362.034	65.71
362.245	-102.23
362.456	-32.6
362.667	47.27
362.879	18.6
363.09	49.32
363.301	28.84
363.512	131.24
363.723	-18.26
363.935	-34.64
364.146	133.29
364.357	28.84
364.568	30.89
364.779	-91.99
364.99	164.01
365.201	-18.26
365.412	30.89
365.623	-44.88
365.834	75.95
366.045	49.32
366.256	112.81
366.467	84.14
366.678	94.38
366.889	30.89
367.1	-46.93
367.311	92.33
367.522	77.99
367.733	0.17
367.944	18.6
368.155	51.37
368.366	164.01
368.577	96.43
368.788	108.71
368.999	53.42
369.209	43.18
369.42	172.2
369.631	207.02
369.842	118.95
370.053	-34.64
370.264	207.02
370.474	41.13
370.685	71.85
370.896	100.52
371.107	161.96
371.317	121
371.528	90.28
371.739	102.57
371.95	84.14
372.16	59.56
372.371	-24.4
372.582	18.6
372.792	147.62
373.003	88.23
373.214	104.62
373.424	57.51
373.635	-20.31
373.846	41.13
374.056	39.08
374.267	71.85
374.477	149.67
374.688	-8.02
374.898	59.56
375.109	75.95
375.319	51.37
375.53	151.72
375.74	106.67
375.951	-14.17
376.161	28.84
376.372	143.53
376.582	-20.31
376.793	22.7
377.003	65.71
377.214	-20.31
377.424	100.52
377.635	63.66
377.845	4.27
378.055	178.34
378.266	-1.88
378.476	43.18
378.686	47.27
378.897	112.81
379.107	139.43
379.317	82.09
379.528	8.36
379.738	39.08
379.948	-63.32
380.158	135.34
380.369	90.28
380.579	75.95
380.789	84.14
380.999	71.85
381.21	161.96
381.42	227.5
381.63	30.89
381.84	106.67
382.05	39.08
382.261	100.52
382.471	194.73
382.681	-53.08
382.891	221.35
383.101	73.9
383.311	-26.45
383.521	24.75
383.731	131.24
383.941	92.33
384.151	18.6
384.361	10.41
384.571	110.76
384.781	47.27
384.991	198.82
385.201	198.82
385.411	145.58
385.621	67.75
385.831	20.65
386.041	37.03
386.251	49.32
386.461	49.32
386.671	28.84
386.881	133.29
387.091	20.65
387.301	98.47
387.511	69.8
387.72	88.23
387.93	123.05
388.14	-18.26
388.35	57.51
388.56	153.77
388.769	47.27
388.979	59.56
389.189	71.85
389.399	-10.07
389.609	125.1
389.818	92.33
390.028	80.04
390.238	57.51
390.447	-94.04
390.657	153.77
390.867	63.66
391.076	-22.36
391.286	30.89
391.496	67.75
391.705	84.14
391.915	94.38
392.125	147.62
392.334	82.09
392.544	161.96
392.753	34.99
392.963	67.75
393.172	116.9
393.382	-22.36
393.591	151.72
393.801	-34.64
394.01	145.58
394.22	141.48
394.429	-28.5
394.639	30.89
394.848	86.19
395.058	4.27
395.267	43.18
395.477	98.47
395.686	104.62
395.895	213.16
396.105	229.54
396.314	139.43
396.524	30.89
396.733	80.04
396.942	125.1
397.152	22.7
397.361	135.34
397.57	69.8
397.78	112.81
397.989	98.47
398.198	223.4
398.407	18.6
398.617	96.43
398.826	28.84
399.035	14.51
399.244	157.86
399.453	45.23
399.663	88.23
399.872	98.47
400.081	-12.12
400.29	145.58
400.499	-12.12
400.708	112.81
400.917	-16.21
401.127	59.56
401.336	16.55
401.545	151.72
401.754	106.67
401.963	129.19
402.172	-24.4
402.381	-46.93
402.59	59.56
402.799	26.79
403.008	71.85
403.217	41.13
403.426	30.89
403.635	-38.74
403.844	-67.41
404.053	43.18
404.262	22.7
404.471	207.02
404.68	63.66
404.888	8.36
405.097	12.46
405.306	129.19
405.515	106.67
405.724	71.85
405.933	129.19
406.142	149.67
406.35	77.99
406.559	55.47
406.768	63.66
406.977	114.86
407.185	121
407.394	6.31
407.603	26.79
407.812	47.27
408.02	114.86
408.229	73.9
408.438	110.76
408.646	-28.5
408.855	20.65
409.064	69.8
409.272	51.37
409.481	86.19
409.69	-40.79
409.898	-48.98
410.107	59.56
410.315	61.61
410.524	53.42
410.733	65.71
410.941	135.34
411.15	200.87
411.358	2.22
411.567	98.47
411.775	100.52
411.984	86.19
412.192	98.47
412.401	34.99
412.609	270.5
412.818	157.86
413.026	127.14
413.234	30.89
413.443	67.75
413.651	8.36
413.86	-24.4
414.068	161.96
414.276	147.62
414.485	43.18
414.693	151.72
414.901	231.59
415.11	90.28
415.318	55.47
415.526	86.19
415.734	213.16
415.943	127.14
416.151	159.91
416.359	63.66
416.567	116.9
416.776	157.86
416.984	127.14
417.192	188.58
417.4	-3.93
417.608	-3.93
417.817	55.47
418.025	200.87
418.233	133.29
418.441	6.31
418.649	-57.17
418.857	75.95
419.065	182.44
419.273	47.27
419.481	75.95
419.689	37.03
419.897	-26.45
420.105	-22.36
420.313	45.23
420.521	161.96
420.729	174.25
420.937	53.42
421.145	75.95
421.353	168.1
421.561	96.43
421.769	57.51
421.977	102.57
422.185	92.33
422.393	41.13
422.601	112.81
422.809	98.47
423.017	45.23
423.224	108.71
423.432	49.32
423.64	67.75
423.848	164.01
424.056	12.46
424.263	176.3
424.471	-14.17
424.679	125.1
424.887	45.23
425.094	190.63
425.302	123.05
425.51	53.42
425.718	102.57
425.925	49.32
426.133	39.08
426.341	288.93
426.548	26.79
426.756	-16.21
426.964	114.86
427.171	14.51
427.379	108.71
427.586	106.67
427.794	170.15
428.001	141.48
428.209	86.19
428.417	137.38
428.624	211.11
428.832	71.85
429.039	90.28
429.247	28.84
429.454	118.95
429.662	213.16
429.869	196.78
430.076	159.91
430.284	204.97
430.491	174.25
430.699	241.83
430.906	225.45
431.114	59.56
431.321	178.34
431.528	176.3
431.736	147.62
431.943	151.72
432.15	202.92
432.358	170.15
432.565	286.89
432.772	28.84
432.979	235.69
433.187	110.76
433.394	176.3
433.601	200.87
433.808	229.54
434.016	157.86
434.223	225.45
434.43	188.58
434.637	231.59
434.844	319.65
435.052	233.64
435.259	360.61
435.466	241.83
435.673	319.65
435.88	245.93
436.087	254.12
436.294	327.85
436.501	293.03
436.708	274.6
436.915	295.08
437.122	350.37
437.329	225.45
437.537	331.94
437.743	368.81
437.95	417.96
438.157	336.04
438.364	360.61
438.571	368.81
438.778	483.49
438.985	475.3
439.192	401.57
439.399	336.04
439.606	467.11
439.813	510.11
440.02	606.37
440.227	608.42
440.433	585.89
440.64	506.02
440.847	542.88
441.054	569.51
441.261	669.86
441.467	616.61
441.674	577.7
441.881	676
442.088	610.47
442.294	731.3
442.501	839.84
442.708	800.93
442.914	647.33
443.121	835.74
443.328	823.45
443.534	972.96
443.741	837.79
443.948	815.26
444.154	944.28
444.361	1144.99
444.568	1001.63
444.774	1056.92
444.981	1032.35
445.187	1071.26
445.394	1093.79
445.6	1116.31
445.807	1243.29
446.013	1280.15
446.22	1140.89
446.426	1388.69
446.633	1425.56
446.839	1548.44
447.046	1368.21
447.252	1616.02
447.459	1519.76
447.665	1659.03
447.871	1734.8
448.078	1855.63
448.284	1798.29
448.491	1888.4
448.697	1980.56
448.903	2037.9
449.11	2105.48
449.316	2031.76
449.522	2248.84
449.728	2379.91
449.935	2510.98
450.141	2457.73
450.347	2502.79
450.553	2525.32
450.76	2660.48
450.966	2883.71
451.172	2805.89
451.378	3080.32
451.584	3119.23
451.791	3405.94
451.997	3317.88
452.203	3516.53
452.409	3571.83
452.615	3840.11
452.821	3776.63
453.027	3768.43
453.233	4272.23
453.44	4032.62
453.646	4296.81
453.852	4417.64
454.058	4620.39
454.264	4860
454.47	5091.42
454.676	5144.67
454.882	5609.56
455.088	5189.72
455.294	5634.13
455.5	6139.98
455.705	6453.32
455.911	6277.19
456.117	6422.6
456.323	6756.42
456.529	6766.66
456.735	7307.32
456.941	7651.38
457.147	7825.46
457.352	7995.44
457.558	8407.08
457.764	8788
457.97	9039.9
458.176	9386.01
458.381	9797.65
458.587	10209.29
458.793	10651.66
458.999	10483.72
459.204	11782.13
459.41	12060.66
459.616	12122.1
459.821	12734.44
460.027	13320.16
460.233	13813.72
460.438	14012.37
460.644	14837.7
460.85	14776.27
461.055	15562.69
461.261	16037.81
461.466	15765.43
461.672	16119.73
461.878	18063.26
462.083	17774.49
462.289	18065.3
462.494	18898.83
462.7	18935.69
462.905	19271.56
463.111	20731.76
463.316	21909.34
463.522	22249.3
463.727	22794.06
463.932	23975.74
464.138	24774.45
464.343	25493.29
464.549	25863.97
464.754	27815.68
464.959	28446.46
465.165	28421.88
465.37	28475.13
465.575	28518.14
465.781	30473.95
465.986	31348.43
466.191	30772.95
466.397	30869.2
466.602	30183.13
466.807	32251.58
467.012	32704.18
467.218	33048.24
467.423	33076.91
467.628	34268.83
467.833	36040.32
468.038	35135.12
468.244	34686.62
468.449	36308.61
468.654	35485.33
468.859	35524.24
469.064	35462.8
469.269	34635.42
469.474	35282.58
469.679	35735.18
469.885	34877.08
470.09	35473.04
470.295	35624.59
470.5	34692.76
470.705	34846.36
470.91	34133.67
471.115	33580.71
471.32	34231.97
471.525	33924.77
471.73	32966.32
471.935	32743.1
472.139	31442.63
472.344	31747.78
472.549	31235.79
472.754	30435.03
472.959	30174.94
473.164	29136.62
473.369	28704.5
473.574	29335.28
473.778	28702.45
473.983	28268.28
474.188	27819.78
474.393	26345.24
474.598	26230.55
474.802	25411.37
475.007	25165.61
475.212	25452.33
475.417	24106.81
475.621	24010.56
475.826	23924.54
476.031	23236.42
476.235	22587.22
476.44	22681.42
476.645	22064.99
476.849	21995.36
477.054	21143.4
477.259	21075.82
477.463	21045.1
477.668	20492.15
477.872	20404.08
478.077	19953.53
478.282	19199.88
478.486	19095.43
478.691	18784.14
478.895	18677.65
479.1	18689.93
479.304	18548.62
479.509	17915.8
479.713	18184.09
479.918	17491.87
480.122	17301.41
480.326	17393.57
480.531	17538.98
480.735	17352.61
480.94	16717.74
481.144	17475.49
481.348	16521.13
481.553	16668.59
481.757	16240.56
481.961	16388.02
482.166	16455.6
482.37	16355.25
482.574	15962.04
482.778	16043.96
482.983	15978.42
483.187	15548.35
483.391	15609.79
483.595	15527.87
483.8	15062.98
484.004	15271.87
484.208	15185.86
484.412	15046.6
484.616	14788.55
484.821	14827.46
485.025	14333.9
485.229	14503.89
485.433	14069.72
485.637	14245.84
485.841	13600.73
486.045	13557.72
486.249	13576.16
486.453	12912.61
486.657	12972
486.861	12869.61
487.065	12345.33
487.269	12435.44
487.473	11970.55
487.677	12240.88
487.881	12077.04
488.085	11583.48
488.289	11554.81
488.493	11253.76
488.697	11286.53
488.901	10872.84
489.105	10758.15
489.309	10747.91
489.512	10379.28
489.716	10336.27
489.92	10012.69
490.124	9971.73
490.328	9850.9
490.531	9492.51
490.735	9619.48
490.939	9222.17
491.143	8962.08
491.346	8753.19
491.55	8968.23
491.754	8585.26
491.958	8568.87
492.161	8540.2
492.365	8380.46
492.569	8165.42
492.772	8112.17
492.976	8058.93
493.18	7546.94
493.383	7809.08
493.587	7624.76
493.79	7710.77
493.994	7493.69
494.197	7475.26
494.401	7469.11
494.605	7288.89
494.808	7270.46
495.012	7286.84
495.215	7239.74
495.419	7276.6
495.622	6922.31
495.825	7108.67
496.029	7067.71
496.232	7178.3
496.436	6967.36
496.639	7161.92
496.843	6934.59
497.046	6885.44
497.249	7032.9
497.453	6971.46
497.656	7041.09
497.859	6936.64
498.063	7096.38
498.266	7141.44
498.469	6928.45
498.673	7008.32
498.876	7172.16
499.079	7161.92
499.282	7149.63
499.485	7225.4
499.689	7305.28
499.892	7436.35
500.095	7284.8
500.298	7295.04
500.501	7266.36
500.705	7510.07
500.908	7512.12
501.111	7739.44
501.314	7833.65
501.517	7903.28
501.72	7993.39
501.923	7919.67
502.126	8124.46
502.329	8351.79
502.532	8263.72
502.735	8310.83
502.938	8603.69
503.141	8499.24
503.344	8761.38
503.547	8734.76
503.75	8878.12
503.953	8943.65
504.156	9066.53
504.359	9193.5
504.562	9320.48
504.765	9613.34
504.968	9633.82
505.17	9748.5
505.373	10082.32
505.576	10088.46
505.779	10151.95
505.982	10412.04
506.185	10508.3
506.387	10752.01
506.59	10907.65
506.793	11241.47
506.996	11493.37
507.198	11646.97
507.401	11626.49
507.604	11997.17
507.807	12314.61
508.009	12568.55
508.212	12922.85
508.415	12867.56
508.617	12998.63
508.82	13422.56
509.022	13832.15
509.225	14176.21
509.428	14133.2
509.63	14565.32
509.833	14804.94
510.035	15482.81
510.238	15669.18
510.44	15720.38
510.643	16365.49
510.845	16770.99
511.048	17006.5
511.25	17156
511.453	17981.34
511.655	18751.37
511.858	18708.37
512.06	19255.17
512.262	19257.22
512.465	19740.54
512.667	20352.88
512.87	20694.89
513.072	20866.92
513.274	21858.14
513.477	22194.01
513.679	22712.14
513.881	22988.62
514.084	23885.63
514.286	24004.41
514.488	24549.17
514.69	25526.05
514.893	25712.42
515.095	26355.48
515.297	26515.22
515.499	27436.81
515.701	27848.45
515.904	28739.32
516.106	29187.82
516.308	29599.46
516.51	30351.07
516.712	30686.93
516.914	31633.1
517.116	32077.51
517.318	32605.88
517.52	33519.28
517.722	33652.39
517.925	34520.73
518.127	35354.26
518.329	35937.93
518.531	35860.1
518.733	37013.11
518.935	37510.77
519.136	37826.15
519.338	38796.89
519.54	39202.39
519.742	39837.26
519.944	40386.11
520.146	41446.96
520.348	41377.33
520.55	42255.91
520.752	41928.23
520.954	43345.43
521.155	43124.25
521.357	43976.2
521.559	44408.33
521.761	45458.93
521.963	45215.22
522.164	45782.51
522.366	46153.19
522.568	46636.52
522.77	46720.48
522.971	47603.16
523.173	47255
523.375	48068.05
523.576	47945.17
523.778	47613.4
523.98	49169.85
524.181	48889.28
524.383	49243.58
524.584	49331.64
524.786	48960.96
524.988	49350.07
525.189	49503.67
525.391	49876.4
525.592	49702.32
525.794	50079.15
525.995	49477.05
526.197	49923.5
526.398	49450.42
526.6	49513.91
526.801	49165.76
527.003	49323.45
527.204	49442.23
527.406	49161.66
527.607	49102.27
527.808	49008.06
528.01	47734.23
528.211	47795.67
528.412	48438.73
528.614	47885.78
528.815	47443.41
529.016	47287.77
529.218	46532.07
529.419	46015.98
529.62	45716.98
529.822	45374.97
530.023	45282.81
530.224	44768.77
530.425	44346.89
530.626	43415.06
530.828	42917.4
531.029	43468.31
531.23	42079.78
531.431	41932.33
531.632	41727.53
531.833	40912.44
532.035	40502.85
532.236	40291.91
532.437	39767.63
532.638	39138.9
532.839	38991.45
533.04	38325.86
533.241	37465.71
533.442	37824.11
533.643	36927.1
533.844	36091.52
534.045	36069
534.246	35255.95
534.447	34754.2
534.648	34059.94
534.849	34145.95
535.05	33513.13
535.251	33050.29
535.451	32636.6
535.652	32351.93
535.853	32011.97
536.054	31411.92
536.255	31397.58
536.456	30541.53
536.657	30539.48
536.857	29820.64
537.058	29202.16
537.259	28841.71
537.46	28479.22
537.66	27930.37
537.861	27987.71
538.062	27678.47
538.263	27156.24
538.463	26765.07
538.664	26613.52
538.865	26208.03
539.065	26062.62
539.266	25247.53
539.466	25282.34
539.667	24725.3
539.868	24915.76
540.068	24168.25
540.269	23889.73
540.469	23801.66
540.67	23172.94
540.87	23363.4
541.071	22957.9
541.271	22476.63
541.472	22568.79
541.672	22089.56
541.873	21610.34
542.073	21290.85
542.274	21333.86
542.474	21081.96
542.675	20914.03
542.875	20678.51
543.075	20449.14
543.276	20060.02
543.476	20260.73
543.676	19849.08
543.877	19627.9
544.077	19376
544.277	19365.76
544.478	18982.79
544.678	18802.57
544.878	18399.12
545.078	18276.24
545.279	18089.88
545.479	17780.64
545.679	17815.45
545.879	17487.78
546.079	17395.62
546.28	16951.21
546.48	16551.85
546.68	16844.71
546.88	16672.68
547.08	16441.26
547.28	16162.74
547.48	15896.5
547.68	15710.14
547.88	15415.23
548.081	15546.3
548.281	15089.6
548.481	14835.66
548.681	14583.76
548.881	14397.39
549.081	14272.46
549.28	13987.8
549.48	13932.5
549.68	14098.39
549.88	13924.31
550.08	13287.39
550.28	13209.57
550.48	13207.52
550.68	12972
550.88	12668.91
551.08	12457.96
551.279	12601.32
551.479	12224.5
551.679	12304.37
551.879	11802.61
552.079	11636.73
552.278	11415.55
552.478	11368.45
552.678	11208.7
552.878	11079.68
553.077	10913.8
553.277	10496.01
553.477	10678.28
553.676	10604.55
553.876	10125.33
554.076	10082.32
554.275	9928.72
554.475	9576.47
554.674	9584.66
554.874	9506.84
555.074	9179.17
555.273	9261.09
555.473	9046.05
555.672	8831.01
555.872	8722.47
556.071	8667.17
556.271	8552.49
556.47	8142.89
556.67	8192.05
556.869	8063.02
557.068	7966.77
557.268	7796.79
557.467	7682.1
557.667	7708.73
557.866	7350.33
558.065	7077.95
558.265	7149.63
558.464	6950.98
558.663	6946.88
558.863	7018.56
559.062	6737.99
559.261	6481.99
559.461	6723.65
559.66	6385.74
559.859	6121.55
560.058	6058.06
560.258	6000.72
560.457	6006.86
560.656	6070.35
560.855	5711.96
561.054	5812.31
561.253	5541.97
561.453	5648.47
561.652	5550.17
561.851	5406.81
562.05	5253.21
562.249	5068.89
562.448	5181.53
562.647	4857.95
562.846	5167.2
563.045	4962.4
563.244	4880.48
563.443	4888.67
563.642	4634.72
563.841	4497.51
564.04	4567.14
564.239	4460.65
564.438	4532.33
564.637	4235.37
564.836	4255.85
565.035	4110.44
565.234	4239.47
565.432	4114.54
565.631	4149.36
565.83	3954.8
566.029	3962.99
566.228	3836.02
566.427	3801.2
566.625	3747.95
566.824	3645.56
567.023	3569.78
567.222	3504.25
567.42	3655.79
567.619	3516.53
567.818	3305.59
568.016	3649.65
568.215	3356.79
568.414	3256.44
568.612	3195
568.811	3170.43
569.01	3219.58
569.208	3035.26
569.407	3111.04
569.605	2988.16
569.804	2998.4
570.002	2953.34
570.201	2830.46
570.4	2887.81
570.598	2783.36
570.797	2787.46
570.995	2717.83
571.193	2740.35
571.392	2695.3
571.59	2513.03
571.789	2603.14
571.987	2523.27
572.186	2494.6
572.384	2357.38
572.582	2461.83
572.781	2482.31
572.979	2236.55
573.177	2261.13
573.376	2324.62
573.574	2351.24
573.772	2220.17
573.971	2082.95
574.169	2066.57
574.367	2119.82
574.565	1986.7
574.763	2019.47
574.962	1865.87
575.16	1941.65
575.358	1980.56
575.556	1878.16
575.754	1929.36
575.952	1849.49
576.151	1786
576.349	1945.74
576.547	1652.88
576.745	1771.66
576.943	1667.22
577.141	1814.67
577.339	1630.35
577.537	1634.45
577.735	1781.9
577.933	1650.83
578.131	1495.19
578.329	1556.63
578.527	1558.67
578.725	1523.86
578.923	1388.69
579.121	1493.14
579.319	1253.53
579.516	1384.6
579.714	1493.14
579.912	1337.49
580.11	1263.77
580.308	1290.39
580.506	1296.53
580.704	1108.12
580.901	1204.38
581.099	1331.35
581.297	1167.51
581.495	1294.49
581.692	1106.07
581.89	1261.72
582.088	1149.08
582.285	1175.7
582.483	1024.16
582.681	1022.11
582.878	1112.22
583.076	1108.12
583.274	1058.97
583.471	1151.13
583.669	1075.35
583.866	981.15
584.064	927.9
584.262	948.38
584.459	891.04
584.657	948.38
584.854	1005.72
585.052	993.44
585.249	1048.73
585.447	905.37
585.644	780.45
585.841	1011.87
586.039	950.43
586.236	940.19
586.434	805.02
586.631	770.21
586.828	821.41
587.026	759.97
587.223	764.06
587.42	811.17
587.618	747.68
587.815	823.45
588.012	733.34
588.21	706.72
588.407	784.54
588.604	735.39
588.801	663.71
588.999	723.1
589.196	833.69
589.393	647.33
589.59	708.77
589.787	766.11
589.984	669.86
590.182	702.62
590.379	630.95
590.576	628.9
590.773	678.05
590.97	737.44
591.167	663.71
591.364	690.34
591.561	696.48
591.758	805.02
591.955	667.81
592.152	612.51
592.349	618.66
592.546	655.52
592.743	637.09
592.94	551.07
593.137	729.25
593.334	749.73
593.531	692.38
593.727	663.71
593.924	602.27
594.121	741.54
594.318	643.23
594.515	702.62
594.712	827.55
594.908	749.73
595.105	612.51
595.302	741.54
595.499	573.6
595.696	831.65
595.892	587.94
596.089	809.12
596.286	624.8
596.482	950.43
596.679	882.85
596.876	747.68
597.072	884.89
597.269	778.4
597.466	817.31
597.662	837.79
597.859	809.12
598.055	999.58
598.252	938.14
598.448	1028.25
598.645	1036.44
598.841	1083.55
599.038	1192.09
599.234	1243.29
599.431	1149.08
599.627	1224.86
599.824	1284.25
600.02	1335.45
600.217	1347.73
600.413	1417.37
600.609	1472.66
600.806	1773.71
601.002	1540.24
601.198	1554.58
601.395	1800.34
601.591	1693.84
601.787	1722.51
601.984	1976.46
602.18	2054.28
602.376	2011.28
602.572	2068.62
602.769	2283.66
602.965	2173.07
603.161	2353.29
603.357	2443.4
603.553	2599.04
603.75	2597
603.946	2680.96
604.142	2769.02
604.338	2822.27
604.534	2879.61
604.73	3072.12
604.926	3037.31
605.122	3416.18
605.318	3315.83
605.514	3393.65
605.71	3637.36
605.906	3817.58
606.102	3602.55
606.298	3993.71
606.494	3887.22
606.69	4126.83
606.886	4305
607.082	4325.48
607.278	4413.54
607.474	4647.01
607.67	4816.99
607.866	4841.57
608.062	5054.56
608.257	5181.53
608.453	5167.2
608.649	5285.98
608.845	5503.06
609.041	5636.18
609.236	5896.27
609.432	5949.52
609.628	6285.39
609.824	6180.94
610.019	6258.76
610.215	6504.52
610.411	6950.98
610.606	7049.28
610.802	7186.49
610.998	7172.16
611.193	7663.67
611.389	7747.64
611.584	7876.66
611.78	7917.62
611.976	8237.1
612.171	8638.5
612.367	8894.5
612.562	9066.53
612.758	9177.12
612.953	9488.41
613.149	9791.51
613.344	10119.18
613.539	10190.86
613.735	10496.01
613.93	10711.05
614.126	10946.56
614.321	11495.42
614.517	11821.05
614.712	11919.35
614.907	12367.85
615.103	12550.12
615.298	12519.4
615.493	13377.5
615.688	13445.09
615.884	14008.28
616.079	13916.12
616.274	14739.4
616.47	14577.61
616.665	15257.54
616.86	15810.49
617.055	16093.11
617.25	16242.61
617.445	17229.73
617.641	16902.06
617.836	17792.92
618.031	17719.2
618.226	18835.34
618.421	18708.37
618.616	19634.05
618.811	19816.32
619.006	20574.06
619.201	20635.5
619.396	21004.14
619.591	21124.97
619.786	22310.74
619.981	22488.92
620.176	23117.64
620.371	23340.87
620.566	24012.6
620.761	24586.04
620.956	25069.36
621.151	24946.48
621.346	25696.03
621.541	26058.53
621.735	27041.55
621.93	27197.2
622.125	28010.24
622.32	28190.46
622.515	28673.78
622.709	29341.42
622.904	29695.72
623.099	30271.2
623.294	31069.9
623.488	31110.86
623.683	31964.87
623.878	32048.83
624.072	32798.39
624.267	32990.9
624.462	33752.74
624.656	33636.01
624.851	35100.31
625.046	35174.03
625.24	35737.23
625.435	35821.19
625.629	36746.87
625.824	37242.48
626.018	37639.79
626.213	37203.57
626.407	37672.56
626.602	38659.68
626.796	39280.21
626.991	39347.79
627.185	39700.04
627.38	40035.91
627.574	40201.8
627.768	40179.27
627.963	40287.81
628.157	40728.13
628.352	40672.83
628.546	40328.77
628.74	40816.19
628.935	40769.08
629.129	40560.19
629.323	40394.31
629.517	39999.05
629.712	40068.68
629.906	39882.31
630.1	38864.47
630.294	38962.78
630.489	38461.02
630.683	38164.07
630.877	37105.27
631.071	36546.17
631.265	36189.83
631.459	35333.78
631.653	34541.21
631.848	33816.23
632.042	32882.36
632.236	32040.64
632.43	31168.21
632.624	30789.33
632.818	29665
633.012	28458.74
633.206	27741.96
633.4	27223.82
633.594	25589.54
633.788	25095.98
633.982	24493.88
634.176	23392.07
634.369	22218.58
634.563	21813.09
634.757	20731.76
634.951	20318.07
635.145	19316.61
635.339	18747.28
635.533	17977.24
635.726	17235.88
635.92	16297.91
636.114	15701.95
636.308	14780.36
636.501	14604.24
636.695	13967.32
636.889	13377.5
637.083	12842.98
637.276	12214.26
637.47	11397.12
637.664	11343.87
637.857	10825.73
638.051	10389.52
638.244	9959.44
638.438	9625.62
638.632	9283.61
638.825	8615.98
639.019	8601.64
639.212	8144.94
639.406	7950.39
639.599	7366.71
639.793	7260.22
639.986	6869.06
640.18	6860.87
640.373	6357.07
640.567	6166.6
640.76	5982.29
640.954	5808.21
641.147	5478.49
641.34	5212.25
641.534	5154.91
641.727	5027.93
641.92	4739.17
642.114	4634.72
642.307	4464.74
642.5	4307.05
642.694	3885.17
642.887	3940.46
643.08	3790.96
643.273	3743.86
643.467	3485.81
643.66	3254.39
643.853	3149.95
644.046	3084.41
644.239	2955.39
644.432	2885.76
644.626	2748.54
644.819	2646.15
645.012	2556.04
645.205	2508.93
645.398	2533.51
645.591	2289.8
645.784	2089.1
645.977	2013.32
646.17	2085
646.363	1908.88
646.556	1841.29
646.749	1796.24
646.942	1777.81
647.135	1724.56
647.328	1597.59
647.521	1550.48
647.714	1523.86
647.907	1540.24
648.099	1228.95
648.292	1398.93
648.485	1321.11
648.678	1294.49
648.871	1142.94
649.064	1106.07
649.256	1065.11
649.449	938.14
649.642	960.67
649.835	968.86
650.027	934.04
650.22	960.67
650.413	948.38
650.605	897.18
650.798	845.98
650.991	852.13
651.183	690.34
651.376	749.73
651.568	794.78
651.761	682.14
651.954	671.9
652.146	700.58
652.339	729.25
652.531	688.29
652.724	555.17
652.916	606.37
653.109	422.05
653.301	604.32
653.494	659.62
653.686	497.83
653.879	559.27
654.071	561.31
654.263	458.92
654.456	442.53
654.648	473.25
654.84	420
655.033	399.52
655.225	467.11
655.417	354.47
655.61	489.64
655.802	481.44
655.994	428.2
656.186	233.64
656.379	463.01
656.571	293.03
656.763	323.75
656.955	301.22
657.148	432.29
657.34	434.34
657.532	313.51
657.724	325.8
657.916	313.51
658.108	405.67
658.3	299.17
658.492	336.04
658.684	190.63
658.876	315.56
659.068	293.03
659.26	184.49
659.452	190.63
659.644	323.75
659.836	311.46
660.028	295.08
660.22	268.45
660.412	235.69
660.604	239.78
660.796	241.83
660.988	313.51
661.18	272.55
661.372	305.32
661.563	161.96
661.755	266.41
661.947	127.14
662.139	196.78
662.331	151.72
662.522	260.26
662.714	168.1
662.906	118.95
663.097	293.03
663.289	143.53
663.481	67.75
663.673	215.21
663.864	176.3
664.056	202.92
664.247	14.51
664.439	377
664.631	223.4
664.822	280.74
665.014	196.78
665.205	123.05
665.397	186.54
665.588	135.34
665.78	149.67
665.971	194.73
666.163	145.58
666.354	188.58
666.546	221.35
666.737	137.38
666.929	213.16
667.12	149.67
667.311	194.73
667.503	121
667.694	243.88
667.885	217.26
668.077	166.06
668.268	67.75
668.459	106.67
668.651	188.58
668.842	184.49
669.033	139.43
669.224	41.13
669.416	250.02
669.607	137.38
669.798	137.38
669.989	233.64
670.18	164.01
670.371	231.59
670.563	86.19
670.754	293.03
670.945	161.96
671.136	235.69
671.327	164.01
671.518	284.84
671.709	194.73
671.9	176.3
672.091	254.12
672.282	123.05
672.473	245.93
672.664	178.34
672.855	137.38
673.046	213.16
673.237	229.54
673.428	129.19
673.619	231.59
673.809	176.3
674	286.89
674.191	252.07
674.382	131.24
674.573	204.97
674.764	176.3
674.954	284.84
675.145	204.97
675.336	186.54
675.527	188.58
675.717	159.91
675.908	233.64
676.099	241.83
676.289	192.68
676.48	139.43
676.671	174.25
676.861	182.44
677.052	254.12
677.243	141.48
677.433	151.72
677.624	301.22
677.814	233.64
678.005	250.02
678.195	290.98
678.386	266.41
678.576	125.1
678.767	194.73
678.957	180.39
679.148	331.94
679.338	329.89
679.529	247.97
679.719	164.01
679.909	282.79
680.1	366.76
680.29	295.08
680.481	202.92
680.671	290.98
680.861	247.97
681.052	254.12
681.242	241.83
681.432	336.04
681.622	286.89
681.813	123.05
682.003	182.44
682.193	260.26
682.383	229.54
682.573	274.6
682.764	233.64
682.954	278.69
683.144	329.89
683.334	243.88
683.524	321.7
683.714	346.28
683.904	321.7
684.094	211.11
684.284	313.51
684.474	360.61
684.664	399.52
684.854	290.98
685.044	313.51
685.234	362.66
685.424	290.98
685.614	270.5
685.804	481.44
685.994	329.89
686.184	301.22
686.374	299.17
686.564	299.17
686.753	403.62
686.943	219.3
687.133	217.26
687.323	272.55
687.513	346.28
687.702	315.56
687.892	299.17
688.082	372.9
688.272	401.57
688.461	391.33
688.651	434.34
688.841	323.75
689.03	336.04
689.22	295.08
689.41	338.09
689.599	374.95
689.789	219.3
689.979	426.15
690.168	344.23
690.358	346.28
690.547	354.47
690.737	344.23
690.926	276.65
691.116	356.52
691.305	356.52
691.495	327.85
691.684	288.93
691.874	276.65
692.063	266.41
692.252	323.75
692.442	364.71
692.631	301.22
692.82	338.09
693.01	299.17
693.199	336.04
693.388	303.27
693.578	352.42
693.767	399.52
693.956	307.37
694.146	276.65
694.335	280.74
694.524	221.35
694.713	381.09
694.902	297.13
695.092	254.12
695.281	323.75
695.47	149.67
695.659	184.49
695.848	262.31
696.037	217.26
696.226	356.52
696.415	325.8
696.604	387.24
696.793	266.41
696.982	323.75
697.171	426.15
697.36	295.08
697.549	254.12
697.738	207.02
697.927	200.87
698.116	188.58
698.305	264.36
698.494	270.5
698.683	245.93
698.872	387.24
699.061	276.65
699.25	225.45
699.438	372.9
699.627	174.25
699.816	288.93
700.005	198.82
700.193	194.73
700.382	325.8
700.571	317.61
700.76	245.93
700.948	280.74
701.137	299.17
701.326	352.42
701.514	290.98
701.703	346.28
701.892	305.32
702.08	424.1
702.269	260.26
702.457	239.78
702.646	284.84
702.834	276.65
703.023	315.56
703.212	280.74
703.4	237.74
703.589	172.2
703.777	200.87
703.965	221.35
704.154	186.54
704.342	258.21
704.531	254.12
704.719	278.69
704.907	290.98
705.096	180.39
705.284	157.86
705.472	213.16
705.661	217.26
705.849	391.33
706.037	372.9
706.226	305.32
706.414	274.6
706.602	258.21
706.79	317.61
706.979	223.4
707.167	237.74
707.355	108.71
707.543	288.93
707.731	303.27
707.919	270.5
708.107	243.88
708.296	272.55
708.484	168.1
708.672	338.09
708.86	252.07
709.048	256.17
709.236	172.2
709.424	231.59
709.612	331.94
709.8	147.62
709.988	200.87
710.176	338.09
710.364	278.69
710.551	237.74
710.739	288.93
710.927	262.31
711.115	268.45
711.303	333.99
711.491	325.8
711.679	239.78
711.866	295.08
712.054	221.35
712.242	256.17
712.43	403.62
712.617	204.97
712.805	315.56
712.993	301.22
713.181	161.96
713.368	313.51
713.556	288.93
713.744	260.26
713.931	420
714.119	227.5
714.306	157.86
714.494	225.45
714.682	301.22
714.869	186.54
715.057	293.03
715.244	219.3
715.432	303.27
715.619	186.54
715.807	264.36
715.994	280.74
716.182	250.02
716.369	360.61
716.556	258.21
716.744	190.63
716.931	217.26
717.119	348.33
717.306	186.54
717.493	325.8
717.681	258.21
717.868	172.2
718.055	323.75
718.242	278.69
718.43	370.85
718.617	356.52
718.804	180.39
718.991	299.17
719.179	333.99
719.366	309.41
719.553	262.31
719.74	299.17
719.927	311.46
720.114	348.33
720.301	198.82
720.488	280.74
720.676	262.31
720.863	393.38
721.05	463.01
721.237	338.09
721.424	342.18
721.611	321.7
721.798	215.21
721.985	274.6
722.172	342.18
722.358	274.6
722.545	360.61
722.732	340.13
722.919	333.99
723.106	413.86
723.293	258.21
723.48	317.61
723.667	333.99
723.853	370.85
724.04	383.14
724.227	352.42
724.414	358.57
724.6	381.09
724.787	381.09
724.974	440.48
725.161	295.08
725.347	190.63
725.534	280.74
725.72	385.19
725.907	368.81
726.094	434.34
726.28	278.69
726.467	262.31
726.653	274.6
726.84	436.39
727.027	452.77
727.213	319.65
727.4	409.76
727.586	366.76
727.773	403.62
727.959	336.04
728.145	336.04
728.332	331.94
728.518	344.23
728.705	385.19
728.891	358.57
729.077	350.37
729.264	299.17
729.45	229.54
729.636	446.63
729.823	336.04
730.009	344.23
730.195	403.62
730.382	399.52
730.568	272.55
730.754	340.13
730.94	258.21
731.126	469.16
731.313	389.28
731.499	395.43
731.685	481.44
731.871	368.81
732.057	385.19
732.243	374.95
732.429	377
732.615	477.35
732.801	405.67
732.987	352.42
733.173	362.66
733.359	258.21
733.545	420
733.731	358.57
733.917	501.92
734.103	450.72
734.289	307.37
734.475	311.46
734.661	530.59
734.847	393.38
735.033	340.13
735.219	483.49
735.404	393.38
735.59	319.65
735.776	381.09
735.962	362.66
736.148	481.44
736.333	460.96
736.519	440.48
736.705	368.81
736.89	442.53
737.076	393.38
737.262	325.8
737.447	329.89
737.633	336.04
737.819	442.53
738.004	430.24
738.19	352.42
738.375	442.53
738.561	424.1
738.747	385.19
738.932	321.7
739.118	542.88
739.303	473.25
739.489	442.53
739.674	372.9
739.859	338.09
740.045	420
740.23	391.33
740.416	241.83
740.601	422.05
740.786	409.76
740.972	403.62
741.157	354.47
741.342	288.93
741.528	336.04
741.713	438.44
741.898	436.39
742.084	432.29
742.269	407.72
742.454	442.53
742.639	536.74
742.824	440.48
743.01	526.5
743.195	522.4
743.38	381.09
743.565	409.76
743.75	444.58
743.935	426.15
744.12	442.53
744.305	309.41
744.49	254.12
744.675	362.66
744.86	377
745.045	415.91
745.23	366.76
745.415	331.94
745.6	436.39
745.785	336.04
745.97	420
746.155	481.44
746.34	377
746.525	444.58
746.71	454.82
746.895	303.27
747.079	264.36
747.264	344.23
747.449	428.2
747.634	420
747.819	368.81
748.003	323.75
748.188	260.26
748.373	407.72
748.557	452.77
748.742	377
748.927	397.48
749.111	366.76
749.296	377
749.481	407.72
749.665	383.14
749.85	311.46
750.034	362.66
750.219	426.15
750.404	280.74
750.588	317.61
750.773	348.33
750.957	354.47
751.141	284.84
751.326	379.04
751.51	227.5
751.695	293.03
751.879	266.41
752.064	422.05
752.248	303.27
752.432	405.67
752.617	379.04
752.801	381.09
752.985	258.21
753.17	346.28
753.354	342.18
753.538	280.74
753.722	209.06
753.907	366.76
754.091	260.26
754.275	295.08
754.459	198.82
754.643	299.17
754.828	307.37
755.012	303.27
755.196	188.58
755.38	247.97
755.564	288.93
755.748	239.78
755.932	239.78
756.116	342.18
756.3	348.33
756.484	194.73
756.668	407.72
756.852	143.53
757.036	284.84
757.22	276.65
757.404	108.71
757.588	221.35
757.772	231.59
757.956	282.79
758.14	374.95
758.323	194.73
758.507	245.93
758.691	188.58
758.875	323.75
759.059	295.08
759.242	209.06
759.426	194.73
759.61	247.97
759.794	215.21
759.977	282.79
760.161	485.54
760.345	356.52
760.528	315.56
760.712	237.74
760.895	303.27
761.079	190.63
761.263	166.06
761.446	172.2
761.63	252.07
761.813	280.74
761.997	170.15
762.18	176.3
762.364	237.74
762.547	112.81
762.731	178.34
762.914	200.87
763.098	225.45
763.281	200.87
763.464	184.49
763.648	198.82
763.831	129.19
764.015	198.82
764.198	254.12
764.381	155.82
764.564	239.78
764.748	207.02
764.931	200.87
765.114	176.3
765.297	295.08
765.481	166.06
765.664	112.81
765.847	168.1
766.03	288.93
766.213	151.72
766.397	129.19
766.58	118.95
766.763	231.59
766.946	129.19
767.129	184.49
767.312	121
767.495	135.34
767.678	141.48
767.861	194.73
768.044	180.39
768.227	176.3
768.41	237.74
768.593	184.49
768.776	225.45
768.959	149.67
769.142	229.54
769.324	102.57
769.507	145.58
769.69	157.86
769.873	174.25
770.056	288.93
770.239	168.1
770.421	147.62
770.604	233.64
770.787	135.34
770.97	174.25
771.152	139.43
771.335	194.73
771.518	88.23
771.7	231.59
771.883	192.68
772.066	86.19
772.248	159.91
772.431	180.39
772.613	190.63
772.796	153.77
772.978	157.86
773.161	256.17
773.343	104.62
773.526	127.14
773.708	90.28
773.891	96.43
774.073	131.24
774.256	98.47
774.438	284.84
774.621	75.95
774.803	137.38
774.985	90.28
775.168	168.1
775.35	59.56
775.532	137.38
775.715	45.23
775.897	168.1
776.079	22.7
776.261	110.76
776.444	168.1
776.626	92.33
776.808	18.6
776.99	6.31
777.173	114.86
777.355	84.14
777.537	82.09
777.719	145.58
777.901	98.47
778.083	92.33
778.265	34.99
778.447	116.9
778.629	10.41
778.811	114.86
778.993	159.91
779.175	118.95
779.357	104.62
779.539	20.65
779.721	121
779.903	147.62
780.085	69.8
780.267	127.14
780.449	47.27
780.631	129.19
780.812	170.15
780.994	53.42
781.176	75.95
781.358	94.38
781.54	75.95
781.721	108.71
781.903	172.2
782.085	-24.4
782.267	129.19
782.448	4.27
782.63	157.86
782.812	67.75
782.993	106.67
783.175	98.47
783.357	86.19
783.538	104.62
783.72	63.66
783.901	172.2
784.083	67.75
784.264	57.51
784.446	6.31
784.627	133.29
784.809	98.47
784.99	53.42
785.172	100.52
785.353	90.28
785.535	153.77
785.716	98.47
785.897	108.71
786.079	84.14
786.26	65.71
786.441	112.81
786.623	-8.02
786.804	45.23
786.985	55.47
787.167	63.66
787.348	88.23
787.529	0.17
787.71	229.54
787.891	92.33
788.073	6.31
788.254	-44.88
788.435	233.64
788.616	4.27
788.797	47.27
788.978	112.81
789.159	6.31
789.34	170.15
789.522	14.51
789.703	0.17
789.884	41.13
790.065	53.42
790.246	198.82
790.427	47.27
790.607	182.44
790.788	98.47
790.969	-30.55
791.15	121
791.331	55.47
791.512	8.36
791.693	-32.6
791.874	49.32
792.054	225.45
792.235	63.66
792.416	4.27
792.597	28.84
792.778	84.14
792.958	47.27
793.139	98.47
793.32	37.03
793.5	-12.12
793.681	84.14
793.862	43.18
794.042	51.37
794.223	-91.99
794.404	-28.5
794.584	-14.17
794.765	65.71
794.945	155.82
795.126	57.51
795.306	102.57
795.487	0.17
795.667	116.9
795.848	96.43
796.028	61.61
796.209	51.37
796.389	176.3
796.57	77.99
796.75	20.65
796.93	-38.74
797.111	20.65
797.291	18.6
797.471	6.31
797.652	-3.93
797.832	59.56
798.012	57.51
798.192	102.57
798.373	-5.97
798.553	-67.41
798.733	131.24
798.913	-14.17
799.093	26.79
799.274	-5.97
799.454	67.75
799.634	139.43
799.814	24.75
799.994	-8.02
800.174	30.89
800.354	22.7
800.534	12.46
800.714	77.99
800.894	6.31
801.074	-3.93
801.254	16.55
801.434	69.8
801.614	18.6
801.794	-38.74
801.974	1765.52
802.154	24.75
802.334	102.57
802.514	-55.12
802.693	96.43
802.873	6.31
803.053	145.58
803.233	118.95
803.413	6.31
803.592	-106.32
803.772	-63.32
803.952	84.14
804.131	-36.69
804.311	92.33
804.491	131.24
804.67	-28.5
804.85	-34.64
805.03	63.66
805.209	139.43
805.389	-40.79
805.568	39.08
805.748	30.89
805.928	2.22
806.107	73.9
806.287	125.1
806.466	0.17
806.646	73.9
806.825	-48.98
807.004	61.61
807.184	51.37
807.363	131.24
807.543	98.47
807.722	24.75
807.901	106.67
808.081	53.42
808.26	-38.74
808.439	63.66
808.619	24.75
808.798	-48.98
808.977	94.38
809.156	61.61
809.336	143.53
809.515	73.9
809.694	-116.56
809.873	18.6
810.052	94.38
810.231	94.38
810.411	-8.02
810.59	63.66
810.769	-36.69
810.948	82.09
811.127	-75.6
811.306	-44.88
811.485	75.95
811.664	153.77
811.843	118.95
812.022	59.56
812.201	-8.02
812.38	-69.46
812.559	-16.21
812.737	30.89
812.916	-73.56
813.095	-12.12
813.274	77.99
813.453	55.47
813.632	34.99
813.811	147.62
813.989	-51.03
814.168	2.22
814.347	-108.37
814.526	-38.74
814.704	123.05
814.883	77.99
815.062	-10.07
815.24	135.34
815.419	28.84
815.598	-32.6
815.776	-116.56
815.955	-26.45
816.133	-102.23
816.312	4.27
816.49	-26.45
816.669	20.65
816.847	2.22
817.026	88.23
817.204	2.22
817.383	-8.02
817.561	-44.88
817.74	100.52
817.918	51.37
818.097	-46.93
818.275	-51.03
818.453	65.71
818.632	123.05
818.81	-18.26
818.988	-59.22
819.167	45.23
819.345	-87.89
819.523	-42.84
819.701	24.75
819.879	26.79
820.058	18.6
820.236	86.19
820.414	32.94
820.592	-69.46
820.77	20.65
820.948	-10.07
821.127	-24.4
821.305	-30.55
821.483	-32.6
821.661	51.37
821.839	-83.8
822.017	-8.02
822.195	-100.18
822.373	75.95
822.551	92.33
822.729	69.8
822.907	-48.98
823.085	92.33
823.262	43.18
823.44	10.41
823.618	49.32
823.796	59.56
823.974	0.17
824.152	28.84
824.329	-28.5
824.507	-20.31
824.685	47.27
824.863	63.66
825.04	-48.98
825.218	84.14
825.396	55.47
825.574	116.9
825.751	10.41
825.929	110.76
826.107	8.36
826.284	-8.02
826.462	86.19
826.639	-3.93
826.817	0.17
826.994	32.94
827.172	-5.97
827.349	100.52
827.527	41.13
827.704	16.55
827.882	82.09
828.059	53.42
828.237	-28.5
828.414	82.09
828.591	-83.8
828.769	-16.21
828.946	-57.17
829.124	80.04
829.301	110.76
829.478	65.71
829.655	43.18
829.833	-16.21
830.01	-98.13
830.187	49.32
830.364	-5.97
830.542	8.36
830.719	135.34
830.896	30.89
831.073	32.94
831.25	84.14
831.427	75.95
831.604	14.51
831.782	-22.36
831.959	127.14
832.136	-22.36
832.313	112.81
832.49	-20.31
832.667	0.17
832.844	-91.99
833.021	59.56
833.198	-16.21
833.374	20.65
833.551	108.71
833.728	-67.41
833.905	65.71
834.082	-110.42
834.259	34.99
834.436	80.04
834.612	-40.79
834.789	18.6
834.966	-1.88
835.143	26.79
835.319	-20.31
835.496	73.9
835.673	-28.5
835.85	90.28
836.026	43.18
836.203	110.76
836.38	-51.03
836.556	-34.64
836.733	18.6
836.909	112.81
837.086	-61.27
837.262	-22.36
837.439	96.43
837.616	-112.47
837.792	-38.74
837.968	37.03
838.145	-135
838.321	-26.45
838.498	96.43
838.674	73.9
838.851	47.27
839.027	37.03
839.203	-26.45
839.38	41.13
839.556	-51.03
839.732	47.27
839.909	-36.69
840.085	14.51
840.261	-81.75
840.437	-3.93
840.614	-26.45
840.79	96.43
840.966	51.37
841.142	61.61
841.318	-16.21
841.494	65.71
841.671	53.42
841.847	-55.12
842.023	-42.84
842.199	104.62
842.375	84.14
842.551	-137.04
842.727	-26.45
842.903	84.14
843.079	-30.55
843.255	106.67
843.431	108.71
843.607	55.47
843.783	-67.41
843.959	16.55
844.134	-69.46
844.31	100.52
844.486	-69.46
844.662	-42.84
844.838	-28.5
845.013	28.84
845.189	47.27
845.365	59.56
845.541	67.75
845.716	-32.6
845.892	110.76
846.068	-10.07
846.244	6.31
846.419	24.75
846.595	-28.5
846.77	-79.7
846.946	90.28
847.122	-30.55
847.297	12.46
847.473	108.71
847.648	-77.65
847.824	20.65
847.999	-135
848.175	-63.32
848.35	65.71
848.526	102.57
848.701	51.37
848.876	88.23
849.052	53.42
849.227	-1.88
849.403	-12.12
849.578	6.31
849.753	22.7
849.929	65.71
850.104	-55.12
850.279	-34.64
850.454	6.31
850.63	-24.4
850.805	-5.97
850.98	-24.4
851.155	-20.31
851.33	57.51
851.505	-59.22
851.681	41.13
851.856	-63.32
852.031	18.6
852.206	30.89
852.381	8.36
852.556	-71.51
852.731	118.95
852.906	63.66
853.081	10.41
853.256	166.06
853.431	-98.13
853.606	-48.98
853.781	-36.69
853.956	-175.95
854.131	37.03
854.305	-8.02
854.48	-5.97
854.655	-16.21
854.83	-67.41
855.005	30.89
855.18	-30.55
855.354	-10.07
855.529	26.79
855.704	-51.03
855.879	51.37
856.053	-48.98
856.228	8.36
856.403	-46.93
856.577	131.24
856.752	-135
856.926	-5.97
857.101	2.22
857.276	-34.64
857.45	28.84
857.625	65.71
857.799	2.22
857.974	0.17
858.148	-130.9
858.323	28.84
858.497	8.36
858.672	37.03
858.846	-42.84
859.02	37.03
859.195	-91.99
859.369	-65.36
859.543	0.17
859.718	-14.17
859.892	77.99
860.066	45.23
860.241	-24.4
860.415	-51.03
860.589	-18.26
860.763	-28.5
860.938	-46.93
861.112	10.41
861.286	69.8
861.46	75.95
861.634	-46.93
861.808	94.38
861.982	-8.02
862.157	-65.36
862.331	2.22
862.505	-153.43
862.679	-118.61
862.853	-75.6
863.027	12.46
863.201	174.25
863.375	-12.12
863.549	45.23
863.722	20.65
863.896	143.53
864.07	-16.21
864.244	-10.07
864.418	39.08
864.592	8.36
864.766	16.55
864.939	34.99
865.113	20.65
865.287	86.19
865.461	-69.46
865.634	53.42
865.808	2.22
865.982	-32.6
866.156	43.18
866.329	-87.89
866.503	16.55
866.676	127.14
866.85	49.32
867.024	-38.74
867.197	32.94
867.371	-3.93
867.544	59.56
867.718	-87.89
867.891	69.8
868.065	-53.08
868.238	-40.79
868.412	145.58
868.585	-53.08
868.759	-44.88
868.932	-14.17
869.105	-100.18
869.279	-18.26
869.452	-89.94
869.625	45.23
869.799	-1.88
869.972	-108.37
870.145	-75.6
870.319	51.37
870.492	-40.79
870.665	0.17
870.838	-55.12
871.011	-98.13
871.185	-24.4
871.358	-5.97
871.531	2.22
871.704	14.51
871.877	-10.07
872.05	-28.5
872.223	-38.74
872.396	12.46
872.569	14.51
872.742	-159.57
872.915	39.08
873.088	-44.88
873.261	-94.04
873.434	71.85
873.607	-12.12
873.78	53.42
873.953	-65.36
874.126	-24.4
874.299	53.42
874.471	-1.88
874.644	10.41
874.817	69.8
874.99	65.71
875.163	-44.88
875.335	-3.93
875.508	12.46
875.681	114.86
875.853	-102.23
876.026	-14.17
876.199	75.95
876.371	-28.5
876.544	-36.69
876.717	41.13
876.889	-67.41
877.062	-36.69
877.234	-28.5
877.407	-53.08
877.579	-3.93
877.752	8.36
877.924	71.85
878.097	6.31
878.269	-16.21
878.442	26.79
878.614	102.57
878.786	20.65
878.959	43.18
879.131	12.46
879.303	-85.84
879.476	-65.36
879.648	125.1
879.82	8.36
879.993	-22.36
880.165	-44.88
880.337	-73.56
880.509	26.79
880.681	-61.27
880.854	-53.08
881.026	14.51
881.198	104.62
881.37	41.13
881.542	10.41
881.714	-34.64
881.886	18.6
882.058	-30.55
882.23	28.84
882.402	-34.64
882.574	26.79
882.746	8.36
882.918	59.56
883.09	131.24
883.262	-55.12
883.434	77.99
883.606	-102.23
883.778	-1.88
883.95	133.29
884.122	-1.88
884.293	39.08
884.465	8.36
884.637	94.38
884.809	-40.79
884.98	53.42
885.152	34.99
885.324	34.99
885.496	47.27
885.667	-20.31
885.839	-102.23
886.011	73.9
886.182	65.71
886.354	71.85
886.525	55.47
886.697	12.46
886.869	-59.22
887.04	20.65
887.212	170.15
887.383	41.13
887.555	6.31
887.726	-51.03
887.897	-42.84
888.069	28.84
888.24	34.99
888.412	-61.27
888.583	53.42
888.754	-18.26
888.926	-126.8
889.097	82.09
889.268	-102.23
889.44	16.55
889.611	-30.55
889.782	-18.26
889.953	-106.32
890.125	157.86
890.296	-46.93
890.467	-77.65
890.638	-81.75
890.809	6.31
890.98	20.65
891.151	-5.97
891.323	84.14
891.494	-12.12
891.665	-44.88
891.836	-3.93
892.007	-14.17
892.178	20.65
892.349	49.32
892.52	-34.64
892.691	57.51
892.862	-24.4
893.032	-151.38
893.203	-91.99
893.374	-110.42
893.545	127.14
893.716	-44.88
893.887	73.9
894.057	-26.45
894.228	-51.03
894.399	-89.94
894.57	131.24
894.74	-34.64
894.911	53.42
895.082	-14.17
895.253	-106.32
895.423	26.79
895.594	0.17
895.764	-18.26
895.935	-83.8
896.106	26.79
896.276	-59.22
896.447	6.31
896.617	-71.51
896.788	-65.36
896.958	-46.93
897.129	-34.64
897.299	-85.84
897.47	137.38
897.64	43.18
897.81	10.41
897.981	-5.97
898.151	-91.99
898.322	37.03
898.492	32.94
898.662	-96.08
898.832	-40.79
899.003	-30.55
899.173	-14.17
899.343	-5.97
899.513	-91.99
