Data from USB4F104151__15__11-24-29-507.txt Node

Date: Wed Feb 26 11:24:29 EST 2025
User: louis
Spectrometer: USB4F10415
Trigger mode: 4
Integration Time (sec): 1.000000E-1
Scans to average: 1
Electric dark correction enabled: true
Nonlinearity correction enabled: false
Boxcar width: 0
XAxis mode: Wavelengths
Number of Pixels in Spectrum: 3648
>>>>>Begin Spectral Data<<<<<
178.204	-422.05
178.424	-422.05
178.644	-422.05
178.864	-348.33
179.084	-409.76
179.304	24.4
179.524	-104.62
179.744	48.98
179.964	51.03
180.184	-39.08
180.404	85.84
180.624	-30.89
180.844	-0.17
181.064	-61.61
181.283	77.65
181.503	-59.56
181.723	8.02
181.943	-59.56
182.163	278.35
182.383	-26.79
182.602	32.6
182.822	188.24
183.042	96.08
183.262	-30.89
183.482	3.93
183.701	26.45
183.921	24.4
184.141	10.07
184.361	40.79
184.58	42.84
184.8	20.31
185.02	91.99
185.239	126.8
185.459	36.69
185.679	116.56
185.898	-88.23
186.118	65.36
186.338	102.23
186.557	116.56
186.777	-82.09
186.997	24.4
187.216	14.17
187.436	200.53
187.655	108.37
187.875	65.36
188.095	61.27
188.314	157.52
188.534	100.18
188.753	-4.27
188.973	214.87
189.192	192.34
189.412	20.31
189.631	-0.17
189.851	57.17
190.07	106.32
190.29	-30.89
190.509	-69.8
190.729	77.65
190.948	173.91
191.168	235.35
191.387	63.32
191.607	132.95
191.826	145.24
192.045	79.7
192.265	75.6
192.484	71.51
192.704	-90.28
192.923	57.17
193.142	165.71
193.362	145.24
193.581	190.29
193.8	139.09
194.02	139.09
194.239	89.94
194.458	161.62
194.678	8.02
194.897	46.93
195.116	63.32
195.335	-8.36
195.555	79.7
195.774	104.28
195.993	135
196.212	28.5
196.432	55.12
196.651	-6.31
196.87	98.13
197.089	264.02
197.308	30.55
197.528	100.18
197.747	-18.6
197.966	32.6
198.185	157.52
198.404	5.97
198.623	135
198.842	71.51
199.062	104.28
199.281	155.47
199.5	141.14
199.719	59.22
199.938	46.93
200.157	73.56
200.376	75.6
200.595	180.05
200.814	14.17
201.033	63.32
201.252	114.52
201.471	153.43
201.69	118.61
201.909	10.07
202.128	130.9
202.347	143.19
202.566	59.22
202.785	-77.99
203.004	-10.41
203.223	339.79
203.442	-24.75
203.661	-67.75
203.879	143.19
204.098	106.32
204.317	38.74
204.536	48.98
204.755	120.66
204.974	141.14
205.193	48.98
205.411	165.71
205.63	108.37
205.849	79.7
206.068	116.56
206.287	-6.31
206.505	188.24
206.724	91.99
206.943	-63.66
207.162	-2.22
207.381	36.69
207.599	32.6
207.818	34.64
208.037	-41.13
208.255	63.32
208.474	118.61
208.693	44.88
208.911	34.64
209.13	120.66
209.349	83.8
209.567	77.65
209.786	81.75
210.005	165.71
210.223	108.37
210.442	-26.79
210.661	65.36
210.879	59.22
211.098	36.69
211.316	10.07
211.535	122.71
211.753	-2.22
211.972	77.65
212.191	32.6
212.409	48.98
212.628	94.04
212.846	79.7
213.065	61.27
213.283	155.47
213.502	100.18
213.72	59.22
213.938	67.41
214.157	55.12
214.375	22.36
214.594	51.03
214.812	89.94
215.031	30.55
215.249	87.89
215.467	108.37
215.686	-34.99
215.904	65.36
216.122	59.22
216.341	178
216.559	81.75
216.778	83.8
216.996	151.38
217.214	57.17
217.432	18.26
217.651	-22.7
217.869	94.04
218.087	59.22
218.306	24.4
218.524	108.37
218.742	26.45
218.96	96.08
219.179	-24.75
219.397	40.79
219.615	229.2
219.833	83.8
220.051	-28.84
220.27	145.24
220.488	161.62
220.706	83.8
220.924	1.88
221.142	-2.22
221.36	44.88
221.578	85.84
221.796	-30.89
222.015	81.75
222.233	3.93
222.451	114.52
222.669	-8.36
222.887	46.93
223.105	71.51
223.323	-37.03
223.541	-20.65
223.759	65.36
223.977	59.22
224.195	214.87
224.413	96.08
224.631	116.56
224.849	94.04
225.067	276.31
225.285	-28.84
225.503	42.84
225.721	-88.23
225.939	69.46
226.157	46.93
226.375	210.77
226.592	-16.55
226.81	12.12
227.028	167.76
227.246	204.63
227.464	104.28
227.682	85.84
227.9	10.07
228.117	98.13
228.335	-22.7
228.553	36.69
228.771	12.12
228.989	59.22
229.206	135
229.424	-73.9
229.642	55.12
229.86	5.97
230.077	165.71
230.295	30.55
230.513	153.43
230.731	108.37
230.948	218.96
231.166	190.29
231.384	53.08
231.601	38.74
231.819	216.91
232.037	-18.6
232.254	-51.37
232.472	61.27
232.689	32.6
232.907	114.52
233.125	1.88
233.342	28.5
233.56	-55.47
233.777	46.93
233.995	34.64
234.213	106.32
234.43	28.5
234.648	94.04
234.865	51.03
235.083	81.75
235.3	55.12
235.518	28.5
235.735	120.66
235.953	51.03
236.17	124.76
236.388	94.04
236.605	59.22
236.822	132.95
237.04	116.56
237.257	14.17
237.475	32.6
237.692	100.18
237.909	85.84
238.127	44.88
238.344	141.14
238.562	73.56
238.779	24.4
238.996	-94.38
239.214	81.75
239.431	190.29
239.648	106.32
239.865	126.8
240.083	173.91
240.3	-84.14
240.517	18.26
240.735	51.03
240.952	137.04
241.169	87.89
241.386	59.22
241.603	145.24
241.821	-20.65
242.038	59.22
242.255	192.34
242.472	-0.17
242.689	51.03
242.907	139.09
243.124	73.56
243.341	8.02
243.558	-73.9
243.775	-32.94
243.992	-12.46
244.209	151.38
244.426	149.33
244.643	42.84
244.86	30.55
245.078	96.08
245.295	112.47
245.512	51.03
245.729	149.33
245.946	81.75
246.163	73.56
246.38	71.51
246.597	63.32
246.814	28.5
247.031	85.84
247.248	36.69
247.464	114.52
247.681	63.32
247.898	128.85
248.115	102.23
248.332	34.64
248.549	149.33
248.766	188.24
248.983	173.91
249.2	178
249.417	130.9
249.633	18.26
249.85	141.14
250.067	100.18
250.284	46.93
250.501	81.75
250.717	114.52
250.934	-12.46
251.151	77.65
251.368	81.75
251.585	67.41
251.801	75.6
252.018	-37.03
252.235	175.95
252.451	-37.03
252.668	57.17
252.885	102.23
253.102	40.79
253.318	26.45
253.535	-0.17
253.752	16.21
253.968	100.18
254.185	-16.55
254.401	10.07
254.618	46.93
254.835	48.98
255.051	120.66
255.268	40.79
255.484	65.36
255.701	-30.89
255.917	85.84
256.134	-22.7
256.351	112.47
256.567	-10.41
256.784	114.52
257	87.89
257.217	159.57
257.433	137.04
257.65	116.56
257.866	102.23
258.082	-30.89
258.299	-71.85
258.515	61.27
258.732	120.66
258.948	10.07
259.165	46.93
259.381	16.21
259.597	173.91
259.814	57.17
260.03	75.6
260.246	-16.55
260.463	186.19
260.679	161.62
260.895	48.98
261.112	38.74
261.328	44.88
261.544	20.31
261.761	175.95
261.977	-86.19
262.193	-24.75
262.409	65.36
262.626	122.71
262.842	153.43
263.058	65.36
263.274	128.85
263.49	42.84
263.707	110.42
263.923	104.28
264.139	-45.23
264.355	5.97
264.571	137.04
264.787	77.65
265.004	106.32
265.22	18.26
265.436	-22.7
265.652	122.71
265.868	104.28
266.084	1.88
266.3	53.08
266.516	-18.6
266.732	71.51
266.948	46.93
267.164	22.36
267.38	153.43
267.596	5.97
267.812	225.11
268.028	104.28
268.244	-4.27
268.46	94.04
268.676	10.07
268.892	55.12
269.108	-8.36
269.324	40.79
269.54	-16.55
269.756	132.95
269.972	-61.61
270.188	40.79
270.403	34.64
270.619	-20.65
270.835	114.52
271.051	40.79
271.267	34.64
271.483	3.93
271.698	135
271.914	94.04
272.13	40.79
272.346	12.12
272.562	153.43
272.777	190.29
272.993	46.93
273.209	-39.08
273.425	120.66
273.64	-10.41
273.856	128.85
274.072	5.97
274.287	-22.7
274.503	108.37
274.719	108.37
274.934	59.22
275.15	-75.95
275.366	32.6
275.581	16.21
275.797	-8.36
276.012	53.08
276.228	-18.6
276.444	79.7
276.659	128.85
276.875	-16.55
277.09	-4.27
277.306	-47.27
277.521	104.28
277.737	63.32
277.952	57.17
278.168	94.04
278.383	94.04
278.599	67.41
278.814	132.95
279.03	5.97
279.245	194.39
279.461	59.22
279.676	151.38
279.892	-34.99
280.107	-20.65
280.322	-51.37
280.538	34.64
280.753	10.07
280.969	5.97
281.184	26.45
281.399	223.06
281.615	116.56
281.83	89.94
282.045	-67.75
282.26	14.17
282.476	-22.7
282.691	135
282.906	55.12
283.122	89.94
283.337	-32.94
283.552	108.37
283.767	-18.6
283.983	75.6
284.198	30.55
284.413	153.43
284.628	-59.56
284.843	135
285.058	126.8
285.274	44.88
285.489	18.26
285.704	118.61
285.919	-18.6
286.134	61.27
286.349	53.08
286.564	-0.17
286.779	202.58
286.995	32.6
287.21	-49.32
287.425	59.22
287.64	63.32
287.855	104.28
288.07	-34.99
288.285	116.56
288.5	143.19
288.715	28.5
288.93	-18.6
289.145	-14.51
289.36	122.71
289.575	81.75
289.79	122.71
290.004	-12.46
290.219	149.33
290.434	-6.31
290.649	26.45
290.864	81.75
291.079	3.93
291.294	40.79
291.509	65.36
291.724	106.32
291.938	59.22
292.153	102.23
292.368	12.12
292.583	96.08
292.798	139.09
293.012	73.56
293.227	14.17
293.442	-14.51
293.657	122.71
293.871	169.81
294.086	110.42
294.301	124.76
294.516	194.39
294.73	96.08
294.945	75.6
295.16	83.8
295.374	200.53
295.589	155.47
295.804	-14.51
296.018	81.75
296.233	100.18
296.447	157.52
296.662	-22.7
296.877	155.47
297.091	151.38
297.306	57.17
297.52	89.94
297.735	36.69
297.949	14.17
298.164	-0.17
298.378	57.17
298.593	-8.36
298.807	20.31
299.022	55.12
299.236	94.04
299.451	81.75
299.665	77.65
299.88	120.66
300.094	161.62
300.309	153.43
300.523	8.02
300.737	10.07
300.952	67.41
301.166	81.75
301.381	28.5
301.595	32.6
301.809	53.08
302.024	55.12
302.238	18.26
302.452	116.56
302.667	114.52
302.881	116.56
303.095	36.69
303.309	98.13
303.524	67.41
303.738	-16.55
303.952	18.26
304.166	53.08
304.381	-30.89
304.595	135
304.809	63.32
305.023	94.04
305.237	20.31
305.452	57.17
305.666	87.89
305.88	151.38
306.094	132.95
306.308	12.12
306.522	71.51
306.736	100.18
306.95	106.32
307.164	137.04
307.379	89.94
307.593	141.14
307.807	153.43
308.021	161.62
308.235	171.86
308.449	-28.84
308.663	112.47
308.877	282.45
309.091	102.23
309.305	55.12
309.519	-84.14
309.733	94.04
309.947	-59.56
310.161	42.84
310.374	173.91
310.588	116.56
310.802	32.6
311.016	14.17
311.23	-6.31
311.444	-4.27
311.658	40.79
311.872	100.18
312.085	124.76
312.299	122.71
312.513	83.8
312.727	112.47
312.941	3.93
313.154	-4.27
313.368	151.38
313.582	32.6
313.796	153.43
314.009	3.93
314.223	102.23
314.437	-0.17
314.651	163.67
314.864	-8.36
315.078	67.41
315.292	-28.84
315.505	-22.7
315.719	102.23
315.933	89.94
316.146	3.93
316.36	-47.27
316.573	87.89
316.787	91.99
317.001	71.51
317.214	12.12
317.428	75.6
317.641	-57.51
317.855	-8.36
318.068	28.5
318.282	85.84
318.495	175.95
318.709	139.09
318.922	-18.6
319.136	126.8
319.349	182.1
319.563	57.17
319.776	102.23
319.99	-49.32
320.203	192.34
320.417	57.17
320.63	145.24
320.843	200.53
321.057	106.32
321.27	118.61
321.483	87.89
321.697	106.32
321.91	30.55
322.124	65.36
322.337	89.94
322.55	57.17
322.763	-0.17
322.977	-14.51
323.19	10.07
323.403	59.22
323.617	73.56
323.83	145.24
324.043	30.55
324.256	81.75
324.469	-53.42
324.683	110.42
324.896	96.08
325.109	75.6
325.322	-94.38
325.535	135
325.748	139.09
325.962	67.41
326.175	104.28
326.388	59.22
326.601	159.57
326.814	12.12
327.027	114.52
327.24	264.02
327.453	-100.52
327.666	30.55
327.879	141.14
328.092	128.85
328.305	57.17
328.518	3.93
328.731	24.4
328.944	10.07
329.157	91.99
329.37	40.79
329.583	190.29
329.796	178
330.009	-45.23
330.222	87.89
330.435	102.23
330.648	34.64
330.861	91.99
331.073	77.65
331.286	104.28
331.499	85.84
331.712	12.12
331.925	51.03
332.138	151.38
332.35	159.57
332.563	-32.94
332.776	175.95
332.989	10.07
333.202	42.84
333.414	20.31
333.627	83.8
333.84	3.93
334.053	71.51
334.265	83.8
334.478	55.12
334.691	61.27
334.903	59.22
335.116	26.45
335.329	53.08
335.541	135
335.754	175.95
335.966	3.93
336.179	116.56
336.392	69.46
336.604	42.84
336.817	120.66
337.029	100.18
337.242	32.6
337.454	110.42
337.667	67.41
337.88	151.38
338.092	153.43
338.305	106.32
338.517	53.08
338.729	20.31
338.942	100.18
339.154	63.32
339.367	-24.75
339.579	157.52
339.792	-45.23
340.004	48.98
340.217	114.52
340.429	-12.46
340.641	-24.75
340.854	-34.99
341.066	44.88
341.278	67.41
341.491	73.56
341.703	94.04
341.915	32.6
342.128	135
342.34	53.08
342.552	53.08
342.764	-12.46
342.977	34.64
343.189	63.32
343.401	-10.41
343.613	51.03
343.826	87.89
344.038	-41.13
344.25	163.67
344.462	42.84
344.674	89.94
344.886	75.6
345.099	65.36
345.311	69.46
345.523	32.6
345.735	-69.8
345.947	10.07
346.159	116.56
346.371	91.99
346.583	75.6
346.795	237.39
347.007	42.84
347.219	16.21
347.431	46.93
347.643	108.37
347.855	10.07
348.067	114.52
348.279	-22.7
348.491	63.32
348.703	128.85
348.915	73.56
349.127	-39.08
349.339	8.02
349.551	14.17
349.763	161.62
349.975	24.4
350.187	42.84
350.399	210.77
350.61	132.95
350.822	36.69
351.034	46.93
351.246	130.9
351.458	100.18
351.669	96.08
351.881	153.43
352.093	167.76
352.305	137.04
352.517	124.76
352.728	157.52
352.94	36.69
353.152	135
353.363	-30.89
353.575	163.67
353.787	180.05
353.999	-4.27
354.21	216.91
354.422	51.03
354.633	-16.55
354.845	61.27
355.057	71.51
355.268	53.08
355.48	75.6
355.692	-59.56
355.903	20.31
356.115	-14.51
356.326	-47.27
356.538	122.71
356.749	106.32
356.961	128.85
357.172	1.88
357.384	-2.22
357.595	210.77
357.807	28.5
358.018	40.79
358.23	8.02
358.441	210.77
358.653	173.91
358.864	77.65
359.075	34.64
359.287	116.56
359.498	145.24
359.709	-10.41
359.921	20.31
360.132	96.08
360.344	67.41
360.555	-2.22
360.766	184.15
360.977	114.52
361.189	114.52
361.4	30.55
361.611	149.33
361.823	118.61
362.034	59.22
362.245	-67.75
362.456	44.88
362.667	118.61
362.879	-45.23
363.09	132.95
363.301	67.41
363.512	-2.22
363.723	16.21
363.935	8.02
364.146	141.14
364.357	-10.41
364.568	75.6
364.779	-53.42
364.99	139.09
365.201	-84.14
365.412	141.14
365.623	-41.13
365.834	91.99
366.045	12.12
366.256	112.47
366.467	69.46
366.678	59.22
366.889	20.31
367.1	48.98
367.311	100.18
367.522	10.07
367.733	112.47
367.944	139.09
368.155	5.97
368.366	124.76
368.577	132.95
368.788	169.81
368.999	110.42
369.209	81.75
369.42	225.11
369.631	255.83
369.842	63.32
370.053	16.21
370.264	141.14
370.474	8.02
370.685	51.03
370.896	85.84
371.107	122.71
371.317	81.75
371.528	69.46
371.739	153.43
371.95	65.36
372.16	130.9
372.371	-57.51
372.582	-37.03
372.792	135
373.003	75.6
373.214	53.08
373.424	118.61
373.635	38.74
373.846	157.52
374.056	46.93
374.267	3.93
374.477	110.42
374.688	10.07
374.898	71.51
375.109	61.27
375.319	63.32
375.53	112.47
375.74	118.61
375.951	55.12
376.161	22.36
376.372	145.24
376.582	3.93
376.793	108.37
377.003	-59.56
377.214	48.98
377.424	26.45
377.635	71.51
377.845	3.93
378.055	202.58
378.266	8.02
378.476	34.64
378.686	51.03
378.897	130.9
379.107	118.61
379.317	102.23
379.528	69.46
379.738	202.58
379.948	-65.71
380.158	216.91
380.369	159.57
380.579	30.55
380.789	77.65
380.999	36.69
381.21	110.42
381.42	184.15
381.63	149.33
381.84	61.27
382.05	87.89
382.261	124.76
382.471	149.33
382.681	14.17
382.891	196.43
383.101	98.13
383.311	-2.22
383.521	69.46
383.731	87.89
383.941	145.24
384.151	-0.17
384.361	24.4
384.571	89.94
384.781	81.75
384.991	223.06
385.201	151.38
385.411	143.19
385.621	130.9
385.831	69.46
386.041	48.98
386.251	81.75
386.461	81.75
386.671	3.93
386.881	71.51
387.091	79.7
387.301	94.04
387.511	73.56
387.72	87.89
387.93	122.71
388.14	8.02
388.35	59.22
388.56	96.08
388.769	81.75
388.979	-20.65
389.189	1.88
389.399	63.32
389.609	116.56
389.818	79.7
390.028	46.93
390.238	153.43
390.447	-6.31
390.657	87.89
390.867	65.36
391.076	-67.75
391.286	44.88
391.496	-16.55
391.705	79.7
391.915	137.04
392.125	132.95
392.334	-34.99
392.544	255.83
392.753	51.03
392.963	1.88
393.172	55.12
393.382	3.93
393.591	233.3
393.801	59.22
394.01	91.99
394.22	83.8
394.429	16.21
394.639	51.03
394.848	120.66
395.058	40.79
395.267	46.93
395.477	108.37
395.686	55.12
395.895	218.96
396.105	257.87
396.314	59.22
396.524	114.52
396.733	36.69
396.942	180.05
397.152	110.42
397.361	188.24
397.57	59.22
397.78	57.17
397.989	98.13
398.198	175.95
398.407	59.22
398.617	63.32
398.826	59.22
399.035	48.98
399.244	149.33
399.453	34.64
399.663	44.88
399.872	81.75
400.081	36.69
400.29	233.3
400.499	-49.32
400.708	94.04
400.917	79.7
401.127	44.88
401.336	42.84
401.545	184.15
401.754	210.77
401.963	145.24
402.172	22.36
402.381	-43.18
402.59	102.23
402.799	83.8
403.008	132.95
403.217	116.56
403.426	75.6
403.635	1.88
403.844	30.55
404.053	14.17
404.262	1.88
404.471	165.71
404.68	98.13
404.888	-39.08
405.097	44.88
405.306	89.94
405.515	59.22
405.724	-28.84
405.933	141.14
406.142	63.32
406.35	122.71
406.559	-34.99
406.768	59.22
406.977	124.76
407.185	100.18
407.394	130.9
407.603	61.27
407.812	81.75
408.02	190.29
408.229	87.89
408.438	151.38
408.646	-133.29
408.855	67.41
409.064	79.7
409.272	61.27
409.481	143.19
409.69	22.36
409.898	-34.99
410.107	57.17
410.315	108.37
410.524	53.08
410.733	102.23
410.941	10.07
411.15	110.42
411.358	114.52
411.567	165.71
411.775	102.23
411.984	53.08
412.192	139.09
412.401	63.32
412.609	284.5
412.818	141.14
413.026	63.32
413.234	55.12
413.443	87.89
413.651	24.4
413.86	81.75
414.068	59.22
414.276	149.33
414.485	26.45
414.693	171.86
414.901	153.43
415.11	98.13
415.318	79.7
415.526	85.84
415.734	116.56
415.943	46.93
416.151	114.52
416.359	51.03
416.567	81.75
416.776	81.75
416.984	98.13
417.192	190.29
417.4	26.45
417.608	24.4
417.817	-12.46
418.025	87.89
418.233	192.34
418.441	-6.31
418.649	-55.47
418.857	120.66
419.065	190.29
419.273	-43.18
419.481	96.08
419.689	8.02
419.897	46.93
420.105	-45.23
420.313	161.62
420.521	163.67
420.729	143.19
420.937	5.97
421.145	-10.41
421.353	120.66
421.561	159.57
421.769	91.99
421.977	22.36
422.185	145.24
422.393	42.84
422.601	147.28
422.809	182.1
423.017	48.98
423.224	14.17
423.432	141.14
423.64	83.8
423.848	175.95
424.056	71.51
424.263	116.56
424.471	63.32
424.679	87.89
424.887	8.02
425.094	141.14
425.302	128.85
425.51	57.17
425.718	165.71
425.925	77.65
426.133	1.88
426.341	245.59
426.548	24.4
426.756	44.88
426.964	221.01
427.171	42.84
427.379	71.51
427.586	96.08
427.794	145.24
428.001	194.39
428.209	89.94
428.417	173.91
428.624	122.71
428.832	149.33
429.039	155.47
429.247	165.71
429.454	89.94
429.662	225.11
429.869	91.99
430.076	124.76
430.284	167.76
430.491	208.72
430.699	137.04
430.906	182.1
431.114	126.8
431.321	128.85
431.528	135
431.736	126.8
431.943	135
432.15	65.36
432.358	192.34
432.565	255.83
432.772	75.6
432.979	157.52
433.187	135
433.394	247.63
433.601	126.8
433.808	290.64
434.016	218.96
434.223	259.92
434.43	221.01
434.637	278.35
434.844	233.3
435.052	284.5
435.259	331.6
435.466	237.39
435.673	229.2
435.88	307.02
436.087	245.59
436.294	388.94
436.501	327.5
436.708	304.98
436.915	425.81
437.122	409.42
437.329	284.5
437.537	350.03
437.743	315.22
437.95	397.14
438.157	405.33
438.364	386.9
438.571	339.79
438.778	460.62
438.985	409.42
439.192	558.92
439.399	526.16
439.606	470.86
439.813	524.11
440.02	622.41
440.227	655.18
440.433	636.75
440.64	540.49
440.847	581.45
441.054	603.98
441.261	753.48
441.467	655.18
441.674	503.63
441.881	749.39
442.088	657.23
442.294	669.52
442.501	763.72
442.708	728.91
442.914	757.58
443.121	845.64
443.328	847.69
443.534	970.57
443.741	870.22
443.948	794.44
444.154	894.79
444.361	1177.41
444.568	1040.2
444.774	933.7
444.981	950.09
445.187	1085.25
445.394	1124.16
445.6	1140.55
445.807	1171.27
446.013	1255.23
446.22	1253.19
446.426	1376.06
446.633	1480.51
446.839	1566.53
447.046	1337.15
447.252	1668.92
447.459	1541.95
447.665	1468.22
447.871	1849.15
448.078	1832.76
448.284	1765.18
448.491	1961.78
448.697	2017.08
448.903	1931.06
449.11	2101.05
449.316	2101.05
449.522	2219.83
449.728	2398
449.935	2367.28
450.141	2418.48
450.347	2676.52
450.553	2647.85
450.76	2649.9
450.966	2797.35
451.172	2893.61
451.378	2928.42
451.584	2959.14
451.791	3256.1
451.997	3348.26
452.203	3317.54
452.409	3620.64
452.615	3729.18
452.821	3571.49
453.027	3581.73
453.233	4161.3
453.44	4058.9
453.646	4275.99
453.852	4359.95
454.058	4626.19
454.264	4779.79
454.47	4890.38
454.676	4906.76
454.882	5453.57
455.088	5234.44
455.294	5316.36
455.5	5828.35
455.705	6156.02
455.911	6211.32
456.117	6418.16
456.323	6473.46
456.529	6674.16
456.735	7200.49
456.941	7413.48
457.147	7513.83
457.352	7743.2
457.558	7933.66
457.764	8517.33
457.97	8750.8
458.176	9072.33
458.381	9518.79
458.587	9729.73
458.793	10030.78
458.999	10331.83
459.204	11290.28
459.41	11980.45
459.616	11759.27
459.821	12512.92
460.027	12881.55
460.233	13426.31
460.438	13772.42
460.644	14395
460.85	14251.64
461.055	15140.46
461.261	15871.59
461.466	15650.41
461.672	15855.2
461.878	17827.4
462.083	17376.84
462.289	17602.12
462.494	18566.71
462.7	18533.95
462.905	18677.3
463.111	20268.58
463.316	21227.03
463.522	21816.84
463.727	22629.88
463.932	23653.87
464.138	24159.72
464.343	24956.38
464.549	25155.03
464.754	27076.02
464.959	27758
465.165	28278.18
465.37	27796.91
465.575	28028.33
465.781	30045.58
465.986	30612.87
466.191	30170.5
466.397	30805.38
466.602	29787.53
466.807	31171.96
467.012	31884.65
467.218	32793.95
467.423	32363.88
467.628	33428.82
467.833	35417.4
468.038	34461
468.244	34078.03
468.449	35595.57
468.654	34737.48
468.859	34927.94
469.064	34915.65
469.269	34147.66
469.474	34082.13
469.679	35136.83
469.885	34024.78
470.09	34870.59
470.295	34762.05
470.5	34223.44
470.705	34155.85
470.91	33289.56
471.115	32841.06
471.32	33342.81
471.525	33453.4
471.73	32073.07
471.935	31806.83
472.139	30559.62
472.344	30899.58
472.549	31010.17
472.754	29926.8
472.959	29263.25
473.164	28407.2
473.369	27786.67
473.574	28925.34
473.778	28183.98
473.983	27522.48
474.188	27088.31
474.393	25660.88
474.598	25746.89
474.802	24974.81
475.007	24966.62
475.212	24493.54
475.417	23840.23
475.621	23358.96
475.826	23238.13
476.031	22605.31
476.235	21915.14
476.44	22269.44
476.645	21431.82
476.849	21728.78
477.054	21093.91
477.259	20596.25
477.463	20686.36
477.668	19858.98
477.872	19858.98
478.077	19328.56
478.282	18810.42
478.486	18542.14
478.691	18458.17
478.895	18411.07
479.1	18454.08
479.304	18220.61
479.509	17444.43
479.713	17749.57
479.918	17282.64
480.122	17217.1
480.326	17397.32
480.531	17200.72
480.735	16883.28
480.94	16535.13
481.144	17268.3
481.348	16258.65
481.553	16340.57
481.757	15928.93
481.961	16115.3
482.166	16191.07
482.37	15818.34
482.574	15674.98
482.778	15541.86
482.983	15734.37
483.187	15474.28
483.391	15271.53
483.595	15216.24
483.8	14720.63
484.004	14995.06
484.208	14876.27
484.412	14597.75
484.616	14452.34
484.821	14474.87
485.025	14005.89
485.229	14184.06
485.433	13823.62
485.637	13829.76
485.841	13479.56
486.045	13258.38
486.249	13211.28
486.453	12725.91
486.657	12650.13
486.861	12719.76
487.065	12037.79
487.269	12289.69
487.473	11812.51
487.677	11988.64
487.881	11865.76
488.085	11454.12
488.289	11226.79
488.493	11099.82
488.697	11052.72
488.901	10753.71
489.105	10505.91
489.309	10387.13
489.512	10172.09
489.716	10098.36
489.92	9881.28
490.124	9641.67
490.328	9776.83
490.531	9379.53
490.735	9254.6
490.939	9197.26
491.143	8597.2
491.346	8799.95
491.55	8695.5
491.754	8503
491.958	8402.65
492.161	8158.94
492.365	8183.51
492.569	7931.61
492.772	7900.89
492.976	7991
493.18	7788.25
493.383	7689.95
493.587	7517.92
493.79	7517.92
493.994	7259.88
494.197	7360.23
494.401	7427.81
494.605	7157.48
494.808	7182.06
495.012	7266.02
495.215	7110.38
495.419	7335.65
495.622	6960.88
495.825	7175.91
496.029	6973.16
496.232	6995.69
496.436	6776.56
496.639	6860.52
496.843	7005.93
497.046	6852.33
497.249	7134.95
497.453	6936.3
497.656	6952.68
497.859	6715.12
498.063	7091.95
498.266	7128.81
498.469	6739.69
498.673	7132.9
498.876	7169.77
499.079	7034.6
499.282	7059.18
499.485	7458.53
499.689	7302.89
499.892	7294.69
500.095	7327.46
500.298	7274.21
500.501	7192.3
500.705	7573.22
500.908	7468.77
501.111	7632.61
501.314	7847.65
501.517	7753.44
501.72	7816.93
501.923	7696.1
502.126	7925.47
502.329	8316.63
502.532	7999.2
502.735	8406.74
502.938	8523.48
503.141	8576.72
503.344	8675.02
503.547	8660.69
503.75	8890.06
503.953	8847.05
504.156	9041.61
504.359	9264.84
504.562	9262.79
504.765	9705.15
504.968	9567.94
505.17	9938.62
505.373	10010.3
505.576	10100.41
505.779	10149.56
505.982	10225.34
506.185	10700.47
506.387	10657.46
506.59	11126.44
506.793	11165.35
506.996	11386.54
507.198	11777.7
507.401	11693.73
507.604	12084.89
507.807	12426.9
508.009	12519.06
508.212	12613.27
508.415	13039.25
508.617	13198.99
508.82	13442.7
509.022	13414.02
509.225	14202.49
509.428	14171.77
509.63	14624.37
509.833	15060.59
510.035	15513.19
510.238	15580.78
510.44	16053.86
510.643	16481.88
510.845	16746.07
511.048	16981.59
511.25	17141.33
511.453	17733.19
511.655	18644.54
511.858	18683.45
512.06	19213.87
512.262	19373.61
512.465	19756.58
512.667	20190.75
512.87	20794.9
513.072	21024.28
513.274	21812.74
513.477	22416.9
513.679	22513.15
513.881	23334.39
514.084	23641.58
514.286	24063.46
514.488	24624.61
514.69	25550.29
514.893	25750.99
515.095	26471.87
515.297	27151.8
515.499	27526.58
515.701	28138.92
515.904	28741.02
516.106	29289.88
516.308	29853.07
516.51	30700.93
516.712	30975.36
516.914	31219.06
517.116	32116.08
517.318	32906.59
517.52	33590.61
517.722	33836.37
517.925	34434.38
518.127	35224.89
518.329	36085.04
518.531	35890.48
518.733	37053.73
518.935	37637.4
519.136	37995.79
519.338	38671.62
519.54	39073.03
519.742	39773.43
519.944	40240.37
520.146	41413.85
520.348	41426.14
520.55	41903.32
520.752	42415.31
520.954	43332.8
521.155	43429.05
521.357	44283.06
521.559	44555.44
521.761	45421.73
521.963	45366.43
522.164	46017.69
522.366	46509.2
522.568	46861.45
522.77	46900.36
522.971	47832.19
523.173	47627.39
523.375	48202.87
523.576	48290.93
523.778	48034.94
523.98	48737.39
524.181	49523.81
524.383	48622.7
524.584	49562.72
524.786	49296.49
524.988	49331.3
525.189	49511.52
525.391	50039.9
525.592	50211.93
525.794	49652.83
525.995	49581.15
526.197	49536.1
526.398	49642.59
526.6	49665.12
526.801	49626.21
527.003	49396.84
527.204	49122.41
527.406	49200.23
527.607	49009.77
527.808	49306.72
528.01	47690.88
528.211	48139.38
528.412	47989.88
528.614	47795.32
528.815	47117.45
529.016	47611.01
529.218	46576.78
529.419	46648.46
529.62	45855.9
529.822	45622.43
530.023	45110.44
530.224	44565.68
530.425	44438.7
530.626	43812.02
530.828	42917.06
531.029	43429.05
531.23	42087.64
531.431	42251.47
531.632	41542.88
531.833	41512.16
532.035	40277.23
532.236	40602.86
532.437	39662.84
532.638	39175.42
532.839	38784.26
533.04	38448.39
533.241	37315.87
533.442	37791
533.643	37072.16
533.844	36609.32
534.045	35980.59
534.246	35468.6
534.447	35138.88
534.648	34362.7
534.849	33918.29
535.05	33611.09
535.251	33334.62
535.451	32621.92
535.652	32531.81
535.853	31853.94
536.054	31825.26
536.255	31075.71
536.456	30412.17
536.657	30563.71
536.857	29730.19
537.058	29220.25
537.259	29203.86
537.46	28874.14
537.66	28171.69
537.861	27954.6
538.062	27262.39
538.263	27246.01
538.463	26867.13
538.664	26613.18
538.865	26093
539.065	25894.35
539.266	25167.32
539.466	25161.17
539.667	24671.71
539.868	24851.93
540.068	24100.33
540.269	24108.52
540.469	23770.6
540.67	23709.16
540.87	23133.68
541.071	22892.02
541.271	22691.32
541.472	22554.11
541.672	21894.66
541.873	21784.07
542.073	21317.14
542.274	21775.88
542.474	21245.46
542.675	20962.84
542.875	20856.34
543.075	20305.44
543.276	19945
543.476	20291.1
543.676	19996.2
543.877	19627.56
544.077	19492.4
544.277	19127.86
544.478	19011.12
544.678	19078.71
544.878	18222.66
545.078	18447.93
545.279	17534.54
545.479	17802.82
545.679	17772.1
545.879	17741.38
546.079	17251.92
546.28	17008.21
546.48	16854.61
546.68	16871
546.88	16588.38
547.08	16369.24
547.28	16248.41
547.48	15912.55
547.68	15662.69
547.88	15562.34
548.081	15287.92
548.281	15165.04
548.481	15038.06
548.681	14945.91
548.881	14806.64
549.081	14321.27
549.28	13844.1
549.48	13878.91
549.68	13844.1
549.88	13737.6
550.08	13287.05
550.28	13469.32
550.48	13166.22
550.68	12856.98
550.88	12693.14
551.08	12633.75
551.279	12525.21
551.479	12164.76
551.679	12068.51
551.879	11980.45
552.079	11685.54
552.278	11751.07
552.478	11456.17
552.678	11347.62
552.878	11126.44
553.077	10772.14
553.277	10731.19
553.477	10522.29
553.676	10319.54
553.876	10114.75
554.076	9905.85
554.275	10059.45
554.475	9678.53
554.674	9877.18
554.874	9400.01
555.074	9262.79
555.273	9045.71
555.473	8984.27
555.672	8718.03
555.872	8695.5
556.071	8533.72
556.271	8560.34
556.47	8263.38
556.67	8081.11
556.869	7960.28
557.068	8011.48
557.268	7732.96
557.467	7677.66
557.667	7567.07
557.866	7292.65
558.065	7247.59
558.265	6967.02
558.464	7112.42
558.663	6962.92
558.863	6645.49
559.062	6766.32
559.261	6420.21
559.461	6704.88
559.66	6305.53
559.859	6250.23
560.058	6080.25
560.258	5988.09
560.457	5926.65
560.656	6061.82
560.855	5809.92
561.054	5771.01
561.253	5883.64
561.453	5474.05
561.652	5515.01
561.851	5353.22
562.05	5373.7
562.249	5031.69
562.448	5220.1
562.647	4968.2
562.846	5011.21
563.045	5017.35
563.244	4751.12
563.443	4755.21
563.642	4538.13
563.841	4544.27
564.04	4495.12
564.239	4519.7
564.438	4476.69
564.637	4396.82
564.836	4314.9
565.035	4269.84
565.234	4243.22
565.432	4177.69
565.631	4151.06
565.83	4038.42
566.029	3807
566.228	3813.15
566.427	3938.07
566.625	3542.82
566.824	3755.8
567.023	3624.73
567.222	3350.31
567.42	3548.96
567.619	3546.91
567.818	3520.29
568.016	3596.06
568.215	3358.5
568.414	3292.96
568.612	3282.72
568.811	3278.63
569.01	3196.71
569.208	3227.43
569.407	3202.85
569.605	3096.36
569.804	2850.6
570.002	3024.68
570.201	2955.05
570.4	2754.35
570.598	2834.22
570.797	2819.88
570.995	2715.44
571.193	2770.73
571.392	2637.61
571.59	2545.45
571.789	2697
571.987	2615.09
572.186	2602.8
572.384	2551.6
572.582	2459.44
572.781	2520.88
572.979	2262.83
573.177	2434.86
573.376	2293.55
573.574	2352.95
573.772	2168.63
573.971	2041.65
574.169	1969.98
574.367	2256.69
574.565	2250.55
574.763	2041.65
574.962	1949.5
575.16	1955.64
575.358	1957.69
575.556	2058.04
575.754	1883.96
575.952	1879.86
576.151	1865.53
576.349	1820.47
576.547	1605.44
576.745	1754.94
576.943	1861.43
577.141	1742.65
577.339	1566.53
577.537	1666.88
577.735	1648.44
577.933	1705.79
578.131	1511.23
578.329	1720.12
578.527	1546.05
578.725	1500.99
578.923	1326.91
579.121	1435.46
579.319	1367.87
579.516	1394.5
579.714	1670.97
579.912	1386.3
580.11	1236.8
580.308	1351.49
580.506	1283.91
580.704	1130.31
580.901	1216.32
581.099	1333.06
581.297	1091.4
581.495	1269.57
581.692	1214.27
581.89	1294.15
582.088	1263.43
582.285	1134.4
582.483	1115.97
582.681	1093.44
582.878	1072.96
583.076	1132.36
583.274	1005.38
583.471	1124.16
583.669	1097.54
583.866	1068.87
584.064	958.28
584.262	939.85
584.459	993.09
584.657	1001.29
584.854	1021.77
585.052	995.14
585.249	1001.29
585.447	1005.38
585.644	745.29
585.841	1052.49
586.039	911.18
586.236	999.24
586.434	900.94
586.631	796.49
586.828	790.35
587.026	819.02
587.223	685.9
587.42	808.78
587.618	839.5
587.815	853.83
588.012	814.92
588.21	716.62
588.407	757.58
588.604	724.81
588.801	601.93
588.999	739.15
589.196	722.76
589.393	618.32
589.59	728.91
589.787	823.11
589.984	718.67
590.182	788.3
590.379	599.88
590.576	675.66
590.773	728.91
590.97	665.42
591.167	665.42
591.364	704.33
591.561	687.95
591.758	804.68
591.955	659.28
592.152	712.52
592.349	681.8
592.546	685.9
592.743	560.97
592.94	655.18
593.137	669.52
593.334	706.38
593.531	673.61
593.727	792.39
593.924	733
594.121	659.28
594.318	616.27
594.515	698.19
594.712	753.48
594.908	790.35
595.105	577.36
595.302	810.82
595.499	706.38
595.696	845.64
595.892	675.66
596.089	866.12
596.286	765.77
596.482	864.07
596.679	831.3
596.876	765.77
597.072	956.23
597.269	927.56
597.466	991.05
597.662	890.7
597.859	872.26
598.055	872.26
598.252	1007.43
598.448	1013.57
598.645	1060.68
598.841	1183.56
599.038	1154.88
599.234	1201.99
599.431	1199.94
599.627	1218.37
599.824	1189.7
600.02	1281.86
600.217	1333.06
600.413	1441.6
600.609	1435.46
600.806	1724.22
601.002	1675.07
601.198	1484.61
601.395	1738.55
601.591	1713.98
601.787	1756.99
601.984	1861.43
602.18	1933.11
602.376	2170.68
602.572	2154.29
602.769	2318.13
602.965	2185.01
603.161	2404.14
603.357	2516.78
603.553	2547.5
603.75	2610.99
603.946	2447.15
604.142	2834.22
604.338	2916.14
604.534	2887.47
604.73	3043.11
604.926	2950.95
605.122	3315.49
605.318	3211.04
605.514	3487.52
605.71	3372.83
605.906	3643.17
606.102	3759.9
606.298	3825.43
606.494	3878.68
606.69	4136.73
606.886	4214.55
607.082	4353.81
607.278	4478.74
607.474	4691.73
607.67	4822.8
607.866	4693.77
608.062	5003.02
608.257	5021.45
608.453	5035.78
608.649	5345.03
608.845	5453.57
609.041	5725.95
609.236	5752.57
609.432	5975.8
609.628	6305.53
609.824	6203.13
610.019	6291.19
610.215	6495.99
610.411	6897.39
610.606	6805.23
610.802	7016.17
610.998	7180.01
611.193	7519.97
611.389	7479.01
611.584	7866.08
611.78	8056.54
611.976	8214.23
612.171	8484.56
612.367	8830.67
612.562	8851.15
612.758	8963.79
612.953	9344.71
613.149	9596.61
613.344	10012.35
613.539	10073.79
613.735	10401.46
613.93	10663.6
614.126	10997.42
614.321	11259.56
614.517	11568.8
614.712	11865.76
614.907	12121.76
615.103	12445.34
615.298	12770.96
615.493	13381.26
615.688	13323.91
615.884	13667.97
616.079	13962.88
616.274	14575.22
616.47	14737.01
616.665	15261.29
616.86	15611.5
617.055	15756.9
617.25	16199.26
617.445	16881.24
617.641	16674.39
617.836	17530.44
618.031	17813.06
618.226	18525.75
618.421	18832.95
618.616	19465.77
618.811	19258.93
619.006	20149.79
619.201	20241.95
619.396	20868.63
619.591	20964.89
619.786	21898.76
619.981	22150.66
620.176	22783.48
620.371	23127.54
620.566	23789.03
620.761	24161.76
620.956	24702.43
621.151	24706.52
621.346	25959.88
621.541	25853.39
621.735	26736.06
621.93	26691.01
622.125	27477.43
622.32	27803.05
622.515	28415.4
622.709	28767.65
622.904	29947.28
623.099	29814.16
623.294	30455.17
623.488	30506.37
623.683	31972.72
623.878	31845.74
624.072	32296.3
624.267	33025.37
624.462	33680.72
624.656	33236.31
624.851	34452.81
625.046	34325.83
625.24	35392.83
625.435	35401.02
625.629	36310.32
625.824	36681
626.018	37301.53
626.213	36945.19
626.407	38257.93
626.602	38077.71
626.796	38937.86
626.991	38995.2
627.185	39382.27
627.38	39333.12
627.574	39791.86
627.768	40498.41
627.963	40203.5
628.157	40543.47
628.352	40742.12
628.546	39918.84
628.74	41032.93
628.935	40240.37
629.129	40303.85
629.323	40193.26
629.517	39802.1
629.712	39808.25
629.906	39406.84
630.1	38731.01
630.294	38513.93
630.489	38030.61
630.683	37719.32
630.877	36650.28
631.071	36572.46
631.265	35712.31
631.459	35032.38
631.653	34153.8
631.848	33568.09
632.042	32804.19
632.236	32136.55
632.43	30961.02
632.624	30221.7
632.818	29238.68
633.012	28538.27
633.206	27454.9
633.4	26844.6
633.594	25474.51
633.788	25069.01
633.982	24182.24
634.176	23100.92
634.369	22093.32
634.563	21454.35
634.757	20315.68
634.951	19830.31
635.145	19144.24
635.339	18755.13
635.533	17264.21
635.726	17020.5
635.92	16080.48
636.114	15785.57
636.308	14741.11
636.501	14335.61
636.695	13764.23
636.889	12955.28
637.083	12633.75
637.276	12234.39
637.47	11478.69
637.664	11019.95
637.857	10710.71
638.051	10493.62
638.244	10006.2
638.438	9504.45
638.632	9141.96
638.825	8683.22
639.019	8269.53
639.212	8206.04
639.406	7900.89
639.599	7452.39
639.793	6960.88
639.986	6934.25
640.18	6831.85
640.373	6403.83
640.567	5924.6
640.76	5881.6
640.954	5709.57
641.147	5306.12
641.34	5275.4
641.534	5043.98
641.727	4992.78
641.92	4810.51
642.114	4480.78
642.307	4300.56
642.5	4321.04
642.694	4003.61
642.887	3868.44
643.08	3731.23
643.273	3710.75
643.467	3491.62
643.66	3301.15
643.853	3190.56
644.046	3272.48
644.239	2981.67
644.432	2828.07
644.626	2522.93
644.819	2699.05
645.012	2498.35
645.205	2471.73
645.398	2447.15
645.591	2217.78
645.784	2094.9
645.977	2154.29
646.17	2008.89
646.363	1939.26
646.556	1785.66
646.749	1675.07
646.942	1693.5
647.135	1679.16
647.328	1613.63
647.521	1521.47
647.714	1525.57
647.907	1390.4
648.099	1230.66
648.292	1328.96
648.485	1402.69
648.678	1357.63
648.871	1118.02
649.064	1167.17
649.256	1003.33
649.449	1019.72
649.642	976.71
649.835	974.66
650.027	802.63
650.22	1097.54
650.413	862.02
650.605	1011.53
650.798	816.97
650.991	767.82
651.183	730.95
651.376	825.16
651.568	776.01
651.761	728.91
651.954	632.65
652.146	671.56
652.339	730.95
652.531	653.13
652.724	542.54
652.916	515.92
653.109	386.9
653.301	620.36
653.494	622.41
653.686	612.17
653.879	595.79
654.071	563.02
654.263	409.42
654.456	376.66
654.648	505.68
654.84	511.82
655.033	425.81
655.225	593.74
655.417	317.26
655.61	503.63
655.802	497.49
655.994	526.16
656.186	354.13
656.379	415.57
656.571	241.49
656.763	405.33
656.955	360.27
657.148	350.03
657.34	442.19
657.532	343.89
657.724	286.54
657.916	270.16
658.108	354.13
658.3	382.8
658.492	376.66
658.684	235.35
658.876	227.15
659.068	155.47
659.26	184.15
659.452	243.54
659.644	282.45
659.836	436.05
660.028	315.22
660.22	188.24
660.412	173.91
660.604	161.62
660.796	194.39
660.988	212.82
661.18	274.26
661.372	245.59
661.563	274.26
661.755	307.02
661.947	157.52
662.139	188.24
662.331	216.91
662.522	319.31
662.714	124.76
662.906	153.43
663.097	261.97
663.289	231.25
663.481	175.95
663.673	233.3
663.864	180.05
664.056	245.59
664.247	208.72
664.439	249.68
664.631	194.39
664.822	210.77
665.014	243.54
665.205	223.06
665.397	73.56
665.588	237.39
665.78	143.19
665.971	253.78
666.163	114.52
666.354	253.78
666.546	116.56
666.737	139.09
666.929	65.36
667.12	98.13
667.311	153.43
667.503	212.82
667.694	184.15
667.885	135
668.077	257.87
668.268	53.08
668.459	147.28
668.651	149.33
668.842	147.28
669.033	110.42
669.224	157.52
669.416	323.41
669.607	110.42
669.798	83.8
669.989	212.82
670.18	165.71
670.371	225.11
670.563	143.19
670.754	204.63
670.945	167.76
671.136	210.77
671.327	81.75
671.518	196.43
671.709	302.93
671.9	194.39
672.091	245.59
672.282	147.28
672.473	206.67
672.664	124.76
672.855	161.62
673.046	200.53
673.237	200.53
673.428	182.1
673.619	241.49
673.809	141.14
674	266.07
674.191	204.63
674.382	159.57
674.573	202.58
674.764	139.09
674.954	210.77
675.145	145.24
675.336	147.28
675.527	268.11
675.717	116.56
675.908	212.82
676.099	53.08
676.289	137.04
676.48	114.52
676.671	188.24
676.861	161.62
677.052	216.91
677.243	210.77
677.433	85.84
677.624	268.11
677.814	192.34
678.005	212.82
678.195	294.74
678.386	194.39
678.576	157.52
678.767	48.98
678.957	257.87
679.148	272.21
679.338	364.37
679.529	223.06
679.719	210.77
679.909	366.42
680.1	333.65
680.29	292.69
680.481	114.52
680.671	286.54
680.861	243.54
681.052	284.5
681.242	227.15
681.432	270.16
681.622	208.72
681.813	194.39
682.003	190.29
682.193	216.91
682.383	268.11
682.573	235.35
682.764	198.48
682.954	249.68
683.144	364.37
683.334	247.63
683.524	268.11
683.714	296.78
683.904	317.26
684.094	347.98
684.284	268.11
684.474	362.32
684.664	319.31
684.854	196.43
685.044	225.11
685.234	286.54
685.424	237.39
685.614	237.39
685.804	380.75
685.994	319.31
686.184	292.69
686.374	337.74
686.564	270.16
686.753	259.92
686.943	151.38
687.133	259.92
687.323	255.83
687.513	278.35
687.702	264.02
687.892	266.07
688.082	358.22
688.272	366.42
688.461	300.88
688.651	335.7
688.841	302.93
689.03	229.2
689.22	255.83
689.41	239.44
689.599	319.31
689.789	180.05
689.979	337.74
690.168	272.21
690.358	366.42
690.547	288.59
690.737	202.58
690.926	284.5
691.116	259.92
691.305	298.83
691.495	304.98
691.684	204.63
691.874	284.5
692.063	202.58
692.252	333.65
692.442	374.61
692.631	227.15
692.82	173.91
693.01	325.46
693.199	251.73
693.388	227.15
693.578	331.6
693.767	350.03
693.956	247.63
694.146	304.98
694.335	282.45
694.524	261.97
694.713	288.59
694.902	225.11
695.092	214.87
695.281	380.75
695.47	231.25
695.659	194.39
695.848	282.45
696.037	231.25
696.226	284.5
696.415	284.5
696.604	313.17
696.793	296.78
696.982	231.25
697.171	374.61
697.36	173.91
697.549	280.4
697.738	124.76
697.927	233.3
698.116	212.82
698.305	323.41
698.494	227.15
698.683	311.12
698.872	331.6
699.061	280.4
699.25	264.02
699.438	288.59
699.627	243.54
699.816	327.5
700.005	204.63
700.193	223.06
700.382	243.54
700.571	296.78
700.76	302.93
700.948	288.59
701.137	270.16
701.326	304.98
701.514	130.9
701.703	233.3
701.892	268.11
702.08	368.46
702.269	239.44
702.457	218.96
702.646	300.88
702.834	206.67
703.023	302.93
703.212	331.6
703.4	272.21
703.589	241.49
703.777	216.91
703.965	208.72
704.154	319.31
704.342	184.15
704.531	89.94
704.719	214.87
704.907	317.26
705.096	178
705.284	167.76
705.472	233.3
705.661	251.73
705.849	272.21
706.037	395.09
706.226	268.11
706.414	274.26
706.602	223.06
706.79	405.33
706.979	212.82
707.167	243.54
707.355	173.91
707.543	304.98
707.731	286.54
707.919	296.78
708.107	249.68
708.296	161.62
708.484	165.71
708.672	239.44
708.86	341.84
709.048	225.11
709.236	161.62
709.424	276.31
709.612	233.3
709.8	161.62
709.988	165.71
710.176	374.61
710.364	333.65
710.551	216.91
710.739	251.73
710.927	173.91
711.115	241.49
711.303	210.77
711.491	288.59
711.679	196.43
711.866	296.78
712.054	243.54
712.242	280.4
712.43	300.88
712.617	190.29
712.805	208.72
712.993	276.31
713.181	157.52
713.368	268.11
713.556	204.63
713.744	216.91
713.931	380.75
714.119	286.54
714.306	143.19
714.494	184.15
714.682	202.58
714.869	139.09
715.057	171.86
715.244	173.91
715.432	288.59
715.619	184.15
715.807	264.02
715.994	274.26
716.182	282.45
716.369	294.74
716.556	290.64
716.744	173.91
716.931	212.82
717.119	223.06
717.306	266.07
717.493	276.31
717.681	227.15
717.868	225.11
718.055	341.84
718.242	255.83
718.43	284.5
718.617	378.7
718.804	284.5
718.991	374.61
719.179	372.56
719.366	347.98
719.553	202.58
719.74	261.97
719.927	257.87
720.114	335.7
720.301	151.38
720.488	171.86
720.676	214.87
720.863	386.9
721.05	462.67
721.237	411.47
721.424	292.69
721.611	323.41
721.798	190.29
721.985	196.43
722.172	253.78
722.358	319.31
722.545	325.46
722.732	292.69
722.919	378.7
723.106	317.26
723.293	274.26
723.48	335.7
723.667	223.06
723.853	362.32
724.04	376.66
724.227	290.64
724.414	300.88
724.6	325.46
724.787	372.56
724.974	313.17
725.161	307.02
725.347	231.25
725.534	337.74
725.72	261.97
725.907	350.03
726.094	284.5
726.28	280.4
726.467	333.65
726.653	235.35
726.84	509.77
727.027	423.76
727.213	307.02
727.4	380.75
727.586	270.16
727.773	255.83
727.959	329.55
728.145	347.98
728.332	343.89
728.518	210.77
728.705	331.6
728.891	339.79
729.077	315.22
729.264	225.11
729.45	368.46
729.636	384.85
729.823	323.41
730.009	384.85
730.195	362.32
730.382	343.89
730.568	345.94
730.754	259.92
730.94	288.59
731.126	393.04
731.313	362.32
731.499	405.33
731.685	350.03
731.871	364.37
732.057	331.6
732.243	321.36
732.429	380.75
732.615	325.46
732.801	429.9
732.987	298.83
733.173	311.12
733.359	390.99
733.545	417.61
733.731	356.18
733.917	481.1
734.103	382.8
734.289	399.18
734.475	251.73
734.661	413.52
734.847	374.61
735.033	386.9
735.219	341.84
735.404	444.24
735.59	292.69
735.776	421.71
735.962	335.7
736.148	466.77
736.333	374.61
736.519	317.26
736.705	292.69
736.89	341.84
737.076	358.22
737.262	292.69
737.447	317.26
737.633	294.74
737.819	417.61
738.004	335.7
738.19	403.28
738.375	440.14
738.561	431.95
738.747	341.84
738.932	354.13
739.118	505.68
739.303	415.57
739.489	409.42
739.674	323.41
739.859	249.68
740.045	425.81
740.23	313.17
740.416	307.02
740.601	397.14
740.786	374.61
740.972	399.18
741.157	327.5
741.342	339.79
741.528	188.24
741.713	423.76
741.898	440.14
742.084	347.98
742.269	313.17
742.454	376.66
742.639	452.43
742.824	362.32
743.01	460.62
743.195	448.33
743.38	341.84
743.565	335.7
743.75	417.61
743.935	395.09
744.12	399.18
744.305	270.16
744.49	335.7
744.675	278.35
744.86	337.74
745.045	350.03
745.23	421.71
745.415	298.83
745.6	522.06
745.785	292.69
745.97	415.57
746.155	417.61
746.34	380.75
746.525	352.08
746.71	364.37
746.895	202.58
747.079	319.31
747.264	370.51
747.449	378.7
747.634	462.67
747.819	456.53
748.003	255.83
748.188	247.63
748.373	450.38
748.557	427.85
748.742	354.13
748.927	294.74
749.111	315.22
749.296	354.13
749.481	384.85
749.665	292.69
749.85	257.87
750.034	350.03
750.219	255.83
750.404	304.98
750.588	239.44
750.773	208.72
750.957	325.46
751.141	282.45
751.326	335.7
751.51	161.62
751.695	302.93
751.879	300.88
752.064	329.55
752.248	223.06
752.432	345.94
752.617	411.47
752.801	331.6
752.985	300.88
753.17	337.74
753.354	290.64
753.538	266.07
753.722	298.83
753.907	300.88
754.091	210.77
754.275	329.55
754.459	218.96
754.643	216.91
754.828	268.11
755.012	309.07
755.196	288.59
755.38	296.78
755.564	241.49
755.748	280.4
755.932	261.97
756.116	393.04
756.3	327.5
756.484	208.72
756.668	278.35
756.852	108.37
757.036	208.72
757.22	253.78
757.404	239.44
757.588	239.44
757.772	274.26
757.956	214.87
758.14	438.09
758.323	153.43
758.507	227.15
758.691	190.29
758.875	278.35
759.059	300.88
759.242	204.63
759.426	272.21
759.61	249.68
759.794	194.39
759.977	317.26
760.161	382.8
760.345	345.94
760.528	239.44
760.712	221.01
760.895	210.77
761.079	118.61
761.263	147.28
761.446	91.99
761.63	184.15
761.813	216.91
761.997	143.19
762.18	251.73
762.364	274.26
762.547	108.37
762.731	198.48
762.914	223.06
763.098	173.91
763.281	143.19
763.464	126.8
763.648	118.61
763.831	169.81
764.015	83.8
764.198	227.15
764.381	225.11
764.564	198.48
764.748	212.82
764.931	165.71
765.114	264.02
765.297	225.11
765.481	42.84
765.664	130.9
765.847	130.9
766.03	247.63
766.213	67.41
766.397	188.24
766.58	46.93
766.763	245.59
766.946	186.19
767.129	137.04
767.312	155.47
767.495	202.58
767.678	161.62
767.861	171.86
768.044	108.37
768.227	65.36
768.41	44.88
768.593	137.04
768.776	255.83
768.959	132.95
769.142	235.35
769.324	143.19
769.507	135
769.69	175.95
769.873	130.9
770.056	388.94
770.239	106.32
770.421	268.11
770.604	229.2
770.787	153.43
770.97	175.95
771.152	77.65
771.335	245.59
771.518	44.88
771.7	145.24
771.883	278.35
772.066	30.55
772.248	135
772.431	180.05
772.613	98.13
772.796	192.34
772.978	155.47
773.161	282.45
773.343	114.52
773.526	110.42
773.708	10.07
773.891	36.69
774.073	87.89
774.256	77.65
774.438	192.34
774.621	147.28
774.803	167.76
774.985	130.9
775.168	167.76
775.35	139.09
775.532	157.52
775.715	55.12
775.897	204.63
776.079	151.38
776.261	122.71
776.444	139.09
776.626	-2.22
776.808	83.8
776.99	71.51
777.173	122.71
777.355	73.56
777.537	137.04
777.719	79.7
777.901	94.04
778.083	5.97
778.265	51.03
778.447	137.04
778.629	26.45
778.811	139.09
778.993	161.62
779.175	141.14
779.357	126.8
779.539	12.12
779.721	135
779.903	137.04
780.085	122.71
780.267	114.52
780.449	51.03
780.631	206.67
780.812	151.38
780.994	65.36
781.176	126.8
781.358	44.88
781.54	55.12
781.721	100.18
781.903	108.37
782.085	51.03
782.267	116.56
782.448	24.4
782.63	-16.55
782.812	132.95
782.993	75.6
783.175	110.42
783.357	79.7
783.538	118.61
783.72	44.88
783.901	79.7
784.083	157.52
784.264	91.99
784.446	-6.31
784.627	-4.27
784.809	175.95
784.99	-4.27
785.172	139.09
785.353	85.84
785.535	89.94
785.716	5.97
785.897	14.17
786.079	126.8
786.26	8.02
786.441	118.61
786.623	-43.18
786.804	77.65
786.985	38.74
787.167	128.85
787.348	104.28
787.529	-8.36
787.71	221.01
787.891	57.17
788.073	-37.03
788.254	-18.6
788.435	180.05
788.616	108.37
788.797	20.31
788.978	51.03
789.159	87.89
789.34	102.23
789.522	104.28
789.703	75.6
789.884	157.52
790.065	122.71
790.246	210.77
790.427	83.8
790.607	122.71
790.788	98.13
790.969	22.36
791.15	91.99
791.331	73.56
791.512	59.22
791.693	24.4
791.874	46.93
792.054	253.78
792.235	81.75
792.416	-14.51
792.597	-16.55
792.778	73.56
792.958	118.61
793.139	63.32
793.32	104.28
793.5	-24.75
793.681	143.19
793.862	135
794.042	75.6
794.223	14.17
794.404	-37.03
794.584	3.93
794.765	24.4
794.945	63.32
795.126	96.08
795.306	67.41
795.487	3.93
795.667	75.6
795.848	46.93
796.028	89.94
796.209	91.99
796.389	116.56
796.57	59.22
796.75	18.26
796.93	36.69
797.111	42.84
797.291	26.45
797.471	40.79
797.652	18.26
797.832	-24.75
798.012	30.55
798.192	40.79
798.373	-112.81
798.553	51.03
798.733	114.52
798.913	-69.8
799.093	-39.08
799.274	61.27
799.454	100.18
799.634	120.66
799.814	53.08
799.994	112.47
800.174	139.09
800.354	71.51
800.534	-39.08
800.714	102.23
800.894	-26.79
801.074	-18.6
801.254	-37.03
801.434	98.13
801.614	-34.99
801.794	-57.51
801.974	1695.55
802.154	32.6
802.334	46.93
802.514	-55.47
802.693	-0.17
802.873	24.4
803.053	171.86
803.233	87.89
803.413	51.03
803.592	-41.13
803.772	28.5
803.952	30.55
804.131	-51.37
804.311	83.8
804.491	102.23
804.67	1.88
804.85	-43.18
805.03	40.79
805.209	163.67
805.389	18.26
805.568	-2.22
805.748	26.45
805.928	34.64
806.107	147.28
806.287	85.84
806.466	110.42
806.646	67.41
806.825	-0.17
807.004	-45.23
807.184	85.84
807.363	91.99
807.543	34.64
807.722	38.74
807.901	135
808.081	141.14
808.26	-147.62
808.439	85.84
808.619	51.03
808.798	18.26
808.977	61.27
809.156	81.75
809.336	100.18
809.515	114.52
809.694	-55.47
809.873	14.17
810.052	71.51
810.231	73.56
810.411	102.23
810.59	91.99
810.769	12.12
810.948	59.22
811.127	-129.19
811.306	83.8
811.485	14.17
811.664	98.13
811.843	73.56
812.022	-16.55
812.201	20.31
812.38	-43.18
812.559	42.84
812.737	106.32
812.916	-47.27
813.095	-55.47
813.274	51.03
813.453	22.36
813.632	73.56
813.811	102.23
813.989	-69.8
814.168	36.69
814.347	-112.81
814.526	1.88
814.704	128.85
814.883	161.62
815.062	10.07
815.24	108.37
815.419	-43.18
815.598	46.93
815.776	-43.18
815.955	98.13
816.133	-61.61
816.312	32.6
816.49	-34.99
816.669	22.36
816.847	-39.08
817.026	8.02
817.204	14.17
817.383	14.17
817.561	-12.46
817.74	18.26
817.918	14.17
818.097	3.93
818.275	-32.94
818.453	36.69
818.632	-8.36
818.81	-6.31
818.988	53.08
819.167	-39.08
819.345	38.74
819.523	42.84
819.701	-18.6
819.879	89.94
820.058	89.94
820.236	96.08
820.414	-32.94
820.592	14.17
820.77	20.31
820.948	-14.51
821.127	-6.31
821.305	44.88
821.483	-20.65
821.661	55.12
821.839	44.88
822.017	-57.51
822.195	30.55
822.373	132.95
822.551	14.17
822.729	122.71
822.907	26.45
823.085	-34.99
823.262	108.37
823.44	-28.84
823.618	22.36
823.796	44.88
823.974	-4.27
824.152	36.69
824.329	48.98
824.507	28.5
824.685	10.07
824.863	-32.94
825.04	46.93
825.218	81.75
825.396	16.21
825.574	38.74
825.751	32.6
825.929	81.75
826.107	-24.75
826.284	38.74
826.462	69.46
826.639	-123.05
826.817	-26.79
826.994	22.36
827.172	-28.84
827.349	173.91
827.527	55.12
827.704	20.31
827.882	112.47
828.059	57.17
828.237	-24.75
828.414	108.37
828.591	-26.79
828.769	-12.46
828.946	-24.75
829.124	48.98
829.301	32.6
829.478	14.17
829.655	100.18
829.833	10.07
830.01	-47.27
830.187	24.4
830.364	73.56
830.542	-39.08
830.719	186.19
830.896	24.4
831.073	57.17
831.25	145.24
831.427	108.37
831.604	28.5
831.782	53.08
831.959	14.17
832.136	16.21
832.313	38.74
832.49	73.56
832.667	112.47
832.844	-104.62
833.021	122.71
833.198	38.74
833.374	-12.46
833.551	40.79
833.728	-41.13
833.905	18.26
834.082	-108.71
834.259	57.17
834.436	139.09
834.612	20.31
834.789	71.51
834.966	-43.18
835.143	34.64
835.319	-39.08
835.496	63.32
835.673	24.4
835.85	141.14
836.026	124.76
836.203	63.32
836.38	-39.08
836.556	30.55
836.733	-61.61
836.909	96.08
837.086	-0.17
837.262	-82.09
837.439	-39.08
837.616	-32.94
837.792	10.07
837.968	48.98
838.145	-55.47
838.321	28.5
838.498	59.22
838.674	32.6
838.851	57.17
839.027	-30.89
839.203	-12.46
839.38	57.17
839.556	5.97
839.732	69.46
839.909	67.41
840.085	98.13
840.261	-90.28
840.437	77.65
840.614	30.55
840.79	147.28
840.966	87.89
841.142	87.89
841.318	-16.55
841.494	36.69
841.671	89.94
841.847	-63.66
842.023	-57.51
842.199	65.36
842.375	132.95
842.551	-55.47
842.727	-37.03
842.903	143.19
843.079	-55.47
843.255	141.14
843.431	79.7
843.607	112.47
843.783	-84.14
843.959	143.19
844.134	14.17
844.31	139.09
844.486	48.98
844.662	-41.13
844.838	12.12
845.013	38.74
845.189	118.61
845.365	57.17
845.541	32.6
845.716	55.12
845.892	59.22
846.068	8.02
846.244	22.36
846.419	61.27
846.595	-10.41
846.77	-4.27
846.946	69.46
847.122	-34.99
847.297	34.64
847.473	91.99
847.648	-125.1
847.824	75.6
847.999	-100.52
848.175	71.51
848.35	55.12
848.526	79.7
848.701	100.18
848.876	128.85
849.052	65.36
849.227	-6.31
849.403	16.21
849.578	-6.31
849.753	59.22
849.929	48.98
850.104	-20.65
850.279	10.07
850.454	96.08
850.63	26.45
850.805	75.6
850.98	75.6
851.155	-14.51
851.33	30.55
851.505	-77.99
851.681	182.1
851.856	-59.56
852.031	96.08
852.206	-22.7
852.381	-18.6
852.556	8.02
852.731	14.17
852.906	51.03
853.081	61.27
853.256	36.69
853.431	22.36
853.606	32.6
853.781	-45.23
853.956	-82.09
854.131	36.69
854.305	-61.61
854.48	-82.09
854.655	-94.38
854.83	-45.23
855.005	53.08
855.18	57.17
855.354	14.17
855.529	65.36
855.704	14.17
855.879	65.36
856.053	-12.46
856.228	87.89
856.403	-30.89
856.577	30.55
856.752	-45.23
856.926	67.41
857.101	87.89
857.276	-71.85
857.45	55.12
857.625	110.42
857.799	55.12
857.974	-6.31
858.148	-67.75
858.323	12.12
858.497	-34.99
858.672	-75.95
858.846	63.32
859.02	102.23
859.195	-28.84
859.369	-20.65
859.543	40.79
859.718	-12.46
859.892	32.6
860.066	-28.84
860.241	-69.8
860.415	-14.51
860.589	-4.27
860.763	12.12
860.938	46.93
861.112	-24.75
861.286	-63.66
861.46	79.7
861.634	-65.71
861.808	12.12
861.982	-12.46
862.157	-37.03
862.331	-30.89
862.505	-71.85
862.679	-168.1
862.853	-55.47
863.027	-4.27
863.201	-4.27
863.375	-55.47
863.549	44.88
863.722	26.45
863.896	91.99
864.07	-49.32
864.244	-28.84
864.418	83.8
864.592	51.03
864.766	1.88
864.939	51.03
865.113	-71.85
865.287	186.19
865.461	18.26
865.634	-51.37
865.808	118.61
865.982	-26.79
866.156	-104.62
866.329	-116.9
866.503	14.17
866.676	116.56
866.85	51.03
867.024	-12.46
867.197	46.93
867.371	26.45
867.544	24.4
867.718	-24.75
867.891	104.28
868.065	-108.71
868.238	71.51
868.412	79.7
868.585	63.32
868.759	-59.56
868.932	-71.85
869.105	-2.22
869.279	55.12
869.452	26.45
869.625	-10.41
869.799	-24.75
869.972	-47.27
870.145	-39.08
870.319	79.7
870.492	-49.32
870.665	1.88
870.838	-18.6
871.011	-176.3
871.185	-14.51
871.358	-75.95
871.531	59.22
871.704	-28.84
871.877	32.6
872.05	24.4
872.223	-82.09
872.396	46.93
872.569	57.17
872.742	10.07
872.915	-41.13
873.088	-4.27
873.261	-84.14
873.434	38.74
873.607	-2.22
873.78	135
873.953	-57.51
874.126	102.23
874.299	65.36
874.471	-73.9
874.644	-75.95
874.817	53.08
874.99	79.7
875.163	51.03
875.335	-8.36
875.508	79.7
875.681	53.08
875.853	24.4
876.026	-20.65
876.199	46.93
876.371	28.5
876.544	-86.19
876.717	46.93
876.889	-114.86
877.062	12.12
877.234	-121
877.407	5.97
877.579	-41.13
877.752	8.02
877.924	108.37
878.097	69.46
878.269	91.99
878.442	55.12
878.614	110.42
878.786	22.36
878.959	28.5
879.131	57.17
879.303	-88.23
879.476	8.02
879.648	59.22
879.82	96.08
879.993	44.88
880.165	-10.41
880.337	-88.23
880.509	63.32
880.681	-116.9
880.854	32.6
881.026	98.13
881.198	216.91
881.37	-45.23
881.542	-20.65
881.714	83.8
881.886	3.93
882.058	-2.22
882.23	-39.08
882.402	85.84
882.574	28.5
882.746	114.52
882.918	63.32
883.09	36.69
883.262	-12.46
883.434	-8.36
883.606	-131.24
883.778	-16.55
883.95	102.23
884.122	-73.9
884.293	159.57
884.465	24.4
884.637	112.47
884.809	-84.14
884.98	14.17
885.152	42.84
885.324	46.93
885.496	-61.61
885.667	-59.56
885.839	57.17
886.011	65.36
886.182	71.51
886.354	96.08
886.525	28.5
886.697	-0.17
886.869	-6.31
887.04	1.88
887.212	67.41
887.383	126.8
887.555	40.79
887.726	-34.99
887.897	67.41
888.069	1.88
888.24	104.28
888.412	34.64
888.583	-51.37
888.754	40.79
888.926	-98.47
889.097	53.08
889.268	-57.51
889.44	63.32
889.611	-39.08
889.782	-88.23
889.953	-47.27
890.125	112.47
890.296	-57.51
890.467	-24.75
890.638	-10.41
890.809	-22.7
890.98	-116.9
891.151	83.8
891.323	110.42
891.494	102.23
891.665	73.56
891.836	5.97
892.007	32.6
892.178	36.69
892.349	-34.99
892.52	-43.18
892.691	-4.27
892.862	-47.27
893.032	-63.66
893.203	-118.95
893.374	65.36
893.545	139.09
893.716	-28.84
893.887	61.27
894.057	-98.47
894.228	-22.7
894.399	28.5
894.57	104.28
894.74	-61.61
894.911	85.84
895.082	18.26
895.253	-0.17
895.423	-32.94
895.594	63.32
895.764	3.93
895.935	-98.47
896.106	-4.27
896.276	12.12
896.447	26.45
896.617	-67.75
896.788	-34.99
896.958	-16.55
897.129	-8.36
897.299	-16.55
897.47	122.71
897.64	16.21
897.81	-18.6
897.981	-14.51
898.151	-65.71
898.322	22.36
898.492	28.5
898.662	-73.9
898.832	-82.09
899.003	-43.18
899.173	59.22
899.343	8.02
899.513	-22.7
