Data from USB4F104151__0__09-24-00-349.txt Node

Date: Wed Feb 26 09:24:00 EST 2025
User: louis
Spectrometer: USB4F10415
Trigger mode: 4
Integration Time (sec): 1.000000E-1
Scans to average: 1
Electric dark correction enabled: true
Nonlinearity correction enabled: false
Boxcar width: 0
XAxis mode: Wavelengths
Number of Pixels in Spectrum: 3648
>>>>>Begin Spectral Data<<<<<
178.204	-346.79
178.424	-346.79
178.644	-346.79
178.864	-342.69
179.084	-332.45
179.304	56.66
179.524	-74.41
179.744	-51.88
179.964	48.47
180.184	15.7
180.404	-23.21
180.624	-12.97
180.844	32.08
181.064	-29.35
181.283	30.04
181.503	-119.46
181.723	128.34
181.943	-176.81
182.163	32.08
182.383	32.08
182.602	48.47
182.822	85.33
183.042	50.52
183.262	-78.51
183.482	-47.79
183.701	-21.16
183.921	-12.97
184.141	-82.6
184.361	101.72
184.58	60.76
184.8	25.94
185.02	3.41
185.239	128.34
185.459	-68.27
185.679	83.28
185.898	-103.08
186.118	30.04
186.338	3.41
186.557	83.28
186.777	-23.21
186.997	42.32
187.216	-6.83
187.436	173.39
187.655	60.76
187.875	-12.97
188.095	42.32
188.314	66.9
188.534	109.91
188.753	-45.74
188.973	56.66
189.192	97.62
189.412	3.41
189.631	11.61
189.851	30.04
190.07	216.4
190.29	-76.46
190.509	-21.16
190.729	-8.87
190.948	91.48
191.168	281.94
191.387	75.09
191.607	27.99
191.826	36.18
192.045	44.37
192.265	-43.69
192.484	-21.16
192.704	-62.12
192.923	-31.4
193.142	130.39
193.362	-0.68
193.581	107.86
193.8	109.91
194.02	64.85
194.239	32.08
194.458	56.66
194.678	19.8
194.897	1.37
195.116	54.61
195.335	36.18
195.555	34.13
195.774	3.41
195.993	81.24
196.212	9.56
196.432	-98.99
196.651	-58.03
196.87	23.89
197.089	183.63
197.308	99.67
197.528	-0.68
197.747	-37.55
197.966	-21.16
198.185	116.05
198.404	-72.36
198.623	97.62
198.842	87.38
199.062	81.24
199.281	75.09
199.5	52.56
199.719	-21.16
199.938	5.46
200.157	93.52
200.376	91.48
200.595	23.89
200.814	-4.78
201.033	-41.64
201.252	77.14
201.471	-37.55
201.69	42.32
201.909	19.8
202.128	101.72
202.347	58.71
202.566	-78.51
202.785	-82.6
203.004	-123.56
203.223	191.83
203.442	-6.83
203.661	-88.75
203.879	34.13
204.098	17.75
204.317	81.24
204.536	56.66
204.755	60.76
204.974	64.85
205.193	40.28
205.411	105.81
205.63	68.95
205.849	23.89
206.068	-21.16
206.287	-58.03
206.505	163.15
206.724	-70.31
206.943	13.65
207.162	-41.64
207.381	97.62
207.599	-49.83
207.818	3.41
208.037	-21.16
208.255	9.56
208.474	83.28
208.693	32.08
208.911	-29.35
209.13	134.48
209.349	48.47
209.567	17.75
209.786	91.48
210.005	77.14
210.223	58.71
210.442	-62.12
210.661	38.23
210.879	-10.92
211.098	-37.55
211.316	148.82
211.535	52.56
211.753	54.61
211.972	56.66
212.191	36.18
212.409	-4.78
212.628	36.18
212.846	-45.74
213.065	66.9
213.283	83.28
213.502	-10.92
213.72	7.51
213.938	42.32
214.157	-25.26
214.375	60.76
214.594	-21.16
214.812	91.48
215.031	-0.68
215.249	21.85
215.467	85.33
215.686	-35.5
215.904	-78.51
216.122	15.7
216.341	130.39
216.559	-37.55
216.778	109.91
216.996	60.76
217.214	40.28
217.432	-29.35
217.651	-92.84
217.869	109.91
218.087	15.7
218.306	-37.55
218.524	23.89
218.742	-43.69
218.96	46.42
219.179	-33.45
219.397	-25.26
219.615	245.07
219.833	60.76
220.051	-37.55
220.27	107.86
220.488	79.19
220.706	-49.83
220.924	-51.88
221.142	25.94
221.36	3.41
221.578	-25.26
221.796	15.7
222.015	-12.97
222.233	-39.59
222.451	132.44
222.669	-31.4
222.887	36.18
223.105	3.41
223.323	27.99
223.541	-154.28
223.759	-6.83
223.977	-19.11
224.195	138.58
224.413	34.13
224.631	25.94
224.849	68.95
225.067	159.06
225.285	-31.4
225.503	-47.79
225.721	-133.8
225.939	40.28
226.157	58.71
226.375	226.64
226.592	3.41
226.81	-4.78
227.028	93.52
227.246	132.44
227.464	83.28
227.682	97.62
227.9	27.99
228.117	62.8
228.335	68.95
228.553	50.52
228.771	27.99
228.989	7.51
229.206	68.95
229.424	-27.31
229.642	-94.89
229.86	-12.97
230.077	150.87
230.295	60.76
230.513	93.52
230.731	-8.87
230.948	118.1
231.166	134.48
231.384	-107.18
231.601	-4.78
231.819	71
232.037	-109.22
232.254	-41.64
232.472	-21.16
232.689	1.37
232.907	73.04
233.125	-10.92
233.342	-137.9
233.56	-86.7
233.777	-29.35
233.995	46.42
234.213	68.95
234.43	60.76
234.648	-45.74
234.865	7.51
235.083	36.18
235.3	34.13
235.518	73.04
235.735	169.3
235.953	19.8
236.17	13.65
236.388	15.7
236.605	27.99
236.822	116.05
237.04	101.72
237.257	-12.97
237.475	-29.35
237.692	-51.88
237.909	93.52
238.127	23.89
238.344	15.7
238.562	64.85
238.779	-70.31
238.996	-123.56
239.214	40.28
239.431	73.04
239.648	-37.55
239.865	30.04
240.083	101.72
240.3	-15.02
240.517	-88.75
240.735	-0.68
240.952	58.71
241.169	11.61
241.386	77.14
241.603	9.56
241.821	-60.07
242.038	85.33
242.255	79.19
242.472	44.37
242.689	60.76
242.907	38.23
243.124	54.61
243.341	-8.87
243.558	3.41
243.775	-41.64
243.992	-39.59
244.209	-27.31
244.426	116.05
244.643	85.33
244.86	19.8
245.078	89.43
245.295	126.29
245.512	7.51
245.729	-39.59
245.946	21.85
246.163	132.44
246.38	-55.98
246.597	-25.26
246.814	11.61
247.031	-82.6
247.248	-21.16
247.464	3.41
247.681	3.41
247.898	50.52
248.115	75.09
248.332	-88.75
248.549	50.52
248.766	21.85
248.983	27.99
249.2	103.76
249.417	93.52
249.633	-37.55
249.85	7.51
250.067	-4.78
250.284	9.56
250.501	118.1
250.717	68.95
250.934	7.51
251.151	-15.02
251.368	44.37
251.585	25.94
251.801	-25.26
252.018	48.47
252.235	116.05
252.451	-70.31
252.668	1.37
252.885	60.76
253.102	60.76
253.318	-33.45
253.535	-8.87
253.752	-39.59
253.968	-4.78
254.185	25.94
254.401	-25.26
254.618	58.71
254.835	-62.12
255.051	44.37
255.268	148.82
255.484	19.8
255.701	42.32
255.917	95.57
256.134	-10.92
256.351	75.09
256.567	71
256.784	83.28
257	7.51
257.217	5.46
257.433	87.38
257.65	56.66
257.866	58.71
258.082	-60.07
258.299	-29.35
258.515	11.61
258.732	-72.36
258.948	-21.16
259.165	-8.87
259.381	-60.07
259.597	-8.87
259.814	19.8
260.03	27.99
260.246	19.8
260.463	13.65
260.679	99.67
260.895	52.56
261.112	11.61
261.328	-66.22
261.544	1.37
261.761	159.06
261.977	-66.22
262.193	-23.21
262.409	40.28
262.626	36.18
262.842	-41.64
263.058	-37.55
263.274	32.08
263.49	3.41
263.707	169.3
263.923	34.13
264.139	-94.89
264.355	-12.97
264.571	116.05
264.787	23.89
265.004	85.33
265.22	11.61
265.436	-127.66
265.652	-21.16
265.868	40.28
266.084	-68.27
266.3	44.37
266.516	-74.41
266.732	7.51
266.948	42.32
267.164	-64.17
267.38	68.95
267.596	-19.11
267.812	165.2
268.028	40.28
268.244	-23.21
268.46	91.48
268.676	5.46
268.892	15.7
269.108	-19.11
269.324	9.56
269.54	-80.55
269.756	50.52
269.972	44.37
270.188	-21.16
270.403	-64.17
270.619	-10.92
270.835	79.19
271.051	89.43
271.267	-23.21
271.483	-45.74
271.698	23.89
271.914	-6.83
272.13	36.18
272.346	13.65
272.562	32.08
272.777	73.04
272.993	-23.21
273.209	-94.89
273.425	-12.97
273.64	-58.03
273.856	101.72
274.072	-82.6
274.287	-15.02
274.503	-37.55
274.719	25.94
274.934	-4.78
275.15	-55.98
275.366	-6.83
275.581	-2.73
275.797	36.18
276.012	15.7
276.228	-78.51
276.444	-6.83
276.659	124.24
276.875	-35.5
277.09	83.28
277.306	19.8
277.521	34.13
277.737	81.24
277.952	105.81
278.168	17.75
278.383	50.52
278.599	-4.78
278.814	122.2
279.03	-78.51
279.245	114
279.461	15.7
279.676	44.37
279.892	-31.4
280.107	-86.7
280.322	44.37
280.538	52.56
280.753	-4.78
280.969	48.47
281.184	15.7
281.399	101.72
281.615	-25.26
281.83	19.8
282.045	-21.16
282.26	-6.83
282.476	7.51
282.691	19.8
282.906	9.56
283.122	-4.78
283.337	-39.59
283.552	44.37
283.767	-21.16
283.983	32.08
284.198	11.61
284.413	1.37
284.628	-187.05
284.843	-29.35
285.058	-6.83
285.274	19.8
285.489	-23.21
285.704	36.18
285.919	36.18
286.134	-12.97
286.349	107.86
286.564	-49.83
286.779	54.61
286.995	17.75
287.21	-39.59
287.425	81.24
287.64	25.94
287.855	40.28
288.07	-33.45
288.285	91.48
288.5	36.18
288.715	87.38
288.93	68.95
289.145	-49.83
289.36	171.35
289.575	1.37
289.79	85.33
290.004	-27.31
290.219	38.23
290.434	-47.79
290.649	1.37
290.864	-72.36
291.079	36.18
291.294	-21.16
291.509	64.85
291.724	-90.79
291.938	36.18
292.153	-25.26
292.368	48.47
292.583	42.32
292.798	134.48
293.012	9.56
293.227	83.28
293.442	23.89
293.657	68.95
293.871	138.58
294.086	25.94
294.301	116.05
294.516	93.52
294.73	13.65
294.945	-53.93
295.16	36.18
295.374	79.19
295.589	93.52
295.804	-55.98
296.018	142.68
296.233	101.72
296.447	-2.73
296.662	23.89
296.877	111.96
297.091	89.43
297.306	-21.16
297.52	-64.17
297.735	-39.59
297.949	60.76
298.164	89.43
298.378	-58.03
298.593	-33.45
298.807	-8.87
299.022	38.23
299.236	175.44
299.451	9.56
299.665	19.8
299.88	-8.87
300.094	-29.35
300.309	-21.16
300.523	77.14
300.737	-72.36
300.952	1.37
301.166	15.7
301.381	11.61
301.595	-64.17
301.809	68.95
302.024	-51.88
302.238	-12.97
302.452	48.47
302.667	36.18
302.881	75.09
303.095	15.7
303.309	-2.73
303.524	9.56
303.738	11.61
303.952	-45.74
304.166	34.13
304.381	-86.7
304.595	130.39
304.809	23.89
305.023	89.43
305.237	-0.68
305.452	48.47
305.666	21.85
305.88	-17.07
306.094	40.28
306.308	77.14
306.522	36.18
306.736	9.56
306.95	11.61
307.164	34.13
307.379	-21.16
307.593	130.39
307.807	77.14
308.021	73.04
308.235	60.76
308.449	-49.83
308.663	75.09
308.877	150.87
309.091	111.96
309.305	77.14
309.519	-78.51
309.733	77.14
309.947	-12.97
310.161	34.13
310.374	34.13
310.588	-0.68
310.802	-55.98
311.016	-19.11
311.23	50.52
311.444	-27.31
311.658	9.56
311.872	81.24
312.085	32.08
312.299	87.38
312.513	81.24
312.727	-12.97
312.941	-23.21
313.154	48.47
313.368	-17.07
313.582	32.08
313.796	58.71
314.009	-31.4
314.223	85.33
314.437	7.51
314.651	9.56
314.864	-17.07
315.078	7.51
315.292	-123.56
315.505	-25.26
315.719	87.38
315.933	66.9
316.146	-45.74
316.36	-53.93
316.573	99.67
316.787	44.37
317.001	126.29
317.214	-21.16
317.428	-12.97
317.641	3.41
317.855	-43.69
318.068	27.99
318.282	3.41
318.495	132.44
318.709	73.04
318.922	-2.73
319.136	99.67
319.349	116.05
319.563	79.19
319.776	81.24
319.99	-125.61
320.203	32.08
320.417	19.8
320.63	32.08
320.843	165.2
321.057	-2.73
321.27	11.61
321.483	109.91
321.697	38.23
321.91	3.41
322.124	56.66
322.337	71
322.55	-4.78
322.763	-29.35
322.977	-12.97
323.19	-29.35
323.403	-12.97
323.617	81.24
323.83	5.46
324.043	9.56
324.256	66.9
324.469	-37.55
324.683	85.33
324.896	1.37
325.109	5.46
325.322	-41.64
325.535	-4.78
325.748	23.89
325.962	13.65
326.175	138.58
326.388	-4.78
326.601	77.14
326.814	-55.98
327.027	-12.97
327.24	91.48
327.453	-70.31
327.666	116.05
327.879	114
328.092	52.56
328.305	138.58
328.518	-0.68
328.731	3.41
328.944	5.46
329.157	-0.68
329.37	13.65
329.583	107.86
329.796	118.1
330.009	-62.12
330.222	-8.87
330.435	73.04
330.648	56.66
330.861	44.37
331.073	95.57
331.286	109.91
331.499	34.13
331.712	-41.64
331.925	42.32
332.138	-4.78
332.35	95.57
332.563	-31.4
332.776	77.14
332.989	-2.73
333.202	19.8
333.414	17.75
333.627	50.52
333.84	-70.31
334.053	66.9
334.265	-8.87
334.478	-66.22
334.691	126.29
334.903	27.99
335.116	-70.31
335.329	19.8
335.541	144.72
335.754	165.2
335.966	9.56
336.179	-12.97
336.392	56.66
336.604	1.37
336.817	177.49
337.029	40.28
337.242	-45.74
337.454	79.19
337.667	-4.78
337.88	40.28
338.092	105.81
338.305	81.24
338.517	1.37
338.729	19.8
338.942	36.18
339.154	-15.02
339.367	-31.4
339.579	19.8
339.792	-15.02
340.004	44.37
340.217	19.8
340.429	-15.02
340.641	-80.55
340.854	95.57
341.066	21.85
341.278	32.08
341.491	95.57
341.703	52.56
341.915	-58.03
342.128	52.56
342.34	66.9
342.552	-21.16
342.764	-8.87
342.977	5.46
343.189	-2.73
343.401	13.65
343.613	-8.87
343.826	-92.84
344.038	-6.83
344.25	52.56
344.462	-53.93
344.674	-41.64
344.886	32.08
345.099	27.99
345.311	38.23
345.523	-47.79
345.735	-37.55
345.947	17.75
346.159	-27.31
346.371	7.51
346.583	50.52
346.795	175.44
347.007	42.32
347.219	11.61
347.431	30.04
347.643	71
347.855	-62.12
348.067	154.96
348.279	-47.79
348.491	42.32
348.703	34.13
348.915	1.37
349.127	-12.97
349.339	81.24
349.551	85.33
349.763	44.37
349.975	-15.02
350.187	89.43
350.399	56.66
350.61	73.04
350.822	-49.83
351.034	34.13
351.246	68.95
351.458	32.08
351.669	77.14
351.881	77.14
352.093	134.48
352.305	-10.92
352.517	56.66
352.728	109.91
352.94	-21.16
353.152	-31.4
353.363	-51.88
353.575	34.13
353.787	85.33
353.999	114
354.21	136.53
354.422	-12.97
354.633	-37.55
354.845	56.66
355.057	81.24
355.268	73.04
355.48	68.95
355.692	-78.51
355.903	-47.79
356.115	-47.79
356.326	-127.66
356.538	83.28
356.749	23.89
356.961	126.29
357.172	-29.35
357.384	-12.97
357.595	120.15
357.807	-8.87
358.018	25.94
358.23	50.52
358.441	93.52
358.653	85.33
358.864	11.61
359.075	5.46
359.287	95.57
359.498	66.9
359.709	58.71
359.921	36.18
360.132	23.89
360.344	44.37
360.555	-33.45
360.766	120.15
360.977	-23.21
361.189	-31.4
361.4	32.08
361.611	85.33
361.823	132.44
362.034	-6.83
362.245	-53.93
362.456	-0.68
362.667	62.8
362.879	9.56
363.09	81.24
363.301	42.32
363.512	3.41
363.723	-41.64
363.935	-49.83
364.146	85.33
364.357	-70.31
364.568	25.94
364.779	-80.55
364.99	111.96
365.201	-45.74
365.412	105.81
365.623	-96.94
365.834	56.66
366.045	-37.55
366.256	62.8
366.467	64.85
366.678	-21.16
366.889	11.61
367.1	-60.07
367.311	68.95
367.522	-4.78
367.733	75.09
367.944	146.77
368.155	-10.92
368.366	56.66
368.577	109.91
368.788	42.32
368.999	-55.98
369.209	66.9
369.42	189.78
369.631	77.14
369.842	101.72
370.053	-23.21
370.264	62.8
370.474	1.37
370.685	34.13
370.896	32.08
371.107	81.24
371.317	-41.64
371.528	-51.88
371.739	62.8
371.95	58.71
372.16	52.56
372.371	-12.97
372.582	-45.74
372.792	32.08
373.003	23.89
373.214	38.23
373.424	46.42
373.635	3.41
373.846	87.38
374.056	27.99
374.267	5.46
374.477	17.75
374.688	-72.36
374.898	-4.78
375.109	-47.79
375.319	62.8
375.53	60.76
375.74	77.14
375.951	-0.68
376.161	142.68
376.372	81.24
376.582	-15.02
376.793	11.61
377.003	27.99
377.214	1.37
377.424	1.37
377.635	66.9
377.845	-66.22
378.055	73.04
378.266	-94.89
378.476	17.75
378.686	66.9
378.897	85.33
379.107	107.86
379.317	93.52
379.528	5.46
379.738	132.44
379.948	-41.64
380.158	105.81
380.369	15.7
380.579	34.13
380.789	60.76
380.999	56.66
381.21	64.85
381.42	118.1
381.63	-27.31
381.84	9.56
382.05	40.28
382.261	54.61
382.471	42.32
382.681	-25.26
382.891	154.96
383.101	60.76
383.311	-43.69
383.521	30.04
383.731	118.1
383.941	48.47
384.151	32.08
384.361	-8.87
384.571	68.95
384.781	-4.78
384.991	75.09
385.201	138.58
385.411	71
385.621	25.94
385.831	85.33
386.041	-37.55
386.251	-4.78
386.461	60.76
386.671	-43.69
386.881	19.8
387.091	48.47
387.301	95.57
387.511	-12.97
387.72	93.52
387.93	85.33
388.14	-33.45
388.35	-12.97
388.56	126.29
388.769	71
388.979	5.46
389.189	-39.59
389.399	3.41
389.609	48.47
389.818	107.86
390.028	1.37
390.238	68.95
390.447	19.8
390.657	-0.68
390.867	-19.11
391.076	-66.22
391.286	50.52
391.496	44.37
391.705	15.7
391.915	23.89
392.125	5.46
392.334	-12.97
392.544	52.56
392.753	19.8
392.963	-62.12
393.172	42.32
393.382	3.41
393.591	71
393.801	15.7
394.01	116.05
394.22	40.28
394.429	15.7
394.639	-29.35
394.848	-6.83
395.058	60.76
395.267	34.13
395.477	66.9
395.686	44.37
395.895	150.87
396.105	191.83
396.314	114
396.524	-29.35
396.733	-29.35
396.942	79.19
397.152	77.14
397.361	54.61
397.57	15.7
397.78	71
397.989	40.28
398.198	95.57
398.407	-2.73
398.617	-15.02
398.826	-4.78
399.035	-15.02
399.244	42.32
399.453	-10.92
399.663	81.24
399.872	44.37
400.081	-51.88
400.29	68.95
400.499	-68.27
400.708	-6.83
400.917	36.18
401.127	34.13
401.336	-41.64
401.545	120.15
401.754	109.91
401.963	114
402.172	-17.07
402.381	-19.11
402.59	36.18
402.799	-6.83
403.008	-12.97
403.217	38.23
403.426	15.7
403.635	-58.03
403.844	3.41
404.053	-64.17
404.262	-17.07
404.471	56.66
404.68	56.66
404.888	52.56
405.097	32.08
405.306	58.71
405.515	36.18
405.724	52.56
405.933	134.48
406.142	66.9
406.35	81.24
406.559	7.51
406.768	44.37
406.977	77.14
407.185	9.56
407.394	32.08
407.603	-90.79
407.812	13.65
408.02	85.33
408.229	36.18
408.438	64.85
408.646	5.46
408.855	7.51
409.064	25.94
409.272	-12.97
409.481	68.95
409.69	-15.02
409.898	13.65
410.107	52.56
410.315	132.44
410.524	19.8
410.733	44.37
410.941	-2.73
411.15	93.52
411.358	75.09
411.567	48.47
411.775	15.7
411.984	56.66
412.192	73.04
412.401	-15.02
412.609	132.44
412.818	132.44
413.026	5.46
413.234	-78.51
413.443	15.7
413.651	-12.97
413.86	15.7
414.068	44.37
414.276	175.44
414.485	3.41
414.693	146.77
414.901	140.63
415.11	13.65
415.318	64.85
415.526	-37.55
415.734	27.99
415.943	42.32
416.151	116.05
416.359	25.94
416.567	60.76
416.776	68.95
416.984	54.61
417.192	130.39
417.4	56.66
417.608	66.9
417.817	-27.31
418.025	27.99
418.233	97.62
418.441	-80.55
418.649	-31.4
418.857	77.14
419.065	118.1
419.273	23.89
419.481	66.9
419.689	-53.93
419.897	23.89
420.105	-58.03
420.313	58.71
420.521	122.2
420.729	138.58
420.937	-15.02
421.145	11.61
421.353	124.24
421.561	142.68
421.769	11.61
421.977	-12.97
422.185	62.8
422.393	81.24
422.601	114
422.809	83.28
423.017	93.52
423.224	58.71
423.432	101.72
423.64	40.28
423.848	99.67
424.056	15.7
424.263	77.14
424.471	23.89
424.679	157.01
424.887	-58.03
425.094	163.15
425.302	64.85
425.51	-29.35
425.718	36.18
425.925	34.13
426.133	-33.45
426.341	204.11
426.548	17.75
426.756	85.33
426.964	40.28
427.171	-4.78
427.379	56.66
427.586	95.57
427.794	83.28
428.001	130.39
428.209	138.58
428.417	140.63
428.624	212.31
428.832	85.33
429.039	42.32
429.247	79.19
429.454	81.24
429.662	216.4
429.869	118.1
430.076	144.72
430.284	118.1
430.491	218.45
430.699	148.82
430.906	161.11
431.114	77.14
431.321	85.33
431.528	132.44
431.736	142.68
431.943	150.87
432.15	144.72
432.358	204.11
432.565	159.06
432.772	60.76
432.979	181.59
433.187	42.32
433.394	222.55
433.601	150.87
433.808	247.12
434.016	216.4
434.223	251.22
434.43	208.21
434.637	150.87
434.844	202.07
435.052	181.59
435.259	185.68
435.466	277.84
435.673	251.22
435.88	208.21
436.087	339.28
436.294	273.75
436.501	247.12
436.708	240.98
436.915	326.99
437.122	312.66
437.329	269.65
437.537	355.66
437.743	370
437.95	347.47
438.157	396.62
438.364	343.38
438.571	398.67
438.778	400.72
438.985	445.77
439.192	392.53
439.399	521.55
439.606	494.93
439.813	535.89
440.02	525.65
440.227	646.48
440.433	585.04
440.64	617.8
440.847	542.03
441.054	578.89
441.261	724.3
441.467	666.96
441.674	595.28
441.881	736.59
442.088	658.76
442.294	734.54
442.501	789.83
442.708	787.79
442.914	683.34
443.121	808.27
443.328	920.9
443.534	927.05
443.741	992.58
443.948	914.76
444.154	998.73
444.361	1181
444.568	1109.32
444.774	1158.47
444.981	1107.27
445.187	1226.05
445.394	1119.56
445.6	1156.42
445.807	1355.07
446.013	1363.26
446.22	1291.59
446.426	1492.29
446.633	1557.82
446.839	1674.56
447.046	1516.86
447.252	1801.53
447.459	1633.6
447.665	1766.71
447.871	1895.74
448.078	1926.46
448.284	2082.1
448.491	2045.24
448.697	2108.73
448.903	2321.71
449.11	2254.13
449.316	2295.09
449.522	2563.37
449.728	2637.1
449.935	2686.25
450.141	2712.88
450.347	2901.29
450.553	2794.79
450.76	2950.44
450.966	3124.52
451.172	3149.09
451.378	3310.88
451.584	3448.1
451.791	3624.22
451.997	3673.37
452.203	3833.11
452.409	4017.43
452.615	4119.83
452.821	4111.64
453.027	4185.37
453.233	4621.58
453.44	4556.05
453.646	4689.17
453.852	5047.56
454.058	5223.69
454.264	5385.48
454.47	5784.83
454.676	5754.11
454.882	6241.53
455.088	5805.31
455.294	6155.51
455.5	6706.41
455.705	6866.16
455.911	6794.48
456.117	7179.5
456.323	7449.83
456.529	7599.33
456.735	8199.38
456.941	8379.61
457.147	8756.43
457.352	8983.76
457.558	9069.77
457.764	9659.59
457.97	10091.71
458.176	10198.2
458.381	10939.57
458.587	11228.33
458.793	11812
458.999	11809.95
459.204	12969.1
459.41	13601.93
459.616	13292.68
459.821	14267.52
460.027	14572.66
460.233	15436.91
460.438	15539.3
460.644	16520.28
460.85	16553.05
461.055	17325.13
461.261	17947.72
461.466	17820.74
461.672	18209.86
461.878	20257.82
462.083	19901.48
462.289	20431.9
462.494	21232.66
462.7	21568.52
462.905	21672.97
463.111	23393.26
463.316	24505.31
463.522	25052.12
463.727	25875.4
463.932	26969.02
464.138	27710.38
464.343	28588.96
464.549	28818.33
464.754	30927.74
464.959	31525.75
465.165	32023.4
465.37	32308.07
465.575	31982.45
465.781	34050.89
465.986	35345.21
466.191	34499.4
466.397	35287.87
466.602	34335.56
466.807	36172.59
467.012	36778.79
467.218	37522.2
467.423	37491.48
467.628	38572.81
467.833	40307.44
468.038	39527.16
468.244	39039.75
468.449	41009.89
468.654	40170.22
468.859	40110.83
469.064	40231.66
469.269	38851.33
469.474	39353.08
469.679	40596.2
469.885	39150.34
470.09	39906.04
470.295	39895.8
470.5	39035.65
470.705	39576.31
470.91	38607.62
471.115	37884.69
471.32	38695.69
471.525	38261.52
471.73	37116.7
471.935	36764.45
472.139	35658.55
472.344	35652.41
472.549	35812.15
472.754	34702.15
472.959	33966.93
473.164	32564.07
473.369	32363.37
473.574	33405.78
473.778	32936.8
473.983	32037.74
474.188	31150.97
474.393	29926.28
474.598	29934.48
474.802	29354.9
475.007	28799.9
475.212	28627.87
475.417	27710.38
475.621	27227.06
475.826	27339.7
476.031	26334.15
476.235	25850.83
476.44	25844.68
476.645	24992.73
476.849	25115.61
477.054	24531.94
477.259	23845.87
477.463	23755.75
477.668	23022.58
477.872	23141.36
478.077	22481.92
478.282	22111.24
478.486	22043.65
478.691	21482.51
478.895	21244.95
479.1	21257.23
479.304	21320.72
479.509	20548.64
479.713	20605.98
479.918	20362.27
480.122	19706.92
480.326	20124.71
480.531	20104.23
480.735	19373.1
480.94	19268.66
481.144	20206.62
481.348	18811.96
481.553	19141.68
481.757	18287.68
481.961	18830.39
482.166	18656.31
482.37	18717.75
482.574	18295.87
482.778	18134.08
482.983	18373.69
483.187	18050.11
483.391	17921.09
483.595	17519.69
483.8	17167.44
484.004	17431.63
484.208	17261.65
484.412	16899.16
484.616	16770.13
484.821	16651.35
485.025	16292.96
485.229	16766.04
485.433	16143.45
485.637	15871.08
485.841	15610.98
486.045	15516.78
486.249	15189.1
486.453	15338.6
486.657	14996.59
486.861	14976.11
487.065	14230.65
487.269	14238.84
487.473	13866.11
487.677	13907.07
487.881	13843.59
488.085	13313.16
488.289	13190.28
488.493	12760.21
488.697	12784.79
488.901	12475.54
489.105	12350.62
489.309	12076.19
489.512	11928.74
489.716	11836.58
489.92	11455.65
490.124	11340.97
490.328	11230.38
490.531	10884.27
490.735	10751.15
490.939	10636.47
491.143	10286.26
491.346	9989.31
491.55	10308.79
491.754	10034.36
491.958	9817.28
492.161	9624.77
492.365	9667.78
492.569	9389.25
492.772	9168.07
492.976	8981.71
493.18	9069.77
493.383	8768.72
493.587	8651.99
493.79	8875.21
493.994	8457.43
494.197	8586.45
494.401	8504.53
494.605	8324.31
494.808	8291.54
495.012	8129.75
495.215	8107.23
495.419	8246.49
495.622	8068.31
495.825	8178.9
496.029	7970.01
496.232	8185.05
496.436	7890.14
496.639	8375.51
496.843	7955.68
497.046	8080.6
497.249	8168.66
497.453	8064.22
497.656	7763.17
497.859	8047.83
498.063	7980.25
498.266	8029.4
498.469	7838.94
498.673	8074.46
498.876	8017.12
499.079	8072.41
499.282	8099.03
499.485	8586.45
499.689	8277.21
499.892	8326.36
500.095	8428.76
500.298	8373.46
500.501	8500.44
500.705	8756.43
500.908	8637.65
501.111	8879.31
501.314	8844.49
501.517	8799.44
501.72	8944.84
501.923	9127.11
502.126	9301.19
502.329	9542.85
502.532	9417.93
502.735	9471.17
502.938	9825.47
503.141	9827.52
503.344	9741.5
503.547	10271.93
503.75	9856.19
503.953	10411.19
504.156	10386.61
504.359	10615.99
504.562	10724.53
504.765	10775.73
504.968	11134.12
505.17	11443.37
505.373	11506.85
505.576	11635.88
505.779	11832.48
505.982	11838.62
506.185	12256.41
506.387	12461.21
506.59	12600.47
506.793	12881.04
506.996	13042.83
507.198	13716.61
507.401	13706.37
507.604	13886.59
507.807	14302.33
508.009	14439.54
508.212	15002.74
508.415	15051.89
508.617	15553.64
508.82	15604.84
509.022	15821.92
509.225	16424.03
509.428	16870.48
509.63	17022.03
509.833	17247.31
510.035	18025.54
510.238	18080.83
510.44	18252.86
510.643	18932.79
510.845	19225.65
511.048	19467.31
511.25	20358.17
511.453	20806.68
511.655	21601.29
511.858	21722.12
512.06	22375.42
512.262	22637.56
512.465	23157.75
512.667	23776.23
512.87	24314.85
513.072	24845.27
513.274	25695.18
513.477	26250.18
513.679	26657.73
513.881	27091.9
514.084	28228.52
514.286	28154.79
514.488	28844.96
514.69	29995.92
514.893	30380.93
515.095	31069.05
515.297	31755.12
515.499	32056.17
515.701	32392.04
515.904	33854.29
516.106	34341.71
516.308	34978.62
516.51	35947.31
516.712	36154.16
516.914	36786.98
517.116	37917.46
517.318	38824.71
517.52	39197.44
517.722	39891.7
517.925	40874.73
518.127	41439.96
518.329	42791.62
518.531	42775.24
518.733	43291.33
518.935	44602.03
519.136	44724.91
519.338	45449.89
519.54	46287.51
519.742	47035.02
519.944	47506.05
520.146	48755.31
520.348	48919.15
520.55	49828.44
520.752	49818.21
520.954	50995.79
521.155	51427.91
521.357	52286.01
521.559	52711.99
521.761	53518.88
521.963	53346.86
522.164	53926.43
522.366	54710.8
522.568	55454.22
522.77	55351.82
522.971	56701.43
523.173	55751.17
523.375	56883.7
523.576	56928.75
523.778	56603.13
523.98	57936.35
524.181	57749.99
524.383	58137.05
524.584	59038.16
524.786	58331.61
524.988	58302.94
525.189	58407.39
525.391	58898.9
525.592	59187.66
525.794	58974.67
525.995	58913.23
526.197	58886.61
526.398	58843.6
526.6	59085.26
526.801	58569.18
527.003	58626.52
527.204	58388.95
527.406	58849.75
527.607	58470.87
527.808	58118.62
528.01	57192.94
528.211	57432.55
528.412	57922.02
528.614	56965.62
528.815	56893.94
529.016	56791.54
529.218	55441.93
529.419	55915.01
529.62	55202.31
529.822	54489.62
530.023	54114.84
530.224	53649.95
530.425	52918.83
530.626	51962.43
530.828	52152.89
531.029	52351.54
531.23	51114.57
531.431	50295.38
531.632	50285.14
531.833	49619.55
532.035	49042.03
532.236	48663.15
532.437	48159.35
532.638	47653.5
532.839	46793.36
533.04	46437.01
533.241	45456.03
533.442	46127.77
533.643	44757.67
533.844	43872.95
534.045	43631.29
534.246	42609.36
534.447	42687.18
534.648	42027.73
534.849	41403.1
535.05	40485.61
535.251	40178.42
535.451	39783.16
535.652	39236.35
535.853	38527.75
536.054	38404.88
536.255	37640.98
536.456	36961.06
536.657	37012.26
536.857	36131.63
537.058	35789.62
537.259	35414.84
537.46	35283.77
537.66	34378.57
537.861	34083.66
538.062	33504.09
538.263	33567.57
538.463	32914.27
538.664	32297.83
538.865	32213.87
539.065	32336.74
539.266	31296.38
539.466	31656.82
539.667	30524.29
539.868	30149.51
540.068	30024.59
540.269	29592.47
540.469	29365.14
540.67	28836.77
540.87	28455.84
541.071	28181.42
541.271	27933.61
541.472	27413.43
541.672	27044.79
541.873	26672.06
542.073	25861.07
542.274	26346.44
542.474	25967.56
542.675	25752.52
542.875	25897.93
543.075	25207.76
543.276	24628.19
543.476	24656.86
543.676	24351.71
543.877	24077.29
544.077	24159.2
544.277	23696.36
544.478	23282.67
544.678	23135.22
544.878	22950.9
545.078	22612.99
545.279	22037.51
545.479	21912.58
545.679	21898.25
545.879	21423.12
546.079	21449.74
546.28	21058.58
546.48	20683.8
546.68	20626.46
546.88	20425.76
547.08	20311.07
547.28	19723.3
547.48	19508.27
547.68	19479.6
547.88	18809.91
548.081	19196.98
548.281	18482.24
548.481	18478.14
548.681	18291.77
548.881	17900.61
549.081	17710.15
549.28	17644.62
549.48	17466.44
549.68	17138.77
549.88	17056.85
550.08	16907.35
550.28	16340.06
550.48	16260.19
550.68	15991.91
550.88	15594.6
551.08	15615.08
551.279	15477.87
551.479	14726.26
551.679	15080.56
551.879	14492.79
552.079	14488.7
552.278	14249.08
552.478	14204.03
552.678	14048.38
552.878	14019.71
553.077	13352.07
553.277	13208.72
553.477	13198.48
553.676	12919.95
553.876	12735.63
554.076	12455.06
554.275	12291.23
554.475	11959.45
554.674	12029.09
554.874	11682.98
555.074	11424.93
555.273	11379.88
555.473	11136.17
555.672	11123.88
555.872	10753.2
556.071	10779.82
556.271	10413.24
556.47	10239.16
556.67	10048.7
556.869	10067.13
557.068	9649.35
557.268	9549
557.467	9456.84
557.667	9354.44
557.866	9254.09
558.065	8899.79
558.265	8783.06
558.464	8680.66
558.663	8742.1
558.863	8426.71
559.062	8467.67
559.261	8080.6
559.461	8049.88
559.66	7646.43
559.859	7703.78
560.058	7539.94
560.258	7804.13
560.457	7374.05
560.656	7447.78
560.855	7052.52
561.054	7206.12
561.253	6982.89
561.453	7068.91
561.652	6941.93
561.851	6710.51
562.05	6585.58
562.249	6446.32
562.448	6544.63
562.647	6321.4
562.846	6227.19
563.045	6077.69
563.244	5956.86
563.443	5981.43
563.642	5606.66
563.841	5758.21
564.04	5664
564.239	5651.71
564.438	5569.79
564.637	5371.14
564.836	5356.8
565.035	5164.29
565.234	5119.24
565.432	5082.38
565.631	4930.83
565.83	4975.88
566.029	4711.69
566.228	4820.24
566.427	4754.7
566.625	4697.36
566.824	4615.44
567.023	4572.43
567.222	4324.63
567.42	4336.92
567.619	4453.65
567.818	4177.17
568.016	4398.35
568.215	4156.69
568.414	4046.1
568.612	4207.89
568.811	3978.52
569.01	3962.14
569.208	3767.58
569.407	3859.74
569.605	3849.5
569.804	3708.19
570.002	3607.84
570.201	3548.45
570.4	3487.01
570.598	3341.6
570.797	3460.38
570.995	3362.08
571.193	3345.7
571.392	3376.42
571.59	3116.33
571.789	3284.26
571.987	3306.79
572.186	3050.79
572.384	3046.69
572.582	2993.45
572.781	3067.17
572.979	2678.06
573.177	2870.57
573.376	2917.67
573.574	2755.88
573.772	2657.58
573.971	2747.69
574.169	2514.22
574.367	2626.86
574.565	2573.61
574.763	2508.08
574.962	2469.17
575.16	2334
575.358	2469.17
575.556	2432.3
575.754	2213.17
575.952	2301.23
576.151	2338.1
576.349	2239.8
576.547	2098.49
576.745	2131.25
576.943	2198.84
577.141	2032.95
577.339	1967.42
577.537	2022.71
577.735	2041.14
577.933	1926.46
578.131	1903.93
578.329	1981.75
578.527	1912.12
578.725	1850.68
578.923	1678.65
579.121	1891.64
579.319	1639.74
579.516	1754.43
579.714	1895.74
579.912	1731.9
580.11	1563.97
580.308	1576.25
580.506	1570.11
580.704	1449.28
580.901	1588.54
581.099	1617.21
581.297	1467.71
581.495	1527.1
581.692	1523.01
581.89	1525.05
582.088	1484.09
582.285	1463.62
582.483	1353.02
582.681	1396.03
582.878	1258.82
583.076	1283.39
583.274	1338.69
583.471	1432.9
583.669	1197.38
583.866	1215.81
584.064	1252.67
584.262	1215.81
584.459	1101.12
584.657	1109.32
584.854	1224
585.052	1097.03
585.249	1191.24
585.447	1084.74
585.644	974.15
585.841	1125.7
586.039	1088.84
586.236	1066.31
586.434	1031.49
586.631	961.86
586.828	879.94
587.026	1045.83
587.223	927.05
587.42	869.7
587.618	918.86
587.815	1101.12
588.012	945.48
588.21	828.74
588.407	986.44
588.604	947.53
588.801	898.38
588.999	879.94
589.196	859.46
589.393	859.46
589.59	838.98
589.787	931.14
589.984	879.94
590.182	896.33
590.379	740.68
590.576	763.21
590.773	814.41
590.97	771.4
591.167	845.13
591.364	822.6
591.561	744.78
591.758	884.04
591.955	787.79
592.152	726.35
592.349	830.79
592.546	673.1
592.743	699.72
592.94	681.29
593.137	892.23
593.334	787.79
593.531	781.64
593.727	763.21
593.924	765.26
594.121	851.27
594.318	793.93
594.515	908.62
594.712	884.04
594.908	931.14
595.105	724.3
595.302	851.27
595.499	875.85
595.696	965.96
595.892	789.83
596.089	910.66
596.286	789.83
596.482	974.15
596.679	935.24
596.876	929.1
597.072	1027.4
597.269	949.57
597.466	968.01
597.662	1047.88
597.859	984.39
598.055	1082.69
598.252	1228.1
598.448	1234.24
598.645	1264.96
598.841	1287.49
599.038	1461.57
599.234	1408.32
599.431	1557.82
599.627	1580.35
599.824	1572.16
600.02	1623.36
600.217	1553.73
600.413	1715.52
600.609	1828.15
600.806	1953.08
601.002	1877.3
601.198	1856.83
601.395	2166.07
601.591	2125.11
601.787	2272.56
601.984	2299.19
602.18	2344.24
602.376	2458.93
602.572	2624.81
602.769	2721.07
602.965	2727.21
603.161	2895.15
603.357	3067.17
603.553	3013.93
603.75	3233.06
603.946	3292.45
604.142	3527.97
604.338	3523.87
604.534	3577.12
604.73	3636.51
604.926	3763.48
605.122	3980.57
605.318	4025.62
605.514	4113.69
605.71	4250.9
605.906	4498.7
606.102	4558.1
606.298	4824.33
606.494	5033.22
606.69	5074.18
606.886	5113.1
607.082	5240.07
607.278	5463.3
607.474	5481.73
607.67	5893.37
607.866	5893.37
608.062	6190.33
608.257	6212.85
608.453	6382.84
608.649	6624.5
608.845	6671.6
609.041	6931.69
609.236	7277.8
609.432	7392.48
609.628	7357.67
609.824	7904.48
610.019	7949.53
610.215	8187.1
610.411	8226.01
610.606	8744.14
610.802	8692.94
610.998	9151.69
611.193	9362.63
611.389	9528.52
611.584	9872.57
611.78	9907.39
611.976	10288.31
612.171	10755.25
612.367	10702
612.562	10947.76
612.758	11291.82
612.953	11568.29
613.149	12039.33
613.344	12305.56
613.539	12582.04
613.735	12999.82
613.93	13417.61
614.126	13728.9
614.321	14181.5
614.517	14087.29
614.712	14644.34
614.907	15033.46
615.103	15533.16
615.298	15768.68
615.493	16149.6
615.688	16383.07
615.884	17458.25
616.079	17435.72
616.274	18037.83
616.47	18488.38
616.665	18818.1
616.86	19229.74
617.055	19690.54
617.25	20122.66
617.445	20974.61
617.641	20974.61
617.836	21922.82
618.031	21818.38
618.226	23184.37
618.421	23387.12
618.616	24161.25
618.811	24187.88
619.006	25054.17
619.201	25396.18
619.396	26446.79
619.591	26170.31
619.786	27296.69
619.981	27499.44
620.176	28648.35
620.371	28746.65
620.566	29428.63
620.761	30221.19
620.956	31060.86
621.151	31064.96
621.346	31894.38
621.541	31908.72
621.735	33672.02
621.93	33330.01
622.125	34372.42
622.32	34472.78
622.515	35279.68
622.709	35992.37
622.904	36637.48
623.099	37128.99
623.294	38163.21
623.488	38163.21
623.683	39506.68
623.878	39752.44
624.072	40350.45
624.267	41214.69
624.462	41730.78
624.656	42156.75
624.851	42982.09
625.046	43567.8
625.24	44032.69
625.435	44716.71
625.629	45185.7
625.824	45462.18
626.018	46459.54
626.213	45781.66
626.407	47559.3
626.602	47319.68
626.796	48401.01
626.991	48583.28
627.185	48900.72
627.38	49271.4
627.574	49027.69
627.768	49029.74
627.963	49648.22
628.157	49588.83
628.352	50631.25
628.546	49801.82
628.74	50299.48
628.935	50211.42
629.129	50334.29
629.323	49273.45
629.517	49623.65
629.712	48904.81
629.906	49082.98
630.1	48036.47
630.294	47835.77
630.489	46862.99
630.683	46912.14
630.877	45755.04
631.071	45161.12
631.265	44962.47
631.459	43977.4
631.653	42711.75
631.848	41884.37
632.042	41007.84
632.236	40008.43
632.43	38806.28
632.624	37741.33
632.818	36725.54
633.012	35085.12
633.206	34339.66
633.4	33745.75
633.594	32041.84
633.788	31257.46
633.982	30419.85
634.176	29217.69
634.369	27857.84
634.563	26874.81
634.757	25674.7
634.951	25084.89
635.145	24040.42
635.339	23143.41
635.533	22148.1
635.726	21353.49
635.92	20175.91
636.114	19463.21
636.308	18910.26
636.501	18015.3
636.695	17417.29
636.889	16411.74
637.083	15936.61
637.276	15228.01
637.47	14679.16
637.664	13962.37
637.857	13569.16
638.051	12807.31
638.244	12502.17
638.438	11703.46
638.632	11361.45
638.825	10910.89
639.019	10476.73
639.212	10362.04
639.406	9874.62
639.599	9288.9
639.793	9082.06
639.986	8645.84
640.18	8404.18
640.373	7802.08
640.567	7609.57
640.76	7384.29
640.954	7146.73
641.147	6757.61
641.34	6495.47
641.534	6223.09
641.727	6065.4
641.92	5928.19
642.114	5557.5
642.307	5397.76
642.5	5287.17
642.694	4941.07
642.887	4711.69
643.08	4736.27
643.273	4554
643.467	4216.09
643.66	4050.2
643.853	3888.41
644.046	3804.44
644.239	3681.57
644.432	3441.95
644.626	3300.64
644.819	3216.68
645.012	3007.78
645.205	3054.89
645.398	2907.43
645.591	2772.27
645.784	2542.89
645.977	2571.57
646.17	2436.4
646.363	2295.09
646.556	2284.85
646.749	2086.2
646.942	2098.49
647.135	2065.72
647.328	2004.28
647.521	2002.23
647.714	1887.54
647.907	1785.15
648.099	1662.27
648.292	1695.04
648.485	1609.02
648.678	1527.1
648.871	1420.61
649.064	1426.75
649.256	1428.8
649.449	1248.58
649.642	1174.85
649.835	1131.84
650.027	1060.17
650.22	1232.19
650.413	1123.65
650.605	978.25
650.798	1000.77
650.991	988.49
651.183	1008.97
651.376	855.37
651.568	879.94
651.761	781.64
651.954	879.94
652.146	746.83
652.339	859.46
652.531	783.69
652.724	703.82
652.916	650.57
653.109	556.36
653.301	736.59
653.494	634.19
653.686	585.04
653.879	679.24
654.071	576.84
654.263	542.03
654.456	548.17
654.648	642.38
654.84	607.56
655.033	550.22
655.225	585.04
655.417	445.77
655.61	554.32
655.802	486.73
655.994	552.27
656.186	429.39
656.379	494.93
656.571	347.47
656.763	437.58
656.955	333.14
657.148	413.01
657.34	484.69
657.532	421.2
657.724	400.72
657.916	351.57
658.108	474.45
658.3	361.81
658.492	388.43
658.684	290.13
658.876	361.81
659.068	208.21
659.26	197.97
659.452	247.12
659.644	204.11
659.836	408.91
660.028	283.99
660.22	269.65
660.412	331.09
660.604	273.75
660.796	304.46
660.988	376.14
661.18	290.13
661.372	267.6
661.563	216.4
661.755	263.51
661.947	218.45
662.139	175.44
662.331	253.27
662.522	281.94
662.714	189.78
662.906	224.59
663.097	187.73
663.289	107.86
663.481	134.48
663.673	318.8
663.864	206.16
664.056	195.92
664.247	222.55
664.439	200.02
664.631	167.25
664.822	286.03
665.014	200.02
665.205	240.98
665.397	165.2
665.588	261.46
665.78	228.69
665.971	269.65
666.163	157.01
666.354	253.27
666.546	48.47
666.737	150.87
666.929	214.35
667.12	167.25
667.311	169.3
667.503	236.88
667.694	173.39
667.885	195.92
668.077	171.35
668.268	54.61
668.459	204.11
668.651	228.69
668.842	236.88
669.033	134.48
669.224	85.33
669.416	257.36
669.607	224.59
669.798	195.92
669.989	292.18
670.18	165.2
670.371	240.98
670.563	118.1
670.754	261.46
670.945	204.11
671.136	177.49
671.327	154.96
671.518	253.27
671.709	394.58
671.9	238.93
672.091	322.9
672.282	255.31
672.473	165.2
672.664	206.16
672.855	304.46
673.046	159.06
673.237	261.46
673.428	216.4
673.619	326.99
673.809	232.79
674	281.94
674.191	220.5
674.382	243.03
674.573	253.27
674.764	304.46
674.954	249.17
675.145	177.49
675.336	214.35
675.527	216.4
675.717	202.07
675.908	224.59
676.099	335.18
676.289	388.43
676.48	130.39
676.671	263.51
676.861	310.61
677.052	335.18
677.243	216.4
677.433	286.03
677.624	337.23
677.814	265.55
678.005	355.66
678.195	333.14
678.386	197.97
678.576	290.13
678.767	279.89
678.957	355.66
679.148	331.09
679.338	374.1
679.529	314.7
679.719	294.22
679.909	361.81
680.1	396.62
680.29	322.9
680.481	222.55
680.671	470.35
680.861	386.38
681.052	259.41
681.242	318.8
681.432	439.63
681.622	472.4
681.813	292.18
682.003	378.19
682.193	329.04
682.383	337.23
682.573	374.1
682.764	326.99
682.954	402.77
683.144	443.73
683.334	310.61
683.524	474.45
683.714	365.9
683.904	427.34
684.094	443.73
684.284	392.53
684.474	519.5
684.664	394.58
684.854	568.65
685.044	470.35
685.234	413.01
685.424	496.97
685.614	396.62
685.804	546.13
685.994	433.49
686.184	392.53
686.374	400.72
686.564	413.01
686.753	460.11
686.943	329.04
687.133	384.34
687.323	431.44
687.513	410.96
687.702	451.92
687.892	476.49
688.082	472.4
688.272	486.73
688.461	392.53
688.651	509.26
688.841	413.01
689.03	484.69
689.22	402.77
689.41	431.44
689.599	408.91
689.789	382.29
689.979	562.51
690.168	429.39
690.358	507.21
690.547	488.78
690.737	570.7
690.926	427.34
691.116	429.39
691.305	501.07
691.495	490.83
691.684	388.43
691.874	419.15
692.063	413.01
692.252	470.35
692.442	453.97
692.631	394.58
692.82	425.29
693.01	421.2
693.199	394.58
693.388	404.82
693.578	370
693.767	519.5
693.956	408.91
694.146	402.77
694.335	490.83
694.524	349.52
694.713	460.11
694.902	355.66
695.092	402.77
695.281	378.19
695.47	388.43
695.659	349.52
695.848	499.02
696.037	386.38
696.226	486.73
696.415	363.86
696.604	437.58
696.793	435.53
696.982	353.62
697.171	507.21
697.36	396.62
697.549	402.77
697.738	240.98
697.927	326.99
698.116	372.05
698.305	437.58
698.494	460.11
698.683	320.85
698.872	484.69
699.061	347.47
699.25	386.38
699.438	398.67
699.627	417.1
699.816	460.11
700.005	304.46
700.193	365.9
700.382	398.67
700.571	367.95
700.76	384.34
700.948	486.73
701.137	402.77
701.326	380.24
701.514	197.97
701.703	351.57
701.892	417.1
702.08	517.45
702.269	408.91
702.457	304.46
702.646	410.96
702.834	273.75
703.023	472.4
703.212	298.32
703.4	445.77
703.589	384.34
703.777	355.66
703.965	271.7
704.154	351.57
704.342	306.51
704.531	245.07
704.719	339.28
704.907	380.24
705.096	306.51
705.284	370
705.472	279.89
705.661	343.38
705.849	419.15
706.037	468.3
706.226	394.58
706.414	421.2
706.602	322.9
706.79	345.42
706.979	320.85
707.167	370
707.355	310.61
707.543	351.57
707.731	365.9
707.919	361.81
708.107	435.53
708.296	370
708.484	320.85
708.672	419.15
708.86	419.15
709.048	380.24
709.236	413.01
709.424	439.63
709.612	419.15
709.8	257.36
709.988	343.38
710.176	435.53
710.364	425.29
710.551	372.05
710.739	349.52
710.927	269.65
711.115	298.32
711.303	421.2
711.491	478.54
711.679	345.42
711.866	439.63
712.054	370
712.242	466.25
712.43	388.43
712.617	363.86
712.805	511.31
712.993	370
713.181	331.09
713.368	439.63
713.556	355.66
713.744	310.61
713.931	509.26
714.119	398.67
714.306	400.72
714.494	355.66
714.682	326.99
714.869	298.32
715.057	355.66
715.244	345.42
715.432	408.91
715.619	388.43
715.807	292.18
715.994	312.66
716.182	322.9
716.369	501.07
716.556	525.65
716.744	279.89
716.931	300.37
717.119	460.11
717.306	329.04
717.493	462.16
717.681	404.82
717.868	425.29
718.055	355.66
718.242	482.64
718.43	449.87
718.617	421.2
718.804	363.86
718.991	429.39
719.179	376.14
719.366	460.11
719.553	486.73
719.74	408.91
719.927	449.87
720.114	378.19
720.301	347.47
720.488	398.67
720.676	345.42
720.863	466.25
721.05	531.79
721.237	515.41
721.424	417.1
721.611	460.11
721.798	380.24
721.985	396.62
722.172	355.66
722.358	437.58
722.545	453.97
722.732	413.01
722.919	535.89
723.106	443.73
723.293	404.82
723.48	468.3
723.667	359.76
723.853	539.98
724.04	468.3
724.227	517.45
724.414	372.05
724.6	447.82
724.787	437.58
724.974	537.93
725.161	429.39
725.347	345.42
725.534	415.06
725.72	445.77
725.907	433.49
726.094	550.22
726.28	408.91
726.467	423.25
726.653	363.86
726.84	437.58
727.027	527.69
727.213	447.82
727.4	417.1
727.586	445.77
727.773	425.29
727.959	499.02
728.145	453.97
728.332	427.34
728.518	439.63
728.705	548.17
728.891	376.14
729.077	484.69
729.264	425.29
729.45	451.92
729.636	482.64
729.823	439.63
730.009	525.65
730.195	519.5
730.382	572.75
730.568	460.11
730.754	478.54
730.94	464.21
731.126	488.78
731.313	574.8
731.499	343.38
731.685	552.27
731.871	529.74
732.057	433.49
732.243	544.08
732.429	507.21
732.615	632.14
732.801	468.3
732.987	451.92
733.173	443.73
733.359	413.01
733.545	593.23
733.731	456.01
733.917	570.7
734.103	533.84
734.289	544.08
734.475	490.83
734.661	621.9
734.847	552.27
735.033	525.65
735.219	587.08
735.404	482.64
735.59	419.15
735.776	413.01
735.962	525.65
736.148	576.84
736.333	521.55
736.519	550.22
736.705	539.98
736.89	542.03
737.076	556.36
737.262	408.91
737.447	443.73
737.633	499.02
737.819	603.47
738.004	482.64
738.19	597.32
738.375	599.37
738.561	537.93
738.747	488.78
738.932	453.97
739.118	605.52
739.303	613.71
739.489	609.61
739.674	451.92
739.859	431.44
740.045	589.13
740.23	513.36
740.416	388.43
740.601	539.98
740.786	425.29
740.972	453.97
741.157	499.02
741.342	419.15
741.528	492.88
741.713	585.04
741.898	568.65
742.084	484.69
742.269	482.64
742.454	548.17
742.639	552.27
742.824	445.77
743.01	658.76
743.195	677.2
743.38	548.17
743.565	492.88
743.75	462.16
743.935	517.45
744.12	593.23
744.305	449.87
744.49	425.29
744.675	529.74
744.86	435.53
745.045	552.27
745.23	435.53
745.415	470.35
745.6	552.27
745.785	589.13
745.97	564.56
746.155	462.16
746.34	515.41
746.525	462.16
746.71	562.51
746.895	441.68
747.079	357.71
747.264	406.86
747.449	474.45
747.634	531.79
747.819	533.84
748.003	378.19
748.188	400.72
748.373	527.69
748.557	523.6
748.742	548.17
748.927	472.4
749.111	372.05
749.296	410.96
749.481	499.02
749.665	427.34
749.85	353.62
750.034	396.62
750.219	482.64
750.404	386.38
750.588	380.24
750.773	304.46
750.957	372.05
751.141	353.62
751.326	499.02
751.51	304.46
751.695	382.29
751.879	470.35
752.064	425.29
752.248	415.06
752.432	357.71
752.617	429.39
752.801	410.96
752.985	400.72
753.17	408.91
753.354	372.05
753.538	357.71
753.722	286.03
753.907	271.7
754.091	281.94
754.275	394.58
754.459	298.32
754.643	255.31
754.828	423.25
755.012	347.47
755.196	234.83
755.38	314.7
755.564	306.51
755.748	259.41
755.932	318.8
756.116	367.95
756.3	456.01
756.484	306.51
756.668	386.38
756.852	226.64
757.036	339.28
757.22	255.31
757.404	314.7
757.588	218.45
757.772	273.75
757.956	175.44
758.14	298.32
758.323	286.03
758.507	273.75
758.691	269.65
758.875	329.04
759.059	335.18
759.242	163.15
759.426	261.46
759.61	259.41
759.794	208.21
759.977	355.66
760.161	443.73
760.345	304.46
760.528	296.27
760.712	238.93
760.895	247.12
761.079	226.64
761.263	183.63
761.446	269.65
761.63	220.5
761.813	415.06
761.997	200.02
762.18	263.51
762.364	298.32
762.547	167.25
762.731	253.27
762.914	195.92
763.098	259.41
763.281	228.69
763.464	150.87
763.648	232.79
763.831	167.25
764.015	306.51
764.198	326.99
764.381	263.51
764.564	230.74
764.748	187.73
764.931	243.03
765.114	294.22
765.297	277.84
765.481	187.73
765.664	208.21
765.847	157.01
766.03	247.12
766.213	73.04
766.397	181.59
766.58	165.2
766.763	226.64
766.946	146.77
767.129	185.68
767.312	206.16
767.495	226.64
767.678	140.63
767.861	191.83
768.044	226.64
768.227	193.87
768.41	165.2
768.593	183.63
768.776	146.77
768.959	132.44
769.142	245.07
769.324	161.11
769.507	114
769.69	68.95
769.873	175.44
770.056	267.6
770.239	191.83
770.421	187.73
770.604	200.02
770.787	181.59
770.97	142.68
771.152	195.92
771.335	224.59
771.518	140.63
771.7	261.46
771.883	261.46
772.066	77.14
772.248	132.44
772.431	218.45
772.613	187.73
772.796	193.87
772.978	183.63
773.161	253.27
773.343	107.86
773.526	107.86
773.708	44.37
773.891	68.95
774.073	99.67
774.256	97.62
774.438	234.83
774.621	81.24
774.803	171.35
774.985	109.91
775.168	114
775.35	167.25
775.532	109.91
775.715	27.99
775.897	130.39
776.079	167.25
776.261	175.44
776.444	142.68
776.626	134.48
776.808	73.04
776.99	81.24
777.173	114
777.355	71
777.537	140.63
777.719	140.63
777.901	163.15
778.083	71
778.265	1.37
778.447	169.3
778.629	93.52
778.811	83.28
778.993	159.06
779.175	140.63
779.357	224.59
779.539	5.46
779.721	167.25
779.903	44.37
780.085	46.42
780.267	77.14
780.449	42.32
780.631	44.37
780.812	105.81
780.994	122.2
781.176	126.29
781.358	42.32
781.54	-4.78
781.721	109.91
781.903	118.1
782.085	44.37
782.267	169.3
782.448	40.28
782.63	27.99
782.812	77.14
782.993	99.67
783.175	83.28
783.357	52.56
783.538	79.19
783.72	36.18
783.901	46.42
784.083	118.1
784.264	114
784.446	-15.02
784.627	9.56
784.809	101.72
784.99	44.37
785.172	111.96
785.353	124.24
785.535	50.52
785.716	89.43
785.897	11.61
786.079	23.89
786.26	73.04
786.441	77.14
786.623	81.24
786.804	48.47
786.985	101.72
787.167	50.52
787.348	56.66
787.529	-33.45
787.71	122.2
787.891	73.04
788.073	-35.5
788.254	27.99
788.435	136.53
788.616	64.85
788.797	62.8
788.978	15.7
789.159	17.75
789.34	89.43
789.522	23.89
789.703	1.37
789.884	134.48
790.065	150.87
790.246	173.39
790.427	-37.55
790.607	175.44
790.788	163.15
790.969	-37.55
791.15	140.63
791.331	-49.83
791.512	-8.87
791.693	42.32
791.874	21.85
792.054	124.24
792.235	116.05
792.416	-47.79
792.597	75.09
792.778	25.94
792.958	40.28
793.139	-6.83
793.32	-0.68
793.5	50.52
793.681	97.62
793.862	17.75
794.042	68.95
794.223	-72.36
794.404	21.85
794.584	-101.03
794.765	73.04
794.945	54.61
795.126	46.42
795.306	105.81
795.487	-53.93
795.667	-41.64
795.848	93.52
796.028	-33.45
796.209	19.8
796.389	27.99
796.57	50.52
796.75	-19.11
796.93	68.95
797.111	-62.12
797.291	48.47
797.471	60.76
797.652	42.32
797.832	-107.18
798.012	85.33
798.192	36.18
798.373	-19.11
798.553	3.41
798.733	109.91
798.913	-49.83
799.093	23.89
799.274	56.66
799.454	99.67
799.634	114
799.814	89.43
799.994	101.72
800.174	91.48
800.354	-23.21
800.534	-111.27
800.714	68.95
800.894	-37.55
801.074	-64.17
801.254	-74.41
801.434	128.34
801.614	15.7
801.794	-86.7
801.974	1523.01
802.154	-49.83
802.334	60.76
802.514	-37.55
802.693	-33.45
802.873	15.7
803.053	150.87
803.233	27.99
803.413	42.32
803.592	1.37
803.772	-98.99
803.952	23.89
804.131	-29.35
804.311	81.24
804.491	66.9
804.67	30.04
804.85	-70.31
805.03	77.14
805.209	93.52
805.389	-49.83
805.568	50.52
805.748	-35.5
805.928	75.09
806.107	64.85
806.287	66.9
806.466	17.75
806.646	19.8
806.825	27.99
807.004	-6.83
807.184	-47.79
807.363	114
807.543	75.09
807.722	-47.79
807.901	91.48
808.081	-10.92
808.26	-105.13
808.439	73.04
808.619	23.89
808.798	-12.97
808.977	-25.26
809.156	81.24
809.336	36.18
809.515	25.94
809.694	-39.59
809.873	-23.21
810.052	34.13
810.231	34.13
810.411	89.43
810.59	118.1
810.769	-27.31
810.948	-19.11
811.127	-84.65
811.306	-80.55
811.485	-64.17
811.664	73.04
811.843	34.13
812.022	11.61
812.201	-41.64
812.38	-74.41
812.559	-33.45
812.737	54.61
812.916	-49.83
813.095	-33.45
813.274	-47.79
813.453	46.42
813.632	-0.68
813.811	11.61
813.989	-107.18
814.168	-45.74
814.347	-55.98
814.526	-39.59
814.704	140.63
814.883	85.33
815.062	-66.22
815.24	40.28
815.419	-105.13
815.598	13.65
815.776	-72.36
815.955	66.9
816.133	-139.94
816.312	32.08
816.49	-47.79
816.669	30.04
816.847	-53.93
817.026	19.8
817.204	-86.7
817.383	-15.02
817.561	-29.35
817.74	-2.73
817.918	23.89
818.097	-37.55
818.275	-8.87
818.453	97.62
818.632	120.15
818.81	-19.11
818.988	-76.46
819.167	-35.5
819.345	-82.6
819.523	-41.64
819.701	-133.8
819.879	9.56
820.058	38.23
820.236	36.18
820.414	-8.87
820.592	17.75
820.77	34.13
820.948	-98.99
821.127	-21.16
821.305	13.65
821.483	-129.7
821.661	42.32
821.839	19.8
822.017	-74.41
822.195	-33.45
822.373	42.32
822.551	-4.78
822.729	11.61
822.907	52.56
823.085	-0.68
823.262	-21.16
823.44	-4.78
823.618	-45.74
823.796	-15.02
823.974	-27.31
824.152	-103.08
824.329	-47.79
824.507	-74.41
824.685	64.85
824.863	-45.74
825.04	19.8
825.218	19.8
825.396	1.37
825.574	-92.84
825.751	-21.16
825.929	30.04
826.107	-78.51
826.284	-29.35
826.462	3.41
826.639	-74.41
826.817	-60.07
826.994	-47.79
827.172	-103.08
827.349	30.04
827.527	42.32
827.704	-41.64
827.882	-35.5
828.059	-53.93
828.237	-86.7
828.414	56.66
828.591	-96.94
828.769	23.89
828.946	-29.35
829.124	13.65
829.301	101.72
829.478	17.75
829.655	-47.79
829.833	11.61
830.01	-84.65
830.187	46.42
830.364	-37.55
830.542	-53.93
830.719	79.19
830.896	36.18
831.073	11.61
831.25	-33.45
831.427	7.51
831.604	15.7
831.782	-90.79
831.959	-12.97
832.136	-12.97
832.313	19.8
832.49	-70.31
832.667	42.32
832.844	-55.98
833.021	23.89
833.198	-12.97
833.374	91.48
833.551	50.52
833.728	-62.12
833.905	17.75
834.082	-96.94
834.259	38.23
834.436	107.86
834.612	11.61
834.789	23.89
834.966	19.8
835.143	7.51
835.319	-21.16
835.496	-17.07
835.673	23.89
835.85	9.56
836.026	-19.11
836.203	54.61
836.38	-12.97
836.556	-41.64
836.733	-74.41
836.909	97.62
837.086	-55.98
837.262	-129.7
837.439	34.13
837.616	-49.83
837.792	19.8
837.968	3.41
838.145	-98.99
838.321	-31.4
838.498	-78.51
838.674	27.99
838.851	3.41
839.027	-4.78
839.203	-37.55
839.38	-12.97
839.556	-68.27
839.732	71
839.909	-31.4
840.085	32.08
840.261	-82.6
840.437	-37.55
840.614	-10.92
840.79	77.14
840.966	25.94
841.142	7.51
841.318	-37.55
841.494	48.47
841.671	44.37
841.847	-55.98
842.023	-127.66
842.199	46.42
842.375	60.76
842.551	-80.55
842.727	-125.61
842.903	85.33
843.079	-41.64
843.255	60.76
843.431	-47.79
843.607	38.23
843.783	-123.56
843.959	17.75
844.134	-23.21
844.31	140.63
844.486	-96.94
844.662	-60.07
844.838	-29.35
845.013	-8.87
845.189	5.46
845.365	-51.88
845.541	3.41
845.716	-29.35
845.892	5.46
846.068	-29.35
846.244	-8.87
846.419	19.8
846.595	-66.22
846.77	-94.89
846.946	36.18
847.122	-113.32
847.297	-60.07
847.473	64.85
847.648	-66.22
847.824	27.99
847.999	-98.99
848.175	-45.74
848.35	-8.87
848.526	93.52
848.701	34.13
848.876	-4.78
849.052	-45.74
849.227	-66.22
849.403	-23.21
849.578	-119.46
849.753	36.18
849.929	7.51
850.104	-113.32
850.279	7.51
850.454	50.52
850.63	23.89
850.805	-19.11
850.98	32.08
851.155	25.94
851.33	-53.93
851.505	-76.46
851.681	44.37
851.856	-53.93
852.031	-23.21
852.206	-12.97
852.381	-74.41
852.556	9.56
852.731	3.41
852.906	-8.87
853.081	23.89
853.256	87.38
853.431	13.65
853.606	-109.22
853.781	-47.79
853.956	-160.42
854.131	60.76
854.305	-41.64
854.48	-66.22
854.655	-39.59
854.83	-27.31
855.005	-23.21
855.18	-86.7
855.354	42.32
855.529	-62.12
855.704	-53.93
855.879	-21.16
856.053	-141.99
856.228	3.41
856.403	-90.79
856.577	21.85
856.752	-94.89
856.926	5.46
857.101	-41.64
857.276	-133.8
857.45	-53.93
857.625	44.37
857.799	-15.02
857.974	-10.92
858.148	-94.89
858.323	-29.35
858.497	-39.59
858.672	-37.55
858.846	-41.64
859.02	17.75
859.195	-15.02
859.369	-33.45
859.543	-15.02
859.718	-19.11
859.892	36.18
860.066	71
860.241	-70.31
860.415	-70.31
860.589	13.65
860.763	25.94
860.938	-90.79
861.112	-25.26
861.286	-29.35
861.46	-23.21
861.634	1.37
861.808	36.18
861.982	-80.55
862.157	-152.23
862.331	13.65
862.505	-70.31
862.679	-109.22
862.853	-49.83
863.027	-115.37
863.201	54.61
863.375	-53.93
863.549	-4.78
863.722	42.32
863.896	66.9
864.07	-45.74
864.244	19.8
864.418	66.9
864.592	-12.97
864.766	-12.97
864.939	-64.17
865.113	-86.7
865.287	3.41
865.461	-45.74
865.634	34.13
865.808	75.09
865.982	-29.35
866.156	-45.74
866.329	-117.42
866.503	-74.41
866.676	-78.51
866.85	7.51
867.024	-51.88
867.197	75.09
867.371	7.51
867.544	9.56
867.718	-121.51
867.891	34.13
868.065	-127.66
868.238	-39.59
868.412	3.41
868.585	-12.97
868.759	-98.99
868.932	-72.36
869.105	-98.99
869.279	-35.5
869.452	-33.45
869.625	-15.02
869.799	-55.98
869.972	-70.31
870.145	-47.79
870.319	44.37
870.492	-82.6
870.665	-72.36
870.838	-125.61
871.011	-123.56
871.185	-51.88
871.358	-78.51
871.531	36.18
871.704	-68.27
871.877	-88.75
872.05	-45.74
872.223	-152.23
872.396	85.33
872.569	-23.21
872.742	-62.12
872.915	-21.16
873.088	-25.26
873.261	-96.94
873.434	-74.41
873.607	-62.12
873.78	-21.16
873.953	-103.08
874.126	-45.74
874.299	-27.31
874.471	1.37
874.644	-19.11
874.817	32.08
874.99	68.95
875.163	-55.98
875.335	-33.45
875.508	-53.93
875.681	50.52
875.853	-25.26
876.026	-15.02
876.199	21.85
876.371	-39.59
876.544	23.89
876.717	-60.07
876.889	-78.51
877.062	-37.55
877.234	-19.11
877.407	-23.21
877.579	-53.93
877.752	1.37
877.924	1.37
878.097	-8.87
878.269	-74.41
878.442	-47.79
878.614	-19.11
878.786	-17.07
878.959	-37.55
879.131	-78.51
879.303	-166.57
879.476	-21.16
879.648	-8.87
879.82	-64.17
879.993	-88.75
880.165	-152.23
880.337	-217.77
880.509	75.09
880.681	-66.22
880.854	-21.16
881.026	11.61
881.198	197.97
881.37	19.8
881.542	11.61
881.714	27.99
881.886	-17.07
882.058	-4.78
882.23	-43.69
882.402	-53.93
882.574	-10.92
882.746	-21.16
882.918	77.14
883.09	11.61
883.262	-25.26
883.434	-84.65
883.606	-123.56
883.778	-47.79
883.95	-8.87
884.122	-74.41
884.293	73.04
884.465	15.7
884.637	81.24
884.809	-129.7
884.98	-86.7
885.152	40.28
885.324	-12.97
885.496	-39.59
885.667	-35.5
885.839	-55.98
886.011	9.56
886.182	66.9
886.354	27.99
886.525	-41.64
886.697	-2.73
886.869	-125.61
887.04	5.46
887.212	-0.68
887.383	3.41
887.555	-6.83
887.726	-82.6
887.897	-66.22
888.069	-25.26
888.24	68.95
888.412	-31.4
888.583	-66.22
888.754	-62.12
888.926	-68.27
889.097	-60.07
889.268	-86.7
889.44	32.08
889.611	-148.14
889.782	-43.69
889.953	-94.89
890.125	91.48
890.296	-15.02
890.467	-47.79
890.638	-58.03
890.809	11.61
890.98	-135.85
891.151	-37.55
891.323	91.48
891.494	-58.03
891.665	-74.41
891.836	17.75
892.007	-12.97
892.178	36.18
892.349	-74.41
892.52	-96.94
892.691	-60.07
892.862	-12.97
893.032	-96.94
893.203	-64.17
893.374	34.13
893.545	138.58
893.716	-82.6
893.887	3.41
894.057	-29.35
894.228	13.65
894.399	-115.37
894.57	60.76
894.74	-64.17
894.911	-21.16
895.082	-144.04
895.253	-98.99
895.423	-55.98
895.594	36.18
895.764	7.51
895.935	-98.99
896.106	3.41
896.276	-55.98
896.447	17.75
896.617	-98.99
896.788	-94.89
896.958	-2.73
897.129	-90.79
897.299	-45.74
897.47	89.43
897.64	40.28
897.81	-8.87
897.981	13.65
898.151	-98.99
898.322	-4.78
898.492	38.23
898.662	-68.27
898.832	-39.59
899.003	17.75
899.173	-6.83
899.343	-29.35
899.513	-23.21
