Data from USB4F104151__88__11-31-37-259.txt Node

Date: Wed Feb 26 11:31:37 EST 2025
User: louis
Spectrometer: USB4F10415
Trigger mode: 4
Integration Time (sec): 1.000000E-1
Scans to average: 1
Electric dark correction enabled: true
Nonlinearity correction enabled: false
Boxcar width: 0
XAxis mode: Wavelengths
Number of Pixels in Spectrum: 3648
>>>>>Begin Spectral Data<<<<<
178.204	-427
178.424	-427
178.644	-427
178.864	-365.56
179.084	-379.9
179.304	-31.74
179.524	-21.5
179.744	44.03
179.964	50.18
180.184	27.65
180.404	7.17
180.624	-50.18
180.844	62.46
181.064	-70.65
181.283	-13.31
181.503	-39.94
181.723	35.84
181.943	-76.8
182.163	119.81
182.383	-25.6
182.602	41.98
182.822	166.91
183.042	-13.31
183.262	15.36
183.482	72.7
183.701	39.94
183.921	78.85
184.141	64.51
184.361	121.85
184.58	144.38
184.8	11.26
185.02	64.51
185.239	74.75
185.459	33.79
185.679	119.81
185.898	-70.65
186.118	21.5
186.338	39.94
186.557	82.94
186.777	-39.94
186.997	33.79
187.216	62.46
187.436	164.86
187.655	132.09
187.875	-27.65
188.095	-21.5
188.314	76.8
188.534	123.9
188.753	62.46
188.973	171.01
189.192	117.76
189.412	29.7
189.631	80.89
189.851	84.99
190.07	189.44
190.29	-54.27
190.509	-50.18
190.729	44.03
190.948	173.05
191.168	265.21
191.387	76.8
191.607	17.41
191.826	84.99
192.045	23.55
192.265	50.18
192.484	21.5
192.704	48.13
192.923	-25.6
193.142	222.2
193.362	156.67
193.581	228.35
193.8	76.8
194.02	138.24
194.239	136.19
194.458	142.33
194.678	-9.22
194.897	-17.41
195.116	121.85
195.335	1.02
195.555	54.27
195.774	-7.17
195.993	80.89
196.212	-1.02
196.432	58.37
196.651	29.7
196.87	62.46
197.089	240.64
197.308	72.7
197.528	70.65
197.747	-48.13
197.966	19.46
198.185	111.61
198.404	11.26
198.623	162.81
198.842	142.33
199.062	134.14
199.281	123.9
199.5	84.99
199.719	115.71
199.938	99.33
200.157	191.49
200.376	181.25
200.595	33.79
200.814	113.66
201.033	1.02
201.252	121.85
201.471	152.57
201.69	111.61
201.909	29.7
202.128	93.18
202.347	128
202.566	64.51
202.785	-62.46
203.004	1.02
203.223	287.74
203.442	21.5
203.661	-29.7
203.879	76.8
204.098	168.96
204.317	3.07
204.536	175.1
204.755	78.85
204.974	130.05
205.193	-54.27
205.411	82.94
205.63	152.57
205.849	37.89
206.068	27.65
206.287	-7.17
206.505	152.57
206.724	27.65
206.943	-101.37
207.162	31.74
207.381	103.42
207.599	64.51
207.818	13.31
208.037	-39.94
208.255	62.46
208.474	41.98
208.693	140.29
208.911	93.18
209.13	113.66
209.349	119.81
209.567	89.09
209.786	113.66
210.005	89.09
210.223	11.26
210.442	-76.8
210.661	44.03
210.879	171.01
211.098	31.74
211.316	54.27
211.535	25.6
211.753	64.51
211.972	64.51
212.191	68.61
212.409	44.03
212.628	160.77
212.846	66.56
213.065	78.85
213.283	119.81
213.502	105.47
213.72	76.8
213.938	68.61
214.157	-17.41
214.375	123.9
214.594	19.46
214.812	39.94
215.031	76.8
215.249	33.79
215.467	99.33
215.686	97.28
215.904	148.48
216.122	46.08
216.341	84.99
216.559	3.07
216.778	80.89
216.996	195.58
217.214	5.12
217.432	44.03
217.651	-39.94
217.869	35.84
218.087	62.46
218.306	54.27
218.524	19.46
218.742	-95.23
218.96	44.03
219.179	15.36
219.397	48.13
219.615	283.64
219.833	87.04
220.051	-25.6
220.27	144.38
220.488	113.66
220.706	54.27
220.924	-3.07
221.142	-19.46
221.36	160.77
221.578	64.51
221.796	80.89
222.015	46.08
222.233	-21.5
222.451	175.1
222.669	-19.46
222.887	60.42
223.105	-3.07
223.323	-21.5
223.541	29.7
223.759	58.37
223.977	41.98
224.195	179.2
224.413	107.52
224.631	39.94
224.849	111.61
225.067	281.6
225.285	66.56
225.503	-62.46
225.721	-87.04
225.939	19.46
226.157	5.12
226.375	242.68
226.592	-39.94
226.81	-60.42
227.028	164.86
227.246	138.24
227.464	99.33
227.682	132.09
227.9	109.57
228.117	80.89
228.335	62.46
228.553	58.37
228.771	70.65
228.989	37.89
229.206	136.19
229.424	54.27
229.642	101.37
229.86	17.41
230.077	72.7
230.295	72.7
230.513	128
230.731	56.32
230.948	107.52
231.166	191.49
231.384	50.18
231.601	-35.84
231.819	162.81
232.037	-27.65
232.254	-48.13
232.472	27.65
232.689	3.07
232.907	109.57
233.125	125.95
233.342	29.7
233.56	-39.94
233.777	-7.17
233.995	-1.02
234.213	171.01
234.43	134.14
234.648	54.27
234.865	46.08
235.083	54.27
235.3	-39.94
235.518	91.13
235.735	156.67
235.953	39.94
236.17	74.75
236.388	78.85
236.605	76.8
236.822	62.46
237.04	103.42
237.257	121.85
237.475	7.17
237.692	134.14
237.909	101.37
238.127	-33.79
238.344	115.71
238.562	21.5
238.779	-13.31
238.996	-1.02
239.214	130.05
239.431	87.04
239.648	41.98
239.865	87.04
240.083	148.48
240.3	-48.13
240.517	84.99
240.735	13.31
240.952	140.29
241.169	46.08
241.386	48.13
241.603	35.84
241.821	-72.7
242.038	66.56
242.255	125.95
242.472	-78.85
242.689	181.25
242.907	70.65
243.124	74.75
243.341	-44.03
243.558	1.02
243.775	-68.61
243.992	-33.79
244.209	93.18
244.426	136.19
244.643	46.08
244.86	76.8
245.078	146.43
245.295	33.79
245.512	-15.36
245.729	5.12
245.946	187.39
246.163	128
246.38	39.94
246.597	107.52
246.814	76.8
247.031	54.27
247.248	46.08
247.464	103.42
247.681	64.51
247.898	101.37
248.115	99.33
248.332	78.85
248.549	187.39
248.766	150.53
248.983	158.72
249.2	95.23
249.417	121.85
249.633	-37.89
249.85	109.57
250.067	15.36
250.284	27.65
250.501	84.99
250.717	82.94
250.934	60.42
251.151	54.27
251.368	25.6
251.585	72.7
251.801	119.81
252.018	7.17
252.235	166.91
252.451	7.17
252.668	95.23
252.885	195.58
253.102	128
253.318	-39.94
253.535	60.42
253.752	39.94
253.968	-3.07
254.185	-15.36
254.401	132.09
254.618	115.71
254.835	-5.12
255.051	95.23
255.268	39.94
255.484	103.42
255.701	23.55
255.917	80.89
256.134	35.84
256.351	58.37
256.567	-48.13
256.784	97.28
257	-68.61
257.217	95.23
257.433	97.28
257.65	150.53
257.866	125.95
258.082	-33.79
258.299	68.61
258.515	70.65
258.732	-44.03
258.948	-13.31
259.165	134.14
259.381	46.08
259.597	138.24
259.814	62.46
260.03	33.79
260.246	58.37
260.463	152.57
260.679	199.68
260.895	-17.41
261.112	115.71
261.328	-11.26
261.544	5.12
261.761	158.72
261.977	1.02
262.193	13.31
262.409	109.57
262.626	97.28
262.842	148.48
263.058	21.5
263.274	74.75
263.49	58.37
263.707	203.77
263.923	89.09
264.139	-68.61
264.355	128
264.571	134.14
264.787	48.13
265.004	91.13
265.22	-11.26
265.436	5.12
265.652	-46.08
265.868	13.31
266.084	50.18
266.3	11.26
266.516	13.31
266.732	107.52
266.948	74.75
267.164	41.98
267.38	44.03
267.596	68.61
267.812	154.62
268.028	39.94
268.244	21.5
268.46	87.04
268.676	19.46
268.892	56.32
269.108	25.6
269.324	-23.55
269.54	-3.07
269.756	105.47
269.972	-56.32
270.188	7.17
270.403	-25.6
270.619	101.37
270.835	140.29
271.051	115.71
271.267	39.94
271.483	41.98
271.698	95.23
271.914	78.85
272.13	33.79
272.346	35.84
272.562	99.33
272.777	44.03
272.993	39.94
273.209	35.84
273.425	177.15
273.64	21.5
273.856	103.42
274.072	11.26
274.287	31.74
274.503	41.98
274.719	121.85
274.934	-5.12
275.15	-50.18
275.366	7.17
275.581	-60.42
275.797	35.84
276.012	97.28
276.228	93.18
276.444	17.41
276.659	173.05
276.875	-15.36
277.09	93.18
277.306	25.6
277.521	17.41
277.737	7.17
277.952	74.75
278.168	33.79
278.383	70.65
278.599	80.89
278.814	142.33
279.03	7.17
279.245	234.49
279.461	9.22
279.676	181.25
279.892	46.08
280.107	-33.79
280.322	29.7
280.538	101.37
280.753	72.7
280.969	84.99
281.184	3.07
281.399	68.61
281.615	66.56
281.83	121.85
282.045	-39.94
282.26	56.32
282.476	23.55
282.691	68.61
282.906	119.81
283.122	78.85
283.337	37.89
283.552	74.75
283.767	33.79
283.983	105.47
284.198	41.98
284.413	99.33
284.628	-13.31
284.843	113.66
285.058	111.61
285.274	9.22
285.489	48.13
285.704	84.99
285.919	46.08
286.134	46.08
286.349	60.42
286.564	41.98
286.779	164.86
286.995	-5.12
287.21	-46.08
287.425	78.85
287.64	-35.84
287.855	21.5
288.07	-64.51
288.285	76.8
288.5	89.09
288.715	175.1
288.93	35.84
289.145	29.7
289.36	107.52
289.575	-76.8
289.79	142.33
290.004	5.12
290.219	80.89
290.434	11.26
290.649	3.07
290.864	29.7
291.079	91.13
291.294	70.65
291.509	72.7
291.724	15.36
291.938	13.31
292.153	80.89
292.368	52.22
292.583	25.6
292.798	103.42
293.012	162.81
293.227	125.95
293.442	44.03
293.657	68.61
293.871	128
294.086	87.04
294.301	199.68
294.516	125.95
294.73	5.12
294.945	29.7
295.16	13.31
295.374	37.89
295.589	150.53
295.804	1.02
296.018	31.74
296.233	134.14
296.447	37.89
296.662	35.84
296.877	117.76
297.091	109.57
297.306	52.22
297.52	7.17
297.735	103.42
297.949	33.79
298.164	48.13
298.378	113.66
298.593	27.65
298.807	78.85
299.022	84.99
299.236	162.81
299.451	-1.02
299.665	74.75
299.88	64.51
300.094	27.65
300.309	-9.22
300.523	160.77
300.737	89.09
300.952	66.56
301.166	123.9
301.381	-44.03
301.595	-3.07
301.809	111.61
302.024	3.07
302.238	5.12
302.452	154.62
302.667	52.22
302.881	234.49
303.095	150.53
303.309	156.67
303.524	72.7
303.738	37.89
303.952	15.36
304.166	54.27
304.381	-41.98
304.595	211.96
304.809	11.26
305.023	21.5
305.237	50.18
305.452	41.98
305.666	144.38
305.88	74.75
306.094	144.38
306.308	84.99
306.522	80.89
306.736	148.48
306.95	148.48
307.164	64.51
307.379	37.89
307.593	103.42
307.807	103.42
308.021	183.29
308.235	80.89
308.449	-80.89
308.663	58.37
308.877	199.68
309.091	-3.07
309.305	134.14
309.519	-44.03
309.733	226.3
309.947	-7.17
310.161	111.61
310.374	113.66
310.588	152.57
310.802	-80.89
311.016	64.51
311.23	46.08
311.444	13.31
311.658	91.13
311.872	121.85
312.085	84.99
312.299	164.86
312.513	197.63
312.727	-21.5
312.941	23.55
313.154	109.57
313.368	21.5
313.582	95.23
313.796	44.03
314.009	33.79
314.223	113.66
314.437	136.19
314.651	62.46
314.864	19.46
315.078	-7.17
315.292	1.02
315.505	35.84
315.719	115.71
315.933	91.13
316.146	-15.36
316.36	29.7
316.573	132.09
316.787	54.27
317.001	123.9
317.214	13.31
317.428	56.32
317.641	-27.65
317.855	84.99
318.068	23.55
318.282	-5.12
318.495	185.34
318.709	101.37
318.922	-35.84
319.136	158.72
319.349	121.85
319.563	54.27
319.776	17.41
319.99	-17.41
320.203	119.81
320.417	140.29
320.63	119.81
320.843	189.44
321.057	35.84
321.27	-21.5
321.483	101.37
321.697	199.68
321.91	87.04
322.124	60.42
322.337	150.53
322.55	48.13
322.763	29.7
322.977	-29.7
323.19	46.08
323.403	62.46
323.617	91.13
323.83	128
324.043	-29.7
324.256	87.04
324.469	15.36
324.683	214.01
324.896	15.36
325.109	52.22
325.322	-27.65
325.535	64.51
325.748	103.42
325.962	89.09
326.175	74.75
326.388	95.23
326.601	56.32
326.814	25.6
327.027	46.08
327.24	142.33
327.453	-33.79
327.666	95.23
327.879	199.68
328.092	66.56
328.305	72.7
328.518	56.32
328.731	-27.65
328.944	54.27
329.157	91.13
329.37	19.46
329.583	191.49
329.796	220.16
330.009	-39.94
330.222	60.42
330.435	95.23
330.648	-1.02
330.861	64.51
331.073	50.18
331.286	87.04
331.499	15.36
331.712	44.03
331.925	97.28
332.138	-29.7
332.35	80.89
332.563	64.51
332.776	246.78
332.989	9.22
333.202	-13.31
333.414	134.14
333.627	35.84
333.84	50.18
334.053	41.98
334.265	11.26
334.478	23.55
334.691	95.23
334.903	-3.07
335.116	60.42
335.329	-19.46
335.541	66.56
335.754	87.04
335.966	52.22
336.179	-19.46
336.392	21.5
336.604	7.17
336.817	146.43
337.029	89.09
337.242	54.27
337.454	138.24
337.667	87.04
337.88	146.43
338.092	162.81
338.305	125.95
338.517	-11.26
338.729	62.46
338.942	183.29
339.154	-5.12
339.367	13.31
339.579	50.18
339.792	-29.7
340.004	173.05
340.217	80.89
340.429	60.42
340.641	17.41
340.854	33.79
341.066	29.7
341.278	103.42
341.491	199.68
341.703	46.08
341.915	13.31
342.128	123.9
342.34	66.56
342.552	11.26
342.764	5.12
342.977	105.47
343.189	66.56
343.401	97.28
343.613	-121.85
343.826	52.22
344.038	25.6
344.25	54.27
344.462	-1.02
344.674	84.99
344.886	62.46
345.099	48.13
345.311	48.13
345.523	111.61
345.735	-70.65
345.947	62.46
346.159	33.79
346.371	76.8
346.583	64.51
346.795	183.29
347.007	-9.22
347.219	113.66
347.431	9.22
347.643	109.57
347.855	78.85
348.067	134.14
348.279	29.7
348.491	103.42
348.703	99.33
348.915	84.99
349.127	70.65
349.339	72.7
349.551	-5.12
349.763	130.05
349.975	52.22
350.187	113.66
350.399	132.09
350.61	111.61
350.822	89.09
351.034	3.07
351.246	97.28
351.458	72.7
351.669	109.57
351.881	35.84
352.093	136.19
352.305	91.13
352.517	80.89
352.728	84.99
352.94	70.65
353.152	70.65
353.363	5.12
353.575	44.03
353.787	189.44
353.999	82.94
354.21	101.37
354.422	-95.23
354.633	64.51
354.845	134.14
355.057	60.42
355.268	52.22
355.48	130.05
355.692	-9.22
355.903	103.42
356.115	-33.79
356.326	-97.28
356.538	189.44
356.749	72.7
356.961	138.24
357.172	17.41
357.384	21.5
357.595	238.59
357.807	66.56
358.018	31.74
358.23	121.85
358.441	193.53
358.653	109.57
358.864	62.46
359.075	-31.74
359.287	78.85
359.498	115.71
359.709	95.23
359.921	54.27
360.132	138.24
360.344	-11.26
360.555	33.79
360.766	58.37
360.977	5.12
361.189	113.66
361.4	41.98
361.611	46.08
361.823	162.81
362.034	78.85
362.245	-48.13
362.456	58.37
362.667	68.61
362.879	41.98
363.09	119.81
363.301	37.89
363.512	107.52
363.723	50.18
363.935	9.22
364.146	82.94
364.357	3.07
364.568	19.46
364.779	3.07
364.99	130.05
365.201	60.42
365.412	72.7
365.623	-64.51
365.834	91.13
366.045	66.56
366.256	72.7
366.467	109.57
366.678	56.32
366.889	105.47
367.1	9.22
367.311	117.76
367.522	76.8
367.733	41.98
367.944	62.46
368.155	35.84
368.366	156.67
368.577	148.48
368.788	95.23
368.999	-9.22
369.209	52.22
369.42	226.3
369.631	267.26
369.842	70.65
370.053	41.98
370.264	128
370.474	37.89
370.685	97.28
370.896	-1.02
371.107	144.38
371.317	107.52
371.528	58.37
371.739	160.77
371.95	125.95
372.16	113.66
372.371	-11.26
372.582	66.56
372.792	107.52
373.003	56.32
373.214	72.7
373.424	160.77
373.635	3.07
373.846	183.29
374.056	5.12
374.267	56.32
374.477	39.94
374.688	-17.41
374.898	91.13
375.109	33.79
375.319	128
375.53	111.61
375.74	80.89
375.951	5.12
376.161	95.23
376.372	132.09
376.582	35.84
376.793	105.47
377.003	31.74
377.214	15.36
377.424	74.75
377.635	128
377.845	-7.17
378.055	160.77
378.266	-37.89
378.476	72.7
378.686	46.08
378.897	84.99
379.107	191.49
379.317	80.89
379.528	-107.52
379.738	80.89
379.948	1.02
380.158	115.71
380.369	121.85
380.579	99.33
380.789	66.56
380.999	80.89
381.21	144.38
381.42	222.2
381.63	-7.17
381.84	68.61
382.05	76.8
382.261	158.72
382.471	146.43
382.681	-27.65
382.891	162.81
383.101	64.51
383.311	-29.7
383.521	-33.79
383.731	84.99
383.941	138.24
384.151	84.99
384.361	31.74
384.571	70.65
384.781	78.85
384.991	136.19
385.201	214.01
385.411	136.19
385.621	46.08
385.831	41.98
386.041	41.98
386.251	70.65
386.461	138.24
386.671	54.27
386.881	97.28
387.091	48.13
387.301	105.47
387.511	87.04
387.72	97.28
387.93	95.23
388.14	-54.27
388.35	62.46
388.56	54.27
388.769	78.85
388.979	82.94
389.189	-11.26
389.399	91.13
389.609	109.57
389.818	111.61
390.028	56.32
390.238	109.57
390.447	54.27
390.657	113.66
390.867	-31.74
391.076	-78.85
391.286	87.04
391.496	74.75
391.705	93.18
391.915	41.98
392.125	136.19
392.334	5.12
392.544	136.19
392.753	56.32
392.963	48.13
393.172	74.75
393.382	93.18
393.591	199.68
393.801	-13.31
394.01	160.77
394.22	68.61
394.429	109.57
394.639	64.51
394.848	44.03
395.058	25.6
395.267	17.41
395.477	97.28
395.686	-1.02
395.895	197.63
396.105	185.34
396.314	80.89
396.524	84.99
396.733	64.51
396.942	158.72
397.152	109.57
397.361	39.94
397.57	54.27
397.78	78.85
397.989	132.09
398.198	226.3
398.407	123.9
398.617	13.31
398.826	46.08
399.035	52.22
399.244	84.99
399.453	62.46
399.663	56.32
399.872	27.65
400.081	101.37
400.29	158.72
400.499	-33.79
400.708	113.66
400.917	-17.41
401.127	25.6
401.336	35.84
401.545	168.96
401.754	107.52
401.963	84.99
402.172	13.31
402.381	-23.55
402.59	-5.12
402.799	54.27
403.008	5.12
403.217	82.94
403.426	101.37
403.635	-11.26
403.844	-1.02
404.053	39.94
404.262	-1.02
404.471	95.23
404.68	37.89
404.888	29.7
405.097	-25.6
405.306	54.27
405.515	187.39
405.724	142.33
405.933	203.77
406.142	60.42
406.35	140.29
406.559	68.61
406.768	39.94
406.977	76.8
407.185	123.9
407.394	99.33
407.603	-70.65
407.812	68.61
408.02	128
408.229	72.7
408.438	58.37
408.646	-29.7
408.855	58.37
409.064	123.9
409.272	62.46
409.481	70.65
409.69	19.46
409.898	5.12
410.107	48.13
410.315	136.19
410.524	7.17
410.733	93.18
410.941	5.12
411.15	117.76
411.358	103.42
411.567	183.29
411.775	107.52
411.984	109.57
412.192	33.79
412.401	-19.46
412.609	113.66
412.818	160.77
413.026	105.47
413.234	72.7
413.443	80.89
413.651	-17.41
413.86	80.89
414.068	193.53
414.276	267.26
414.485	33.79
414.693	142.33
414.901	199.68
415.11	119.81
415.318	-3.07
415.526	41.98
415.734	142.33
415.943	113.66
416.151	191.49
416.359	41.98
416.567	50.18
416.776	115.71
416.984	97.28
417.192	189.44
417.4	105.47
417.608	-13.31
417.817	-33.79
418.025	113.66
418.233	230.4
418.441	50.18
418.649	-9.22
418.857	78.85
419.065	158.72
419.273	76.8
419.481	46.08
419.689	52.22
419.897	1.02
420.105	1.02
420.313	113.66
420.521	125.95
420.729	177.15
420.937	39.94
421.145	76.8
421.353	138.24
421.561	138.24
421.769	89.09
421.977	27.65
422.185	115.71
422.393	103.42
422.601	121.85
422.809	95.23
423.017	60.42
423.224	105.47
423.432	113.66
423.64	27.65
423.848	158.72
424.056	3.07
424.263	162.81
424.471	5.12
424.679	113.66
424.887	41.98
425.094	171.01
425.302	93.18
425.51	58.37
425.718	17.41
425.925	103.42
426.133	-5.12
426.341	287.74
426.548	121.85
426.756	82.94
426.964	111.61
427.171	35.84
427.379	99.33
427.586	125.95
427.794	113.66
428.001	72.7
428.209	103.42
428.417	220.16
428.624	136.19
428.832	54.27
429.039	113.66
429.247	148.48
429.454	46.08
429.662	136.19
429.869	136.19
430.076	130.05
430.284	177.15
430.491	183.29
430.699	128
430.906	306.17
431.114	74.75
431.321	254.97
431.528	121.85
431.736	121.85
431.943	250.88
432.15	220.16
432.358	191.49
432.565	320.51
432.772	11.26
432.979	183.29
433.187	109.57
433.394	218.11
433.601	146.43
433.808	211.96
434.016	232.44
434.223	250.88
434.43	230.4
434.637	318.46
434.844	220.16
435.052	183.29
435.259	152.57
435.466	254.97
435.673	283.64
435.88	295.93
436.087	246.78
436.294	312.32
436.501	316.41
436.708	216.06
436.915	252.92
437.122	392.19
437.329	185.34
437.537	285.69
437.743	332.79
437.95	422.91
438.157	351.23
438.364	300.03
438.571	398.33
438.778	406.52
438.985	488.44
439.192	510.97
439.399	383.99
439.606	431.1
439.813	457.72
440.02	562.17
440.227	619.51
440.433	494.58
440.64	494.58
440.847	412.67
441.054	558.07
441.261	683
441.467	537.59
441.674	521.21
441.881	633.85
442.088	537.59
442.294	666.61
442.501	676.85
442.708	736.24
442.914	734.2
443.121	764.92
443.328	766.96
443.534	869.36
443.741	834.55
443.948	738.29
444.154	984.05
444.361	1035.25
444.568	924.66
444.774	965.62
444.981	988.14
445.187	1123.31
445.394	1049.58
445.6	1004.53
445.807	1221.61
446.013	1121.26
446.22	1176.56
446.426	1371.12
446.633	1340.4
446.839	1580.01
447.046	1299.44
447.252	1551.34
447.459	1432.55
447.665	1477.61
447.871	1635.3
448.078	1805.28
448.284	1879.01
448.491	1854.44
448.697	1950.69
448.903	1879.01
449.11	2008.03
449.316	2016.23
449.522	2241.5
449.728	2147.3
449.935	2411.48
450.141	2286.56
450.347	2573.27
450.553	2407.39
450.76	2534.36
450.966	2722.77
451.172	2831.32
451.378	2886.61
451.584	2946
451.791	3136.46
451.997	3236.81
452.203	3441.61
452.409	3539.91
452.615	3691.46
452.821	3541.96
453.027	3468.24
453.233	4021.19
453.44	4074.43
453.646	4023.23
453.852	4207.55
454.058	4508.6
454.264	4561.85
454.47	4920.24
454.676	4957.11
454.882	5333.93
455.088	5213.1
455.294	5274.54
455.5	5919.65
455.705	6192.03
455.911	5999.52
456.117	6179.75
456.323	6384.54
456.529	6292.38
456.735	7074.71
456.941	7324.56
457.147	7588.75
457.352	7582.6
457.558	7936.9
457.764	8438.66
457.97	8676.22
458.176	9022.33
458.381	9329.52
458.587	9554.8
458.793	9900.9
458.999	10031.97
459.204	11328.34
459.41	11664.21
459.616	11240.28
459.821	12276.55
460.027	12571.46
460.233	13308.72
460.438	13462.32
460.644	14121.77
460.85	14324.52
461.055	14600.99
461.261	15575.83
461.466	15125.27
461.672	15512.34
461.878	17208.06
462.083	17593.08
462.289	17535.73
462.494	18150.12
462.7	18330.34
462.905	18678.5
463.111	20021.97
463.316	21066.43
463.522	21373.63
463.727	22028.98
463.932	23136.93
464.138	23884.44
464.343	24625.8
464.549	24883.84
464.754	26606.19
464.959	27138.66
465.165	27765.34
465.37	27880.02
465.575	27687.51
465.781	29401.66
465.986	30329.39
466.191	29823.54
466.397	30118.45
466.602	29557.31
466.807	31046.18
467.012	31560.22
467.218	32326.16
467.423	32301.59
467.628	33253.89
467.833	34816.49
468.038	34007.55
468.244	33720.83
468.449	35293.67
468.654	34550.26
468.859	34449.91
469.064	34890.22
469.269	33812.99
469.474	34118.14
469.679	34810.35
469.885	33731.07
470.09	34738.67
470.295	34243.06
470.5	33907.19
470.705	34421.23
470.91	33372.67
471.115	33229.32
471.32	33509.89
471.525	33188.36
471.73	32139.8
471.935	31746.59
472.139	30691.88
472.344	30626.35
472.549	30460.46
472.754	30095.92
472.959	29168.19
473.164	28015.19
473.369	27961.94
473.574	28887.62
473.778	28068.44
473.983	27673.18
474.188	27075.17
474.393	26008.18
474.598	26169.97
474.802	25170.56
475.007	24771.21
475.212	24607.37
475.417	23755.41
475.621	23552.66
475.826	22866.6
476.031	22626.98
476.235	21947.06
476.44	22026.93
476.645	21566.13
476.849	21433.02
477.054	20976.32
477.259	20507.34
477.463	20720.32
477.668	19983.06
477.872	20007.63
478.077	19626.71
478.282	18873.06
478.486	18875.1
478.691	18518.76
478.895	18404.07
479.1	18201.32
479.304	18090.73
479.509	17701.62
479.713	17781.49
479.918	17478.39
480.122	17232.63
480.326	17234.68
480.531	16900.86
480.735	16775.94
480.94	16489.22
481.144	16907.01
481.348	16337.67
481.553	16442.12
481.757	16005.9
481.961	16173.83
482.166	16362.25
482.37	15731.47
482.574	15338.26
482.778	15401.75
482.983	15823.63
483.187	15526.68
483.391	15340.31
483.595	15119.13
483.8	14687.01
484.004	15133.47
484.208	15008.54
484.412	14768.93
484.616	14580.51
484.821	14357.28
485.025	14074.67
485.229	14156.58
485.433	13755.18
485.637	13556.53
485.841	13548.34
486.045	13237.05
486.249	13288.25
486.453	12731.2
486.657	12909.37
486.861	12403.52
487.065	12309.32
487.269	12055.37
487.473	11803.47
487.677	11852.62
487.881	11803.47
488.085	11418.45
488.289	11244.37
488.493	10961.75
488.697	11041.62
488.901	10965.85
489.105	10367.84
489.309	10406.75
489.512	10306.4
489.716	10156.9
489.92	9773.93
490.124	9638.76
490.328	9665.39
490.531	9448.3
490.735	9067.38
490.939	9177.97
491.143	8745.85
491.346	8704.89
491.55	8645.5
491.754	8643.45
491.958	8301.44
492.161	8129.41
492.365	8102.79
492.569	7881.61
492.772	7678.86
492.976	7670.67
493.18	7777.16
493.383	7648.14
493.587	7539.6
493.79	7555.98
493.994	7087
494.197	7103.38
494.401	7109.52
494.605	6998.93
494.808	6994.84
495.012	6900.63
495.215	6892.44
495.419	6857.62
495.622	6814.62
495.825	6689.69
496.029	6497.18
496.232	6798.23
496.436	6511.52
496.639	6661.02
496.843	6609.82
497.046	6605.72
497.249	6663.07
497.453	6607.77
497.656	6575
497.859	6482.85
498.063	6701.98
498.266	6779.8
498.469	6552.48
498.673	6505.37
498.876	6810.52
499.079	6640.54
499.282	6736.79
499.485	6933.4
499.689	6839.19
499.892	6876.06
500.095	6972.31
500.298	7021.46
500.501	6681.5
500.705	7125.91
500.908	7146.39
501.111	6947.73
501.314	7388.05
501.517	7295.89
501.72	7265.17
501.923	7369.62
502.126	7320.46
502.329	7721.87
502.532	7633.8
502.735	7680.91
502.938	7850.89
503.141	7691.15
503.344	7934.85
503.547	8082.31
503.75	8344.45
503.953	8190.85
504.156	8510.33
504.359	8592.25
504.562	8678.27
504.765	8795
504.968	8864.63
505.17	9042.81
505.373	9102.2
505.576	9460.59
505.779	9634.67
505.982	9470.83
506.185	9943.91
506.387	9915.24
506.59	10136.42
506.793	10322.79
506.996	10382.18
507.198	10904.41
507.401	10746.72
507.604	10830.68
507.807	11455.31
508.009	11537.23
508.212	11684.69
508.415	11776.84
508.617	12135.24
508.82	12473.15
509.022	12448.58
509.225	13060.92
509.428	13112.12
509.63	13361.97
509.833	13574.96
510.035	14304.04
510.238	14424.87
510.44	14615.33
510.643	15162.14
510.845	15506.2
511.048	15235.86
511.25	15919.89
511.453	16208.65
511.655	17201.91
511.858	17097.47
512.06	17267.45
512.262	17650.42
512.465	18041.58
512.667	18520.81
512.87	19292.89
513.072	19454.68
513.274	19995.34
513.477	20286.15
513.679	20878.02
513.881	21330.62
514.084	21881.52
514.286	22084.27
514.488	22856.36
514.69	23706.26
514.893	23708.31
515.095	24554.12
515.297	25062.02
515.499	25485.95
515.701	25944.69
515.904	26272.37
516.106	27079.27
516.308	27951.7
516.51	28217.94
516.712	28721.74
516.914	29483.58
517.116	30118.45
517.318	30390.83
517.52	30929.45
517.722	31463.97
517.925	32328.21
518.127	33126.92
518.329	33434.11
518.531	33499.65
518.733	34593.26
518.935	35019.24
519.136	35994.07
519.338	36401.62
519.54	36721.1
519.742	37835.2
519.944	37972.41
520.146	39068.08
520.348	39266.73
520.55	39590.31
520.752	40321.43
520.954	41255.31
521.155	41238.92
521.357	41724.29
521.559	42291.58
521.761	43336.04
521.963	43014.51
522.164	43622.76
522.366	43913.57
522.568	45050.19
522.77	45308.24
522.971	45484.36
523.173	45527.37
523.375	46170.43
523.576	46287.17
523.778	46483.77
523.98	46936.37
524.181	46887.22
524.383	46954.8
524.584	47814.95
524.786	47683.88
524.988	47849.77
525.189	47823.14
525.391	47929.64
525.592	48048.42
525.794	48161.06
525.995	48183.58
526.197	48191.78
526.398	48394.53
526.6	48423.2
526.801	48277.79
527.003	48195.87
527.204	47982.88
527.406	48007.46
527.607	47716.65
527.808	47941.92
528.01	47055.15
528.211	47212.85
528.412	47520.04
528.614	46891.32
528.815	46512.44
529.016	46479.67
529.218	45476.17
529.419	45734.21
529.62	45226.32
529.822	44716.37
530.023	44419.42
530.224	44226.91
530.425	43506.02
530.626	42809.71
530.828	42779
531.029	42793.33
531.23	41398.66
531.431	41568.65
531.632	41105.8
531.833	40638.87
532.035	40503.7
532.236	39815.58
532.437	39664.03
532.638	39010.73
532.839	38369.72
533.04	38222.26
533.241	37450.18
533.442	37706.18
533.643	37163.46
533.844	35760.61
534.045	35906.01
534.246	35099.11
534.447	35191.27
534.648	34433.52
534.849	34048.5
535.05	33982.97
535.251	32905.74
535.451	32494.1
535.652	32147.99
535.853	31572.51
536.054	31597.09
536.255	31173.16
536.456	30571.05
536.657	30480.94
536.857	29669.95
537.058	29033.03
537.259	29293.12
537.46	28584.52
537.66	27800.15
537.861	28050
538.062	27568.73
538.263	27349.6
538.463	26847.85
538.664	26643.05
538.865	26385.01
539.065	26141.3
539.266	25451.13
539.466	25361.02
539.667	24677
539.868	24785.54
540.068	24433.29
540.269	24150.67
540.469	24005.27
540.67	23435.93
540.87	23399.07
541.071	22960.8
541.271	22819.49
541.472	22803.11
541.672	22235.82
541.873	21854.9
542.073	21607.09
542.274	21697.2
542.474	21697.2
542.675	20835.01
542.875	21091.01
543.075	20650.69
543.276	20153.04
543.476	20290.25
543.676	19886.8
543.877	19874.51
544.077	19727.06
544.277	19383
544.478	19274.46
544.678	18924.26
544.878	18668.26
545.078	18756.32
545.279	18330.34
545.479	17873.65
545.679	17793.78
545.879	17644.27
546.079	17574.64
546.28	17091.32
546.48	16800.51
546.68	16997.12
546.88	16765.7
547.08	16698.11
547.28	16327.43
547.48	15840.01
547.68	16128.78
547.88	15584.02
548.081	15520.53
548.281	15385.37
548.481	14828.32
548.681	15078.17
548.881	14953.24
549.081	14676.77
549.28	14113.58
549.48	14607.14
549.68	14066.47
549.88	13816.62
550.08	13802.29
550.28	13613.87
550.48	13458.23
550.68	13239.09
550.88	12931.9
551.08	12706.62
551.279	12743.49
551.479	12264.26
551.679	12430.15
551.879	12122.95
552.079	11905.87
552.278	11709.26
552.478	11492.18
552.678	11309.91
552.878	11144.02
553.077	10859.35
553.277	10885.98
553.477	10730.33
553.676	10595.17
553.876	10343.27
554.076	10349.41
554.275	9968.49
554.475	9841.51
554.674	10038.12
554.874	9562.99
555.074	9380.72
555.273	9280.37
555.473	9085.81
555.672	9026.42
555.872	8926.07
556.071	8829.82
556.271	8717.18
556.47	8336.26
556.67	8250.24
556.869	8178.56
557.068	8076.16
557.268	7928.71
557.467	7738.25
557.667	7922.57
557.866	7504.78
558.065	7345.04
558.265	7328.66
558.464	7037.84
558.663	7033.75
558.863	6945.69
559.062	6994.84
559.261	6742.94
559.461	6790.04
559.66	6458.27
559.859	6300.58
560.058	6460.32
560.258	6253.47
560.457	6263.71
560.656	6206.37
560.855	5888.93
561.054	5747.62
561.253	5870.5
561.453	5465
561.652	5596.07
561.851	5522.35
562.05	5381.04
562.249	5323.69
562.448	5217.2
562.647	5041.08
562.846	5018.55
563.045	5223.34
563.244	4916.15
563.443	4809.65
563.642	4676.54
563.841	4752.31
564.04	4524.99
564.239	4543.42
564.438	4455.36
564.637	4410.3
564.836	4361.15
565.035	4232.13
565.234	4207.55
565.432	4187.07
565.631	4342.72
565.83	4062.15
566.029	4123.59
566.228	3996.61
566.427	3845.06
566.625	3705.8
566.824	3851.21
567.023	3617.74
567.222	3623.88
567.42	3562.44
567.619	3503.05
567.818	3552.2
568.016	3738.57
568.215	3466.19
568.414	3277.77
568.612	3343.31
568.811	3263.44
569.01	3050.45
569.208	3089.36
569.407	3238.86
569.605	3103.7
569.804	2921.43
570.002	2964.43
570.201	2915.28
570.4	2900.95
570.598	2896.85
570.797	2780.12
570.995	2694.1
571.193	2741.21
571.392	2894.8
571.59	2573.27
571.789	2542.55
571.987	2638.81
572.186	2524.12
572.384	2454.49
572.582	2425.82
572.781	2513.88
572.979	2368.48
573.177	2360.28
573.376	2386.91
573.574	2345.95
573.772	2182.11
573.971	2249.69
574.169	1995.75
574.367	2178.01
574.565	2094.05
574.763	1962.98
574.962	2016.23
575.16	2059.23
575.358	1883.11
575.556	1975.27
575.754	2018.27
575.952	1868.77
576.151	1864.68
576.349	1850.34
576.547	1729.51
576.745	1786.85
576.943	1747.94
577.141	1616.87
577.339	1655.78
577.537	1758.18
577.735	1698.79
577.933	1590.25
578.131	1668.07
578.329	1674.21
578.527	1528.81
578.725	1600.49
578.923	1389.55
579.121	1569.77
579.319	1428.46
579.516	1354.73
579.714	1567.72
579.912	1436.65
580.11	1244.14
580.308	1377.26
580.506	1336.3
580.704	1164.27
580.901	1205.23
581.099	1324.01
581.297	1317.87
581.495	1143.79
581.692	1115.12
581.89	1221.61
582.088	1143.79
582.285	1074.16
582.483	1127.41
582.681	1227.76
582.878	1119.21
583.076	1080.3
583.274	1125.36
583.471	1151.98
583.669	1088.5
583.866	967.67
584.064	1004.53
584.262	963.57
584.459	959.47
584.657	990.19
584.854	1102.83
585.052	934.9
585.249	982
585.447	928.75
585.644	801.78
585.841	934.9
586.039	924.66
586.236	990.19
586.434	902.13
586.631	826.36
586.828	787.44
587.026	816.12
587.223	785.4
587.42	711.67
587.618	775.16
587.815	830.45
588.012	779.25
588.21	689.14
588.407	834.55
588.604	797.68
588.801	676.85
588.999	734.2
589.196	781.3
589.393	627.7
589.59	777.2
589.787	740.34
589.984	805.88
590.182	699.38
590.379	658.42
590.576	609.27
590.773	728.05
590.97	662.52
591.167	683
591.364	730.1
591.561	670.71
591.758	781.3
591.955	656.37
592.152	644.09
592.349	533.5
592.546	599.03
592.743	510.97
592.94	627.7
593.137	715.77
593.334	715.77
593.531	670.71
593.727	709.62
593.924	668.66
594.121	678.9
594.318	668.66
594.515	752.63
594.712	846.84
594.908	791.54
595.105	539.64
595.302	771.06
595.499	707.57
595.696	869.36
595.892	732.15
596.089	814.07
596.286	709.62
596.482	908.27
596.679	779.25
596.876	805.88
597.072	959.47
597.269	850.93
597.466	979.95
597.662	926.71
597.859	867.31
598.055	949.23
598.252	971.76
598.448	945.14
598.645	1037.3
598.841	1111.02
599.038	1219.57
599.234	1178.61
599.431	1211.37
599.627	1270.76
599.824	1309.68
600.02	1346.54
600.217	1360.88
600.413	1463.27
600.609	1377.26
600.806	1770.47
601.002	1602.54
601.198	1537
601.395	1770.47
601.591	1764.33
601.787	1948.64
601.984	1848.29
602.18	1971.17
602.376	2003.94
602.572	2112.48
602.769	2237.41
602.965	2257.89
603.161	2466.78
603.357	2403.29
603.553	2495.45
603.75	2495.45
603.946	2608.09
604.142	2819.03
604.338	2921.43
604.534	2884.56
604.73	3060.69
604.926	3054.55
605.122	3236.81
605.318	3367.88
605.514	3412.94
605.71	3390.41
605.906	3681.22
606.102	3826.63
606.298	4012.99
606.494	3959.75
606.69	4090.82
606.886	4066.24
607.082	4295.61
607.278	4301.76
607.474	4467.64
607.67	4598.71
607.866	4668.34
608.062	5071.79
608.257	5043.12
608.453	5161.91
608.649	5403.57
608.845	5344.17
609.041	5432.24
609.236	5817.26
609.432	5788.58
609.628	6204.32
609.824	6196.13
610.019	6306.72
610.215	6593.44
610.411	6919.06
610.606	6941.59
610.802	7099.28
610.998	7320.46
611.193	7635.85
611.389	7476.11
611.584	7809.93
611.78	8039.3
611.976	8293.25
612.171	8487.81
612.367	8883.06
612.562	8911.74
612.758	9114.48
612.953	9261.94
613.149	9663.34
613.344	9837.42
613.539	10036.07
613.735	10193.76
613.93	10705.76
614.126	10754.91
614.321	11223.89
614.517	11496.27
614.712	11795.28
614.907	11924.3
615.103	12389.19
615.298	12604.22
615.493	12929.85
615.688	13148.98
615.884	13790
616.079	13663.02
616.274	14318.37
616.47	14562.08
616.665	14969.63
616.86	15422.23
617.055	15590.16
617.25	16050.96
617.445	16780.03
617.641	16769.79
617.836	17281.78
618.031	17271.54
618.226	17996.53
618.421	18399.98
618.616	19428.06
618.811	19464.92
619.006	19989.2
619.201	19970.77
619.396	20796.1
619.591	20796.1
619.786	21623.48
619.981	21770.93
620.176	22577.83
620.371	22790.82
620.566	23261.85
620.761	23913.11
620.956	24633.99
621.151	24486.54
621.346	25522.81
621.541	25270.91
621.735	26409.58
621.93	26534.51
622.125	27282.02
622.32	27239.01
622.515	28273.23
622.709	28240.47
622.904	29270.59
623.099	29555.26
623.294	30403.12
623.488	30415.41
623.683	31214.12
623.878	31156.77
624.072	32147.99
624.267	33020.42
624.462	33122.82
624.656	33513.98
624.851	34071.03
625.046	34677.23
625.24	34953.71
625.435	35074.54
625.629	35817.95
625.824	36481.49
626.018	37093.83
626.213	36696.53
626.407	37392.84
626.602	37517.76
626.796	38312.38
626.991	38910.38
627.185	38867.37
627.38	39528.87
627.574	39143.85
627.768	39309.74
627.963	39571.88
628.157	39426.47
628.352	40280.47
628.546	39559.59
628.74	40522.13
628.935	39739.81
629.129	40049.05
629.323	39598.5
629.517	39590.31
629.712	39053.74
629.906	38963.63
630.1	38349.24
630.294	38271.42
630.489	37528
630.683	37444.04
630.877	36184.54
631.071	36043.23
631.265	35711.46
631.459	34834.92
631.653	34005.5
631.848	33477.12
632.042	32471.57
632.236	31590.94
632.43	30751.27
632.624	29864.5
632.818	28822.09
633.012	27933.27
633.206	27052.64
633.4	26489.45
633.594	25305.73
633.788	24810.12
633.982	24007.31
634.176	22713
634.369	21793.46
634.563	21154.49
634.757	20183.76
634.951	19694.29
635.145	18750.18
635.339	18113.26
635.533	17255.16
635.726	16618.24
635.92	15817.49
636.114	15106.84
636.308	14740.26
636.501	14220.07
636.695	13566.77
636.889	12983.1
637.083	12657.47
637.276	11963.21
637.47	11502.42
637.664	10902.36
637.857	10525.54
638.051	10128.23
638.244	9728.88
638.438	9474.93
638.632	9098.1
638.825	8590.2
639.019	8264.58
639.212	7955.33
639.406	7685
639.599	7289.74
639.793	6947.73
639.986	6769.56
640.18	6505.37
640.373	6362.01
640.567	5768.1
640.76	5782.44
640.954	5577.64
641.147	5194.67
641.34	5120.95
641.534	4924.34
641.727	4680.63
641.92	4565.95
642.114	4508.6
642.307	4160.45
642.5	4025.28
642.694	3793.86
642.887	3711.94
643.08	3845.06
643.273	3625.93
643.467	3345.36
643.66	3115.98
643.853	2991.06
644.046	2976.72
644.239	2872.28
644.432	2749.4
644.626	2468.83
644.819	2603.99
645.012	2376.67
645.205	2499.55
645.398	2354.14
645.591	2210.78
645.784	2030.56
645.977	2073.57
646.17	1942.5
646.363	1844.2
646.556	1663.97
646.749	1616.87
646.942	1686.5
647.135	1680.36
647.328	1627.11
647.521	1506.28
647.714	1489.9
647.907	1381.35
648.099	1250.28
648.292	1397.74
648.485	1295.34
648.678	1199.09
648.871	1164.27
649.064	1106.93
649.256	1049.58
649.449	961.52
649.642	932.85
649.835	898.03
650.027	844.79
650.22	961.52
650.413	838.64
650.605	863.22
650.798	799.73
650.991	746.48
651.183	787.44
651.376	775.16
651.568	709.62
651.761	639.99
651.954	656.37
652.146	617.46
652.339	766.96
652.531	642.04
652.724	564.22
652.916	566.26
653.109	482.3
653.301	590.84
653.494	599.03
653.686	619.51
653.879	588.79
654.071	533.5
654.263	414.71
654.456	443.39
654.648	490.49
654.84	510.97
655.033	402.43
655.225	525.3
655.417	324.6
655.61	515.06
655.802	422.91
655.994	474.1
656.186	322.56
656.379	455.67
656.571	254.97
656.763	349.18
656.955	338.94
657.148	316.41
657.34	365.56
657.532	314.36
657.724	297.98
657.916	314.36
658.108	334.84
658.3	371.71
658.492	345.08
658.684	250.88
658.876	314.36
659.068	240.64
659.26	144.38
659.452	181.25
659.644	373.75
659.836	318.46
660.028	244.73
660.22	214.01
660.412	283.64
660.604	230.4
660.796	297.98
660.988	306.17
661.18	236.54
661.372	306.17
661.563	238.59
661.755	300.03
661.947	168.96
662.139	197.63
662.331	199.68
662.522	267.26
662.714	128
662.906	197.63
663.097	183.29
663.289	183.29
663.481	154.62
663.673	349.18
663.864	250.88
664.056	193.53
664.247	164.86
664.439	322.56
664.631	158.72
664.822	304.12
665.014	152.57
665.205	164.86
665.397	148.48
665.588	142.33
665.78	158.72
665.971	211.96
666.163	136.19
666.354	271.36
666.546	138.24
666.737	146.43
666.929	166.91
667.12	64.51
667.311	142.33
667.503	209.92
667.694	257.02
667.885	259.07
668.077	248.83
668.268	103.42
668.459	146.43
668.651	232.44
668.842	230.4
669.033	80.89
669.224	107.52
669.416	347.13
669.607	160.77
669.798	175.1
669.989	271.36
670.18	224.25
670.371	283.64
670.563	89.09
670.754	279.55
670.945	250.88
671.136	297.98
671.327	128
671.518	263.16
671.709	277.5
671.9	279.55
672.091	254.97
672.282	197.63
672.473	224.25
672.664	138.24
672.855	168.96
673.046	160.77
673.237	230.4
673.428	275.45
673.619	287.74
673.809	154.62
674	279.55
674.191	259.07
674.382	230.4
674.573	187.39
674.764	234.49
674.954	297.98
675.145	156.67
675.336	214.01
675.527	173.05
675.717	146.43
675.908	142.33
676.099	269.31
676.289	300.03
676.48	150.53
676.671	218.11
676.861	211.96
677.052	224.25
677.243	279.55
677.433	263.16
677.624	275.45
677.814	297.98
678.005	203.77
678.195	361.47
678.386	166.91
678.576	191.49
678.767	230.4
678.957	289.79
679.148	345.08
679.338	435.19
679.529	304.12
679.719	259.07
679.909	291.84
680.1	351.23
680.29	271.36
680.481	267.26
680.671	398.33
680.861	291.84
681.052	279.55
681.242	320.51
681.432	304.12
681.622	265.21
681.813	238.59
682.003	252.92
682.193	275.45
682.383	328.7
682.573	232.44
682.764	283.64
682.954	297.98
683.144	355.32
683.334	248.83
683.524	271.36
683.714	347.13
683.904	343.03
684.094	320.51
684.284	340.99
684.474	478.2
684.664	371.71
684.854	367.61
685.044	324.6
685.234	349.18
685.424	383.99
685.614	232.44
685.804	402.43
685.994	332.79
686.184	320.51
686.374	355.32
686.564	343.03
686.753	383.99
686.943	257.02
687.133	377.85
687.323	388.09
687.513	312.32
687.702	406.52
687.892	431.1
688.082	400.38
688.272	517.11
688.461	343.03
688.651	513.02
688.841	435.19
689.03	379.9
689.22	379.9
689.41	351.23
689.599	388.09
689.789	326.65
689.979	490.49
690.168	394.23
690.358	457.72
690.547	355.32
690.737	414.71
690.926	392.19
691.116	351.23
691.305	472.06
691.495	427
691.684	293.88
691.874	334.84
692.063	312.32
692.252	488.44
692.442	381.95
692.631	394.23
692.82	340.99
693.01	457.72
693.199	289.79
693.388	297.98
693.578	424.95
693.767	484.34
693.956	349.18
694.146	314.36
694.335	416.76
694.524	277.5
694.713	357.37
694.902	361.47
695.092	324.6
695.281	445.43
695.47	287.74
695.659	322.56
695.848	398.33
696.037	369.66
696.226	400.38
696.415	324.6
696.604	474.1
696.793	402.43
696.982	236.54
697.171	429.05
697.36	304.12
697.549	351.23
697.738	246.78
697.927	293.88
698.116	310.27
698.305	289.79
698.494	381.95
698.683	322.56
698.872	541.69
699.061	306.17
699.25	373.75
699.438	304.12
699.627	271.36
699.816	449.53
700.005	308.22
700.193	230.4
700.382	437.24
700.571	379.9
700.76	504.82
700.948	404.47
701.137	484.34
701.326	447.48
701.514	281.6
701.703	418.81
701.892	338.94
702.08	527.35
702.269	394.23
702.457	269.31
702.646	365.56
702.834	347.13
703.023	398.33
703.212	504.82
703.4	322.56
703.589	297.98
703.777	338.94
703.965	336.89
704.154	353.27
704.342	300.03
704.531	316.41
704.719	386.04
704.907	467.96
705.096	283.64
705.284	220.16
705.472	406.52
705.661	349.18
705.849	404.47
706.037	427
706.226	359.42
706.414	412.67
706.602	304.12
706.79	386.04
706.979	332.79
707.167	392.19
707.355	203.77
707.543	347.13
707.731	439.29
707.919	375.8
708.107	332.79
708.296	263.16
708.484	226.3
708.672	351.23
708.86	394.23
709.048	390.14
709.236	254.97
709.424	381.95
709.612	316.41
709.8	261.12
709.988	386.04
710.176	383.99
710.364	375.8
710.551	314.36
710.739	332.79
710.927	398.33
711.115	377.85
711.303	361.47
711.491	392.19
711.679	275.45
711.866	351.23
712.054	293.88
712.242	383.99
712.43	429.05
712.617	312.32
712.805	412.67
712.993	297.98
713.181	291.84
713.368	359.42
713.556	265.21
713.744	402.43
713.931	576.5
714.119	392.19
714.306	343.03
714.494	375.8
714.682	295.93
714.869	322.56
715.057	326.65
715.244	166.91
715.432	353.27
715.619	334.84
715.807	285.69
715.994	347.13
716.182	310.27
716.369	433.15
716.556	373.75
716.744	302.08
716.931	246.78
717.119	357.37
717.306	345.08
717.493	386.04
717.681	328.7
717.868	365.56
718.055	338.94
718.242	332.79
718.43	437.24
718.617	445.43
718.804	353.27
718.991	451.58
719.179	422.91
719.366	433.15
719.553	513.02
719.74	375.8
719.927	386.04
720.114	361.47
720.301	304.12
720.488	357.37
720.676	283.64
720.863	402.43
721.05	529.4
721.237	386.04
721.424	437.24
721.611	347.13
721.798	324.6
721.985	310.27
722.172	369.66
722.358	312.32
722.545	484.34
722.732	443.39
722.919	560.12
723.106	437.24
723.293	408.57
723.48	388.09
723.667	443.39
723.853	398.33
724.04	500.73
724.227	463.86
724.414	422.91
724.6	420.86
724.787	463.86
724.974	453.63
725.161	449.53
725.347	340.99
725.534	445.43
725.72	398.33
725.907	418.81
726.094	494.58
726.28	379.9
726.467	373.75
726.653	330.75
726.84	461.82
727.027	545.78
727.213	478.2
727.4	418.81
727.586	347.13
727.773	410.62
727.959	392.19
728.145	402.43
728.332	383.99
728.518	386.04
728.705	459.77
728.891	461.82
729.077	478.2
729.264	379.9
729.45	398.33
729.636	590.84
729.823	396.28
730.009	437.24
730.195	433.15
730.382	558.07
730.568	394.23
730.754	482.3
730.94	486.39
731.126	500.73
731.313	472.06
731.499	484.34
731.685	508.92
731.871	480.25
732.057	525.3
732.243	551.93
732.429	453.63
732.615	508.92
732.801	506.87
732.987	443.39
733.173	502.78
733.359	463.86
733.545	574.46
733.731	406.52
733.917	508.92
734.103	508.92
734.289	562.17
734.475	375.8
734.661	566.26
734.847	480.25
735.033	455.67
735.219	592.89
735.404	412.67
735.59	396.28
735.776	455.67
735.962	443.39
736.148	463.86
736.333	474.1
736.519	429.05
736.705	513.02
736.89	467.96
737.076	472.06
737.262	381.95
737.447	404.47
737.633	459.77
737.819	513.02
738.004	435.19
738.19	476.15
738.375	510.97
738.561	607.22
738.747	539.64
738.932	431.1
739.118	633.85
739.303	517.11
739.489	445.43
739.674	416.76
739.859	410.62
740.045	531.45
740.23	506.87
740.416	408.57
740.601	472.06
740.786	560.12
740.972	332.79
741.157	379.9
741.342	381.95
741.528	379.9
741.713	547.83
741.898	455.67
742.084	474.1
742.269	461.82
742.454	476.15
742.639	574.46
742.824	455.67
743.01	547.83
743.195	648.18
743.38	467.96
743.565	467.96
743.75	523.26
743.935	580.6
744.12	517.11
744.305	379.9
744.49	517.11
744.675	412.67
744.86	480.25
745.045	570.36
745.23	551.93
745.415	402.43
745.6	666.61
745.785	406.52
745.97	543.74
746.155	470.01
746.34	467.96
746.525	484.34
746.71	590.84
746.895	363.51
747.079	369.66
747.264	429.05
747.449	521.21
747.634	496.63
747.819	422.91
748.003	379.9
748.188	347.13
748.373	494.58
748.557	478.2
748.742	396.28
748.927	383.99
749.111	330.75
749.296	447.48
749.481	418.81
749.665	486.39
749.85	318.46
750.034	445.43
750.219	404.47
750.404	334.84
750.588	347.13
750.773	332.79
750.957	441.34
751.141	494.58
751.326	480.25
751.51	316.41
751.695	310.27
751.879	359.42
752.064	457.72
752.248	377.85
752.432	492.54
752.617	388.09
752.801	461.82
752.985	263.16
753.17	504.82
753.354	400.38
753.538	402.43
753.722	295.93
753.907	271.36
754.091	254.97
754.275	410.62
754.459	263.16
754.643	269.31
754.828	306.17
755.012	306.17
755.196	312.32
755.38	330.75
755.564	334.84
755.748	369.66
755.932	369.66
756.116	433.15
756.3	371.71
756.484	259.07
756.668	400.38
756.852	162.81
757.036	320.51
757.22	291.84
757.404	248.83
757.588	297.98
757.772	345.08
757.956	279.55
758.14	402.43
758.323	271.36
758.507	347.13
758.691	254.97
758.875	383.99
759.059	283.64
759.242	250.88
759.426	308.22
759.61	295.93
759.794	291.84
759.977	281.6
760.161	404.47
760.345	414.71
760.528	322.56
760.712	242.68
760.895	242.68
761.079	181.25
761.263	183.29
761.446	177.15
761.63	334.84
761.813	275.45
761.997	128
762.18	199.68
762.364	244.73
762.547	177.15
762.731	199.68
762.914	285.69
763.098	191.49
763.281	119.81
763.464	222.2
763.648	228.35
763.831	230.4
764.015	181.25
764.198	240.64
764.381	164.86
764.564	230.4
764.748	267.26
764.931	263.16
765.114	164.86
765.297	222.2
765.481	152.57
765.664	254.97
765.847	211.96
766.03	332.79
766.213	154.62
766.397	187.39
766.58	107.52
766.763	254.97
766.946	224.25
767.129	240.64
767.312	187.39
767.495	181.25
767.678	197.63
767.861	89.09
768.044	144.38
768.227	150.53
768.41	154.62
768.593	250.88
768.776	207.87
768.959	209.92
769.142	207.87
769.324	168.96
769.507	189.44
769.69	168.96
769.873	109.57
770.056	314.36
770.239	218.11
770.421	304.12
770.604	244.73
770.787	123.9
770.97	236.54
771.152	87.04
771.335	171.01
771.518	128
771.7	336.89
771.883	310.27
772.066	193.53
772.248	156.67
772.431	214.01
772.613	238.59
772.796	80.89
772.978	263.16
773.161	250.88
773.343	87.04
773.526	132.09
773.708	72.7
773.891	70.65
774.073	41.98
774.256	99.33
774.438	257.02
774.621	148.48
774.803	232.44
774.985	125.95
775.168	144.38
775.35	80.89
775.532	179.2
775.715	101.37
775.897	185.34
776.079	91.13
776.261	238.59
776.444	211.96
776.626	93.18
776.808	144.38
776.99	50.18
777.173	136.19
777.355	130.05
777.537	134.14
777.719	117.76
777.901	181.25
778.083	72.7
778.265	111.61
778.447	132.09
778.629	175.1
778.811	132.09
778.993	154.62
779.175	160.77
779.357	214.01
779.539	39.94
779.721	44.03
779.903	177.15
780.085	91.13
780.267	142.33
780.449	89.09
780.631	187.39
780.812	113.66
780.994	134.14
781.176	164.86
781.358	60.42
781.54	82.94
781.721	164.86
781.903	117.76
782.085	56.32
782.267	150.53
782.448	-3.07
782.63	84.99
782.812	111.61
782.993	158.72
783.175	199.68
783.357	107.52
783.538	70.65
783.72	68.61
783.901	62.46
784.083	97.28
784.264	74.75
784.446	89.09
784.627	29.7
784.809	166.91
784.99	52.22
785.172	197.63
785.353	41.98
785.535	78.85
785.716	64.51
785.897	54.27
786.079	62.46
786.26	144.38
786.441	115.71
786.623	-25.6
786.804	15.36
786.985	115.71
787.167	103.42
787.348	-37.89
787.529	70.65
787.71	181.25
787.891	144.38
788.073	9.22
788.254	-46.08
788.435	150.53
788.616	29.7
788.797	58.37
788.978	103.42
789.159	58.37
789.34	105.47
789.522	113.66
789.703	13.31
789.884	103.42
790.065	158.72
790.246	117.76
790.427	64.51
790.607	189.44
790.788	103.42
790.969	-5.12
791.15	80.89
791.331	93.18
791.512	56.32
791.693	25.6
791.874	50.18
792.054	252.92
792.235	99.33
792.416	-7.17
792.597	23.55
792.778	115.71
792.958	121.85
793.139	105.47
793.32	54.27
793.5	56.32
793.681	185.34
793.862	27.65
794.042	76.8
794.223	-11.26
794.404	21.5
794.584	-56.32
794.765	-13.31
794.945	19.46
795.126	128
795.306	140.29
795.487	80.89
795.667	-19.46
795.848	115.71
796.028	58.37
796.209	123.9
796.389	125.95
796.57	84.99
796.75	17.41
796.93	-31.74
797.111	60.42
797.291	27.65
797.471	154.62
797.652	66.56
797.832	-56.32
798.012	109.57
798.192	-11.26
798.373	-29.7
798.553	21.5
798.733	52.22
798.913	-111.61
799.093	-15.36
799.274	150.53
799.454	97.28
799.634	140.29
799.814	117.76
799.994	93.18
800.174	130.05
800.354	62.46
800.534	-62.46
800.714	66.56
800.894	-23.55
801.074	-80.89
801.254	-17.41
801.434	123.9
801.614	23.55
801.794	52.22
801.974	1897.44
802.154	84.99
802.334	99.33
802.514	13.31
802.693	21.5
802.873	35.84
803.053	166.91
803.233	54.27
803.413	66.56
803.592	-78.85
803.772	-5.12
803.952	-1.02
804.131	-52.22
804.311	107.52
804.491	109.57
804.67	-58.37
804.85	-29.7
805.03	62.46
805.209	203.77
805.389	74.75
805.568	15.36
805.748	27.65
805.928	29.7
806.107	97.28
806.287	121.85
806.466	91.13
806.646	31.74
806.825	21.5
807.004	-48.13
807.184	113.66
807.363	107.52
807.543	37.89
807.722	-21.5
807.901	177.15
808.081	56.32
808.26	-93.18
808.439	44.03
808.619	66.56
808.798	-44.03
808.977	25.6
809.156	164.86
809.336	33.79
809.515	121.85
809.694	-35.84
809.873	-13.31
810.052	76.8
810.231	111.61
810.411	80.89
810.59	144.38
810.769	103.42
810.948	164.86
811.127	-84.99
811.306	89.09
811.485	-91.13
811.664	148.48
811.843	31.74
812.022	5.12
812.201	89.09
812.38	44.03
812.559	13.31
812.737	25.6
812.916	-52.22
813.095	-27.65
813.274	74.75
813.453	21.5
813.632	60.42
813.811	70.65
813.989	-130.05
814.168	21.5
814.347	-9.22
814.526	54.27
814.704	97.28
814.883	60.42
815.062	-3.07
815.24	68.61
815.419	5.12
815.598	11.26
815.776	-31.74
815.955	70.65
816.133	-97.28
816.312	13.31
816.49	-23.55
816.669	48.13
816.847	-19.46
817.026	50.18
817.204	-50.18
817.383	21.5
817.561	27.65
817.74	84.99
817.918	111.61
818.097	35.84
818.275	107.52
818.453	109.57
818.632	44.03
818.81	15.36
818.988	-84.99
819.167	15.36
819.345	46.08
819.523	-31.74
819.701	17.41
819.879	46.08
820.058	44.03
820.236	82.94
820.414	15.36
820.592	72.7
820.77	-15.36
820.948	9.22
821.127	-64.51
821.305	35.84
821.483	-23.55
821.661	103.42
821.839	60.42
822.017	-11.26
822.195	-62.46
822.373	35.84
822.551	-21.5
822.729	41.98
822.907	68.61
823.085	41.98
823.262	103.42
823.44	11.26
823.618	-27.65
823.796	41.98
823.974	27.65
824.152	-11.26
824.329	33.79
824.507	-1.02
824.685	68.61
824.863	-23.55
825.04	23.55
825.218	99.33
825.396	35.84
825.574	37.89
825.751	58.37
825.929	29.7
826.107	-5.12
826.284	17.41
826.462	78.85
826.639	-37.89
826.817	-41.98
826.994	46.08
827.172	-39.94
827.349	58.37
827.527	13.31
827.704	15.36
827.882	107.52
828.059	17.41
828.237	19.46
828.414	21.5
828.591	-91.13
828.769	15.36
828.946	-52.22
829.124	70.65
829.301	156.67
829.478	-9.22
829.655	-60.42
829.833	17.41
830.01	-162.81
830.187	1.02
830.364	27.65
830.542	54.27
830.719	168.96
830.896	52.22
831.073	89.09
831.25	41.98
831.427	56.32
831.604	37.89
831.782	52.22
831.959	31.74
832.136	-11.26
832.313	13.31
832.49	31.74
832.667	9.22
832.844	-3.07
833.021	146.43
833.198	5.12
833.374	19.46
833.551	125.95
833.728	-33.79
833.905	54.27
834.082	-56.32
834.259	25.6
834.436	105.47
834.612	-3.07
834.789	111.61
834.966	60.42
835.143	50.18
835.319	-58.37
835.496	52.22
835.673	5.12
835.85	123.9
836.026	-3.07
836.203	82.94
836.38	31.74
836.556	-17.41
836.733	-44.03
836.909	146.43
837.086	-39.94
837.262	-7.17
837.439	-13.31
837.616	-5.12
837.792	19.46
837.968	15.36
838.145	-1.02
838.321	3.07
838.498	78.85
838.674	121.85
838.851	-31.74
839.027	41.98
839.203	50.18
839.38	84.99
839.556	-27.65
839.732	138.24
839.909	-11.26
840.085	58.37
840.261	15.36
840.437	78.85
840.614	9.22
840.79	9.22
840.966	91.13
841.142	27.65
841.318	-21.5
841.494	-13.31
841.671	117.76
841.847	-11.26
842.023	-25.6
842.199	50.18
842.375	74.75
842.551	-103.42
842.727	1.02
842.903	68.61
843.079	-11.26
843.255	11.26
843.431	-25.6
843.607	-1.02
843.783	-74.75
843.959	87.04
844.134	-3.07
844.31	132.09
844.486	19.46
844.662	-33.79
844.838	31.74
845.013	74.75
845.189	17.41
845.365	130.05
845.541	29.7
845.716	-33.79
845.892	134.14
846.068	-25.6
846.244	-64.51
846.419	50.18
846.595	-95.23
846.77	-13.31
846.946	-33.79
847.122	15.36
847.297	15.36
847.473	152.57
847.648	-84.99
847.824	58.37
847.999	-150.53
848.175	-15.36
848.35	76.8
848.526	142.33
848.701	103.42
848.876	19.46
849.052	128
849.227	31.74
849.403	17.41
849.578	-13.31
849.753	-29.7
849.929	33.79
850.104	-25.6
850.279	9.22
850.454	31.74
850.63	56.32
850.805	13.31
850.98	23.55
851.155	31.74
851.33	84.99
851.505	-19.46
851.681	179.2
851.856	31.74
852.031	113.66
852.206	76.8
852.381	11.26
852.556	50.18
852.731	54.27
852.906	11.26
853.081	23.55
853.256	130.05
853.431	11.26
853.606	-15.36
853.781	35.84
853.956	-52.22
854.131	66.56
854.305	-39.94
854.48	-11.26
854.655	-68.61
854.83	-17.41
855.005	-31.74
855.18	84.99
855.354	3.07
855.529	-27.65
855.704	-27.65
855.879	76.8
856.053	-82.94
856.228	-11.26
856.403	-70.65
856.577	168.96
856.752	-89.09
856.926	89.09
857.101	13.31
857.276	-50.18
857.45	17.41
857.625	68.61
857.799	-66.56
857.974	123.9
858.148	-23.55
858.323	41.98
858.497	-76.8
858.672	-74.75
858.846	-93.18
859.02	48.13
859.195	-37.89
859.369	-25.6
859.543	29.7
859.718	-15.36
859.892	54.27
860.066	25.6
860.241	111.61
860.415	-29.7
860.589	37.89
860.763	29.7
860.938	-29.7
861.112	13.31
861.286	-33.79
861.46	31.74
861.634	-29.7
861.808	95.23
861.982	-80.89
862.157	-91.13
862.331	11.26
862.505	-84.99
862.679	-25.6
862.853	-60.42
863.027	25.6
863.201	148.48
863.375	-37.89
863.549	29.7
863.722	56.32
863.896	84.99
864.07	25.6
864.244	29.7
864.418	33.79
864.592	-31.74
864.766	41.98
864.939	29.7
865.113	-117.76
865.287	130.05
865.461	-39.94
865.634	-33.79
865.808	46.08
865.982	13.31
866.156	-101.37
866.329	-130.05
866.503	-15.36
866.676	74.75
866.85	17.41
867.024	-66.56
867.197	31.74
867.371	-1.02
867.544	66.56
867.718	-41.98
867.891	140.29
868.065	-107.52
868.238	37.89
868.412	46.08
868.585	-7.17
868.759	11.26
868.932	-31.74
869.105	-41.98
869.279	15.36
869.452	-44.03
869.625	25.6
869.799	-31.74
869.972	-68.61
870.145	19.46
870.319	119.81
870.492	-17.41
870.665	25.6
870.838	-35.84
871.011	-173.05
871.185	7.17
871.358	-54.27
871.531	76.8
871.704	-17.41
871.877	-3.07
872.05	-1.02
872.223	-60.42
872.396	25.6
872.569	64.51
872.742	-70.65
872.915	-9.22
873.088	-5.12
873.261	-109.57
873.434	68.61
873.607	-21.5
873.78	78.85
873.953	-1.02
874.126	31.74
874.299	58.37
874.471	17.41
874.644	80.89
874.817	156.67
874.99	181.25
875.163	13.31
875.335	41.98
875.508	-11.26
875.681	142.33
875.853	-109.57
876.026	-46.08
876.199	-5.12
876.371	-7.17
876.544	-9.22
876.717	11.26
876.889	-35.84
877.062	-3.07
877.234	-113.66
877.407	-58.37
877.579	3.07
877.752	-21.5
877.924	-13.31
878.097	62.46
878.269	39.94
878.442	58.37
878.614	7.17
878.786	78.85
878.959	115.71
879.131	58.37
879.303	-119.81
879.476	-3.07
879.648	21.5
879.82	41.98
879.993	-64.51
880.165	29.7
880.337	-128
880.509	19.46
880.681	-87.04
880.854	-11.26
881.026	62.46
881.198	162.81
881.37	-33.79
881.542	101.37
881.714	29.7
881.886	-31.74
882.058	9.22
882.23	13.31
882.402	-3.07
882.574	-44.03
882.746	105.47
882.918	66.56
883.09	25.6
883.262	44.03
883.434	-3.07
883.606	-78.85
883.778	58.37
883.95	72.7
884.122	-29.7
884.293	46.08
884.465	-13.31
884.637	-27.65
884.809	5.12
884.98	41.98
885.152	64.51
885.324	41.98
885.496	-80.89
885.667	29.7
885.839	17.41
886.011	156.67
886.182	-13.31
886.354	17.41
886.525	-3.07
886.697	50.18
886.869	-58.37
887.04	29.7
887.212	168.96
887.383	99.33
887.555	89.09
887.726	-29.7
887.897	-3.07
888.069	-37.89
888.24	23.55
888.412	29.7
888.583	-37.89
888.754	17.41
888.926	-78.85
889.097	-46.08
889.268	-7.17
889.44	58.37
889.611	-103.42
889.782	-82.94
889.953	-52.22
890.125	80.89
890.296	-11.26
890.467	-27.65
890.638	-19.46
890.809	48.13
890.98	-33.79
891.151	5.12
891.323	66.56
891.494	29.7
891.665	-54.27
891.836	-15.36
892.007	21.5
892.178	-7.17
892.349	-17.41
892.52	-15.36
892.691	3.07
892.862	-74.75
893.032	-62.46
893.203	-60.42
893.374	23.55
893.545	128
893.716	-7.17
893.887	119.81
894.057	-62.46
894.228	25.6
894.399	-31.74
894.57	117.76
894.74	-1.02
894.911	-13.31
895.082	-33.79
895.253	-37.89
895.423	-66.56
895.594	95.23
895.764	66.56
895.935	-60.42
896.106	48.13
896.276	-19.46
896.447	-31.74
896.617	-5.12
896.788	-13.31
896.958	-37.89
897.129	1.02
897.299	-9.22
897.47	115.71
897.64	62.46
897.81	-11.26
897.981	21.5
898.151	25.6
898.322	5.12
898.492	56.32
898.662	-70.65
898.832	-23.55
899.003	-62.46
899.173	64.51
899.343	-70.65
899.513	-39.94
