Data from USB4F104151__74__10-33-01-244.txt Node

Date: Wed Feb 26 10:33:01 EST 2025
User: louis
Spectrometer: USB4F10415
Trigger mode: 4
Integration Time (sec): 1.000000E-1
Scans to average: 1
Electric dark correction enabled: true
Nonlinearity correction enabled: false
Boxcar width: 0
XAxis mode: Wavelengths
Number of Pixels in Spectrum: 3648
>>>>>Begin Spectral Data<<<<<
178.204	-451.58
178.424	-451.58
178.644	-451.58
178.864	-400.38
179.084	-388.09
179.304	-17.41
179.524	3.07
179.744	-23.55
179.964	-52.22
180.184	15.36
180.404	41.98
180.624	-25.6
180.844	64.51
181.064	-74.75
181.283	46.08
181.503	-54.27
181.723	76.8
181.943	-72.7
182.163	89.09
182.383	-80.89
182.602	50.18
182.822	199.68
183.042	87.04
183.262	-15.36
183.482	50.18
183.701	93.18
183.921	13.31
184.141	-58.37
184.361	39.94
184.58	111.61
184.8	52.22
185.02	-25.6
185.239	66.56
185.459	5.12
185.679	128
185.898	-105.47
186.118	-13.31
186.338	76.8
186.557	95.23
186.777	-142.33
186.997	-9.22
187.216	23.55
187.436	199.68
187.655	103.42
187.875	148.48
188.095	19.46
188.314	164.86
188.534	107.52
188.753	13.31
188.973	95.23
189.192	164.86
189.412	25.6
189.631	5.12
189.851	52.22
190.07	95.23
190.29	-25.6
190.509	74.75
190.729	-31.74
190.948	128
191.168	226.3
191.387	111.61
191.607	23.55
191.826	56.32
192.045	44.03
192.265	3.07
192.484	27.65
192.704	-7.17
192.923	-41.98
193.142	173.05
193.362	72.7
193.581	50.18
193.8	-19.46
194.02	58.37
194.239	-9.22
194.458	113.66
194.678	-93.18
194.897	-3.07
195.116	9.22
195.335	82.94
195.555	91.13
195.774	-46.08
195.993	72.7
196.212	35.84
196.432	-33.79
196.651	58.37
196.87	27.65
197.089	177.15
197.308	93.18
197.528	21.5
197.747	-15.36
197.966	31.74
198.185	134.14
198.404	-80.89
198.623	48.13
198.842	15.36
199.062	66.56
199.281	64.51
199.5	13.31
199.719	64.51
199.938	70.65
200.157	13.31
200.376	117.76
200.595	156.67
200.814	142.33
201.033	-54.27
201.252	130.05
201.471	25.6
201.69	62.46
201.909	37.89
202.128	60.42
202.347	35.84
202.566	39.94
202.785	-123.9
203.004	-97.28
203.223	181.25
203.442	95.23
203.661	-52.22
203.879	9.22
204.098	101.37
204.317	9.22
204.536	84.99
204.755	62.46
204.974	109.57
205.193	-13.31
205.411	95.23
205.63	15.36
205.849	9.22
206.068	-21.5
206.287	9.22
206.505	177.15
206.724	-25.6
206.943	-52.22
207.162	-46.08
207.381	74.75
207.599	54.27
207.818	48.13
208.037	-13.31
208.255	13.31
208.474	44.03
208.693	74.75
208.911	-35.84
209.13	60.42
209.349	58.37
209.567	95.23
209.786	70.65
210.005	58.37
210.223	7.17
210.442	-95.23
210.661	15.36
210.879	109.57
211.098	33.79
211.316	13.31
211.535	89.09
211.753	50.18
211.972	56.32
212.191	54.27
212.409	46.08
212.628	62.46
212.846	15.36
213.065	111.61
213.283	29.7
213.502	111.61
213.72	-7.17
213.938	62.46
214.157	-48.13
214.375	64.51
214.594	52.22
214.812	121.85
215.031	-31.74
215.249	44.03
215.467	35.84
215.686	-31.74
215.904	29.7
216.122	107.52
216.341	166.91
216.559	72.7
216.778	27.65
216.996	115.71
217.214	29.7
217.432	7.17
217.651	3.07
217.869	109.57
218.087	37.89
218.306	23.55
218.524	66.56
218.742	-19.46
218.96	78.85
219.179	7.17
219.397	107.52
219.615	211.96
219.833	56.32
220.051	19.46
220.27	91.13
220.488	168.96
220.706	68.61
220.924	-13.31
221.142	-48.13
221.36	74.75
221.578	-21.5
221.796	66.56
222.015	60.42
222.233	44.03
222.451	84.99
222.669	-66.56
222.887	62.46
223.105	33.79
223.323	109.57
223.541	-41.98
223.759	17.41
223.977	52.22
224.195	89.09
224.413	44.03
224.631	44.03
224.849	13.31
225.067	156.67
225.285	-13.31
225.503	-37.89
225.721	-109.57
225.939	-9.22
226.157	99.33
226.375	187.39
226.592	78.85
226.81	103.42
227.028	58.37
227.246	179.2
227.464	17.41
227.682	78.85
227.9	-41.98
228.117	48.13
228.335	25.6
228.553	109.57
228.771	-41.98
228.989	60.42
229.206	66.56
229.424	-160.77
229.642	-21.5
229.86	-60.42
230.077	150.53
230.295	27.65
230.513	101.37
230.731	46.08
230.948	226.3
231.166	144.38
231.384	-48.13
231.601	-31.74
231.819	136.19
232.037	-3.07
232.254	-56.32
232.472	-5.12
232.689	25.6
232.907	125.95
233.125	56.32
233.342	-13.31
233.56	17.41
233.777	7.17
233.995	25.6
234.213	109.57
234.43	74.75
234.648	37.89
234.865	9.22
235.083	31.74
235.3	76.8
235.518	130.05
235.735	103.42
235.953	1.02
236.17	33.79
236.388	15.36
236.605	62.46
236.822	103.42
237.04	105.47
237.257	23.55
237.475	9.22
237.692	-21.5
237.909	41.98
238.127	7.17
238.344	136.19
238.562	-37.89
238.779	-7.17
238.996	-11.26
239.214	44.03
239.431	93.18
239.648	46.08
239.865	33.79
240.083	56.32
240.3	1.02
240.517	25.6
240.735	68.61
240.952	97.28
241.169	5.12
241.386	70.65
241.603	31.74
241.821	-41.98
242.038	44.03
242.255	60.42
242.472	-9.22
242.689	41.98
242.907	19.46
243.124	41.98
243.341	-39.94
243.558	-80.89
243.775	-78.85
243.992	-52.22
244.209	146.43
244.426	148.48
244.643	50.18
244.86	3.07
245.078	125.95
245.295	1.02
245.512	-5.12
245.729	3.07
245.946	3.07
246.163	46.08
246.38	62.46
246.597	23.55
246.814	-50.18
247.031	-15.36
247.248	35.84
247.464	89.09
247.681	37.89
247.898	113.66
248.115	95.23
248.332	-95.23
248.549	101.37
248.766	150.53
248.983	-7.17
249.2	84.99
249.417	140.29
249.633	3.07
249.85	103.42
250.067	1.02
250.284	41.98
250.501	82.94
250.717	146.43
250.934	-52.22
251.151	-9.22
251.368	64.51
251.585	99.33
251.801	105.47
252.018	-95.23
252.235	103.42
252.451	-66.56
252.668	-35.84
252.885	68.61
253.102	103.42
253.318	23.55
253.535	58.37
253.752	29.7
253.968	-66.56
254.185	-37.89
254.401	-35.84
254.618	-5.12
254.835	15.36
255.051	54.27
255.268	93.18
255.484	48.13
255.701	44.03
255.917	78.85
256.134	-15.36
256.351	62.46
256.567	-84.99
256.784	39.94
257	-76.8
257.217	87.04
257.433	119.81
257.65	41.98
257.866	144.38
258.082	-13.31
258.299	-54.27
258.515	62.46
258.732	-41.98
258.948	46.08
259.165	21.5
259.381	-17.41
259.597	31.74
259.814	-80.89
260.03	44.03
260.246	29.7
260.463	132.09
260.679	103.42
260.895	35.84
261.112	64.51
261.328	-5.12
261.544	13.31
261.761	130.05
261.977	-33.79
262.193	-84.99
262.409	29.7
262.626	-41.98
262.842	58.37
263.058	-31.74
263.274	125.95
263.49	-17.41
263.707	84.99
263.923	95.23
264.139	-19.46
264.355	-44.03
264.571	37.89
264.787	11.26
265.004	50.18
265.22	23.55
265.436	-11.26
265.652	-19.46
265.868	78.85
266.084	-97.28
266.3	-5.12
266.516	13.31
266.732	107.52
266.948	91.13
267.164	-15.36
267.38	66.56
267.596	56.32
267.812	156.67
268.028	5.12
268.244	54.27
268.46	99.33
268.676	-39.94
268.892	-39.94
269.108	-58.37
269.324	19.46
269.54	-87.04
269.756	107.52
269.972	-119.81
270.188	27.65
270.403	-9.22
270.619	70.65
270.835	70.65
271.051	80.89
271.267	23.55
271.483	52.22
271.698	89.09
271.914	50.18
272.13	9.22
272.346	23.55
272.562	25.6
272.777	76.8
272.993	17.41
273.209	50.18
273.425	-13.31
273.64	-52.22
273.856	56.32
274.072	-78.85
274.287	-58.37
274.503	93.18
274.719	41.98
274.934	27.65
275.15	-111.61
275.366	-74.75
275.581	-64.51
275.797	31.74
276.012	27.65
276.228	-39.94
276.444	-1.02
276.659	80.89
276.875	-39.94
277.09	70.65
277.306	-62.46
277.521	-11.26
277.737	23.55
277.952	144.38
278.168	46.08
278.383	62.46
278.599	48.13
278.814	46.08
279.03	125.95
279.245	136.19
279.461	39.94
279.676	125.95
279.892	-84.99
280.107	-48.13
280.322	-3.07
280.538	82.94
280.753	-13.31
280.969	84.99
281.184	-9.22
281.399	140.29
281.615	3.07
281.83	23.55
282.045	13.31
282.26	-9.22
282.476	-74.75
282.691	82.94
282.906	68.61
283.122	39.94
283.337	-7.17
283.552	46.08
283.767	-84.99
283.983	17.41
284.198	46.08
284.413	-3.07
284.628	-39.94
284.843	-19.46
285.058	107.52
285.274	-13.31
285.489	19.46
285.704	46.08
285.919	-46.08
286.134	-37.89
286.349	52.22
286.564	-44.03
286.779	87.04
286.995	-37.89
287.21	-125.95
287.425	140.29
287.64	-58.37
287.855	78.85
288.07	-35.84
288.285	125.95
288.5	82.94
288.715	105.47
288.93	15.36
289.145	19.46
289.36	123.9
289.575	-3.07
289.79	39.94
290.004	17.41
290.219	99.33
290.434	-64.51
290.649	58.37
290.864	-56.32
291.079	39.94
291.294	48.13
291.509	-35.84
291.724	-13.31
291.938	-76.8
292.153	9.22
292.368	-58.37
292.583	70.65
292.798	13.31
293.012	140.29
293.227	56.32
293.442	46.08
293.657	52.22
293.871	148.48
294.086	21.5
294.301	80.89
294.516	125.95
294.73	-37.89
294.945	17.41
295.16	41.98
295.374	52.22
295.589	144.38
295.804	9.22
296.018	33.79
296.233	68.61
296.447	58.37
296.662	-58.37
296.877	107.52
297.091	62.46
297.306	27.65
297.52	72.7
297.735	29.7
297.949	117.76
298.164	19.46
298.378	41.98
298.593	7.17
298.807	31.74
299.022	-17.41
299.236	123.9
299.451	7.17
299.665	35.84
299.88	17.41
300.094	-33.79
300.309	17.41
300.523	62.46
300.737	48.13
300.952	82.94
301.166	101.37
301.381	-44.03
301.595	5.12
301.809	-89.09
302.024	3.07
302.238	21.5
302.452	156.67
302.667	-68.61
302.881	142.33
303.095	109.57
303.309	99.33
303.524	-23.55
303.738	-1.02
303.952	-9.22
304.166	46.08
304.381	-107.52
304.595	162.81
304.809	39.94
305.023	101.37
305.237	44.03
305.452	7.17
305.666	95.23
305.88	82.94
306.094	115.71
306.308	89.09
306.522	60.42
306.736	74.75
306.95	156.67
307.164	109.57
307.379	5.12
307.593	89.09
307.807	121.85
308.021	58.37
308.235	-48.13
308.449	-19.46
308.663	-48.13
308.877	203.77
309.091	9.22
309.305	5.12
309.519	15.36
309.733	78.85
309.947	-44.03
310.161	41.98
310.374	109.57
310.588	138.24
310.802	-72.7
311.016	27.65
311.23	27.65
311.444	-25.6
311.658	64.51
311.872	41.98
312.085	25.6
312.299	130.05
312.513	97.28
312.727	15.36
312.941	-101.37
313.154	7.17
313.368	-70.65
313.582	76.8
313.796	58.37
314.009	52.22
314.223	74.75
314.437	37.89
314.651	46.08
314.864	60.42
315.078	50.18
315.292	-46.08
315.505	-44.03
315.719	46.08
315.933	128
316.146	-52.22
316.36	-52.22
316.573	132.09
316.787	132.09
317.001	23.55
317.214	52.22
317.428	15.36
317.641	-60.42
317.855	7.17
318.068	29.7
318.282	76.8
318.495	164.86
318.709	60.42
318.922	21.5
319.136	99.33
319.349	84.99
319.563	7.17
319.776	123.9
319.99	-123.9
320.203	52.22
320.417	91.13
320.63	89.09
320.843	179.2
321.057	-62.46
321.27	54.27
321.483	93.18
321.697	160.77
321.91	78.85
322.124	64.51
322.337	-7.17
322.55	-31.74
322.763	17.41
322.977	29.7
323.19	23.55
323.403	13.31
323.617	99.33
323.83	87.04
324.043	-9.22
324.256	52.22
324.469	-31.74
324.683	113.66
324.896	-60.42
325.109	-1.02
325.322	-58.37
325.535	1.02
325.748	93.18
325.962	7.17
326.175	68.61
326.388	142.33
326.601	46.08
326.814	-56.32
327.027	1.02
327.24	72.7
327.453	-52.22
327.666	107.52
327.879	130.05
328.092	74.75
328.305	66.56
328.518	1.02
328.731	-82.94
328.944	-9.22
329.157	60.42
329.37	-27.65
329.583	156.67
329.796	111.61
330.009	-70.65
330.222	111.61
330.435	80.89
330.648	56.32
330.861	60.42
331.073	62.46
331.286	50.18
331.499	7.17
331.712	54.27
331.925	5.12
332.138	-1.02
332.35	56.32
332.563	-9.22
332.776	140.29
332.989	23.55
333.202	-46.08
333.414	62.46
333.627	9.22
333.84	-39.94
334.053	25.6
334.265	25.6
334.478	35.84
334.691	37.89
334.903	97.28
335.116	-64.51
335.329	44.03
335.541	93.18
335.754	140.29
335.966	56.32
336.179	-13.31
336.392	-46.08
336.604	52.22
336.817	70.65
337.029	37.89
337.242	-3.07
337.454	23.55
337.667	-11.26
337.88	136.19
338.092	-15.36
338.305	54.27
338.517	-50.18
338.729	50.18
338.942	123.9
339.154	-93.18
339.367	-19.46
339.579	52.22
339.792	-39.94
340.004	46.08
340.217	5.12
340.429	21.5
340.641	-64.51
340.854	1.02
341.066	-37.89
341.278	80.89
341.491	228.35
341.703	15.36
341.915	-21.5
342.128	29.7
342.34	54.27
342.552	-31.74
342.764	54.27
342.977	-78.85
343.189	56.32
343.401	39.94
343.613	-134.14
343.826	-1.02
344.038	-97.28
344.25	-3.07
344.462	9.22
344.674	5.12
344.886	-5.12
345.099	-5.12
345.311	76.8
345.523	-91.13
345.735	-130.05
345.947	-13.31
346.159	68.61
346.371	48.13
346.583	56.32
346.795	265.21
347.007	33.79
347.219	78.85
347.431	3.07
347.643	56.32
347.855	-5.12
348.067	80.89
348.279	-82.94
348.491	41.98
348.703	64.51
348.915	-3.07
349.127	48.13
349.339	60.42
349.551	3.07
349.763	103.42
349.975	17.41
350.187	60.42
350.399	146.43
350.61	95.23
350.822	29.7
351.034	44.03
351.246	101.37
351.458	54.27
351.669	44.03
351.881	17.41
352.093	70.65
352.305	56.32
352.517	-27.65
352.728	54.27
352.94	-17.41
353.152	37.89
353.363	-68.61
353.575	54.27
353.787	177.15
353.999	64.51
354.21	105.47
354.422	39.94
354.633	-5.12
354.845	23.55
355.057	74.75
355.268	-1.02
355.48	58.37
355.692	-95.23
355.903	62.46
356.115	-17.41
356.326	-56.32
356.538	84.99
356.749	35.84
356.961	111.61
357.172	23.55
357.384	-62.46
357.595	134.14
357.807	-64.51
358.018	-64.51
358.23	39.94
358.441	146.43
358.653	76.8
358.864	1.02
359.075	-31.74
359.287	60.42
359.498	140.29
359.709	-13.31
359.921	48.13
360.132	113.66
360.344	15.36
360.555	7.17
360.766	33.79
360.977	27.65
361.189	39.94
361.4	-35.84
361.611	136.19
361.823	136.19
362.034	93.18
362.245	-29.7
362.456	-33.79
362.667	76.8
362.879	-15.36
363.09	41.98
363.301	101.37
363.512	-5.12
363.723	-78.85
363.935	60.42
364.146	123.9
364.357	54.27
364.568	105.47
364.779	-87.04
364.99	89.09
365.201	-50.18
365.412	130.05
365.623	-52.22
365.834	111.61
366.045	-35.84
366.256	41.98
366.467	76.8
366.678	33.79
366.889	76.8
367.1	-21.5
367.311	62.46
367.522	39.94
367.733	125.95
367.944	19.46
368.155	-52.22
368.366	66.56
368.577	68.61
368.788	158.72
368.999	46.08
369.209	-21.5
369.42	214.01
369.631	244.73
369.842	62.46
370.053	11.26
370.264	58.37
370.474	37.89
370.685	95.23
370.896	29.7
371.107	113.66
371.317	78.85
371.528	7.17
371.739	130.05
371.95	56.32
372.16	95.23
372.371	-29.7
372.582	7.17
372.792	-21.5
373.003	111.61
373.214	50.18
373.424	109.57
373.635	-33.79
373.846	130.05
374.056	-29.7
374.267	5.12
374.477	-5.12
374.688	-84.99
374.898	138.24
375.109	56.32
375.319	50.18
375.53	168.96
375.74	95.23
375.951	-50.18
376.161	50.18
376.372	82.94
376.582	-1.02
376.793	78.85
377.003	-5.12
377.214	39.94
377.424	46.08
377.635	1.02
377.845	-39.94
378.055	148.48
378.266	-91.13
378.476	84.99
378.686	68.61
378.897	25.6
379.107	56.32
379.317	27.65
379.528	13.31
379.738	115.71
379.948	-171.01
380.158	187.39
380.369	-11.26
380.579	7.17
380.789	31.74
380.999	46.08
381.21	44.03
381.42	162.81
381.63	-35.84
381.84	107.52
382.05	78.85
382.261	31.74
382.471	115.71
382.681	-78.85
382.891	146.43
383.101	70.65
383.311	-52.22
383.521	9.22
383.731	82.94
383.941	109.57
384.151	103.42
384.361	-19.46
384.571	113.66
384.781	64.51
384.991	111.61
385.201	138.24
385.411	62.46
385.621	46.08
385.831	11.26
386.041	160.77
386.251	7.17
386.461	39.94
386.671	5.12
386.881	48.13
387.091	9.22
387.301	121.85
387.511	25.6
387.72	121.85
387.93	91.13
388.14	-125.95
388.35	70.65
388.56	173.05
388.769	66.56
388.979	84.99
389.189	-68.61
389.399	-3.07
389.609	56.32
389.818	-9.22
390.028	37.89
390.238	144.38
390.447	-68.61
390.657	105.47
390.867	56.32
391.076	-68.61
391.286	66.56
391.496	21.5
391.705	39.94
391.915	105.47
392.125	93.18
392.334	33.79
392.544	117.76
392.753	33.79
392.963	-17.41
393.172	11.26
393.382	-66.56
393.591	158.72
393.801	-56.32
394.01	95.23
394.22	80.89
394.429	15.36
394.639	82.94
394.848	105.47
395.058	48.13
395.267	-15.36
395.477	70.65
395.686	82.94
395.895	203.77
396.105	218.11
396.314	-13.31
396.524	62.46
396.733	41.98
396.942	62.46
397.152	115.71
397.361	111.61
397.57	50.18
397.78	50.18
397.989	109.57
398.198	218.11
398.407	29.7
398.617	-13.31
398.826	27.65
399.035	23.55
399.244	80.89
399.453	37.89
399.663	84.99
399.872	7.17
400.081	-91.13
400.29	177.15
400.499	-25.6
400.708	70.65
400.917	58.37
401.127	-35.84
401.336	-27.65
401.545	197.63
401.754	107.52
401.963	54.27
402.172	52.22
402.381	-3.07
402.59	123.9
402.799	78.85
403.008	103.42
403.217	37.89
403.426	91.13
403.635	-115.71
403.844	17.41
404.053	7.17
404.262	29.7
404.471	121.85
404.68	87.04
404.888	41.98
405.097	76.8
405.306	39.94
405.515	1.02
405.724	66.56
405.933	109.57
406.142	44.03
406.35	109.57
406.559	54.27
406.768	17.41
406.977	113.66
407.185	78.85
407.394	97.28
407.603	46.08
407.812	3.07
408.02	156.67
408.229	-13.31
408.438	93.18
408.646	-15.36
408.855	29.7
409.064	123.9
409.272	37.89
409.481	103.42
409.69	1.02
409.898	-101.37
410.107	74.75
410.315	82.94
410.524	31.74
410.733	66.56
410.941	5.12
411.15	105.47
411.358	80.89
411.567	107.52
411.775	25.6
411.984	21.5
412.192	97.28
412.401	-19.46
412.609	187.39
412.818	138.24
413.026	128
413.234	-68.61
413.443	52.22
413.651	-68.61
413.86	84.99
414.068	121.85
414.276	115.71
414.485	-15.36
414.693	134.14
414.901	142.33
415.11	54.27
415.318	1.02
415.526	-72.7
415.734	128
415.943	80.89
416.151	87.04
416.359	101.37
416.567	11.26
416.776	136.19
416.984	33.79
417.192	117.76
417.4	-1.02
417.608	5.12
417.817	5.12
418.025	87.04
418.233	136.19
418.441	13.31
418.649	-76.8
418.857	175.1
419.065	107.52
419.273	25.6
419.481	54.27
419.689	-31.74
419.897	-35.84
420.105	-5.12
420.313	121.85
420.521	156.67
420.729	107.52
420.937	-48.13
421.145	-48.13
421.353	117.76
421.561	166.91
421.769	-5.12
421.977	-80.89
422.185	113.66
422.393	70.65
422.601	156.67
422.809	93.18
423.017	70.65
423.224	50.18
423.432	134.14
423.64	21.5
423.848	211.96
424.056	-17.41
424.263	154.62
424.471	13.31
424.679	78.85
424.887	-58.37
425.094	123.9
425.302	-5.12
425.51	70.65
425.718	177.15
425.925	19.46
426.133	-44.03
426.341	166.91
426.548	123.9
426.756	-56.32
426.964	50.18
427.171	-29.7
427.379	68.61
427.586	25.6
427.794	107.52
428.001	140.29
428.209	89.09
428.417	87.04
428.624	91.13
428.832	187.39
429.039	66.56
429.247	27.65
429.454	168.96
429.662	166.91
429.869	103.42
430.076	107.52
430.284	144.38
430.491	222.2
430.699	35.84
430.906	197.63
431.114	80.89
431.321	87.04
431.528	156.67
431.736	74.75
431.943	216.06
432.15	148.48
432.358	140.29
432.565	207.87
432.772	-62.46
432.979	144.38
433.187	113.66
433.394	209.92
433.601	70.65
433.808	191.49
434.016	160.77
434.223	220.16
434.43	107.52
434.637	228.35
434.844	222.2
435.052	187.39
435.259	216.06
435.466	275.45
435.673	236.54
435.88	232.44
436.087	193.53
436.294	220.16
436.501	195.58
436.708	193.53
436.915	238.59
437.122	297.98
437.329	156.67
437.537	291.84
437.743	240.64
437.95	365.56
438.157	345.08
438.364	283.64
438.571	338.94
438.778	275.45
438.985	332.79
439.192	369.66
439.399	328.7
439.606	349.18
439.813	451.58
440.02	480.25
440.227	453.63
440.433	402.43
440.64	416.76
440.847	408.57
441.054	414.71
441.261	515.06
441.467	517.11
441.674	373.75
441.881	560.12
442.088	431.1
442.294	590.84
442.501	607.22
442.708	615.41
442.914	564.22
443.121	629.75
443.328	664.57
443.534	680.95
443.741	695.29
443.948	617.46
444.154	699.38
444.361	910.32
444.568	826.36
444.774	771.06
444.981	740.34
445.187	900.08
445.394	791.54
445.6	762.87
445.807	943.09
446.013	865.27
446.22	908.27
446.426	961.52
446.633	975.86
446.839	1227.76
447.046	1037.3
447.252	1287.15
447.459	1211.37
447.665	1180.65
447.871	1360.88
448.078	1461.23
448.284	1496.04
448.491	1465.32
448.697	1446.89
448.903	1602.54
449.11	1545.19
449.316	1567.72
449.522	1850.34
449.728	1661.93
449.935	1868.77
450.141	1825.76
450.347	2038.75
450.553	2135.01
450.76	2046.94
450.966	2300.89
451.172	2149.34
451.378	2300.89
451.584	2352.09
451.791	2610.14
451.997	2544.6
452.203	2581.46
452.409	2841.56
452.615	2980.82
452.821	2769.88
453.027	2798.55
453.233	3285.97
453.44	3216.33
453.646	3263.44
453.852	3369.93
454.058	3580.87
454.264	3627.98
454.47	3908.55
454.676	3898.31
454.882	4240.32
455.088	4033.47
455.294	4289.47
455.5	4633.53
455.705	4844.47
455.911	4881.33
456.117	5026.74
456.323	5256.11
456.529	5241.78
456.735	5659.56
456.941	5575.59
457.147	6073.25
457.352	6230.94
457.558	6409.12
457.764	6853.53
457.97	6902.68
458.176	7289.74
458.381	7611.28
458.587	7672.71
458.793	8000.39
458.999	8135.56
459.204	9007.99
459.41	9384.82
459.616	9075.57
459.821	9839.47
460.027	10263.4
460.233	10974.04
460.438	10943.32
460.644	11432.79
460.85	11512.66
461.055	12053.32
461.261	12501.83
461.466	12235.59
461.672	12569.41
461.878	14045.99
462.083	13779.76
462.289	14142.25
462.494	14809.89
462.7	14740.26
462.905	15117.08
463.111	16128.78
463.316	16980.73
463.522	17093.37
463.727	17969.9
463.932	18676.45
464.138	19071.71
464.343	19948.24
464.549	19909.33
464.754	21336.76
464.959	21975.73
465.165	22219.44
465.37	22289.07
465.575	22389.42
465.781	23767.7
465.986	24711.81
466.191	23890.58
466.397	24191.63
466.602	23800.47
466.807	24881.8
467.012	25477.76
467.218	25758.33
467.423	25631.35
467.628	26813.03
467.833	28166.74
468.038	27529.82
468.244	27251.3
468.449	28453.45
468.654	27839.06
468.859	27548.25
469.064	27667.03
469.269	27001.44
469.474	27325.02
469.679	28336.72
469.885	27331.17
470.09	27832.92
470.295	27867.73
470.5	26808.93
470.705	27095.65
470.91	26927.72
471.115	26155.63
471.32	26708.58
471.525	26237.55
471.73	25698.94
471.935	25557.63
472.139	24414.86
472.344	24605.32
472.549	24214.16
472.754	23665.3
472.959	23390.88
473.164	22657.7
473.369	22313.64
473.574	22880.93
473.778	22682.28
473.983	22282.92
474.188	21684.92
474.393	20654.79
474.598	20523.72
474.802	20013.77
475.007	19839.7
475.212	19794.64
475.417	18817.76
475.621	18754.27
475.826	18768.61
476.031	17943.28
476.235	17709.81
476.44	17412.85
476.645	17201.91
476.849	17128.19
477.054	16941.82
477.259	16274.18
477.463	16317.19
477.668	16005.9
477.872	15991.56
478.077	15575.83
478.282	15063.83
478.486	15086.36
478.691	14756.64
478.895	14644
479.1	14426.92
479.304	14445.35
479.509	13833
479.713	14277.41
479.918	13861.68
480.122	13316.92
480.326	13673.26
480.531	13564.72
480.735	13183.8
480.94	13366.07
481.144	13673.26
481.348	12929.85
481.553	13105.98
481.757	12614.46
481.961	12845.88
482.166	12704.57
482.37	12587.84
482.574	12311.36
482.778	12204.87
482.983	12505.92
483.187	12141.38
483.391	12446.53
483.595	12020.55
483.8	11725.65
484.004	11893.58
484.208	11797.32
484.412	11666.25
484.616	11629.39
484.821	11275.09
485.025	10955.61
485.229	11238.23
485.433	11037.53
485.637	10976.09
485.841	10756.96
486.045	10455.9
486.249	10351.46
486.453	10300.26
486.657	10083.17
486.861	9876.33
487.065	9642.86
487.269	9724.78
487.473	9405.3
487.677	9425.78
487.881	9509.74
488.085	8971.13
488.289	9046.9
488.493	8713.08
488.697	8903.54
488.901	8727.42
489.105	8442.75
489.309	8274.82
489.512	8037.25
489.716	7957.38
489.92	7799.69
490.124	7568.27
490.328	7615.37
490.531	7349.14
490.735	7310.22
490.939	7209.87
491.143	7003.03
491.346	6900.63
491.55	6845.34
491.754	6798.23
491.958	6796.18
492.161	6511.52
492.365	6536.09
492.569	6267.81
492.772	6228.9
492.976	6132.64
493.18	6177.7
493.383	6128.55
493.587	6020
493.79	6138.79
493.994	5780.39
494.197	5831.59
494.401	5776.3
494.605	5608.36
494.808	5698.47
495.012	5600.17
495.215	5692.33
495.419	5557.16
495.622	5446.57
495.825	5589.93
496.029	5532.59
496.232	5639.08
496.436	5346.22
496.639	5577.64
496.843	5286.83
497.046	5368.75
497.249	5442.48
497.453	5436.33
497.656	5346.22
497.859	5448.62
498.063	5479.34
498.266	5567.4
498.469	5270.45
498.673	5426.09
498.876	5538.73
499.079	5450.67
499.282	5548.97
499.485	5831.59
499.689	5682.09
499.892	5671.85
500.095	5671.85
500.298	5847.97
500.501	5573.55
500.705	5772.2
500.908	5725.1
501.111	5833.64
501.314	6282.14
501.517	6130.59
501.72	6144.93
501.923	6036.39
502.126	6298.53
502.329	6587.29
502.532	6380.45
502.735	6513.56
502.938	6685.59
503.141	6462.37
503.344	6634.39
503.547	6802.33
503.75	7007.13
503.953	6974.36
504.156	7132.05
504.359	7005.08
504.562	7236.5
504.765	7478.16
504.968	7549.84
505.17	7592.84
505.373	7824.26
505.576	7850.89
505.779	7961.48
505.982	8092.55
506.185	8463.23
506.387	8563.58
506.59	8711.04
506.793	8606.59
506.996	9038.71
507.198	9352.05
507.401	9311.09
507.604	9544.56
507.807	9601.9
508.009	9872.23
508.212	10212.2
508.415	10087.27
508.617	10670.94
508.82	10550.11
509.022	10699.61
509.225	11137.88
509.428	11168.6
509.63	11653.97
509.833	11625.29
510.035	12022.6
510.238	12360.52
510.44	12550.98
510.643	13103.93
510.845	13247.29
511.048	13218.61
511.25	13601.58
511.453	13818.67
511.655	14732.06
511.858	14680.86
512.06	14998.3
512.262	15377.17
512.465	15745.81
512.667	16231.18
512.87	16337.67
513.072	16612.1
513.274	17306.36
513.477	17658.61
513.679	17791.73
513.881	18356.97
514.084	18748.13
514.286	19305.18
514.488	19800.79
514.69	20564.68
514.893	20372.17
515.095	20703.94
515.297	21473.98
515.499	21777.08
515.701	22526.63
515.904	23247.52
516.106	23732.89
516.308	23782.04
516.51	24556.17
516.712	24648.33
516.914	25287.29
517.116	25664.12
517.318	26446.44
517.52	26489.45
517.722	27261.54
517.925	27718.23
518.127	28559.95
518.329	29110.85
518.531	29170.24
518.733	30095.92
518.935	30478.89
519.136	30972.46
519.338	31207.97
519.54	32303.64
519.742	32358.93
519.944	32764.43
520.146	33575.42
520.348	33864.19
520.55	34378.23
520.752	34720.24
520.954	35273.19
521.155	35293.67
521.357	36178.39
521.559	37020.11
521.761	37595.59
521.963	37130.7
522.164	37599.68
522.366	38091.19
522.568	38257.08
522.77	38832.56
522.971	39502.25
523.173	39297.45
523.375	39569.83
523.576	39356.84
523.778	39956.89
523.98	40636.82
524.181	40602
524.383	40700.31
524.584	40917.39
524.786	41124.24
524.988	40853.9
525.189	41363.85
525.391	41056.65
525.592	41697.67
525.794	41752.96
525.995	41400.71
526.197	41306.51
526.398	41443.72
526.6	41480.58
526.801	41169.29
527.003	41140.62
527.204	41118.09
527.406	41578.89
527.607	41085.33
527.808	41189.77
528.01	40188.31
528.211	40137.12
528.412	41079.18
528.614	40243.61
528.815	40075.68
529.016	40192.41
529.218	39334.31
529.419	39227.82
529.62	39141.8
529.822	38470.07
530.023	38285.75
530.224	37579.2
530.425	37691.84
530.626	36467.16
530.828	36217.3
531.029	36555.22
531.23	36006.36
531.431	35877.34
531.632	35586.53
531.833	35002.86
532.035	34144.76
532.236	33976.83
532.437	34050.55
532.638	33038.86
532.839	32772.62
533.04	33028.62
533.241	32246.29
533.442	32205.33
533.643	31341.09
533.844	31236.64
534.045	30267.95
534.246	30038.58
534.447	29571.64
534.648	29235.78
534.849	29366.85
535.05	28516.94
535.251	28060.24
535.451	27902.55
535.652	27595.35
535.853	26821.22
536.054	27075.17
536.255	26321.52
536.456	25698.94
536.657	26090.1
536.857	25428.6
537.058	25178.75
537.259	24746.63
537.46	24822.41
537.66	23712.41
537.861	23804.56
538.062	23437.98
538.263	22852.26
538.463	22921.89
538.664	22723.24
538.865	22391.47
539.065	22166.19
539.266	21787.32
539.466	21453.5
539.667	21131.97
539.868	21435.06
540.068	20810.43
540.269	20753.09
540.469	20425.42
540.67	20247.24
540.87	19682
541.071	19831.51
541.271	19618.52
541.472	19194.59
541.672	18997.98
541.873	18778.85
542.073	18311.91
542.274	18461.41
542.474	18068.2
542.675	17627.89
542.875	17818.35
543.075	17285.88
543.276	17072.89
543.476	17355.51
543.676	17070.84
543.877	16769.79
544.077	16773.89
544.277	16511.75
544.478	16034.57
544.678	16007.95
544.878	15846.16
545.078	15567.63
545.279	15440.66
545.479	15282.97
545.679	14983.96
545.879	14809.89
546.079	14578.47
546.28	14408.48
546.48	14123.82
546.68	14218.02
546.88	14142.25
547.08	13914.92
547.28	13929.26
547.48	13220.66
547.68	13671.22
547.88	13237.05
548.081	13339.44
548.281	12862.27
548.481	12757.82
548.681	12561.22
548.881	12446.53
549.081	12417.86
549.28	12254.02
549.48	12036.94
549.68	11787.08
549.88	12010.31
550.08	11471.7
550.28	11227.99
550.48	11170.65
550.68	11033.43
550.88	10697.56
551.08	10738.52
551.279	10451.81
551.479	10230.63
551.679	10287.97
551.879	10142.57
552.079	10269.54
552.278	9853.8
552.478	9626.48
552.678	9526.13
552.878	9483.12
553.077	9239.41
553.277	9032.57
553.477	9075.57
553.676	8807.29
553.876	8745.85
554.076	8715.13
554.275	8598.4
554.475	8246.15
554.674	8309.63
554.874	7930.76
555.074	7830.41
555.273	7715.72
555.473	7768.97
555.672	7486.35
555.872	7336.85
556.071	7326.61
556.271	7287.7
556.47	7072.66
556.67	7039.89
556.869	6798.23
557.068	6665.11
557.268	6575
557.467	6396.83
557.667	6575
557.866	6243.23
558.065	6155.17
558.265	6089.64
558.464	5831.59
558.663	6079.4
558.863	5829.54
559.062	5782.44
559.261	5467.05
559.461	5716.9
559.66	5204.91
559.859	5362.61
560.058	5223.34
560.258	5071.79
560.457	5114.8
560.656	5010.36
560.855	4828.09
561.054	4740.02
561.253	4873.14
561.453	4723.64
561.652	4586.43
561.851	4490.17
562.05	4426.68
562.249	4469.69
562.448	4273.09
562.647	4285.37
562.846	4066.24
563.045	4240.32
563.244	4139.97
563.443	4113.35
563.642	3957.7
563.841	3976.13
564.04	3980.23
564.239	3687.37
564.438	3634.12
564.637	3597.26
564.836	3562.44
565.035	3568.59
565.234	3445.71
565.432	3480.52
565.631	3414.99
565.83	3425.23
566.029	3410.89
566.228	3365.84
566.427	3359.69
566.625	3171.28
566.824	3036.11
567.023	3126.22
567.222	3087.31
567.42	2792.41
567.619	3003.35
567.818	2880.47
568.016	2943.96
568.215	2862.04
568.414	2835.41
568.612	2651.1
568.811	2765.78
569.01	2685.91
569.208	2511.83
569.407	2649.05
569.605	2558.94
569.804	2368.48
570.002	2399.2
570.201	2339.8
570.4	2403.29
570.598	2270.17
570.797	2270.17
570.995	2151.39
571.193	2257.89
571.392	2182.11
571.59	2085.86
571.789	2151.39
571.987	2212.83
572.186	2145.25
572.384	1999.84
572.582	1950.69
572.781	2094.05
572.979	1815.52
573.177	1881.06
573.376	1868.77
573.574	1846.24
573.772	1848.29
573.971	1737.7
574.169	1577.96
574.367	1793
574.565	1659.88
574.763	1643.49
574.962	1567.72
575.16	1627.11
575.358	1559.53
575.556	1569.77
575.754	1631.21
575.952	1545.19
576.151	1508.33
576.349	1518.57
576.547	1313.77
576.745	1496.04
576.943	1440.75
577.141	1367.02
577.339	1250.28
577.537	1364.97
577.735	1344.49
577.933	1369.07
578.131	1270.76
578.329	1281
578.527	1156.08
578.725	1213.42
578.923	1139.69
579.121	1360.88
579.319	1012.72
579.516	1090.54
579.714	1270.76
579.912	1143.79
580.11	1000.43
580.308	1033.2
580.506	971.76
580.704	867.31
580.901	902.13
581.099	1012.72
581.297	941.04
581.495	998.38
581.692	850.93
581.89	1033.2
582.088	967.67
582.285	908.27
582.483	818.16
582.681	900.08
582.878	861.17
583.076	879.6
583.274	791.54
583.471	1014.77
583.669	861.17
583.866	754.68
584.064	754.68
584.262	695.29
584.459	734.2
584.657	846.84
584.854	775.16
585.052	805.88
585.249	852.98
585.447	705.53
585.644	523.26
585.841	769.01
586.039	732.15
586.236	807.92
586.434	592.89
586.631	650.23
586.828	490.49
587.026	631.8
587.223	463.86
587.42	621.56
587.618	658.42
587.815	670.71
588.012	592.89
588.21	529.4
588.407	601.08
588.604	619.51
588.801	488.44
588.999	519.16
589.196	533.5
589.393	486.39
589.59	572.41
589.787	517.11
589.984	562.17
590.182	594.93
590.379	564.22
590.576	486.39
590.773	568.31
590.97	433.15
591.167	525.3
591.364	584.7
591.561	476.15
591.758	576.5
591.955	541.69
592.152	683
592.349	443.39
592.546	424.95
592.743	443.39
592.94	445.43
593.137	623.61
593.334	568.31
593.531	506.87
593.727	543.74
593.924	551.93
594.121	556.02
594.318	472.06
594.515	523.26
594.712	607.22
594.908	646.13
595.105	424.95
595.302	568.31
595.499	529.4
595.696	601.08
595.892	510.97
596.089	637.94
596.286	504.82
596.482	635.89
596.679	664.57
596.876	574.46
597.072	678.9
597.269	707.57
597.466	576.5
597.662	654.33
597.859	652.28
598.055	746.48
598.252	826.36
598.448	801.78
598.645	820.21
598.841	799.73
599.038	963.57
599.234	1098.74
599.431	926.71
599.627	996.34
599.824	984.05
600.02	1035.25
600.217	1006.58
600.413	1170.41
600.609	1238
600.806	1438.7
601.002	1240.05
601.198	1151.98
601.395	1367.02
601.591	1440.75
601.787	1399.79
601.984	1401.83
602.18	1606.63
602.376	1438.7
602.572	1713.13
602.769	1760.23
602.965	1762.28
603.161	1813.48
603.357	1852.39
603.553	2114.53
603.75	1987.55
603.946	1864.68
604.142	2141.15
604.338	2245.6
604.534	2253.79
604.73	2446.3
604.926	2307.04
605.122	2579.42
605.318	2548.7
605.514	2634.71
605.71	2724.82
605.906	2829.27
606.102	2999.25
606.298	3058.64
606.494	3146.7
606.69	3255.25
606.886	3261.39
607.082	3288.01
607.278	3419.08
607.474	3666.89
607.67	3650.5
607.866	3525.58
608.062	3933.12
608.257	4008.9
608.453	4004.8
608.649	4172.74
608.845	4086.72
609.041	4352.96
609.236	4567.99
609.432	4541.37
609.628	4826.04
609.824	5110.71
610.019	4975.54
610.215	5067.7
610.411	5348.27
610.606	5393.33
610.802	5399.47
610.998	5661.61
611.193	5794.73
611.389	5772.2
611.584	6093.73
611.78	6196.13
611.976	6304.67
612.171	6689.69
612.367	6656.92
612.562	6876.06
612.758	7052.18
612.953	7017.36
613.149	7459.73
613.344	7570.32
613.539	7887.75
613.735	8168.32
613.93	8160.13
614.126	8309.63
614.321	8790.91
614.517	8885.11
614.712	9118.58
614.907	9284.47
615.103	9679.72
615.298	9634.67
615.493	9941.86
615.688	10048.36
615.884	10789.72
616.079	10767.2
616.274	11176.79
616.47	11262.8
616.665	11539.28
616.86	11658.06
617.055	12186.44
617.25	12208.97
617.445	13026.11
617.641	13065.02
617.836	13288.25
618.031	13501.23
618.226	14074.67
618.421	14361.38
618.616	14783.26
618.811	15108.89
619.006	15442.71
619.201	15631.12
619.396	16114.44
619.591	16214.79
619.786	16851.71
619.981	17025.79
620.176	17353.46
620.371	17550.07
620.566	18322.15
620.761	18565.86
620.956	18854.62
621.151	18891.49
621.346	19604.18
621.541	19661.52
621.735	20302.54
621.93	20691.65
622.125	21240.51
622.32	21035.71
622.515	21652.15
622.709	22155.95
622.904	22815.4
623.099	23014.05
623.294	23419.55
623.488	23569.05
623.683	23964.31
623.878	24470.15
624.072	24941.19
624.267	25301.63
624.462	25422.46
624.656	25844.34
624.851	26151.54
625.046	26733.16
625.24	27310.69
625.435	27257.44
625.629	27865.69
625.824	28168.79
626.018	28404.3
626.213	28457.55
626.407	29082.18
626.602	29223.49
626.796	30057.01
626.991	30321.2
627.185	30190.13
627.38	30345.78
627.574	30624.3
627.768	30421.55
627.963	30605.87
628.157	30251.57
628.352	30769.71
628.546	30667.31
628.74	30671.4
628.935	30333.49
629.129	30773.8
629.323	30480.94
629.517	30003.77
629.712	29811.26
629.906	29901.37
630.1	29553.21
630.294	29325.89
630.489	28998.21
630.683	28351.06
630.877	27990.61
631.071	27630.17
631.265	27224.67
631.459	26417.77
631.653	25776.76
631.848	25260.67
632.042	24666.76
632.236	23788.18
632.43	23327.39
632.624	22809.25
632.818	21940.91
633.012	21273.28
633.206	20468.42
633.4	20171.47
633.594	18995.93
633.788	18553.57
633.982	17808.11
634.176	17375.99
634.369	16388.87
634.563	15909.65
634.757	15102.75
634.951	14703.39
635.145	14310.18
635.339	13622.06
635.533	12874.56
635.726	12606.27
635.92	12014.41
636.114	11389.78
636.308	10939.23
636.501	10664.8
636.695	10204
636.889	9636.72
637.083	9393.01
637.276	8915.83
637.47	8541.05
637.664	8287.11
637.857	8088.45
638.051	7924.62
638.244	7392.14
638.438	7119.76
638.632	6869.91
638.825	6384.54
639.019	6319.01
639.212	5901.22
639.406	5749.67
639.599	5481.39
639.793	5247.92
639.986	5022.64
640.18	4948.92
640.373	4699.06
640.567	4551.61
640.76	4344.77
640.954	4103.11
641.147	3959.75
641.34	3779.53
641.534	3683.27
641.727	3609.54
641.92	3531.72
642.114	3265.49
642.307	3238.86
642.5	3009.49
642.694	2980.82
642.887	2966.48
643.08	2939.86
643.273	2726.87
643.467	2474.97
643.66	2337.76
643.853	2290.65
644.046	2143.2
644.239	2137.06
644.432	2001.89
644.626	2022.37
644.819	1950.69
645.012	1936.35
645.205	1895.4
645.398	1819.62
645.591	1608.68
645.784	1450.99
645.977	1483.75
646.17	1475.56
646.363	1422.31
646.556	1356.78
646.749	1258.48
646.942	1240.05
647.135	1297.39
647.328	1129.45
647.521	1219.57
647.714	1020.91
647.907	1055.73
648.099	1010.67
648.292	1088.5
648.485	928.75
648.678	846.84
648.871	750.58
649.064	812.02
649.256	754.68
649.449	723.96
649.642	619.51
649.835	633.85
650.027	633.85
650.22	711.67
650.413	590.84
650.605	695.29
650.798	535.54
650.991	574.46
651.183	488.44
651.376	607.22
651.568	654.33
651.761	478.2
651.954	543.74
652.146	467.96
652.339	523.26
652.531	463.86
652.724	306.17
652.916	371.71
653.109	240.64
653.301	513.02
653.494	500.73
653.686	336.89
653.879	453.63
654.071	345.08
654.263	291.84
654.456	369.66
654.648	459.77
654.84	367.61
655.033	289.79
655.225	443.39
655.417	189.44
655.61	412.67
655.802	357.37
655.994	363.51
656.186	277.5
656.379	371.71
656.571	222.2
656.763	259.07
656.955	224.25
657.148	216.06
657.34	310.27
657.532	177.15
657.724	173.05
657.916	310.27
658.108	320.51
658.3	244.73
658.492	289.79
658.684	177.15
658.876	308.22
659.068	62.46
659.26	91.13
659.452	103.42
659.644	187.39
659.836	281.6
660.028	211.96
660.22	89.09
660.412	220.16
660.604	189.44
660.796	201.72
660.988	242.68
661.18	224.25
661.372	199.68
661.563	158.72
661.755	144.38
661.947	46.08
662.139	132.09
662.331	103.42
662.522	189.44
662.714	64.51
662.906	54.27
663.097	87.04
663.289	117.76
663.481	-5.12
663.673	148.48
663.864	89.09
664.056	177.15
664.247	70.65
664.439	254.97
664.631	246.78
664.822	74.75
665.014	173.05
665.205	50.18
665.397	9.22
665.588	93.18
665.78	193.53
665.971	211.96
666.163	166.91
666.354	228.35
666.546	101.37
666.737	156.67
666.929	74.75
667.12	171.01
667.311	113.66
667.503	82.94
667.694	125.95
667.885	105.47
668.077	128
668.268	62.46
668.459	154.62
668.651	74.75
668.842	119.81
669.033	74.75
669.224	78.85
669.416	353.27
669.607	80.89
669.798	39.94
669.989	195.58
670.18	150.53
670.371	48.13
670.563	25.6
670.754	250.88
670.945	101.37
671.136	203.77
671.327	97.28
671.518	216.06
671.709	207.87
671.9	216.06
672.091	160.77
672.282	117.76
672.473	91.13
672.664	39.94
672.855	107.52
673.046	121.85
673.237	152.57
673.428	195.58
673.619	205.82
673.809	117.76
674	230.4
674.191	201.72
674.382	199.68
674.573	138.24
674.764	123.9
674.954	250.88
675.145	62.46
675.336	19.46
675.527	142.33
675.717	56.32
675.908	87.04
676.099	91.13
676.289	181.25
676.48	5.12
676.671	183.29
676.861	72.7
677.052	209.92
677.243	177.15
677.433	119.81
677.624	146.43
677.814	103.42
678.005	171.01
678.195	310.27
678.386	105.47
678.576	144.38
678.767	54.27
678.957	107.52
679.148	248.83
679.338	277.5
679.529	252.92
679.719	111.61
679.909	281.6
680.1	285.69
680.29	254.97
680.481	-3.07
680.671	185.34
680.861	203.77
681.052	134.14
681.242	146.43
681.432	125.95
681.622	132.09
681.813	138.24
682.003	185.34
682.193	111.61
682.383	177.15
682.573	209.92
682.764	119.81
682.954	191.49
683.144	269.31
683.334	164.86
683.524	179.2
683.714	207.87
683.904	207.87
684.094	99.33
684.284	189.44
684.474	336.89
684.664	259.07
684.854	205.82
685.044	191.49
685.234	203.77
685.424	171.01
685.614	226.3
685.804	347.13
685.994	287.74
686.184	177.15
686.374	240.64
686.564	220.16
686.753	207.87
686.943	99.33
687.133	179.2
687.323	222.2
687.513	312.32
687.702	185.34
687.892	177.15
688.082	216.06
688.272	199.68
688.461	211.96
688.651	431.1
688.841	265.21
689.03	117.76
689.22	312.32
689.41	191.49
689.599	287.74
689.789	236.54
689.979	340.99
690.168	166.91
690.358	300.03
690.547	171.01
690.737	199.68
690.926	193.53
691.116	254.97
691.305	293.88
691.495	283.64
691.684	195.58
691.874	168.96
692.063	230.4
692.252	297.98
692.442	250.88
692.631	179.2
692.82	242.68
693.01	185.34
693.199	146.43
693.388	218.11
693.578	158.72
693.767	259.07
693.956	250.88
694.146	179.2
694.335	179.2
694.524	199.68
694.713	281.6
694.902	207.87
695.092	156.67
695.281	201.72
695.47	205.82
695.659	128
695.848	199.68
696.037	134.14
696.226	205.82
696.415	218.11
696.604	304.12
696.793	287.74
696.982	152.57
697.171	257.02
697.36	136.19
697.549	177.15
697.738	64.51
697.927	148.48
698.116	132.09
698.305	271.36
698.494	150.53
698.683	111.61
698.872	316.41
699.061	209.92
699.25	132.09
699.438	218.11
699.627	222.2
699.816	234.49
700.005	103.42
700.193	142.33
700.382	252.92
700.571	168.96
700.76	171.01
700.948	199.68
701.137	238.59
701.326	238.59
701.514	171.01
701.703	228.35
701.892	220.16
702.08	359.42
702.269	119.81
702.457	144.38
702.646	218.11
702.834	191.49
703.023	168.96
703.212	246.78
703.4	211.96
703.589	234.49
703.777	203.77
703.965	95.23
704.154	128
704.342	121.85
704.531	123.9
704.719	195.58
704.907	197.63
705.096	162.81
705.284	101.37
705.472	119.81
705.661	201.72
705.849	197.63
706.037	269.31
706.226	265.21
706.414	173.05
706.602	109.57
706.79	173.05
706.979	50.18
707.167	138.24
707.355	103.42
707.543	125.95
707.731	297.98
707.919	199.68
708.107	111.61
708.296	82.94
708.484	70.65
708.672	140.29
708.86	234.49
709.048	220.16
709.236	93.18
709.424	185.34
709.612	214.01
709.8	70.65
709.988	271.36
710.176	171.01
710.364	232.44
710.551	173.05
710.739	138.24
710.927	125.95
711.115	115.71
711.303	265.21
711.491	244.73
711.679	148.48
711.866	257.02
712.054	99.33
712.242	185.34
712.43	209.92
712.617	173.05
712.805	265.21
712.993	152.57
713.181	91.13
713.368	240.64
713.556	144.38
713.744	146.43
713.931	361.47
714.119	216.06
714.306	144.38
714.494	152.57
714.682	211.96
714.869	146.43
715.057	177.15
715.244	177.15
715.432	226.3
715.619	74.75
715.807	197.63
715.994	230.4
716.182	191.49
716.369	259.07
716.556	191.49
716.744	101.37
716.931	207.87
717.119	181.25
717.306	173.05
717.493	308.22
717.681	205.82
717.868	218.11
718.055	265.21
718.242	195.58
718.43	220.16
718.617	236.54
718.804	166.91
718.991	306.17
719.179	218.11
719.366	179.2
719.553	236.54
719.74	197.63
719.927	226.3
720.114	191.49
720.301	119.81
720.488	121.85
720.676	171.01
720.863	271.36
721.05	287.74
721.237	275.45
721.424	275.45
721.611	291.84
721.798	97.28
721.985	238.59
722.172	242.68
722.358	195.58
722.545	277.5
722.732	238.59
722.919	300.03
723.106	283.64
723.293	205.82
723.48	287.74
723.667	168.96
723.853	308.22
724.04	277.5
724.227	248.83
724.414	246.78
724.6	269.31
724.787	357.37
724.974	418.81
725.161	177.15
725.347	130.05
725.534	205.82
725.72	187.39
725.907	277.5
726.094	291.84
726.28	228.35
726.467	285.69
726.653	187.39
726.84	322.56
727.027	373.75
727.213	197.63
727.4	265.21
727.586	269.31
727.773	293.88
727.959	238.59
728.145	193.53
728.332	238.59
728.518	205.82
728.705	314.36
728.891	326.65
729.077	281.6
729.264	123.9
729.45	164.86
729.636	285.69
729.823	254.97
730.009	386.04
730.195	277.5
730.382	306.17
730.568	156.67
730.754	261.12
730.94	302.08
731.126	283.64
731.313	306.17
731.499	207.87
731.685	332.79
731.871	310.27
732.057	230.4
732.243	318.46
732.429	349.18
732.615	406.52
732.801	261.12
732.987	248.83
733.173	254.97
733.359	265.21
733.545	295.93
733.731	232.44
733.917	345.08
734.103	232.44
734.289	347.13
734.475	216.06
734.661	379.9
734.847	263.16
735.033	226.3
735.219	353.27
735.404	230.4
735.59	240.64
735.776	291.84
735.962	328.7
736.148	355.32
736.333	326.65
736.519	216.06
736.705	267.26
736.89	281.6
737.076	295.93
737.262	193.53
737.447	252.92
737.633	246.78
737.819	353.27
738.004	232.44
738.19	343.03
738.375	349.18
738.561	359.42
738.747	334.84
738.932	250.88
739.118	402.43
739.303	318.46
739.489	330.75
739.674	277.5
739.859	144.38
740.045	328.7
740.23	291.84
740.416	205.82
740.601	279.55
740.786	252.92
740.972	189.44
741.157	291.84
741.342	310.27
741.528	267.26
741.713	363.51
741.898	324.6
742.084	314.36
742.269	291.84
742.454	324.6
742.639	377.85
742.824	275.45
743.01	404.47
743.195	345.08
743.38	308.22
743.565	275.45
743.75	222.2
743.935	281.6
744.12	377.85
744.305	340.99
744.49	289.79
744.675	244.73
744.86	181.25
745.045	283.64
745.23	316.41
745.415	236.54
745.6	412.67
745.785	322.56
745.97	279.55
746.155	310.27
746.34	490.49
746.525	300.03
746.71	400.38
746.895	197.63
747.079	171.01
747.264	160.77
747.449	242.68
747.634	300.03
747.819	295.93
748.003	222.2
748.188	187.39
748.373	257.02
748.557	279.55
748.742	222.2
748.927	265.21
749.111	185.34
749.296	306.17
749.481	279.55
749.665	222.2
749.85	187.39
750.034	295.93
750.219	175.1
750.404	193.53
750.588	177.15
750.773	197.63
750.957	263.16
751.141	119.81
751.326	308.22
751.51	156.67
751.695	134.14
751.879	269.31
752.064	396.28
752.248	220.16
752.432	283.64
752.617	254.97
752.801	248.83
752.985	197.63
753.17	254.97
753.354	269.31
753.538	222.2
753.722	205.82
753.907	162.81
754.091	179.2
754.275	261.12
754.459	101.37
754.643	211.96
754.828	207.87
755.012	201.72
755.196	89.09
755.38	177.15
755.564	136.19
755.748	185.34
755.932	293.88
756.116	265.21
756.3	293.88
756.484	189.44
756.668	232.44
756.852	156.67
757.036	177.15
757.22	125.95
757.404	103.42
757.588	142.33
757.772	254.97
757.956	218.11
758.14	244.73
758.323	78.85
758.507	234.49
758.691	158.72
758.875	273.4
759.059	289.79
759.242	220.16
759.426	181.25
759.61	193.53
759.794	101.37
759.977	195.58
760.161	375.8
760.345	300.03
760.528	214.01
760.712	117.76
760.895	125.95
761.079	105.47
761.263	191.49
761.446	80.89
761.63	105.47
761.813	216.06
761.997	64.51
762.18	136.19
762.364	140.29
762.547	48.13
762.731	156.67
762.914	103.42
763.098	119.81
763.281	117.76
763.464	115.71
763.648	152.57
763.831	130.05
764.015	56.32
764.198	128
764.381	121.85
764.564	128
764.748	181.25
764.931	228.35
765.114	136.19
765.297	156.67
765.481	-97.28
765.664	33.79
765.847	91.13
766.03	193.53
766.213	58.37
766.397	101.37
766.58	13.31
766.763	168.96
766.946	107.52
767.129	89.09
767.312	-1.02
767.495	9.22
767.678	87.04
767.861	101.37
768.044	89.09
768.227	173.05
768.41	117.76
768.593	89.09
768.776	140.29
768.959	37.89
769.142	156.67
769.324	48.13
769.507	97.28
769.69	89.09
769.873	46.08
770.056	269.31
770.239	76.8
770.421	152.57
770.604	97.28
770.787	101.37
770.97	113.66
771.152	72.7
771.335	113.66
771.518	93.18
771.7	173.05
771.883	177.15
772.066	-1.02
772.248	99.33
772.431	209.92
772.613	162.81
772.796	117.76
772.978	123.9
773.161	279.55
773.343	60.42
773.526	37.89
773.708	-25.6
773.891	7.17
774.073	68.61
774.256	46.08
774.438	187.39
774.621	-35.84
774.803	113.66
774.985	64.51
775.168	107.52
775.35	132.09
775.532	95.23
775.715	56.32
775.897	84.99
776.079	52.22
776.261	15.36
776.444	31.74
776.626	97.28
776.808	19.46
776.99	25.6
777.173	109.57
777.355	58.37
777.537	15.36
777.719	72.7
777.901	37.89
778.083	29.7
778.265	-50.18
778.447	64.51
778.629	19.46
778.811	68.61
778.993	130.05
779.175	146.43
779.357	46.08
779.539	-82.94
779.721	33.79
779.903	168.96
780.085	15.36
780.267	68.61
780.449	54.27
780.631	107.52
780.812	195.58
780.994	70.65
781.176	41.98
781.358	91.13
781.54	21.5
781.721	162.81
781.903	162.81
782.085	60.42
782.267	134.14
782.448	-37.89
782.63	46.08
782.812	41.98
782.993	56.32
783.175	72.7
783.357	35.84
783.538	58.37
783.72	-15.36
783.901	95.23
784.083	103.42
784.264	109.57
784.446	-1.02
784.627	44.03
784.809	95.23
784.99	11.26
785.172	84.99
785.353	60.42
785.535	33.79
785.716	50.18
785.897	7.17
786.079	76.8
786.26	62.46
786.441	119.81
786.623	-87.04
786.804	58.37
786.985	93.18
787.167	56.32
787.348	48.13
787.529	44.03
787.71	125.95
787.891	29.7
788.073	-1.02
788.254	-41.98
788.435	115.71
788.616	78.85
788.797	-72.7
788.978	-39.94
789.159	15.36
789.34	35.84
789.522	46.08
789.703	-9.22
789.884	48.13
790.065	117.76
790.246	220.16
790.427	-21.5
790.607	105.47
790.788	39.94
790.969	-39.94
791.15	66.56
791.331	-15.36
791.512	58.37
791.693	-70.65
791.874	-68.61
792.054	173.05
792.235	93.18
792.416	-29.7
792.597	-41.98
792.778	60.42
792.958	17.41
793.139	52.22
793.32	-35.84
793.5	-89.09
793.681	121.85
793.862	103.42
794.042	3.07
794.223	-138.24
794.404	27.65
794.584	-121.85
794.765	-62.46
794.945	9.22
795.126	33.79
795.306	48.13
795.487	1.02
795.667	23.55
795.848	-3.07
796.028	33.79
796.209	93.18
796.389	58.37
796.57	-3.07
796.75	-37.89
796.93	-60.42
797.111	29.7
797.291	37.89
797.471	48.13
797.652	21.5
797.832	-23.55
798.012	123.9
798.192	-17.41
798.373	-62.46
798.553	62.46
798.733	-21.5
798.913	-138.24
799.093	-13.31
799.274	74.75
799.454	111.61
799.634	64.51
799.814	66.56
799.994	7.17
800.174	19.46
800.354	84.99
800.534	-25.6
800.714	31.74
800.894	-82.94
801.074	-35.84
801.254	-89.09
801.434	179.2
801.614	-64.51
801.794	-11.26
801.974	1776.61
802.154	-29.7
802.334	29.7
802.514	7.17
802.693	-15.36
802.873	-13.31
803.053	117.76
803.233	15.36
803.413	-19.46
803.592	-27.65
803.772	-89.09
803.952	23.55
804.131	-72.7
804.311	76.8
804.491	91.13
804.67	-48.13
804.85	-39.94
805.03	101.37
805.209	105.47
805.389	-35.84
805.568	-15.36
805.748	-80.89
805.928	-44.03
806.107	23.55
806.287	15.36
806.466	54.27
806.646	-7.17
806.825	13.31
807.004	27.65
807.184	41.98
807.363	54.27
807.543	35.84
807.722	-56.32
807.901	89.09
808.081	97.28
808.26	-87.04
808.439	-5.12
808.619	21.5
808.798	7.17
808.977	31.74
809.156	95.23
809.336	23.55
809.515	27.65
809.694	-80.89
809.873	-15.36
810.052	68.61
810.231	103.42
810.411	58.37
810.59	173.05
810.769	-7.17
810.948	58.37
811.127	-48.13
811.306	3.07
811.485	13.31
811.664	185.34
811.843	-58.37
812.022	13.31
812.201	-72.7
812.38	-101.37
812.559	-11.26
812.737	37.89
812.916	-128
813.095	-33.79
813.274	74.75
813.453	-31.74
813.632	44.03
813.811	82.94
813.989	-44.03
814.168	-48.13
814.347	-72.7
814.526	-33.79
814.704	138.24
814.883	93.18
815.062	-95.23
815.24	33.79
815.419	-74.75
815.598	54.27
815.776	-171.01
815.955	-7.17
816.133	-68.61
816.312	3.07
816.49	-82.94
816.669	7.17
816.847	-68.61
817.026	-52.22
817.204	19.46
817.383	-33.79
817.561	-25.6
817.74	50.18
817.918	-41.98
818.097	-3.07
818.275	-44.03
818.453	46.08
818.632	74.75
818.81	-19.46
818.988	-93.18
819.167	-3.07
819.345	13.31
819.523	-50.18
819.701	-72.7
819.879	105.47
820.058	-21.5
820.236	-31.74
820.414	-3.07
820.592	-25.6
820.77	-52.22
820.948	-44.03
821.127	-5.12
821.305	-46.08
821.483	-72.7
821.661	105.47
821.839	-7.17
822.017	-58.37
822.195	-87.04
822.373	25.6
822.551	13.31
822.729	17.41
822.907	-41.98
823.085	58.37
823.262	-31.74
823.44	-62.46
823.618	-46.08
823.796	-41.98
823.974	25.6
824.152	-62.46
824.329	87.04
824.507	-5.12
824.685	72.7
824.863	25.6
825.04	48.13
825.218	60.42
825.396	62.46
825.574	76.8
825.751	-31.74
825.929	76.8
826.107	-89.09
826.284	29.7
826.462	37.89
826.639	-74.75
826.817	-72.7
826.994	-56.32
827.172	-41.98
827.349	130.05
827.527	15.36
827.704	35.84
827.882	72.7
828.059	-37.89
828.237	-41.98
828.414	115.71
828.591	-48.13
828.769	37.89
828.946	-54.27
829.124	111.61
829.301	109.57
829.478	41.98
829.655	56.32
829.833	41.98
830.01	-140.29
830.187	56.32
830.364	-29.7
830.542	80.89
830.719	103.42
830.896	3.07
831.073	-48.13
831.25	41.98
831.427	50.18
831.604	-7.17
831.782	-66.56
831.959	-29.7
832.136	-72.7
832.313	50.18
832.49	-72.7
832.667	66.56
832.844	-111.61
833.021	70.65
833.198	70.65
833.374	58.37
833.551	58.37
833.728	-58.37
833.905	74.75
834.082	-140.29
834.259	52.22
834.436	105.47
834.612	-76.8
834.789	-19.46
834.966	15.36
835.143	-54.27
835.319	-44.03
835.496	70.65
835.673	21.5
835.85	80.89
836.026	33.79
836.203	-11.26
836.38	-58.37
836.556	-82.94
836.733	-64.51
836.909	119.81
837.086	-41.98
837.262	-87.04
837.439	-107.52
837.616	-23.55
837.792	-35.84
837.968	25.6
838.145	-107.52
838.321	-7.17
838.498	31.74
838.674	84.99
838.851	-3.07
839.027	-33.79
839.203	-7.17
839.38	17.41
839.556	-23.55
839.732	62.46
839.909	-39.94
840.085	-1.02
840.261	-60.42
840.437	-72.7
840.614	-68.61
840.79	25.6
840.966	35.84
841.142	-87.04
841.318	-39.94
841.494	58.37
841.671	60.42
841.847	-93.18
842.023	-146.43
842.199	31.74
842.375	91.13
842.551	-171.01
842.727	-46.08
842.903	156.67
843.079	-54.27
843.255	35.84
843.431	-35.84
843.607	23.55
843.783	-183.29
843.959	-13.31
844.134	-99.33
844.31	72.7
844.486	7.17
844.662	-39.94
844.838	-25.6
845.013	1.02
845.189	58.37
845.365	15.36
845.541	-9.22
845.716	-13.31
845.892	64.51
846.068	-48.13
846.244	-46.08
846.419	21.5
846.595	-70.65
846.77	-109.57
846.946	80.89
847.122	-48.13
847.297	-5.12
847.473	56.32
847.648	-109.57
847.824	27.65
847.999	-103.42
848.175	7.17
848.35	-33.79
848.526	128
848.701	121.85
848.876	103.42
849.052	64.51
849.227	-48.13
849.403	1.02
849.578	-21.5
849.753	-44.03
849.929	39.94
850.104	-105.47
850.279	11.26
850.454	-3.07
850.63	17.41
850.805	-41.98
850.98	-95.23
851.155	-62.46
851.33	50.18
851.505	-78.85
851.681	97.28
851.856	-37.89
852.031	41.98
852.206	50.18
852.381	-56.32
852.556	-60.42
852.731	87.04
852.906	-7.17
853.081	-66.56
853.256	103.42
853.431	3.07
853.606	-11.26
853.781	-35.84
853.956	-101.37
854.131	-11.26
854.305	-64.51
854.48	-68.61
854.655	-84.99
854.83	-80.89
855.005	13.31
855.18	-19.46
855.354	27.65
855.529	-19.46
855.704	-46.08
855.879	76.8
856.053	19.46
856.228	-37.89
856.403	-37.89
856.577	19.46
856.752	-103.42
856.926	-44.03
857.101	27.65
857.276	-150.53
857.45	-19.46
857.625	-27.65
857.799	13.31
857.974	72.7
858.148	-117.76
858.323	-52.22
858.497	1.02
858.672	-105.47
858.846	-84.99
859.02	74.75
859.195	-50.18
859.369	-84.99
859.543	21.5
859.718	-56.32
859.892	-44.03
860.066	56.32
860.241	-39.94
860.415	-62.46
860.589	-52.22
860.763	11.26
860.938	-82.94
861.112	50.18
861.286	-23.55
861.46	17.41
861.634	-56.32
861.808	48.13
861.982	-68.61
862.157	-146.43
862.331	-15.36
862.505	-89.09
862.679	-138.24
862.853	-46.08
863.027	-66.56
863.201	156.67
863.375	-171.01
863.549	19.46
863.722	54.27
863.896	134.14
864.07	-17.41
864.244	-5.12
864.418	68.61
864.592	-35.84
864.766	-17.41
864.939	-80.89
865.113	-9.22
865.287	-19.46
865.461	-5.12
865.634	-29.7
865.808	-3.07
865.982	-74.75
866.156	-99.33
866.329	-121.85
866.503	17.41
866.676	-15.36
866.85	9.22
867.024	29.7
867.197	37.89
867.371	-60.42
867.544	37.89
867.718	-35.84
867.891	68.61
868.065	-101.37
868.238	1.02
868.412	78.85
868.585	82.94
868.759	-44.03
868.932	70.65
869.105	-76.8
869.279	-35.84
869.452	-23.55
869.625	-1.02
869.799	-103.42
869.972	-109.57
870.145	-37.89
870.319	33.79
870.492	-89.09
870.665	-74.75
870.838	-60.42
871.011	-166.91
871.185	-52.22
871.358	-62.46
871.531	97.28
871.704	-21.5
871.877	37.89
872.05	-76.8
872.223	-144.38
872.396	105.47
872.569	-11.26
872.742	-101.37
872.915	-11.26
873.088	-103.42
873.261	7.17
873.434	-15.36
873.607	-64.51
873.78	72.7
873.953	-82.94
874.126	-5.12
874.299	25.6
874.471	-50.18
874.644	-56.32
874.817	-11.26
874.99	211.96
875.163	-27.65
875.335	-29.7
875.508	-74.75
875.681	111.61
875.853	-60.42
876.026	39.94
876.199	5.12
876.371	54.27
876.544	25.6
876.717	-13.31
876.889	-23.55
877.062	89.09
877.234	-80.89
877.407	-23.55
877.579	-52.22
877.752	-3.07
877.924	50.18
878.097	-41.98
878.269	21.5
878.442	41.98
878.614	39.94
878.786	-35.84
878.959	1.02
879.131	7.17
879.303	-111.61
879.476	-31.74
879.648	3.07
879.82	25.6
879.993	-91.13
880.165	-19.46
880.337	-123.9
880.509	3.07
880.681	-56.32
880.854	-39.94
881.026	-7.17
881.198	128
881.37	-5.12
881.542	-44.03
881.714	-29.7
881.886	-76.8
882.058	27.65
882.23	31.74
882.402	-33.79
882.574	-25.6
882.746	89.09
882.918	58.37
883.09	60.42
883.262	-1.02
883.434	29.7
883.606	-156.67
883.778	-7.17
883.95	50.18
884.122	-82.94
884.293	76.8
884.465	-23.55
884.637	105.47
884.809	-56.32
884.98	1.02
885.152	1.02
885.324	-17.41
885.496	-80.89
885.667	3.07
885.839	-39.94
886.011	117.76
886.182	31.74
886.354	46.08
886.525	52.22
886.697	-19.46
886.869	-58.37
887.04	-70.65
887.212	132.09
887.383	95.23
887.555	25.6
887.726	15.36
887.897	-84.99
888.069	-39.94
888.24	41.98
888.412	-15.36
888.583	27.65
888.754	-11.26
888.926	-183.29
889.097	-19.46
889.268	-177.15
889.44	-29.7
889.611	-146.43
889.782	-134.14
889.953	-70.65
890.125	132.09
890.296	15.36
890.467	48.13
890.638	-66.56
890.809	-64.51
890.98	-31.74
891.151	31.74
891.323	93.18
891.494	-74.75
891.665	-76.8
891.836	-74.75
892.007	-9.22
892.178	-5.12
892.349	-5.12
892.52	-66.56
892.691	91.13
892.862	-103.42
893.032	-91.13
893.203	-84.99
893.374	-7.17
893.545	95.23
893.716	-84.99
893.887	-5.12
894.057	-70.65
894.228	-80.89
894.399	-97.28
894.57	13.31
894.74	29.7
894.911	41.98
895.082	-89.09
895.253	-29.7
895.423	-5.12
895.594	54.27
895.764	72.7
895.935	-46.08
896.106	72.7
896.276	-52.22
896.447	7.17
896.617	-105.47
896.788	-37.89
896.958	-60.42
897.129	-50.18
897.299	11.26
897.47	72.7
897.64	13.31
897.81	-25.6
897.981	39.94
898.151	-21.5
898.322	-33.79
898.492	35.84
898.662	-95.23
898.832	-113.66
899.003	-48.13
899.173	56.32
899.343	-72.7
899.513	-58.37
