Data from USB4F104151__45__09-27-56-305.txt Node

Date: Wed Feb 26 09:27:56 EST 2025
User: louis
Spectrometer: USB4F10415
Trigger mode: 4
Integration Time (sec): 1.000000E-1
Scans to average: 1
Electric dark correction enabled: true
Nonlinearity correction enabled: false
Boxcar width: 0
XAxis mode: Wavelengths
Number of Pixels in Spectrum: 3648
>>>>>Begin Spectral Data<<<<<
178.204	-364.54
178.424	-364.54
178.644	-364.54
178.864	-415.74
179.084	-389.11
179.304	14.34
179.524	20.48
179.744	-4.1
179.964	30.72
180.184	-22.53
180.404	-47.1
180.624	-30.72
180.844	59.39
181.064	8.19
181.283	43.01
181.503	-69.63
181.723	-2.05
181.943	-120.83
182.163	169.98
182.383	8.19
182.602	38.91
182.822	106.49
183.042	-55.3
183.262	-61.44
183.482	36.86
183.701	-30.72
183.921	-51.2
184.141	-20.48
184.361	81.92
184.58	20.48
184.8	43.01
185.02	32.77
185.239	-14.34
185.459	32.77
185.679	71.68
185.898	-63.49
186.118	61.44
186.338	22.53
186.557	112.64
186.777	-43.01
186.997	-36.86
187.216	22.53
187.436	165.89
187.655	18.43
187.875	104.45
188.095	65.54
188.314	51.2
188.534	112.64
188.753	26.62
188.973	90.11
189.192	178.17
189.412	-20.48
189.631	73.73
189.851	40.96
190.07	51.2
190.29	16.38
190.509	-59.39
190.729	45.06
190.948	94.21
191.168	208.89
191.387	30.72
191.607	-47.1
191.826	18.43
192.045	88.06
192.265	2.05
192.484	4.1
192.704	75.77
192.923	2.05
193.142	151.55
193.362	47.1
193.581	63.49
193.8	92.16
194.02	-40.96
194.239	16.38
194.458	63.49
194.678	26.62
194.897	2.05
195.116	-47.1
195.335	51.2
195.555	26.62
195.774	38.91
195.993	36.86
196.212	14.34
196.432	-24.58
196.651	-73.73
196.87	73.73
197.089	139.26
197.308	-24.58
197.528	49.15
197.747	-81.92
197.966	51.2
198.185	43.01
198.404	8.19
198.623	147.45
198.842	53.25
199.062	59.39
199.281	8.19
199.5	110.59
199.719	28.67
199.938	36.86
200.157	120.83
200.376	36.86
200.595	43.01
200.814	129.02
201.033	10.24
201.252	118.78
201.471	43.01
201.69	96.25
201.909	-6.14
202.128	120.83
202.347	-2.05
202.566	88.06
202.785	-86.01
203.004	-88.06
203.223	182.27
203.442	59.39
203.661	-22.53
203.879	18.43
204.098	61.44
204.317	45.06
204.536	75.77
204.755	59.39
204.974	79.87
205.193	-34.82
205.411	118.78
205.63	55.3
205.849	0
206.068	28.67
206.287	-40.96
206.505	86.01
206.724	2.05
206.943	28.67
207.162	-88.06
207.381	40.96
207.599	49.15
207.818	57.34
208.037	6.14
208.255	26.62
208.474	-22.53
208.693	63.49
208.911	40.96
209.13	55.3
209.349	92.16
209.567	69.63
209.786	73.73
210.005	57.34
210.223	38.91
210.442	-90.11
210.661	104.45
210.879	75.77
211.098	30.72
211.316	32.77
211.535	86.01
211.753	-59.39
211.972	14.34
212.191	30.72
212.409	-65.54
212.628	157.69
212.846	-14.34
213.065	83.97
213.283	57.34
213.502	51.2
213.72	-12.29
213.938	67.58
214.157	28.67
214.375	75.77
214.594	-34.82
214.812	61.44
215.031	-47.1
215.249	71.68
215.467	22.53
215.686	-53.25
215.904	-6.14
216.122	18.43
216.341	90.11
216.559	43.01
216.778	88.06
216.996	122.88
217.214	-22.53
217.432	-22.53
217.651	-36.86
217.869	49.15
218.087	69.63
218.306	4.1
218.524	-71.68
218.742	-26.62
218.96	40.96
219.179	-57.34
219.397	24.58
219.615	223.23
219.833	135.17
220.051	-30.72
220.27	126.97
220.488	112.64
220.706	43.01
220.924	-14.34
221.142	40.96
221.36	-8.19
221.578	49.15
221.796	4.1
222.015	4.1
222.233	118.78
222.451	83.97
222.669	-57.34
222.887	24.58
223.105	-2.05
223.323	67.58
223.541	8.19
223.759	59.39
223.977	24.58
224.195	131.07
224.413	88.06
224.631	96.25
224.849	96.25
225.067	221.18
225.285	40.96
225.503	-34.82
225.721	-174.08
225.939	22.53
226.157	49.15
226.375	163.84
226.592	-79.87
226.81	67.58
227.028	61.44
227.246	53.25
227.464	10.24
227.682	77.82
227.9	104.45
228.117	26.62
228.335	30.72
228.553	-36.86
228.771	-12.29
228.989	-12.29
229.206	79.87
229.424	57.34
229.642	-43.01
229.86	-22.53
230.077	47.1
230.295	81.92
230.513	149.5
230.731	92.16
230.948	153.6
231.166	174.08
231.384	67.58
231.601	34.82
231.819	180.22
232.037	-34.82
232.254	-75.77
232.472	67.58
232.689	-45.06
232.907	55.3
233.125	38.91
233.342	-57.34
233.56	73.73
233.777	-47.1
233.995	-92.16
234.213	86.01
234.43	92.16
234.648	-63.49
234.865	-59.39
235.083	96.25
235.3	34.82
235.518	30.72
235.735	71.68
235.953	94.21
236.17	67.58
236.388	67.58
236.605	126.97
236.822	161.79
237.04	116.73
237.257	83.97
237.475	-75.77
237.692	28.67
237.909	22.53
238.127	30.72
238.344	98.3
238.562	59.39
238.779	-57.34
238.996	-40.96
239.214	-24.58
239.431	28.67
239.648	-8.19
239.865	36.86
240.083	26.62
240.3	-2.05
240.517	6.14
240.735	65.54
240.952	126.97
241.169	18.43
241.386	51.2
241.603	6.14
241.821	-102.4
242.038	6.14
242.255	73.73
242.472	-16.38
242.689	139.26
242.907	51.2
243.124	24.58
243.341	-16.38
243.558	-6.14
243.775	-73.73
243.992	-92.16
244.209	118.78
244.426	108.54
244.643	81.92
244.86	63.49
245.078	106.49
245.295	-32.77
245.512	53.25
245.729	34.82
245.946	81.92
246.163	51.2
246.38	8.19
246.597	-8.19
246.814	-34.82
247.031	22.53
247.248	59.39
247.464	69.63
247.681	147.45
247.898	43.01
248.115	86.01
248.332	-104.45
248.549	75.77
248.766	139.26
248.983	100.35
249.2	104.45
249.417	116.73
249.633	-8.19
249.85	92.16
250.067	-16.38
250.284	-6.14
250.501	26.62
250.717	8.19
250.934	-96.25
251.151	49.15
251.368	-10.24
251.585	-28.67
251.801	63.49
252.018	-38.91
252.235	16.38
252.451	16.38
252.668	-22.53
252.885	59.39
253.102	47.1
253.318	26.62
253.535	36.86
253.752	16.38
253.968	22.53
254.185	6.14
254.401	-10.24
254.618	55.3
254.835	-16.38
255.051	88.06
255.268	47.1
255.484	40.96
255.701	-34.82
255.917	102.4
256.134	2.05
256.351	90.11
256.567	-30.72
256.784	18.43
257	-55.3
257.217	118.78
257.433	112.64
257.65	30.72
257.866	73.73
258.082	-8.19
258.299	-131.07
258.515	34.82
258.732	-6.14
258.948	-20.48
259.165	47.1
259.381	-30.72
259.597	8.19
259.814	-43.01
260.03	10.24
260.246	-10.24
260.463	47.1
260.679	92.16
260.895	-24.58
261.112	-26.62
261.328	14.34
261.544	-45.06
261.761	215.04
261.977	-45.06
262.193	-12.29
262.409	67.58
262.626	92.16
262.842	18.43
263.058	-10.24
263.274	143.36
263.49	26.62
263.707	81.92
263.923	-30.72
264.139	-83.97
264.355	-59.39
264.571	65.54
264.787	75.77
265.004	71.68
265.22	53.25
265.436	22.53
265.652	-6.14
265.868	57.34
266.084	-22.53
266.3	32.77
266.516	-16.38
266.732	43.01
266.948	92.16
267.164	14.34
267.38	-32.77
267.596	129.02
267.812	2.05
268.028	43.01
268.244	67.58
268.46	-18.43
268.676	26.62
268.892	28.67
269.108	-108.54
269.324	-47.1
269.54	-24.58
269.756	112.64
269.972	-86.01
270.188	10.24
270.403	75.77
270.619	90.11
270.835	32.77
271.051	0
271.267	-28.67
271.483	-24.58
271.698	67.58
271.914	110.59
272.13	12.29
272.346	26.62
272.562	26.62
272.777	149.5
272.993	-18.43
273.209	-8.19
273.425	79.87
273.64	-75.77
273.856	92.16
274.072	-30.72
274.287	-28.67
274.503	0
274.719	122.88
274.934	2.05
275.15	-24.58
275.366	30.72
275.581	-98.3
275.797	65.54
276.012	38.91
276.228	-36.86
276.444	43.01
276.659	63.49
276.875	-32.77
277.09	2.05
277.306	-26.62
277.521	112.64
277.737	38.91
277.952	81.92
278.168	45.06
278.383	-14.34
278.599	-16.38
278.814	14.34
279.03	-34.82
279.245	122.88
279.461	16.38
279.676	53.25
279.892	-32.77
280.107	-71.68
280.322	-51.2
280.538	40.96
280.753	-114.69
280.969	88.06
281.184	-26.62
281.399	108.54
281.615	81.92
281.83	90.11
282.045	22.53
282.26	-71.68
282.476	18.43
282.691	126.97
282.906	77.82
283.122	59.39
283.337	-20.48
283.552	81.92
283.767	0
283.983	14.34
284.198	-26.62
284.413	24.58
284.628	-28.67
284.843	79.87
285.058	98.3
285.274	-30.72
285.489	75.77
285.704	116.73
285.919	-28.67
286.134	-26.62
286.349	-38.91
286.564	-55.3
286.779	155.65
286.995	-75.77
287.21	-86.01
287.425	43.01
287.64	-12.29
287.855	57.34
288.07	-86.01
288.285	100.35
288.5	120.83
288.715	26.62
288.93	12.29
289.145	-24.58
289.36	75.77
289.575	43.01
289.79	53.25
290.004	-36.86
290.219	100.35
290.434	-40.96
290.649	-28.67
290.864	-22.53
291.079	6.14
291.294	67.58
291.509	26.62
291.724	65.54
291.938	-4.1
292.153	172.03
292.368	-30.72
292.583	36.86
292.798	47.1
293.012	86.01
293.227	71.68
293.442	-26.62
293.657	4.1
293.871	47.1
294.086	-16.38
294.301	143.36
294.516	73.73
294.73	-22.53
294.945	-94.21
295.16	49.15
295.374	49.15
295.589	79.87
295.804	-55.3
296.018	-8.19
296.233	79.87
296.447	-10.24
296.662	18.43
296.877	67.58
297.091	53.25
297.306	18.43
297.52	34.82
297.735	98.3
297.949	-36.86
298.164	51.2
298.378	81.92
298.593	-40.96
298.807	0
299.022	18.43
299.236	98.3
299.451	-49.15
299.665	63.49
299.88	10.24
300.094	43.01
300.309	-67.58
300.523	-22.53
300.737	-2.05
300.952	49.15
301.166	86.01
301.381	18.43
301.595	-10.24
301.809	32.77
302.024	14.34
302.238	-6.14
302.452	2.05
302.667	-8.19
302.881	71.68
303.095	59.39
303.309	-12.29
303.524	-8.19
303.738	28.67
303.952	-55.3
304.166	10.24
304.381	-118.78
304.595	104.45
304.809	-24.58
305.023	6.14
305.237	-67.58
305.452	49.15
305.666	32.77
305.88	34.82
306.094	10.24
306.308	8.19
306.522	71.68
306.736	47.1
306.95	49.15
307.164	-34.82
307.379	-24.58
307.593	108.54
307.807	59.39
308.021	34.82
308.235	28.67
308.449	-96.25
308.663	16.38
308.877	192.51
309.091	47.1
309.305	43.01
309.519	-116.73
309.733	92.16
309.947	-79.87
310.161	63.49
310.374	-10.24
310.588	51.2
310.802	-32.77
311.016	34.82
311.23	57.34
311.444	-59.39
311.658	30.72
311.872	98.3
312.085	104.45
312.299	165.89
312.513	75.77
312.727	49.15
312.941	-32.77
313.154	81.92
313.368	98.3
313.582	63.49
313.796	67.58
314.009	-14.34
314.223	-26.62
314.437	-6.14
314.651	75.77
314.864	-20.48
315.078	10.24
315.292	-88.06
315.505	-59.39
315.719	53.25
315.933	32.77
316.146	-6.14
316.36	-92.16
316.573	43.01
316.787	75.77
317.001	-63.49
317.214	-28.67
317.428	-57.34
317.641	-73.73
317.855	36.86
318.068	43.01
318.282	163.84
318.495	129.02
318.709	55.3
318.922	-26.62
319.136	108.54
319.349	92.16
319.563	47.1
319.776	63.49
319.99	-104.45
320.203	88.06
320.417	22.53
320.63	124.93
320.843	120.83
321.057	18.43
321.27	-81.92
321.483	26.62
321.697	210.94
321.91	83.97
322.124	12.29
322.337	32.77
322.55	-86.01
322.763	34.82
322.977	112.64
323.19	26.62
323.403	20.48
323.617	4.1
323.83	86.01
324.043	-6.14
324.256	71.68
324.469	-16.38
324.683	126.97
324.896	-24.58
325.109	24.58
325.322	-32.77
325.535	75.77
325.748	47.1
325.962	-38.91
326.175	43.01
326.388	-16.38
326.601	122.88
326.814	10.24
327.027	90.11
327.24	161.79
327.453	-73.73
327.666	18.43
327.879	81.92
328.092	8.19
328.305	10.24
328.518	-36.86
328.731	-14.34
328.944	45.06
329.157	73.73
329.37	32.77
329.583	124.93
329.796	-6.14
330.009	-57.34
330.222	110.59
330.435	65.54
330.648	26.62
330.861	67.58
331.073	0
331.286	149.5
331.499	-14.34
331.712	-51.2
331.925	-2.05
332.138	12.29
332.35	124.93
332.563	-28.67
332.776	92.16
332.989	53.25
333.202	-30.72
333.414	-16.38
333.627	2.05
333.84	-24.58
334.053	71.68
334.265	-26.62
334.478	-18.43
334.691	28.67
334.903	-51.2
335.116	-45.06
335.329	69.63
335.541	96.25
335.754	131.07
335.966	-20.48
336.179	10.24
336.392	32.77
336.604	-6.14
336.817	114.69
337.029	92.16
337.242	34.82
337.454	120.83
337.667	16.38
337.88	139.26
338.092	20.48
338.305	106.49
338.517	40.96
338.729	114.69
338.942	59.39
339.154	-59.39
339.367	-98.3
339.579	-10.24
339.792	2.05
340.004	114.69
340.217	88.06
340.429	34.82
340.641	-26.62
340.854	-18.43
341.066	10.24
341.278	96.25
341.491	40.96
341.703	26.62
341.915	18.43
342.128	67.58
342.34	22.53
342.552	-12.29
342.764	59.39
342.977	-145.41
343.189	67.58
343.401	51.2
343.613	10.24
343.826	32.77
344.038	-51.2
344.25	-2.05
344.462	-65.54
344.674	69.63
344.886	-18.43
345.099	106.49
345.311	-104.45
345.523	2.05
345.735	-88.06
345.947	26.62
346.159	59.39
346.371	-24.58
346.583	-63.49
346.795	157.69
347.007	47.1
347.219	81.92
347.431	38.91
347.643	202.75
347.855	-75.77
348.067	182.27
348.279	2.05
348.491	-67.58
348.703	-2.05
348.915	30.72
349.127	-38.91
349.339	8.19
349.551	59.39
349.763	47.1
349.975	-14.34
350.187	90.11
350.399	122.88
350.61	-18.43
350.822	40.96
351.034	-26.62
351.246	61.44
351.458	96.25
351.669	75.77
351.881	67.58
352.093	122.88
352.305	16.38
352.517	67.58
352.728	110.59
352.94	-8.19
353.152	75.77
353.363	-83.97
353.575	14.34
353.787	77.82
353.999	-43.01
354.21	112.64
354.422	-90.11
354.633	16.38
354.845	-71.68
355.057	40.96
355.268	30.72
355.48	100.35
355.692	-59.39
355.903	-16.38
356.115	2.05
356.326	-63.49
356.538	26.62
356.749	16.38
356.961	163.84
357.172	75.77
357.384	20.48
357.595	102.4
357.807	24.58
358.018	-18.43
358.23	-55.3
358.441	63.49
358.653	81.92
358.864	-24.58
359.075	-22.53
359.287	-10.24
359.498	34.82
359.709	30.72
359.921	24.58
360.132	-6.14
360.344	-2.05
360.555	-14.34
360.766	-14.34
360.977	-51.2
361.189	61.44
361.4	-67.58
361.611	26.62
361.823	6.14
362.034	102.4
362.245	-14.34
362.456	49.15
362.667	75.77
362.879	-69.63
363.09	51.2
363.301	53.25
363.512	-10.24
363.723	24.58
363.935	30.72
364.146	88.06
364.357	-47.1
364.568	98.3
364.779	-112.64
364.99	174.08
365.201	-14.34
365.412	120.83
365.623	-90.11
365.834	-47.1
366.045	18.43
366.256	26.62
366.467	147.45
366.678	36.86
366.889	-10.24
367.1	-16.38
367.311	81.92
367.522	24.58
367.733	0
367.944	-4.1
368.155	38.91
368.366	116.73
368.577	110.59
368.788	141.31
368.999	-51.2
369.209	32.77
369.42	159.74
369.631	190.46
369.842	106.49
370.053	-38.91
370.264	149.5
370.474	-88.06
370.685	106.49
370.896	4.1
371.107	129.02
371.317	81.92
371.528	43.01
371.739	63.49
371.95	40.96
372.16	69.63
372.371	-139.26
372.582	-28.67
372.792	-2.05
373.003	55.3
373.214	32.77
373.424	57.34
373.635	-8.19
373.846	120.83
374.056	51.2
374.267	67.58
374.477	-22.53
374.688	-96.25
374.898	22.53
375.109	49.15
375.319	59.39
375.53	90.11
375.74	57.34
375.951	-14.34
376.161	53.25
376.372	90.11
376.582	-90.11
376.793	14.34
377.003	2.05
377.214	-59.39
377.424	26.62
377.635	112.64
377.845	12.29
378.055	61.44
378.266	-24.58
378.476	2.05
378.686	30.72
378.897	51.2
379.107	63.49
379.317	98.3
379.528	2.05
379.738	71.68
379.948	-63.49
380.158	16.38
380.369	-22.53
380.579	63.49
380.789	32.77
380.999	38.91
381.21	131.07
381.42	149.5
381.63	24.58
381.84	43.01
382.05	32.77
382.261	32.77
382.471	16.38
382.681	12.29
382.891	184.32
383.101	43.01
383.311	-73.73
383.521	-8.19
383.731	18.43
383.941	90.11
384.151	34.82
384.361	30.72
384.571	43.01
384.781	10.24
384.991	141.31
385.201	133.12
385.411	61.44
385.621	43.01
385.831	6.14
386.041	-38.91
386.251	8.19
386.461	45.06
386.671	2.05
386.881	67.58
387.091	43.01
387.301	92.16
387.511	-24.58
387.72	67.58
387.93	53.25
388.14	-63.49
388.35	34.82
388.56	169.98
388.769	98.3
388.979	65.54
389.189	-51.2
389.399	32.77
389.609	83.97
389.818	90.11
390.028	36.86
390.238	12.29
390.447	-16.38
390.657	26.62
390.867	36.86
391.076	-71.68
391.286	26.62
391.496	-26.62
391.705	106.49
391.915	133.12
392.125	75.77
392.334	-30.72
392.544	59.39
392.753	20.48
392.963	-63.49
393.172	100.35
393.382	43.01
393.591	157.69
393.801	61.44
394.01	167.93
394.22	30.72
394.429	71.68
394.639	0
394.848	12.29
395.058	32.77
395.267	14.34
395.477	65.54
395.686	20.48
395.895	202.75
396.105	92.16
396.314	55.3
396.524	-43.01
396.733	0
396.942	106.49
397.152	77.82
397.361	16.38
397.57	51.2
397.78	-47.1
397.989	100.35
398.198	151.55
398.407	73.73
398.617	6.14
398.826	26.62
399.035	16.38
399.244	63.49
399.453	38.91
399.663	92.16
399.872	36.86
400.081	-65.54
400.29	129.02
400.499	-32.77
400.708	108.54
400.917	-6.14
401.127	30.72
401.336	-14.34
401.545	153.6
401.754	139.26
401.963	14.34
402.172	-8.19
402.381	-63.49
402.59	28.67
402.799	-24.58
403.008	53.25
403.217	2.05
403.426	92.16
403.635	-81.92
403.844	-36.86
404.053	-45.06
404.262	26.62
404.471	151.55
404.68	55.3
404.888	-26.62
405.097	32.77
405.306	6.14
405.515	38.91
405.724	24.58
405.933	67.58
406.142	104.45
406.35	104.45
406.559	14.34
406.768	98.3
406.977	57.34
407.185	40.96
407.394	79.87
407.603	-38.91
407.812	63.49
408.02	145.41
408.229	53.25
408.438	18.43
408.646	-47.1
408.855	0
409.064	40.96
409.272	-10.24
409.481	22.53
409.69	-79.87
409.898	-26.62
410.107	34.82
410.315	108.54
410.524	106.49
410.733	24.58
410.941	-6.14
411.15	26.62
411.358	51.2
411.567	141.31
411.775	83.97
411.984	28.67
412.192	100.35
412.401	2.05
412.609	151.55
412.818	102.4
413.026	88.06
413.234	-45.06
413.443	81.92
413.651	-20.48
413.86	-6.14
414.068	141.31
414.276	169.98
414.485	43.01
414.693	159.74
414.901	141.31
415.11	34.82
415.318	14.34
415.526	79.87
415.734	106.49
415.943	-22.53
416.151	32.77
416.359	-53.25
416.567	28.67
416.776	26.62
416.984	26.62
417.192	114.69
417.4	26.62
417.608	-14.34
417.817	16.38
418.025	83.97
418.233	161.79
418.441	-24.58
418.649	-53.25
418.857	55.3
419.065	141.31
419.273	-51.2
419.481	22.53
419.689	57.34
419.897	51.2
420.105	-32.77
420.313	14.34
420.521	90.11
420.729	108.54
420.937	30.72
421.145	4.1
421.353	182.27
421.561	86.01
421.769	63.49
421.977	-8.19
422.185	110.59
422.393	-40.96
422.601	63.49
422.809	34.82
423.017	26.62
423.224	75.77
423.432	18.43
423.64	102.4
423.848	43.01
424.056	-24.58
424.263	73.73
424.471	24.58
424.679	133.12
424.887	-45.06
425.094	137.21
425.302	61.44
425.51	0
425.718	172.03
425.925	-51.2
426.133	-83.97
426.341	155.65
426.548	-14.34
426.756	-30.72
426.964	18.43
427.171	-61.44
427.379	139.26
427.586	43.01
427.794	106.49
428.001	161.79
428.209	77.82
428.417	143.36
428.624	155.65
428.832	106.49
429.039	-6.14
429.247	92.16
429.454	145.41
429.662	204.8
429.869	67.58
430.076	61.44
430.284	104.45
430.491	194.56
430.699	81.92
430.906	165.89
431.114	43.01
431.321	73.73
431.528	30.72
431.736	124.93
431.943	110.59
432.15	75.77
432.358	137.21
432.565	88.06
432.772	67.58
432.979	159.74
433.187	-2.05
433.394	104.45
433.601	18.43
433.808	65.54
434.016	122.88
434.223	126.97
434.43	98.3
434.637	204.8
434.844	151.55
435.052	169.98
435.259	239.61
435.466	147.45
435.673	153.6
435.88	153.6
436.087	245.76
436.294	219.13
436.501	212.99
436.708	116.73
436.915	131.07
437.122	198.65
437.329	198.65
437.537	208.89
437.743	198.65
437.95	315.39
438.157	251.9
438.364	249.85
438.571	296.96
438.778	264.19
438.985	309.24
439.192	358.39
439.399	321.53
439.606	442.36
439.813	397.31
440.02	428.03
440.227	524.28
440.433	423.93
440.64	315.39
440.847	323.58
441.054	405.5
441.261	489.46
441.467	460.79
441.674	444.41
441.881	505.85
442.088	501.75
442.294	542.71
442.501	559.1
442.708	616.44
442.914	557.05
443.121	636.92
443.328	659.45
443.534	694.26
443.741	663.54
443.948	667.64
444.154	712.69
444.361	786.42
444.568	657.4
444.774	761.84
444.981	655.35
445.187	919.54
445.394	817.14
445.6	862.19
445.807	903.15
446.013	886.77
446.22	952.31
446.426	925.68
446.633	1079.28
446.839	1173.49
447.046	1036.27
447.252	1169.39
447.459	1157.1
447.665	1198.06
447.871	1349.61
448.078	1388.52
448.284	1230.83
448.491	1462.25
448.697	1370.09
448.903	1648.61
449.11	1587.18
449.316	1587.18
449.522	1705.96
449.728	1816.55
449.935	1828.84
450.141	1806.31
450.347	1994.72
450.553	1914.85
450.76	1927.14
450.966	1998.82
451.172	2189.28
451.378	2289.63
451.584	2252.77
451.791	2482.14
451.997	2488.28
452.203	2557.91
452.409	2662.36
452.615	2717.65
452.821	2723.8
453.027	2762.71
453.233	3127.25
453.44	3088.34
453.646	3110.86
453.852	3325.9
454.058	3387.34
454.264	3512.27
454.47	3712.97
454.676	3626.95
454.882	4040.64
455.088	3864.52
455.294	4341.69
455.5	4618.17
455.705	4773.82
455.911	4747.19
456.117	4790.2
456.323	4988.85
456.529	4884.41
456.735	5466.03
456.941	5529.52
457.147	5801.9
457.352	5959.59
457.558	6119.33
457.764	6625.18
457.97	6768.54
458.176	7096.21
458.381	7335.82
458.587	7489.42
458.793	7841.67
458.999	7737.23
459.204	8685.44
459.41	9002.87
459.616	8908.66
459.821	9338.74
460.027	9645.93
460.233	10225.51
460.438	10227.56
460.644	10938.2
460.85	10903.39
461.055	11507.54
461.261	12201.8
461.466	11917.13
461.672	12080.97
461.878	13510.45
462.083	13285.17
462.289	13666.1
462.494	13813.55
462.7	14040.87
462.905	14546.72
463.111	15591.19
463.316	16387.85
463.522	16340.74
463.727	16987.9
463.932	17630.96
464.138	18521.83
464.343	19068.64
464.549	19009.25
464.754	20520.65
464.959	21061.31
465.165	21313.21
465.37	21425.85
465.575	21188.28
465.781	22744.74
465.986	23697.05
466.191	22986.4
466.397	23113.38
466.602	22754.98
466.807	23936.66
467.012	24413.84
467.218	24692.36
467.423	24788.61
467.628	25568.89
467.833	26959.46
468.038	26441.32
468.244	25775.73
468.449	27246.18
468.654	26619.5
468.859	26850.92
469.064	26871.4
469.269	25876.09
469.474	26283.63
469.679	26932.84
469.885	26414.7
470.09	26947.17
470.295	26603.11
470.5	26050.16
470.705	26422.89
470.91	25392.76
471.115	25316.99
471.32	25710.2
471.525	26003.06
471.73	24929.92
471.935	24635.02
472.139	23776.92
472.344	23844.5
472.549	23436.95
472.754	22757.03
472.959	22619.81
473.164	22046.38
473.369	21556.92
473.574	22138.54
473.778	21943.99
473.983	21364.41
474.188	20932.29
474.393	19904.21
474.598	19750.61
474.802	19652.31
475.007	19324.63
475.212	19193.56
475.417	18011.89
475.621	18231.02
475.826	17856.24
476.031	17587.96
476.235	17080.06
476.44	17094.4
476.645	16629.51
476.849	16553.73
477.054	16211.72
477.259	15744.78
477.463	15705.87
477.668	15523.6
477.872	15605.52
478.077	14923.55
478.282	14616.35
478.486	14511.91
478.691	14288.68
478.895	14157.61
479.1	14120.74
479.304	14102.31
479.509	13582.13
479.713	13522.74
479.918	13358.9
480.122	13092.66
480.326	13041.47
480.531	12977.98
480.735	12709.69
480.94	12695.36
481.144	13299.51
481.348	12515.14
481.553	12740.41
481.757	12250.95
481.961	12250.95
482.166	12515.14
482.37	12326.72
482.574	12033.86
482.778	11949.9
482.983	12150.6
483.187	11894.6
483.391	11829.07
483.595	11366.23
483.8	11401.04
484.004	11482.96
484.208	11382.61
484.412	11171.67
484.616	11001.69
484.821	11003.74
485.025	10696.54
485.229	10725.21
485.433	10430.3
485.637	10426.21
485.841	10409.83
486.045	10135.4
486.249	10174.31
486.453	9860.97
486.657	9652.08
486.861	9719.66
487.065	9379.7
487.269	9381.74
487.473	8959.86
487.677	9076.6
487.881	9197.43
488.085	8808.31
488.289	8689.53
488.493	8361.86
488.697	8554.37
488.901	8308.61
489.105	8030.09
489.309	7919.5
489.512	7878.54
489.716	7792.52
489.92	7522.19
490.124	7397.26
490.328	7292.82
490.531	6903.7
490.735	7186.32
490.939	6875.03
491.143	6756.25
491.346	6684.57
491.55	6565.79
491.754	6524.83
491.958	6363.04
492.161	6346.66
492.365	6143.91
492.569	6197.15
492.772	5869.48
492.976	5887.91
493.18	5851.05
493.383	5732.26
493.587	5740.46
493.79	5736.36
493.994	5472.17
494.197	5455.79
494.401	5529.52
494.605	5359.53
494.808	5447.6
495.012	5550
495.215	5388.21
495.419	5420.97
495.622	5177.26
495.825	5148.59
496.029	5369.77
496.232	5236.66
496.436	5124.02
496.639	5228.46
496.843	4929.46
497.046	5152.69
497.249	5175.22
497.453	5144.5
497.656	5029.81
497.859	5081.01
498.063	5164.98
498.266	5195.7
498.469	5207.98
498.673	5126.07
498.876	5320.62
499.079	5220.27
499.282	5255.09
499.485	5523.37
499.689	5322.67
499.892	5347.25
500.095	5253.04
500.298	5429.17
500.501	5285.81
500.705	5447.6
500.908	5509.04
501.111	5414.83
501.314	5570.47
501.517	5791.66
501.72	5758.89
501.923	5711.78
502.126	5844.9
502.329	5982.12
502.532	6000.55
502.735	5982.12
502.938	6203.3
503.141	6330.27
503.344	6201.25
503.547	6324.13
503.75	6344.61
503.953	6391.71
504.156	6625.18
504.359	6547.36
504.562	6547.36
504.765	6852.5
504.968	7024.53
505.17	7010.2
505.373	7069.59
505.576	7235.47
505.779	7423.89
505.982	7548.81
506.185	7716.75
506.387	7747.47
506.59	7743.37
506.793	8271.75
506.996	8001.41
507.198	8478.59
507.401	8417.15
507.604	8607.61
507.807	8785.79
508.009	9092.98
508.212	8992.63
508.415	9631.6
508.617	9365.36
508.82	9557.87
509.022	9797.48
509.225	10123.11
509.428	10227.56
509.63	10395.49
509.833	10422.11
510.035	11175.77
510.238	11003.74
510.44	11415.38
510.643	11890.51
510.845	11833.16
511.048	12035.91
511.25	12443.46
511.453	12830.52
511.655	13223.73
511.858	13190.97
512.06	13512.5
512.262	13707.05
512.465	14034.73
512.667	14688.03
512.87	14759.71
513.072	15114.01
513.274	15517.46
513.477	15744.78
513.679	16324.36
513.881	16813.82
514.084	16987.9
514.286	17370.87
514.488	17798.9
514.69	18335.46
514.893	18290.41
515.095	18568.93
515.297	19244.76
515.499	19627.73
515.701	20123.34
515.904	20643.53
516.106	21098.17
516.308	21468.86
516.51	21841.59
516.712	22185.65
516.914	22664.87
517.116	23309.98
517.318	23815.83
517.52	24166.03
517.722	23912.08
517.925	24749.7
518.127	25593.47
518.329	26048.11
518.531	25972.34
518.733	26932.84
518.935	27123.3
519.136	27395.68
519.338	28175.95
519.54	28403.28
519.742	28849.74
519.944	29134.4
520.146	29857.34
520.348	30135.86
520.55	30610.99
520.752	31129.12
520.954	31544.86
521.155	31469.09
521.357	32312.85
521.559	32900.62
521.761	32886.28
521.963	33107.46
522.164	33814.01
522.366	33816.06
522.568	34258.42
522.77	34293.24
522.971	35139.05
523.173	34696.69
523.375	35558.88
523.576	35395.04
523.778	35102.18
523.98	35845.6
524.181	36230.62
524.383	36306.39
524.584	36617.68
524.786	36629.97
524.988	36216.28
525.189	36599.25
525.391	36715.98
525.592	36666.83
525.794	36459.99
525.995	36593.11
526.197	37105.1
526.398	36900.3
526.6	36885.97
526.801	36830.67
527.003	36994.51
527.204	36564.43
527.406	36976.08
527.607	36509.14
527.808	36500.95
528.01	35440.1
528.211	35671.52
528.412	36079.07
528.614	35800.54
528.815	35470.82
529.016	35335.65
529.218	34608.62
529.419	34620.91
529.62	34459.12
529.822	33957.37
530.023	33586.69
530.224	33443.33
530.425	33127.94
530.626	32779.79
530.828	32019.99
531.029	32615.95
531.23	32022.04
531.431	31497.76
531.632	31280.67
531.833	31186.47
532.035	30316.08
532.236	30268.98
532.437	30115.38
532.638	29439.55
532.839	29136.45
533.04	28847.69
533.241	28126.8
533.442	28599.88
533.643	27692.63
533.844	27577.95
534.045	26971.75
534.246	26633.83
534.447	26295.92
534.648	25982.58
534.849	25704.06
535.05	25265.79
535.251	24987.27
535.451	24434.32
535.652	24090.26
535.853	23975.57
536.054	23725.72
536.255	23408.28
536.456	22910.63
536.657	23049.89
536.857	22511.27
537.058	22195.89
537.259	21892.79
537.46	21827.25
537.66	21350.07
537.861	21065.41
538.062	20770.5
538.263	20530.89
538.463	20115.15
538.664	20029.13
538.865	19859.15
539.065	19533.53
539.266	19302.11
539.466	19269.34
539.667	18732.77
539.868	18611.94
540.068	18085.61
540.269	18370.28
540.469	18126.57
540.67	17508.08
540.87	17671.92
541.071	17440.5
541.271	17133.31
541.472	17055.48
541.672	16996.09
541.873	16406.28
542.073	16221.96
542.274	16338.69
542.474	16156.43
542.675	15822.61
542.875	15746.83
543.075	15396.63
543.276	15128.35
543.476	15202.07
543.676	14935.84
543.877	14925.6
544.077	14714.66
544.277	14468.9
544.478	14202.66
544.678	14262.05
544.878	14026.54
545.078	13887.28
545.279	13557.55
545.479	13510.45
545.679	13313.84
545.879	13334.32
546.079	12920.63
546.28	12914.49
546.48	12705.6
546.68	12891.96
546.88	12304.2
547.08	12187.46
547.28	12261.19
547.48	11994.95
547.68	12015.43
547.88	11720.53
548.081	11435.86
548.281	11282.26
548.481	11181.91
548.681	11183.96
548.881	10975.06
549.081	10895.19
549.28	10778.46
549.48	10624.86
549.68	10497.89
549.88	10463.07
550.08	10069.86
550.28	10241.89
550.48	10194.79
550.68	9795.43
550.88	9566.06
551.08	9396.08
551.279	9299.83
551.479	8945.53
551.679	9248.63
551.879	8929.14
552.079	8789.88
552.278	8505.21
552.478	8560.51
552.678	8562.56
552.878	8271.75
553.077	8226.69
553.277	7942.02
553.477	7872.39
553.676	7911.3
553.876	7720.84
554.076	7554.96
554.275	7403.41
554.475	7188.37
554.674	7430.03
554.874	7108.5
555.074	6946.71
555.273	6840.22
555.473	6686.62
555.672	6721.43
555.872	6623.13
556.071	6498.2
556.271	6479.77
556.47	6272.93
556.67	6305.7
556.869	6055.84
557.068	5859.24
557.268	5724.07
557.467	5846.95
557.667	5756.84
557.866	5506.99
558.065	5533.61
558.265	5443.5
558.464	5164.98
558.663	5210.03
558.863	5146.55
559.062	5171.12
559.261	4974.52
559.461	5052.34
559.66	4704.18
559.859	4652.98
560.058	4589.5
560.258	4499.39
560.457	4362.17
560.656	4663.22
560.855	4259.77
561.054	4284.35
561.253	4323.26
561.453	4075.46
561.652	4161.47
561.851	4057.03
562.05	3876.8
562.249	3913.67
562.448	3876.8
562.647	3672.01
562.846	3672.01
563.045	3704.78
563.244	3639.24
563.443	3561.42
563.642	3520.46
563.841	3389.39
564.04	3422.16
564.239	3409.87
564.438	3350.48
564.637	3162.06
564.836	3182.54
565.035	3123.15
565.234	3004.37
565.432	3155.92
565.631	3012.56
565.83	2912.21
566.029	2938.84
566.228	2844.63
566.427	2887.64
566.625	2602.97
566.824	2754.52
567.023	2795.48
567.222	2598.87
567.42	2643.93
567.619	2592.73
567.818	2494.43
568.016	2607.06
568.215	2355.16
568.414	2494.43
568.612	2355.16
568.811	2367.45
569.01	2287.58
569.208	2359.26
569.407	2271.2
569.605	2377.69
569.804	2133.98
570.002	2303.96
570.201	2052.06
570.4	2197.47
570.598	2031.59
570.797	2021.35
570.995	1955.81
571.193	1931.23
571.392	1873.89
571.59	1855.46
571.789	1951.71
571.987	1988.58
572.186	1843.17
572.384	1877.99
572.582	1761.25
572.781	1794.02
572.979	1640.42
573.177	1669.09
573.376	1683.43
573.574	1662.95
573.772	1599.46
573.971	1554.41
574.169	1398.76
574.367	1480.68
574.565	1591.27
574.763	1488.87
574.962	1484.78
575.16	1425.39
575.358	1363.95
575.556	1384.43
575.754	1245.16
575.952	1228.78
576.151	1372.14
576.349	1333.23
576.547	1200.11
576.745	1271.79
576.943	1193.97
577.141	1302.51
577.339	1116.14
577.537	1222.64
577.735	1286.12
577.933	1124.33
578.131	1097.71
578.329	1161.2
578.527	944.11
578.725	1134.57
578.923	1015.79
579.121	1107.95
579.319	907.25
579.516	952.31
579.714	1069.04
579.912	993.26
580.11	860.15
580.308	931.83
580.506	892.91
580.704	813.04
580.901	972.79
581.099	925.68
581.297	880.63
581.495	827.38
581.692	759.8
581.89	983.03
582.088	917.49
582.285	843.76
582.483	745.46
582.681	753.65
582.878	837.62
583.076	774.13
583.274	735.22
583.471	813.04
583.669	749.56
583.866	624.63
584.064	714.74
584.262	679.93
584.459	657.4
584.657	657.4
584.854	720.88
585.052	600.05
585.249	663.54
585.447	643.06
585.644	499.7
585.841	618.49
586.039	681.97
586.236	632.82
586.434	649.21
586.631	559.1
586.828	579.58
587.026	516.09
587.223	419.83
587.42	477.18
587.618	604.15
587.815	600.05
588.012	530.42
588.21	548.86
588.407	548.86
588.604	559.1
588.801	436.22
588.999	548.86
589.196	602.1
589.393	462.84
589.59	483.32
589.787	511.99
589.984	483.32
590.182	518.14
590.379	401.4
590.576	444.41
590.773	475.13
590.97	491.51
591.167	464.89
591.364	514.04
591.561	452.6
591.758	581.62
591.955	473.08
592.152	448.51
592.349	428.03
592.546	417.79
592.743	397.31
592.94	380.92
593.137	407.55
593.334	485.37
593.531	452.6
593.727	456.7
593.924	540.66
594.121	436.22
594.318	440.31
594.515	485.37
594.712	583.67
594.908	518.14
595.105	358.39
595.302	399.35
595.499	450.55
595.696	536.57
595.892	376.83
596.089	618.49
596.286	503.8
596.482	573.43
596.679	550.9
596.876	520.18
597.072	696.31
597.269	591.86
597.466	536.57
597.662	526.33
597.859	606.2
598.055	686.07
598.252	686.07
598.448	712.69
598.645	636.92
598.841	606.2
599.038	817.14
599.234	854
599.431	755.7
599.627	819.19
599.824	909.3
600.02	860.15
600.217	901.11
600.413	956.4
600.609	985.07
600.806	1181.68
601.002	1036.27
601.198	999.41
601.395	1124.33
601.591	1185.77
601.787	1275.88
601.984	1239.02
602.18	1343.47
602.376	1253.36
602.572	1515.5
602.769	1454.06
602.965	1523.69
603.161	1626.09
603.357	1630.18
603.553	1808.36
603.75	1771.49
603.946	1834.98
604.142	2000.87
604.338	1902.56
604.534	1951.71
604.73	2133.98
604.926	2131.94
605.122	2297.82
605.318	2238.43
605.514	2451.42
605.71	2426.84
605.906	2502.62
606.102	2566.1
606.298	2693.08
606.494	2922.45
606.69	2809.81
606.886	2889.68
607.082	2959.31
607.278	2875.35
607.474	3114.96
607.67	3223.5
607.866	3274.7
608.062	3528.65
608.257	3614.66
608.453	3555.27
608.649	3747.78
608.845	3647.43
609.041	3706.82
609.236	3993.54
609.432	4204.48
609.628	4229.06
609.824	4374.46
610.019	4368.32
610.215	4339.65
610.411	4587.45
610.606	4861.88
610.802	4894.65
610.998	5078.96
611.193	5134.26
611.389	5126.07
611.584	5621.67
611.78	5410.73
611.976	5574.57
612.171	5978.02
612.367	6102.95
612.562	6109.09
612.758	6199.2
612.953	6487.96
613.149	6604.7
613.344	6606.75
613.539	7065.49
613.735	7321.49
613.93	7425.93
614.126	7569.29
614.321	7815.05
614.517	8017.8
614.712	8069
614.907	8408.96
615.103	8486.78
615.298	8750.97
615.493	9142.13
615.688	9179
615.884	9344.88
616.079	9504.62
616.274	9971.56
616.47	9981.8
616.665	10284.9
616.86	10647.39
617.055	10710.88
617.25	11089.75
617.445	11515.73
617.641	11579.22
617.836	12003.14
618.031	12044.1
618.226	12656.45
618.421	12984.12
618.616	13344.56
618.811	13354.8
619.006	13852.46
619.201	13813.55
619.396	14565.15
619.591	14274.34
619.786	15071
619.981	15251.22
620.176	15703.82
620.371	15818.51
620.566	16072.46
620.761	16455.43
620.956	17069.82
621.151	17141.5
621.346	17493.75
621.541	17506.04
621.735	18249.45
621.93	18276.07
622.125	19130.08
622.32	18847.46
622.515	19541.72
622.709	19787.47
622.904	20317.9
623.099	20530.89
623.294	20889.28
623.488	21163.71
623.683	21665.46
623.878	21710.52
624.072	22419.11
624.267	22539.94
624.462	22982.31
624.656	23207.58
624.851	23766.68
625.046	24067.73
625.24	24540.81
625.435	24714.89
625.629	25052.8
625.824	25456.25
626.018	25994.87
626.213	25466.49
626.407	26443.37
626.602	26183.28
626.796	26840.68
626.991	27154.02
627.185	27397.73
627.38	27334.24
627.574	27551.32
627.768	27659.87
627.963	27807.32
628.157	27942.49
628.352	28286.54
628.546	27686.49
628.74	28317.26
628.935	27946.58
629.129	28311.12
629.323	27930.2
629.517	27807.32
629.712	27821.66
629.906	27666.01
630.1	27137.63
630.294	26857.06
630.489	26478.19
630.683	26498.67
630.877	25706.1
631.071	25249.41
631.265	25040.51
631.459	24659.59
631.653	24204.94
631.848	23600.79
632.042	22828.71
632.236	22701.73
632.43	21780.15
632.624	21393.08
632.818	20897.47
633.012	20053.71
633.206	19482.33
633.4	19164.89
633.594	18218.73
633.788	17805.04
633.982	17260.28
634.176	16725.76
634.369	16076.55
634.563	15404.82
634.757	14792.48
634.951	14493.47
635.145	13930.28
635.339	13369.14
635.533	12468.03
635.726	12171.08
635.92	11628.37
636.114	11265.88
636.308	10602.33
636.501	10440.54
636.695	9815.91
636.889	9391.98
637.083	9109.36
637.276	8830.84
637.47	8253.31
637.664	8062.85
637.857	7798.66
638.051	7479.18
638.244	7210.9
638.438	6801.3
638.632	6696.86
638.825	6203.3
639.019	6014.88
639.212	5795.75
639.406	5623.72
639.599	5429.17
639.793	5132.21
639.986	4992.95
640.18	4878.26
640.373	4679.61
640.567	4399.04
640.76	4247.49
640.954	4171.71
641.147	3893.19
641.34	3672.01
641.534	3512.27
641.727	3596.23
641.92	3319.76
642.114	3172.3
642.307	3074
642.5	2969.55
642.694	2770.9
642.887	2713.56
643.08	2734.04
643.273	2731.99
643.467	2539.48
643.66	2242.53
643.853	2211.81
644.046	2281.44
644.239	2084.83
644.432	1945.57
644.626	1880.04
644.819	1828.84
645.012	1722.34
645.205	1808.36
645.398	1728.49
645.591	1484.78
645.784	1548.26
645.977	1425.39
646.17	1271.79
646.363	1329.13
646.556	1382.38
646.749	1191.92
646.942	1255.4
647.135	1193.97
647.328	1050.61
647.521	1103.86
647.714	1062.9
647.907	1030.13
648.099	868.34
648.292	948.21
648.485	821.24
648.678	845.81
648.871	761.84
649.064	827.38
649.256	749.56
649.449	681.97
649.642	583.67
649.835	669.69
650.027	671.73
650.22	684.02
650.413	569.34
650.605	608.25
650.798	522.23
650.991	505.85
651.183	516.09
651.376	518.14
651.568	518.14
651.761	423.93
651.954	540.66
652.146	428.03
652.339	518.14
652.531	573.43
652.724	419.83
652.916	354.3
653.109	290.81
653.301	438.27
653.494	473.08
653.686	331.77
653.879	532.47
654.071	352.25
654.263	221.18
654.456	272.38
654.648	352.25
654.84	370.68
655.033	284.67
655.225	346.11
655.417	190.46
655.61	354.3
655.802	292.86
655.994	393.21
656.186	274.43
656.379	237.56
656.571	182.27
656.763	174.08
656.955	245.76
657.148	215.04
657.34	323.58
657.532	231.42
657.724	174.08
657.916	260.09
658.108	276.48
658.3	241.66
658.492	256
658.684	126.97
658.876	206.84
659.068	14.34
659.26	133.12
659.452	83.97
659.644	235.52
659.836	253.95
660.028	178.17
660.22	34.82
660.412	155.65
660.604	139.26
660.796	102.4
660.988	188.41
661.18	165.89
661.372	149.5
661.563	155.65
661.755	126.97
661.947	2.05
662.139	86.01
662.331	67.58
662.522	110.59
662.714	102.4
662.906	122.88
663.097	120.83
663.289	137.21
663.481	63.49
663.673	61.44
663.864	100.35
664.056	157.69
664.247	141.31
664.439	239.61
664.631	165.89
664.822	94.21
665.014	137.21
665.205	67.58
665.397	98.3
665.588	59.39
665.78	129.02
665.971	147.45
666.163	92.16
666.354	55.3
666.546	22.53
666.737	96.25
666.929	108.54
667.12	75.77
667.311	188.41
667.503	83.97
667.694	153.6
667.885	96.25
668.077	124.93
668.268	51.2
668.459	131.07
668.651	147.45
668.842	88.06
669.033	90.11
669.224	-73.73
669.416	251.9
669.607	43.01
669.798	28.67
669.989	124.93
670.18	81.92
670.371	81.92
670.563	-18.43
670.754	120.83
670.945	155.65
671.136	57.34
671.327	114.69
671.518	172.03
671.709	165.89
671.9	190.46
672.091	120.83
672.282	-6.14
672.473	151.55
672.664	-14.34
672.855	51.2
673.046	79.87
673.237	112.64
673.428	108.54
673.619	108.54
673.809	92.16
674	161.79
674.191	149.5
674.382	40.96
674.573	124.93
674.764	75.77
674.954	157.69
675.145	83.97
675.336	47.1
675.527	98.3
675.717	30.72
675.908	47.1
676.099	151.55
676.289	88.06
676.48	-30.72
676.671	59.39
676.861	100.35
677.052	47.1
677.243	61.44
677.433	49.15
677.624	221.18
677.814	155.65
678.005	96.25
678.195	147.45
678.386	98.3
678.576	143.36
678.767	67.58
678.957	145.41
679.148	174.08
679.338	215.04
679.529	186.37
679.719	133.12
679.909	139.26
680.1	190.46
680.29	188.41
680.481	36.86
680.671	129.02
680.861	161.79
681.052	198.65
681.242	120.83
681.432	176.13
681.622	112.64
681.813	65.54
682.003	149.5
682.193	75.77
682.383	174.08
682.573	92.16
682.764	73.73
682.954	151.55
683.144	188.41
683.334	112.64
683.524	192.51
683.714	122.88
683.904	227.32
684.094	206.84
684.284	194.56
684.474	194.56
684.664	137.21
684.854	239.61
685.044	157.69
685.234	202.75
685.424	133.12
685.614	129.02
685.804	210.94
685.994	172.03
686.184	88.06
686.374	145.41
686.564	147.45
686.753	157.69
686.943	75.77
687.133	102.4
687.323	129.02
687.513	129.02
687.702	118.78
687.892	116.73
688.082	272.38
688.272	198.65
688.461	178.17
688.651	299
688.841	217.08
689.03	98.3
689.22	159.74
689.41	145.41
689.599	100.35
689.789	71.68
689.979	200.7
690.168	198.65
690.358	321.53
690.547	157.69
690.737	165.89
690.926	190.46
691.116	219.13
691.305	176.13
691.495	178.17
691.684	98.3
691.874	129.02
692.063	112.64
692.252	233.47
692.442	124.93
692.631	57.34
692.82	161.79
693.01	110.59
693.199	159.74
693.388	98.3
693.578	188.41
693.767	215.04
693.956	186.37
694.146	143.36
694.335	210.94
694.524	145.41
694.713	198.65
694.902	151.55
695.092	116.73
695.281	161.79
695.47	90.11
695.659	129.02
695.848	81.92
696.037	38.91
696.226	155.65
696.415	194.56
696.604	215.04
696.793	124.93
696.982	43.01
697.171	286.72
697.36	126.97
697.549	198.65
697.738	24.58
697.927	139.26
698.116	75.77
698.305	157.69
698.494	116.73
698.683	8.19
698.872	233.47
699.061	106.49
699.25	92.16
699.438	96.25
699.627	157.69
699.816	206.84
700.005	61.44
700.193	116.73
700.382	270.33
700.571	141.31
700.76	155.65
700.948	174.08
701.137	206.84
701.326	180.22
701.514	110.59
701.703	133.12
701.892	198.65
702.08	313.34
702.269	118.78
702.457	77.82
702.646	188.41
702.834	122.88
703.023	108.54
703.212	194.56
703.4	75.77
703.589	77.82
703.777	178.17
703.965	75.77
704.154	55.3
704.342	28.67
704.531	139.26
704.719	141.31
704.907	229.37
705.096	38.91
705.284	135.17
705.472	114.69
705.661	165.89
705.849	133.12
706.037	204.8
706.226	151.55
706.414	188.41
706.602	100.35
706.79	219.13
706.979	118.78
707.167	145.41
707.355	59.39
707.543	139.26
707.731	217.08
707.919	73.73
708.107	151.55
708.296	2.05
708.484	116.73
708.672	163.84
708.86	208.89
709.048	59.39
709.236	137.21
709.424	204.8
709.612	182.27
709.8	-32.77
709.988	172.03
710.176	227.32
710.364	268.28
710.551	90.11
710.739	217.08
710.927	221.18
711.115	71.68
711.303	163.84
711.491	212.99
711.679	110.59
711.866	251.9
712.054	120.83
712.242	202.75
712.43	131.07
712.617	143.36
712.805	223.23
712.993	180.22
713.181	24.58
713.368	186.37
713.556	100.35
713.744	129.02
713.931	296.96
714.119	202.75
714.306	157.69
714.494	153.6
714.682	176.13
714.869	36.86
715.057	98.3
715.244	83.97
715.432	133.12
715.619	90.11
715.807	116.73
715.994	114.69
716.182	188.41
716.369	239.61
716.556	116.73
716.744	75.77
716.931	36.86
717.119	149.5
717.306	67.58
717.493	196.61
717.681	51.2
717.868	96.25
718.055	219.13
718.242	163.84
718.43	172.03
718.617	237.56
718.804	165.89
718.991	303.1
719.179	188.41
719.366	219.13
719.553	145.41
719.74	159.74
719.927	174.08
720.114	157.69
720.301	114.69
720.488	110.59
720.676	120.83
720.863	190.46
721.05	309.24
721.237	131.07
721.424	290.81
721.611	217.08
721.798	161.79
721.985	182.27
722.172	194.56
722.358	165.89
722.545	251.9
722.732	249.85
722.919	206.84
723.106	129.02
723.293	135.17
723.48	178.17
723.667	169.98
723.853	190.46
724.04	278.52
724.227	262.14
724.414	223.23
724.6	278.52
724.787	262.14
724.974	274.43
725.161	137.21
725.347	133.12
725.534	204.8
725.72	256
725.907	169.98
726.094	188.41
726.28	120.83
726.467	161.79
726.653	108.54
726.84	243.71
727.027	346.11
727.213	241.66
727.4	204.8
727.586	247.8
727.773	157.69
727.959	227.32
728.145	239.61
728.332	120.83
728.518	157.69
728.705	247.8
728.891	290.81
729.077	223.23
729.264	182.27
729.45	237.56
729.636	264.19
729.823	202.75
730.009	233.47
730.195	237.56
730.382	290.81
730.568	184.32
730.754	231.42
730.94	219.13
731.126	258.04
731.313	210.94
731.499	190.46
731.685	251.9
731.871	227.32
732.057	215.04
732.243	280.57
732.429	241.66
732.615	337.91
732.801	256
732.987	200.7
733.173	301.05
733.359	225.28
733.545	264.19
733.731	204.8
733.917	370.68
734.103	350.2
734.289	247.8
734.475	190.46
734.661	342.01
734.847	245.76
735.033	319.48
735.219	327.67
735.404	215.04
735.59	165.89
735.776	186.37
735.962	280.57
736.148	305.15
736.333	272.38
736.519	227.32
736.705	288.76
736.89	245.76
737.076	296.96
737.262	247.8
737.447	212.99
737.633	239.61
737.819	266.24
738.004	309.24
738.19	313.34
738.375	247.8
738.561	282.62
738.747	309.24
738.932	133.12
739.118	319.48
739.303	288.76
739.489	231.42
739.674	225.28
739.859	182.27
740.045	288.76
740.23	305.15
740.416	75.77
740.601	303.1
740.786	165.89
740.972	159.74
741.157	266.24
741.342	143.36
741.528	169.98
741.713	342.01
741.898	223.23
742.084	258.04
742.269	165.89
742.454	210.94
742.639	309.24
742.824	266.24
743.01	309.24
743.195	389.11
743.38	227.32
743.565	292.86
743.75	286.72
743.935	278.52
744.12	339.96
744.305	188.41
744.49	165.89
744.675	247.8
744.86	208.89
745.045	184.32
745.23	280.57
745.415	260.09
745.6	311.29
745.785	161.79
745.97	276.48
746.155	221.18
746.34	172.03
746.525	227.32
746.71	360.44
746.895	124.93
747.079	129.02
747.264	229.37
747.449	260.09
747.634	276.48
747.819	253.95
748.003	247.8
748.188	141.31
748.373	235.52
748.557	235.52
748.742	212.99
748.927	221.18
749.111	233.47
749.296	206.84
749.481	247.8
749.665	165.89
749.85	176.13
750.034	215.04
750.219	268.28
750.404	206.84
750.588	124.93
750.773	135.17
750.957	282.62
751.141	133.12
751.326	215.04
751.51	169.98
751.695	167.93
751.879	180.22
752.064	282.62
752.248	174.08
752.432	256
752.617	163.84
752.801	169.98
752.985	88.06
753.17	204.8
753.354	247.8
753.538	194.56
753.722	96.25
753.907	137.21
754.091	88.06
754.275	264.19
754.459	122.88
754.643	178.17
754.828	120.83
755.012	206.84
755.196	65.54
755.38	163.84
755.564	149.5
755.748	88.06
755.932	231.42
756.116	161.79
756.3	133.12
756.484	92.16
756.668	206.84
756.852	77.82
757.036	190.46
757.22	124.93
757.404	153.6
757.588	114.69
757.772	153.6
757.956	198.65
758.14	311.29
758.323	106.49
758.507	163.84
758.691	155.65
758.875	190.46
759.059	178.17
759.242	126.97
759.426	184.32
759.61	88.06
759.794	90.11
759.977	141.31
760.161	315.39
760.345	231.42
760.528	116.73
760.712	157.69
760.895	210.94
761.079	131.07
761.263	43.01
761.446	18.43
761.63	81.92
761.813	163.84
761.997	98.3
762.18	79.87
762.364	172.03
762.547	100.35
762.731	71.68
762.914	104.45
763.098	81.92
763.281	126.97
763.464	-2.05
763.648	131.07
763.831	83.97
764.015	40.96
764.198	165.89
764.381	131.07
764.564	122.88
764.748	118.78
764.931	92.16
765.114	57.34
765.297	174.08
765.481	30.72
765.664	77.82
765.847	63.49
766.03	98.3
766.213	10.24
766.397	86.01
766.58	-2.05
766.763	153.6
766.946	96.25
767.129	6.14
767.312	38.91
767.495	20.48
767.678	34.82
767.861	86.01
768.044	194.56
768.227	157.69
768.41	2.05
768.593	51.2
768.776	135.17
768.959	22.53
769.142	126.97
769.324	57.34
769.507	98.3
769.69	104.45
769.873	71.68
770.056	135.17
770.239	-6.14
770.421	139.26
770.604	96.25
770.787	10.24
770.97	43.01
771.152	26.62
771.335	161.79
771.518	2.05
771.7	59.39
771.883	161.79
772.066	47.1
772.248	47.1
772.431	182.27
772.613	104.45
772.796	51.2
772.978	69.63
773.161	92.16
773.343	4.1
773.526	43.01
773.708	-38.91
773.891	-38.91
774.073	67.58
774.256	26.62
774.438	122.88
774.621	65.54
774.803	92.16
774.985	43.01
775.168	184.32
775.35	8.19
775.532	153.6
775.715	51.2
775.897	81.92
776.079	30.72
776.261	61.44
776.444	65.54
776.626	0
776.808	-4.1
776.99	28.67
777.173	22.53
777.355	16.38
777.537	92.16
777.719	63.49
777.901	40.96
778.083	38.91
778.265	-10.24
778.447	161.79
778.629	-38.91
778.811	53.25
778.993	69.63
779.175	126.97
779.357	75.77
779.539	-12.29
779.721	26.62
779.903	40.96
780.085	26.62
780.267	73.73
780.449	43.01
780.631	67.58
780.812	133.12
780.994	20.48
781.176	-26.62
781.358	34.82
781.54	73.73
781.721	139.26
781.903	153.6
782.085	2.05
782.267	145.41
782.448	-51.2
782.63	73.73
782.812	12.29
782.993	65.54
783.175	14.34
783.357	77.82
783.538	96.25
783.72	-51.2
783.901	-6.14
784.083	122.88
784.264	83.97
784.446	-34.82
784.627	-18.43
784.809	88.06
784.99	-14.34
785.172	40.96
785.353	10.24
785.535	43.01
785.716	-43.01
785.897	-6.14
786.079	10.24
786.26	77.82
786.441	133.12
786.623	-88.06
786.804	59.39
786.985	-28.67
787.167	63.49
787.348	0
787.529	18.43
787.71	172.03
787.891	61.44
788.073	-49.15
788.254	-79.87
788.435	118.78
788.616	108.54
788.797	-6.14
788.978	36.86
789.159	-30.72
789.34	110.59
789.522	-24.58
789.703	10.24
789.884	-16.38
790.065	-30.72
790.246	67.58
790.427	6.14
790.607	92.16
790.788	61.44
790.969	-22.53
791.15	122.88
791.331	-112.64
791.512	20.48
791.693	-8.19
791.874	51.2
792.054	163.84
792.235	26.62
792.416	-43.01
792.597	-63.49
792.778	26.62
792.958	43.01
793.139	49.15
793.32	59.39
793.5	-32.77
793.681	106.49
793.862	67.58
794.042	-8.19
794.223	-38.91
794.404	6.14
794.584	-129.02
794.765	-10.24
794.945	-8.19
795.126	40.96
795.306	110.59
795.487	38.91
795.667	-59.39
795.848	2.05
796.028	22.53
796.209	32.77
796.389	-8.19
796.57	-6.14
796.75	18.43
796.93	51.2
797.111	2.05
797.291	-22.53
797.471	36.86
797.652	-6.14
797.832	-8.19
798.012	126.97
798.192	16.38
798.373	-108.54
798.553	22.53
798.733	73.73
798.913	-59.39
799.093	-20.48
799.274	-63.49
799.454	59.39
799.634	161.79
799.814	59.39
799.994	67.58
800.174	-34.82
800.354	40.96
800.534	-96.25
800.714	88.06
800.894	-22.53
801.074	14.34
801.254	-34.82
801.434	63.49
801.614	-20.48
801.794	-12.29
801.974	1722.34
802.154	-6.14
802.334	75.77
802.514	-51.2
802.693	49.15
802.873	-51.2
803.053	90.11
803.233	53.25
803.413	-18.43
803.592	2.05
803.772	-88.06
803.952	-36.86
804.131	-153.6
804.311	59.39
804.491	45.06
804.67	-120.83
804.85	-8.19
805.03	-26.62
805.209	86.01
805.389	-34.82
805.568	-26.62
805.748	38.91
805.928	-47.1
806.107	83.97
806.287	40.96
806.466	-10.24
806.646	-98.3
806.825	49.15
807.004	-92.16
807.184	55.3
807.363	61.44
807.543	55.3
807.722	-81.92
807.901	63.49
808.081	34.82
808.26	-79.87
808.439	83.97
808.619	-73.73
808.798	-43.01
808.977	24.58
809.156	59.39
809.336	-26.62
809.515	81.92
809.694	-22.53
809.873	-120.83
810.052	61.44
810.231	51.2
810.411	-36.86
810.59	61.44
810.769	10.24
810.948	71.68
811.127	-67.58
811.306	-24.58
811.485	-86.01
811.664	198.65
811.843	-36.86
812.022	-16.38
812.201	10.24
812.38	-88.06
812.559	-2.05
812.737	0
812.916	-12.29
813.095	-30.72
813.274	57.34
813.453	-4.1
813.632	-16.38
813.811	104.45
813.989	-88.06
814.168	-81.92
814.347	-73.73
814.526	-14.34
814.704	24.58
814.883	47.1
815.062	-104.45
815.24	43.01
815.419	-57.34
815.598	-6.14
815.776	-88.06
815.955	30.72
816.133	-61.44
816.312	-88.06
816.49	18.43
816.669	6.14
816.847	-8.19
817.026	4.1
817.204	-81.92
817.383	-32.77
817.561	38.91
817.74	71.68
817.918	0
818.097	-43.01
818.275	-55.3
818.453	26.62
818.632	-14.34
818.81	-20.48
818.988	-83.97
819.167	12.29
819.345	2.05
819.523	-65.54
819.701	6.14
819.879	73.73
820.058	6.14
820.236	75.77
820.414	20.48
820.592	-38.91
820.77	-67.58
820.948	-59.39
821.127	-38.91
821.305	-16.38
821.483	-30.72
821.661	10.24
821.839	22.53
822.017	-14.34
822.195	-28.67
822.373	116.73
822.551	-30.72
822.729	83.97
822.907	34.82
823.085	2.05
823.262	-18.43
823.44	-75.77
823.618	34.82
823.796	-40.96
823.974	-110.59
824.152	-14.34
824.329	26.62
824.507	6.14
824.685	18.43
824.863	-51.2
825.04	-49.15
825.218	34.82
825.396	61.44
825.574	-16.38
825.751	-22.53
825.929	79.87
826.107	-2.05
826.284	-55.3
826.462	43.01
826.639	-81.92
826.817	0
826.994	-47.1
827.172	-86.01
827.349	94.21
827.527	-32.77
827.704	16.38
827.882	14.34
828.059	10.24
828.237	24.58
828.414	40.96
828.591	-104.45
828.769	-47.1
828.946	-98.3
829.124	67.58
829.301	73.73
829.478	-63.49
829.655	26.62
829.833	57.34
830.01	-143.36
830.187	-45.06
830.364	-30.72
830.542	14.34
830.719	77.82
830.896	63.49
831.073	14.34
831.25	79.87
831.427	10.24
831.604	-30.72
831.782	-49.15
831.959	-34.82
832.136	4.1
832.313	43.01
832.49	-6.14
832.667	18.43
832.844	-90.11
833.021	77.82
833.198	18.43
833.374	47.1
833.551	36.86
833.728	-55.3
833.905	36.86
834.082	-129.02
834.259	-14.34
834.436	43.01
834.612	-106.49
834.789	92.16
834.966	-51.2
835.143	36.86
835.319	-24.58
835.496	10.24
835.673	43.01
835.85	16.38
836.026	6.14
836.203	61.44
836.38	22.53
836.556	-55.3
836.733	-67.58
836.909	55.3
837.086	-51.2
837.262	-79.87
837.439	-47.1
837.616	-22.53
837.792	-63.49
837.968	-49.15
838.145	-145.41
838.321	-26.62
838.498	124.93
838.674	4.1
838.851	45.06
839.027	-38.91
839.203	-6.14
839.38	45.06
839.556	-26.62
839.732	55.3
839.909	-79.87
840.085	34.82
840.261	-55.3
840.437	-71.68
840.614	-79.87
840.79	59.39
840.966	38.91
841.142	-36.86
841.318	-122.88
841.494	14.34
841.671	83.97
841.847	-6.14
842.023	-155.65
842.199	53.25
842.375	57.34
842.551	-137.21
842.727	-57.34
842.903	143.36
843.079	-53.25
843.255	92.16
843.431	-34.82
843.607	0
843.783	-157.69
843.959	18.43
844.134	-59.39
844.31	71.68
844.486	-32.77
844.662	-77.82
844.838	-71.68
845.013	18.43
845.189	63.49
845.365	-18.43
845.541	32.77
845.716	-22.53
845.892	4.1
846.068	-26.62
846.244	-57.34
846.419	43.01
846.595	-83.97
846.77	-63.49
846.946	12.29
847.122	-6.14
847.297	18.43
847.473	108.54
847.648	-137.21
847.824	49.15
847.999	-114.69
848.175	-67.58
848.35	14.34
848.526	88.06
848.701	-10.24
848.876	16.38
849.052	14.34
849.227	-20.48
849.403	59.39
849.578	-14.34
849.753	-12.29
849.929	18.43
850.104	-108.54
850.279	-30.72
850.454	-47.1
850.63	36.86
850.805	-16.38
850.98	-4.1
851.155	-18.43
851.33	67.58
851.505	-124.93
851.681	96.25
851.856	-20.48
852.031	18.43
852.206	-22.53
852.381	-14.34
852.556	16.38
852.731	-43.01
852.906	75.77
853.081	-6.14
853.256	63.49
853.431	-26.62
853.606	-53.25
853.781	-75.77
853.956	-30.72
854.131	32.77
854.305	-67.58
854.48	-100.35
854.655	-53.25
854.83	-30.72
855.005	-79.87
855.18	-47.1
855.354	-81.92
855.529	-2.05
855.704	-57.34
855.879	2.05
856.053	-14.34
856.228	-32.77
856.403	-22.53
856.577	-16.38
856.752	-57.34
856.926	-6.14
857.101	45.06
857.276	-61.44
857.45	83.97
857.625	4.1
857.799	2.05
857.974	20.48
858.148	-137.21
858.323	-51.2
858.497	-71.68
858.672	-40.96
858.846	-104.45
859.02	-14.34
859.195	-63.49
859.369	-59.39
859.543	-22.53
859.718	-14.34
859.892	30.72
860.066	14.34
860.241	-83.97
860.415	20.48
860.589	-22.53
860.763	-98.3
860.938	83.97
861.112	-30.72
861.286	2.05
861.46	-40.96
861.634	-30.72
861.808	63.49
861.982	-34.82
862.157	-26.62
862.331	-28.67
862.505	-73.73
862.679	-34.82
862.853	-32.77
863.027	-79.87
863.201	116.73
863.375	-34.82
863.549	-18.43
863.722	14.34
863.896	65.54
864.07	-112.64
864.244	-22.53
864.418	4.1
864.592	43.01
864.766	-40.96
864.939	51.2
865.113	-75.77
865.287	71.68
865.461	-88.06
865.634	-16.38
865.808	-71.68
865.982	16.38
866.156	-24.58
866.329	-71.68
866.503	18.43
866.676	81.92
866.85	98.3
867.024	-55.3
867.197	-16.38
867.371	38.91
867.544	-14.34
867.718	-59.39
867.891	36.86
868.065	-75.77
868.238	-43.01
868.412	40.96
868.585	63.49
868.759	-63.49
868.932	-14.34
869.105	0
869.279	73.73
869.452	-92.16
869.625	24.58
869.799	-81.92
869.972	-104.45
870.145	-67.58
870.319	-6.14
870.492	-133.12
870.665	-49.15
870.838	-28.67
871.011	-116.73
871.185	-65.54
871.358	24.58
871.531	26.62
871.704	8.19
871.877	-22.53
872.05	-16.38
872.223	-18.43
872.396	26.62
872.569	8.19
872.742	-94.21
872.915	71.68
873.088	-59.39
873.261	-28.67
873.434	75.77
873.607	-43.01
873.78	40.96
873.953	-139.26
874.126	-30.72
874.299	-26.62
874.471	-65.54
874.644	-18.43
874.817	26.62
874.99	155.65
875.163	-53.25
875.335	-38.91
875.508	-18.43
875.681	8.19
875.853	-63.49
876.026	49.15
876.199	12.29
876.371	-57.34
876.544	22.53
876.717	-61.44
876.889	-12.29
877.062	32.77
877.234	-90.11
877.407	-6.14
877.579	-24.58
877.752	55.3
877.924	94.21
878.097	10.24
878.269	4.1
878.442	-43.01
878.614	10.24
878.786	-10.24
878.959	-38.91
879.131	20.48
879.303	-129.02
879.476	-45.06
879.648	51.2
879.82	-2.05
879.993	-12.29
880.165	26.62
880.337	-77.82
880.509	-2.05
880.681	-108.54
880.854	-65.54
881.026	12.29
881.198	116.73
881.37	18.43
881.542	-65.54
881.714	-55.3
881.886	-14.34
882.058	-49.15
882.23	38.91
882.402	26.62
882.574	-2.05
882.746	83.97
882.918	-24.58
883.09	114.69
883.262	-36.86
883.434	-38.91
883.606	-67.58
883.778	20.48
883.95	69.63
884.122	12.29
884.293	43.01
884.465	-65.54
884.637	83.97
884.809	-71.68
884.98	-14.34
885.152	24.58
885.324	67.58
885.496	-32.77
885.667	-137.21
885.839	-73.73
886.011	57.34
886.182	-28.67
886.354	-2.05
886.525	-2.05
886.697	14.34
886.869	-129.02
887.04	-14.34
887.212	26.62
887.383	135.17
887.555	47.1
887.726	-18.43
887.897	-69.63
888.069	71.68
888.24	65.54
888.412	-24.58
888.583	-83.97
888.754	-40.96
888.926	-118.78
889.097	30.72
889.268	-94.21
889.44	51.2
889.611	-96.25
889.782	-124.93
889.953	-147.45
890.125	45.06
890.296	-120.83
890.467	-16.38
890.638	-116.73
890.809	-30.72
890.98	-77.82
891.151	36.86
891.323	38.91
891.494	-16.38
891.665	32.77
891.836	-16.38
892.007	10.24
892.178	-10.24
892.349	-20.48
892.52	-65.54
892.691	-73.73
892.862	-100.35
893.032	-88.06
893.203	-67.58
893.374	-14.34
893.545	32.77
893.716	-63.49
893.887	24.58
894.057	-43.01
894.228	-16.38
894.399	-88.06
894.57	49.15
894.74	47.1
894.911	-14.34
895.082	-63.49
895.253	-88.06
895.423	-30.72
895.594	45.06
895.764	8.19
895.935	-59.39
896.106	73.73
896.276	-63.49
896.447	-63.49
896.617	-75.77
896.788	-32.77
896.958	-53.25
897.129	-88.06
897.299	-55.3
897.47	100.35
897.64	-18.43
897.81	-8.19
897.981	53.25
898.151	-120.83
898.322	-20.48
898.492	14.34
898.662	-94.21
898.832	-53.25
899.003	-22.53
899.173	24.58
899.343	-100.35
899.513	-124.93
