Data from USB4F104151__68__10-31-47-552.txt Node

Date: Wed Feb 26 10:31:47 EST 2025
User: louis
Spectrometer: USB4F10415
Trigger mode: 4
Integration Time (sec): 1.000000E-1
Scans to average: 1
Electric dark correction enabled: true
Nonlinearity correction enabled: false
Boxcar width: 0
XAxis mode: Wavelengths
Number of Pixels in Spectrum: 3648
>>>>>Begin Spectral Data<<<<<
178.204	-402.6
178.424	-402.6
178.644	-402.6
178.864	-455.84
179.084	-388.26
179.304	33.62
179.524	-29.87
179.744	19.29
179.964	78.68
180.184	-42.15
180.404	-70.83
180.624	-97.45
180.844	88.92
181.064	-72.87
181.283	27.48
181.503	-25.77
181.723	90.96
181.943	-81.07
182.163	148.31
182.383	23.38
182.602	-17.58
182.822	95.06
183.042	95.06
183.262	-68.78
183.482	-38.06
183.701	45.91
183.921	25.43
184.141	-13.48
184.361	99.16
184.58	93.01
184.8	64.34
185.02	29.52
185.239	170.83
185.459	115.54
185.679	113.49
185.898	-60.59
186.118	4.95
186.338	115.54
186.557	113.49
186.777	-58.54
186.997	-11.43
187.216	117.59
187.436	193.36
187.655	72.53
187.875	99.16
188.095	74.58
188.314	131.92
188.534	131.92
188.753	2.9
188.973	123.73
189.192	176.98
189.412	4.95
189.631	0.85
189.851	31.57
190.07	136.02
190.29	-81.07
190.509	-56.49
190.729	80.72
190.948	138.07
191.168	209.75
191.387	90.96
191.607	27.48
191.826	162.64
192.045	-27.82
192.265	-7.34
192.484	133.97
192.704	0.85
192.923	-117.93
193.142	191.31
193.362	101.2
193.581	113.49
193.8	50
194.02	7
194.239	-1.19
194.458	97.11
194.678	-1.19
194.897	-29.87
195.116	64.34
195.335	115.54
195.555	64.34
195.774	4.95
195.993	99.16
196.212	-3.24
196.432	13.14
196.651	-17.58
196.87	31.57
197.089	209.75
197.308	41.81
197.528	166.74
197.747	-56.49
197.966	101.2
198.185	127.83
198.404	2.9
198.623	90.96
198.842	150.36
199.062	88.92
199.281	64.34
199.5	45.91
199.719	121.68
199.938	68.44
200.157	-44.2
200.376	86.87
200.595	82.77
200.814	45.91
201.033	17.24
201.252	138.07
201.471	142.16
201.69	-33.96
201.909	62.29
202.128	86.87
202.347	45.91
202.566	80.72
202.785	-56.49
203.004	-52.39
203.223	222.03
203.442	56.15
203.661	-25.77
203.879	125.78
204.098	142.16
204.317	2.9
204.536	127.83
204.755	113.49
204.974	133.97
205.193	11.09
205.411	101.2
205.63	117.59
205.849	133.97
206.068	56.15
206.287	31.57
206.505	226.13
206.724	4.95
206.943	-79.02
207.162	-9.39
207.381	95.06
207.599	7
207.818	13.14
208.037	66.39
208.255	56.15
208.474	39.76
208.693	82.77
208.911	-17.58
209.13	127.83
209.349	90.96
209.567	70.48
209.786	150.36
210.005	105.3
210.223	76.63
210.442	-64.68
210.661	64.34
210.879	95.06
211.098	4.95
211.316	99.16
211.535	121.68
211.753	99.16
211.972	19.29
212.191	-5.29
212.409	60.24
212.628	58.2
212.846	-13.48
213.065	31.57
213.283	136.02
213.502	11.09
213.72	78.68
213.938	86.87
214.157	-15.53
214.375	119.64
214.594	35.67
214.812	27.48
215.031	35.67
215.249	-52.39
215.467	101.2
215.686	33.62
215.904	70.48
216.122	11.09
216.341	160.59
216.559	66.39
216.778	95.06
216.996	144.21
217.214	52.05
217.432	-66.73
217.651	-68.78
217.869	62.29
218.087	21.33
218.306	39.76
218.524	21.33
218.742	54.1
218.96	15.19
219.179	31.57
219.397	27.48
219.615	170.83
219.833	138.07
220.051	-15.53
220.27	47.96
220.488	47.96
220.706	74.58
220.924	86.87
221.142	-58.54
221.36	62.29
221.578	45.91
221.796	60.24
222.015	84.82
222.233	39.76
222.451	150.36
222.669	-25.77
222.887	43.86
223.105	39.76
223.323	64.34
223.541	-29.87
223.759	68.44
223.977	103.25
224.195	201.55
224.413	52.05
224.631	19.29
224.849	23.38
225.067	176.98
225.285	-17.58
225.503	70.48
225.721	-81.07
225.939	54.1
226.157	70.48
226.375	242.51
226.592	-40.11
226.81	41.81
227.028	74.58
227.246	123.73
227.464	90.96
227.682	117.59
227.9	97.11
228.117	54.1
228.335	76.63
228.553	78.68
228.771	45.91
228.989	56.15
229.206	66.39
229.424	11.09
229.642	66.39
229.86	25.43
230.077	160.59
230.295	7
230.513	93.01
230.731	19.29
230.948	152.4
231.166	217.94
231.384	72.53
231.601	9.05
231.819	179.03
232.037	-119.98
232.254	2.9
232.472	-1.19
232.689	76.63
232.907	17.24
233.125	9.05
233.342	-21.67
233.56	66.39
233.777	45.91
233.995	9.05
234.213	2.9
234.43	148.31
234.648	52.05
234.865	-31.91
235.083	23.38
235.3	54.1
235.518	17.24
235.735	33.62
235.953	97.11
236.17	37.72
236.388	56.15
236.605	-3.24
236.822	131.92
237.04	29.52
237.257	131.92
237.475	-56.49
237.692	41.81
237.909	115.54
238.127	25.43
238.344	136.02
238.562	93.01
238.779	-40.11
238.996	11.09
239.214	39.76
239.431	127.83
239.648	-11.43
239.865	62.29
240.083	156.5
240.3	-40.11
240.517	-79.02
240.735	23.38
240.952	84.82
241.169	31.57
241.386	78.68
241.603	58.2
241.821	-46.25
242.038	105.3
242.255	72.53
242.472	-23.72
242.689	123.73
242.907	107.35
243.124	78.68
243.341	-50.35
243.558	9.05
243.775	-40.11
243.992	54.1
244.209	127.83
244.426	154.45
244.643	25.43
244.86	76.63
245.078	107.35
245.295	60.24
245.512	-29.87
245.729	-42.15
245.946	123.73
246.163	21.33
246.38	-60.59
246.597	60.24
246.814	60.24
247.031	0.85
247.248	9.05
247.464	78.68
247.681	7
247.898	105.3
248.115	54.1
248.332	-13.48
248.549	76.63
248.766	156.5
248.983	117.59
249.2	54.1
249.417	113.49
249.633	2.9
249.85	115.54
250.067	4.95
250.284	52.05
250.501	52.05
250.717	-11.43
250.934	4.95
251.151	35.67
251.368	78.68
251.585	103.25
251.801	56.15
252.018	-27.82
252.235	84.82
252.451	-27.82
252.668	2.9
252.885	138.07
253.102	131.92
253.318	33.62
253.535	64.34
253.752	56.15
253.968	13.14
254.185	-58.54
254.401	88.92
254.618	101.2
254.835	13.14
255.051	80.72
255.268	70.48
255.484	76.63
255.701	86.87
255.917	129.88
256.134	-1.19
256.351	50
256.567	-36.01
256.784	58.2
257	-9.39
257.217	117.59
257.433	131.92
257.65	54.1
257.866	156.5
258.082	31.57
258.299	15.19
258.515	33.62
258.732	74.58
258.948	-60.59
259.165	60.24
259.381	-54.44
259.597	123.73
259.814	95.06
260.03	17.24
260.246	52.05
260.463	111.44
260.679	105.3
260.895	60.24
261.112	54.1
261.328	-13.48
261.544	25.43
261.761	142.16
261.977	-13.48
262.193	-50.35
262.409	125.78
262.626	31.57
262.842	15.19
263.058	-21.67
263.274	95.06
263.49	47.96
263.707	133.97
263.923	52.05
264.139	-70.83
264.355	50
264.571	154.45
264.787	29.52
265.004	168.79
265.22	25.43
265.436	-7.34
265.652	88.92
265.868	64.34
266.084	-85.16
266.3	78.68
266.516	-42.15
266.732	109.4
266.948	23.38
267.164	-40.11
267.38	144.21
267.596	33.62
267.812	158.55
268.028	86.87
268.244	11.09
268.46	70.48
268.676	33.62
268.892	41.81
269.108	21.33
269.324	-74.92
269.54	-23.72
269.756	119.64
269.972	23.38
270.188	0.85
270.403	45.91
270.619	27.48
270.835	164.69
271.051	64.34
271.267	-15.53
271.483	11.09
271.698	111.44
271.914	70.48
272.13	43.86
272.346	-93.35
272.562	115.54
272.777	136.02
272.993	17.24
273.209	-5.29
273.425	60.24
273.64	29.52
273.856	25.43
274.072	-19.63
274.287	2.9
274.503	146.26
274.719	127.83
274.934	72.53
275.15	-3.24
275.366	109.4
275.581	-13.48
275.797	33.62
276.012	21.33
276.228	-3.24
276.444	78.68
276.659	117.59
276.875	-56.49
277.09	115.54
277.306	93.01
277.521	72.53
277.737	74.58
277.952	146.26
278.168	35.67
278.383	54.1
278.599	154.45
278.814	82.77
279.03	-29.87
279.245	105.3
279.461	-19.63
279.676	138.07
279.892	0.85
280.107	-52.39
280.322	0.85
280.538	78.68
280.753	-48.3
280.969	56.15
281.184	99.16
281.399	131.92
281.615	-21.67
281.83	27.48
282.045	-91.31
282.26	43.86
282.476	37.72
282.691	105.3
282.906	68.44
283.122	78.68
283.337	-50.35
283.552	78.68
283.767	50
283.983	88.92
284.198	72.53
284.413	31.57
284.628	-58.54
284.843	4.95
285.058	86.87
285.274	-1.19
285.489	-29.87
285.704	37.72
285.919	-5.29
286.134	17.24
286.349	25.43
286.564	17.24
286.779	86.87
286.995	39.76
287.21	-48.3
287.425	86.87
287.64	-29.87
287.855	80.72
288.07	39.76
288.285	72.53
288.5	117.59
288.715	119.64
288.93	-25.77
289.145	-25.77
289.36	123.73
289.575	-42.15
289.79	78.68
290.004	76.63
290.219	68.44
290.434	-21.67
290.649	29.52
290.864	33.62
291.079	82.77
291.294	107.35
291.509	70.48
291.724	-17.58
291.938	4.95
292.153	150.36
292.368	52.05
292.583	74.58
292.798	115.54
293.012	64.34
293.227	99.16
293.442	-46.25
293.657	125.78
293.871	133.97
294.086	80.72
294.301	156.5
294.516	160.59
294.73	109.4
294.945	29.52
295.16	101.2
295.374	125.78
295.589	82.77
295.804	-25.77
296.018	-25.77
296.233	97.11
296.447	41.81
296.662	17.24
296.877	127.83
297.091	43.86
297.306	13.14
297.52	56.15
297.735	50
297.949	25.43
298.164	-48.3
298.378	45.91
298.593	11.09
298.807	25.43
299.022	58.2
299.236	136.02
299.451	2.9
299.665	39.76
299.88	60.24
300.094	109.4
300.309	43.86
300.523	113.49
300.737	-5.29
300.952	-5.29
301.166	39.76
301.381	4.95
301.595	-19.63
301.809	21.33
302.024	50
302.238	-40.11
302.452	68.44
302.667	66.39
302.881	174.93
303.095	52.05
303.309	70.48
303.524	-21.67
303.738	15.19
303.952	25.43
304.166	123.73
304.381	-97.45
304.595	74.58
304.809	-17.58
305.023	43.86
305.237	33.62
305.452	25.43
305.666	176.98
305.88	95.06
306.094	101.2
306.308	76.63
306.522	72.53
306.736	144.21
306.95	54.1
307.164	45.91
307.379	-54.44
307.593	115.54
307.807	101.2
308.021	138.07
308.235	74.58
308.449	-40.11
308.663	-7.34
308.877	144.21
309.091	56.15
309.305	50
309.519	-83.11
309.733	80.72
309.947	21.33
310.161	41.81
310.374	146.26
310.588	111.44
310.802	-40.11
311.016	-44.2
311.23	37.72
311.444	52.05
311.658	11.09
311.872	117.59
312.085	86.87
312.299	158.55
312.513	115.54
312.727	43.86
312.941	54.1
313.154	105.3
313.368	45.91
313.582	84.82
313.796	56.15
314.009	21.33
314.223	117.59
314.437	19.29
314.651	88.92
314.864	-58.54
315.078	15.19
315.292	-29.87
315.505	68.44
315.719	19.29
315.933	39.76
316.146	35.67
316.36	-50.35
316.573	103.25
316.787	-15.53
317.001	93.01
317.214	29.52
317.428	109.4
317.641	78.68
317.855	31.57
318.068	-13.48
318.282	58.2
318.495	215.89
318.709	58.2
318.922	21.33
319.136	193.36
319.349	74.58
319.563	-11.43
319.776	172.88
319.99	-79.02
320.203	97.11
320.417	125.78
320.63	37.72
320.843	195.41
321.057	13.14
321.27	9.05
321.483	80.72
321.697	78.68
321.91	27.48
322.124	142.16
322.337	31.57
322.55	-74.92
322.763	64.34
322.977	66.39
323.19	29.52
323.403	41.81
323.617	123.73
323.83	146.26
324.043	39.76
324.256	68.44
324.469	-107.69
324.683	144.21
324.896	-7.34
325.109	39.76
325.322	-50.35
325.535	107.35
325.748	162.64
325.962	23.38
326.175	103.25
326.388	58.2
326.601	50
326.814	13.14
327.027	125.78
327.24	191.31
327.453	-144.55
327.666	29.52
327.879	152.4
328.092	66.39
328.305	-7.34
328.518	19.29
328.731	-13.48
328.944	29.52
329.157	103.25
329.37	-11.43
329.583	195.41
329.796	183.12
330.009	-19.63
330.222	125.78
330.435	129.88
330.648	27.48
330.861	7
331.073	19.29
331.286	117.59
331.499	-5.29
331.712	45.91
331.925	19.29
332.138	-85.16
332.35	11.09
332.563	2.9
332.776	103.25
332.989	-46.25
333.202	54.1
333.414	56.15
333.627	58.2
333.84	25.43
334.053	31.57
334.265	111.44
334.478	-44.2
334.691	119.64
334.903	15.19
335.116	-50.35
335.329	-17.58
335.541	90.96
335.754	113.49
335.966	-17.58
336.179	41.81
336.392	-19.63
336.604	133.97
336.817	125.78
337.029	99.16
337.242	54.1
337.454	47.96
337.667	7
337.88	115.54
338.092	115.54
338.305	109.4
338.517	72.53
338.729	150.36
338.942	103.25
339.154	-119.98
339.367	-29.87
339.579	97.11
339.792	-19.63
340.004	-38.06
340.217	35.67
340.429	127.83
340.641	-31.91
340.854	-70.83
341.066	-36.01
341.278	156.5
341.491	119.64
341.703	82.77
341.915	31.57
342.128	72.53
342.34	23.38
342.552	-19.63
342.764	58.2
342.977	-19.63
343.189	37.72
343.401	74.58
343.613	-17.58
343.826	50
344.038	-31.91
344.25	56.15
344.462	78.68
344.674	50
344.886	-29.87
345.099	68.44
345.311	78.68
345.523	11.09
345.735	-72.87
345.947	103.25
346.159	35.67
346.371	82.77
346.583	29.52
346.795	179.03
347.007	-31.91
347.219	66.39
347.431	0.85
347.643	88.92
347.855	15.19
348.067	103.25
348.279	-3.24
348.491	52.05
348.703	115.54
348.915	-62.63
349.127	-33.96
349.339	80.72
349.551	-23.72
349.763	37.72
349.975	-38.06
350.187	115.54
350.399	201.55
350.61	131.92
350.822	-44.2
351.034	172.88
351.246	109.4
351.458	86.87
351.669	9.05
351.881	113.49
352.093	158.55
352.305	150.36
352.517	88.92
352.728	99.16
352.94	107.35
353.152	39.76
353.363	-56.49
353.575	-11.43
353.787	125.78
353.999	72.53
354.21	191.31
354.422	-31.91
354.633	74.58
354.845	56.15
355.057	58.2
355.268	97.11
355.48	80.72
355.692	-58.54
355.903	43.86
356.115	19.29
356.326	17.24
356.538	213.84
356.749	103.25
356.961	140.12
357.172	68.44
357.384	-70.83
357.595	181.07
357.807	-33.96
358.018	99.16
358.23	56.15
358.441	197.46
358.653	113.49
358.864	43.86
359.075	-11.43
359.287	37.72
359.498	74.58
359.709	50
359.921	103.25
360.132	27.48
360.344	62.29
360.555	-54.44
360.766	52.05
360.977	21.33
361.189	136.02
361.4	-5.29
361.611	72.53
361.823	62.29
362.034	86.87
362.245	-3.24
362.456	80.72
362.667	60.24
362.879	-64.68
363.09	62.29
363.301	84.82
363.512	86.87
363.723	-66.73
363.935	68.44
364.146	17.24
364.357	129.88
364.568	99.16
364.779	-40.11
364.99	142.16
365.201	-15.53
365.412	140.12
365.623	-50.35
365.834	148.31
366.045	103.25
366.256	82.77
366.467	93.01
366.678	0.85
366.889	4.95
367.1	13.14
367.311	115.54
367.522	-38.06
367.733	72.53
367.944	70.48
368.155	78.68
368.366	72.53
368.577	107.35
368.788	125.78
368.999	2.9
369.209	88.92
369.42	201.55
369.631	199.51
369.842	119.64
370.053	25.43
370.264	80.72
370.474	-48.3
370.685	121.68
370.896	41.81
371.107	76.63
371.317	111.44
371.528	21.33
371.739	148.31
371.95	136.02
372.16	41.81
372.371	-70.83
372.582	-1.19
372.792	97.11
373.003	50
373.214	66.39
373.424	99.16
373.635	-48.3
373.846	131.92
374.056	88.92
374.267	115.54
374.477	7
374.688	-9.39
374.898	54.1
375.109	50
375.319	99.16
375.53	113.49
375.74	95.06
375.951	35.67
376.161	41.81
376.372	99.16
376.582	45.91
376.793	82.77
377.003	-68.78
377.214	35.67
377.424	45.91
377.635	52.05
377.845	2.9
378.055	111.44
378.266	-72.87
378.476	39.76
378.686	64.34
378.897	90.96
379.107	127.83
379.317	86.87
379.528	78.68
379.738	140.12
379.948	-52.39
380.158	121.68
380.369	0.85
380.579	105.3
380.789	62.29
380.999	107.35
381.21	64.34
381.42	166.74
381.63	17.24
381.84	123.73
382.05	27.48
382.261	179.03
382.471	107.35
382.681	27.48
382.891	176.98
383.101	80.72
383.311	-33.96
383.521	-25.77
383.731	58.2
383.941	113.49
384.151	31.57
384.361	29.52
384.571	76.63
384.781	78.68
384.991	269.14
385.201	111.44
385.411	185.17
385.621	76.63
385.831	70.48
386.041	86.87
386.251	50
386.461	162.64
386.671	-3.24
386.881	9.05
387.091	23.38
387.301	19.29
387.511	21.33
387.72	101.2
387.93	150.36
388.14	-17.58
388.35	66.39
388.56	21.33
388.769	90.96
388.979	113.49
389.189	-23.72
389.399	29.52
389.609	164.69
389.818	144.21
390.028	146.26
390.238	148.31
390.447	47.96
390.657	82.77
390.867	-13.48
391.076	-64.68
391.286	78.68
391.496	50
391.705	31.57
391.915	140.12
392.125	66.39
392.334	37.72
392.544	93.01
392.753	41.81
392.963	41.81
393.172	45.91
393.382	29.52
393.591	146.26
393.801	15.19
394.01	154.45
394.22	103.25
394.429	9.05
394.639	86.87
394.848	119.64
395.058	54.1
395.267	76.63
395.477	66.39
395.686	47.96
395.895	205.65
396.105	166.74
396.314	58.2
396.524	33.62
396.733	95.06
396.942	123.73
397.152	50
397.361	64.34
397.57	29.52
397.78	62.29
397.989	88.92
398.198	199.51
398.407	52.05
398.617	17.24
398.826	84.82
399.035	-29.87
399.244	78.68
399.453	0.85
399.663	86.87
399.872	39.76
400.081	0.85
400.29	117.59
400.499	13.14
400.708	111.44
400.917	58.2
401.127	64.34
401.336	62.29
401.545	183.12
401.754	31.57
401.963	109.4
402.172	0.85
402.381	-15.53
402.59	41.81
402.799	60.24
403.008	146.26
403.217	64.34
403.426	60.24
403.635	-68.78
403.844	-44.2
404.053	0.85
404.262	31.57
404.471	164.69
404.68	127.83
404.888	107.35
405.097	74.58
405.306	113.49
405.515	70.48
405.724	58.2
405.933	66.39
406.142	90.96
406.35	109.4
406.559	45.91
406.768	13.14
406.977	203.6
407.185	64.34
407.394	99.16
407.603	-48.3
407.812	35.67
408.02	109.4
408.229	-3.24
408.438	105.3
408.646	-17.58
408.855	58.2
409.064	66.39
409.272	86.87
409.481	82.77
409.69	-58.54
409.898	15.19
410.107	29.52
410.315	105.3
410.524	62.29
410.733	50
410.941	80.72
411.15	103.25
411.358	82.77
411.567	78.68
411.775	127.83
411.984	-3.24
412.192	74.58
412.401	-46.25
412.609	99.16
412.818	168.79
413.026	66.39
413.234	29.52
413.443	58.2
413.651	60.24
413.86	131.92
414.068	131.92
414.276	164.69
414.485	78.68
414.693	203.6
414.901	232.27
415.11	109.4
415.318	-1.19
415.526	66.39
415.734	33.62
415.943	129.88
416.151	158.55
416.359	66.39
416.567	105.3
416.776	136.02
416.984	99.16
417.192	179.03
417.4	41.81
417.608	39.76
417.817	15.19
418.025	117.59
418.233	148.31
418.441	2.9
418.649	-17.58
418.857	78.68
419.065	158.55
419.273	-23.72
419.481	56.15
419.689	52.05
419.897	64.34
420.105	-60.59
420.313	76.63
420.521	156.5
420.729	93.01
420.937	-27.82
421.145	9.05
421.353	111.44
421.561	41.81
421.769	60.24
421.977	15.19
422.185	144.21
422.393	-5.29
422.601	158.55
422.809	131.92
423.017	74.58
423.224	50
423.432	136.02
423.64	97.11
423.848	172.88
424.056	-64.68
424.263	90.96
424.471	25.43
424.679	136.02
424.887	-97.45
425.094	144.21
425.302	47.96
425.51	-56.49
425.718	152.4
425.925	80.72
426.133	-42.15
426.341	158.55
426.548	43.86
426.756	54.1
426.964	123.73
427.171	19.29
427.379	80.72
427.586	19.29
427.794	123.73
428.001	158.55
428.209	-25.77
428.417	170.83
428.624	70.48
428.832	129.88
429.039	52.05
429.247	33.62
429.454	72.53
429.662	58.2
429.869	142.16
430.076	54.1
430.284	125.78
430.491	172.88
430.699	97.11
430.906	238.42
431.114	109.4
431.321	84.82
431.528	47.96
431.736	68.44
431.943	60.24
432.15	123.73
432.358	195.41
432.565	306
432.772	11.09
432.979	193.36
433.187	93.01
433.394	164.69
433.601	27.48
433.808	170.83
434.016	242.51
434.223	191.31
434.43	158.55
434.637	189.27
434.844	244.56
435.052	181.07
435.259	176.98
435.466	179.03
435.673	250.71
435.88	252.75
436.087	299.86
436.294	273.23
436.501	191.31
436.708	117.59
436.915	275.28
437.122	248.66
437.329	209.75
437.537	260.95
437.743	297.81
437.95	328.53
438.157	277.33
438.364	324.43
438.571	367.44
438.778	351.06
438.985	314.19
439.192	430.93
439.399	355.15
439.606	410.45
439.813	478.03
440.02	457.55
440.227	621.39
440.433	484.17
440.64	473.93
440.847	346.96
441.054	471.89
441.261	545.61
441.467	568.14
441.674	492.37
441.881	566.09
442.088	535.37
442.294	555.85
442.501	590.67
442.708	648.01
442.914	570.19
443.121	629.58
443.328	639.82
443.534	711.5
443.741	713.55
443.948	590.67
444.154	770.89
444.361	858.95
444.568	811.85
444.774	832.33
444.981	697.16
445.187	942.92
445.394	875.34
445.6	807.75
445.807	1002.31
446.013	936.78
446.22	920.39
446.426	1071.94
446.633	1188.68
446.839	1284.93
447.046	1026.89
447.252	1231.68
447.459	1162.05
447.665	1235.78
447.871	1299.27
448.078	1553.21
448.284	1381.18
448.491	1389.38
448.697	1688.38
448.903	1637.18
449.11	1676.09
449.316	1526.59
449.522	1770.3
449.728	2003.77
449.935	1887.03
450.141	1938.23
450.347	2122.55
450.553	2009.91
450.76	2106.17
450.966	2298.67
451.172	2151.22
451.378	2403.12
451.584	2376.5
451.791	2603.82
451.997	2601.77
452.203	2560.81
452.409	2728.75
452.615	2962.22
452.821	2874.15
453.027	2763.56
453.233	3468.06
453.44	3101.48
453.646	3316.51
453.852	3443.49
454.058	3498.78
454.264	3748.64
454.47	3869.47
454.676	4068.12
454.882	4440.85
455.088	4238.1
455.294	4520.72
455.5	4635.41
455.705	4813.58
455.911	4942.6
456.117	5051.14
456.323	5309.19
456.529	5198.6
456.735	5714.69
456.941	5698.3
457.147	6148.86
457.352	6222.58
457.558	6458.1
457.764	6922.99
457.97	6896.36
458.176	7197.42
458.381	7613.15
458.587	7731.94
458.793	7955.16
458.999	8202.97
459.204	9044.68
459.41	9413.32
459.616	9398.98
459.821	9710.27
460.027	10195.64
460.233	10822.32
460.438	10568.37
460.644	11389.61
460.85	11297.45
461.055	11989.66
461.261	12573.33
461.466	12223.13
461.672	12305.05
461.878	13828.74
462.083	13859.46
462.289	13920.9
462.494	14566.01
462.7	14727.8
462.905	15131.25
463.111	16054.88
463.316	16941.65
463.522	17250.89
463.727	17599.05
463.932	18514.49
464.138	18901.56
464.343	19681.83
464.549	19905.06
464.754	21840.39
464.959	21936.65
465.165	22184.45
465.37	22325.76
465.575	22112.77
465.781	23536.11
465.986	24519.14
466.191	24074.73
466.397	24218.08
466.602	23474.67
466.807	24691.16
467.012	25688.53
467.218	25835.98
467.423	26153.41
467.628	26386.88
467.833	28205.48
468.038	27355.57
468.244	26751.42
468.449	28443.04
468.654	27648.43
468.859	27890.09
469.064	27666.86
469.269	27326.9
469.474	27429.3
469.679	28037.55
469.885	27439.54
470.09	27609.52
470.295	27886
470.5	27380.15
470.705	27324.85
470.91	26874.3
471.115	26249.67
471.32	26933.69
471.525	26659.26
471.73	26036.68
471.935	25921.99
472.139	24607.2
472.344	24662.49
472.549	24582.62
472.754	24175.08
472.959	23640.56
473.164	23226.87
473.369	22612.48
473.574	23251.44
473.778	22618.62
473.983	22632.96
474.188	21977.61
474.393	20845.08
474.598	20978.2
474.802	20509.21
475.007	20351.52
475.212	19890.73
475.417	19206.7
475.621	19001.91
475.826	18811.45
476.031	18475.58
476.235	18041.41
476.44	18137.66
476.645	17605.19
476.849	17275.47
477.054	16976.47
477.259	16720.47
477.463	16624.22
477.668	16110.18
477.872	15911.52
478.077	15723.11
478.282	15422.06
478.486	15243.88
478.691	15147.63
478.895	14961.27
479.1	14551.67
479.304	14770.8
479.509	14301.82
479.713	14385.79
479.918	14058.11
480.122	13671.04
480.326	14103.17
480.531	13808.26
480.735	13601.41
480.94	13427.34
481.144	13978.24
481.348	13271.69
481.553	13273.74
481.757	12429.98
481.961	12960.4
482.166	13212.3
482.37	12837.52
482.574	12536.47
482.778	12450.46
482.983	12579.48
483.187	12673.68
483.391	12241.56
483.595	11971.23
483.8	11987.61
484.004	12149.4
484.208	12057.25
484.412	11811.49
484.616	11883.17
484.821	11487.91
485.025	11508.39
485.229	11139.76
485.433	11268.78
485.637	10939.05
485.841	10648.24
486.045	10832.56
486.249	10719.92
486.453	10527.41
486.657	10345.14
486.861	10173.11
487.065	9896.64
487.269	10003.13
487.473	9654.98
487.677	9587.4
487.881	9786.05
488.085	9138.89
488.289	9212.62
488.493	9005.77
488.697	9102.03
488.901	8717.01
489.105	8626.9
489.309	8426.2
489.512	8415.96
489.716	8147.67
489.92	8071.9
490.124	7758.56
490.328	7953.12
490.531	7406.31
490.735	7643.87
490.939	7422.69
491.143	7170.79
491.346	7029.48
491.55	7174.89
491.754	7148.26
491.958	6900.46
492.161	6619.89
492.365	6583.02
492.569	6501.11
492.772	6273.78
492.976	6630.13
493.18	6251.25
493.383	6339.32
493.587	6105.85
493.79	6120.18
493.994	5956.35
494.197	5798.65
494.401	6005.5
494.605	5733.12
494.808	5649.15
495.012	5761.79
495.215	5610.24
495.419	5735.17
495.622	5505.79
495.825	5495.55
496.029	5509.89
496.232	5583.62
496.436	5448.45
496.639	5610.24
496.843	5458.69
497.046	5440.26
497.249	5714.69
497.453	5645.06
497.656	5380.87
497.859	5387.01
498.063	5620.48
498.266	5743.36
498.469	5528.32
498.673	5354.24
498.876	5544.7
499.079	5563.14
499.282	5528.32
499.485	5954.3
499.689	5745.41
499.892	5774.08
500.095	5780.22
500.298	5882.62
500.501	5673.73
500.705	5935.87
500.908	5966.59
501.111	6052.6
501.314	6114.04
501.517	6324.98
501.72	6146.81
501.923	6257.4
502.126	6142.71
502.329	6443.76
502.532	6431.48
502.735	6613.74
502.938	6666.99
503.141	6679.28
503.344	6890.22
503.547	6984.43
503.75	6992.62
503.953	7095.02
504.156	6988.52
504.359	7166.7
504.562	7150.31
504.765	7359.21
504.968	7504.61
505.17	7621.35
505.373	7582.43
505.576	7854.81
505.779	8116.95
505.982	8045.27
506.185	8385.24
506.387	8415.96
506.59	8639.19
506.793	8948.43
506.996	8948.43
507.198	9075.4
507.401	9011.92
507.604	9540.29
507.807	9548.48
508.009	9706.18
508.212	10009.28
508.415	10347.19
508.617	10263.22
508.82	10519.22
509.022	10887.86
509.225	10824.37
509.428	11215.53
509.63	11381.42
509.833	11692.71
510.035	12251.8
510.238	12137.12
510.44	12200.6
510.643	12753.55
510.845	13023.89
511.048	13349.51
511.25	13566.6
511.453	13748.87
511.655	14516.86
511.858	14494.33
512.06	14928.5
512.262	15194.73
512.465	15243.88
512.667	16212.57
512.87	16048.74
513.072	16616.02
513.274	17064.53
513.477	17472.07
513.679	17799.75
513.881	18197.06
514.084	18887.22
514.286	19024.44
514.488	19622.44
514.69	19941.93
514.893	20437.53
515.095	20675.1
515.297	21072.4
515.499	21424.65
515.701	21848.58
515.904	22592
516.106	23300.59
516.308	23708.14
516.51	24170.98
516.712	24402.4
516.914	25323.99
517.116	25629.13
517.318	26229.19
517.52	26530.24
517.722	26624.45
517.925	27443.63
518.127	27865.52
518.329	28551.59
518.531	28287.4
518.733	29600.15
518.935	29985.16
519.136	30589.31
519.338	30927.23
519.54	31537.52
519.742	31963.5
519.944	32209.26
520.146	33249.63
520.348	33575.25
520.55	33864.02
520.752	34021.71
520.954	35133.76
521.155	34879.81
521.357	35842.35
521.559	36141.36
521.761	36720.93
521.963	36849.96
522.164	37142.81
522.366	37599.51
522.568	38269.2
522.77	38365.45
522.971	38816.01
523.173	39000.32
523.375	39354.62
523.576	39135.49
523.778	39233.79
523.98	40055.03
524.181	40126.71
524.383	40427.76
524.584	40644.84
524.786	40644.84
524.988	40462.57
525.189	40878.31
525.391	41122.02
525.592	41523.42
525.794	41183.46
525.995	41152.74
526.197	41267.42
526.398	41134.31
526.6	41154.79
526.801	41378.01
527.003	40968.42
527.204	41079.01
527.406	41046.24
527.607	40704.23
527.808	40782.06
528.01	39680.25
528.211	40206.58
528.412	40542.44
528.614	40001.78
528.815	39801.08
529.016	39784.69
529.218	39100.67
529.419	38807.81
529.62	38713.61
529.822	38045.97
530.023	37923.09
530.224	37411.1
530.425	37114.14
530.626	36192.56
530.828	36157.74
531.029	36784.42
531.23	36139.31
531.431	34949.44
531.632	35062.08
531.833	34769.22
532.035	34435.4
532.236	34027.85
532.437	33868.11
532.638	33106.27
532.839	32901.47
533.04	32706.91
533.241	31766.9
533.442	32072.04
533.643	31213.95
533.844	30724.48
534.045	30640.51
534.246	30114.19
534.447	29538.71
534.648	29233.56
534.849	29018.52
535.05	28381.6
535.251	28215.72
535.451	27965.87
535.652	27552.18
535.853	27109.82
536.054	26937.79
536.255	26491.33
536.456	25846.22
536.657	26028.49
536.857	25498.06
537.058	24863.19
537.259	24488.42
537.46	24340.96
537.66	24050.15
537.861	23878.12
538.062	23630.32
538.263	23169.52
538.463	22956.54
538.664	22821.37
538.865	22278.66
539.065	22245.89
539.266	21766.67
539.466	21711.37
539.667	20978.2
539.868	21099.03
540.068	20787.74
540.269	20263.46
540.469	20369.95
540.67	20097.57
540.87	19927.59
541.071	19417.65
541.271	19374.64
541.472	18897.46
541.672	18752.06
541.873	18559.55
542.073	18139.71
542.274	18242.11
542.474	18074.18
542.675	17697.35
542.875	17828.42
543.075	17574.47
543.276	17183.31
543.476	17328.72
543.676	16890.45
543.877	16884.31
544.077	16573.02
544.277	16392.8
544.478	16222.81
544.678	16149.09
544.878	15888.99
545.078	15706.73
545.279	15518.31
545.479	15100.53
545.679	14953.07
545.879	15102.57
546.079	14908.02
546.28	14686.84
546.48	14396.03
546.68	14234.24
546.88	14199.42
547.08	13826.69
547.28	13828.74
547.48	13435.53
547.68	13632.13
547.88	13240.97
548.081	13408.9
548.281	12966.54
548.481	12782.23
548.681	12626.58
548.881	12475.03
549.081	12391.06
549.28	12128.92
549.48	12042.91
549.68	12036.77
549.88	11786.91
550.08	11420.33
550.28	11408.04
550.48	11362.98
550.68	10918.57
550.88	11088.56
551.08	10767.03
551.279	10492.6
551.479	10298.04
551.679	10382.01
551.879	10058.43
552.079	9904.83
552.278	9781.95
552.478	9802.43
552.678	9562.82
552.878	9478.85
553.077	9200.33
553.277	9085.64
553.477	9028.3
553.676	8940.24
553.876	8897.23
554.076	8622.8
554.275	8594.13
554.475	8262.36
554.674	8340.18
554.874	8100.57
555.074	7967.45
555.273	7883.49
555.473	7762.65
555.672	7658.21
555.872	7308.01
556.071	7488.23
556.271	7561.95
556.47	7006.95
556.67	6779.63
556.869	6773.49
557.068	6886.12
557.268	6558.45
557.467	6347.51
557.667	6583.02
557.866	6263.54
558.065	6228.73
558.265	6148.86
558.464	5921.53
558.663	5964.54
558.863	5751.55
559.062	5802.75
559.261	5630.72
559.461	5677.82
559.66	5364.48
559.859	5327.62
560.058	5135.11
560.258	5057.29
560.457	5081.86
560.656	5198.6
560.855	4934.41
561.054	4838.16
561.253	4940.55
561.453	4715.28
561.652	4616.97
561.851	4756.24
562.05	4553.49
562.249	4305.68
562.448	4315.92
562.647	4164.37
562.846	4176.66
563.045	4119.32
563.244	4070.17
563.443	3998.49
563.642	3988.25
563.841	3842.84
564.04	3787.55
564.239	3719.96
564.438	3765.02
564.637	3498.78
564.836	3599.13
565.035	3592.99
565.234	3609.37
565.432	3472.16
565.631	3525.41
565.83	3420.96
566.029	3244.84
566.228	3271.46
566.427	3406.63
566.625	3033.9
566.824	3142.44
567.023	3048.23
567.222	3007.27
567.42	3046.18
567.619	3015.46
567.818	2898.73
568.016	2999.08
568.215	2927.4
568.414	2865.96
568.612	2851.63
568.811	2599.73
569.01	2575.15
569.208	2536.24
569.407	2646.83
569.605	2569.01
569.804	2470.7
570.002	2493.23
570.201	2433.84
570.4	2444.08
570.598	2321.2
570.797	2339.63
570.995	2114.36
571.193	2274.1
571.392	2286.39
571.59	2143.03
571.789	2190.13
571.987	2210.61
572.186	2147.12
572.384	1991.48
572.582	2040.63
572.781	1989.43
572.979	1923.9
573.177	1930.04
573.376	1923.9
573.574	1915.7
573.772	1835.83
573.971	1801.02
574.169	1604.41
574.367	1764.15
574.565	1717.05
574.763	1755.96
574.962	1577.79
575.16	1610.56
575.358	1563.45
575.556	1569.6
575.754	1604.41
575.952	1547.07
576.151	1628.99
576.349	1520.45
576.547	1352.51
576.745	1403.71
576.943	1493.82
577.141	1364.8
577.339	1329.99
577.537	1399.62
577.735	1383.23
577.933	1397.57
578.131	1221.44
578.329	1389.38
578.527	1203.01
578.725	1209.15
578.923	1092.42
579.121	1217.35
579.319	1090.37
579.516	1119.04
579.714	1278.79
579.912	1030.98
580.11	1014.6
580.308	1010.5
580.506	1037.13
580.704	981.83
580.901	942.92
581.099	1098.56
581.297	1082.18
581.495	1176.39
581.692	908.1
581.89	1024.84
582.088	996.17
582.285	955.21
582.483	865.1
582.681	815.94
582.878	799.56
583.076	965.45
583.274	889.67
583.471	953.16
583.669	828.23
583.866	717.64
584.064	734.03
584.262	783.18
584.459	764.75
584.657	828.23
584.854	858.95
585.052	817.99
585.249	709.45
585.447	748.36
585.644	672.59
585.841	865.1
586.039	746.31
586.236	803.66
586.434	607.05
586.631	602.96
586.828	588.62
587.026	645.96
587.223	545.61
587.42	543.57
587.618	629.58
587.815	770.89
588.012	680.78
588.21	588.62
588.407	736.07
588.604	592.72
588.801	553.8
588.999	586.57
589.196	682.83
589.393	463.69
589.59	594.76
589.787	586.57
589.984	545.61
590.182	615.24
590.379	488.27
590.576	598.86
590.773	541.52
590.97	504.65
591.167	596.81
591.364	580.43
591.561	514.89
591.758	600.91
591.955	559.95
592.152	545.61
592.349	488.27
592.546	498.51
592.743	465.74
592.94	582.48
593.137	547.66
593.334	602.96
593.531	570.19
593.727	562
593.924	553.8
594.121	586.57
594.318	553.8
594.515	578.38
594.712	635.72
594.908	531.28
595.105	426.83
595.302	545.61
595.499	596.81
595.696	682.83
595.892	525.13
596.089	596.81
596.286	510.8
596.482	650.06
596.679	590.67
596.876	619.34
597.072	607.05
597.269	611.15
597.466	701.26
597.662	643.92
597.859	547.66
598.055	711.5
598.252	756.55
598.448	791.37
598.645	770.89
598.841	854.86
599.038	973.64
599.234	867.14
599.431	975.69
599.627	932.68
599.824	979.78
600.02	971.59
600.217	1028.93
600.413	971.59
600.609	1065.8
600.806	1305.41
601.002	1186.63
601.198	1194.82
601.395	1270.59
601.591	1352.51
601.787	1299.27
601.984	1446.72
602.18	1446.72
602.376	1487.68
602.572	1639.23
602.769	1657.66
602.965	1739.58
603.161	1880.89
603.357	1827.64
603.553	1977.14
603.75	1868.6
603.946	1989.43
604.142	2061.11
604.338	2134.84
604.534	2079.54
604.73	2196.28
604.926	2267.95
605.122	2399.02
605.318	2376.5
605.514	2624.3
605.71	2554.67
605.906	2642.73
606.102	2800.43
606.298	2972.46
606.494	3005.22
606.69	3050.28
606.886	3115.81
607.082	3195.68
607.278	3189.54
607.474	3343.14
607.67	3535.65
607.866	3343.14
608.062	3681.05
608.257	3685.15
608.453	3881.75
608.649	3795.74
608.845	3908.38
609.041	4090.65
609.236	4115.22
609.432	4414.23
609.628	4594.45
609.824	4576.02
610.019	4670.22
610.215	4762.38
610.411	5028.62
610.606	5092.1
610.802	5126.92
610.998	5272.32
611.193	5511.94
611.389	5319.43
611.584	5640.96
611.78	5839.61
611.976	6091.51
612.171	6578.93
612.367	6284.02
612.562	6535.92
612.758	6630.13
612.953	6535.92
613.149	6863.6
613.344	7052.01
613.539	7459.56
613.735	7527.14
613.93	7842.53
614.126	7836.38
614.321	8129.24
614.517	8547.03
614.712	8520.4
614.907	8895.18
615.103	9169.61
615.298	9304.78
615.493	9646.79
615.688	9577.16
615.884	10076.86
616.079	10183.35
616.274	10492.6
616.47	10547.89
616.665	10850.99
616.86	11160.24
617.055	11367.08
617.25	11643.56
617.445	12034.72
617.641	12315.29
617.836	12606.1
618.031	12610.2
618.226	13476.49
618.421	13357.71
618.616	13920.9
618.811	13978.24
619.006	14779
619.201	14649.97
619.396	15192.69
619.591	15311.47
619.786	15784.55
619.981	15663.72
620.176	16460.38
620.371	16519.77
620.566	16935.51
620.761	17496.65
620.956	17799.75
621.151	18041.41
621.346	18436.67
621.541	18764.34
621.735	19268.14
621.93	19491.37
622.125	20066.85
622.32	19780.14
622.515	20263.46
622.709	20986.39
622.904	21228.05
623.099	21588.49
623.294	22020.61
623.488	22290.95
623.683	22669.82
623.878	23007.73
624.072	23493.1
624.267	24291.81
624.462	24037.86
624.656	24281.57
624.851	25186.77
625.046	25055.7
625.24	25702.86
625.435	25725.39
625.629	26116.55
625.824	26954.17
626.018	27109.82
626.213	27148.73
626.407	27490.74
626.602	27539.89
626.796	28166.57
626.991	28443.04
627.185	28637.6
627.38	28744.09
627.574	29204.89
627.768	29000.09
627.963	29393.3
628.157	29411.73
628.352	29637.01
628.546	29223.32
628.74	29921.68
628.935	29262.23
629.129	29401.49
629.323	29231.51
629.517	29098.39
629.712	29313.43
629.906	28961.18
630.1	28619.17
630.294	28539.3
630.489	28060.07
630.683	27781.55
630.877	27052.47
631.071	27031.99
631.265	26702.27
631.459	26091.98
631.653	25510.35
631.848	25090.52
632.042	24115.69
632.236	24185.32
632.43	23519.73
632.624	22544.89
632.818	21740.04
633.012	21355.02
633.206	20814.36
633.4	20238.88
633.594	19202.61
633.788	18874.93
633.982	18152
634.176	17615.43
634.369	16765.53
634.563	16271.97
634.757	15379.05
634.951	15184.49
635.145	14357.11
635.339	13953.66
635.533	13349.51
635.726	13034.13
635.92	12259.99
636.114	11651.75
636.308	11215.53
636.501	10730.16
636.695	10523.32
636.889	9929.41
637.083	9558.72
637.276	9231.05
637.47	8680.14
637.664	8477.4
637.857	8194.78
638.051	7748.32
638.244	7494.37
638.438	7234.28
638.632	7031.53
638.825	6374.13
639.019	6439.67
639.212	5970.68
639.406	5913.34
639.599	5626.62
639.793	5513.99
639.986	5106.44
640.18	5124.87
640.373	4881.16
640.567	4733.71
640.76	4436.75
640.954	4295.44
641.147	3986.2
641.34	3973.91
641.534	3902.23
641.727	3920.67
641.92	3521.31
642.114	3504.93
642.307	3300.13
642.5	3181.35
642.694	2933.54
642.887	2872.11
643.08	2839.34
643.273	2878.25
643.467	2618.16
643.66	2517.81
643.853	2435.89
644.046	2270
644.239	2237.24
644.432	2077.49
644.626	1968.95
644.819	2087.73
645.012	1934.14
645.205	1985.34
645.398	1825.59
645.591	1526.59
645.784	1618.75
645.977	1504.06
646.17	1514.3
646.363	1520.45
646.556	1276.74
646.749	1368.9
646.942	1360.7
647.135	1329.99
647.328	1192.77
647.521	1162.05
647.714	1067.85
647.907	1092.42
648.099	975.69
648.292	1112.9
648.485	1006.41
648.678	906.06
648.871	959.3
649.064	844.62
649.256	758.6
649.449	701.26
649.642	670.54
649.835	774.99
650.027	600.91
650.22	707.4
650.413	619.34
650.605	598.86
650.798	627.53
650.991	516.94
651.183	545.61
651.376	652.11
651.568	576.33
651.761	514.89
651.954	590.67
652.146	525.13
652.339	543.57
652.531	543.57
652.724	453.45
652.916	367.44
653.109	217.94
653.301	504.65
653.494	441.17
653.686	383.82
653.879	463.69
654.071	375.63
654.263	375.63
654.456	363.34
654.648	484.17
654.84	312.14
655.033	361.3
655.225	504.65
655.417	279.38
655.61	353.1
655.802	346.96
655.994	473.93
656.186	170.83
656.379	306
656.571	254.8
656.763	248.66
656.955	185.17
657.148	242.51
657.34	344.91
657.532	207.7
657.724	152.4
657.916	207.7
658.108	285.52
658.3	283.47
658.492	291.66
658.684	133.97
658.876	289.62
659.068	176.98
659.26	43.86
659.452	158.55
659.644	248.66
659.836	351.06
660.028	238.42
660.22	174.93
660.412	230.23
660.604	166.74
660.796	148.31
660.988	338.77
661.18	183.12
661.372	273.23
661.563	158.55
661.755	209.75
661.947	131.92
662.139	160.59
662.331	119.64
662.522	187.22
662.714	129.88
662.906	138.07
663.097	156.5
663.289	115.54
663.481	82.77
663.673	275.28
663.864	82.77
664.056	193.36
664.247	76.63
664.439	238.42
664.631	97.11
664.822	193.36
665.014	127.83
665.205	41.81
665.397	97.11
665.588	160.59
665.78	127.83
665.971	195.41
666.163	33.62
666.354	176.98
666.546	140.12
666.737	127.83
666.929	56.15
667.12	95.06
667.311	164.69
667.503	109.4
667.694	148.31
667.885	154.45
668.077	150.36
668.268	-9.39
668.459	172.88
668.651	142.16
668.842	166.74
669.033	70.48
669.224	133.97
669.416	281.43
669.607	160.59
669.798	117.59
669.989	226.13
670.18	99.16
670.371	189.27
670.563	119.64
670.754	209.75
670.945	191.31
671.136	203.6
671.327	121.68
671.518	156.5
671.709	340.82
671.9	101.2
672.091	252.75
672.282	166.74
672.473	176.98
672.664	86.87
672.855	166.74
673.046	97.11
673.237	129.88
673.428	113.49
673.619	211.79
673.809	121.68
674	228.18
674.191	179.03
674.382	191.31
674.573	187.22
674.764	172.88
674.954	215.89
675.145	136.02
675.336	76.63
675.527	117.59
675.717	127.83
675.908	215.89
676.099	66.39
676.289	179.03
676.48	27.48
676.671	187.22
676.861	99.16
677.052	185.17
677.243	117.59
677.433	127.83
677.624	213.84
677.814	119.64
678.005	129.88
678.195	232.27
678.386	101.2
678.576	207.7
678.767	72.53
678.957	174.93
679.148	238.42
679.338	258.9
679.529	269.14
679.719	209.75
679.909	197.46
680.1	254.8
680.29	320.34
680.481	156.5
680.671	265.04
680.861	164.69
681.052	170.83
681.242	144.21
681.432	277.33
681.622	199.51
681.813	131.92
682.003	168.79
682.193	172.88
682.383	201.55
682.573	111.44
682.764	148.31
682.954	250.71
683.144	248.66
683.334	174.93
683.524	152.4
683.714	217.94
683.904	207.7
684.094	219.99
684.284	262.99
684.474	346.96
684.664	293.71
684.854	344.91
685.044	232.27
685.234	273.23
685.424	215.89
685.614	222.03
685.804	320.34
685.994	211.79
686.184	299.86
686.374	199.51
686.564	219.99
686.753	303.95
686.943	195.41
687.133	199.51
687.323	103.25
687.513	287.57
687.702	252.75
687.892	166.74
688.082	361.3
688.272	258.9
688.461	201.55
688.651	410.45
688.841	275.28
689.03	203.6
689.22	193.36
689.41	363.34
689.599	211.79
689.789	170.83
689.979	322.38
690.168	248.66
690.358	277.33
690.547	158.55
690.737	262.99
690.926	217.94
691.116	189.27
691.305	271.19
691.495	301.9
691.684	199.51
691.874	211.79
692.063	228.18
692.252	240.47
692.442	326.48
692.631	246.61
692.82	299.86
693.01	193.36
693.199	168.79
693.388	320.34
693.578	176.98
693.767	279.38
693.956	174.93
694.146	217.94
694.335	238.42
694.524	133.97
694.713	248.66
694.902	113.49
695.092	107.35
695.281	258.9
695.47	183.12
695.659	199.51
695.848	146.26
696.037	187.22
696.226	224.08
696.415	240.47
696.604	258.9
696.793	285.52
696.982	236.37
697.171	392.02
697.36	123.73
697.549	197.46
697.738	95.06
697.927	164.69
698.116	123.73
698.305	228.18
698.494	219.99
698.683	191.31
698.872	291.66
699.061	244.56
699.25	148.31
699.438	215.89
699.627	269.14
699.816	340.82
700.005	162.64
700.193	127.83
700.382	277.33
700.571	213.84
700.76	197.46
700.948	279.38
701.137	244.56
701.326	197.46
701.514	154.45
701.703	197.46
701.892	222.03
702.08	301.9
702.269	209.75
702.457	144.21
702.646	168.79
702.834	213.84
703.023	256.85
703.212	326.48
703.4	142.16
703.589	222.03
703.777	176.98
703.965	121.68
704.154	162.64
704.342	146.26
704.531	193.36
704.719	240.47
704.907	277.33
705.096	74.58
705.284	105.3
705.472	219.99
705.661	275.28
705.849	338.77
706.037	303.95
706.226	230.23
706.414	271.19
706.602	133.97
706.79	170.83
706.979	113.49
707.167	172.88
707.355	156.5
707.543	256.85
707.731	176.98
707.919	125.78
708.107	179.03
708.296	176.98
708.484	275.28
708.672	248.66
708.86	183.12
709.048	205.65
709.236	113.49
709.424	140.12
709.612	262.99
709.8	125.78
709.988	226.13
710.176	254.8
710.364	287.57
710.551	209.75
710.739	109.4
710.927	146.26
711.115	150.36
711.303	174.93
711.491	373.58
711.679	181.07
711.866	295.76
712.054	138.07
712.242	230.23
712.43	260.95
712.617	146.26
712.805	222.03
712.993	293.71
713.181	117.59
713.368	162.64
713.556	179.03
713.744	140.12
713.931	332.62
714.119	308.05
714.306	150.36
714.494	154.45
714.682	238.42
714.869	105.3
715.057	146.26
715.244	43.86
715.432	228.18
715.619	191.31
715.807	144.21
715.994	144.21
716.182	174.93
716.369	349.01
716.556	291.66
716.744	146.26
716.931	117.59
717.119	217.94
717.306	162.64
717.493	248.66
717.681	187.22
717.868	201.55
718.055	277.33
718.242	234.32
718.43	232.27
718.617	289.62
718.804	222.03
718.991	344.91
719.179	232.27
719.366	269.14
719.553	275.28
719.74	275.28
719.927	262.99
720.114	265.04
720.301	189.27
720.488	217.94
720.676	86.87
720.863	332.62
721.05	344.91
721.237	328.53
721.424	303.95
721.611	215.89
721.798	164.69
721.985	260.95
722.172	191.31
722.358	236.37
722.545	320.34
722.732	211.79
722.919	301.9
723.106	250.71
723.293	181.07
723.48	242.51
723.667	209.75
723.853	295.76
724.04	289.62
724.227	312.14
724.414	203.6
724.6	195.41
724.787	410.45
724.974	351.06
725.161	269.14
725.347	228.18
725.534	316.24
725.72	312.14
725.907	353.1
726.094	365.39
726.28	289.62
726.467	271.19
726.653	215.89
726.84	414.54
727.027	342.86
727.213	232.27
727.4	265.04
727.586	328.53
727.773	254.8
727.959	191.31
728.145	328.53
728.332	318.29
728.518	299.86
728.705	299.86
728.891	316.24
729.077	195.41
729.264	209.75
729.45	244.56
729.636	359.25
729.823	260.95
730.009	291.66
730.195	240.47
730.382	392.02
730.568	201.55
730.754	287.57
730.94	293.71
731.126	256.85
731.313	320.34
731.499	189.27
731.685	338.77
731.871	310.1
732.057	291.66
732.243	404.3
732.429	299.86
732.615	353.1
732.801	242.51
732.987	271.19
733.173	279.38
733.359	195.41
733.545	346.96
733.731	217.94
733.917	353.1
734.103	353.1
734.289	361.3
734.475	295.76
734.661	344.91
734.847	365.39
735.033	209.75
735.219	334.67
735.404	246.61
735.59	336.72
735.776	330.58
735.962	273.23
736.148	353.1
736.333	416.59
736.519	262.99
736.705	267.09
736.89	330.58
737.076	242.51
737.262	219.99
737.447	303.95
737.633	224.08
737.819	353.1
738.004	332.62
738.19	349.01
738.375	340.82
738.561	420.69
738.747	240.47
738.932	201.55
739.118	455.5
739.303	330.58
739.489	271.19
739.674	265.04
739.859	207.7
740.045	408.4
740.23	334.67
740.416	133.97
740.601	389.97
740.786	283.47
740.972	258.9
741.157	365.39
741.342	258.9
741.528	185.17
741.713	349.01
741.898	256.85
742.084	324.43
742.269	252.75
742.454	291.66
742.639	367.44
742.824	308.05
743.01	400.21
743.195	428.88
743.38	295.76
743.565	324.43
743.75	269.14
743.935	265.04
744.12	340.82
744.305	191.31
744.49	258.9
744.675	289.62
744.86	207.7
745.045	316.24
745.23	301.9
745.415	181.07
745.6	342.86
745.785	201.55
745.97	344.91
746.155	289.62
746.34	381.78
746.525	287.57
746.71	426.83
746.895	222.03
747.079	303.95
747.264	252.75
747.449	361.3
747.634	346.96
747.819	297.81
748.003	228.18
748.188	205.65
748.373	353.1
748.557	262.99
748.742	222.03
748.927	322.38
749.111	318.29
749.296	297.81
749.481	281.43
749.665	232.27
749.85	168.79
750.034	254.8
750.219	310.1
750.404	183.12
750.588	316.24
750.773	217.94
750.957	236.37
751.141	217.94
751.326	293.71
751.51	170.83
751.695	228.18
751.879	275.28
752.064	396.11
752.248	226.13
752.432	324.43
752.617	277.33
752.801	306
752.985	281.43
753.17	303.95
753.354	244.56
753.538	240.47
753.722	179.03
753.907	164.69
754.091	183.12
754.275	246.61
754.459	119.64
754.643	172.88
754.828	236.37
755.012	236.37
755.196	160.59
755.38	250.71
755.564	201.55
755.748	160.59
755.932	316.24
756.116	238.42
756.3	183.12
756.484	125.78
756.668	238.42
756.852	-21.67
757.036	144.21
757.22	230.23
757.404	140.12
757.588	121.68
757.772	254.8
757.956	205.65
758.14	248.66
758.323	107.35
758.507	222.03
758.691	170.83
758.875	262.99
759.059	252.75
759.242	125.78
759.426	160.59
759.61	201.55
759.794	193.36
759.977	320.34
760.161	303.95
760.345	260.95
760.528	226.13
760.712	176.98
760.895	121.68
761.079	172.88
761.263	58.2
761.446	50
761.63	109.4
761.813	142.16
761.997	58.2
762.18	125.78
762.364	201.55
762.547	68.44
762.731	136.02
762.914	138.07
763.098	148.31
763.281	121.68
763.464	121.68
763.648	176.98
763.831	152.4
764.015	107.35
764.198	244.56
764.381	121.68
764.564	176.98
764.748	129.88
764.931	140.12
765.114	129.88
765.297	181.07
765.481	68.44
765.664	68.44
765.847	148.31
766.03	258.9
766.213	11.09
766.397	133.97
766.58	52.05
766.763	127.83
766.946	101.2
767.129	138.07
767.312	68.44
767.495	115.54
767.678	78.68
767.861	142.16
768.044	41.81
768.227	50
768.41	90.96
768.593	119.64
768.776	119.64
768.959	76.63
769.142	244.56
769.324	138.07
769.507	66.39
769.69	78.68
769.873	99.16
770.056	277.33
770.239	144.21
770.421	252.75
770.604	162.64
770.787	166.74
770.97	144.21
771.152	47.96
771.335	162.64
771.518	84.82
771.7	119.64
771.883	172.88
772.066	41.81
772.248	158.55
772.431	240.47
772.613	179.03
772.796	168.79
772.978	142.16
773.161	242.51
773.343	115.54
773.526	56.15
773.708	35.67
773.891	7
774.073	54.1
774.256	19.29
774.438	260.95
774.621	68.44
774.803	154.45
774.985	66.39
775.168	181.07
775.35	113.49
775.532	78.68
775.715	60.24
775.897	123.73
776.079	117.59
776.261	43.86
776.444	52.05
776.626	62.29
776.808	115.54
776.99	7
777.173	88.92
777.355	74.58
777.537	78.68
777.719	78.68
777.901	41.81
778.083	-1.19
778.265	56.15
778.447	105.3
778.629	13.14
778.811	15.19
778.993	150.36
779.175	201.55
779.357	45.91
779.539	-36.01
779.721	62.29
779.903	154.45
780.085	148.31
780.267	115.54
780.449	39.76
780.631	146.26
780.812	213.84
780.994	86.87
781.176	76.63
781.358	11.09
781.54	60.24
781.721	101.2
781.903	148.31
782.085	2.9
782.267	140.12
782.448	2.9
782.63	47.96
782.812	78.68
782.993	123.73
783.175	43.86
783.357	125.78
783.538	121.68
783.72	45.91
783.901	47.96
784.083	105.3
784.264	68.44
784.446	-11.43
784.627	74.58
784.809	88.92
784.99	35.67
785.172	84.82
785.353	74.58
785.535	123.73
785.716	29.52
785.897	-5.29
786.079	123.73
786.26	144.21
786.441	68.44
786.623	13.14
786.804	37.72
786.985	-1.19
787.167	35.67
787.348	47.96
787.529	25.43
787.71	201.55
787.891	133.97
788.073	113.49
788.254	21.33
788.435	154.45
788.616	142.16
788.797	13.14
788.978	50
789.159	52.05
789.34	170.83
789.522	68.44
789.703	-38.06
789.884	121.68
790.065	156.5
790.246	211.79
790.427	9.05
790.607	185.17
790.788	-23.72
790.969	62.29
791.15	78.68
791.331	25.43
791.512	121.68
791.693	-3.24
791.874	-13.48
792.054	185.17
792.235	58.2
792.416	-21.67
792.597	-25.77
792.778	90.96
792.958	121.68
793.139	27.48
793.32	45.91
793.5	-1.19
793.681	95.06
793.862	58.2
794.042	37.72
794.223	-44.2
794.404	35.67
794.584	-27.82
794.765	-29.87
794.945	37.72
795.126	121.68
795.306	54.1
795.487	27.48
795.667	7
795.848	127.83
796.028	-13.48
796.209	-3.24
796.389	136.02
796.57	107.35
796.75	9.05
796.93	133.97
797.111	4.95
797.291	-3.24
797.471	72.53
797.652	29.52
797.832	-1.19
798.012	68.44
798.192	-23.72
798.373	-56.49
798.553	19.29
798.733	84.82
798.913	-72.87
799.093	-33.96
799.274	-7.34
799.454	107.35
799.634	103.25
799.814	58.2
799.994	160.59
800.174	117.59
800.354	66.39
800.534	-25.77
800.714	90.96
800.894	-1.19
801.074	7
801.254	-83.11
801.434	121.68
801.614	13.14
801.794	-29.87
801.974	1659.71
802.154	58.2
802.334	197.46
802.514	-50.35
802.693	4.95
802.873	19.29
803.053	111.44
803.233	70.48
803.413	13.14
803.592	-76.97
803.772	45.91
803.952	47.96
804.131	-91.31
804.311	45.91
804.491	93.01
804.67	23.38
804.85	-56.49
805.03	109.4
805.209	60.24
805.389	2.9
805.568	21.33
805.748	33.62
805.928	45.91
806.107	52.05
806.287	45.91
806.466	62.29
806.646	-40.11
806.825	17.24
807.004	-11.43
807.184	23.38
807.363	66.39
807.543	29.52
807.722	-134.31
807.901	152.4
808.081	72.53
808.26	-81.07
808.439	-15.53
808.619	19.29
808.798	76.63
808.977	-19.63
809.156	144.21
809.336	107.35
809.515	97.11
809.694	-50.35
809.873	11.09
810.052	33.62
810.231	181.07
810.411	9.05
810.59	76.63
810.769	43.86
810.948	93.01
811.127	-83.11
811.306	-13.48
811.485	9.05
811.664	88.92
811.843	72.53
812.022	19.29
812.201	21.33
812.38	-27.82
812.559	7
812.737	64.34
812.916	-66.73
813.095	25.43
813.274	13.14
813.453	39.76
813.632	33.62
813.811	68.44
813.989	-42.15
814.168	68.44
814.347	-27.82
814.526	52.05
814.704	154.45
814.883	129.88
815.062	-38.06
815.24	64.34
815.419	-62.63
815.598	82.77
815.776	-76.97
815.955	-50.35
816.133	-74.92
816.312	0.85
816.49	-17.58
816.669	33.62
816.847	7
817.026	76.63
817.204	39.76
817.383	0.85
817.561	-68.78
817.74	58.2
817.918	-13.48
818.097	-101.55
818.275	-7.34
818.453	125.78
818.632	117.59
818.81	-44.2
818.988	-66.73
819.167	-13.48
819.345	-11.43
819.523	-21.67
819.701	11.09
819.879	74.58
820.058	62.29
820.236	25.43
820.414	-19.63
820.592	19.29
820.77	72.53
820.948	-154.79
821.127	-23.72
821.305	-21.67
821.483	-52.39
821.661	117.59
821.839	35.67
822.017	-36.01
822.195	23.38
822.373	70.48
822.551	-17.58
822.729	78.68
822.907	-11.43
823.085	0.85
823.262	-25.77
823.44	13.14
823.618	17.24
823.796	21.33
823.974	-83.11
824.152	-79.02
824.329	31.57
824.507	47.96
824.685	62.29
824.863	-19.63
825.04	2.9
825.218	90.96
825.396	13.14
825.574	78.68
825.751	88.92
825.929	-19.63
826.107	-44.2
826.284	-33.96
826.462	107.35
826.639	-5.29
826.817	-109.74
826.994	-33.96
827.172	13.14
827.349	142.16
827.527	0.85
827.704	52.05
827.882	80.72
828.059	-46.25
828.237	-48.3
828.414	80.72
828.591	-70.83
828.769	60.24
828.946	-9.39
829.124	127.83
829.301	74.58
829.478	-13.48
829.655	47.96
829.833	-62.63
830.01	-134.31
830.187	45.91
830.364	-40.11
830.542	-56.49
830.719	93.01
830.896	45.91
831.073	27.48
831.25	-15.53
831.427	-44.2
831.604	-60.59
831.782	-29.87
831.959	86.87
832.136	43.86
832.313	101.2
832.49	-25.77
832.667	-5.29
832.844	-66.73
833.021	107.35
833.198	86.87
833.374	31.57
833.551	15.19
833.728	-40.11
833.905	19.29
834.082	-93.35
834.259	-13.48
834.436	105.3
834.612	-89.26
834.789	90.96
834.966	-15.53
835.143	4.95
835.319	-85.16
835.496	-3.24
835.673	54.1
835.85	101.2
836.026	37.72
836.203	107.35
836.38	-1.19
836.556	11.09
836.733	-60.59
836.909	150.36
837.086	37.72
837.262	-91.31
837.439	-42.15
837.616	-48.3
837.792	-31.91
837.968	0.85
838.145	-146.6
838.321	-25.77
838.498	78.68
838.674	11.09
838.851	21.33
839.027	-58.54
839.203	113.49
839.38	64.34
839.556	-46.25
839.732	97.11
839.909	21.33
840.085	-1.19
840.261	23.38
840.437	9.05
840.614	-52.39
840.79	39.76
840.966	86.87
841.142	-17.58
841.318	-38.06
841.494	74.58
841.671	109.4
841.847	31.57
842.023	-56.49
842.199	82.77
842.375	111.44
842.551	-140.46
842.727	-36.01
842.903	127.83
843.079	107.35
843.255	41.81
843.431	-23.72
843.607	68.44
843.783	-134.31
843.959	17.24
844.134	-48.3
844.31	111.44
844.486	-21.67
844.662	-19.63
844.838	2.9
845.013	-13.48
845.189	80.72
845.365	-79.02
845.541	2.9
845.716	93.01
845.892	39.76
846.068	-46.25
846.244	-52.39
846.419	-23.72
846.595	-31.91
846.77	-40.11
846.946	-9.39
847.122	-66.73
847.297	9.05
847.473	148.31
847.648	-101.55
847.824	56.15
847.999	-38.06
848.175	9.05
848.35	11.09
848.526	78.68
848.701	60.24
848.876	56.15
849.052	-9.39
849.227	15.19
849.403	45.91
849.578	-3.24
849.753	-9.39
849.929	33.62
850.104	-64.68
850.279	41.81
850.454	-1.19
850.63	95.06
850.805	123.73
850.98	33.62
851.155	-5.29
851.33	35.67
851.505	-56.49
851.681	136.02
851.856	-7.34
852.031	56.15
852.206	78.68
852.381	-64.68
852.556	0.85
852.731	76.63
852.906	99.16
853.081	43.86
853.256	197.46
853.431	-56.49
853.606	-17.58
853.781	-103.59
853.956	-99.5
854.131	-25.77
854.305	-87.21
854.48	-31.91
854.655	-89.26
854.83	-60.59
855.005	-7.34
855.18	93.01
855.354	21.33
855.529	54.1
855.704	-46.25
855.879	43.86
856.053	-126.12
856.228	11.09
856.403	-150.7
856.577	7
856.752	-83.11
856.926	-74.92
857.101	15.19
857.276	-68.78
857.45	60.24
857.625	45.91
857.799	82.77
857.974	21.33
858.148	-117.93
858.323	115.54
858.497	-33.96
858.672	-5.29
858.846	-122.02
859.02	47.96
859.195	-132.26
859.369	-31.91
859.543	11.09
859.718	50
859.892	70.48
860.066	43.86
860.241	-27.82
860.415	11.09
860.589	-23.72
860.763	45.91
860.938	-68.78
861.112	37.72
861.286	-23.72
861.46	23.38
861.634	37.72
861.808	84.82
861.982	-17.58
862.157	-83.11
862.331	-54.44
862.505	-66.73
862.679	-52.39
862.853	-62.63
863.027	70.48
863.201	113.49
863.375	-50.35
863.549	58.2
863.722	-60.59
863.896	103.25
864.07	4.95
864.244	-9.39
864.418	50
864.592	17.24
864.766	17.24
864.939	13.14
865.113	-76.97
865.287	99.16
865.461	2.9
865.634	19.29
865.808	39.76
865.982	-15.53
866.156	-101.55
866.329	-89.26
866.503	-33.96
866.676	56.15
866.85	19.29
867.024	-46.25
867.197	4.95
867.371	7
867.544	39.76
867.718	-79.02
867.891	97.11
868.065	-62.63
868.238	37.72
868.412	174.93
868.585	78.68
868.759	-31.91
868.932	-40.11
869.105	-140.46
869.279	74.58
869.452	-91.31
869.625	60.24
869.799	-72.87
869.972	-79.02
870.145	-27.82
870.319	131.92
870.492	-60.59
870.665	-54.44
870.838	-66.73
871.011	-177.32
871.185	-23.72
871.358	-5.29
871.531	78.68
871.704	-81.07
871.877	47.96
872.05	29.52
872.223	-27.82
872.396	25.43
872.569	97.11
872.742	-52.39
872.915	29.52
873.088	11.09
873.261	-11.43
873.434	11.09
873.607	-1.19
873.78	146.26
873.953	-152.74
874.126	-23.72
874.299	66.39
874.471	-17.58
874.644	2.9
874.817	117.59
874.99	80.72
875.163	-27.82
875.335	35.67
875.508	31.57
875.681	78.68
875.853	29.52
876.026	-95.4
876.199	21.33
876.371	52.05
876.544	70.48
876.717	-1.19
876.889	2.9
877.062	23.38
877.234	-72.87
877.407	-13.48
877.579	45.91
877.752	-3.24
877.924	90.96
878.097	-11.43
878.269	-40.11
878.442	35.67
878.614	-74.92
878.786	11.09
878.959	-50.35
879.131	37.72
879.303	-66.73
879.476	0.85
879.648	74.58
879.82	50
879.993	-74.92
880.165	-29.87
880.337	-36.01
880.509	39.76
880.681	-113.83
880.854	-93.35
881.026	60.24
881.198	164.69
881.37	-60.59
881.542	-11.43
881.714	41.81
881.886	-62.63
882.058	17.24
882.23	-15.53
882.402	-50.35
882.574	-29.87
882.746	43.86
882.918	93.01
883.09	99.16
883.262	-40.11
883.434	-23.72
883.606	-93.35
883.778	-101.55
883.95	158.55
884.122	-15.53
884.293	158.55
884.465	45.91
884.637	60.24
884.809	-83.11
884.98	7
885.152	-11.43
885.324	78.68
885.496	-9.39
885.667	-11.43
885.839	-42.15
886.011	95.06
886.182	-1.19
886.354	78.68
886.525	-70.83
886.697	-72.87
886.869	-11.43
887.04	19.29
887.212	82.77
887.383	117.59
887.555	15.19
887.726	-64.68
887.897	-7.34
888.069	-11.43
888.24	43.86
888.412	-25.77
888.583	-11.43
888.754	-97.45
888.926	-85.16
889.097	-1.19
889.268	-181.42
889.44	2.9
889.611	-126.12
889.782	-91.31
889.953	-70.83
890.125	127.83
890.296	2.9
890.467	-7.34
890.638	-66.73
890.809	2.9
890.98	-60.59
891.151	68.44
891.323	50
891.494	19.29
891.665	21.33
891.836	9.05
892.007	43.86
892.178	31.57
892.349	-46.25
892.52	41.81
892.691	58.2
892.862	-58.54
893.032	-107.69
893.203	-1.19
893.374	-17.58
893.545	37.72
893.716	19.29
893.887	56.15
894.057	-29.87
894.228	21.33
894.399	-115.88
894.57	93.01
894.74	-74.92
894.911	56.15
895.082	7
895.253	-44.2
895.423	86.87
895.594	39.76
895.764	4.95
895.935	-171.18
896.106	47.96
896.276	-74.92
896.447	47.96
896.617	-19.63
896.788	-17.58
896.958	-42.15
897.129	-21.67
897.299	-27.82
897.47	62.29
897.64	50
897.81	25.43
897.981	97.11
898.151	-111.78
898.322	23.38
898.492	-25.77
898.662	-72.87
898.832	-79.02
899.003	-40.11
899.173	27.48
899.343	-36.01
899.513	-15.53
