Data from USB4F104151__79__09-30-24-389.txt Node

Date: Wed Feb 26 09:30:24 EST 2025
User: louis
Spectrometer: USB4F10415
Trigger mode: 4
Integration Time (sec): 1.000000E-1
Scans to average: 1
Electric dark correction enabled: true
Nonlinearity correction enabled: false
Boxcar width: 0
XAxis mode: Wavelengths
Number of Pixels in Spectrum: 3648
>>>>>Begin Spectral Data<<<<<
178.204	-282.96
178.424	-282.96
178.644	-282.96
178.864	-389.46
179.084	-305.49
179.304	-47.44
179.524	1.71
179.744	67.24
179.964	40.62
180.184	-33.11
180.404	40.62
180.624	7.85
180.844	-22.87
181.064	-61.78
181.283	46.76
181.503	-82.26
181.723	42.67
181.943	-117.08
182.163	173.74
182.383	32.43
182.602	118.44
182.822	87.72
183.042	7.85
183.262	67.24
183.482	16.04
183.701	-43.35
183.921	108.2
184.141	-4.44
184.361	3.75
184.58	26.28
184.8	26.28
185.02	-8.53
185.239	87.72
185.459	100.01
185.679	87.72
185.898	-100.69
186.118	75.43
186.338	54.95
186.557	124.58
186.777	30.38
186.997	67.24
187.216	57
187.436	167.59
187.655	-26.96
187.875	100.01
188.095	42.67
188.314	77.48
188.534	34.47
188.753	-33.11
188.973	169.64
189.192	177.83
189.412	61.1
189.631	-10.58
189.851	104.11
190.07	130.73
190.29	-39.25
190.509	46.76
190.729	-12.63
190.948	122.54
191.168	265.89
191.387	112.3
191.607	20.14
191.826	30.38
192.045	36.52
192.265	7.85
192.484	61.1
192.704	34.47
192.923	13.99
193.142	126.63
193.362	71.34
193.581	159.4
193.8	42.67
194.02	112.3
194.239	83.63
194.458	40.62
194.678	57
194.897	44.71
195.116	-49.49
195.335	126.63
195.555	140.97
195.774	-2.39
195.993	102.06
196.212	65.19
196.432	26.28
196.651	-41.3
196.87	89.77
197.089	235.18
197.308	75.43
197.528	73.39
197.747	-14.68
197.966	67.24
198.185	157.35
198.404	67.24
198.623	102.06
198.842	85.67
199.062	147.11
199.281	83.63
199.5	134.82
199.719	87.72
199.938	108.2
200.157	108.2
200.376	106.15
200.595	134.82
200.814	100.01
201.033	-65.88
201.252	198.31
201.471	42.67
201.69	102.06
201.909	73.39
202.128	22.19
202.347	79.53
202.566	42.67
202.785	-41.3
203.004	26.28
203.223	257.7
203.442	1.71
203.661	32.43
203.879	138.92
204.098	116.39
204.317	50.86
204.536	48.81
204.755	132.78
204.974	118.44
205.193	11.95
205.411	177.83
205.63	38.57
205.849	100.01
206.068	46.76
206.287	40.62
206.505	171.69
206.724	30.38
206.943	16.04
207.162	44.71
207.381	71.34
207.599	-37.2
207.818	-0.34
208.037	-37.2
208.255	-12.63
208.474	140.97
208.693	59.05
208.911	73.39
209.13	73.39
209.349	91.82
209.567	44.71
209.786	18.09
210.005	42.67
210.223	28.33
210.442	-55.64
210.661	-14.68
210.879	91.82
211.098	26.28
211.316	71.34
211.535	114.34
211.753	-0.34
211.972	42.67
212.191	-57.68
212.409	59.05
212.628	73.39
212.846	1.71
213.065	65.19
213.283	97.96
213.502	75.43
213.72	130.73
213.938	42.67
214.157	26.28
214.375	93.87
214.594	-39.25
214.812	169.64
215.031	48.81
215.249	57
215.467	-6.49
215.686	-2.39
215.904	77.48
216.122	63.15
216.341	100.01
216.559	89.77
216.778	104.11
216.996	102.06
217.214	24.23
217.432	59.05
217.651	-59.73
217.869	46.76
218.087	30.38
218.306	36.52
218.524	13.99
218.742	-49.49
218.96	63.15
219.179	-51.54
219.397	112.3
219.615	138.92
219.833	83.63
220.051	-45.4
220.27	132.78
220.488	138.92
220.706	93.87
220.924	-31.06
221.142	-6.49
221.36	85.67
221.578	-10.58
221.796	26.28
222.015	42.67
222.233	54.95
222.451	161.45
222.669	-16.73
222.887	32.43
223.105	-84.31
223.323	7.85
223.541	32.43
223.759	26.28
223.977	7.85
224.195	163.5
224.413	71.34
224.631	124.58
224.849	83.63
225.067	278.18
225.285	-31.06
225.503	-24.92
225.721	-35.16
225.939	89.77
226.157	38.57
226.375	210.6
226.592	-63.83
226.81	126.63
227.028	73.39
227.246	151.21
227.464	24.23
227.682	46.76
227.9	73.39
228.117	38.57
228.335	63.15
228.553	130.73
228.771	-24.92
228.989	44.71
229.206	-18.77
229.424	87.72
229.642	16.04
229.86	38.57
230.077	120.49
230.295	18.09
230.513	171.69
230.731	116.39
230.948	114.34
231.166	153.26
231.384	24.23
231.601	-24.92
231.819	210.6
232.037	-10.58
232.254	59.05
232.472	48.81
232.689	38.57
232.907	145.06
233.125	-20.82
233.342	46.76
233.56	26.28
233.777	52.91
233.995	57
234.213	95.91
234.43	73.39
234.648	57
234.865	32.43
235.083	95.91
235.3	171.69
235.518	124.58
235.735	132.78
235.953	73.39
236.17	89.77
236.388	52.91
236.605	59.05
236.822	89.77
237.04	59.05
237.257	128.68
237.475	1.71
237.692	-2.39
237.909	71.34
238.127	59.05
238.344	108.2
238.562	-31.06
238.779	-12.63
238.996	-76.12
239.214	36.52
239.431	93.87
239.648	-10.58
239.865	46.76
240.083	44.71
240.3	11.95
240.517	3.75
240.735	9.9
240.952	157.35
241.169	50.86
241.386	73.39
241.603	26.28
241.821	24.23
242.038	79.53
242.255	100.01
242.472	46.76
242.689	32.43
242.907	73.39
243.124	-10.58
243.341	22.19
243.558	-55.64
243.775	32.43
243.992	18.09
244.209	38.57
244.426	102.06
244.643	52.91
244.86	32.43
245.078	151.21
245.295	91.82
245.512	44.71
245.729	-125.27
245.946	114.34
246.163	81.58
246.38	28.33
246.597	59.05
246.814	79.53
247.031	89.77
247.248	149.16
247.464	118.44
247.681	7.85
247.898	9.9
248.115	81.58
248.332	1.71
248.549	75.43
248.766	177.83
248.983	67.24
249.2	104.11
249.417	100.01
249.633	-4.44
249.85	26.28
250.067	34.47
250.284	57
250.501	169.64
250.717	130.73
250.934	-2.39
251.151	26.28
251.368	1.71
251.585	71.34
251.801	63.15
252.018	7.85
252.235	30.38
252.451	-43.35
252.668	5.8
252.885	67.24
253.102	89.77
253.318	46.76
253.535	-6.49
253.752	-39.25
253.968	26.28
254.185	-59.73
254.401	81.58
254.618	42.67
254.835	-43.35
255.051	181.93
255.268	89.77
255.484	73.39
255.701	-20.82
255.917	67.24
256.134	7.85
256.351	-0.34
256.567	16.04
256.784	48.81
257	52.91
257.217	71.34
257.433	112.3
257.65	50.86
257.866	171.69
258.082	18.09
258.299	40.62
258.515	9.9
258.732	11.95
258.948	9.9
259.165	75.43
259.381	-4.44
259.597	100.01
259.814	-29.01
260.03	-2.39
260.246	7.85
260.463	63.15
260.679	100.01
260.895	106.15
261.112	114.34
261.328	-10.58
261.544	-14.68
261.761	218.79
261.977	-82.26
262.193	-39.25
262.409	67.24
262.626	83.63
262.842	46.76
263.058	40.62
263.274	69.29
263.49	46.76
263.707	73.39
263.923	75.43
264.139	-65.88
264.355	77.48
264.571	93.87
264.787	67.24
265.004	122.54
265.22	-22.87
265.436	18.09
265.652	26.28
265.868	38.57
266.084	-31.06
266.3	-6.49
266.516	-0.34
266.732	13.99
266.948	67.24
267.164	-20.82
267.38	36.52
267.596	71.34
267.812	171.69
268.028	11.95
268.244	-4.44
268.46	54.95
268.676	48.81
268.892	-14.68
269.108	97.96
269.324	-26.96
269.54	-0.34
269.756	157.35
269.972	-16.73
270.188	-22.87
270.403	-39.25
270.619	9.9
270.835	-6.49
271.051	13.99
271.267	-39.25
271.483	54.95
271.698	69.29
271.914	1.71
272.13	85.67
272.346	30.38
272.562	73.39
272.777	59.05
272.993	-16.73
273.209	-2.39
273.425	73.39
273.64	-39.25
273.856	79.53
274.072	81.58
274.287	-2.39
274.503	71.34
274.719	71.34
274.934	97.96
275.15	-2.39
275.366	126.63
275.581	59.05
275.797	20.14
276.012	32.43
276.228	-22.87
276.444	59.05
276.659	120.49
276.875	38.57
277.09	63.15
277.306	52.91
277.521	38.57
277.737	81.58
277.952	93.87
278.168	-57.68
278.383	65.19
278.599	71.34
278.814	87.72
279.03	69.29
279.245	126.63
279.461	61.1
279.676	63.15
279.892	-4.44
280.107	-53.59
280.322	32.43
280.538	85.67
280.753	-0.34
280.969	16.04
281.184	118.44
281.399	188.07
281.615	36.52
281.83	75.43
282.045	-82.26
282.26	-47.44
282.476	79.53
282.691	30.38
282.906	26.28
283.122	13.99
283.337	42.67
283.552	50.86
283.767	-2.39
283.983	95.91
284.198	-8.53
284.413	95.91
284.628	-24.92
284.843	91.82
285.058	65.19
285.274	26.28
285.489	-22.87
285.704	100.01
285.919	-37.2
286.134	13.99
286.349	24.23
286.564	1.71
286.779	126.63
286.995	-2.39
287.21	-143.7
287.425	95.91
287.64	-35.16
287.855	-10.58
288.07	-112.98
288.285	67.24
288.5	114.34
288.715	95.91
288.93	73.39
289.145	7.85
289.36	130.73
289.575	50.86
289.79	155.3
290.004	79.53
290.219	124.58
290.434	-29.01
290.649	-14.68
290.864	3.75
291.079	24.23
291.294	30.38
291.509	106.15
291.724	38.57
291.938	-14.68
292.153	57
292.368	42.67
292.583	59.05
292.798	95.91
293.012	126.63
293.227	18.09
293.442	75.43
293.657	63.15
293.871	136.87
294.086	128.68
294.301	181.93
294.516	100.01
294.73	100.01
294.945	7.85
295.16	-29.01
295.374	132.78
295.589	143.02
295.804	100.01
296.018	26.28
296.233	130.73
296.447	32.43
296.662	54.95
296.877	124.58
297.091	79.53
297.306	83.63
297.52	-53.59
297.735	116.39
297.949	9.9
298.164	7.85
298.378	-55.64
298.593	-67.92
298.807	-2.39
299.022	63.15
299.236	173.74
299.451	-22.87
299.665	24.23
299.88	38.57
300.094	104.11
300.309	-24.92
300.523	57
300.737	1.71
300.952	42.67
301.166	83.63
301.381	-37.2
301.595	-39.25
301.809	59.05
302.024	7.85
302.238	11.95
302.452	95.91
302.667	61.1
302.881	81.58
303.095	30.38
303.309	18.09
303.524	1.71
303.738	42.67
303.952	-45.4
304.166	34.47
304.381	-37.2
304.595	120.49
304.809	-4.44
305.023	-65.88
305.237	-6.49
305.452	75.43
305.666	126.63
305.88	87.72
306.094	126.63
306.308	108.2
306.522	108.2
306.736	120.49
306.95	3.75
307.164	1.71
307.379	-31.06
307.593	85.67
307.807	83.63
308.021	93.87
308.235	124.58
308.449	-112.98
308.663	9.9
308.877	151.21
309.091	36.52
309.305	77.48
309.519	-55.64
309.733	116.39
309.947	-51.54
310.161	108.2
310.374	83.63
310.588	100.01
310.802	-35.16
311.016	-63.83
311.23	63.15
311.444	1.71
311.658	-41.3
311.872	93.87
312.085	136.87
312.299	161.45
312.513	100.01
312.727	50.86
312.941	3.75
313.154	120.49
313.368	-16.73
313.582	63.15
313.796	54.95
314.009	67.24
314.223	132.78
314.437	75.43
314.651	67.24
314.864	9.9
315.078	30.38
315.292	-49.49
315.505	40.62
315.719	54.95
315.933	42.67
316.146	22.19
316.36	-39.25
316.573	46.76
316.787	30.38
317.001	63.15
317.214	-37.2
317.428	50.86
317.641	-39.25
317.855	50.86
318.068	50.86
318.282	16.04
318.495	153.26
318.709	9.9
318.922	7.85
319.136	77.48
319.349	171.69
319.563	104.11
319.776	106.15
319.99	-61.78
320.203	118.44
320.417	-14.68
320.63	153.26
320.843	173.74
321.057	32.43
321.27	34.47
321.483	73.39
321.697	140.97
321.91	18.09
322.124	75.43
322.337	97.96
322.55	3.75
322.763	122.54
322.977	36.52
323.19	-8.53
323.403	1.71
323.617	73.39
323.83	83.63
324.043	-6.49
324.256	34.47
324.469	-39.25
324.683	167.59
324.896	65.19
325.109	83.63
325.322	-39.25
325.535	77.48
325.748	120.49
325.962	59.05
326.175	140.97
326.388	52.91
326.601	116.39
326.814	-20.82
327.027	91.82
327.24	34.47
327.453	-76.12
327.666	46.76
327.879	116.39
328.092	69.29
328.305	36.52
328.518	30.38
328.731	16.04
328.944	18.09
329.157	59.05
329.37	13.99
329.583	155.3
329.796	145.06
330.009	-39.25
330.222	79.53
330.435	108.2
330.648	5.8
330.861	5.8
331.073	50.86
331.286	102.06
331.499	100.01
331.712	-10.58
331.925	63.15
332.138	-10.58
332.35	136.87
332.563	-55.64
332.776	118.44
332.989	11.95
333.202	32.43
333.414	13.99
333.627	28.33
333.84	22.19
334.053	114.34
334.265	28.33
334.478	13.99
334.691	63.15
334.903	85.67
335.116	-39.25
335.329	-10.58
335.541	110.25
335.754	159.4
335.966	16.04
336.179	42.67
336.392	67.24
336.604	-16.73
336.817	85.67
337.029	30.38
337.242	65.19
337.454	161.45
337.667	7.85
337.88	155.3
338.092	81.58
338.305	63.15
338.517	-49.49
338.729	143.02
338.942	124.58
339.154	-35.16
339.367	-43.35
339.579	-2.39
339.792	-16.73
340.004	54.95
340.217	32.43
340.429	69.29
340.641	16.04
340.854	5.8
341.066	11.95
341.278	140.97
341.491	140.97
341.703	20.14
341.915	7.85
342.128	140.97
342.34	63.15
342.552	-57.68
342.764	-10.58
342.977	-22.87
343.189	40.62
343.401	30.38
343.613	-6.49
343.826	124.58
344.038	-72.02
344.25	-18.77
344.462	5.8
344.674	54.95
344.886	-0.34
345.099	18.09
345.311	87.72
345.523	-2.39
345.735	-51.54
345.947	63.15
346.159	59.05
346.371	67.24
346.583	-6.49
346.795	110.25
347.007	-4.44
347.219	24.23
347.431	5.8
347.643	42.67
347.855	-33.11
348.067	120.49
348.279	-4.44
348.491	-2.39
348.703	100.01
348.915	-39.25
349.127	3.75
349.339	7.85
349.551	-10.58
349.763	63.15
349.975	77.48
350.187	100.01
350.399	149.16
350.61	91.82
350.822	38.57
351.034	71.34
351.246	73.39
351.458	102.06
351.669	75.43
351.881	153.26
352.093	140.97
352.305	106.15
352.517	61.1
352.728	173.74
352.94	79.53
353.152	79.53
353.363	1.71
353.575	20.14
353.787	173.74
353.999	34.47
354.21	186.02
354.422	-10.58
354.633	26.28
354.845	42.67
355.057	128.68
355.268	89.77
355.48	42.67
355.692	36.52
355.903	128.68
356.115	5.8
356.326	-39.25
356.538	102.06
356.749	157.35
356.961	124.58
357.172	71.34
357.384	-117.08
357.595	153.26
357.807	18.09
358.018	-14.68
358.23	-10.58
358.441	97.96
358.653	79.53
358.864	52.91
359.075	52.91
359.287	79.53
359.498	42.67
359.709	34.47
359.921	-12.63
360.132	32.43
360.344	3.75
360.555	3.75
360.766	-0.34
360.977	7.85
361.189	100.01
361.4	44.71
361.611	138.92
361.823	138.92
362.034	40.62
362.245	-80.21
362.456	22.19
362.667	100.01
362.879	38.57
363.09	38.57
363.301	161.45
363.512	26.28
363.723	-26.96
363.935	30.38
364.146	87.72
364.357	-6.49
364.568	36.52
364.779	3.75
364.99	100.01
365.201	-2.39
365.412	140.97
365.623	-12.63
365.834	11.95
366.045	7.85
366.256	71.34
366.467	71.34
366.678	-6.49
366.889	59.05
367.1	-12.63
367.311	67.24
367.522	-14.68
367.733	100.01
367.944	118.44
368.155	46.76
368.366	89.77
368.577	79.53
368.788	112.3
368.999	9.9
369.209	75.43
369.42	200.36
369.631	208.55
369.842	59.05
370.053	-8.53
370.264	73.39
370.474	3.75
370.685	24.23
370.896	57
371.107	108.2
371.317	104.11
371.528	-2.39
371.739	132.78
371.95	61.1
372.16	34.47
372.371	-47.44
372.582	75.43
372.792	11.95
373.003	30.38
373.214	77.48
373.424	38.57
373.635	-55.64
373.846	132.78
374.056	65.19
374.267	40.62
374.477	91.82
374.688	36.52
374.898	11.95
375.109	32.43
375.319	-14.68
375.53	54.95
375.74	26.28
375.951	32.43
376.161	65.19
376.372	100.01
376.582	13.99
376.793	83.63
377.003	24.23
377.214	-24.92
377.424	-8.53
377.635	81.58
377.845	-63.83
378.055	122.54
378.266	5.8
378.476	73.39
378.686	22.19
378.897	40.62
379.107	91.82
379.317	42.67
379.528	9.9
379.738	91.82
379.948	-6.49
380.158	65.19
380.369	59.05
380.579	50.86
380.789	42.67
380.999	108.2
381.21	81.58
381.42	196.26
381.63	63.15
381.84	81.58
382.05	65.19
382.261	124.58
382.471	91.82
382.681	-6.49
382.891	202.41
383.101	89.77
383.311	-6.49
383.521	73.39
383.731	155.3
383.941	104.11
384.151	-8.53
384.361	9.9
384.571	114.34
384.781	120.49
384.991	128.68
385.201	128.68
385.411	67.24
385.621	42.67
385.831	44.71
386.041	46.76
386.251	-31.06
386.461	124.58
386.671	42.67
386.881	30.38
387.091	18.09
387.301	65.19
387.511	-0.34
387.72	16.04
387.93	32.43
388.14	5.8
388.35	69.29
388.56	134.82
388.769	73.39
388.979	40.62
389.189	-14.68
389.399	104.11
389.609	79.53
389.818	73.39
390.028	-39.25
390.238	67.24
390.447	-49.49
390.657	91.82
390.867	59.05
391.076	-55.64
391.286	20.14
391.496	67.24
391.705	46.76
391.915	108.2
392.125	108.2
392.334	1.71
392.544	157.35
392.753	59.05
392.963	-149.84
393.172	67.24
393.382	36.52
393.591	140.97
393.801	65.19
394.01	165.54
394.22	116.39
394.429	89.77
394.639	22.19
394.848	57
395.058	7.85
395.267	79.53
395.477	130.73
395.686	42.67
395.895	194.22
396.105	200.36
396.314	143.02
396.524	44.71
396.733	-0.34
396.942	128.68
397.152	130.73
397.361	108.2
397.57	130.73
397.78	69.29
397.989	16.04
398.198	206.5
398.407	-22.87
398.617	79.53
398.826	89.77
399.035	50.86
399.244	44.71
399.453	112.3
399.663	9.9
399.872	52.91
400.081	-47.44
400.29	175.78
400.499	-2.39
400.708	24.23
400.917	77.48
401.127	79.53
401.336	161.45
401.545	89.77
401.754	122.54
401.963	104.11
402.172	-78.16
402.381	-22.87
402.59	-16.73
402.799	87.72
403.008	81.58
403.217	20.14
403.426	120.49
403.635	-43.35
403.844	-37.2
404.053	77.48
404.262	-8.53
404.471	181.93
404.68	104.11
404.888	77.48
405.097	-18.77
405.306	102.06
405.515	1.71
405.724	-10.58
405.933	38.57
406.142	9.9
406.35	102.06
406.559	1.71
406.768	24.23
406.977	140.97
407.185	46.76
407.394	61.1
407.603	-96.6
407.812	112.3
408.02	136.87
408.229	32.43
408.438	52.91
408.646	13.99
408.855	61.1
409.064	73.39
409.272	20.14
409.481	87.72
409.69	-51.54
409.898	44.71
410.107	40.62
410.315	100.01
410.524	-24.92
410.733	24.23
410.941	100.01
411.15	87.72
411.358	67.24
411.567	75.43
411.775	67.24
411.984	9.9
412.192	112.3
412.401	-31.06
412.609	69.29
412.818	100.01
413.026	145.06
413.234	24.23
413.443	34.47
413.651	3.75
413.86	34.47
414.068	122.54
414.276	95.91
414.485	-12.63
414.693	190.12
414.901	128.68
415.11	106.15
415.318	50.86
415.526	91.82
415.734	175.78
415.943	36.52
416.151	157.35
416.359	93.87
416.567	40.62
416.776	91.82
416.984	97.96
417.192	173.74
417.4	-16.73
417.608	85.67
417.817	-96.6
418.025	132.78
418.233	126.63
418.441	-10.58
418.649	-10.58
418.857	120.49
419.065	108.2
419.273	-10.58
419.481	-45.4
419.689	50.86
419.897	52.91
420.105	5.8
420.313	112.3
420.521	120.49
420.729	128.68
420.937	22.19
421.145	18.09
421.353	83.63
421.561	140.97
421.769	116.39
421.977	50.86
422.185	79.53
422.393	63.15
422.601	32.43
422.809	79.53
423.017	50.86
423.224	69.29
423.432	77.48
423.64	22.19
423.848	91.82
424.056	118.44
424.263	54.95
424.471	81.58
424.679	194.22
424.887	7.85
425.094	83.63
425.302	85.67
425.51	24.23
425.718	89.77
425.925	138.92
426.133	63.15
426.341	173.74
426.548	24.23
426.756	16.04
426.964	124.58
427.171	-8.53
427.379	95.91
427.586	-6.49
427.794	73.39
428.001	91.82
428.209	128.68
428.417	198.31
428.624	136.87
428.832	106.15
429.039	173.74
429.247	71.34
429.454	116.39
429.662	188.07
429.869	81.58
430.076	157.35
430.284	140.97
430.491	155.3
430.699	138.92
430.906	222.89
431.114	140.97
431.321	153.26
431.528	138.92
431.736	177.83
431.943	194.22
432.15	126.63
432.358	167.59
432.565	226.98
432.772	-31.06
432.979	206.5
433.187	87.72
433.394	194.22
433.601	85.67
433.808	210.6
434.016	251.56
434.223	194.22
434.43	151.21
434.637	214.7
434.844	253.61
435.052	181.93
435.259	235.18
435.466	284.33
435.673	269.99
435.88	226.98
436.087	333.48
436.294	323.24
436.501	245.41
436.708	165.54
436.915	226.98
437.122	296.61
437.329	222.89
437.537	214.7
437.743	206.5
437.95	419.49
438.157	327.33
438.364	345.77
438.571	382.63
438.778	405.16
438.985	446.12
439.192	419.49
439.399	376.48
439.606	435.88
439.813	517.79
440.02	558.75
440.227	536.23
440.433	501.41
440.64	466.6
440.847	419.49
441.054	575.14
441.261	671.39
441.467	583.33
441.674	503.46
441.881	618.15
442.088	579.23
442.294	661.15
442.501	689.82
442.708	685.73
442.914	685.73
443.121	822.94
443.328	802.46
443.534	833.18
443.741	761.5
443.948	751.26
444.154	908.96
444.361	951.96
444.568	859.81
444.774	964.25
444.981	872.09
445.187	1054.36
445.394	1070.75
445.6	1076.89
445.807	1164.95
446.013	1056.41
446.22	1050.27
446.426	1269.4
446.633	1316.5
446.839	1482.39
447.046	1287.83
447.252	1457.81
447.459	1457.81
447.665	1418.9
447.871	1515.16
448.078	1744.53
448.284	1685.14
448.491	1750.67
448.697	1851.02
448.903	1926.8
449.11	1896.08
449.316	1975.95
449.522	2135.69
449.728	2188.94
449.935	2252.42
450.141	2266.76
450.347	2356.87
450.553	2348.68
450.76	2332.3
450.966	2612.87
451.172	2553.48
451.378	2770.56
451.584	2844.29
451.791	2987.65
451.997	3167.87
452.203	3208.83
452.409	3364.47
452.615	3397.24
452.821	3329.66
453.027	3409.53
453.233	3890.8
453.44	3749.49
453.646	3937.9
453.852	4081.26
454.058	4345.45
454.264	4245.1
454.47	4716.13
454.676	4732.51
454.882	5070.43
455.088	4914.78
455.294	5086.81
455.5	5441.11
455.705	5727.83
455.911	5815.89
456.117	5961.3
456.323	6149.71
456.529	6233.68
456.735	6749.76
456.941	6923.84
457.147	7071.29
457.352	7247.42
457.558	7480.89
457.764	8187.44
457.97	8142.38
458.176	8590.89
458.381	8959.52
458.587	9149.98
458.793	9465.37
458.999	9563.67
459.204	10761.73
459.41	11218.43
459.616	11025.92
459.821	11527.67
460.027	11986.42
460.233	12553.71
460.438	12711.4
460.644	13559.26
460.85	13927.89
461.055	13948.37
461.261	14730.7
461.466	14681.55
461.672	14777.8
461.878	16522.67
462.083	16459.18
462.289	16752.04
462.494	17364.39
462.7	17573.28
462.905	17847.71
463.111	19389.83
463.316	20315.51
463.522	20503.92
463.727	21036.39
463.932	22060.38
464.138	22353.24
464.343	23399.75
464.549	23594.31
464.754	25695.52
464.959	25945.37
465.165	26635.54
465.37	26342.68
465.575	26420.5
465.781	28103.93
465.986	29218.03
466.191	28591.35
466.397	28607.73
466.602	27862.27
466.807	29787.36
467.012	30639.32
467.218	31087.82
467.423	30948.56
467.628	32009.41
467.833	33381.55
468.038	32836.79
468.244	32398.52
468.449	33596.59
468.654	33383.6
468.859	33041.59
469.064	32974
469.269	32341.18
469.474	32679.1
469.679	33643.69
469.885	32709.82
470.09	33250.48
470.295	33569.96
470.5	32449.72
470.705	32715.96
470.91	32158.91
471.115	31560.91
471.32	32361.66
471.525	31540.43
471.73	30960.85
471.935	30745.81
472.139	29383.91
472.344	30045.41
472.549	29541.61
472.754	28804.34
472.959	28433.66
473.164	27346.19
473.369	27168.01
473.574	27907.33
473.778	27094.29
473.983	26524.95
474.188	26174.75
474.393	25072.94
474.598	25074.99
474.802	24417.59
475.007	24106.3
475.212	23715.14
475.417	22867.28
475.621	22621.52
475.826	22826.32
476.031	22173.02
476.235	21321.06
476.44	21749.09
476.645	20995.43
476.849	20802.93
477.054	20129.14
477.259	20090.23
477.463	19936.63
477.668	19535.23
477.872	19514.75
478.077	18771.34
478.282	18159
478.486	18380.18
478.691	17911.19
478.895	17835.42
479.1	17581.47
479.304	17542.56
479.509	16711.08
479.713	17257.89
479.918	16993.7
480.122	16569.77
480.326	16573.87
480.531	16674.22
480.735	16252.34
480.94	16139.7
481.144	16750
481.348	15816.12
481.553	15859.13
481.757	15529.41
481.961	15734.2
482.166	15992.25
482.37	15470.01
482.574	15336.9
482.778	15271.36
482.983	15211.97
483.187	15173.06
483.391	15029.7
483.595	14691.79
483.8	14476.75
484.004	14718.41
484.208	14536.14
484.412	14452.17
484.616	14132.69
484.821	14050.77
485.025	13667.8
485.229	13596.12
485.433	13458.91
485.637	13448.67
485.841	13082.08
486.045	13104.61
486.249	13034.98
486.453	12735.98
486.657	12338.67
486.861	12305.9
487.065	11761.14
487.269	11939.32
487.473	11341.31
487.677	11615.74
487.881	11671.03
488.085	11257.34
488.289	11163.14
488.493	10843.65
488.697	11038.21
488.901	10333.71
489.105	10264.08
489.309	10081.81
489.512	10100.24
489.716	9963.03
489.92	9512.47
490.124	9526.81
490.328	9604.63
490.531	9252.38
490.735	8910.37
490.939	8977.95
491.143	8664.61
491.346	8422.95
491.55	8455.72
491.754	8265.26
491.958	8132.14
492.161	7990.83
492.365	7994.93
492.569	7824.95
492.772	7714.36
492.976	7603.77
493.18	7548.47
493.383	7611.96
493.587	7272
493.79	7194.17
493.994	7104.06
494.197	7128.64
494.401	7099.97
494.605	7091.77
494.808	6968.9
495.012	6780.48
495.215	6776.39
495.419	6880.83
495.622	6557.25
495.825	6663.75
496.029	6555.21
496.232	6618.69
496.436	6327.88
496.639	6651.46
496.843	6614.6
497.046	6815.3
497.249	6620.74
497.453	6575.69
497.656	6522.44
497.859	6508.1
498.063	6577.73
498.266	6710.85
498.469	6612.55
498.673	6633.03
498.876	6592.07
499.079	6569.54
499.282	6618.69
499.485	6809.15
499.689	6712.9
499.892	6815.3
500.095	6624.84
500.298	6831.68
500.501	6774.34
500.705	7009.86
500.908	7048.77
501.111	7185.98
501.314	7300.67
501.517	7286.33
501.72	7284.28
501.923	7454.26
502.126	7431.74
502.329	7534.14
502.532	7657.01
502.735	7685.69
502.938	7888.43
503.141	7906.87
503.344	7845.43
503.547	8070.7
503.75	8015.41
503.953	8134.19
504.156	8379.95
504.359	8420.91
504.562	8746.53
504.765	8586.79
504.968	8836.64
505.17	8971.81
505.373	8939.04
505.576	9291.29
505.779	9428.51
505.982	9485.85
506.185	10061.33
506.387	9872.92
506.59	9975.31
506.793	10317.33
506.996	10184.21
507.198	10739.21
507.401	10952.2
507.604	10946.05
507.807	11075.07
508.009	11292.16
508.212	11791.86
508.415	11869.69
508.617	12092.91
508.82	12348.91
509.022	12260.85
509.225	12750.31
509.428	13137.38
509.63	13358.56
509.833	13407.71
510.035	13975
510.238	13934.04
510.44	14378.45
510.643	14945.73
510.845	15146.44
511.048	15097.28
511.25	15676.86
511.453	16041.4
511.655	16655.79
511.858	16774.57
512.06	17112.49
512.262	17462.69
512.465	17771.93
512.667	18179.48
512.87	18666.89
513.072	18947.47
513.274	19746.17
513.477	19932.54
513.679	20209.01
513.881	20692.33
514.084	21009.77
514.286	21499.23
514.488	21996.89
514.69	22748.5
514.893	23113.03
515.095	23360.84
515.297	24018.24
515.499	24425.78
515.701	24778.03
515.904	25335.08
516.106	25685.28
516.308	26311.96
516.51	27127.05
516.712	27290.89
516.914	28165.37
517.116	28642.55
517.318	28820.72
517.52	29453.55
517.722	30049.5
517.925	30760.15
518.127	31081.68
518.329	32017.6
518.531	31694.02
518.733	32742.58
518.935	33217.71
519.136	33692.84
519.338	33995.94
519.54	34512.03
519.742	35163.28
519.944	35796.1
520.146	36512.89
520.348	36672.64
520.55	37100.66
520.752	37317.75
520.954	38376.55
521.155	38259.81
521.357	38882.39
521.559	38988.89
521.761	40068.17
521.963	39582.8
522.164	40012.87
522.366	40680.51
522.568	41356.34
522.77	40997.95
522.971	41978.92
523.173	41694.25
523.375	42511.39
523.576	41847.85
523.778	42101.8
523.98	42994.71
524.181	42951.71
524.383	42628.13
524.584	43396.12
524.786	43346.97
524.988	42980.38
525.189	43377.68
525.391	43523.09
525.592	43891.72
525.794	43701.26
525.995	43365.4
526.197	43441.17
526.398	43275.29
526.6	43553.81
526.801	43254.81
527.003	43588.63
527.204	42757.15
527.406	43002.91
527.607	42550.31
527.808	43228.18
528.01	41602.1
528.211	41909.29
528.412	42353.7
528.614	41317.43
528.815	41008.18
529.016	41403.44
529.218	40410.18
529.419	40342.6
529.62	40412.23
529.822	39515.22
530.023	39248.98
530.224	39062.61
530.425	38345.83
530.626	37960.81
530.828	37389.42
531.029	37751.91
531.23	36818.04
531.431	36516.99
531.632	36174.98
531.833	35763.34
532.035	35478.67
532.236	34827.42
532.437	34770.07
532.638	33918.12
532.839	33778.86
533.04	33375.41
533.241	32693.43
533.442	32763.06
533.643	31952.07
533.844	31546.57
534.045	31530.19
534.246	30749.91
534.447	30356.7
534.648	29983.97
534.849	29519.08
535.05	29240.56
535.251	28876.02
535.451	28103.93
535.652	27948.29
535.853	27743.49
536.054	27510.02
536.255	27053.33
536.456	26324.25
536.657	26416.41
536.857	25759.01
537.058	25300.26
537.259	24980.78
537.46	24866.1
537.66	24554.8
537.861	24292.66
538.062	23592.26
538.263	23543.11
538.463	23315.78
538.664	23070.03
538.865	22609.23
539.065	22357.33
539.266	22197.59
539.466	22035.8
539.667	21282.15
539.868	21765.47
540.068	21212.52
540.269	20905.32
540.469	20798.83
540.67	20610.42
540.87	20231.54
541.071	19969.4
541.271	19586.43
541.472	19453.31
541.672	19269
541.873	19121.54
542.073	18294.16
542.274	18818.44
542.474	18292.12
542.675	18124.18
542.875	18156.95
543.075	17601.95
543.276	17382.82
543.476	17434.02
543.676	16962.98
543.877	17200.55
544.077	17085.86
544.277	16571.82
544.478	16479.66
544.678	16321.97
544.878	16049.59
545.078	15816.12
545.279	15566.27
545.479	15564.22
545.679	15384
545.879	15183.3
546.079	15052.23
546.28	14816.71
546.48	14486.99
546.68	14747.08
546.88	14372.3
547.08	14278.1
547.28	14020.05
547.48	13970.9
547.68	13659.61
547.88	13379.04
548.081	13428.19
548.281	13149.67
548.481	12940.77
548.681	12877.29
548.881	12703.21
549.081	12436.97
549.28	12344.81
549.48	12146.16
549.68	12275.18
549.88	12068.34
550.08	11484.67
550.28	11755
550.48	11243.01
550.68	11126.27
550.88	10989.06
551.08	10999.3
551.279	10886.66
551.479	10585.61
551.679	10595.85
551.879	10098.19
552.079	10255.89
552.278	10176.02
552.478	10173.97
552.678	9807.38
552.878	9524.76
553.077	9238.05
553.277	9399.84
553.477	9276.96
553.676	9080.35
553.876	8920.61
554.076	8810.02
554.275	8705.57
554.475	8420.91
554.674	8420.91
554.874	8474.15
555.074	7992.88
555.273	8076.85
555.473	7865.91
555.672	7810.61
555.872	7566.9
556.071	7446.07
556.271	7577.14
556.47	7358.01
556.67	7001.66
556.869	7059.01
557.068	6907.46
557.268	6893.12
557.467	6637.13
557.667	6544.97
557.866	6442.57
558.065	6354.51
558.265	6260.3
558.464	6141.52
558.663	6223.44
558.863	6141.52
559.062	5951.06
559.261	5842.51
559.461	5891.66
559.66	5729.88
559.859	5334.62
560.058	5416.54
560.258	5258.84
560.457	5105.24
560.656	5250.65
560.855	5056.09
561.054	5062.24
561.253	5029.47
561.453	4933.22
561.652	4793.95
561.851	4886.11
562.05	4589.16
562.249	4566.63
562.448	4499.05
562.647	4472.42
562.846	4421.22
563.045	4443.75
563.244	4376.17
563.443	4431.46
563.642	4157.04
563.841	4105.84
564.04	4079.21
564.239	3972.72
564.438	3845.74
564.637	3708.53
564.836	3696.24
565.035	3733.11
565.234	3661.43
565.432	3686
565.631	3651.19
565.83	3616.37
566.029	3470.97
566.228	3548.79
566.427	3438.2
566.625	3339.9
566.824	3184.25
567.023	3337.85
567.222	3174.01
567.42	3171.96
567.619	3182.2
567.818	3067.52
568.016	3114.62
568.215	2946.69
568.414	2829.95
568.612	2975.36
568.811	2870.91
569.01	2918.01
569.208	2840.19
569.407	2758.27
569.605	2666.11
569.804	2670.21
570.002	2502.28
570.201	2516.61
570.4	2516.61
570.598	2524.8
570.797	2522.76
570.995	2449.03
571.193	2309.77
571.392	2227.85
571.59	2223.75
571.789	2399.88
571.987	2350.73
572.186	2309.77
572.384	2092.68
572.582	2307.72
572.781	2295.43
572.979	2102.92
573.177	2031.24
573.376	2045.58
573.574	2188.94
573.772	2031.24
573.971	1930.89
574.169	1844.88
574.367	1916.56
574.565	1795.73
574.763	1988.24
574.962	1922.7
575.16	1732.24
575.358	1742.48
575.556	1719.95
575.754	1859.21
575.952	1601.17
576.151	1746.58
576.349	1824.4
576.547	1476.24
576.745	1531.54
576.943	1619.6
577.141	1652.37
577.339	1468.05
577.537	1498.77
577.735	1429.14
577.933	1384.09
578.131	1392.28
578.329	1539.73
578.527	1351.32
578.725	1388.18
578.923	1300.12
579.121	1308.31
579.319	1152.67
579.516	1210.01
579.714	1427.09
579.912	1242.78
580.11	1132.19
580.308	1220.25
580.506	1218.2
580.704	1005.21
580.901	1048.22
581.099	1263.26
581.297	1109.66
581.495	1111.71
581.692	1074.84
581.89	1248.92
582.088	960.16
582.285	1060.51
582.483	1011.36
582.681	1001.12
582.878	937.63
583.076	1060.51
583.274	917.15
583.471	980.64
583.669	1013.4
583.866	886.43
584.064	947.87
584.262	847.52
584.459	865.95
584.657	859.81
584.854	894.62
585.052	917.15
585.249	904.86
585.447	960.16
585.644	804.51
585.841	816.8
586.039	949.92
586.236	908.96
586.434	765.6
586.631	757.41
586.828	792.22
587.026	794.27
587.223	630.43
587.42	743.07
587.618	788.13
587.815	767.65
588.012	673.44
588.21	716.45
588.407	648.86
588.604	706.21
588.801	638.62
588.999	673.44
589.196	747.17
589.393	601.76
589.59	734.88
589.787	683.68
589.984	624.29
590.182	657.06
590.379	605.86
590.576	628.39
590.773	689.82
590.97	616.1
591.167	603.81
591.364	691.87
591.561	669.34
591.758	657.06
591.955	698.02
592.152	601.76
592.349	597.67
592.546	517.79
592.743	634.53
592.94	626.34
593.137	620.19
593.334	689.82
593.531	581.28
593.727	581.28
593.924	663.2
594.121	577.19
594.318	581.28
594.515	726.69
594.712	712.35
594.908	827.04
595.105	499.36
595.302	693.92
595.499	605.86
595.696	775.84
595.892	599.71
596.089	775.84
596.286	632.48
596.482	749.22
596.679	769.69
596.876	640.67
597.072	849.57
597.269	786.08
597.466	820.89
597.662	824.99
597.859	833.18
598.055	915.1
598.252	958.11
598.448	1037.98
598.645	1050.27
598.841	939.68
599.038	1164.95
599.234	1169.05
599.431	1193.62
599.627	1269.4
599.824	1253.02
600.02	1289.88
600.217	1140.38
600.413	1361.56
600.609	1468.05
600.806	1697.42
601.002	1582.74
601.198	1623.7
601.395	1703.57
601.591	1746.58
601.787	1681.04
601.984	1789.58
602.18	1959.56
602.376	1871.5
602.572	1934.99
602.769	2193.03
602.965	2012.81
603.161	2190.99
603.357	2367.11
603.553	2451.08
603.75	2512.52
603.946	2573.96
604.142	2692.74
604.338	2815.62
604.534	2782.85
604.73	2797.18
604.926	3008.12
605.122	3343.99
605.318	3233.4
605.514	3180.15
605.71	3399.29
605.906	3556.98
606.102	3520.12
606.298	3729.01
606.494	3958.38
606.69	4144.75
606.886	4040.3
607.082	4226.67
607.278	4253.29
607.474	4482.66
607.67	4660.84
607.866	4548.2
608.062	5000.8
608.257	5072.48
608.453	5152.35
608.649	5297.75
608.845	5310.04
609.041	5533.27
609.236	5686.87
609.432	5852.75
609.628	5998.16
609.824	6057.55
610.019	6239.82
610.215	6504.01
610.411	6780.48
610.606	6970.94
610.802	6948.42
610.998	7315
611.193	7507.51
611.389	7568.95
611.584	7902.77
611.78	7988.78
611.976	8250.92
612.171	8689.19
612.367	8789.54
612.562	8900.13
612.758	8916.51
612.953	9403.93
613.149	9500.19
613.344	9811.48
613.539	10278.41
613.735	10370.57
613.93	10538.51
614.126	10903.04
614.321	11232.77
614.517	11648.5
614.712	11750.9
614.907	12187.12
615.103	12328.43
615.298	12692.97
615.493	13041.12
615.688	13409.76
615.884	13944.28
616.079	14015.96
616.274	14288.34
616.47	14527.95
616.665	15171.01
616.86	15625.66
617.055	15779.26
617.25	16006.58
617.445	16868.78
617.641	16831.91
617.836	17452.45
618.031	17800.6
618.226	18650.51
618.421	18478.48
618.616	19539.33
618.811	19391.87
619.006	20577.65
619.201	20540.79
619.396	21108.07
619.591	20936.04
619.786	22482.26
619.981	22119.77
620.176	23002.44
620.371	23047.5
620.566	24118.59
620.761	24493.36
620.956	25251.11
621.151	25228.59
621.346	25996.57
621.541	26158.36
621.735	26897.68
621.93	27047.18
622.125	27882.75
622.32	27561.22
622.515	28806.39
622.709	29297.9
622.904	29752.55
623.099	30307.55
623.294	31057.1
623.488	31282.38
623.683	32183.49
623.878	31849.67
624.072	33051.83
624.267	33420.46
624.462	33997.99
624.656	34022.56
624.851	35118.23
625.046	35138.71
625.24	36019.33
625.435	35994.76
625.629	36457.6
625.824	37375.09
626.018	37905.51
626.213	37549.17
626.407	38544.48
626.602	38902.87
626.796	39595.09
626.991	40066.12
627.185	40221.76
627.38	40553.54
627.574	40660.03
627.768	40811.58
627.963	40842.3
628.157	40961.08
628.352	41217.08
628.546	41407.54
628.74	41387.06
628.935	41243.7
629.129	41620.53
629.323	40952.89
629.517	41188.41
629.712	40813.63
629.906	40883.26
630.1	40272.96
630.294	39955.53
630.489	39023.7
630.683	39398.48
630.877	37923.94
631.071	37958.76
631.265	37598.32
631.459	36332.67
631.653	35568.78
631.848	35142.8
632.042	34323.61
632.236	33498.28
632.43	32562.36
632.624	31861.96
632.818	31208.65
633.012	29770.98
633.206	29099.25
633.4	28464.38
633.594	26973.46
633.788	26490.13
633.982	25589.03
634.176	24937.77
634.369	23799.1
634.563	22711.63
634.757	21568.87
634.951	21407.08
635.145	20643.18
635.339	19611.01
635.533	18744.72
635.726	18122.13
635.92	16962.98
636.114	16520.62
636.308	15910.33
636.501	15525.31
636.695	15060.42
636.889	13786.58
637.083	13465.05
637.276	13084.13
637.47	12172.78
637.664	11900.41
637.857	11625.98
638.051	11052.55
638.244	10583.56
638.438	10237.45
638.632	10145.3
638.825	9397.79
639.019	9018.91
639.212	8541.74
639.406	8304.17
639.599	7968.31
639.793	7777.84
639.986	7284.28
640.18	7157.31
640.373	6989.38
640.567	6510.15
640.76	6329.93
640.954	6139.47
641.147	5760.59
641.34	5557.85
641.534	5400.15
641.727	5418.58
641.92	5162.59
642.114	4867.68
642.307	4632.16
642.5	4603.49
642.694	4130.41
642.887	4226.67
643.08	4142.7
643.273	4036.21
643.467	3702.39
643.66	3708.53
643.853	3409.53
644.046	3511.93
644.239	3223.16
644.432	3081.85
644.626	2866.81
644.819	2858.62
645.012	2731.65
645.205	2723.46
645.398	2537.09
645.591	2555.52
645.784	2289.29
645.977	2229.9
646.17	2139.79
646.363	2199.18
646.556	2098.83
646.749	1783.44
646.942	1861.26
647.135	1730.19
647.328	1689.23
647.521	1658.51
647.714	1595.03
647.907	1506.96
648.099	1388.18
648.292	1369.75
648.485	1386.13
648.678	1304.21
648.871	1279.64
649.064	1246.87
649.256	1144.47
649.449	1140.38
649.642	1025.69
649.835	1040.03
650.027	976.54
650.22	1025.69
650.413	949.92
650.605	937.63
650.798	868
650.991	923.29
651.183	913.05
651.376	859.81
651.568	810.65
651.761	798.37
651.954	804.51
652.146	640.67
652.339	732.83
652.531	636.58
652.724	597.67
652.916	562.85
653.109	544.42
653.301	652.96
653.494	626.34
653.686	509.6
653.879	706.21
654.071	620.19
654.263	468.64
654.456	411.3
654.648	499.36
654.84	446.12
655.033	433.83
655.225	566.95
655.417	351.91
655.61	597.67
655.802	482.98
655.994	495.27
656.186	304.81
656.379	517.79
656.571	474.79
656.763	415.4
656.955	337.57
657.148	360.1
657.34	259.75
657.532	259.75
657.724	300.71
657.916	394.92
658.108	356.01
658.3	370.34
658.492	378.53
658.684	276.13
658.876	388.77
659.068	237.22
659.26	181.93
659.452	257.7
659.644	280.23
659.836	347.81
660.028	222.89
660.22	243.37
660.412	212.65
660.604	259.75
660.796	304.81
660.988	308.9
661.18	206.5
661.372	263.85
661.563	204.46
661.755	233.13
661.947	165.54
662.139	175.78
662.331	138.92
662.522	233.13
662.714	157.35
662.906	190.12
663.097	161.45
663.289	143.02
663.481	140.97
663.673	169.64
663.864	179.88
664.056	255.65
664.247	140.97
664.439	288.42
664.631	194.22
664.822	274.09
665.014	179.88
665.205	132.78
665.397	138.92
665.588	247.46
665.78	140.97
665.971	247.46
666.163	106.15
666.354	222.89
666.546	128.68
666.737	186.02
666.929	173.74
667.12	194.22
667.311	212.65
667.503	159.4
667.694	190.12
667.885	212.65
668.077	159.4
668.268	85.67
668.459	179.88
668.651	276.13
668.842	173.74
669.033	147.11
669.224	165.54
669.416	276.13
669.607	130.73
669.798	112.3
669.989	255.65
670.18	159.4
670.371	147.11
670.563	40.62
670.754	173.74
670.945	171.69
671.136	149.16
671.327	212.65
671.518	218.79
671.709	294.57
671.9	196.26
672.091	200.36
672.282	196.26
672.473	177.83
672.664	85.67
672.855	190.12
673.046	194.22
673.237	226.98
673.428	167.59
673.619	220.84
673.809	124.58
674	214.7
674.191	226.98
674.382	183.98
674.573	177.83
674.764	155.3
674.954	196.26
675.145	149.16
675.336	118.44
675.527	214.7
675.717	208.55
675.908	210.6
676.099	155.3
676.289	128.68
676.48	87.72
676.671	179.88
676.861	165.54
677.052	261.8
677.243	161.45
677.433	149.16
677.624	157.35
677.814	126.63
678.005	198.31
678.195	261.8
678.386	186.02
678.576	272.04
678.767	161.45
678.957	247.46
679.148	239.27
679.338	243.37
679.529	222.89
679.719	179.88
679.909	327.33
680.1	241.32
680.29	274.09
680.481	140.97
680.671	294.57
680.861	288.42
681.052	181.93
681.242	259.75
681.432	315.05
681.622	339.62
681.813	226.98
682.003	249.51
682.193	77.48
682.383	214.7
682.573	214.7
682.764	112.3
682.954	263.85
683.144	349.86
683.334	212.65
683.524	288.42
683.714	300.71
683.904	239.27
684.094	290.47
684.284	255.65
684.474	394.92
684.664	319.14
684.854	261.8
685.044	284.33
685.234	259.75
685.424	362.15
685.614	226.98
685.804	325.29
685.994	366.25
686.184	202.41
686.374	288.42
686.564	310.95
686.753	222.89
686.943	196.26
687.133	237.22
687.323	263.85
687.513	353.96
687.702	247.46
687.892	278.18
688.082	304.81
688.272	267.94
688.461	292.52
688.651	333.48
688.841	323.24
689.03	313
689.22	267.94
689.41	313
689.599	229.03
689.789	241.32
689.979	360.1
690.168	286.37
690.358	313
690.547	231.08
690.737	333.48
690.926	239.27
691.116	331.43
691.305	353.96
691.495	294.57
691.684	274.09
691.874	212.65
692.063	222.89
692.252	296.61
692.442	288.42
692.631	231.08
692.82	163.5
693.01	335.53
693.199	204.46
693.388	237.22
693.578	200.36
693.767	249.51
693.956	401.06
694.146	267.94
694.335	247.46
694.524	280.23
694.713	349.86
694.902	233.13
695.092	239.27
695.281	313
695.47	253.61
695.659	255.65
695.848	231.08
696.037	208.55
696.226	179.88
696.415	216.74
696.604	378.53
696.793	310.95
696.982	149.16
697.171	317.09
697.36	153.26
697.549	194.22
697.738	163.5
697.927	288.42
698.116	206.5
698.305	284.33
698.494	190.12
698.683	200.36
698.872	419.49
699.061	200.36
699.25	210.6
699.438	239.27
699.627	206.5
699.816	351.91
700.005	167.59
700.193	163.5
700.382	204.46
700.571	255.65
700.76	231.08
700.948	280.23
701.137	325.29
701.326	231.08
701.514	188.07
701.703	163.5
701.892	255.65
702.08	388.77
702.269	183.98
702.457	181.93
702.646	222.89
702.834	183.98
703.023	206.5
703.212	257.7
703.4	220.84
703.589	140.97
703.777	290.47
703.965	169.64
704.154	190.12
704.342	161.45
704.531	220.84
704.719	210.6
704.907	245.41
705.096	196.26
705.284	179.88
705.472	274.09
705.661	235.18
705.849	315.05
706.037	286.37
706.226	214.7
706.414	229.03
706.602	151.21
706.79	175.78
706.979	155.3
707.167	239.27
707.355	183.98
707.543	235.18
707.731	210.6
707.919	208.55
708.107	190.12
708.296	149.16
708.484	186.02
708.672	226.98
708.86	241.32
709.048	243.37
709.236	147.11
709.424	267.94
709.612	229.03
709.8	153.26
709.988	239.27
710.176	282.28
710.364	294.57
710.551	231.08
710.739	276.13
710.927	214.7
711.115	138.92
711.303	280.23
711.491	323.24
711.679	153.26
711.866	267.94
712.054	161.45
712.242	280.23
712.43	329.38
712.617	233.13
712.805	319.14
712.993	278.18
713.181	149.16
713.368	394.92
713.556	218.79
713.744	247.46
713.931	431.78
714.119	341.67
714.306	224.94
714.494	186.02
714.682	274.09
714.869	155.3
715.057	179.88
715.244	161.45
715.432	276.13
715.619	253.61
715.807	224.94
715.994	229.03
716.182	231.08
716.369	261.8
716.556	243.37
716.744	171.69
716.931	263.85
717.119	259.75
717.306	202.41
717.493	313
717.681	186.02
717.868	214.7
718.055	302.76
718.242	278.18
718.43	337.57
718.617	308.9
718.804	247.46
718.991	343.72
719.179	296.61
719.366	341.67
719.553	288.42
719.74	272.04
719.927	317.09
720.114	286.37
720.301	259.75
720.488	247.46
720.676	284.33
720.863	382.63
721.05	401.06
721.237	427.68
721.424	263.85
721.611	269.99
721.798	218.79
721.985	265.89
722.172	226.98
722.358	321.19
722.545	329.38
722.732	253.61
722.919	378.53
723.106	292.52
723.293	263.85
723.48	351.91
723.667	274.09
723.853	304.81
724.04	294.57
724.227	431.78
724.414	296.61
724.6	370.34
724.787	487.08
724.974	366.25
725.161	329.38
725.347	214.7
725.534	306.85
725.72	368.29
725.907	360.1
726.094	282.28
726.28	296.61
726.467	310.95
726.653	179.88
726.84	376.48
727.027	390.82
727.213	267.94
727.4	425.64
727.586	378.53
727.773	341.67
727.959	317.09
728.145	374.44
728.332	310.95
728.518	284.33
728.705	376.48
728.891	337.57
729.077	313
729.264	376.48
729.45	286.37
729.636	468.64
729.823	349.86
730.009	374.44
730.195	392.87
730.382	417.44
730.568	331.43
730.754	333.48
730.94	343.72
731.126	274.09
731.313	417.44
731.499	304.81
731.685	450.21
731.871	435.88
732.057	454.31
732.243	497.32
732.429	288.42
732.615	384.68
732.801	464.55
732.987	304.81
733.173	448.16
733.359	319.14
733.545	415.4
733.731	286.37
733.917	456.36
734.103	362.15
734.289	421.54
734.475	370.34
734.661	575.14
734.847	472.74
735.033	442.02
735.219	437.92
735.404	360.1
735.59	382.63
735.776	353.96
735.962	458.4
736.148	460.45
736.333	452.26
736.519	425.64
736.705	390.82
736.89	386.72
737.076	435.88
737.262	349.86
737.447	392.87
737.633	376.48
737.819	450.21
738.004	403.11
738.19	360.1
738.375	470.69
738.561	468.64
738.747	394.92
738.932	405.16
739.118	571.04
739.303	491.17
739.489	472.74
739.674	374.44
739.859	376.48
740.045	530.08
740.23	517.79
740.416	374.44
740.601	433.83
740.786	358.05
740.972	390.82
741.157	396.96
741.342	423.59
741.528	444.07
741.713	538.27
741.898	290.47
742.084	415.4
742.269	403.11
742.454	448.16
742.639	554.66
742.824	417.44
743.01	464.55
743.195	505.51
743.38	409.25
743.565	425.64
743.75	407.2
743.935	442.02
744.12	394.92
744.305	444.07
744.49	337.57
744.675	444.07
744.86	435.88
745.045	435.88
745.23	458.4
745.415	444.07
745.6	470.69
745.785	356.01
745.97	358.05
746.155	446.12
746.34	419.49
746.525	480.93
746.71	489.12
746.895	323.24
747.079	431.78
747.264	308.9
747.449	415.4
747.634	452.26
747.819	429.73
748.003	280.23
748.188	329.38
748.373	442.02
748.557	368.29
748.742	399.01
748.927	425.64
749.111	356.01
749.296	288.42
749.481	378.53
749.665	399.01
749.85	374.44
750.034	306.85
750.219	419.49
750.404	341.67
750.588	386.72
750.773	356.01
750.957	358.05
751.141	308.9
751.326	446.12
751.51	255.65
751.695	337.57
751.879	360.1
752.064	431.78
752.248	384.68
752.432	474.79
752.617	417.44
752.801	388.77
752.985	249.51
753.17	396.96
753.354	317.09
753.538	394.92
753.722	280.23
753.907	243.37
754.091	292.52
754.275	358.05
754.459	292.52
754.643	247.46
754.828	247.46
755.012	310.95
755.196	255.65
755.38	280.23
755.564	245.41
755.748	226.98
755.932	341.67
756.116	257.7
756.3	327.33
756.484	196.26
756.668	368.29
756.852	245.41
757.036	282.28
757.22	351.91
757.404	222.89
757.588	198.31
757.772	376.48
757.956	173.74
758.14	333.48
758.323	214.7
758.507	224.94
758.691	282.28
758.875	310.95
759.059	294.57
759.242	235.18
759.426	222.89
759.61	259.75
759.794	220.84
759.977	206.5
760.161	392.87
760.345	313
760.528	313
760.712	259.75
760.895	269.99
761.079	208.55
761.263	85.67
761.446	214.7
761.63	237.22
761.813	310.95
761.997	104.11
762.18	206.5
762.364	231.08
762.547	163.5
762.731	188.07
762.914	177.83
763.098	134.82
763.281	206.5
763.464	210.6
763.648	329.38
763.831	167.59
764.015	198.31
764.198	186.02
764.381	206.5
764.564	212.65
764.748	212.65
764.931	259.75
765.114	151.21
765.297	229.03
765.481	169.64
765.664	145.06
765.847	181.93
766.03	284.33
766.213	157.35
766.397	173.74
766.58	167.59
766.763	206.5
766.946	186.02
767.129	157.35
767.312	183.98
767.495	181.93
767.678	130.73
767.861	204.46
768.044	229.03
768.227	243.37
768.41	173.74
768.593	216.74
768.776	198.31
768.959	188.07
769.142	259.75
769.324	79.53
769.507	200.36
769.69	181.93
769.873	251.56
770.056	218.79
770.239	202.41
770.421	177.83
770.604	255.65
770.787	124.58
770.97	138.92
771.152	100.01
771.335	194.22
771.518	95.91
771.7	214.7
771.883	300.71
772.066	167.59
772.248	226.98
772.431	255.65
772.613	165.54
772.796	130.73
772.978	159.4
773.161	259.75
773.343	145.06
773.526	93.87
773.708	20.14
773.891	95.91
774.073	196.26
774.256	65.19
774.438	214.7
774.621	124.58
774.803	214.7
774.985	75.43
775.168	179.88
775.35	159.4
775.532	194.22
775.715	50.86
775.897	136.87
776.079	110.25
776.261	161.45
776.444	61.1
776.626	24.23
776.808	91.82
776.99	38.57
777.173	95.91
777.355	132.78
777.537	175.78
777.719	108.2
777.901	75.43
778.083	65.19
778.265	106.15
778.447	145.06
778.629	13.99
778.811	108.2
778.993	190.12
779.175	177.83
779.357	102.06
779.539	-29.01
779.721	192.17
779.903	181.93
780.085	130.73
780.267	116.39
780.449	124.58
780.631	165.54
780.812	149.16
780.994	145.06
781.176	100.01
781.358	-47.44
781.54	42.67
781.721	128.68
781.903	81.58
782.085	-61.78
782.267	128.68
782.448	-35.16
782.63	-41.3
782.812	112.3
782.993	124.58
783.175	91.82
783.357	97.96
783.538	83.63
783.72	83.63
783.901	112.3
784.083	134.82
784.264	89.77
784.446	-14.68
784.627	46.76
784.809	83.63
784.99	-18.77
785.172	57
785.353	81.58
785.535	130.73
785.716	46.76
785.897	-20.82
786.079	42.67
786.26	77.48
786.441	87.72
786.623	36.52
786.804	46.76
786.985	26.28
787.167	126.63
787.348	112.3
787.529	28.33
787.71	140.97
787.891	59.05
788.073	46.76
788.254	-26.96
788.435	126.63
788.616	42.67
788.797	-20.82
788.978	77.48
789.159	100.01
789.34	79.53
789.522	59.05
789.703	18.09
789.884	16.04
790.065	79.53
790.246	134.82
790.427	5.8
790.607	159.4
790.788	136.87
790.969	83.63
791.15	130.73
791.331	-55.64
791.512	85.67
791.693	67.24
791.874	18.09
792.054	130.73
792.235	130.73
792.416	79.53
792.597	50.86
792.778	91.82
792.958	73.39
793.139	57
793.32	95.91
793.5	-63.83
793.681	67.24
793.862	50.86
794.042	26.28
794.223	34.47
794.404	40.62
794.584	-6.49
794.765	38.57
794.945	87.72
795.126	75.43
795.306	75.43
795.487	-55.64
795.667	40.62
795.848	59.05
796.028	-4.44
796.209	38.57
796.389	79.53
796.57	91.82
796.75	52.91
796.93	108.2
797.111	42.67
797.291	-8.53
797.471	112.3
797.652	-14.68
797.832	-14.68
798.012	52.91
798.192	-26.96
798.373	-57.68
798.553	-10.58
798.733	100.01
798.913	-16.73
799.093	7.85
799.274	46.76
799.454	75.43
799.634	89.77
799.814	50.86
799.994	71.34
800.174	100.01
800.354	24.23
800.534	-39.25
800.714	63.15
800.894	5.8
801.074	-29.01
801.254	-10.58
801.434	73.39
801.614	81.58
801.794	-14.68
801.974	1640.08
802.154	32.43
802.334	36.52
802.514	73.39
802.693	26.28
802.873	18.09
803.053	167.59
803.233	59.05
803.413	106.15
803.592	9.9
803.772	50.86
803.952	-16.73
804.131	-39.25
804.311	100.01
804.491	91.82
804.67	34.47
804.85	-76.12
805.03	50.86
805.209	157.35
805.389	24.23
805.568	-29.01
805.748	3.75
805.928	-2.39
806.107	69.29
806.287	34.47
806.466	22.19
806.646	9.9
806.825	18.09
807.004	28.33
807.184	57
807.363	46.76
807.543	-22.87
807.722	24.23
807.901	175.78
808.081	13.99
808.26	-45.4
808.439	-8.53
808.619	59.05
808.798	-6.49
808.977	34.47
809.156	65.19
809.336	81.58
809.515	89.77
809.694	-37.2
809.873	3.75
810.052	81.58
810.231	110.25
810.411	61.1
810.59	34.47
810.769	42.67
810.948	65.19
811.127	-20.82
811.306	13.99
811.485	-84.31
811.664	116.39
811.843	34.47
812.022	32.43
812.201	42.67
812.38	34.47
812.559	-31.06
812.737	1.71
812.916	-106.84
813.095	-39.25
813.274	67.24
813.453	42.67
813.632	75.43
813.811	65.19
813.989	-112.98
814.168	54.95
814.347	-145.75
814.526	-24.92
814.704	30.38
814.883	75.43
815.062	-61.78
815.24	91.82
815.419	-26.96
815.598	81.58
815.776	-112.98
815.955	-22.87
816.133	-90.45
816.312	54.95
816.49	-84.31
816.669	48.81
816.847	-35.16
817.026	20.14
817.204	38.57
817.383	-20.82
817.561	-53.59
817.74	1.71
817.918	106.15
818.097	5.8
818.275	-6.49
818.453	93.87
818.632	42.67
818.81	-0.34
818.988	32.43
819.167	-12.63
819.345	-33.11
819.523	-2.39
819.701	9.9
819.879	42.67
820.058	50.86
820.236	83.63
820.414	-20.82
820.592	-16.73
820.77	46.76
820.948	3.75
821.127	22.19
821.305	24.23
821.483	-8.53
821.661	67.24
821.839	81.58
822.017	-0.34
822.195	-8.53
822.373	102.06
822.551	13.99
822.729	83.63
822.907	-12.63
823.085	42.67
823.262	-29.01
823.44	32.43
823.618	-90.45
823.796	-0.34
823.974	36.52
824.152	-102.74
824.329	65.19
824.507	30.38
824.685	81.58
824.863	-12.63
825.04	-63.83
825.218	59.05
825.396	11.95
825.574	-2.39
825.751	83.63
825.929	24.23
826.107	-57.68
826.284	5.8
826.462	52.91
826.639	-6.49
826.817	-37.2
826.994	54.95
827.172	-82.26
827.349	120.49
827.527	44.71
827.704	9.9
827.882	20.14
828.059	18.09
828.237	-67.92
828.414	42.67
828.591	-39.25
828.769	69.29
828.946	-47.44
829.124	100.01
829.301	59.05
829.478	100.01
829.655	61.1
829.833	26.28
830.01	-41.3
830.187	26.28
830.364	13.99
830.542	40.62
830.719	128.68
830.896	83.63
831.073	63.15
831.25	30.38
831.427	9.9
831.604	-22.87
831.782	67.24
831.959	42.67
832.136	65.19
832.313	36.52
832.49	40.62
832.667	5.8
832.844	-24.92
833.021	95.91
833.198	-0.34
833.374	75.43
833.551	75.43
833.728	-31.06
833.905	59.05
834.082	-106.84
834.259	79.53
834.436	104.11
834.612	-14.68
834.789	26.28
834.966	24.23
835.143	126.63
835.319	-69.97
835.496	83.63
835.673	63.15
835.85	57
836.026	20.14
836.203	138.92
836.38	34.47
836.556	-55.64
836.733	-84.31
836.909	110.25
837.086	-0.34
837.262	-55.64
837.439	-65.88
837.616	-22.87
837.792	-12.63
837.968	3.75
838.145	-112.98
838.321	42.67
838.498	32.43
838.674	79.53
838.851	38.57
839.027	-6.49
839.203	-14.68
839.38	26.28
839.556	-10.58
839.732	40.62
839.909	48.81
840.085	73.39
840.261	22.19
840.437	-0.34
840.614	48.81
840.79	149.16
840.966	59.05
841.142	50.86
841.318	-31.06
841.494	3.75
841.671	63.15
841.847	-53.59
842.023	26.28
842.199	-14.68
842.375	42.67
842.551	-63.83
842.727	-100.69
842.903	136.87
843.079	-43.35
843.255	79.53
843.431	40.62
843.607	81.58
843.783	-43.35
843.959	32.43
844.134	73.39
844.31	118.44
844.486	9.9
844.662	-55.64
844.838	-12.63
845.013	-96.6
845.189	83.63
845.365	-18.77
845.541	22.19
845.716	-65.88
845.892	198.31
846.068	20.14
846.244	-14.68
846.419	5.8
846.595	-31.06
846.77	-63.83
846.946	63.15
847.122	-80.21
847.297	32.43
847.473	93.87
847.648	-176.47
847.824	-4.44
847.999	-162.13
848.175	38.57
848.35	79.53
848.526	83.63
848.701	59.05
848.876	67.24
849.052	3.75
849.227	16.04
849.403	3.75
849.578	5.8
849.753	-4.44
849.929	67.24
850.104	-31.06
850.279	9.9
850.454	-10.58
850.63	61.1
850.805	54.95
850.98	-8.53
851.155	54.95
851.33	63.15
851.505	-55.64
851.681	85.67
851.856	-57.68
852.031	-18.77
852.206	-22.87
852.381	-39.25
852.556	-33.11
852.731	52.91
852.906	46.76
853.081	22.19
853.256	22.19
853.431	46.76
853.606	-74.07
853.781	-86.36
853.956	-88.4
854.131	-37.2
854.305	-96.6
854.48	-20.82
854.655	-49.49
854.83	-104.79
855.005	-18.77
855.18	50.86
855.354	-80.21
855.529	9.9
855.704	-33.11
855.879	67.24
856.053	7.85
856.228	32.43
856.403	-33.11
856.577	71.34
856.752	-0.34
856.926	-33.11
857.101	34.47
857.276	-135.51
857.45	34.47
857.625	36.52
857.799	-8.53
857.974	9.9
858.148	-106.84
858.323	11.95
858.497	5.8
858.672	-33.11
858.846	-74.07
859.02	50.86
859.195	-8.53
859.369	-47.44
859.543	26.28
859.718	20.14
859.892	75.43
860.066	-4.44
860.241	-69.97
860.415	-78.16
860.589	26.28
860.763	-63.83
860.938	-41.3
861.112	24.23
861.286	-43.35
861.46	50.86
861.634	-14.68
861.808	106.15
861.982	-51.54
862.157	-98.64
862.331	-24.92
862.505	-170.32
862.679	-84.31
862.853	-49.49
863.027	30.38
863.201	136.87
863.375	-88.4
863.549	67.24
863.722	13.99
863.896	30.38
864.07	7.85
864.244	-18.77
864.418	54.95
864.592	9.9
864.766	-2.39
864.939	-72.02
865.113	18.09
865.287	120.49
865.461	-100.69
865.634	-0.34
865.808	-0.34
865.982	-0.34
866.156	-112.98
866.329	-51.54
866.503	13.99
866.676	79.53
866.85	9.9
867.024	-133.46
867.197	73.39
867.371	34.47
867.544	26.28
867.718	-49.49
867.891	89.77
868.065	-20.82
868.238	-4.44
868.412	71.34
868.585	3.75
868.759	-104.79
868.932	-18.77
869.105	-41.3
869.279	-29.01
869.452	-57.68
869.625	9.9
869.799	20.14
869.972	-55.64
870.145	-69.97
870.319	67.24
870.492	-65.88
870.665	-31.06
870.838	-41.3
871.011	-96.6
871.185	-31.06
871.358	-59.73
871.531	-31.06
871.704	36.52
871.877	28.33
872.05	30.38
872.223	-63.83
872.396	130.73
872.569	32.43
872.742	-76.12
872.915	50.86
873.088	-59.73
873.261	-18.77
873.434	67.24
873.607	63.15
873.78	87.72
873.953	-29.01
874.126	32.43
874.299	13.99
874.471	-57.68
874.644	-24.92
874.817	-39.25
874.99	124.58
875.163	-2.39
875.335	-0.34
875.508	-129.36
875.681	18.09
875.853	-43.35
876.026	-67.92
876.199	22.19
876.371	32.43
876.544	-117.08
876.717	59.05
876.889	7.85
877.062	50.86
877.234	-16.73
877.407	-29.01
877.579	-2.39
877.752	22.19
877.924	108.2
878.097	46.76
878.269	69.29
878.442	24.23
878.614	-18.77
878.786	26.28
878.959	-31.06
879.131	38.57
879.303	-0.34
879.476	-65.88
879.648	44.71
879.82	1.71
879.993	-115.03
880.165	-16.73
880.337	-31.06
880.509	57
880.681	-20.82
880.854	13.99
881.026	48.81
881.198	83.63
881.37	-39.25
881.542	26.28
881.714	-14.68
881.886	-0.34
882.058	18.09
882.23	-31.06
882.402	-24.92
882.574	1.71
882.746	9.9
882.918	-2.39
883.09	69.29
883.262	57
883.434	-6.49
883.606	-139.6
883.778	-31.06
883.95	77.48
884.122	28.33
884.293	71.34
884.465	-14.68
884.637	34.47
884.809	30.38
884.98	13.99
885.152	-20.82
885.324	46.76
885.496	-26.96
885.667	-16.73
885.839	-18.77
886.011	52.91
886.182	24.23
886.354	7.85
886.525	71.34
886.697	28.33
886.869	18.09
887.04	59.05
887.212	77.48
887.383	149.16
887.555	-2.39
887.726	-102.74
887.897	-43.35
888.069	46.76
888.24	52.91
888.412	75.43
888.583	46.76
888.754	-12.63
888.926	-125.27
889.097	-37.2
889.268	-18.77
889.44	-20.82
889.611	-47.44
889.782	-86.36
889.953	-90.45
890.125	22.19
890.296	-26.96
890.467	-14.68
890.638	26.28
890.809	-8.53
890.98	-139.6
891.151	93.87
891.323	83.63
891.494	-18.77
891.665	-24.92
891.836	40.62
892.007	-22.87
892.178	-12.63
892.349	-65.88
892.52	-20.82
892.691	-65.88
892.862	-67.92
893.032	-106.84
893.203	3.75
893.374	59.05
893.545	52.91
893.716	13.99
893.887	11.95
894.057	-14.68
894.228	-10.58
894.399	-18.77
894.57	42.67
894.74	7.85
894.911	-45.4
895.082	-4.44
895.253	9.9
895.423	-31.06
895.594	46.76
895.764	28.33
895.935	-33.11
896.106	-37.2
896.276	-24.92
896.447	18.09
896.617	-33.11
896.788	-110.93
896.958	-153.94
897.129	-4.44
897.299	-80.21
897.47	48.81
897.64	85.67
897.81	-26.96
897.981	34.47
898.151	-31.06
898.322	89.77
898.492	-31.06
898.662	-82.26
898.832	-65.88
899.003	9.9
899.173	30.38
899.343	9.9
899.513	-45.4
