Data from USB4F104151__119__10-39-58-699.txt Node

Date: Wed Feb 26 10:39:58 EST 2025
User: louis
Spectrometer: USB4F10415
Trigger mode: 4
Integration Time (sec): 1.000000E-1
Scans to average: 1
Electric dark correction enabled: true
Nonlinearity correction enabled: false
Boxcar width: 0
XAxis mode: Wavelengths
Number of Pixels in Spectrum: 3648
>>>>>Begin Spectral Data<<<<<
178.204	-446.8
178.424	-446.8
178.644	-446.8
178.864	-334.16
179.084	-405.84
179.304	24.23
179.524	-67.92
179.744	26.28
179.964	81.58
180.184	24.23
180.404	-49.49
180.624	-76.12
180.844	36.52
181.064	-69.97
181.283	9.9
181.503	30.38
181.723	30.38
181.943	-37.2
182.163	192.17
182.383	9.9
182.602	91.82
182.822	239.27
183.042	122.54
183.262	-33.11
183.482	34.47
183.701	20.14
183.921	54.95
184.141	-31.06
184.361	18.09
184.58	73.39
184.8	36.52
185.02	-10.58
185.239	59.05
185.459	87.72
185.679	138.92
185.898	-115.03
186.118	65.19
186.338	22.19
186.557	145.06
186.777	-41.3
186.997	11.95
187.216	-0.34
187.436	249.51
187.655	93.87
187.875	95.91
188.095	52.91
188.314	69.29
188.534	165.54
188.753	-24.92
188.973	112.3
189.192	173.74
189.412	61.1
189.631	-20.82
189.851	48.81
190.07	171.69
190.29	9.9
190.509	-45.4
190.729	52.91
190.948	134.82
191.168	278.18
191.387	134.82
191.607	61.1
191.826	63.15
192.045	44.71
192.265	-49.49
192.484	91.82
192.704	5.8
192.923	-63.83
193.142	196.26
193.362	77.48
193.581	220.84
193.8	114.34
194.02	69.29
194.239	95.91
194.458	132.78
194.678	11.95
194.897	32.43
195.116	85.67
195.335	79.53
195.555	50.86
195.774	-65.88
195.993	71.34
196.212	91.82
196.432	-10.58
196.651	-26.96
196.87	28.33
197.089	233.13
197.308	59.05
197.528	71.34
197.747	52.91
197.966	28.33
198.185	151.21
198.404	-8.53
198.623	108.2
198.842	110.25
199.062	149.16
199.281	110.25
199.5	122.54
199.719	116.39
199.938	85.67
200.157	67.24
200.376	128.68
200.595	149.16
200.814	73.39
201.033	-6.49
201.252	91.82
201.471	122.54
201.69	122.54
201.909	-14.68
202.128	128.68
202.347	145.06
202.566	24.23
202.785	50.86
203.004	-78.16
203.223	210.6
203.442	-29.01
203.661	-0.34
203.879	42.67
204.098	140.97
204.317	-14.68
204.536	118.44
204.755	91.82
204.974	48.81
205.193	-65.88
205.411	138.92
205.63	77.48
205.849	71.34
206.068	79.53
206.287	30.38
206.505	77.48
206.724	59.05
206.943	16.04
207.162	7.85
207.381	102.06
207.599	5.8
207.818	9.9
208.037	-2.39
208.255	83.63
208.474	61.1
208.693	134.82
208.911	-8.53
209.13	-2.39
209.349	124.58
209.567	50.86
209.786	48.81
210.005	157.35
210.223	130.73
210.442	-96.6
210.661	63.15
210.879	69.29
211.098	34.47
211.316	46.76
211.535	52.91
211.753	20.14
211.972	77.48
212.191	-18.77
212.409	44.71
212.628	85.67
212.846	-76.12
213.065	81.58
213.283	165.54
213.502	11.95
213.72	73.39
213.938	54.95
214.157	22.19
214.375	91.82
214.594	-6.49
214.812	140.97
215.031	-24.92
215.249	57
215.467	97.96
215.686	48.81
215.904	69.29
216.122	85.67
216.341	206.5
216.559	28.33
216.778	87.72
216.996	114.34
217.214	26.28
217.432	52.91
217.651	61.1
217.869	-33.11
218.087	75.43
218.306	32.43
218.524	9.9
218.742	40.62
218.96	75.43
219.179	69.29
219.397	22.19
219.615	235.18
219.833	192.17
220.051	5.8
220.27	130.73
220.488	138.92
220.706	-4.44
220.924	-22.87
221.142	22.19
221.36	110.25
221.578	100.01
221.796	67.24
222.015	30.38
222.233	22.19
222.451	169.64
222.669	-8.53
222.887	40.62
223.105	-63.83
223.323	9.9
223.541	11.95
223.759	108.2
223.977	11.95
224.195	181.93
224.413	73.39
224.631	108.2
224.849	52.91
225.067	165.54
225.285	38.57
225.503	26.28
225.721	-72.02
225.939	48.81
226.157	63.15
226.375	214.7
226.592	9.9
226.81	54.95
227.028	81.58
227.246	91.82
227.464	32.43
227.682	130.73
227.9	89.77
228.117	79.53
228.335	91.82
228.553	-4.44
228.771	-2.39
228.989	36.52
229.206	75.43
229.424	20.14
229.642	-18.77
229.86	-0.34
230.077	134.82
230.295	159.4
230.513	57
230.731	104.11
230.948	212.65
231.166	128.68
231.384	57
231.601	20.14
231.819	151.21
232.037	-39.25
232.254	-14.68
232.472	-37.2
232.689	-33.11
232.907	134.82
233.125	44.71
233.342	-49.49
233.56	13.99
233.777	42.67
233.995	91.82
234.213	147.11
234.43	110.25
234.648	-6.49
234.865	61.1
235.083	73.39
235.3	65.19
235.518	204.46
235.735	196.26
235.953	108.2
236.17	59.05
236.388	71.34
236.605	-12.63
236.822	81.58
237.04	114.34
237.257	77.48
237.475	22.19
237.692	81.58
237.909	44.71
238.127	79.53
238.344	145.06
238.562	77.48
238.779	5.8
238.996	-31.06
239.214	30.38
239.431	48.81
239.648	54.95
239.865	52.91
240.083	104.11
240.3	26.28
240.517	-12.63
240.735	108.2
240.952	159.4
241.169	97.96
241.386	79.53
241.603	69.29
241.821	-2.39
242.038	126.63
242.255	67.24
242.472	-14.68
242.689	81.58
242.907	46.76
243.124	83.63
243.341	5.8
243.558	20.14
243.775	-67.92
243.992	-49.49
244.209	104.11
244.426	145.06
244.643	89.77
244.86	67.24
245.078	83.63
245.295	65.19
245.512	-20.82
245.729	-24.92
245.946	30.38
246.163	97.96
246.38	16.04
246.597	34.47
246.814	102.06
247.031	24.23
247.248	59.05
247.464	124.58
247.681	16.04
247.898	108.2
248.115	77.48
248.332	26.28
248.549	97.96
248.766	214.7
248.983	97.96
249.2	36.52
249.417	138.92
249.633	24.23
249.85	83.63
250.067	132.78
250.284	67.24
250.501	75.43
250.717	83.63
250.934	-39.25
251.151	-10.58
251.368	75.43
251.585	54.95
251.801	71.34
252.018	-69.97
252.235	161.45
252.451	-96.6
252.668	36.52
252.885	106.15
253.102	132.78
253.318	-20.82
253.535	13.99
253.752	-51.54
253.968	-90.45
254.185	-131.41
254.401	54.95
254.618	57
254.835	83.63
255.051	179.88
255.268	9.9
255.484	120.49
255.701	52.91
255.917	85.67
256.134	-6.49
256.351	36.52
256.567	-76.12
256.784	44.71
257	-22.87
257.217	89.77
257.433	110.25
257.65	24.23
257.866	112.3
258.082	-33.11
258.299	-24.92
258.515	54.95
258.732	7.85
258.948	-22.87
259.165	-49.49
259.381	-39.25
259.597	85.67
259.814	-6.49
260.03	30.38
260.246	-33.11
260.463	114.34
260.679	143.02
260.895	81.58
261.112	65.19
261.328	5.8
261.544	46.76
261.761	159.4
261.977	-90.45
262.193	-12.63
262.409	124.58
262.626	20.14
262.842	57
263.058	36.52
263.274	61.1
263.49	97.96
263.707	95.91
263.923	87.72
264.139	-29.01
264.355	81.58
264.571	30.38
264.787	61.1
265.004	112.3
265.22	59.05
265.436	-35.16
265.652	97.96
265.868	83.63
266.084	-59.73
266.3	57
266.516	-37.2
266.732	85.67
266.948	63.15
267.164	67.24
267.38	75.43
267.596	18.09
267.812	235.18
268.028	44.71
268.244	61.1
268.46	44.71
268.676	32.43
268.892	87.72
269.108	-14.68
269.324	-31.06
269.54	-18.77
269.756	91.82
269.972	36.52
270.188	-29.01
270.403	-45.4
270.619	42.67
270.835	83.63
271.051	-0.34
271.267	44.71
271.483	-127.32
271.698	130.73
271.914	28.33
272.13	40.62
272.346	32.43
272.562	110.25
272.777	208.55
272.993	65.19
273.209	-55.64
273.425	81.58
273.64	-37.2
273.856	73.39
274.072	-4.44
274.287	-16.73
274.503	143.02
274.719	143.02
274.934	24.23
275.15	-2.39
275.366	-2.39
275.581	-37.2
275.797	22.19
276.012	102.06
276.228	-29.01
276.444	91.82
276.659	167.59
276.875	42.67
277.09	24.23
277.306	63.15
277.521	145.06
277.737	16.04
277.952	38.57
278.168	-22.87
278.383	79.53
278.599	106.15
278.814	79.53
279.03	83.63
279.245	118.44
279.461	85.67
279.676	153.26
279.892	1.71
280.107	-41.3
280.322	40.62
280.538	120.49
280.753	48.81
280.969	93.87
281.184	48.81
281.399	134.82
281.615	102.06
281.83	46.76
282.045	-84.31
282.26	16.04
282.476	46.76
282.691	77.48
282.906	44.71
283.122	120.49
283.337	1.71
283.552	36.52
283.767	61.1
283.983	145.06
284.198	9.9
284.413	28.33
284.628	-55.64
284.843	132.78
285.058	138.92
285.274	79.53
285.489	-55.64
285.704	93.87
285.919	-69.97
286.134	67.24
286.349	22.19
286.564	13.99
286.779	183.98
286.995	16.04
287.21	-39.25
287.425	48.81
287.64	9.9
287.855	110.25
288.07	-100.69
288.285	120.49
288.5	151.21
288.715	63.15
288.93	48.81
289.145	9.9
289.36	130.73
289.575	18.09
289.79	118.44
290.004	11.95
290.219	151.21
290.434	-20.82
290.649	-0.34
290.864	-49.49
291.079	114.34
291.294	22.19
291.509	116.39
291.724	24.23
291.938	26.28
292.153	116.39
292.368	91.82
292.583	30.38
292.798	93.87
293.012	67.24
293.227	44.71
293.442	-24.92
293.657	104.11
293.871	116.39
294.086	73.39
294.301	245.41
294.516	73.39
294.73	67.24
294.945	-35.16
295.16	-39.25
295.374	69.29
295.589	132.78
295.804	-6.49
296.018	22.19
296.233	110.25
296.447	163.5
296.662	44.71
296.877	112.3
297.091	112.3
297.306	7.85
297.52	-4.44
297.735	85.67
297.949	71.34
298.164	48.81
298.378	108.2
298.593	11.95
298.807	65.19
299.022	73.39
299.236	218.79
299.451	57
299.665	24.23
299.88	118.44
300.094	57
300.309	38.57
300.523	120.49
300.737	28.33
300.952	69.29
301.166	28.33
301.381	-8.53
301.595	-2.39
301.809	34.47
302.024	-6.49
302.238	-84.31
302.452	132.78
302.667	48.81
302.881	136.87
303.095	114.34
303.309	46.76
303.524	40.62
303.738	-4.44
303.952	50.86
304.166	108.2
304.381	-72.02
304.595	155.3
304.809	18.09
305.023	1.71
305.237	48.81
305.452	59.05
305.666	77.48
305.88	91.82
306.094	48.81
306.308	100.01
306.522	145.06
306.736	3.75
306.95	130.73
307.164	-0.34
307.379	81.58
307.593	163.5
307.807	186.02
308.021	143.02
308.235	151.21
308.449	-88.4
308.663	18.09
308.877	237.22
309.091	34.47
309.305	7.85
309.519	-82.26
309.733	147.11
309.947	-84.31
310.161	52.91
310.374	44.71
310.588	112.3
310.802	-0.34
311.016	-29.01
311.23	65.19
311.444	-2.39
311.658	61.1
311.872	114.34
312.085	157.35
312.299	132.78
312.513	87.72
312.727	-26.96
312.941	16.04
313.154	104.11
313.368	85.67
313.582	61.1
313.796	16.04
314.009	-2.39
314.223	138.92
314.437	20.14
314.651	46.76
314.864	32.43
315.078	-29.01
315.292	-108.88
315.505	-4.44
315.719	38.57
315.933	-8.53
316.146	-31.06
316.36	-59.73
316.573	87.72
316.787	169.64
317.001	28.33
317.214	-61.78
317.428	67.24
317.641	-39.25
317.855	-2.39
318.068	73.39
318.282	50.86
318.495	149.16
318.709	108.2
318.922	18.09
319.136	138.92
319.349	67.24
319.563	13.99
319.776	52.91
319.99	-69.97
320.203	73.39
320.417	124.58
320.63	151.21
320.843	208.55
321.057	48.81
321.27	34.47
321.483	124.58
321.697	190.12
321.91	20.14
322.124	48.81
322.337	46.76
322.55	-55.64
322.763	106.15
322.977	-29.01
323.19	20.14
323.403	-8.53
323.617	50.86
323.83	87.72
324.043	-78.16
324.256	77.48
324.469	-16.73
324.683	126.63
324.896	57
325.109	-24.92
325.322	-115.03
325.535	79.53
325.748	151.21
325.962	20.14
326.175	54.95
326.388	91.82
326.601	79.53
326.814	-18.77
327.027	52.91
327.24	100.01
327.453	-100.69
327.666	65.19
327.879	114.34
328.092	52.91
328.305	83.63
328.518	28.33
328.731	36.52
328.944	-35.16
329.157	-4.44
329.37	57
329.583	134.82
329.796	124.58
330.009	-26.96
330.222	87.72
330.435	83.63
330.648	110.25
330.861	20.14
331.073	61.1
331.286	61.1
331.499	32.43
331.712	48.81
331.925	11.95
332.138	157.35
332.35	61.1
332.563	52.91
332.776	102.06
332.989	-0.34
333.202	-12.63
333.414	120.49
333.627	1.71
333.84	18.09
334.053	46.76
334.265	44.71
334.478	44.71
334.691	48.81
334.903	93.87
335.116	-14.68
335.329	67.24
335.541	95.91
335.754	196.26
335.966	9.9
336.179	75.43
336.392	59.05
336.604	46.76
336.817	40.62
337.029	13.99
337.242	46.76
337.454	83.63
337.667	20.14
337.88	104.11
338.092	52.91
338.305	73.39
338.517	-4.44
338.729	120.49
338.942	100.01
339.154	-43.35
339.367	-16.73
339.579	65.19
339.792	-39.25
340.004	61.1
340.217	3.75
340.429	18.09
340.641	-22.87
340.854	40.62
341.066	95.91
341.278	50.86
341.491	136.87
341.703	18.09
341.915	-2.39
342.128	69.29
342.34	26.28
342.552	-10.58
342.764	20.14
342.977	83.63
343.189	106.15
343.401	89.77
343.613	-16.73
343.826	24.23
344.038	1.71
344.25	65.19
344.462	20.14
344.674	50.86
344.886	-0.34
345.099	165.54
345.311	71.34
345.523	22.19
345.735	-76.12
345.947	34.47
346.159	32.43
346.371	67.24
346.583	81.58
346.795	167.59
347.007	42.67
347.219	57
347.431	63.15
347.643	145.06
347.855	-10.58
348.067	116.39
348.279	-41.3
348.491	126.63
348.703	134.82
348.915	18.09
349.127	1.71
349.339	42.67
349.551	-24.92
349.763	163.5
349.975	34.47
350.187	159.4
350.399	126.63
350.61	126.63
350.822	18.09
351.034	16.04
351.246	65.19
351.458	42.67
351.669	95.91
351.881	87.72
352.093	116.39
352.305	110.25
352.517	52.91
352.728	102.06
352.94	97.96
353.152	36.52
353.363	7.85
353.575	42.67
353.787	122.54
353.999	116.39
354.21	46.76
354.422	-41.3
354.633	-35.16
354.845	63.15
355.057	34.47
355.268	46.76
355.48	124.58
355.692	-43.35
355.903	97.96
356.115	-59.73
356.326	-39.25
356.538	134.82
356.749	110.25
356.961	196.26
357.172	20.14
357.384	-22.87
357.595	186.02
357.807	73.39
358.018	42.67
358.23	69.29
358.441	118.44
358.653	118.44
358.864	77.48
359.075	-47.44
359.287	120.49
359.498	120.49
359.709	104.11
359.921	48.81
360.132	67.24
360.344	-24.92
360.555	-39.25
360.766	24.23
360.977	106.15
361.189	130.73
361.4	5.8
361.611	83.63
361.823	75.43
362.034	93.87
362.245	-51.54
362.456	54.95
362.667	196.26
362.879	-74.07
363.09	93.87
363.301	97.96
363.512	-6.49
363.723	18.09
363.935	-16.73
364.146	120.49
364.357	50.86
364.568	-0.34
364.779	40.62
364.99	165.54
365.201	-31.06
365.412	126.63
365.623	-106.84
365.834	-6.49
366.045	38.57
366.256	104.11
366.467	132.78
366.678	52.91
366.889	-35.16
367.1	-29.01
367.311	44.71
367.522	-39.25
367.733	71.34
367.944	130.73
368.155	32.43
368.366	100.01
368.577	65.19
368.788	59.05
368.999	-6.49
369.209	-4.44
369.42	169.64
369.631	194.22
369.842	93.87
370.053	9.9
370.264	59.05
370.474	-61.78
370.685	22.19
370.896	-2.39
371.107	69.29
371.317	97.96
371.528	36.52
371.739	134.82
371.95	89.77
372.16	73.39
372.371	-106.84
372.582	11.95
372.792	42.67
373.003	40.62
373.214	73.39
373.424	124.58
373.635	-4.44
373.846	110.25
374.056	40.62
374.267	69.29
374.477	67.24
374.688	-84.31
374.898	77.48
375.109	69.29
375.319	36.52
375.53	50.86
375.74	91.82
375.951	-16.73
376.161	5.8
376.372	157.35
376.582	40.62
376.793	44.71
377.003	30.38
377.214	59.05
377.424	75.43
377.635	26.28
377.845	-31.06
378.055	79.53
378.266	5.8
378.476	54.95
378.686	40.62
378.897	67.24
379.107	69.29
379.317	132.78
379.528	3.75
379.738	124.58
379.948	-12.63
380.158	61.1
380.369	1.71
380.579	46.76
380.789	38.57
380.999	11.95
381.21	110.25
381.42	210.6
381.63	20.14
381.84	108.2
382.05	20.14
382.261	122.54
382.471	104.11
382.681	116.39
382.891	169.64
383.101	100.01
383.311	9.9
383.521	13.99
383.731	83.63
383.941	171.69
384.151	24.23
384.361	-0.34
384.571	73.39
384.781	77.48
384.991	171.69
385.201	157.35
385.411	81.58
385.621	112.3
385.831	79.53
386.041	44.71
386.251	-6.49
386.461	69.29
386.671	-45.4
386.881	46.76
387.091	50.86
387.301	108.2
387.511	71.34
387.72	143.02
387.93	89.77
388.14	-65.88
388.35	-33.11
388.56	67.24
388.769	87.72
388.979	91.82
389.189	48.81
389.399	-4.44
389.609	83.63
389.818	79.53
390.028	20.14
390.238	63.15
390.447	-37.2
390.657	73.39
390.867	-24.92
391.076	-119.12
391.286	54.95
391.496	11.95
391.705	-45.4
391.915	69.29
392.125	171.69
392.334	-39.25
392.544	145.06
392.753	18.09
392.963	-22.87
393.172	93.87
393.382	34.47
393.591	128.68
393.801	-110.93
394.01	192.17
394.22	138.92
394.429	-2.39
394.639	67.24
394.848	110.25
395.058	87.72
395.267	24.23
395.477	196.26
395.686	67.24
395.895	222.89
396.105	134.82
396.314	112.3
396.524	24.23
396.733	57
396.942	77.48
397.152	-4.44
397.361	46.76
397.57	69.29
397.78	54.95
397.989	57
398.198	157.35
398.407	7.85
398.617	18.09
398.826	97.96
399.035	3.75
399.244	63.15
399.453	134.82
399.663	77.48
399.872	52.91
400.081	-39.25
400.29	140.97
400.499	-16.73
400.708	106.15
400.917	-12.63
401.127	-4.44
401.336	57
401.545	179.88
401.754	163.5
401.963	69.29
402.172	61.1
402.381	-24.92
402.59	7.85
402.799	73.39
403.008	122.54
403.217	61.1
403.426	128.68
403.635	-108.88
403.844	79.53
404.053	7.85
404.262	-4.44
404.471	153.26
404.68	69.29
404.888	18.09
405.097	9.9
405.306	61.1
405.515	40.62
405.724	40.62
405.933	122.54
406.142	112.3
406.35	87.72
406.559	11.95
406.768	81.58
406.977	143.02
407.185	169.64
407.394	110.25
407.603	-92.5
407.812	81.58
408.02	143.02
408.229	-47.44
408.438	22.19
408.646	-92.5
408.855	-20.82
409.064	100.01
409.272	-0.34
409.481	114.34
409.69	-10.58
409.898	-22.87
410.107	44.71
410.315	95.91
410.524	7.85
410.733	18.09
410.941	110.25
411.15	132.78
411.358	147.11
411.567	183.98
411.775	7.85
411.984	59.05
412.192	9.9
412.401	-22.87
412.609	153.26
412.818	167.59
413.026	13.99
413.234	36.52
413.443	77.48
413.651	-6.49
413.86	32.43
414.068	89.77
414.276	153.26
414.485	3.75
414.693	120.49
414.901	149.16
415.11	40.62
415.318	40.62
415.526	-67.92
415.734	85.67
415.943	93.87
416.151	157.35
416.359	7.85
416.567	81.58
416.776	102.06
416.984	79.53
417.192	210.6
417.4	32.43
417.608	1.71
417.817	-20.82
418.025	91.82
418.233	134.82
418.441	-31.06
418.649	-51.54
418.857	102.06
419.065	106.15
419.273	-6.49
419.481	57
419.689	91.82
419.897	-4.44
420.105	-65.88
420.313	95.91
420.521	222.89
420.729	83.63
420.937	-22.87
421.145	-26.96
421.353	95.91
421.561	100.01
421.769	-0.34
421.977	116.39
422.185	73.39
422.393	-0.34
422.601	83.63
422.809	63.15
423.017	89.77
423.224	50.86
423.432	100.01
423.64	30.38
423.848	89.77
424.056	-37.2
424.263	73.39
424.471	-4.44
424.679	138.92
424.887	-69.97
425.094	102.06
425.302	61.1
425.51	46.76
425.718	102.06
425.925	63.15
426.133	-24.92
426.341	147.11
426.548	20.14
426.756	-24.92
426.964	95.91
427.171	-41.3
427.379	-0.34
427.586	-10.58
427.794	85.67
428.001	118.44
428.209	32.43
428.417	153.26
428.624	171.69
428.832	69.29
429.039	57
429.247	44.71
429.454	67.24
429.662	157.35
429.869	100.01
430.076	-0.34
430.284	20.14
430.491	179.88
430.699	75.43
430.906	192.17
431.114	57
431.321	30.38
431.528	102.06
431.736	106.15
431.943	108.2
432.15	83.63
432.358	87.72
432.565	128.68
432.772	-22.87
432.979	218.79
433.187	34.47
433.394	71.34
433.601	40.62
433.808	122.54
434.016	181.93
434.223	65.19
434.43	67.24
434.637	122.54
434.844	163.5
435.052	104.11
435.259	106.15
435.466	118.44
435.673	112.3
435.88	124.58
436.087	167.59
436.294	183.98
436.501	159.4
436.708	73.39
436.915	143.02
437.122	173.74
437.329	48.81
437.537	130.73
437.743	159.4
437.95	188.07
438.157	134.82
438.364	196.26
438.571	106.15
438.778	237.22
438.985	259.75
439.192	294.57
439.399	147.11
439.606	138.92
439.813	222.89
440.02	267.94
440.227	347.81
440.433	302.76
440.64	216.74
440.847	83.63
441.054	212.65
441.261	317.09
441.467	149.16
441.674	114.34
441.881	292.52
442.088	243.37
442.294	396.96
442.501	321.19
442.708	362.15
442.914	310.95
443.121	292.52
443.328	394.92
443.534	403.11
443.741	302.76
443.948	196.26
444.154	396.96
444.361	485.03
444.568	315.05
444.774	360.1
444.981	280.23
445.187	478.88
445.394	366.25
445.6	341.67
445.807	487.08
446.013	536.23
446.22	308.9
446.426	444.07
446.633	478.88
446.839	667.3
447.046	360.1
447.252	648.86
447.459	591.52
447.665	601.76
447.871	603.81
448.078	638.62
448.284	702.11
448.491	671.39
448.697	808.61
448.903	734.88
449.11	837.28
449.316	792.22
449.522	927.39
449.728	794.27
449.935	892.57
450.141	749.22
450.347	999.07
450.553	892.57
450.76	956.06
450.966	1001.12
451.172	1091.23
451.378	1115.8
451.584	1058.46
451.791	1191.58
451.997	1291.93
452.203	1123.99
452.409	1361.56
452.615	1384.09
452.821	1412.76
453.027	1171.1
453.233	1650.32
453.44	1431.19
453.646	1576.59
453.852	1496.72
454.058	1515.16
454.264	1607.31
454.47	1803.92
454.676	1703.57
454.882	1926.8
455.088	1840.78
455.294	2041.48
455.5	2078.35
455.705	2229.9
455.911	2115.21
456.117	2162.31
456.323	2340.49
456.529	2358.92
456.735	2492.04
456.941	2643.59
457.147	2723.46
457.352	2733.7
457.558	2788.99
457.764	3044.99
457.97	3116.67
458.176	3131
458.381	3372.66
458.587	3632.76
458.793	3563.12
458.999	3599.99
459.204	4128.36
459.41	4167.28
459.616	4281.96
459.821	4359.78
460.027	4542.05
460.233	4822.63
460.438	4826.72
460.644	5047.9
460.85	5305.95
461.055	5152.35
461.261	5727.83
461.466	5486.17
461.672	5594.71
461.878	6147.66
462.083	6176.33
462.289	6196.81
462.494	6575.69
462.7	6405.7
462.905	6567.49
463.111	7173.69
463.316	7675.45
463.522	7788.08
463.727	7886.39
463.932	8134.19
464.138	8379.95
464.343	8836.64
464.549	8959.52
464.754	9760.28
464.959	9727.51
465.165	9776.66
465.37	9877.01
465.575	9846.29
465.781	10571.27
465.986	10802.69
466.191	10743.3
466.397	10761.73
466.602	10749.45
466.807	11195.9
467.012	11089.41
467.218	11632.12
467.423	11460.09
467.628	11965.94
467.833	12377.58
468.038	12076.53
468.244	11787.77
468.449	12226.03
468.654	12439.02
468.859	12262.9
469.064	12391.92
469.269	12209.65
469.474	12174.83
469.679	12813.8
469.885	12205.55
470.09	12256.75
470.295	12357.1
470.5	11908.6
470.705	12090.87
470.91	11922.93
471.115	11888.12
471.32	11763.19
471.525	12011
471.73	11490.81
471.935	11269.63
472.139	10784.26
472.344	10759.69
472.549	11044.35
472.754	10663.43
472.959	10472.97
473.164	10184.21
473.369	9887.25
473.574	10386.96
473.778	10317.33
473.983	9741.85
474.188	9606.68
474.393	9414.17
474.598	9287.2
474.802	8945.19
475.007	8812.07
475.212	8771.11
475.417	8300.08
475.621	8457.77
475.826	8271.4
476.031	8105.52
476.235	7970.35
476.44	8015.41
476.645	7568.95
476.849	7583.29
477.054	7298.62
477.259	7294.52
477.463	7286.33
477.668	7419.45
477.872	7112.25
478.077	7077.44
478.282	6491.72
478.486	6598.21
478.691	6506.06
478.895	6532.68
479.1	6606.41
479.304	6377.03
479.509	6133.33
479.713	6387.27
479.918	6331.98
480.122	6069.84
480.326	6129.23
480.531	6125.13
480.735	5758.55
480.94	5932.62
481.144	6053.45
481.348	5684.82
481.553	5930.58
481.757	5543.51
481.961	5752.4
482.166	5731.92
482.37	5740.12
482.574	5463.64
482.778	5529.17
482.983	5600.85
483.187	5570.13
483.391	5508.69
483.595	5287.51
483.8	5199.45
484.004	5428.82
484.208	5252.7
484.412	5394.01
484.616	5289.56
484.821	5316.19
485.025	4939.36
485.229	5111.39
485.433	4990.56
485.637	4877.92
485.841	4845.15
486.045	4716.13
486.249	4787.81
486.453	4658.79
486.657	4451.94
486.861	4396.65
487.065	4322.92
487.269	4386.41
487.473	4163.18
487.677	4245.1
487.881	4419.18
488.085	4001.39
488.289	4101.74
488.493	3786.35
488.697	4073.07
488.901	3759.73
489.105	3716.72
489.309	3647.09
489.512	3757.68
489.716	3718.77
489.92	3636.85
490.124	3567.22
490.328	3446.39
490.531	3333.75
490.735	3421.81
490.939	3262.07
491.143	3262.07
491.346	3118.72
491.55	3116.67
491.754	3075.71
491.958	3032.7
492.161	2993.79
492.365	2885.25
492.569	2696.83
492.772	2637.44
492.976	2729.6
493.18	2719.36
493.383	2791.04
493.587	2745.98
493.79	2745.98
493.994	2473.6
494.197	2567.81
494.401	2582.15
494.605	2522.76
494.808	2547.33
495.012	2619.01
495.215	2623.11
495.419	2489.99
495.622	2514.56
495.825	2508.42
496.029	2432.65
496.232	2432.65
496.436	2467.46
496.639	2473.6
496.843	2360.97
497.046	2385.54
497.249	2586.24
497.453	2369.16
497.656	2348.68
497.859	2455.17
498.063	2520.71
498.266	2522.76
498.469	2336.39
498.673	2330.25
498.876	2457.22
499.079	2502.28
499.282	2428.55
499.485	2784.9
499.689	2596.48
499.892	2502.28
500.095	2444.93
500.298	2549.38
500.501	2455.17
500.705	2569.86
500.908	2672.26
501.111	2623.11
501.314	2752.13
501.517	2653.83
501.72	2721.41
501.923	2815.62
502.126	2717.31
502.329	2741.89
502.532	2903.68
502.735	2719.36
502.938	2866.81
503.141	2850.43
503.344	2952.83
503.547	3133.05
503.75	2946.69
503.953	2977.41
504.156	3284.6
504.359	3257.98
504.562	3108.48
504.765	3294.84
504.968	3214.97
505.17	3407.48
505.373	3387
505.576	3391.09
505.779	3319.42
505.982	3341.94
506.185	3563.12
506.387	3475.06
506.59	3784.3
506.793	3759.73
506.996	3827.31
507.198	3878.51
507.401	3995.25
507.604	4099.69
507.807	4124.27
508.009	4197.99
508.212	4345.45
508.415	4185.71
508.617	4337.26
508.82	4329.06
509.022	4632.16
509.225	4644.45
509.428	4707.94
509.63	4953.7
509.833	4793.95
510.035	5246.55
510.238	5129.82
510.44	5156.44
510.643	5279.32
510.845	5553.75
511.048	5670.48
511.25	5568.09
511.453	5789.27
511.655	6065.74
511.858	6110.8
512.06	6282.83
512.262	6307.4
512.465	6430.28
512.667	6600.26
512.87	6671.94
513.072	6870.59
513.274	6993.47
513.477	7122.49
513.679	7235.13
513.881	7474.74
514.084	7552.57
514.286	7880.24
514.488	7966.26
514.69	8136.24
514.893	8130.09
515.095	8285.74
515.297	8594.98
515.499	8689.19
515.701	8697.38
515.904	9039.39
516.106	9477.66
516.308	9412.12
516.51	9608.73
516.712	9811.48
516.914	10026.51
517.116	10126.86
517.318	10106.38
517.52	10360.33
517.722	10601.99
517.925	10751.49
518.127	10958.34
518.329	11324.93
518.531	11103.75
518.733	11406.84
518.935	11628.03
519.136	11668.98
519.338	12115.44
519.54	12092.91
519.742	12197.36
519.944	12637.67
520.146	12512.75
520.348	12860.9
520.55	12869.09
520.752	12891.62
520.954	13166.05
521.155	13073.89
521.357	13475.29
521.559	13520.35
521.761	13813.21
521.963	13833.69
522.164	13614.55
522.366	13866.46
522.568	14063.06
522.77	14276.05
522.971	14314.96
523.173	14243.28
523.375	14446.03
523.576	14288.34
523.778	14278.1
523.98	14564.81
524.181	14362.06
524.383	14583.24
524.584	14581.2
524.786	14374.35
524.988	14388.69
525.189	14312.91
525.391	14675.4
525.592	14319.06
525.794	14638.54
525.995	14482.89
526.197	14382.54
526.398	14638.54
526.6	14327.25
526.801	14349.78
527.003	13999.57
527.204	13934.04
527.406	14063.06
527.607	14167.51
527.808	13708.76
528.01	13503.96
528.211	13757.91
528.412	13741.53
528.614	13534.68
528.815	13573.6
529.016	13475.29
529.218	13053.41
529.419	13313.5
529.62	12908.01
529.822	12758.5
530.023	12738.02
530.224	12516.84
530.425	12346.86
530.626	12111.35
530.828	12109.3
531.029	11847.16
531.23	11949.56
531.431	11570.68
531.632	11443.71
531.833	11492.86
532.035	11314.69
532.236	11210.24
532.437	10964.48
532.638	10841.61
532.839	10626.57
533.04	10550.79
533.241	10364.43
533.442	10292.75
533.643	10049.04
533.844	9823.76
534.045	9852.44
534.246	9578.01
534.447	9481.75
534.648	9326.11
534.849	9332.25
535.05	8967.71
535.251	8961.57
535.451	8877.6
535.652	8678.95
535.853	8609.32
536.054	8486.44
536.255	8406.57
536.456	8195.63
536.657	8119.85
536.857	7964.21
537.058	7910.96
537.259	7822.9
537.46	7714.36
537.66	7530.04
537.861	7628.34
538.062	7450.17
538.263	7310.91
538.463	7370.3
538.664	7188.03
538.865	6995.52
539.065	7124.54
539.266	6839.87
539.466	6768.2
539.667	6544.97
539.868	6706.76
540.068	6374.99
540.269	6512.2
540.469	6413.9
540.67	6307.4
540.87	6229.58
541.071	6155.85
541.271	6145.61
541.472	6071.89
541.672	5893.71
541.873	5717.59
542.073	5774.93
542.274	5776.98
542.474	5752.4
542.675	5580.37
542.875	5623.38
543.075	5373.53
543.276	5322.33
543.476	5541.46
543.676	5285.47
543.877	5078.62
544.077	5228.12
544.277	5172.83
544.478	5031.52
544.678	4910.69
544.878	4892.26
545.078	4892.26
545.279	4851.3
545.479	4595.3
545.679	4707.94
545.879	4552.29
546.079	4687.46
546.28	4521.57
546.48	4570.72
546.68	4583.01
546.88	4578.92
547.08	4406.89
547.28	4288.11
547.48	4015.73
547.68	4327.02
547.88	4140.65
548.081	4138.6
548.281	3915.37
548.481	3845.74
548.681	3812.98
548.881	3884.66
549.081	3829.36
549.28	3747.44
549.48	3630.71
549.68	3825.26
549.88	3501.69
550.08	3399.29
550.28	3413.62
550.48	3655.28
550.68	3378.81
550.88	3325.56
551.08	3448.44
551.279	3397.24
551.479	3135.1
551.679	3280.5
551.879	3237.5
552.079	3085.95
552.278	2993.79
552.478	3145.34
552.678	3030.65
552.878	3026.56
553.077	2836.1
553.277	2745.98
553.477	2666.11
553.676	2756.22
553.876	2737.79
554.076	2643.59
554.275	2668.16
554.475	2444.93
554.674	2629.25
554.874	2477.7
555.074	2389.64
555.273	2438.79
555.473	2344.58
555.672	2373.25
555.872	2219.66
556.071	2334.34
556.271	2346.63
556.47	2215.56
556.67	2113.16
556.869	2086.54
557.068	2049.68
557.268	2174.6
557.467	2080.39
557.667	2154.12
557.866	2006.67
558.065	1904.27
558.265	1922.7
558.464	1926.8
558.663	1949.32
558.863	1965.71
559.062	1826.45
559.261	1910.41
559.461	1867.41
559.66	1638.03
559.859	1566.35
560.058	1658.51
560.258	1535.64
560.457	1597.07
560.656	1771.15
560.855	1435.28
561.054	1670.8
561.253	1627.79
561.453	1572.5
561.652	1621.65
561.851	1541.78
562.05	1365.65
562.249	1330.84
562.448	1418.9
562.647	1351.32
562.846	1379.99
563.045	1412.76
563.244	1351.32
563.443	1400.47
563.642	1306.26
563.841	1296.02
564.04	1296.02
564.239	1283.74
564.438	1242.78
564.637	1050.27
564.836	1128.09
565.035	1126.04
565.234	1199.77
565.432	1191.58
565.631	1234.58
565.83	1220.25
566.029	1132.19
566.228	1210.01
566.427	1203.86
566.625	992.92
566.824	1040.03
567.023	1048.22
567.222	1050.27
567.42	1003.16
567.619	1076.89
567.818	921.24
568.016	1089.18
568.215	882.33
568.414	1017.5
568.612	868
568.811	923.29
569.01	937.63
569.208	820.89
569.407	939.68
569.605	988.83
569.804	812.7
570.002	822.94
570.201	790.17
570.4	878.24
570.598	708.26
570.797	857.76
570.995	685.73
571.193	851.61
571.392	724.64
571.59	698.02
571.789	870.05
571.987	894.62
572.186	802.46
572.384	718.5
572.582	738.98
572.781	874.14
572.979	620.19
573.177	724.64
573.376	652.96
573.574	747.17
573.772	640.67
573.971	552.61
574.169	505.51
574.367	542.37
574.565	532.13
574.763	612
574.962	605.86
575.16	540.32
575.358	603.81
575.556	612
575.754	601.76
575.952	489.12
576.151	585.38
576.349	634.53
576.547	444.07
576.745	544.42
576.943	573.09
577.141	564.9
577.339	437.92
577.537	425.64
577.735	603.81
577.933	474.79
578.131	417.44
578.329	634.53
578.527	485.03
578.725	564.9
578.923	315.05
579.121	413.35
579.319	278.18
579.516	394.92
579.714	636.58
579.912	427.68
580.11	335.53
580.308	427.68
580.506	468.64
580.704	263.85
580.901	356.01
581.099	521.89
581.297	403.11
581.495	450.21
581.692	325.29
581.89	515.75
582.088	392.87
582.285	310.95
582.483	308.9
582.681	347.81
582.878	444.07
583.076	421.54
583.274	360.1
583.471	485.03
583.669	335.53
583.866	206.5
584.064	288.42
584.262	251.56
584.459	286.37
584.657	319.14
584.854	380.58
585.052	368.29
585.249	356.01
585.447	341.67
585.644	186.02
585.841	364.2
586.039	319.14
586.236	366.25
586.434	181.93
586.631	222.89
586.828	200.36
587.026	239.27
587.223	147.11
587.42	237.22
587.618	249.51
587.815	249.51
588.012	202.41
588.21	179.88
588.407	276.13
588.604	247.46
588.801	235.18
588.999	233.13
589.196	286.37
589.393	208.55
589.59	229.03
589.787	186.02
589.984	298.66
590.182	265.89
590.379	132.78
590.576	212.65
590.773	253.61
590.97	151.21
591.167	229.03
591.364	278.18
591.561	257.7
591.758	329.38
591.955	298.66
592.152	151.21
592.349	196.26
592.546	161.45
592.743	120.49
592.94	190.12
593.137	284.33
593.334	329.38
593.531	261.8
593.727	243.37
593.924	315.05
594.121	151.21
594.318	155.3
594.515	151.21
594.712	327.33
594.908	263.85
595.105	130.73
595.302	224.94
595.499	175.78
595.696	310.95
595.892	186.02
596.089	272.04
596.286	249.51
596.482	358.05
596.679	276.13
596.876	253.61
597.072	284.33
597.269	226.98
597.466	280.23
597.662	329.38
597.859	151.21
598.055	263.85
598.252	341.67
598.448	323.24
598.645	390.82
598.841	419.49
599.038	466.6
599.234	491.17
599.431	421.54
599.627	425.64
599.824	456.36
600.02	442.02
600.217	452.26
600.413	548.51
600.609	376.48
600.806	667.3
601.002	546.47
601.198	476.84
601.395	593.57
601.591	552.61
601.787	530.08
601.984	681.63
602.18	622.24
602.376	626.34
602.572	755.36
602.769	734.88
602.965	781.98
603.161	736.93
603.357	839.33
603.553	857.76
603.75	736.93
603.946	859.81
604.142	921.24
604.338	1056.41
604.534	966.3
604.73	976.54
604.926	990.88
605.122	1048.22
605.318	1048.22
605.514	1187.48
605.71	1035.93
605.906	1148.57
606.102	1148.57
606.298	1287.83
606.494	1291.93
606.69	1425.04
606.886	1336.98
607.082	1349.27
607.278	1343.13
607.474	1513.11
607.67	1433.24
607.866	1404.57
608.062	1666.71
608.257	1517.2
608.453	1642.13
608.649	1705.62
608.845	1666.71
609.041	1678.99
609.236	1777.3
609.432	1920.65
609.628	1937.04
609.824	1971.85
610.019	2025.1
610.215	2041.48
610.411	2242.18
610.606	2262.66
610.802	2152.07
610.998	2236.04
611.193	2414.21
611.389	2360.97
611.584	2395.78
611.78	2412.17
611.976	2506.37
612.171	2907.77
612.367	2881.15
612.562	2721.41
612.758	2948.73
612.953	2754.18
613.149	3028.6
613.344	3155.58
613.539	3188.35
613.735	3280.5
613.93	3393.14
614.126	3327.61
614.321	3634.8
614.517	3739.25
614.712	3610.23
614.907	3784.3
615.103	3874.42
615.298	3995.25
615.493	4144.75
615.688	4083.31
615.884	4497
616.079	4441.7
616.274	4447.85
616.47	4419.18
616.665	4740.71
616.86	5068.38
617.055	4974.17
617.25	5004.89
617.445	5365.34
617.641	5441.11
617.836	5531.22
618.031	5672.53
618.226	5897.81
618.421	6006.35
618.616	6157.9
618.811	6153.8
619.006	6438.47
619.201	6379.08
619.396	6530.63
619.591	6721.09
619.786	6772.29
619.981	7032.38
620.176	7192.12
620.371	7183.93
620.566	7538.23
620.761	7743.03
620.956	7892.53
621.151	7958.07
621.346	8220.21
621.541	8037.94
621.735	8365.61
621.93	8494.63
622.125	8820.26
622.32	8793.64
622.515	9094.69
622.709	9184.8
622.904	9408.03
623.099	9446.94
623.294	9784.85
623.488	9920.02
623.683	10167.82
623.878	10184.21
624.072	10532.36
624.267	10456.59
624.462	10739.21
624.656	10800.65
624.851	10878.47
625.046	11130.37
625.24	11437.56
625.435	11308.54
625.629	11582.97
625.824	11773.43
626.018	11980.28
626.213	11881.97
626.407	12297.71
626.602	12266.99
626.796	12527.08
626.991	12545.52
627.185	12570.09
627.38	12563.95
627.574	13024.74
627.768	13022.69
627.963	12910.05
628.157	13090.27
628.352	12889.57
628.546	12752.36
628.74	13237.73
628.935	12885.48
629.129	12883.43
629.323	12922.34
629.517	12731.88
629.712	12819.94
629.906	12686.83
630.1	12428.78
630.294	12365.29
630.489	12189.17
630.683	12195.31
630.877	11814.39
631.071	11828.73
631.265	11382.27
631.459	11279.87
631.653	10905.09
631.848	10716.68
632.042	10685.96
632.236	10446.35
632.43	9907.73
632.624	9707.03
632.818	9465.37
633.012	9086.5
633.206	8896.03
633.4	8724.01
633.594	8279.6
633.788	7999.02
633.982	7734.84
634.176	7536.18
634.369	7140.93
634.563	6846.02
634.757	6583.88
634.951	6547.01
635.145	6286.92
635.339	5924.43
635.533	5752.4
635.726	5504.6
635.92	5279.32
636.114	5127.77
636.308	4845.15
636.501	4607.59
636.695	4544.1
636.889	4245.1
637.083	4284.01
637.276	3974.77
637.47	3710.58
637.664	3626.61
637.857	3475.06
638.051	3366.52
638.244	3348.09
638.438	3020.41
638.632	3040.89
638.825	2825.86
639.019	2856.58
639.212	2758.27
639.406	2500.23
639.599	2381.45
639.793	2313.86
639.986	2238.09
640.18	2309.77
640.373	2049.68
640.567	2018.96
640.76	2066.06
640.954	1904.27
641.147	1775.25
641.34	1842.83
641.534	1701.52
641.727	1687.18
641.92	1541.78
642.114	1611.41
642.307	1457.81
642.5	1425.04
642.694	1326.74
642.887	1365.65
643.08	1324.69
643.273	1339.03
643.467	1068.7
643.66	1099.42
643.853	1027.74
644.046	984.73
644.239	1003.16
644.432	925.34
644.626	806.56
644.819	870.05
645.012	902.81
645.205	812.7
645.398	872.09
645.591	773.79
645.784	683.68
645.977	587.43
646.17	673.44
646.363	685.73
646.556	616.1
646.749	571.04
646.942	628.39
647.135	659.1
647.328	458.4
647.521	478.88
647.714	507.55
647.907	517.79
648.099	388.77
648.292	505.51
648.485	507.55
648.678	413.35
648.871	411.3
649.064	437.92
649.256	343.72
649.449	208.55
649.642	294.57
649.835	306.85
650.027	261.8
650.22	423.59
650.413	327.33
650.605	321.19
650.798	257.7
650.991	319.14
651.183	251.56
651.376	235.18
651.568	294.57
651.761	239.27
651.954	294.57
652.146	231.08
652.339	294.57
652.531	308.9
652.724	222.89
652.916	159.4
653.109	151.21
653.301	333.48
653.494	282.28
653.686	247.46
653.879	210.6
654.071	294.57
654.263	116.39
654.456	173.74
654.648	124.58
654.84	188.07
655.033	50.86
655.225	226.98
655.417	63.15
655.61	245.41
655.802	278.18
655.994	200.36
656.186	71.34
656.379	233.13
656.571	54.95
656.763	102.06
656.955	91.82
657.148	143.02
657.34	241.32
657.532	134.82
657.724	122.54
657.916	149.16
658.108	106.15
658.3	192.17
658.492	93.87
658.684	32.43
658.876	239.27
659.068	52.91
659.26	71.34
659.452	-20.82
659.644	26.28
659.836	210.6
660.028	46.76
660.22	71.34
660.412	157.35
660.604	102.06
660.796	57
660.988	200.36
661.18	93.87
661.372	89.77
661.563	5.8
661.755	134.82
661.947	-0.34
662.139	22.19
662.331	32.43
662.522	91.82
662.714	18.09
662.906	108.2
663.097	-6.49
663.289	-29.01
663.481	-35.16
663.673	83.63
663.864	32.43
664.056	108.2
664.247	-33.11
664.439	89.77
664.631	54.95
664.822	114.34
665.014	65.19
665.205	1.71
665.397	44.71
665.588	93.87
665.78	114.34
665.971	57
666.163	114.34
666.354	77.48
666.546	-55.64
666.737	-14.68
666.929	11.95
667.12	34.47
667.311	71.34
667.503	5.8
667.694	112.3
667.885	46.76
668.077	122.54
668.268	26.28
668.459	26.28
668.651	65.19
668.842	120.49
669.033	59.05
669.224	40.62
669.416	183.98
669.607	63.15
669.798	3.75
669.989	128.68
670.18	13.99
670.371	95.91
670.563	-29.01
670.754	112.3
670.945	69.29
671.136	91.82
671.327	-39.25
671.518	13.99
671.709	136.87
671.9	26.28
672.091	132.78
672.282	26.28
672.473	126.63
672.664	-47.44
672.855	32.43
673.046	83.63
673.237	167.59
673.428	38.57
673.619	91.82
673.809	-20.82
674	175.78
674.191	97.96
674.382	11.95
674.573	36.52
674.764	89.77
674.954	67.24
675.145	-119.12
675.336	-31.06
675.527	-18.77
675.717	1.71
675.908	57
676.099	-88.4
676.289	11.95
676.48	28.33
676.671	1.71
676.861	36.52
677.052	36.52
677.243	36.52
677.433	26.28
677.624	85.67
677.814	130.73
678.005	9.9
678.195	52.91
678.386	-84.31
678.576	-49.49
678.767	-72.02
678.957	69.29
679.148	26.28
679.338	143.02
679.529	71.34
679.719	-24.92
679.909	100.01
680.1	85.67
680.29	-41.3
680.481	-78.16
680.671	16.04
680.861	63.15
681.052	89.77
681.242	-12.63
681.432	28.33
681.622	95.91
681.813	-72.02
682.003	-65.88
682.193	-33.11
682.383	52.91
682.573	28.33
682.764	-22.87
682.954	-20.82
683.144	120.49
683.334	-6.49
683.524	-12.63
683.714	16.04
683.904	71.34
684.094	34.47
684.284	38.57
684.474	42.67
684.664	44.71
684.854	124.58
685.044	-43.35
685.234	26.28
685.424	9.9
685.614	-22.87
685.804	159.4
685.994	36.52
686.184	50.86
686.374	-0.34
686.564	-0.34
686.753	-33.11
686.943	-88.4
687.133	13.99
687.323	-41.3
687.513	69.29
687.702	-0.34
687.892	13.99
688.082	26.28
688.272	52.91
688.461	-22.87
688.651	204.46
688.841	40.62
689.03	-12.63
689.22	63.15
689.41	102.06
689.599	42.67
689.789	-49.49
689.979	124.58
690.168	40.62
690.358	165.54
690.547	65.19
690.737	42.67
690.926	65.19
691.116	9.9
691.305	26.28
691.495	9.9
691.684	-16.73
691.874	73.39
692.063	9.9
692.252	97.96
692.442	128.68
692.631	-8.53
692.82	83.63
693.01	40.62
693.199	48.81
693.388	77.48
693.578	85.67
693.767	93.87
693.956	-2.39
694.146	26.28
694.335	38.57
694.524	40.62
694.713	136.87
694.902	38.57
695.092	5.8
695.281	71.34
695.47	-4.44
695.659	3.75
695.848	102.06
696.037	3.75
696.226	120.49
696.415	16.04
696.604	108.2
696.793	126.63
696.982	7.85
697.171	138.92
697.36	24.23
697.549	73.39
697.738	-65.88
697.927	-22.87
698.116	-69.97
698.305	48.81
698.494	30.38
698.683	-24.92
698.872	216.74
699.061	54.95
699.25	32.43
699.438	48.81
699.627	18.09
699.816	134.82
700.005	-12.63
700.193	42.67
700.382	-2.39
700.571	165.54
700.76	89.77
700.948	147.11
701.137	52.91
701.326	202.41
701.514	-33.11
701.703	52.91
701.892	122.54
702.08	128.68
702.269	3.75
702.457	36.52
702.646	38.57
702.834	87.72
703.023	132.78
703.212	7.85
703.4	102.06
703.589	-14.68
703.777	79.53
703.965	-29.01
704.154	-51.54
704.342	-90.45
704.531	-31.06
704.719	3.75
704.907	89.77
705.096	-61.78
705.284	-65.88
705.472	-2.39
705.661	-6.49
705.849	147.11
706.037	212.65
706.226	59.05
706.414	67.24
706.602	-26.96
706.79	54.95
706.979	20.14
707.167	32.43
707.355	-96.6
707.543	22.19
707.731	59.05
707.919	44.71
708.107	22.19
708.296	-0.34
708.484	-41.3
708.672	9.9
708.86	73.39
709.048	20.14
709.236	-33.11
709.424	44.71
709.612	63.15
709.8	-90.45
709.988	89.77
710.176	34.47
710.364	65.19
710.551	11.95
710.739	95.91
710.927	-49.49
711.115	13.99
711.303	89.77
711.491	110.25
711.679	22.19
711.866	9.9
712.054	-26.96
712.242	77.48
712.43	97.96
712.617	-41.3
712.805	114.34
712.993	7.85
713.181	-49.49
713.368	59.05
713.556	-10.58
713.744	5.8
713.931	167.59
714.119	57
714.306	-4.44
714.494	34.47
714.682	16.04
714.869	-45.4
715.057	-67.92
715.244	-57.68
715.432	-6.49
715.619	-57.68
715.807	-6.49
715.994	9.9
716.182	28.33
716.369	52.91
716.556	38.57
716.744	-86.36
716.931	-61.78
717.119	128.68
717.306	-33.11
717.493	-18.77
717.681	-80.21
717.868	-14.68
718.055	24.23
718.242	34.47
718.43	28.33
718.617	104.11
718.804	-22.87
718.991	1.71
719.179	42.67
719.366	79.53
719.553	16.04
719.74	-18.77
719.927	-24.92
720.114	85.67
720.301	5.8
720.488	-14.68
720.676	-74.07
720.863	46.76
721.05	85.67
721.237	52.91
721.424	52.91
721.611	3.75
721.798	-53.59
721.985	-104.79
722.172	-37.2
722.358	20.14
722.545	73.39
722.732	34.47
722.919	85.67
723.106	30.38
723.293	30.38
723.48	-29.01
723.667	-4.44
723.853	54.95
724.04	18.09
724.227	85.67
724.414	-55.64
724.6	50.86
724.787	122.54
724.974	126.63
725.161	1.71
725.347	-53.59
725.534	40.62
725.72	-8.53
725.907	36.52
726.094	46.76
726.28	-24.92
726.467	7.85
726.653	20.14
726.84	122.54
727.027	54.95
727.213	9.9
727.4	120.49
727.586	1.71
727.773	65.19
727.959	-4.44
728.145	30.38
728.332	18.09
728.518	-55.64
728.705	9.9
728.891	13.99
729.077	28.33
729.264	-39.25
729.45	-31.06
729.636	100.01
729.823	-2.39
730.009	61.1
730.195	71.34
730.382	40.62
730.568	-67.92
730.754	7.85
730.94	-53.59
731.126	34.47
731.313	77.48
731.499	-57.68
731.685	-10.58
731.871	-8.53
732.057	95.91
732.243	18.09
732.429	7.85
732.615	130.73
732.801	147.11
732.987	-2.39
733.173	-112.98
733.359	-88.4
733.545	48.81
733.731	-49.49
733.917	145.06
734.103	48.81
734.289	16.04
734.475	-31.06
734.661	143.02
734.847	52.91
735.033	-4.44
735.219	32.43
735.404	3.75
735.59	-49.49
735.776	-63.83
735.962	-8.53
736.148	128.68
736.333	138.92
736.519	48.81
736.705	9.9
736.89	7.85
737.076	79.53
737.262	-33.11
737.447	-41.3
737.633	-4.44
737.819	143.02
738.004	32.43
738.19	36.52
738.375	87.72
738.561	106.15
738.747	50.86
738.932	-110.93
739.118	132.78
739.303	100.01
739.489	-2.39
739.674	-37.2
739.859	-63.83
740.045	26.28
740.23	34.47
740.416	-141.65
740.601	61.1
740.786	-6.49
740.972	-119.12
741.157	-31.06
741.342	-51.54
741.528	-61.78
741.713	63.15
741.898	11.95
742.084	48.81
742.269	65.19
742.454	50.86
742.639	112.3
742.824	20.14
743.01	85.67
743.195	114.34
743.38	24.23
743.565	57
743.75	50.86
743.935	57
744.12	134.82
744.305	-20.82
744.49	-29.01
744.675	34.47
744.86	-22.87
745.045	28.33
745.23	13.99
745.415	81.58
745.6	149.16
745.785	20.14
745.97	93.87
746.155	61.1
746.34	77.48
746.525	9.9
746.71	120.49
746.895	57
747.079	-76.12
747.264	22.19
747.449	40.62
747.634	108.2
747.819	28.33
748.003	-2.39
748.188	11.95
748.373	83.63
748.557	11.95
748.742	-12.63
748.927	22.19
749.111	-72.02
749.296	22.19
749.481	114.34
749.665	-12.63
749.85	-69.97
750.034	65.19
750.219	91.82
750.404	13.99
750.588	20.14
750.773	-57.68
750.957	57
751.141	20.14
751.326	36.52
751.51	-51.54
751.695	38.57
751.879	110.25
752.064	136.87
752.248	-22.87
752.432	130.73
752.617	147.11
752.801	145.06
752.985	-16.73
753.17	85.67
753.354	44.71
753.538	124.58
753.722	-24.92
753.907	1.71
754.091	-16.73
754.275	13.99
754.459	-37.2
754.643	-29.01
754.828	9.9
755.012	83.63
755.196	-110.93
755.38	85.67
755.564	-63.83
755.748	-49.49
755.932	112.3
756.116	71.34
756.3	71.34
756.484	-18.77
756.668	75.43
756.852	-98.64
757.036	7.85
757.22	-14.68
757.404	11.95
757.588	13.99
757.772	102.06
757.956	44.71
758.14	130.73
758.323	-4.44
758.507	30.38
758.691	22.19
758.875	181.93
759.059	157.35
759.242	13.99
759.426	38.57
759.61	97.96
759.794	-0.34
759.977	48.81
760.161	255.65
760.345	102.06
760.528	83.63
760.712	18.09
760.895	36.52
761.079	-8.53
761.263	-39.25
761.446	-41.3
761.63	48.81
761.813	67.24
761.997	-110.93
762.18	-45.4
762.364	44.71
762.547	-155.99
762.731	-39.25
762.914	-47.44
763.098	-22.87
763.281	57
763.464	-69.97
763.648	-10.58
763.831	1.71
764.015	5.8
764.198	112.3
764.381	1.71
764.564	-2.39
764.748	44.71
764.931	128.68
765.114	18.09
765.297	93.87
765.481	1.71
765.664	3.75
765.847	26.28
766.03	95.91
766.213	-10.58
766.397	-4.44
766.58	-76.12
766.763	79.53
766.946	48.81
767.129	-37.2
767.312	79.53
767.495	-31.06
767.678	-39.25
767.861	50.86
768.044	59.05
768.227	-31.06
768.41	-12.63
768.593	-24.92
768.776	71.34
768.959	1.71
769.142	87.72
769.324	-20.82
769.507	20.14
769.69	-49.49
769.873	-14.68
770.056	190.12
770.239	42.67
770.421	75.43
770.604	75.43
770.787	7.85
770.97	102.06
771.152	-57.68
771.335	79.53
771.518	-59.73
771.7	44.71
771.883	95.91
772.066	-4.44
772.248	38.57
772.431	73.39
772.613	11.95
772.796	44.71
772.978	42.67
773.161	85.67
773.343	-26.96
773.526	50.86
773.708	-78.16
773.891	-41.3
774.073	-35.16
774.256	-20.82
774.438	122.54
774.621	-88.4
774.803	24.23
774.985	34.47
775.168	50.86
775.35	32.43
775.532	93.87
775.715	-43.35
775.897	-0.34
776.079	34.47
776.261	18.09
776.444	16.04
776.626	-41.3
776.808	-41.3
776.99	-80.21
777.173	65.19
777.355	32.43
777.537	57
777.719	22.19
777.901	89.77
778.083	3.75
778.265	-94.55
778.447	114.34
778.629	-10.58
778.811	79.53
778.993	-4.44
779.175	136.87
779.357	40.62
779.539	1.71
779.721	9.9
779.903	87.72
780.085	57
780.267	20.14
780.449	28.33
780.631	71.34
780.812	46.76
780.994	34.47
781.176	24.23
781.358	-63.83
781.54	18.09
781.721	26.28
781.903	132.78
782.085	-16.73
782.267	161.45
782.448	36.52
782.63	36.52
782.812	-37.2
782.993	-8.53
783.175	-33.11
783.357	-24.92
783.538	87.72
783.72	-35.16
783.901	52.91
784.083	97.96
784.264	24.23
784.446	-12.63
784.627	-2.39
784.809	40.62
784.99	-24.92
785.172	122.54
785.353	34.47
785.535	71.34
785.716	-88.4
785.897	-10.58
786.079	-18.77
786.26	16.04
786.441	59.05
786.623	-6.49
786.804	59.05
786.985	65.19
787.167	79.53
787.348	46.76
787.529	-0.34
787.71	192.17
787.891	118.44
788.073	-26.96
788.254	-82.26
788.435	155.3
788.616	-10.58
788.797	-82.26
788.978	-12.63
789.159	-18.77
789.34	48.81
789.522	-20.82
789.703	-39.25
789.884	26.28
790.065	40.62
790.246	233.13
790.427	63.15
790.607	112.3
790.788	69.29
790.969	18.09
791.15	24.23
791.331	-18.77
791.512	75.43
791.693	-65.88
791.874	-86.36
792.054	208.55
792.235	40.62
792.416	-53.59
792.597	-26.96
792.778	143.02
792.958	54.95
793.139	26.28
793.32	-37.2
793.5	-20.82
793.681	26.28
793.862	57
794.042	40.62
794.223	-133.46
794.404	-0.34
794.584	-117.08
794.765	-41.3
794.945	71.34
795.126	50.86
795.306	40.62
795.487	-24.92
795.667	36.52
795.848	-14.68
796.028	30.38
796.209	-29.01
796.389	26.28
796.57	83.63
796.75	-51.54
796.93	20.14
797.111	13.99
797.291	54.95
797.471	18.09
797.652	-39.25
797.832	-47.44
798.012	175.78
798.192	36.52
798.373	-100.69
798.553	-16.73
798.733	-8.53
798.913	-33.11
799.093	-76.12
799.274	-16.73
799.454	83.63
799.634	46.76
799.814	83.63
799.994	38.57
800.174	73.39
800.354	9.9
800.534	-127.32
800.714	44.71
800.894	-45.4
801.074	-41.3
801.254	-43.35
801.434	38.57
801.614	-49.49
801.794	-102.74
801.974	1613.46
802.154	-8.53
802.334	85.67
802.514	20.14
802.693	63.15
802.873	-100.69
803.053	95.91
803.233	24.23
803.413	9.9
803.592	-41.3
803.772	3.75
803.952	24.23
804.131	-47.44
804.311	71.34
804.491	116.39
804.67	-35.16
804.85	-24.92
805.03	97.96
805.209	169.64
805.389	-10.58
805.568	-53.59
805.748	5.8
805.928	7.85
806.107	-0.34
806.287	85.67
806.466	77.48
806.646	44.71
806.825	7.85
807.004	59.05
807.184	30.38
807.363	28.33
807.543	-33.11
807.722	-88.4
807.901	114.34
808.081	65.19
808.26	-80.21
808.439	-16.73
808.619	24.23
808.798	52.91
808.977	-10.58
809.156	147.11
809.336	-0.34
809.515	83.63
809.694	-76.12
809.873	-55.64
810.052	-12.63
810.231	145.06
810.411	22.19
810.59	63.15
810.769	38.57
810.948	65.19
811.127	-37.2
811.306	30.38
811.485	-51.54
811.664	108.2
811.843	89.77
812.022	5.8
812.201	-39.25
812.38	-4.44
812.559	-82.26
812.737	24.23
812.916	-90.45
813.095	-20.82
813.274	-39.25
813.453	85.67
813.632	18.09
813.811	50.86
813.989	-45.4
814.168	28.33
814.347	20.14
814.526	-53.59
814.704	81.58
814.883	57
815.062	-86.36
815.24	118.44
815.419	-74.07
815.598	52.91
815.776	-123.22
815.955	5.8
816.133	-55.64
816.312	-4.44
816.49	20.14
816.669	-8.53
816.847	-10.58
817.026	69.29
817.204	-49.49
817.383	34.47
817.561	-76.12
817.74	-14.68
817.918	40.62
818.097	-2.39
818.275	-2.39
818.453	24.23
818.632	30.38
818.81	-61.78
818.988	-24.92
819.167	-69.97
819.345	-49.49
819.523	-61.78
819.701	20.14
819.879	52.91
820.058	-35.16
820.236	9.9
820.414	-8.53
820.592	40.62
820.77	7.85
820.948	-164.18
821.127	-80.21
821.305	38.57
821.483	-47.44
821.661	73.39
821.839	71.34
822.017	-12.63
822.195	-33.11
822.373	40.62
822.551	87.72
822.729	65.19
822.907	30.38
823.085	83.63
823.262	-29.01
823.44	-80.21
823.618	-4.44
823.796	-0.34
823.974	-20.82
824.152	-14.68
824.329	28.33
824.507	44.71
824.685	65.19
824.863	-8.53
825.04	22.19
825.218	73.39
825.396	-24.92
825.574	28.33
825.751	-0.34
825.929	-18.77
826.107	-102.74
826.284	-45.4
826.462	108.2
826.639	-24.92
826.817	-86.36
826.994	-6.49
827.172	-96.6
827.349	159.4
827.527	11.95
827.704	79.53
827.882	145.06
828.059	38.57
828.237	-59.73
828.414	83.63
828.591	-90.45
828.769	48.81
828.946	-22.87
829.124	-12.63
829.301	91.82
829.478	69.29
829.655	36.52
829.833	38.57
830.01	-135.51
830.187	52.91
830.364	-16.73
830.542	34.47
830.719	106.15
830.896	77.48
831.073	16.04
831.25	71.34
831.427	67.24
831.604	-45.4
831.782	-41.3
831.959	54.95
832.136	-24.92
832.313	26.28
832.49	-72.02
832.667	40.62
832.844	-26.96
833.021	85.67
833.198	42.67
833.374	-35.16
833.551	-12.63
833.728	-16.73
833.905	13.99
834.082	-84.31
834.259	13.99
834.436	48.81
834.612	-117.08
834.789	24.23
834.966	26.28
835.143	-35.16
835.319	-41.3
835.496	32.43
835.673	22.19
835.85	-12.63
836.026	18.09
836.203	108.2
836.38	-74.07
836.556	54.95
836.733	-16.73
836.909	100.01
837.086	-63.83
837.262	-108.88
837.439	1.71
837.616	-155.99
837.792	36.52
837.968	-59.73
838.145	-147.8
838.321	-8.53
838.498	59.05
838.674	52.91
838.851	83.63
839.027	87.72
839.203	-65.88
839.38	93.87
839.556	24.23
839.732	134.82
839.909	3.75
840.085	93.87
840.261	-6.49
840.437	-16.73
840.614	-33.11
840.79	138.92
840.966	-6.49
841.142	-47.44
841.318	13.99
841.494	48.81
841.671	44.71
841.847	-6.49
842.023	-55.64
842.199	61.1
842.375	106.15
842.551	-59.73
842.727	-82.26
842.903	153.26
843.079	-88.4
843.255	126.63
843.431	38.57
843.607	89.77
843.783	-131.41
843.959	-22.87
844.134	16.04
844.31	124.58
844.486	-24.92
844.662	-74.07
844.838	-49.49
845.013	44.71
845.189	7.85
845.365	7.85
845.541	20.14
845.716	11.95
845.892	181.93
846.068	-49.49
846.244	-16.73
846.419	7.85
846.595	-55.64
846.77	-51.54
846.946	71.34
847.122	-29.01
847.297	-102.74
847.473	89.77
847.648	-53.59
847.824	61.1
847.999	-123.22
848.175	-14.68
848.35	20.14
848.526	136.87
848.701	138.92
848.876	42.67
849.052	32.43
849.227	-20.82
849.403	32.43
849.578	59.05
849.753	102.06
849.929	54.95
850.104	-158.03
850.279	1.71
850.454	16.04
850.63	26.28
850.805	61.1
850.98	50.86
851.155	28.33
851.33	9.9
851.505	-6.49
851.681	50.86
851.856	-112.98
852.031	73.39
852.206	32.43
852.381	11.95
852.556	9.9
852.731	-14.68
852.906	87.72
853.081	44.71
853.256	122.54
853.431	54.95
853.606	-61.78
853.781	-65.88
853.956	-92.5
854.131	18.09
854.305	-10.58
854.48	-18.77
854.655	-119.12
854.83	-14.68
855.005	-35.16
855.18	102.06
855.354	22.19
855.529	-12.63
855.704	3.75
855.879	85.67
856.053	-61.78
856.228	34.47
856.403	-0.34
856.577	67.24
856.752	-88.4
856.926	50.86
857.101	-24.92
857.276	-143.7
857.45	-31.06
857.625	52.91
857.799	22.19
857.974	114.34
858.148	-133.46
858.323	7.85
858.497	9.9
858.672	-37.2
858.846	-63.83
859.02	22.19
859.195	-55.64
859.369	-22.87
859.543	16.04
859.718	20.14
859.892	73.39
860.066	59.05
860.241	-8.53
860.415	-2.39
860.589	16.04
860.763	110.25
860.938	102.06
861.112	24.23
861.286	-6.49
861.46	-10.58
861.634	18.09
861.808	67.24
861.982	-39.25
862.157	-35.16
862.331	-63.83
862.505	-31.06
862.679	-94.55
862.853	-14.68
863.027	-53.59
863.201	124.58
863.375	-0.34
863.549	28.33
863.722	85.67
863.896	63.15
864.07	-26.96
864.244	-16.73
864.418	57
864.592	-16.73
864.766	24.23
864.939	-24.92
865.113	-4.44
865.287	79.53
865.461	-35.16
865.634	48.81
865.808	-41.3
865.982	-39.25
866.156	-78.16
866.329	-14.68
866.503	34.47
866.676	40.62
866.85	-14.68
867.024	-18.77
867.197	61.1
867.371	20.14
867.544	22.19
867.718	-119.12
867.891	48.81
868.065	-96.6
868.238	40.62
868.412	104.11
868.585	-10.58
868.759	-100.69
868.932	-6.49
869.105	-86.36
869.279	59.05
869.452	-61.78
869.625	87.72
869.799	-20.82
869.972	-61.78
870.145	-8.53
870.319	54.95
870.492	-24.92
870.665	-4.44
870.838	-59.73
871.011	-125.27
871.185	-8.53
871.358	-45.4
871.531	-0.34
871.704	-41.3
871.877	-8.53
872.05	22.19
872.223	-61.78
872.396	79.53
872.569	32.43
872.742	-78.16
872.915	59.05
873.088	-59.73
873.261	-49.49
873.434	40.62
873.607	-4.44
873.78	143.02
873.953	-90.45
874.126	59.05
874.299	44.71
874.471	-74.07
874.644	32.43
874.817	153.26
874.99	145.06
875.163	11.95
875.335	-67.92
875.508	13.99
875.681	44.71
875.853	-4.44
876.026	-45.4
876.199	91.82
876.371	-18.77
876.544	-20.82
876.717	46.76
876.889	54.95
877.062	32.43
877.234	11.95
877.407	-35.16
877.579	26.28
877.752	73.39
877.924	100.01
878.097	-6.49
878.269	124.58
878.442	28.33
878.614	93.87
878.786	20.14
878.959	-12.63
879.131	-0.34
879.303	-119.12
879.476	38.57
879.648	89.77
879.82	-33.11
879.993	-49.49
880.165	-49.49
880.337	-37.2
880.509	-20.82
880.681	-127.32
880.854	34.47
881.026	42.67
881.198	196.26
881.37	-14.68
881.542	22.19
881.714	3.75
881.886	-4.44
882.058	63.15
882.23	-6.49
882.402	89.77
882.574	1.71
882.746	89.77
882.918	50.86
883.09	-10.58
883.262	-0.34
883.434	-4.44
883.606	-80.21
883.778	52.91
883.95	93.87
884.122	5.8
884.293	59.05
884.465	-20.82
884.637	93.87
884.809	-41.3
884.98	5.8
885.152	46.76
885.324	54.95
885.496	-86.36
885.667	69.29
885.839	-8.53
886.011	81.58
886.182	-16.73
886.354	67.24
886.525	112.3
886.697	-2.39
886.869	34.47
887.04	48.81
887.212	106.15
887.383	85.67
887.555	-6.49
887.726	-74.07
887.897	-35.16
888.069	5.8
888.24	28.33
888.412	13.99
888.583	-26.96
888.754	-8.53
888.926	-117.08
889.097	-49.49
889.268	-12.63
889.44	20.14
889.611	-139.6
889.782	-80.21
889.953	-10.58
890.125	69.29
890.296	-8.53
890.467	-18.77
890.638	-57.68
890.809	-31.06
890.98	-49.49
891.151	-2.39
891.323	102.06
891.494	-26.96
891.665	24.23
891.836	38.57
892.007	-6.49
892.178	7.85
892.349	40.62
892.52	-65.88
892.691	1.71
892.862	-22.87
893.032	-78.16
893.203	-55.64
893.374	1.71
893.545	65.19
893.716	-57.68
893.887	91.82
894.057	-8.53
894.228	16.04
894.399	18.09
894.57	93.87
894.74	46.76
894.911	75.43
895.082	69.29
895.253	50.86
895.423	36.52
895.594	89.77
895.764	34.47
895.935	-94.55
896.106	75.43
896.276	-94.55
896.447	-16.73
896.617	-149.84
896.788	-4.44
896.958	-20.82
897.129	83.63
897.299	-2.39
897.47	136.87
897.64	112.3
897.81	-59.73
897.981	38.57
898.151	-98.64
898.322	73.39
898.492	48.81
898.662	-135.51
898.832	-35.16
899.003	9.9
899.173	81.58
899.343	-63.83
899.513	-74.07
