Data from USB4F104151__82__11-31-29-961.txt Node

Date: Wed Feb 26 11:31:29 EST 2025
User: louis
Spectrometer: USB4F10415
Trigger mode: 4
Integration Time (sec): 1.000000E-1
Scans to average: 1
Electric dark correction enabled: true
Nonlinearity correction enabled: false
Boxcar width: 0
XAxis mode: Wavelengths
Number of Pixels in Spectrum: 3648
>>>>>Begin Spectral Data<<<<<
178.204	-390.82
178.424	-390.82
178.644	-390.82
178.864	-378.53
179.084	-323.24
179.304	14.68
179.524	-40.62
179.744	35.16
179.964	67.92
180.184	-18.09
180.404	55.64
180.624	-71.34
180.844	-3.75
181.064	-116.39
181.283	98.64
181.503	-63.15
181.723	41.3
181.943	-147.11
182.163	194.9
182.383	24.92
182.602	94.55
182.822	147.8
183.042	131.41
183.262	33.11
183.482	47.44
183.701	117.08
183.921	45.4
184.141	-48.81
184.361	53.59
184.58	80.21
184.8	55.64
185.02	-50.86
185.239	69.97
185.459	90.45
185.679	141.65
185.898	-71.34
186.118	53.59
186.338	86.36
186.557	139.6
186.777	-102.06
186.997	-16.04
187.216	57.68
187.436	215.38
187.655	119.12
187.875	100.69
188.095	35.16
188.314	155.99
188.534	172.37
188.753	35.16
188.973	106.84
189.192	184.66
189.412	24.92
189.631	76.12
189.851	65.88
190.07	145.75
190.29	-30.38
190.509	61.78
190.729	123.22
190.948	164.18
191.168	219.47
191.387	65.88
191.607	65.88
191.826	151.89
192.045	119.12
192.265	-5.8
192.484	67.92
192.704	57.68
192.923	-46.76
193.142	166.23
193.362	137.56
193.581	186.71
193.8	176.47
194.02	4.44
194.239	61.78
194.458	78.16
194.678	-83.63
194.897	53.59
195.116	100.69
195.335	59.73
195.555	121.17
195.774	43.35
195.993	160.08
196.212	57.68
196.432	-9.9
196.651	-63.15
196.87	51.54
197.089	252.24
197.308	100.69
197.528	123.22
197.747	2.39
197.966	76.12
198.185	192.85
198.404	-108.2
198.623	129.36
198.842	155.99
199.062	90.45
199.281	33.11
199.5	41.3
199.719	24.92
199.938	108.88
200.157	96.6
200.376	129.36
200.595	227.67
200.814	133.46
201.033	-5.8
201.252	121.17
201.471	106.84
201.69	98.64
201.909	78.16
202.128	76.12
202.347	106.84
202.566	-3.75
202.785	-71.34
203.004	-50.86
203.223	223.57
203.442	96.6
203.661	-54.95
203.879	74.07
204.098	190.8
204.317	72.02
204.536	174.42
204.755	112.98
204.974	69.97
205.193	39.25
205.411	131.41
205.63	100.69
205.849	110.93
206.068	0.34
206.287	-46.76
206.505	196.95
206.724	49.49
206.943	-1.71
207.162	14.68
207.381	115.03
207.599	41.3
207.818	90.45
208.037	12.63
208.255	67.92
208.474	78.16
208.693	104.79
208.911	35.16
209.13	92.5
209.349	-32.43
209.567	88.4
209.786	112.98
210.005	98.64
210.223	69.97
210.442	-69.29
210.661	67.92
210.879	65.88
211.098	125.27
211.316	8.53
211.535	102.74
211.753	20.82
211.972	22.87
212.191	49.49
212.409	20.82
212.628	53.59
212.846	67.92
213.065	82.26
213.283	133.46
213.502	63.83
213.72	55.64
213.938	147.8
214.157	-40.62
214.375	160.08
214.594	-24.23
214.812	94.55
215.031	53.59
215.249	22.87
215.467	51.54
215.686	80.21
215.904	51.54
216.122	78.16
216.341	182.61
216.559	22.87
216.778	168.27
216.996	158.03
217.214	112.98
217.432	26.96
217.651	-16.04
217.869	39.25
218.087	43.35
218.306	18.77
218.524	33.11
218.742	100.69
218.96	100.69
219.179	35.16
219.397	35.16
219.615	233.81
219.833	78.16
220.051	-24.23
220.27	145.75
220.488	158.03
220.706	90.45
220.924	-5.8
221.142	-75.43
221.36	166.23
221.578	106.84
221.796	37.2
222.015	98.64
222.233	80.21
222.451	129.36
222.669	43.35
222.887	69.97
223.105	41.3
223.323	22.87
223.541	-65.19
223.759	112.98
223.977	29.01
224.195	76.12
224.413	139.6
224.631	33.11
224.849	67.92
225.067	301.39
225.285	33.11
225.503	10.58
225.721	-61.1
225.939	88.4
226.157	39.25
226.375	231.76
226.592	-24.23
226.81	31.06
227.028	147.8
227.246	170.32
227.464	119.12
227.682	57.68
227.9	57.68
228.117	22.87
228.335	188.75
228.553	61.78
228.771	74.07
228.989	96.6
229.206	65.88
229.424	-3.75
229.642	35.16
229.86	49.49
230.077	153.94
230.295	72.02
230.513	127.32
230.731	65.88
230.948	137.56
231.166	192.85
231.384	59.73
231.601	-20.14
231.819	211.28
232.037	65.88
232.254	-77.48
232.472	100.69
232.689	-18.09
232.907	153.94
233.125	14.68
233.342	39.25
233.56	78.16
233.777	31.06
233.995	86.36
234.213	63.83
234.43	151.89
234.648	67.92
234.865	88.4
235.083	4.44
235.3	10.58
235.518	131.41
235.735	90.45
235.953	72.02
236.17	67.92
236.388	53.59
236.605	72.02
236.822	110.93
237.04	112.98
237.257	37.2
237.475	24.92
237.692	65.88
237.909	131.41
238.127	55.64
238.344	51.54
238.562	55.64
238.779	16.73
238.996	-48.81
239.214	119.12
239.431	92.5
239.648	-3.75
239.865	59.73
240.083	117.08
240.3	-32.43
240.517	33.11
240.735	61.78
240.952	133.46
241.169	133.46
241.386	-11.95
241.603	37.2
241.821	55.64
242.038	57.68
242.255	135.51
242.472	-50.86
242.689	125.27
242.907	123.22
243.124	74.07
243.341	16.73
243.558	55.64
243.775	-16.04
243.992	-18.09
244.209	76.12
244.426	248.15
244.643	35.16
244.86	65.88
245.078	139.6
245.295	119.12
245.512	22.87
245.729	-1.71
245.946	108.88
246.163	88.4
246.38	-7.85
246.597	45.4
246.814	49.49
247.031	45.4
247.248	76.12
247.464	174.42
247.681	76.12
247.898	2.39
248.115	190.8
248.332	51.54
248.549	119.12
248.766	143.7
248.983	74.07
249.2	82.26
249.417	155.99
249.633	39.25
249.85	96.6
250.067	22.87
250.284	6.49
250.501	61.78
250.717	98.64
250.934	18.77
251.151	47.44
251.368	37.2
251.585	16.73
251.801	92.5
252.018	0.34
252.235	137.56
252.451	10.58
252.668	133.46
252.885	115.03
253.102	24.92
253.318	61.78
253.535	14.68
253.752	24.92
253.968	26.96
254.185	-30.38
254.401	80.21
254.618	104.79
254.835	-57
255.051	205.14
255.268	162.13
255.484	88.4
255.701	-7.85
255.917	125.27
256.134	18.77
256.351	112.98
256.567	-32.43
256.784	-42.67
257	-108.2
257.217	127.32
257.433	43.35
257.65	51.54
257.866	153.94
258.082	-20.14
258.299	-11.95
258.515	47.44
258.732	72.02
258.948	-26.28
259.165	16.73
259.381	-61.1
259.597	108.88
259.814	33.11
260.03	12.63
260.246	88.4
260.463	135.51
260.679	108.88
260.895	74.07
261.112	45.4
261.328	117.08
261.544	53.59
261.761	178.51
261.977	43.35
262.193	-20.14
262.409	106.84
262.626	86.36
262.842	102.74
263.058	31.06
263.274	149.84
263.49	18.77
263.707	139.6
263.923	133.46
264.139	-26.28
264.355	51.54
264.571	55.64
264.787	63.83
265.004	110.93
265.22	0.34
265.436	-5.8
265.652	33.11
265.868	74.07
266.084	16.73
266.3	20.82
266.516	-61.1
266.732	12.63
266.948	61.78
267.164	61.78
267.38	168.27
267.596	100.69
267.812	119.12
268.028	123.22
268.244	-40.62
268.46	104.79
268.676	110.93
268.892	59.73
269.108	80.21
269.324	-28.33
269.54	-61.1
269.756	92.5
269.972	-7.85
270.188	16.73
270.403	-13.99
270.619	57.68
270.835	186.71
271.051	112.98
271.267	8.53
271.483	43.35
271.698	59.73
271.914	143.7
272.13	82.26
272.346	41.3
272.562	24.92
272.777	137.56
272.993	33.11
273.209	31.06
273.425	104.79
273.64	-42.67
273.856	147.8
274.072	14.68
274.287	-13.99
274.503	102.74
274.719	166.23
274.934	-42.67
275.15	-22.19
275.366	31.06
275.581	0.34
275.797	82.26
276.012	104.79
276.228	16.73
276.444	20.82
276.659	112.98
276.875	51.54
277.09	41.3
277.306	14.68
277.521	43.35
277.737	35.16
277.952	94.55
278.168	14.68
278.383	35.16
278.599	78.16
278.814	207.19
279.03	22.87
279.245	205.14
279.461	53.59
279.676	108.88
279.892	-36.52
280.107	-1.71
280.322	-38.57
280.538	86.36
280.753	8.53
280.969	55.64
281.184	80.21
281.399	160.08
281.615	94.55
281.83	63.83
282.045	-22.19
282.26	-63.15
282.476	18.77
282.691	72.02
282.906	94.55
283.122	88.4
283.337	-13.99
283.552	102.74
283.767	43.35
283.983	72.02
284.198	84.31
284.413	35.16
284.628	-40.62
284.843	10.58
285.058	115.03
285.274	-22.19
285.489	-34.47
285.704	194.9
285.919	4.44
286.134	69.97
286.349	80.21
286.564	2.39
286.779	153.94
286.995	69.97
287.21	-28.33
287.425	108.88
287.64	4.44
287.855	33.11
288.07	-67.24
288.285	117.08
288.5	121.17
288.715	137.56
288.93	59.73
289.145	-34.47
289.36	80.21
289.575	35.16
289.79	133.46
290.004	61.78
290.219	164.18
290.434	0.34
290.649	39.25
290.864	18.77
291.079	41.3
291.294	72.02
291.509	117.08
291.724	10.58
291.938	35.16
292.153	59.73
292.368	82.26
292.583	51.54
292.798	45.4
293.012	125.27
293.227	86.36
293.442	-20.14
293.657	82.26
293.871	186.71
294.086	100.69
294.301	168.27
294.516	117.08
294.73	37.2
294.945	29.01
295.16	61.78
295.374	127.32
295.589	131.41
295.804	35.16
296.018	100.69
296.233	190.8
296.447	51.54
296.662	0.34
296.877	135.51
297.091	104.79
297.306	22.87
297.52	78.16
297.735	98.64
297.949	67.92
298.164	-13.99
298.378	67.92
298.593	18.77
298.807	-3.75
299.022	94.55
299.236	164.18
299.451	6.49
299.665	-20.14
299.88	57.68
300.094	59.73
300.309	31.06
300.523	115.03
300.737	14.68
300.952	102.74
301.166	98.64
301.381	-46.76
301.595	74.07
301.809	33.11
302.024	65.88
302.238	20.82
302.452	100.69
302.667	-5.8
302.881	233.81
303.095	172.37
303.309	98.64
303.524	33.11
303.738	63.83
303.952	-26.28
304.166	117.08
304.381	-67.24
304.595	112.98
304.809	37.2
305.023	104.79
305.237	31.06
305.452	121.17
305.666	153.94
305.88	123.22
306.094	61.78
306.308	47.44
306.522	96.6
306.736	41.3
306.95	153.94
307.164	88.4
307.379	33.11
307.593	178.51
307.807	186.71
308.021	135.51
308.235	98.64
308.449	-97.96
308.663	41.3
308.877	223.57
309.091	76.12
309.305	104.79
309.519	-24.23
309.733	108.88
309.947	-40.62
310.161	49.49
310.374	129.36
310.588	160.08
310.802	47.44
311.016	-22.19
311.23	47.44
311.444	-34.47
311.658	63.83
311.872	104.79
312.085	110.93
312.299	160.08
312.513	92.5
312.727	127.32
312.941	-40.62
313.154	137.56
313.368	24.92
313.582	31.06
313.796	110.93
314.009	90.45
314.223	151.89
314.437	31.06
314.651	137.56
314.864	4.44
315.078	26.96
315.292	41.3
315.505	41.3
315.719	86.36
315.933	41.3
316.146	-77.48
316.36	6.49
316.573	190.8
316.787	88.4
317.001	-18.09
317.214	-59.05
317.428	96.6
317.641	-11.95
317.855	22.87
318.068	-9.9
318.282	35.16
318.495	229.71
318.709	94.55
318.922	65.88
319.136	76.12
319.349	47.44
319.563	-87.72
319.776	112.98
319.99	-151.21
320.203	69.97
320.417	-9.9
320.63	145.75
320.843	121.17
321.057	88.4
321.27	65.88
321.483	80.21
321.697	129.36
321.91	39.25
322.124	133.46
322.337	102.74
322.55	16.73
322.763	72.02
322.977	39.25
323.19	-46.76
323.403	41.3
323.617	158.03
323.83	112.98
324.043	-11.95
324.256	35.16
324.469	-28.33
324.683	188.75
324.896	33.11
325.109	47.44
325.322	-34.47
325.535	164.18
325.748	127.32
325.962	86.36
326.175	59.73
326.388	57.68
326.601	117.08
326.814	39.25
327.027	67.92
327.24	201.04
327.453	-116.39
327.666	104.79
327.879	196.95
328.092	98.64
328.305	102.74
328.518	53.59
328.731	74.07
328.944	6.49
329.157	72.02
329.37	39.25
329.583	170.32
329.796	139.6
330.009	-63.15
330.222	145.75
330.435	88.4
330.648	39.25
330.861	78.16
331.073	43.35
331.286	57.68
331.499	37.2
331.712	51.54
331.925	76.12
332.138	-13.99
332.35	35.16
332.563	51.54
332.776	203.09
332.989	0.34
333.202	-20.14
333.414	92.5
333.627	72.02
333.84	80.21
334.053	51.54
334.265	22.87
334.478	18.77
334.691	57.68
334.903	61.78
335.116	-42.67
335.329	-5.8
335.541	65.88
335.754	211.28
335.966	78.16
336.179	18.77
336.392	33.11
336.604	86.36
336.817	127.32
337.029	41.3
337.242	61.78
337.454	110.93
337.667	94.55
337.88	172.37
338.092	119.12
338.305	8.53
338.517	-20.14
338.729	166.23
338.942	108.88
339.154	-40.62
339.367	-95.91
339.579	94.55
339.792	16.73
340.004	69.97
340.217	72.02
340.429	96.6
340.641	65.88
340.854	-36.52
341.066	84.31
341.278	127.32
341.491	207.19
341.703	125.27
341.915	10.58
342.128	133.46
342.34	141.65
342.552	-44.71
342.764	45.4
342.977	2.39
343.189	74.07
343.401	72.02
343.613	-24.23
343.826	-13.99
344.038	59.73
344.25	69.97
344.462	-28.33
344.674	55.64
344.886	88.4
345.099	127.32
345.311	121.17
345.523	29.01
345.735	-97.96
345.947	49.49
346.159	100.69
346.371	45.4
346.583	123.22
346.795	201.04
347.007	90.45
347.219	86.36
347.431	67.92
347.643	135.51
347.855	45.4
348.067	209.23
348.279	20.82
348.491	16.73
348.703	37.2
348.915	4.44
349.127	31.06
349.339	57.68
349.551	55.64
349.763	98.64
349.975	37.2
350.187	196.95
350.399	129.36
350.61	151.89
350.822	86.36
351.034	61.78
351.246	100.69
351.458	102.74
351.669	88.4
351.881	221.52
352.093	141.65
352.305	104.79
352.517	33.11
352.728	219.47
352.94	125.27
353.152	80.21
353.363	4.44
353.575	45.4
353.787	166.23
353.999	76.12
354.21	166.23
354.422	8.53
354.633	110.93
354.845	69.97
355.057	63.83
355.268	139.6
355.48	84.31
355.692	-79.53
355.903	110.93
356.115	22.87
356.326	-85.67
356.538	188.75
356.749	82.26
356.961	235.86
357.172	69.97
357.384	-9.9
357.595	242
357.807	0.34
358.018	6.49
358.23	88.4
358.441	110.93
358.653	106.84
358.864	24.92
359.075	12.63
359.287	43.35
359.498	125.27
359.709	76.12
359.921	110.93
360.132	135.51
360.344	61.78
360.555	-5.8
360.766	76.12
360.977	4.44
361.189	158.03
361.4	55.64
361.611	63.83
361.823	188.75
362.034	39.25
362.245	-50.86
362.456	-18.09
362.667	72.02
362.879	-18.09
363.09	33.11
363.301	67.92
363.512	35.16
363.723	24.92
363.935	33.11
364.146	186.71
364.357	-28.33
364.568	78.16
364.779	-52.91
364.99	125.27
365.201	-7.85
365.412	121.17
365.623	-1.71
365.834	51.54
366.045	22.87
366.256	53.59
366.467	86.36
366.678	53.59
366.889	121.17
367.1	-26.28
367.311	78.16
367.522	31.06
367.733	141.65
367.944	69.97
368.155	-18.09
368.366	16.73
368.577	184.66
368.788	123.22
368.999	31.06
369.209	160.08
369.42	221.52
369.631	186.71
369.842	119.12
370.053	14.68
370.264	110.93
370.474	-18.09
370.685	84.31
370.896	102.74
371.107	108.88
371.317	78.16
371.528	53.59
371.739	86.36
371.95	125.27
372.16	137.56
372.371	-61.1
372.582	33.11
372.792	76.12
373.003	45.4
373.214	133.46
373.424	155.99
373.635	0.34
373.846	172.37
374.056	102.74
374.267	57.68
374.477	135.51
374.688	-32.43
374.898	16.73
375.109	102.74
375.319	78.16
375.53	168.27
375.74	74.07
375.951	0.34
376.161	55.64
376.372	133.46
376.582	33.11
376.793	108.88
377.003	-24.23
377.214	-11.95
377.424	115.03
377.635	6.49
377.845	-54.95
378.055	209.23
378.266	-3.75
378.476	31.06
378.686	43.35
378.897	72.02
379.107	139.6
379.317	57.68
379.528	55.64
379.738	194.9
379.948	-18.09
380.158	100.69
380.369	67.92
380.579	78.16
380.789	18.77
380.999	112.98
381.21	158.03
381.42	192.85
381.63	29.01
381.84	133.46
382.05	149.84
382.261	147.8
382.471	143.7
382.681	47.44
382.891	145.75
383.101	108.88
383.311	-3.75
383.521	20.82
383.731	67.92
383.941	145.75
384.151	35.16
384.361	51.54
384.571	84.31
384.781	110.93
384.991	217.43
385.201	135.51
385.411	80.21
385.621	53.59
385.831	96.6
386.041	33.11
386.251	-26.28
386.461	176.47
386.671	29.01
386.881	82.26
387.091	37.2
387.301	176.47
387.511	82.26
387.72	98.64
387.93	117.08
388.14	-18.09
388.35	153.94
388.56	112.98
388.769	158.03
388.979	24.92
389.189	-54.95
389.399	72.02
389.609	158.03
389.818	92.5
390.028	153.94
390.238	108.88
390.447	-9.9
390.657	115.03
390.867	6.49
391.076	4.44
391.286	55.64
391.496	-65.19
391.705	98.64
391.915	110.93
392.125	117.08
392.334	24.92
392.544	69.97
392.753	108.88
392.963	45.4
393.172	39.25
393.382	-1.71
393.591	254.29
393.801	29.01
394.01	59.73
394.22	102.74
394.429	37.2
394.639	55.64
394.848	178.51
395.058	100.69
395.267	108.88
395.477	129.36
395.686	207.19
395.895	209.23
396.105	194.9
396.314	178.51
396.524	51.54
396.733	-13.99
396.942	174.42
397.152	145.75
397.361	69.97
397.57	106.84
397.78	57.68
397.989	129.36
398.198	233.81
398.407	121.17
398.617	-1.71
398.826	69.97
399.035	82.26
399.244	137.56
399.453	45.4
399.663	69.97
399.872	43.35
400.081	67.92
400.29	211.28
400.499	43.35
400.708	145.75
400.917	-16.04
401.127	106.84
401.336	-16.04
401.545	190.8
401.754	166.23
401.963	82.26
402.172	69.97
402.381	2.39
402.59	76.12
402.799	22.87
403.008	158.03
403.217	137.56
403.426	115.03
403.635	-83.63
403.844	61.78
404.053	-11.95
404.262	37.2
404.471	188.75
404.68	37.2
404.888	69.97
405.097	94.55
405.306	63.83
405.515	90.45
405.724	35.16
405.933	133.46
406.142	43.35
406.35	139.6
406.559	72.02
406.768	182.61
406.977	129.36
407.185	94.55
407.394	112.98
407.603	49.49
407.812	139.6
408.02	110.93
408.229	35.16
408.438	80.21
408.646	4.44
408.855	14.68
409.064	158.03
409.272	10.58
409.481	94.55
409.69	6.49
409.898	-38.57
410.107	117.08
410.315	20.82
410.524	6.49
410.733	84.31
410.941	12.63
411.15	158.03
411.358	153.94
411.567	233.81
411.775	8.53
411.984	137.56
412.192	133.46
412.401	-9.9
412.609	145.75
412.818	184.66
413.026	65.88
413.234	63.83
413.443	47.44
413.651	-54.95
413.86	55.64
414.068	123.22
414.276	192.85
414.485	20.82
414.693	102.74
414.901	59.73
415.11	186.71
415.318	94.55
415.526	104.79
415.734	160.08
415.943	119.12
416.151	168.27
416.359	72.02
416.567	133.46
416.776	219.47
416.984	117.08
417.192	166.23
417.4	14.68
417.608	-20.14
417.817	-28.33
418.025	110.93
418.233	242
418.441	-54.95
418.649	-1.71
418.857	10.58
419.065	205.14
419.273	33.11
419.481	0.34
419.689	90.45
419.897	26.96
420.105	-67.24
420.313	127.32
420.521	274.77
420.729	141.65
420.937	104.79
421.145	-13.99
421.353	65.88
421.561	76.12
421.769	133.46
421.977	10.58
422.185	147.8
422.393	6.49
422.601	137.56
422.809	65.88
423.017	29.01
423.224	108.88
423.432	76.12
423.64	108.88
423.848	143.7
424.056	86.36
424.263	233.81
424.471	178.51
424.679	147.8
424.887	8.53
425.094	231.76
425.302	57.68
425.51	4.44
425.718	96.6
425.925	119.12
426.133	26.96
426.341	229.71
426.548	131.41
426.756	72.02
426.964	100.69
427.171	33.11
427.379	145.75
427.586	-3.75
427.794	137.56
428.001	86.36
428.209	151.89
428.417	217.43
428.624	102.74
428.832	174.42
429.039	123.22
429.247	53.59
429.454	190.8
429.662	295.25
429.869	135.51
430.076	182.61
430.284	178.51
430.491	229.71
430.699	211.28
430.906	278.87
431.114	196.95
431.321	182.61
431.528	151.89
431.736	207.19
431.943	100.69
432.15	160.08
432.358	278.87
432.565	342.35
432.772	74.07
432.979	229.71
433.187	112.98
433.394	268.63
433.601	158.03
433.808	299.34
434.016	321.87
434.223	196.95
434.43	176.47
434.637	244.05
434.844	301.39
435.052	244.05
435.259	354.64
435.466	344.4
435.673	280.91
435.88	227.67
436.087	368.98
436.294	350.54
436.501	436.56
436.708	266.58
436.915	350.54
437.122	452.94
437.329	258.39
437.537	358.74
437.743	405.84
437.95	428.37
438.157	338.26
438.364	330.06
438.571	379.22
438.778	526.67
438.985	444.75
439.192	547.15
439.399	479.57
439.606	547.15
439.813	502.09
440.02	655.69
440.227	676.17
440.433	627.02
440.64	624.97
440.847	579.92
441.054	653.64
441.261	696.65
441.467	682.31
441.674	655.69
441.881	805.19
442.088	674.12
442.294	747.85
442.501	844.1
442.708	872.78
442.914	932.17
443.121	874.82
443.328	913.74
443.534	1046.85
443.741	1040.71
443.948	883.02
444.154	1165.64
444.361	1272.13
444.568	1175.88
444.774	1046.85
444.981	1128.77
445.187	1313.09
445.394	1345.86
445.6	1347.9
445.807	1435.97
446.013	1409.34
446.22	1374.53
446.426	1542.46
446.633	1651
446.839	1800.51
447.046	1532.22
447.252	1837.37
447.459	1773.88
447.665	1730.87
447.871	1993.01
448.078	2064.69
448.284	2015.54
448.491	2150.71
448.697	2234.68
448.903	2292.02
449.11	2361.65
449.316	2359.6
449.522	2562.35
449.728	2611.5
449.935	2683.18
450.141	2720.04
450.347	3066.15
450.553	2789.67
450.76	3037.48
450.966	3238.18
451.172	3238.18
451.378	3299.62
451.584	3565.85
451.791	3811.61
451.997	3649.82
452.203	3918.11
452.409	4086.04
452.615	4192.53
452.821	4221.2
453.027	4090.13
453.233	4759.82
453.44	4595.98
453.646	5009.67
453.852	5081.35
454.058	5191.94
454.264	5456.13
454.47	5775.61
454.676	5755.13
454.882	6230.26
455.088	5968.12
455.294	6390
455.5	6652.14
455.705	7088.36
455.911	7014.63
456.117	7506.15
456.323	7526.63
456.529	7579.87
456.735	8116.44
456.941	8544.47
457.147	8853.71
457.352	9117.9
457.558	9253.06
457.764	9971.9
457.97	10064.06
458.176	10533.04
458.381	10909.87
458.587	11192.49
458.793	11792.55
458.999	11487.4
459.204	13207.69
459.41	13488.26
459.616	13486.22
459.821	14352.51
460.027	14921.84
460.233	15757.41
460.438	15521.9
460.644	16601.18
460.85	16894.04
461.055	17410.12
461.261	18135.1
461.466	17879.11
461.672	18257.98
461.878	20418.59
462.083	20041.76
462.289	20490.27
462.494	21415.95
462.7	21784.58
462.905	22075.4
463.111	23715.82
463.316	24641.5
463.522	25153.49
463.727	26087.37
463.932	27232.18
464.138	27807.66
464.343	28948.38
464.549	28878.75
464.754	31649.65
464.959	31895.41
465.165	32655.2
465.37	32348.01
465.575	32368.49
465.781	34330.44
465.986	35503.93
466.191	35241.79
466.397	35557.17
466.602	34903.87
466.807	36540.2
467.012	37046.05
467.218	37766.93
467.423	37889.81
467.628	39026.43
467.833	40877.8
468.038	39931.64
468.244	39501.56
468.449	40992.48
468.654	40515.31
468.859	40081.14
469.064	40654.57
469.269	39458.56
469.474	39816.95
469.679	41039.59
469.885	39659.26
470.09	40417
470.295	40615.66
470.5	39948.02
470.705	39859.96
470.91	38842.12
471.115	38500.11
471.32	39141.12
471.525	38588.17
471.73	37809.94
471.935	37263.13
472.139	36003.63
472.344	36503.34
472.549	35790.64
472.754	34793.28
472.959	34680.64
473.164	33480.53
473.369	32776.03
473.574	33912.66
473.778	33089.37
473.983	32282.47
474.188	31911.79
474.393	30214.02
474.598	30379.91
474.802	29302.68
475.007	29278.1
475.212	29101.98
475.417	27666.35
475.621	27383.73
475.826	27428.79
476.031	26748.86
476.235	26134.47
476.44	26003.4
476.645	25341.91
476.849	25321.43
477.054	24651.74
477.259	24074.21
477.463	24285.15
477.668	23369.71
477.872	23527.41
478.077	22720.51
478.282	22214.66
478.486	22153.22
478.691	21725.19
478.895	21506.06
479.1	21485.58
479.304	21346.32
479.509	20631.58
479.713	20932.63
479.918	20496.41
480.122	20189.22
480.326	20355.1
480.531	20160.55
480.735	19648.55
480.94	19365.93
481.144	19900.45
481.348	18765.88
481.553	19232.82
481.757	18690.1
481.961	18792.5
482.166	19124.27
482.37	18669.62
482.574	18182.21
482.778	18112.58
482.983	18509.88
483.187	18163.78
483.391	18077.76
483.595	17915.97
483.8	17578.06
484.004	17483.85
484.208	17789
484.412	17109.07
484.616	17084.5
484.821	17008.72
485.025	16246.88
485.229	16500.83
485.433	16078.94
485.637	16212.06
485.841	15779.94
486.045	15310.96
486.249	15581.29
486.453	15132.78
486.657	15020.14
486.861	14917.75
487.065	14317.69
487.269	14223.48
487.473	13742.21
487.677	14063.74
487.881	13979.78
488.085	13467.78
488.289	13461.64
488.493	12789.91
488.697	12961.94
488.901	12697.75
489.105	12441.75
489.309	12060.83
489.512	12157.08
489.716	11774.11
489.92	11559.08
490.124	11387.05
490.328	11432.1
490.531	10959.02
490.735	10873.01
490.939	10440.89
491.143	10371.26
491.346	10094.78
491.55	10264.76
491.754	9898.17
491.958	9738.43
492.161	9726.14
492.365	9554.12
492.569	9357.51
492.772	9087.18
492.976	9040.08
493.18	8970.44
493.383	9044.17
493.587	8820.94
493.79	8483.03
493.994	8499.41
494.197	8429.78
494.401	8413.4
494.605	8255.7
494.808	8308.95
495.012	8122.59
495.215	8255.7
495.419	8147.16
495.622	7928.03
495.825	7848.16
496.029	7860.45
496.232	8012
496.436	7792.86
496.639	7985.37
496.843	7674.08
497.046	7721.18
497.249	7790.81
497.453	7868.64
497.656	7899.36
497.859	7878.88
498.063	7934.17
498.266	7842.01
498.469	7504.1
498.673	7932.12
498.876	7815.39
499.079	7835.87
499.282	7846.11
499.485	8380.63
499.689	8255.7
499.892	8155.35
500.095	7983.32
500.298	8147.16
500.501	8003.8
500.705	8372.44
500.908	8339.67
501.111	8333.53
501.314	8585.43
501.517	8698.06
501.72	8653.01
501.923	8726.74
502.126	8829.13
502.329	9134.28
502.532	9046.22
502.735	8976.59
502.938	9337.03
503.141	9265.35
503.344	9447.62
503.547	9631.94
503.75	9705.67
503.953	9881.79
504.156	10068.16
504.359	10102.97
504.562	10010.81
504.765	10176.7
504.968	10582.2
505.17	10571.96
505.373	10795.18
505.576	11090.09
505.779	11096.24
505.982	11167.91
506.185	11636.9
506.387	11600.04
506.59	11882.66
506.793	11937.95
506.996	12046.49
507.198	12697.75
507.401	12953.74
507.604	13052.05
507.807	12984.46
508.009	13396.1
508.212	13836.42
508.415	13961.34
508.617	14241.92
508.82	14624.89
509.022	14463.1
509.225	15192.17
509.428	15603.82
509.63	15810.66
509.833	16019.55
510.035	16945.23
510.238	16730.2
510.44	17068.11
510.643	17592.39
510.845	17985.6
511.048	18165.82
511.25	18595.9
511.453	18976.82
511.655	19931.17
511.858	20045.86
512.06	20725.79
512.262	20774.94
512.465	21094.42
512.667	21549.07
512.87	22208.51
513.072	22718.46
513.274	23281.65
513.477	23707.63
513.679	24514.53
513.881	24973.27
514.084	25102.29
514.286	25855.95
514.488	26501.06
514.69	27611.06
514.893	27625.39
515.095	28313.51
515.297	29020.06
515.499	29300.63
515.701	30216.07
515.904	30803.84
516.106	31588.21
516.308	32038.76
516.51	32900.96
516.712	33140.57
516.914	33982.29
517.116	34828.1
517.318	35104.57
517.52	35690.29
517.722	35991.34
517.925	37152.54
518.127	37795.6
518.329	38688.52
518.531	38446.86
518.733	39935.73
518.935	40183.54
519.136	40709.86
519.338	41547.48
519.54	42247.89
519.742	43222.72
519.944	43404.99
520.146	44271.28
520.348	44619.44
520.55	45041.32
520.752	45870.75
520.954	46687.88
521.155	46540.43
521.357	47521.41
521.559	48109.18
521.761	49176.17
521.963	48952.94
522.164	49378.92
522.366	49753.69
522.568	50173.53
522.77	50978.38
522.971	51347.01
523.173	51211.85
523.375	51985.98
523.576	51365.45
523.778	51623.49
523.98	52897.33
524.181	53005.87
524.383	53093.93
524.584	53229.1
524.786	53345.83
524.988	53177.9
525.189	53331.5
525.391	53788.19
525.592	53757.47
525.794	53732.9
525.995	54011.42
526.197	53857.82
526.398	53790.24
526.6	53675.55
526.801	53665.31
527.003	53421.61
527.204	53317.16
527.406	53444.13
527.607	53229.1
527.808	53374.5
528.01	52282.94
528.211	52184.63
528.412	52235.83
528.614	52145.72
528.815	51248.71
529.016	51654.21
529.218	50509.39
529.419	50650.7
529.62	49927.77
529.822	49643.1
530.023	49172.07
530.224	48760.43
530.425	48166.52
530.626	47273.6
530.828	47097.48
531.029	47685.25
531.23	46476.94
531.431	45837.98
531.632	45588.13
531.833	45414.05
532.035	44773.03
532.236	44097.2
532.437	43728.57
532.638	42970.82
532.839	42905.29
533.04	42526.41
533.241	41629.4
533.442	41434.85
533.643	40629.99
533.844	39759.61
534.045	39331.58
534.246	39157.5
534.447	38711.05
534.648	37979.92
534.849	37490.46
535.05	36640.55
535.251	36599.59
535.451	36235.05
535.652	35282.75
535.853	35417.91
536.054	34959.17
536.255	34377.54
536.456	33415
536.657	33939.28
536.857	32784.23
537.058	32628.58
537.259	32456.55
537.46	31729.52
537.66	31190.91
537.861	31113.08
538.062	30695.3
538.263	29980.56
538.463	29847.44
538.664	29538.19
538.865	29136.79
539.065	28676
539.266	27783.09
539.466	27963.31
539.667	27684.78
539.868	27705.26
540.068	27025.34
540.269	26378.18
540.469	26558.4
540.67	25946.06
540.87	26132.42
541.071	25153.49
541.271	25372.63
541.472	25133.01
541.672	24496.1
541.873	24389.6
542.073	23926.76
542.274	23928.81
542.474	23777.26
542.675	23283.7
542.875	23183.35
543.075	22827
543.276	22337.54
543.476	22282.24
543.676	22009.86
543.877	21934.09
544.077	21809.16
544.277	21317.65
544.478	21256.21
544.678	20916.25
544.878	20557.85
545.078	20441.12
545.279	20015.14
545.479	19728.42
545.679	19736.62
545.879	19445.8
546.079	19251.25
546.28	19161.14
546.48	18767.93
546.68	19048.5
546.88	18245.69
547.08	18563.13
547.28	18059.33
547.48	17807.43
547.68	17619.02
547.88	16945.23
548.081	17078.35
548.281	16918.61
548.481	16527.45
548.681	16566.36
548.881	16392.28
549.081	15986.79
549.28	15943.78
549.48	15874.15
549.68	15558.76
549.88	15515.75
550.08	15071.34
550.28	14805.11
550.48	14917.75
550.68	14694.52
550.88	14012.54
551.08	14061.69
551.279	14004.35
551.479	13602.95
551.679	13566.09
551.879	13058.19
552.079	13213.84
552.278	12945.55
552.478	12951.7
552.678	12587.16
552.878	12562.58
553.077	12308.63
553.277	12230.81
553.477	12040.35
553.676	11710.63
553.876	11597.99
554.076	11110.57
554.275	11188.39
554.475	10836.14
554.674	10893.49
554.874	10746.03
555.074	10254.52
555.273	10330.3
555.473	10477.75
555.672	10029.24
555.872	10016.96
556.071	9902.27
556.271	9738.43
556.47	9251.02
556.67	9062.6
556.869	8874.19
557.068	8874.19
557.268	8872.14
557.467	8685.78
557.667	8528.08
557.866	8345.81
558.065	8229.08
558.265	8151.26
558.464	7946.46
558.663	8016.09
558.863	7739.62
559.062	7653.6
559.261	7479.52
559.461	7489.76
559.66	7211.24
559.859	7012.59
560.058	7037.16
560.258	6826.22
560.457	6797.55
560.656	6836.46
560.855	6564.08
561.054	6664.43
561.253	6471.92
561.453	6324.47
561.652	6308.09
561.851	6263.03
562.05	5863.68
562.249	5906.68
562.448	5822.72
562.647	5675.26
562.846	5708.03
563.045	5691.65
563.244	5361.92
563.443	5486.85
563.642	5230.85
563.841	5249.29
564.04	5153.03
564.239	5083.4
564.438	4950.28
564.637	4929.8
564.836	5079.3
565.035	4729.1
565.234	4768.01
565.432	4653.33
565.631	4638.99
565.83	4481.3
566.029	4464.91
566.228	4475.15
566.427	4364.56
566.625	4131.09
566.824	4264.21
567.023	4143.38
567.222	4026.65
567.42	4135.19
567.619	4034.84
567.818	4043.03
568.016	3969.3
568.215	3782.94
568.414	3717.4
568.612	3774.75
568.811	3741.98
569.01	3619.1
569.208	3488.03
569.407	3559.71
569.605	3590.43
569.804	3459.36
570.002	3328.29
570.201	3318.05
570.4	3338.53
570.598	3232.04
570.797	3301.67
570.995	3037.48
571.193	3121.45
571.392	3000.62
571.59	2916.65
571.789	3012.9
571.987	2945.32
572.186	2892.07
572.384	2863.4
572.582	2748.72
572.781	2795.82
572.979	2613.55
573.177	2570.54
573.376	2650.41
573.574	2521.39
573.772	2484.53
573.971	2543.92
574.169	2423.09
574.367	2435.38
574.565	2502.96
574.763	2242.87
574.962	2351.41
575.16	2289.97
575.358	2263.35
575.556	2320.69
575.754	2103.61
575.952	2148.66
576.151	2144.56
576.349	2210.1
576.547	1878.33
576.745	2095.41
576.943	2048.31
577.141	1984.82
577.339	1792.31
577.537	1935.67
577.735	2068.79
577.933	1880.38
578.131	1872.18
578.329	1872.18
578.527	1784.12
578.725	1755.45
578.923	1534.27
579.121	1745.21
579.319	1472.83
579.516	1493.31
579.714	1790.27
579.912	1503.55
580.11	1511.74
580.308	1468.73
580.506	1464.64
580.704	1284.42
580.901	1442.11
581.099	1495.36
581.297	1462.59
581.495	1444.16
581.692	1382.72
581.89	1497.41
582.088	1413.44
582.285	1349.95
582.483	1182.02
582.681	1134.92
582.878	1241.41
583.076	1182.02
583.274	1319.23
583.471	1214.79
583.669	1151.3
583.866	1018.18
584.064	1063.24
584.262	1053
584.459	1050.95
584.657	1087.81
584.854	1050.95
585.052	1059.14
585.249	1063.24
585.447	954.69
585.644	946.5
585.841	1048.9
586.039	1055.05
586.236	1042.76
586.434	923.98
586.631	940.36
586.828	866.63
587.026	954.69
587.223	903.5
587.42	880.97
587.618	1057.09
587.815	946.5
588.012	971.08
588.21	780.62
588.407	948.55
588.604	870.73
588.801	829.77
588.999	809.29
589.196	936.26
589.393	790.86
589.59	850.25
589.787	901.45
589.984	909.64
590.182	928.07
590.379	770.38
590.576	692.55
590.773	842.06
590.97	706.89
591.167	878.92
591.364	827.72
591.561	684.36
591.758	891.21
591.955	799.05
592.152	788.81
592.349	721.23
592.546	657.74
592.743	688.46
592.94	784.71
593.137	702.79
593.334	870.73
593.531	837.96
593.727	735.56
593.924	780.62
594.121	821.58
594.318	715.08
594.515	760.14
594.712	862.54
594.908	930.12
595.105	745.8
595.302	809.29
595.499	901.45
595.696	1009.99
595.892	792.91
596.089	895.3
596.286	741.71
596.482	1026.37
596.679	975.17
596.876	876.87
597.072	1009.99
597.269	907.59
597.466	1071.43
597.662	1012.04
597.859	911.69
598.055	1077.57
598.252	1020.23
598.448	1208.64
598.645	1296.71
598.841	1263.94
599.038	1421.63
599.234	1380.67
599.431	1403.2
599.627	1343.81
599.824	1485.12
600.02	1608
600.217	1587.52
600.413	1644.86
600.609	1714.49
600.806	2027.83
601.002	1823.03
601.198	1765.69
601.395	2017.59
601.591	2070.84
601.787	2246.96
601.984	2302.26
602.18	2285.87
602.376	2388.27
602.572	2480.43
602.769	2533.68
602.965	2650.41
603.161	2722.09
603.357	2842.92
603.553	3068.2
603.75	2953.51
603.946	3062.05
604.142	3240.23
604.338	3438.88
604.534	3397.92
604.73	3438.88
604.926	3539.23
605.122	3864.86
605.318	3989.78
605.514	4124.95
605.71	4112.66
605.906	4266.26
606.102	4331.8
606.298	4577.55
606.494	4788.49
606.69	4892.94
606.886	4856.08
607.082	5073.16
607.278	5185.8
607.474	5335.3
607.67	5574.91
607.866	5558.53
608.062	5775.61
608.257	6009.08
608.453	6080.76
608.649	6228.21
608.845	6441.2
609.041	6629.62
609.236	6787.31
609.432	6887.66
609.628	7254.25
609.824	7416.04
610.019	7413.99
610.215	7624.93
610.411	7895.26
610.606	8214.74
610.802	8241.37
610.998	8726.74
611.193	8853.71
611.389	8796.37
611.584	9269.45
611.78	9316.55
611.976	9689.28
612.171	10102.97
612.367	10231.99
612.562	10547.38
612.758	10733.75
612.953	10942.64
613.149	11298.98
613.344	11538.6
613.539	12034.21
613.735	12251.29
613.93	12626.07
614.126	12540.05
614.321	13320.33
614.517	13578.37
614.712	13996.16
614.907	14227.58
615.103	14624.89
615.298	14850.16
615.493	15386.73
615.688	15546.47
615.884	16509.02
616.079	16183.39
616.274	16965.71
616.47	17377.36
616.665	17856.58
616.86	18196.54
617.055	18716.73
617.25	18939.96
617.445	19753
617.641	19730.47
617.836	20418.59
618.031	20686.87
618.226	21694.47
618.421	22138.88
618.616	22806.52
618.811	22683.64
619.006	23547.89
619.201	23580.65
619.396	24389.6
619.591	24709.08
619.786	25728.97
619.981	25702.35
620.176	26761.15
620.371	26888.12
620.566	28059.56
620.761	28260.26
620.956	28901.28
621.151	29376.41
621.346	30244.74
621.541	30345.09
621.735	31184.76
621.93	31682.42
622.125	32288.62
622.32	32544.61
622.515	33541.97
622.709	34017.1
622.904	34025.29
623.099	35067.71
623.294	35639.09
623.488	36032.3
623.683	37087.01
623.878	37199.65
624.072	37797.65
624.267	38969.09
624.462	39288.57
624.656	39649.02
624.851	40488.68
625.046	41033.44
625.24	41373.41
625.435	41823.96
625.629	42741.45
625.824	42731.21
626.018	43534.01
626.213	43359.94
626.407	44095.16
626.602	44639.92
626.796	45510.3
626.991	45944.47
627.185	46100.12
627.38	46188.18
627.574	46376.59
627.768	46898.83
627.963	46700.17
628.157	46542.48
628.352	47308.42
628.546	46827.15
628.74	47713.92
628.935	47009.42
629.129	47242.88
629.323	46495.38
629.517	46796.43
629.712	46497.42
629.906	46261.91
630.1	45338.27
630.294	44959.4
630.489	44105.4
630.683	44113.59
630.877	43179.71
631.071	42464.97
631.265	42200.79
631.459	41103.07
631.653	40330.99
631.848	39137.02
632.042	38465.29
632.236	37773.08
632.43	36468.52
632.624	35368.76
632.818	34205.52
633.012	33263.45
633.206	32018.28
633.4	31418.23
633.594	29925.26
633.788	29292.44
633.982	28188.58
634.176	27334.58
634.369	25749.45
634.563	25341.91
634.757	24203.24
634.951	23537.65
635.145	22630.4
635.339	21684.23
635.533	20617.24
635.726	19912.74
635.92	18831.41
636.114	18257.98
636.308	17709.13
636.501	16918.61
636.695	16207.97
636.889	15200.37
637.083	14850.16
637.276	14203
637.47	13455.5
637.664	12941.46
637.857	12525.72
638.051	12181.66
638.244	11638.95
638.438	10913.97
638.632	10819.76
638.825	10174.65
639.019	9947.33
639.212	9386.18
639.406	9038.03
639.599	8825.04
639.793	8388.82
639.986	7987.42
640.18	7885.02
640.373	7450.85
640.567	7035.11
640.76	6863.08
640.954	6535.41
641.147	6293.75
641.34	6033.66
641.534	5894.4
641.727	5699.84
641.92	5538.05
642.114	5132.55
642.307	4999.43
642.5	4970.76
642.694	4561.17
642.887	4514.06
643.08	4462.87
643.273	4241.68
643.467	3834.14
643.66	3868.95
643.853	3709.21
644.046	3563.81
644.239	3518.75
644.432	3201.32
644.626	3035.43
644.819	3035.43
645.012	2939.18
645.205	2935.08
645.398	2787.63
645.591	2576.69
645.784	2488.62
645.977	2347.31
646.17	2269.49
646.363	2189.62
646.556	2021.69
646.749	2036.02
646.942	2087.22
647.135	1995.06
647.328	1913.14
647.521	1868.09
647.714	1683.77
647.907	1624.38
648.099	1448.26
648.292	1614.14
648.485	1517.89
648.678	1317.19
648.871	1294.66
649.064	1282.37
649.256	1237.31
649.449	1231.17
649.642	1098.05
649.835	1098.05
650.027	1032.52
650.22	1116.48
650.413	989.51
650.605	1003.85
650.798	944.45
650.991	964.93
651.183	862.54
651.376	883.02
651.568	876.87
651.761	743.75
651.954	807.24
652.146	696.65
652.339	819.53
652.531	766.28
652.724	657.74
652.916	745.8
653.109	612.68
653.301	678.22
653.494	684.36
653.686	627.02
653.879	702.79
654.071	604.49
654.263	461.13
654.456	508.24
654.648	520.53
654.84	551.24
655.033	420.17
655.225	612.68
655.417	414.03
655.61	631.12
655.802	541.01
655.994	524.62
656.186	393.55
656.379	440.65
656.571	338.26
656.763	311.63
656.955	383.31
657.148	391.5
657.34	379.22
657.532	295.25
657.724	317.78
657.916	385.36
658.108	401.74
658.3	368.98
658.492	401.74
658.684	231.76
658.876	387.41
659.068	256.34
659.26	129.36
659.452	313.68
659.644	377.17
659.836	332.11
660.028	301.39
660.22	219.47
660.412	266.58
660.604	262.48
660.796	317.78
660.988	342.35
661.18	293.2
661.372	305.49
661.563	188.75
661.755	270.67
661.947	194.9
662.139	225.62
662.331	242
662.522	248.15
662.714	149.84
662.906	80.21
663.097	287.06
663.289	129.36
663.481	141.65
663.673	231.76
663.864	209.23
664.056	164.18
664.247	145.75
664.439	309.58
664.631	201.04
664.822	262.48
665.014	235.86
665.205	203.09
665.397	188.75
665.588	250.19
665.78	274.77
665.971	221.52
666.163	80.21
666.354	268.63
666.546	196.95
666.737	137.56
666.929	194.9
667.12	119.12
667.311	225.62
667.503	190.8
667.694	235.86
667.885	178.51
668.077	293.2
668.268	106.84
668.459	203.09
668.651	139.6
668.842	221.52
669.033	106.84
669.224	92.5
669.416	274.77
669.607	188.75
669.798	117.08
669.989	201.04
670.18	166.23
670.371	248.15
670.563	41.3
670.754	242
670.945	190.8
671.136	272.72
671.327	147.8
671.518	235.86
671.709	272.72
671.9	145.75
672.091	268.63
672.282	170.32
672.473	233.81
672.664	96.6
672.855	133.46
673.046	231.76
673.237	254.29
673.428	176.47
673.619	242
673.809	141.65
674	248.15
674.191	233.81
674.382	160.08
674.573	168.27
674.764	198.99
674.954	278.87
675.145	108.88
675.336	108.88
675.527	106.84
675.717	59.73
675.908	135.51
676.099	104.79
676.289	147.8
676.48	104.79
676.671	158.03
676.861	172.37
677.052	186.71
677.243	192.85
677.433	61.78
677.624	303.44
677.814	293.2
678.005	209.23
678.195	276.82
678.386	153.94
678.576	174.42
678.767	69.97
678.957	203.09
679.148	301.39
679.338	338.26
679.529	209.23
679.719	262.48
679.909	262.48
680.1	280.91
680.29	264.53
680.481	158.03
680.671	194.9
680.861	266.58
681.052	229.71
681.242	188.75
681.432	250.19
681.622	242
681.813	170.32
682.003	211.28
682.193	160.08
682.383	149.84
682.573	219.47
682.764	188.75
682.954	217.43
683.144	368.98
683.334	252.24
683.524	182.61
683.714	248.15
683.904	258.39
684.094	213.33
684.284	274.77
684.474	330.06
684.664	303.44
684.854	389.46
685.044	270.67
685.234	262.48
685.424	250.19
685.614	252.24
685.804	344.4
685.994	299.34
686.184	235.86
686.374	264.53
686.564	301.39
686.753	276.82
686.943	237.91
687.133	192.85
687.323	297.3
687.513	405.84
687.702	229.71
687.892	233.81
688.082	317.78
688.272	225.62
688.461	266.58
688.651	416.08
688.841	360.78
689.03	340.3
689.22	242
689.41	344.4
689.599	297.3
689.789	180.56
689.979	393.55
690.168	274.77
690.358	321.87
690.547	254.29
690.737	379.22
690.926	301.39
691.116	272.72
691.305	336.21
691.495	366.93
691.684	235.86
691.874	196.95
692.063	270.67
692.252	299.34
692.442	364.88
692.631	205.14
692.82	201.04
693.01	297.3
693.199	219.47
693.388	235.86
693.578	260.43
693.767	350.54
693.956	268.63
694.146	260.43
694.335	227.67
694.524	225.62
694.713	313.68
694.902	242
695.092	168.27
695.281	389.46
695.47	215.38
695.659	196.95
695.848	242
696.037	227.67
696.226	352.59
696.415	248.15
696.604	373.07
696.793	309.58
696.982	287.06
697.171	409.94
697.36	217.43
697.549	231.76
697.738	246.1
697.927	239.95
698.116	201.04
698.305	268.63
698.494	246.1
698.683	151.89
698.872	360.78
699.061	198.99
699.25	274.77
699.438	229.71
699.627	207.19
699.816	467.28
700.005	196.95
700.193	287.06
700.382	270.67
700.571	229.71
700.76	315.73
700.948	289.1
701.137	291.15
701.326	250.19
701.514	145.75
701.703	295.25
701.892	215.38
702.08	448.85
702.269	207.19
702.457	198.99
702.646	260.43
702.834	235.86
703.023	301.39
703.212	293.2
703.4	315.73
703.589	174.42
703.777	233.81
703.965	217.43
704.154	268.63
704.342	145.75
704.531	237.91
704.719	295.25
704.907	346.45
705.096	180.56
705.284	172.37
705.472	225.62
705.661	278.87
705.849	242
706.037	325.97
706.226	219.47
706.414	231.76
706.602	145.75
706.79	346.45
706.979	227.67
707.167	285.01
707.355	123.22
707.543	315.73
707.731	291.15
707.919	330.06
708.107	196.95
708.296	209.23
708.484	303.44
708.672	293.2
708.86	276.82
709.048	227.67
709.236	194.9
709.424	391.5
709.612	332.11
709.8	133.46
709.988	307.54
710.176	325.97
710.364	348.5
710.551	229.71
710.739	227.67
710.927	315.73
711.115	276.82
711.303	301.39
711.491	278.87
711.679	270.67
711.866	338.26
712.054	227.67
712.242	319.82
712.43	278.87
712.617	299.34
712.805	334.16
712.993	325.97
713.181	250.19
713.368	414.03
713.556	285.01
713.744	242
713.931	411.98
714.119	272.72
714.306	272.72
714.494	276.82
714.682	268.63
714.869	203.09
715.057	280.91
715.244	178.51
715.432	287.06
715.619	211.28
715.807	276.82
715.994	274.77
716.182	252.24
716.369	276.82
716.556	330.06
716.744	211.28
716.931	223.57
717.119	317.78
717.306	256.34
717.493	375.12
717.681	264.53
717.868	266.58
718.055	368.98
718.242	317.78
718.43	375.12
718.617	325.97
718.804	248.15
718.991	342.35
719.179	297.3
719.366	332.11
719.553	303.44
719.74	233.81
719.927	242
720.114	330.06
720.301	176.47
720.488	272.72
720.676	231.76
720.863	354.64
721.05	387.41
721.237	385.36
721.424	344.4
721.611	301.39
721.798	252.24
721.985	227.67
722.172	285.01
722.358	295.25
722.545	336.21
722.732	285.01
722.919	399.7
723.106	422.22
723.293	348.5
723.48	270.67
723.667	264.53
723.853	348.5
724.04	340.3
724.227	389.46
724.414	297.3
724.6	368.98
724.787	411.98
724.974	416.08
725.161	350.54
725.347	258.39
725.534	311.63
725.72	381.26
725.907	446.8
726.094	354.64
726.28	291.15
726.467	301.39
726.653	268.63
726.84	416.08
727.027	411.98
727.213	325.97
727.4	356.69
727.586	319.82
727.773	252.24
727.959	323.92
728.145	428.37
728.332	366.93
728.518	323.92
728.705	424.27
728.891	420.17
729.077	401.74
729.264	364.88
729.45	309.58
729.636	373.07
729.823	442.7
730.009	414.03
730.195	383.31
730.382	411.98
730.568	182.61
730.754	356.69
730.94	303.44
731.126	401.74
731.313	362.83
731.499	338.26
731.685	366.93
731.871	434.51
732.057	366.93
732.243	385.36
732.429	299.34
732.615	493.9
732.801	383.31
732.987	381.26
733.173	371.02
733.359	350.54
733.545	418.13
733.731	358.74
733.917	463.18
734.103	371.02
734.289	278.87
734.475	250.19
734.661	469.33
734.847	407.89
735.033	371.02
735.219	399.7
735.404	377.17
735.59	260.43
735.776	311.63
735.962	403.79
736.148	379.22
736.333	446.8
736.519	305.49
736.705	424.27
736.89	371.02
737.076	495.95
737.262	307.54
737.447	385.36
737.633	332.11
737.819	467.28
738.004	452.94
738.19	450.89
738.375	416.08
738.561	448.85
738.747	510.29
738.932	334.16
739.118	584.01
739.303	381.26
739.489	450.89
739.674	260.43
739.859	319.82
740.045	463.18
740.23	420.17
740.416	174.42
740.601	512.33
740.786	342.35
740.972	383.31
741.157	414.03
741.342	252.24
741.528	364.88
741.713	440.65
741.898	297.3
742.084	317.78
742.269	371.02
742.454	319.82
742.639	428.37
742.824	383.31
743.01	436.56
743.195	510.29
743.38	307.54
743.565	381.26
743.75	442.7
743.935	368.98
744.12	506.19
744.305	313.68
744.49	420.17
744.675	379.22
744.86	379.22
745.045	381.26
745.23	364.88
745.415	305.49
745.6	420.17
745.785	354.64
745.97	442.7
746.155	377.17
746.34	442.7
746.525	364.88
746.71	430.41
746.895	280.91
747.079	297.3
747.264	340.3
747.449	377.17
747.634	397.65
747.819	332.11
748.003	338.26
748.188	231.76
748.373	315.73
748.557	350.54
748.742	313.68
748.927	340.3
749.111	289.1
749.296	342.35
749.481	336.21
749.665	344.4
749.85	360.78
750.034	377.17
750.219	334.16
750.404	227.67
750.588	440.65
750.773	233.81
750.957	256.34
751.141	289.1
751.326	315.73
751.51	280.91
751.695	342.35
751.879	319.82
752.064	416.08
752.248	246.1
752.432	387.41
752.617	323.92
752.801	354.64
752.985	336.21
753.17	360.78
753.354	366.93
753.538	287.06
753.722	276.82
753.907	242
754.091	164.18
754.275	293.2
754.459	221.52
754.643	203.09
754.828	190.8
755.012	344.4
755.196	215.38
755.38	282.96
755.564	237.91
755.748	278.87
755.932	207.19
756.116	266.58
756.3	313.68
756.484	221.52
756.668	250.19
756.852	141.65
757.036	268.63
757.22	266.58
757.404	233.81
757.588	282.96
757.772	182.61
757.956	203.09
758.14	340.3
758.323	282.96
758.507	227.67
758.691	254.29
758.875	262.48
759.059	309.58
759.242	141.65
759.426	260.43
759.61	158.03
759.794	55.64
759.977	309.58
760.161	383.31
760.345	350.54
760.528	262.48
760.712	268.63
760.895	256.34
761.079	145.75
761.263	168.27
761.446	88.4
761.63	133.46
761.813	282.96
761.997	143.7
762.18	155.99
762.364	256.34
762.547	65.88
762.731	235.86
762.914	155.99
763.098	168.27
763.281	270.67
763.464	88.4
763.648	223.57
763.831	198.99
764.015	24.92
764.198	209.23
764.381	153.94
764.564	112.98
764.748	180.56
764.931	262.48
765.114	45.4
765.297	252.24
765.481	172.37
765.664	164.18
765.847	176.47
766.03	262.48
766.213	74.07
766.397	147.8
766.58	55.64
766.763	162.13
766.946	98.64
767.129	133.46
767.312	82.26
767.495	190.8
767.678	153.94
767.861	227.67
768.044	51.54
768.227	131.41
768.41	147.8
768.593	194.9
768.776	102.74
768.959	69.97
769.142	229.71
769.324	164.18
769.507	135.51
769.69	112.98
769.873	139.6
770.056	313.68
770.239	235.86
770.421	172.37
770.604	174.42
770.787	166.23
770.97	168.27
771.152	63.83
771.335	176.47
771.518	104.79
771.7	209.23
771.883	280.91
772.066	121.17
772.248	192.85
772.431	225.62
772.613	143.7
772.796	160.08
772.978	135.51
773.161	198.99
773.343	129.36
773.526	78.16
773.708	92.5
773.891	153.94
774.073	104.79
774.256	133.46
774.438	215.38
774.621	98.64
774.803	201.04
774.985	90.45
775.168	180.56
775.35	149.84
775.532	133.46
775.715	72.02
775.897	88.4
776.079	78.16
776.261	125.27
776.444	123.22
776.626	145.75
776.808	82.26
776.99	10.58
777.173	123.22
777.355	26.96
777.537	160.08
777.719	88.4
777.901	112.98
778.083	74.07
778.265	-7.85
778.447	196.95
778.629	90.45
778.811	153.94
778.993	94.55
779.175	100.69
779.357	80.21
779.539	72.02
779.721	18.77
779.903	72.02
780.085	67.92
780.267	76.12
780.449	94.55
780.631	235.86
780.812	153.94
780.994	72.02
781.176	45.4
781.358	133.46
781.54	6.49
781.721	166.23
781.903	170.32
782.085	92.5
782.267	94.55
782.448	-38.57
782.63	63.83
782.812	149.84
782.993	121.17
783.175	106.84
783.357	45.4
783.538	80.21
783.72	35.16
783.901	149.84
784.083	129.36
784.264	176.47
784.446	72.02
784.627	41.3
784.809	115.03
784.99	29.01
785.172	170.32
785.353	72.02
785.535	133.46
785.716	53.59
785.897	33.11
786.079	37.2
786.26	115.03
786.441	143.7
786.623	-42.67
786.804	-20.14
786.985	59.73
787.167	143.7
787.348	45.4
787.529	94.55
787.71	104.79
787.891	133.46
788.073	-5.8
788.254	-46.76
788.435	264.53
788.616	133.46
788.797	-52.91
788.978	2.39
789.159	20.82
789.34	164.18
789.522	67.92
789.703	49.49
789.884	37.2
790.065	131.41
790.246	186.71
790.427	-34.47
790.607	174.42
790.788	100.69
790.969	61.78
791.15	104.79
791.331	35.16
791.512	29.01
791.693	8.53
791.874	18.77
792.054	254.29
792.235	129.36
792.416	-7.85
792.597	-11.95
792.778	121.17
792.958	121.17
793.139	104.79
793.32	31.06
793.5	10.58
793.681	172.37
793.862	57.68
794.042	72.02
794.223	12.63
794.404	88.4
794.584	10.58
794.765	82.26
794.945	78.16
795.126	121.17
795.306	180.56
795.487	-9.9
795.667	-13.99
795.848	72.02
796.028	12.63
796.209	63.83
796.389	143.7
796.57	98.64
796.75	-38.57
796.93	94.55
797.111	-24.23
797.291	29.01
797.471	96.6
797.652	78.16
797.832	-3.75
798.012	96.6
798.192	33.11
798.373	-50.86
798.553	10.58
798.733	29.01
798.913	43.35
799.093	35.16
799.274	65.88
799.454	65.88
799.634	20.82
799.814	198.99
799.994	117.08
800.174	143.7
800.354	4.44
800.534	-48.81
800.714	166.23
800.894	-5.8
801.074	-9.9
801.254	29.01
801.434	192.85
801.614	31.06
801.794	-18.09
801.974	1798.46
802.154	26.96
802.334	84.31
802.514	-13.99
802.693	-11.95
802.873	-30.38
803.053	162.13
803.233	18.77
803.413	-3.75
803.592	-46.76
803.772	-22.19
803.952	0.34
804.131	-67.24
804.311	127.32
804.491	125.27
804.67	-5.8
804.85	-54.95
805.03	53.59
805.209	115.03
805.389	12.63
805.568	26.96
805.748	59.73
805.928	4.44
806.107	90.45
806.287	33.11
806.466	65.88
806.646	47.44
806.825	20.82
807.004	-24.23
807.184	59.73
807.363	125.27
807.543	31.06
807.722	-44.71
807.901	119.12
808.081	88.4
808.26	-65.19
808.439	35.16
808.619	53.59
808.798	-30.38
808.977	92.5
809.156	100.69
809.336	82.26
809.515	96.6
809.694	-44.71
809.873	0.34
810.052	55.64
810.231	155.99
810.411	57.68
810.59	67.92
810.769	57.68
810.948	153.94
811.127	-106.15
811.306	-22.19
811.485	-20.14
811.664	229.71
811.843	55.64
812.022	57.68
812.201	37.2
812.38	20.82
812.559	31.06
812.737	123.22
812.916	-85.67
813.095	-75.43
813.274	78.16
813.453	76.12
813.632	78.16
813.811	49.49
813.989	-40.62
814.168	98.64
814.347	-11.95
814.526	-54.95
814.704	168.27
814.883	22.87
815.062	-44.71
815.24	53.59
815.419	-50.86
815.598	29.01
815.776	0.34
815.955	39.25
816.133	-116.39
816.312	78.16
816.49	-18.09
816.669	20.82
816.847	2.39
817.026	20.82
817.204	20.82
817.383	51.54
817.561	-40.62
817.74	65.88
817.918	0.34
818.097	-13.99
818.275	-48.81
818.453	41.3
818.632	12.63
818.81	55.64
818.988	31.06
819.167	6.49
819.345	59.73
819.523	55.64
819.701	41.3
819.879	74.07
820.058	35.16
820.236	-7.85
820.414	102.74
820.592	12.63
820.77	18.77
820.948	-52.91
821.127	-7.85
821.305	65.88
821.483	-32.43
821.661	78.16
821.839	-3.75
822.017	-108.2
822.195	-69.29
822.373	131.41
822.551	86.36
822.729	35.16
822.907	24.92
823.085	88.4
823.262	41.3
823.44	-32.43
823.618	33.11
823.796	-13.99
823.974	26.96
824.152	-3.75
824.329	-20.14
824.507	41.3
824.685	0.34
824.863	35.16
825.04	10.58
825.218	121.17
825.396	22.87
825.574	102.74
825.751	14.68
825.929	88.4
826.107	-61.1
826.284	53.59
826.462	55.64
826.639	-75.43
826.817	-73.39
826.994	2.39
827.172	-18.09
827.349	149.84
827.527	2.39
827.704	45.4
827.882	61.78
828.059	10.58
828.237	31.06
828.414	88.4
828.591	-87.72
828.769	29.01
828.946	29.01
829.124	82.26
829.301	160.08
829.478	-26.28
829.655	96.6
829.833	-48.81
830.01	-79.53
830.187	29.01
830.364	14.68
830.542	-48.81
830.719	129.36
830.896	-13.99
831.073	20.82
831.25	123.22
831.427	100.69
831.604	-36.52
831.782	-83.63
831.959	61.78
832.136	65.88
832.313	8.53
832.49	-11.95
832.667	35.16
832.844	-100.01
833.021	100.69
833.198	51.54
833.374	39.25
833.551	37.2
833.728	-7.85
833.905	53.59
834.082	-75.43
834.259	18.77
834.436	108.88
834.612	-87.72
834.789	106.84
834.966	-32.43
835.143	63.83
835.319	-91.82
835.496	127.32
835.673	53.59
835.85	80.21
836.026	-3.75
836.203	104.79
836.38	20.82
836.556	14.68
836.733	-36.52
836.909	31.06
837.086	-11.95
837.262	-18.09
837.439	-5.8
837.616	14.68
837.792	4.44
837.968	33.11
838.145	-79.53
838.321	45.4
838.498	26.96
838.674	-11.95
838.851	2.39
839.027	-50.86
839.203	43.35
839.38	41.3
839.556	-71.34
839.732	119.12
839.909	88.4
840.085	49.49
840.261	10.58
840.437	18.77
840.614	4.44
840.79	133.46
840.966	115.03
841.142	24.92
841.318	35.16
841.494	72.02
841.671	121.17
841.847	22.87
842.023	-65.19
842.199	72.02
842.375	74.07
842.551	-42.67
842.727	-71.34
842.903	170.32
843.079	-26.28
843.255	65.88
843.431	-32.43
843.607	94.55
843.783	-130.73
843.959	-1.71
844.134	-9.9
844.31	141.65
844.486	-61.1
844.662	-65.19
844.838	22.87
845.013	65.88
845.189	16.73
845.365	51.54
845.541	61.78
845.716	69.97
845.892	125.27
846.068	-57
846.244	53.59
846.419	67.92
846.595	-93.87
846.77	-20.14
846.946	145.75
847.122	-40.62
847.297	-67.24
847.473	190.8
847.648	-5.8
847.824	100.69
847.999	-83.63
848.175	35.16
848.35	90.45
848.526	117.08
848.701	80.21
848.876	49.49
849.052	39.25
849.227	14.68
849.403	8.53
849.578	-13.99
849.753	45.4
849.929	104.79
850.104	-67.24
850.279	-48.81
850.454	51.54
850.63	123.22
850.805	69.97
850.98	10.58
851.155	39.25
851.33	2.39
851.505	-126.63
851.681	123.22
851.856	-30.38
852.031	33.11
852.206	12.63
852.381	-20.14
852.556	2.39
852.731	-9.9
852.906	43.35
853.081	16.73
853.256	41.3
853.431	35.16
853.606	-36.52
853.781	-130.73
853.956	-110.25
854.131	2.39
854.305	-30.38
854.48	-9.9
854.655	-104.11
854.83	-28.33
855.005	-26.28
855.18	-20.14
855.354	6.49
855.529	35.16
855.704	-24.23
855.879	49.49
856.053	-69.29
856.228	45.4
856.403	-87.72
856.577	49.49
856.752	-73.39
856.926	-54.95
857.101	121.17
857.276	-124.58
857.45	14.68
857.625	84.31
857.799	-34.47
857.974	88.4
858.148	-22.19
858.323	37.2
858.497	-24.23
858.672	-102.06
858.846	-79.53
859.02	186.71
859.195	-79.53
859.369	-91.82
859.543	37.2
859.718	39.25
859.892	14.68
860.066	29.01
860.241	-54.95
860.415	61.78
860.589	18.77
860.763	4.44
860.938	-40.62
861.112	76.12
861.286	-26.28
861.46	61.78
861.634	16.73
861.808	8.53
861.982	-40.62
862.157	-120.49
862.331	-59.05
862.505	-85.67
862.679	-110.25
862.853	-63.15
863.027	-46.76
863.201	153.94
863.375	-1.71
863.549	41.3
863.722	22.87
863.896	143.7
864.07	-26.28
864.244	-28.33
864.418	90.45
864.592	-40.62
864.766	6.49
864.939	55.64
865.113	-36.52
865.287	104.79
865.461	-61.1
865.634	86.36
865.808	31.06
865.982	-5.8
866.156	-102.06
866.329	-106.15
866.503	-85.67
866.676	55.64
866.85	63.83
867.024	-16.04
867.197	57.68
867.371	18.77
867.544	76.12
867.718	-75.43
867.891	53.59
868.065	-16.04
868.238	31.06
868.412	59.73
868.585	22.87
868.759	-13.99
868.932	-28.33
869.105	-59.05
869.279	72.02
869.452	-5.8
869.625	8.53
869.799	-52.91
869.972	-69.29
870.145	10.58
870.319	100.69
870.492	-48.81
870.665	-67.24
870.838	-26.28
871.011	-77.48
871.185	-30.38
871.358	-44.71
871.531	35.16
871.704	-20.14
871.877	37.2
872.05	-34.47
872.223	-52.91
872.396	96.6
872.569	121.17
872.742	-42.67
872.915	-30.38
873.088	-16.04
873.261	-44.71
873.434	24.92
873.607	43.35
873.78	125.27
873.953	-59.05
874.126	-30.38
874.299	-48.81
874.471	12.63
874.644	-73.39
874.817	14.68
874.99	137.56
875.163	65.88
875.335	53.59
875.508	18.77
875.681	39.25
875.853	-65.19
876.026	-46.76
876.199	90.45
876.371	-11.95
876.544	-13.99
876.717	-20.14
876.889	33.11
877.062	51.54
877.234	-124.58
877.407	24.92
877.579	33.11
877.752	82.26
877.924	74.07
878.097	22.87
878.269	72.02
878.442	20.82
878.614	74.07
878.786	-11.95
878.959	-20.14
879.131	-3.75
879.303	-126.63
879.476	4.44
879.648	63.83
879.82	-30.38
879.993	31.06
880.165	96.6
880.337	-67.24
880.509	6.49
880.681	-120.49
880.854	-114.34
881.026	69.97
881.198	100.69
881.37	76.12
881.542	-5.8
881.714	-24.23
881.886	-46.76
882.058	26.96
882.23	-22.19
882.402	-32.43
882.574	33.11
882.746	78.16
882.918	72.02
883.09	12.63
883.262	-34.47
883.434	18.77
883.606	-79.53
883.778	12.63
883.95	102.74
884.122	-7.85
884.293	94.55
884.465	61.78
884.637	166.23
884.809	-91.82
884.98	39.25
885.152	76.12
885.324	59.73
885.496	-32.43
885.667	-32.43
885.839	20.82
886.011	141.65
886.182	37.2
886.354	53.59
886.525	18.77
886.697	-13.99
886.869	-65.19
887.04	53.59
887.212	149.84
887.383	188.75
887.555	2.39
887.726	-59.05
887.897	-100.01
888.069	63.83
888.24	80.21
888.412	61.78
888.583	63.83
888.754	24.92
888.926	-104.11
889.097	-50.86
889.268	-67.24
889.44	6.49
889.611	-13.99
889.782	-77.48
889.953	-124.58
890.125	61.78
890.296	-91.82
890.467	-71.34
890.638	-48.81
890.809	0.34
890.98	29.01
891.151	80.21
891.323	112.98
891.494	12.63
891.665	33.11
891.836	53.59
892.007	-44.71
892.178	-3.75
892.349	69.97
892.52	-73.39
892.691	8.53
892.862	-34.47
893.032	-61.1
893.203	-26.28
893.374	-61.1
893.545	49.49
893.716	67.92
893.887	26.96
894.057	-26.28
894.228	-36.52
894.399	-73.39
894.57	143.7
894.74	8.53
894.911	100.69
895.082	-22.19
895.253	12.63
895.423	14.68
895.594	63.83
895.764	-28.33
895.935	-59.05
896.106	43.35
896.276	-42.67
896.447	20.82
896.617	-52.91
896.788	-67.24
896.958	-36.52
897.129	-77.48
897.299	-52.91
897.47	100.69
897.64	-26.28
897.81	-61.1
897.981	43.35
898.151	-22.19
898.322	65.88
898.492	20.82
898.662	-7.85
898.832	-26.28
899.003	-87.72
899.173	78.16
899.343	-69.29
899.513	-46.76
