Data from USB4F104151__83__10-34-18-736.txt Node

Date: Wed Feb 26 10:34:18 EST 2025
User: louis
Spectrometer: USB4F10415
Trigger mode: 4
Integration Time (sec): 1.000000E-1
Scans to average: 1
Electric dark correction enabled: true
Nonlinearity correction enabled: false
Boxcar width: 0
XAxis mode: Wavelengths
Number of Pixels in Spectrum: 3648
>>>>>Begin Spectral Data<<<<<
178.204	-381.26
178.424	-381.26
178.644	-381.26
178.864	-403.79
179.084	-381.26
179.304	13.99
179.524	13.99
179.744	16.04
179.964	26.28
180.184	-20.82
180.404	112.3
180.624	-80.21
180.844	-35.16
181.064	-12.63
181.283	71.34
181.503	-123.22
181.723	18.09
181.943	-153.94
182.163	194.22
182.383	-29.01
182.602	95.91
182.822	171.69
183.042	75.43
183.262	-94.55
183.482	-8.53
183.701	26.28
183.921	24.23
184.141	-31.06
184.361	75.43
184.58	16.04
184.8	69.29
185.02	-45.4
185.239	77.48
185.459	-2.39
185.679	91.82
185.898	-112.98
186.118	-24.92
186.338	26.28
186.557	128.68
186.777	-94.55
186.997	-10.58
187.216	1.71
187.436	108.2
187.655	57
187.875	126.63
188.095	9.9
188.314	130.73
188.534	110.25
188.753	-2.39
188.973	106.15
189.192	163.5
189.412	-6.49
189.631	11.95
189.851	81.58
190.07	138.92
190.29	9.9
190.509	11.95
190.729	48.81
190.948	102.06
191.168	194.22
191.387	97.96
191.607	11.95
191.826	38.57
192.045	20.14
192.265	28.33
192.484	18.09
192.704	-16.73
192.923	3.75
193.142	212.65
193.362	167.59
193.581	206.5
193.8	85.67
194.02	18.09
194.239	22.19
194.458	120.49
194.678	28.33
194.897	-31.06
195.116	-65.88
195.335	61.1
195.555	32.43
195.774	3.75
195.993	102.06
196.212	-29.01
196.432	20.14
196.651	-96.6
196.87	26.28
197.089	167.59
197.308	95.91
197.528	124.58
197.747	16.04
197.966	9.9
198.185	171.69
198.404	-39.25
198.623	61.1
198.842	143.02
199.062	126.63
199.281	85.67
199.5	38.57
199.719	65.19
199.938	50.86
200.157	16.04
200.376	151.21
200.595	147.11
200.814	79.53
201.033	30.38
201.252	38.57
201.471	63.15
201.69	65.19
201.909	71.34
202.128	120.49
202.347	22.19
202.566	20.14
202.785	-29.01
203.004	-98.64
203.223	192.17
203.442	-0.34
203.661	-0.34
203.879	71.34
204.098	63.15
204.317	-53.59
204.536	93.87
204.755	116.39
204.974	75.43
205.193	-86.36
205.411	132.78
205.63	112.3
205.849	108.2
206.068	-57.68
206.287	-20.82
206.505	177.83
206.724	52.91
206.943	36.52
207.162	-51.54
207.381	91.82
207.599	116.39
207.818	-2.39
208.037	-29.01
208.255	-2.39
208.474	30.38
208.693	50.86
208.911	65.19
209.13	122.54
209.349	-0.34
209.567	97.96
209.786	38.57
210.005	77.48
210.223	136.87
210.442	-117.08
210.661	28.33
210.879	81.58
211.098	32.43
211.316	69.29
211.535	112.3
211.753	40.62
211.972	118.44
212.191	-26.96
212.409	-37.2
212.628	194.22
212.846	-26.96
213.065	63.15
213.283	52.91
213.502	-18.77
213.72	69.29
213.938	26.28
214.157	-6.49
214.375	130.73
214.594	44.71
214.812	71.34
215.031	-74.07
215.249	5.8
215.467	5.8
215.686	-41.3
215.904	-4.44
216.122	65.19
216.341	143.02
216.559	65.19
216.778	114.34
216.996	83.63
217.214	24.23
217.432	-8.53
217.651	-78.16
217.869	30.38
218.087	-14.68
218.306	24.23
218.524	93.87
218.742	7.85
218.96	40.62
219.179	1.71
219.397	-22.87
219.615	183.98
219.833	-6.49
220.051	-33.11
220.27	91.82
220.488	163.5
220.706	11.95
220.924	-43.35
221.142	-76.12
221.36	91.82
221.578	149.16
221.796	9.9
222.015	5.8
222.233	77.48
222.451	126.63
222.669	-4.44
222.887	24.23
223.105	-18.77
223.323	-31.06
223.541	-20.82
223.759	-8.53
223.977	-6.49
224.195	75.43
224.413	85.67
224.631	-80.21
224.849	110.25
225.067	235.18
225.285	24.23
225.503	-8.53
225.721	-102.74
225.939	65.19
226.157	36.52
226.375	206.5
226.592	-69.97
226.81	-16.73
227.028	95.91
227.246	89.77
227.464	85.67
227.682	106.15
227.9	95.91
228.117	44.71
228.335	32.43
228.553	75.43
228.771	3.75
228.989	-2.39
229.206	67.24
229.424	48.81
229.642	13.99
229.86	18.09
230.077	128.68
230.295	7.85
230.513	77.48
230.731	42.67
230.948	140.97
231.166	155.3
231.384	-59.73
231.601	-35.16
231.819	89.77
232.037	-22.87
232.254	1.71
232.472	16.04
232.689	-59.73
232.907	157.35
233.125	20.14
233.342	-16.73
233.56	-49.49
233.777	-12.63
233.995	11.95
234.213	71.34
234.43	65.19
234.648	30.38
234.865	-6.49
235.083	108.2
235.3	46.76
235.518	38.57
235.735	124.58
235.953	108.2
236.17	30.38
236.388	93.87
236.605	52.91
236.822	79.53
237.04	77.48
237.257	7.85
237.475	-20.82
237.692	3.75
237.909	52.91
238.127	20.14
238.344	106.15
238.562	63.15
238.779	-82.26
238.996	-10.58
239.214	16.04
239.431	30.38
239.648	-65.88
239.865	20.14
240.083	93.87
240.3	67.24
240.517	-74.07
240.735	-49.49
240.952	173.74
241.169	110.25
241.386	67.24
241.603	95.91
241.821	-14.68
242.038	24.23
242.255	91.82
242.472	1.71
242.689	183.98
242.907	77.48
243.124	145.06
243.341	63.15
243.558	9.9
243.775	-16.73
243.992	-59.73
244.209	83.63
244.426	140.97
244.643	-8.53
244.86	-10.58
245.078	102.06
245.295	5.8
245.512	69.29
245.729	-67.92
245.946	61.1
246.163	145.06
246.38	28.33
246.597	69.29
246.814	-12.63
247.031	83.63
247.248	-10.58
247.464	48.81
247.681	36.52
247.898	67.24
248.115	95.91
248.332	-26.96
248.549	77.48
248.766	194.22
248.983	114.34
249.2	34.47
249.417	73.39
249.633	30.38
249.85	16.04
250.067	-29.01
250.284	-26.96
250.501	22.19
250.717	26.28
250.934	-24.92
251.151	87.72
251.368	71.34
251.585	83.63
251.801	46.76
252.018	-98.64
252.235	89.77
252.451	-10.58
252.668	63.15
252.885	134.82
253.102	38.57
253.318	-0.34
253.535	-59.73
253.752	36.52
253.968	-4.44
254.185	-29.01
254.401	34.47
254.618	-31.06
254.835	32.43
255.051	77.48
255.268	44.71
255.484	7.85
255.701	3.75
255.917	50.86
256.134	-41.3
256.351	44.71
256.567	26.28
256.784	5.8
257	-39.25
257.217	161.45
257.433	100.01
257.65	-31.06
257.866	83.63
258.082	-102.74
258.299	-45.4
258.515	32.43
258.732	20.14
258.948	-10.58
259.165	-4.44
259.381	-57.68
259.597	108.2
259.814	73.39
260.03	-49.49
260.246	22.19
260.463	110.25
260.679	34.47
260.895	59.05
261.112	40.62
261.328	3.75
261.544	-16.73
261.761	190.12
261.977	16.04
262.193	-55.64
262.409	91.82
262.626	46.76
262.842	85.67
263.058	16.04
263.274	69.29
263.49	91.82
263.707	97.96
263.923	34.47
264.139	-98.64
264.355	11.95
264.571	75.43
264.787	54.95
265.004	163.5
265.22	26.28
265.436	16.04
265.652	-31.06
265.868	54.95
266.084	11.95
266.3	24.23
266.516	22.19
266.732	122.54
266.948	16.04
267.164	-37.2
267.38	124.58
267.596	42.67
267.812	143.02
268.028	50.86
268.244	-80.21
268.46	112.3
268.676	-33.11
268.892	38.57
269.108	-47.44
269.324	-35.16
269.54	-47.44
269.756	50.86
269.972	-53.59
270.188	44.71
270.403	-104.79
270.619	16.04
270.835	59.05
271.051	81.58
271.267	30.38
271.483	26.28
271.698	67.24
271.914	13.99
272.13	-37.2
272.346	24.23
272.562	77.48
272.777	149.16
272.993	1.71
273.209	-26.96
273.425	122.54
273.64	-74.07
273.856	163.5
274.072	3.75
274.287	-26.96
274.503	67.24
274.719	75.43
274.934	26.28
275.15	-59.73
275.366	54.95
275.581	-24.92
275.797	36.52
276.012	24.23
276.228	-8.53
276.444	42.67
276.659	118.44
276.875	34.47
277.09	114.34
277.306	28.33
277.521	61.1
277.737	69.29
277.952	118.44
278.168	106.15
278.383	-16.73
278.599	73.39
278.814	198.31
279.03	7.85
279.245	122.54
279.461	97.96
279.676	97.96
279.892	-92.5
280.107	-0.34
280.322	-72.02
280.538	75.43
280.753	-12.63
280.969	3.75
281.184	42.67
281.399	118.44
281.615	63.15
281.83	42.67
282.045	-39.25
282.26	48.81
282.476	79.53
282.691	126.63
282.906	132.78
283.122	48.81
283.337	-20.82
283.552	-8.53
283.767	-14.68
283.983	34.47
284.198	26.28
284.413	75.43
284.628	50.86
284.843	85.67
285.058	120.49
285.274	42.67
285.489	-88.4
285.704	95.91
285.919	-76.12
286.134	91.82
286.349	-14.68
286.564	9.9
286.779	93.87
286.995	18.09
287.21	-135.51
287.425	59.05
287.64	34.47
287.855	11.95
288.07	-49.49
288.285	48.81
288.5	85.67
288.715	30.38
288.93	63.15
289.145	-41.3
289.36	36.52
289.575	57
289.79	79.53
290.004	3.75
290.219	83.63
290.434	-39.25
290.649	24.23
290.864	-18.77
291.079	-65.88
291.294	22.19
291.509	32.43
291.724	-2.39
291.938	-0.34
292.153	65.19
292.368	18.09
292.583	149.16
292.798	112.3
293.012	57
293.227	28.33
293.442	-18.77
293.657	102.06
293.871	100.01
294.086	11.95
294.301	167.59
294.516	200.36
294.73	-2.39
294.945	-43.35
295.16	-51.54
295.374	79.53
295.589	134.82
295.804	11.95
296.018	13.99
296.233	87.72
296.447	34.47
296.662	1.71
296.877	128.68
297.091	89.77
297.306	26.28
297.52	-26.96
297.735	57
297.949	93.87
298.164	50.86
298.378	63.15
298.593	-41.3
298.807	-45.4
299.022	73.39
299.236	57
299.451	16.04
299.665	20.14
299.88	-26.96
300.094	100.01
300.309	-10.58
300.523	65.19
300.737	13.99
300.952	34.47
301.166	112.3
301.381	-6.49
301.595	9.9
301.809	36.52
302.024	20.14
302.238	-33.11
302.452	81.58
302.667	91.82
302.881	181.93
303.095	91.82
303.309	57
303.524	52.91
303.738	9.9
303.952	-96.6
304.166	102.06
304.381	-178.51
304.595	120.49
304.809	1.71
305.023	-24.92
305.237	9.9
305.452	-16.73
305.666	112.3
305.88	122.54
306.094	114.34
306.308	50.86
306.522	83.63
306.736	48.81
306.95	50.86
307.164	-4.44
307.379	32.43
307.593	204.46
307.807	67.24
308.021	114.34
308.235	91.82
308.449	-67.92
308.663	61.1
308.877	241.32
309.091	-12.63
309.305	97.96
309.519	-76.12
309.733	169.64
309.947	-39.25
310.161	-47.44
310.374	132.78
310.588	124.58
310.802	-22.87
311.016	9.9
311.23	73.39
311.444	-49.49
311.658	95.91
311.872	167.59
312.085	83.63
312.299	114.34
312.513	118.44
312.727	-18.77
312.941	-88.4
313.154	22.19
313.368	26.28
313.582	34.47
313.796	28.33
314.009	75.43
314.223	91.82
314.437	140.97
314.651	57
314.864	34.47
315.078	24.23
315.292	-35.16
315.505	57
315.719	46.76
315.933	77.48
316.146	3.75
316.36	-65.88
316.573	147.11
316.787	65.19
317.001	52.91
317.214	-65.88
317.428	87.72
317.641	-0.34
317.855	52.91
318.068	54.95
318.282	3.75
318.495	151.21
318.709	73.39
318.922	42.67
319.136	202.41
319.349	102.06
319.563	9.9
319.776	26.28
319.99	-47.44
320.203	89.77
320.417	32.43
320.63	128.68
320.843	93.87
321.057	71.34
321.27	-10.58
321.483	40.62
321.697	183.98
321.91	5.8
322.124	44.71
322.337	128.68
322.55	20.14
322.763	16.04
322.977	106.15
323.19	-26.96
323.403	97.96
323.617	54.95
323.83	163.5
324.043	-49.49
324.256	26.28
324.469	-41.3
324.683	38.57
324.896	30.38
325.109	65.19
325.322	-78.16
325.535	120.49
325.748	71.34
325.962	-20.82
326.175	65.19
326.388	22.19
326.601	93.87
326.814	16.04
327.027	28.33
327.24	181.93
327.453	-39.25
327.666	24.23
327.879	159.4
328.092	67.24
328.305	116.39
328.518	-16.73
328.731	-4.44
328.944	26.28
329.157	36.52
329.37	13.99
329.583	186.02
329.796	122.54
330.009	38.57
330.222	171.69
330.435	20.14
330.648	46.76
330.861	-24.92
331.073	59.05
331.286	73.39
331.499	-16.73
331.712	20.14
331.925	18.09
332.138	52.91
332.35	130.73
332.563	-22.87
332.776	87.72
332.989	-51.54
333.202	22.19
333.414	-16.73
333.627	-14.68
333.84	44.71
334.053	18.09
334.265	-43.35
334.478	-43.35
334.691	11.95
334.903	48.81
335.116	-24.92
335.329	-18.77
335.541	52.91
335.754	167.59
335.966	16.04
336.179	54.95
336.392	24.23
336.604	1.71
336.817	106.15
337.029	32.43
337.242	32.43
337.454	122.54
337.667	57
337.88	132.78
338.092	65.19
338.305	57
338.517	-26.96
338.729	79.53
338.942	32.43
339.154	-53.59
339.367	-6.49
339.579	46.76
339.792	-67.92
340.004	65.19
340.217	52.91
340.429	-12.63
340.641	-33.11
340.854	-37.2
341.066	26.28
341.278	177.83
341.491	239.27
341.703	46.76
341.915	-39.25
342.128	155.3
342.34	67.24
342.552	-29.01
342.764	52.91
342.977	20.14
343.189	100.01
343.401	-8.53
343.613	-158.03
343.826	57
344.038	18.09
344.25	28.33
344.462	46.76
344.674	83.63
344.886	52.91
345.099	-4.44
345.311	102.06
345.523	16.04
345.735	-69.97
345.947	46.76
346.159	52.91
346.371	30.38
346.583	38.57
346.795	212.65
347.007	32.43
347.219	79.53
347.431	16.04
347.643	112.3
347.855	24.23
348.067	171.69
348.279	-55.64
348.491	-49.49
348.703	48.81
348.915	75.43
349.127	26.28
349.339	59.05
349.551	20.14
349.763	147.11
349.975	16.04
350.187	44.71
350.399	106.15
350.61	3.75
350.822	-0.34
351.034	81.58
351.246	93.87
351.458	122.54
351.669	112.3
351.881	59.05
352.093	167.59
352.305	104.11
352.517	67.24
352.728	44.71
352.94	110.25
353.152	73.39
353.363	13.99
353.575	44.71
353.787	149.16
353.999	40.62
354.21	126.63
354.422	36.52
354.633	52.91
354.845	-10.58
355.057	93.87
355.268	54.95
355.48	145.06
355.692	-10.58
355.903	-10.58
356.115	11.95
356.326	-59.73
356.538	196.26
356.749	9.9
356.961	167.59
357.172	3.75
357.384	-10.58
357.595	177.83
357.807	65.19
358.018	-24.92
358.23	52.91
358.441	114.34
358.653	79.53
358.864	81.58
359.075	26.28
359.287	38.57
359.498	65.19
359.709	54.95
359.921	3.75
360.132	91.82
360.344	40.62
360.555	22.19
360.766	61.1
360.977	34.47
361.189	112.3
361.4	67.24
361.611	73.39
361.823	198.31
362.034	28.33
362.245	-69.97
362.456	36.52
362.667	83.63
362.879	-78.16
363.09	28.33
363.301	116.39
363.512	-18.77
363.723	34.47
363.935	-16.73
364.146	118.44
364.357	-20.82
364.568	71.34
364.779	-43.35
364.99	143.02
365.201	5.8
365.412	112.3
365.623	-104.79
365.834	71.34
366.045	85.67
366.256	20.14
366.467	28.33
366.678	-6.49
366.889	-78.16
367.1	-31.06
367.311	116.39
367.522	52.91
367.733	52.91
367.944	44.71
368.155	40.62
368.366	104.11
368.577	157.35
368.788	24.23
368.999	-47.44
369.209	32.43
369.42	128.68
369.631	210.6
369.842	102.06
370.053	-0.34
370.264	81.58
370.474	-72.02
370.685	69.29
370.896	40.62
371.107	77.48
371.317	16.04
371.528	81.58
371.739	126.63
371.95	16.04
372.16	81.58
372.371	-102.74
372.582	13.99
372.792	50.86
373.003	59.05
373.214	79.53
373.424	151.21
373.635	-10.58
373.846	134.82
374.056	11.95
374.267	102.06
374.477	85.67
374.688	-29.01
374.898	108.2
375.109	102.06
375.319	38.57
375.53	145.06
375.74	32.43
375.951	59.05
376.161	149.16
376.372	128.68
376.582	9.9
376.793	46.76
377.003	-10.58
377.214	87.72
377.424	100.01
377.635	44.71
377.845	-24.92
378.055	163.5
378.266	-92.5
378.476	7.85
378.686	20.14
378.897	52.91
379.107	128.68
379.317	69.29
379.528	-29.01
379.738	132.78
379.948	-26.96
380.158	104.11
380.369	79.53
380.579	81.58
380.789	63.15
380.999	100.01
381.21	63.15
381.42	226.98
381.63	-16.73
381.84	91.82
382.05	44.71
382.261	102.06
382.471	100.01
382.681	9.9
382.891	157.35
383.101	87.72
383.311	-39.25
383.521	18.09
383.731	69.29
383.941	40.62
384.151	124.58
384.361	36.52
384.571	32.43
384.781	57
384.991	177.83
385.201	120.49
385.411	118.44
385.621	26.28
385.831	79.53
386.041	-6.49
386.251	-20.82
386.461	73.39
386.671	-37.2
386.881	63.15
387.091	-8.53
387.301	112.3
387.511	30.38
387.72	34.47
387.93	73.39
388.14	-84.31
388.35	75.43
388.56	91.82
388.769	126.63
388.979	44.71
389.189	75.43
389.399	5.8
389.609	13.99
389.818	65.19
390.028	59.05
390.238	81.58
390.447	-6.49
390.657	22.19
390.867	20.14
391.076	-22.87
391.286	16.04
391.496	130.73
391.705	59.05
391.915	120.49
392.125	157.35
392.334	46.76
392.544	222.89
392.753	36.52
392.963	-29.01
393.172	-24.92
393.382	73.39
393.591	149.16
393.801	89.77
394.01	122.54
394.22	42.67
394.429	57
394.639	67.24
394.848	91.82
395.058	24.23
395.267	118.44
395.477	38.57
395.686	104.11
395.895	265.89
396.105	159.4
396.314	95.91
396.524	48.81
396.733	13.99
396.942	89.77
397.152	-16.73
397.361	159.4
397.57	38.57
397.78	26.28
397.989	52.91
398.198	175.78
398.407	-8.53
398.617	3.75
398.826	106.15
399.035	128.68
399.244	30.38
399.453	46.76
399.663	85.67
399.872	83.63
400.081	30.38
400.29	157.35
400.499	3.75
400.708	36.52
400.917	-14.68
401.127	87.72
401.336	-53.59
401.545	186.02
401.754	161.45
401.963	85.67
402.172	59.05
402.381	-39.25
402.59	-26.96
402.799	46.76
403.008	73.39
403.217	32.43
403.426	61.1
403.635	-6.49
403.844	44.71
404.053	69.29
404.262	1.71
404.471	179.88
404.68	108.2
404.888	54.95
405.097	1.71
405.306	26.28
405.515	42.67
405.724	-31.06
405.933	163.5
406.142	130.73
406.35	100.01
406.559	-84.31
406.768	3.75
406.977	65.19
407.185	52.91
407.394	30.38
407.603	-53.59
407.812	71.34
408.02	91.82
408.229	34.47
408.438	59.05
408.646	-106.84
408.855	59.05
409.064	71.34
409.272	-35.16
409.481	95.91
409.69	-12.63
409.898	-94.55
410.107	93.87
410.315	38.57
410.524	-33.11
410.733	52.91
410.941	-45.4
411.15	104.11
411.358	87.72
411.567	167.59
411.775	16.04
411.984	52.91
412.192	32.43
412.401	-10.58
412.609	149.16
412.818	106.15
413.026	75.43
413.234	-24.92
413.443	46.76
413.651	-20.82
413.86	-2.39
414.068	130.73
414.276	153.26
414.485	-49.49
414.693	167.59
414.901	204.46
415.11	104.11
415.318	63.15
415.526	95.91
415.734	67.24
415.943	91.82
416.151	108.2
416.359	100.01
416.567	-26.96
416.776	95.91
416.984	106.15
417.192	216.74
417.4	54.95
417.608	32.43
417.817	50.86
418.025	71.34
418.233	220.84
418.441	-45.4
418.649	63.15
418.857	65.19
419.065	120.49
419.273	79.53
419.481	114.34
419.689	-2.39
419.897	24.23
420.105	-39.25
420.313	65.19
420.521	93.87
420.729	83.63
420.937	18.09
421.145	-8.53
421.353	229.03
421.561	167.59
421.769	157.35
421.977	-2.39
422.185	100.01
422.393	32.43
422.601	126.63
422.809	73.39
423.017	85.67
423.224	67.24
423.432	145.06
423.64	59.05
423.848	77.48
424.056	48.81
424.263	183.98
424.471	20.14
424.679	118.44
424.887	16.04
425.094	126.63
425.302	5.8
425.51	75.43
425.718	145.06
425.925	-6.49
426.133	-33.11
426.341	265.89
426.548	106.15
426.756	50.86
426.964	118.44
427.171	-29.01
427.379	124.58
427.586	110.25
427.794	130.73
428.001	196.26
428.209	16.04
428.417	114.34
428.624	220.84
428.832	157.35
429.039	-20.82
429.247	104.11
429.454	128.68
429.662	165.54
429.869	147.11
430.076	54.95
430.284	145.06
430.491	212.65
430.699	134.82
430.906	204.46
431.114	120.49
431.321	136.87
431.528	130.73
431.736	175.78
431.943	169.64
432.15	265.89
432.358	159.4
432.565	282.28
432.772	44.71
432.979	216.74
433.187	143.02
433.394	200.36
433.601	138.92
433.808	282.28
434.016	239.27
434.223	208.55
434.43	229.03
434.637	208.55
434.844	263.85
435.052	263.85
435.259	286.37
435.466	272.04
435.673	247.46
435.88	343.72
436.087	353.96
436.294	331.43
436.501	341.67
436.708	337.57
436.915	460.45
437.122	345.77
437.329	396.96
437.537	302.76
437.743	321.19
437.95	517.79
438.157	444.07
438.364	427.68
438.571	382.63
438.778	499.36
438.985	460.45
439.192	542.37
439.399	454.31
439.606	646.82
439.813	585.38
440.02	687.78
440.227	718.5
440.433	640.67
440.64	591.52
440.847	571.04
441.054	661.15
441.261	812.7
441.467	726.69
441.674	700.06
441.881	751.26
442.088	792.22
442.294	900.76
442.501	970.4
442.708	992.92
442.914	870.05
443.121	863.9
443.328	1001.12
443.534	1087.13
443.741	1029.79
443.948	970.4
444.154	1144.47
444.361	1281.69
444.568	1222.3
444.774	1302.17
444.981	1093.27
445.187	1439.38
445.394	1341.08
445.6	1367.7
445.807	1519.25
446.013	1445.52
446.22	1476.24
446.426	1693.33
446.633	1713.81
446.839	2039.44
447.046	1697.42
447.252	1898.13
447.459	1801.87
447.665	1840.78
447.871	2092.68
448.078	2182.79
448.284	2254.47
448.491	2352.77
448.697	2320.01
448.903	2571.91
449.11	2469.51
449.316	2651.78
449.522	2743.94
449.728	2844.29
449.935	2907.77
450.141	2920.06
450.347	3249.79
450.553	3077.76
450.76	3212.92
450.966	3425.91
451.172	3473.01
451.378	3647.09
451.584	3634.8
451.791	3939.95
451.997	3997.29
452.203	4134.51
452.409	4335.21
452.615	4521.57
452.821	4533.86
453.027	4564.58
453.233	5135.96
453.44	4830.82
453.646	5078.62
453.852	5303.9
454.058	5621.33
454.264	5856.85
454.47	6151.76
454.676	6055.5
454.882	6831.68
455.088	6407.75
455.294	6950.46
455.5	7183.93
455.705	7661.11
455.911	7687.73
456.117	7953.97
456.323	8214.06
456.529	8056.37
456.735	8752.68
456.941	9006.63
457.147	9401.88
457.352	9717.27
457.558	9922.07
457.764	10645
457.97	10829.32
458.176	11341.31
458.381	11859.45
458.587	11939.32
458.793	12793.32
458.999	12537.32
459.204	14439.89
459.41	14611.92
459.616	14648.78
459.821	15367.62
460.027	16147.89
460.233	17018.28
460.438	16928.17
460.644	17829.27
460.85	17892.76
461.055	18584.98
461.261	19469.7
461.466	19318.15
461.672	19959.16
461.878	22132.06
462.083	21632.35
462.289	22238.55
462.494	22979.92
462.7	22965.58
462.905	23473.48
463.111	25343.27
463.316	26381.59
463.522	26830.1
463.727	27798.79
463.932	29070.58
464.138	29830.37
464.343	30954.71
464.549	31526.09
464.754	33426.6
464.959	34247.84
465.165	35085.46
465.37	34643.1
465.575	35288.21
465.781	37475.44
465.986	38231.14
466.191	37618.8
466.397	38239.33
466.602	37231.73
466.807	39220.31
467.012	39826.51
467.218	40264.77
467.423	40756.28
467.628	41915.44
467.833	43779.09
468.038	42873.88
468.244	42234.92
468.449	44549.12
468.654	43322.39
468.859	44151.82
469.064	43521.04
469.269	42357.8
469.474	42974.23
469.679	43975.69
469.885	42533.92
470.09	43541.52
470.295	43807.76
470.5	42599.46
470.705	43361.3
470.91	41612.34
471.115	41616.43
471.32	41706.54
471.525	41655.34
471.73	40731.71
471.935	40789.05
472.139	38933.59
472.344	39234.64
472.549	38941.78
472.754	38132.84
472.959	37180.53
473.164	35736.71
473.369	35308.69
473.574	36643.96
473.778	35667.08
473.983	35118.23
474.188	34641.05
474.393	32781.49
474.598	32822.45
474.802	32128.19
475.007	31767.75
475.212	31282.38
475.417	30209.25
475.621	29689.06
475.826	29795.56
476.031	28943.6
476.235	28374.27
476.44	28343.55
476.645	27645.19
476.849	27131.15
477.054	26488.09
477.259	26236.19
477.463	26377.5
477.668	25314.6
477.872	25230.63
478.077	24454.45
478.282	23852.35
478.486	23799.1
478.691	23422.28
478.895	23512.39
479.1	23031.12
479.304	22846.8
479.509	22308.18
479.713	22506.84
479.918	22097.24
480.122	21525.86
480.326	22050.14
480.531	22015.32
480.735	21187.94
480.94	20958.57
481.144	21937.5
481.348	20428.15
481.553	20747.63
481.757	20120.95
481.961	20219.25
482.166	20372.85
482.37	20364.66
482.574	19606.91
482.778	19821.95
482.983	20104.57
483.187	19627.39
483.391	19570.05
483.595	19086.73
483.8	19021.19
484.004	19193.22
484.208	18736.52
484.412	18693.52
484.616	18304.4
484.821	18408.85
485.025	17841.56
485.229	18021.78
485.433	17216.93
485.637	17145.25
485.841	17171.88
486.045	16956.84
486.249	16793
486.453	16539.05
486.657	16473.52
486.861	15912.38
487.065	15441.34
487.269	15447.49
487.473	14947.78
487.677	15039.94
487.881	14994.89
488.085	14544.33
488.289	14142.93
488.493	14038.48
488.697	14034.39
488.901	13833.69
489.105	13485.53
489.309	13145.57
489.512	13024.74
489.716	12598.76
489.92	12310
490.124	11953.65
490.328	12539.37
490.531	11779.57
490.735	11863.54
490.939	11507.2
491.143	11277.82
491.346	10964.48
491.55	10962.44
491.754	10710.54
491.958	10540.55
492.161	10204.69
492.365	10280.46
492.569	9778.71
492.772	9721.37
492.976	9911.83
493.18	9532.95
493.383	9477.66
493.587	9399.84
493.79	9479.71
493.994	9254.43
494.197	8990.24
494.401	9039.39
494.605	8840.74
494.808	8904.23
495.012	8871.46
495.215	8640.04
495.419	8697.38
495.622	8355.37
495.825	8453.67
496.029	8402.47
496.232	8558.12
496.436	8259.12
496.639	8609.32
496.843	8396.33
497.046	8326.7
497.249	8453.67
497.453	8427.05
497.656	8386.09
497.859	8246.83
498.063	8463.91
498.266	8468.01
498.469	8269.36
498.673	8373.8
498.876	8416.81
499.079	8420.91
499.282	8275.5
499.485	8707.62
499.689	8621.61
499.892	8656.42
500.095	8715.81
500.298	8629.8
500.501	8588.84
500.705	8943.14
500.908	8830.5
501.111	8746.53
501.314	9229.85
501.517	9035.3
501.72	9119.26
501.923	9311.77
502.126	9340.44
502.329	9668.12
502.532	9539.1
502.735	9694.74
502.938	9860.63
503.141	9901.59
503.344	9909.78
503.547	10262.03
503.75	10110.48
503.953	10378.76
504.156	10632.71
504.359	10835.46
504.562	10769.93
504.765	10907.14
504.968	11156.99
505.17	11218.43
505.373	11400.7
505.576	11654.65
505.779	11679.22
505.982	11896.31
506.185	12158.45
506.387	12510.7
506.59	12600.81
506.793	12795.37
506.996	12750.31
507.198	13379.04
507.401	13499.87
507.604	13671.9
507.807	13985.24
508.009	14269.9
508.212	14538.19
508.415	14800.33
508.617	14935.49
508.82	15209.92
509.022	15490.49
509.225	15924.66
509.428	16227.76
509.63	16510.38
509.833	16754.09
510.035	17755.55
510.238	17421.73
510.44	17943.96
510.643	18496.91
510.845	18861.45
511.048	19279.24
511.25	19580.29
511.453	19862.91
511.655	21036.39
511.858	20993.39
512.06	21355.88
512.262	21927.26
512.465	22111.58
512.667	22904.14
512.87	23258.44
513.072	23913.79
513.274	24436.02
513.477	24888.62
513.679	25357.61
513.881	26289.43
514.084	26678.55
514.286	27090.19
514.488	27737.35
514.69	28747
514.893	28663.03
515.095	29353.19
515.297	29920.48
515.499	30756.05
515.701	31278.29
515.904	32079.04
516.106	32603.32
516.308	33404.08
516.51	34057.38
516.712	34430.11
516.914	35290.26
517.116	36060.29
517.318	36166.79
517.52	36920.44
517.722	37403.76
517.925	38327.39
518.127	38970.46
518.329	39986.25
518.531	39896.14
518.733	41141.3
518.935	42064.94
519.136	42185.77
519.338	43158.55
519.54	44067.85
519.742	44432.39
519.944	45003.77
520.146	46207.98
520.348	46357.48
520.55	46478.31
520.752	47434.71
520.954	48061.39
521.155	48438.22
521.357	49017.79
521.559	49542.07
521.761	50961.31
521.963	50330.54
522.164	51385.24
522.366	51602.33
522.568	51960.72
522.77	52188.05
522.971	53222.27
523.173	52734.85
523.375	52921.22
523.576	53517.18
523.778	53433.21
523.98	53875.57
524.181	54444.91
524.383	54387.56
524.584	54803.3
524.786	54186.86
524.988	54236.02
525.189	55305.05
525.391	55165.79
525.592	55190.37
525.794	55341.92
525.995	55190.37
526.197	55298.91
526.398	54864.74
526.6	55145.31
526.801	55128.93
527.003	55108.45
527.204	54553.45
527.406	54633.32
527.607	54199.15
527.808	54582.12
528.01	53549.95
528.211	53640.06
528.412	54258.54
528.614	53132.16
528.815	52867.97
529.016	52968.32
529.218	51858.32
529.419	51665.81
529.62	51088.29
529.822	50959.27
530.023	50363.31
530.224	49599.41
530.425	49595.32
530.626	48411.59
530.828	48315.34
531.029	48491.46
531.23	47293.4
531.431	46914.53
531.632	46410.73
531.833	46298.09
532.035	45067.26
532.236	45417.46
532.437	44534.79
532.638	43785.23
532.839	43342.87
533.04	42751.01
533.241	41989.16
533.442	42271.78
533.643	41448.5
533.844	40830.01
534.045	40426.56
534.246	39738.44
534.447	39001.18
534.648	38833.24
534.849	38235.24
535.05	37620.84
535.251	36998.26
535.451	37158
535.652	36383.87
535.853	35861.64
536.054	35075.22
536.255	34845.85
536.456	34182.31
536.657	34417.82
536.857	33412.27
537.058	33385.65
537.259	32732.34
537.46	32109.76
537.66	31689.93
537.861	31306.96
538.062	30958.8
538.263	30719.19
538.463	29799.65
538.664	29865.19
538.865	29295.85
539.065	29312.24
539.266	28101.89
539.466	28355.83
539.667	28206.33
539.868	27700.48
540.068	27438.34
540.269	27088.14
540.469	26576.15
540.67	26291.48
540.87	26076.44
541.071	25572.64
541.271	25832.74
541.472	24984.88
541.672	25048.36
541.873	24651.06
542.073	23723.33
542.274	24268.09
542.474	23842.11
542.675	23295.3
542.875	23307.59
543.075	22975.82
543.276	22482.26
543.476	22637.91
543.676	22211.93
543.877	21951.84
544.077	21978.46
544.277	21730.66
544.478	21054.83
544.678	21265.77
544.878	20669.81
545.078	20704.62
545.279	20057.46
545.479	19856.76
545.679	20024.7
545.879	19469.7
546.079	19479.94
546.28	19185.03
546.48	18875.79
546.68	18732.43
546.88	18525.58
547.08	18142.61
547.28	18075.03
547.48	18091.41
547.68	17718.68
547.88	17429.92
548.081	17290.66
548.281	16958.89
548.481	16985.51
548.681	16721.32
548.881	16371.12
549.081	16367.02
549.28	15926.71
549.48	15955.38
549.68	15359.42
549.88	15351.23
550.08	15140.29
550.28	14902.73
550.48	14833.1
550.68	14431.69
550.88	14192.08
551.08	14187.99
551.279	14142.93
551.479	13587.93
551.679	13647.32
551.879	13411.81
552.079	13090.27
552.278	12774.89
552.478	13073.89
552.678	12574.19
552.878	12602.86
553.077	12148.21
553.277	11736.57
553.477	11861.49
553.676	11570.68
553.876	11392.51
554.076	11165.18
554.275	11189.76
554.475	10655.24
554.674	10810.89
554.874	10759.69
555.074	10356.24
555.273	10063.38
555.473	10184.21
555.672	9825.81
555.872	9922.07
556.071	9592.34
556.271	9788.95
556.47	9399.84
556.67	9219.61
556.869	9141.79
557.068	8912.42
557.268	8797.73
557.467	8660.52
557.667	8627.75
557.866	8291.88
558.065	8025.65
558.265	8148.53
558.464	7886.39
558.663	7794.23
558.863	7722.55
559.062	7527.99
559.261	7228.99
559.461	7265.85
559.66	7083.58
559.859	6938.18
560.058	6868.55
560.258	6893.12
560.457	6688.32
560.656	6768.2
560.855	6323.79
561.054	6346.31
561.253	6438.47
561.453	6399.56
561.652	6149.71
561.851	6051.41
562.05	5819.99
562.249	5674.58
562.448	5799.51
562.647	5690.96
562.846	5625.43
563.045	5611.09
563.244	5434.97
563.443	5512.79
563.642	5447.26
563.841	5269.08
564.04	5219.93
564.239	5103.2
564.438	4984.41
564.637	4755.04
564.836	4759.14
565.035	4703.84
565.234	4679.27
565.432	4552.29
565.631	4689.51
565.83	4392.55
566.029	4433.51
566.228	4275.82
566.427	4296.3
566.625	4099.69
566.824	4193.9
567.023	4114.03
567.222	4044.4
567.42	3985.01
567.619	3966.57
567.818	3835.5
568.016	4009.58
568.215	3690.1
568.414	3800.69
568.612	3858.03
568.811	3612.28
569.01	3552.88
569.208	3446.39
569.407	3458.68
569.605	3622.52
569.804	3223.16
570.002	3384.95
570.201	3217.02
570.4	3286.65
570.598	3223.16
570.797	3071.61
570.995	3018.36
571.193	2926.21
571.392	2967.17
571.59	2813.57
571.789	3085.95
571.987	2934.4
572.186	2840.19
572.384	2700.93
572.582	2743.94
572.781	2700.93
572.979	2635.39
573.177	2610.82
573.376	2598.53
573.574	2512.52
573.772	2537.09
573.971	2483.84
574.169	2270.86
574.367	2406.02
574.565	2336.39
574.763	2217.61
574.962	2227.85
575.16	2199.18
575.358	2150.03
575.556	2084.49
575.754	2160.27
575.952	2043.53
576.151	2092.68
576.349	2059.92
576.547	1762.96
576.745	1990.28
576.943	2043.53
577.141	1912.46
577.339	1904.27
577.537	1912.46
577.735	1867.41
577.933	1879.69
578.131	1701.52
578.329	1834.64
578.527	1562.26
578.725	1732.24
578.923	1595.03
579.121	1685.14
579.319	1529.49
579.516	1535.64
579.714	1676.95
579.912	1572.5
580.11	1363.61
580.308	1429.14
580.506	1425.04
580.704	1363.61
580.901	1263.26
581.099	1468.05
581.297	1267.35
581.495	1388.18
581.692	1414.81
581.89	1406.61
582.088	1320.6
582.285	1226.39
582.483	1289.88
582.681	1271.45
582.878	1234.58
583.076	1275.54
583.274	1230.49
583.471	1285.78
583.669	1150.62
583.866	1162.9
584.064	1164.95
584.262	1044.12
584.459	1068.7
584.657	1099.42
584.854	1152.67
585.052	1068.7
585.249	1107.61
585.447	1070.75
585.644	868
585.841	988.83
586.039	1027.74
586.236	1042.07
586.434	882.33
586.631	929.44
586.828	906.91
587.026	972.44
587.223	837.28
587.42	902.81
587.618	882.33
587.815	974.49
588.012	863.9
588.21	827.04
588.407	917.15
588.604	857.76
588.801	878.24
588.999	804.51
589.196	796.32
589.393	802.46
589.59	781.98
589.787	865.95
589.984	843.42
590.182	794.27
590.379	743.07
590.576	753.31
590.773	771.74
590.97	738.98
591.167	951.96
591.364	747.17
591.561	753.31
591.758	863.9
591.955	802.46
592.152	738.98
592.349	724.64
592.546	648.86
592.743	747.17
592.94	693.92
593.137	769.69
593.334	767.65
593.531	741.02
593.727	829.09
593.924	712.35
594.121	790.17
594.318	755.36
594.515	773.79
594.712	892.57
594.908	773.79
595.105	812.7
595.302	818.85
595.499	798.37
595.696	949.92
595.892	775.84
596.089	849.57
596.286	806.56
596.482	982.68
596.679	904.86
596.876	851.61
597.072	1027.74
597.269	945.82
597.466	988.83
597.662	1042.07
597.859	978.59
598.055	1009.31
598.252	1144.47
598.448	1222.3
598.645	1304.21
598.841	1142.43
599.038	1386.13
599.234	1367.7
599.431	1410.71
599.627	1482.39
599.824	1472.15
600.02	1506.96
600.217	1504.92
600.413	1666.71
600.609	1687.18
600.806	2051.72
601.002	1885.84
601.198	1810.06
601.395	2047.63
601.591	2078.35
601.787	2162.31
601.984	2291.34
602.18	2252.42
602.376	2410.12
602.572	2641.54
602.769	2598.53
602.965	2584.2
603.161	2778.75
603.357	2840.19
603.553	2963.07
603.75	2950.78
603.946	3110.52
604.142	3341.94
604.338	3511.93
604.534	3458.68
604.73	3495.54
604.926	3747.44
605.122	4095.6
605.318	3991.15
605.514	4118.12
605.71	4206.19
605.906	4482.66
606.102	4417.13
606.298	4677.22
606.494	4800.1
606.69	5019.23
606.886	5129.82
607.082	5246.55
607.278	5389.91
607.474	5371.48
607.67	5629.52
607.866	5662.29
608.062	6014.54
608.257	6155.85
608.453	6149.71
608.649	6420.04
608.845	6522.44
609.041	6786.63
609.236	6889.03
609.432	7169.6
609.628	7308.86
609.824	7667.25
610.019	7745.08
610.215	7947.83
610.411	8289.84
610.606	8545.83
610.802	8576.55
610.998	8869.41
611.193	9266.72
611.389	9217.57
611.584	9578.01
611.78	9786.9
611.976	10079.76
612.171	10450.44
612.367	10706.44
612.562	10737.16
612.758	11163.14
612.953	11251.2
613.149	11775.48
613.344	11951.6
613.539	12291.57
613.735	12652.01
613.93	13090.27
614.126	13329.89
614.321	13639.13
614.517	14044.63
614.712	14507.47
614.907	14583.24
615.103	15160.77
615.298	15259.07
615.493	15910.33
615.688	16360.88
615.884	16711.08
616.079	17038.76
616.274	17604
616.47	17606.05
616.665	18480.53
616.86	18630.03
617.055	19201.41
617.25	19690.88
617.445	20581.74
617.641	20444.53
617.836	21405.03
618.031	21572.96
618.226	22330.71
618.421	23016.78
618.616	23516.48
618.811	24012.09
619.006	24487.22
619.201	24907.05
619.396	25711.91
619.591	25955.61
619.786	26848.53
619.981	26787.09
620.176	27936
620.371	28144.89
620.566	29324.52
620.761	29263.08
620.956	30325.98
621.151	30282.97
621.346	31417.55
621.541	31433.93
621.735	32924.85
621.93	32634.04
622.125	33756.33
622.32	33631.4
622.515	34821.27
622.709	35458.19
622.904	36144.26
623.099	36467.84
623.294	37491.82
623.488	37979.24
623.683	38433.89
623.878	38829.15
624.072	39668.81
624.267	40424.51
624.462	40991.8
624.656	41286.71
624.851	42222.63
625.046	42800.16
625.24	43525.14
625.435	43846.67
625.629	44616.71
625.824	44839.93
626.018	45556.72
626.213	45351.93
626.407	47117.28
626.602	46638.05
626.796	47625.17
626.991	47684.56
627.185	48477.13
627.38	48460.74
627.574	48980.93
627.768	48829.38
627.963	48901.06
628.157	49294.27
628.352	49755.06
628.546	49214.4
628.74	50066.35
628.935	49290.17
629.129	49593.27
629.323	49144.76
629.517	49144.76
629.712	48612.29
629.906	48718.79
630.1	47907.79
630.294	47838.16
630.489	46797.79
630.683	46732.26
630.877	45579.25
631.071	45085.69
631.265	44823.55
631.459	43181.08
631.653	43222.04
631.848	41649.2
632.042	40756.28
632.236	40340.55
632.43	38841.43
632.624	37770.35
632.818	36666.49
633.012	35808.39
633.206	34432.16
633.4	33881.25
633.594	32093.38
633.788	30964.95
633.982	30258.4
634.176	29357.29
634.369	27864.32
634.563	27227.4
634.757	25994.53
634.951	25195.82
635.145	24323.38
635.339	23323.97
635.533	22318.42
635.726	21493.09
635.92	20407.67
636.114	19641.73
636.308	18668.94
636.501	18206.1
636.695	17868.19
636.889	16637.36
637.083	16303.54
637.276	15357.38
637.47	14785.99
637.664	14044.63
637.857	13751.77
638.051	13127.14
638.244	12439.02
638.438	12203.5
638.632	11695.61
638.825	10921.48
639.019	10714.63
639.212	10108.43
639.406	10042.9
639.599	9422.36
639.793	9090.59
639.986	8834.6
640.18	8445.48
640.373	8226.35
640.567	7843.38
640.76	7536.18
640.954	7140.93
641.147	6897.22
641.34	6585.93
641.534	6299.21
641.727	6346.31
641.92	6100.56
642.114	5711.44
642.307	5537.37
642.5	5432.92
642.694	5101.15
642.887	4912.74
643.08	4882.02
643.273	4570.72
643.467	4169.32
643.66	4175.47
643.853	3919.47
644.046	3913.33
644.239	3769.97
644.432	3569.27
644.626	3282.55
644.819	3290.74
645.012	3229.31
645.205	3141.24
645.398	3051.13
645.591	2805.38
645.784	2655.87
645.977	2602.63
646.17	2428.55
646.363	2522.76
646.556	2377.35
646.749	2227.85
646.942	2215.56
647.135	2117.26
647.328	1963.66
647.521	2055.82
647.714	1785.49
647.907	1851.02
648.099	1697.42
648.292	1754.77
648.485	1652.37
648.678	1621.65
648.871	1500.82
649.064	1431.19
649.256	1271.45
649.449	1242.78
649.642	1289.88
649.835	1279.64
650.027	1164.95
650.22	1197.72
650.413	1064.6
650.605	1117.85
650.798	1056.41
650.991	992.92
651.183	964.25
651.376	958.11
651.568	929.44
651.761	845.47
651.954	992.92
652.146	790.17
652.339	859.81
652.531	857.76
652.724	745.12
652.916	648.86
653.109	509.6
653.301	773.79
653.494	775.84
653.686	638.62
653.879	745.12
654.071	618.15
654.263	659.1
654.456	558.75
654.648	657.06
654.84	585.38
655.033	525.99
655.225	648.86
655.417	278.18
655.61	495.27
655.802	468.64
655.994	605.86
656.186	335.53
656.379	607.91
656.571	304.81
656.763	392.87
656.955	413.35
657.148	390.82
657.34	470.69
657.532	327.33
657.724	384.68
657.916	341.67
658.108	480.93
658.3	380.58
658.492	345.77
658.684	255.65
658.876	403.11
659.068	308.9
659.26	177.83
659.452	241.32
659.644	339.62
659.836	274.09
660.028	321.19
660.22	177.83
660.412	263.85
660.604	214.7
660.796	255.65
660.988	267.94
661.18	255.65
661.372	290.47
661.563	280.23
661.755	306.85
661.947	112.3
662.139	143.02
662.331	224.94
662.522	239.27
662.714	140.97
662.906	83.63
663.097	186.02
663.289	169.64
663.481	85.67
663.673	159.4
663.864	153.26
664.056	224.94
664.247	89.77
664.439	226.98
664.631	231.08
664.822	233.13
665.014	116.39
665.205	77.48
665.397	190.12
665.588	163.5
665.78	169.64
665.971	255.65
666.163	91.82
666.354	179.88
666.546	104.11
666.737	83.63
666.929	91.82
667.12	85.67
667.311	161.45
667.503	36.52
667.694	198.31
667.885	175.78
668.077	235.18
668.268	13.99
668.459	179.88
668.651	165.54
668.842	253.61
669.033	93.87
669.224	112.3
669.416	294.57
669.607	71.34
669.798	132.78
669.989	218.79
670.18	87.72
670.371	186.02
670.563	116.39
670.754	241.32
670.945	147.11
671.136	163.5
671.327	46.76
671.518	263.85
671.709	167.59
671.9	200.36
672.091	204.46
672.282	118.44
672.473	134.82
672.664	77.48
672.855	120.49
673.046	212.65
673.237	216.74
673.428	122.54
673.619	126.63
673.809	122.54
674	212.65
674.191	108.2
674.382	153.26
674.573	130.73
674.764	118.44
674.954	212.65
675.145	69.29
675.336	52.91
675.527	22.19
675.717	138.92
675.908	83.63
676.099	114.34
676.289	104.11
676.48	100.01
676.671	145.06
676.861	36.52
677.052	177.83
677.243	97.96
677.433	50.86
677.624	237.22
677.814	169.64
678.005	136.87
678.195	310.95
678.386	110.25
678.576	192.17
678.767	114.34
678.957	83.63
679.148	249.51
679.338	247.46
679.529	261.8
679.719	212.65
679.909	269.99
680.1	186.02
680.29	143.02
680.481	140.97
680.671	100.01
680.861	173.74
681.052	296.61
681.242	136.87
681.432	175.78
681.622	208.55
681.813	116.39
682.003	220.84
682.193	161.45
682.383	210.6
682.573	147.11
682.764	169.64
682.954	149.16
683.144	210.6
683.334	106.15
683.524	265.89
683.714	265.89
683.904	231.08
684.094	126.63
684.284	153.26
684.474	302.76
684.664	323.24
684.854	245.41
685.044	134.82
685.234	200.36
685.424	157.35
685.614	194.22
685.804	237.22
685.994	118.44
686.184	229.03
686.374	255.65
686.564	171.69
686.753	175.78
686.943	134.82
687.133	112.3
687.323	161.45
687.513	186.02
687.702	224.94
687.892	106.15
688.082	308.9
688.272	267.94
688.461	81.58
688.651	339.62
688.841	265.89
689.03	120.49
689.22	231.08
689.41	257.7
689.599	163.5
689.789	274.09
689.979	261.8
690.168	165.54
690.358	251.56
690.547	175.78
690.737	278.18
690.926	212.65
691.116	220.84
691.305	265.89
691.495	274.09
691.684	126.63
691.874	112.3
692.063	153.26
692.252	212.65
692.442	267.94
692.631	73.39
692.82	136.87
693.01	169.64
693.199	183.98
693.388	284.33
693.578	171.69
693.767	255.65
693.956	177.83
694.146	190.12
694.335	267.94
694.524	179.88
694.713	306.85
694.902	208.55
695.092	130.73
695.281	208.55
695.47	155.3
695.659	161.45
695.848	204.46
696.037	81.58
696.226	216.74
696.415	198.31
696.604	251.56
696.793	253.61
696.982	95.91
697.171	351.91
697.36	38.57
697.549	188.07
697.738	48.81
697.927	124.58
698.116	81.58
698.305	253.61
698.494	145.06
698.683	149.16
698.872	343.72
699.061	138.92
699.25	173.74
699.438	202.41
699.627	38.57
699.816	321.19
700.005	188.07
700.193	138.92
700.382	282.28
700.571	204.46
700.76	224.94
700.948	224.94
701.137	200.36
701.326	210.6
701.514	130.73
701.703	249.51
701.892	186.02
702.08	353.96
702.269	114.34
702.457	83.63
702.646	218.79
702.834	120.49
703.023	224.94
703.212	220.84
703.4	171.69
703.589	108.2
703.777	108.2
703.965	130.73
704.154	122.54
704.342	89.77
704.531	145.06
704.719	130.73
704.907	214.7
705.096	87.72
705.284	138.92
705.472	224.94
705.661	214.7
705.849	220.84
706.037	253.61
706.226	183.98
706.414	224.94
706.602	194.22
706.79	206.5
706.979	161.45
707.167	147.11
707.355	40.62
707.543	138.92
707.731	233.13
707.919	171.69
708.107	120.49
708.296	106.15
708.484	106.15
708.672	173.74
708.86	290.47
709.048	161.45
709.236	102.06
709.424	288.42
709.612	243.37
709.8	63.15
709.988	151.21
710.176	290.47
710.364	167.59
710.551	136.87
710.739	59.05
710.927	122.54
711.115	261.8
711.303	319.14
711.491	241.32
711.679	145.06
711.866	226.98
712.054	149.16
712.242	163.5
712.43	226.98
712.617	210.6
712.805	251.56
712.993	97.96
713.181	42.67
713.368	269.99
713.556	130.73
713.744	122.54
713.931	407.2
714.119	294.57
714.306	202.41
714.494	216.74
714.682	192.17
714.869	67.24
715.057	120.49
715.244	106.15
715.432	186.02
715.619	69.29
715.807	157.35
715.994	159.4
716.182	229.03
716.369	186.02
716.556	315.05
716.744	140.97
716.931	128.68
717.119	196.26
717.306	140.97
717.493	243.37
717.681	192.17
717.868	126.63
718.055	165.54
718.242	196.26
718.43	202.41
718.617	214.7
718.804	153.26
718.991	243.37
719.179	220.84
719.366	216.74
719.553	222.89
719.74	188.07
719.927	190.12
720.114	235.18
720.301	114.34
720.488	218.79
720.676	167.59
720.863	251.56
721.05	294.57
721.237	284.33
721.424	249.51
721.611	249.51
721.798	145.06
721.985	140.97
722.172	243.37
722.358	235.18
722.545	298.66
722.732	261.8
722.919	306.85
723.106	300.71
723.293	267.94
723.48	210.6
723.667	110.25
723.853	333.48
724.04	247.46
724.227	206.5
724.414	188.07
724.6	206.5
724.787	298.66
724.974	313
725.161	239.27
725.347	212.65
725.534	269.99
725.72	272.04
725.907	343.72
726.094	286.37
726.28	147.11
726.467	337.57
726.653	149.16
726.84	368.29
727.027	335.53
727.213	243.37
727.4	290.47
727.586	243.37
727.773	349.86
727.959	175.78
728.145	278.18
728.332	261.8
728.518	304.81
728.705	282.28
728.891	278.18
729.077	249.51
729.264	179.88
729.45	233.13
729.636	269.99
729.823	192.17
730.009	269.99
730.195	249.51
730.382	288.42
730.568	263.85
730.754	237.22
730.94	241.32
731.126	235.18
731.313	315.05
731.499	245.41
731.685	290.47
731.871	261.8
732.057	296.61
732.243	317.09
732.429	351.91
732.615	353.96
732.801	286.37
732.987	278.18
733.173	237.22
733.359	224.94
733.545	380.58
733.731	243.37
733.917	356.01
734.103	286.37
734.289	282.28
734.475	218.79
734.661	323.24
734.847	286.37
735.033	317.09
735.219	370.34
735.404	188.07
735.59	237.22
735.776	183.98
735.962	315.05
736.148	308.9
736.333	290.47
736.519	257.7
736.705	321.19
736.89	181.93
737.076	323.24
737.262	218.79
737.447	241.32
737.633	245.41
737.819	333.48
738.004	269.99
738.19	249.51
738.375	306.85
738.561	386.72
738.747	278.18
738.932	229.03
739.118	466.6
739.303	280.23
739.489	392.87
739.674	214.7
739.859	206.5
740.045	300.71
740.23	304.81
740.416	171.69
740.601	356.01
740.786	276.13
740.972	257.7
741.157	294.57
741.342	235.18
741.528	237.22
741.713	358.05
741.898	284.33
742.084	276.13
742.269	269.99
742.454	278.18
742.639	313
742.824	263.85
743.01	306.85
743.195	419.49
743.38	181.93
743.565	310.95
743.75	255.65
743.935	306.85
744.12	401.06
744.305	247.46
744.49	288.42
744.675	212.65
744.86	315.05
745.045	265.89
745.23	288.42
745.415	276.13
745.6	333.48
745.785	276.13
745.97	288.42
746.155	310.95
746.34	378.53
746.525	288.42
746.71	343.72
746.895	147.11
747.079	153.26
747.264	218.79
747.449	374.44
747.634	407.2
747.819	304.81
748.003	163.5
748.188	204.46
748.373	239.27
748.557	274.09
748.742	245.41
748.927	269.99
749.111	196.26
749.296	298.66
749.481	300.71
749.665	222.89
749.85	186.02
750.034	315.05
750.219	206.5
750.404	226.98
750.588	286.37
750.773	257.7
750.957	151.21
751.141	249.51
751.326	306.85
751.51	165.54
751.695	208.55
751.879	194.22
752.064	417.44
752.248	226.98
752.432	407.2
752.617	222.89
752.801	339.62
752.985	173.74
753.17	249.51
753.354	202.41
753.538	190.12
753.722	100.01
753.907	169.64
754.091	81.58
754.275	218.79
754.459	116.39
754.643	171.69
754.828	198.31
755.012	243.37
755.196	136.87
755.38	237.22
755.564	149.16
755.748	208.55
755.932	169.64
756.116	212.65
756.3	188.07
756.484	167.59
756.668	241.32
756.852	106.15
757.036	151.21
757.22	198.31
757.404	89.77
757.588	210.6
757.772	212.65
757.956	97.96
758.14	306.85
758.323	81.58
758.507	308.9
758.691	194.22
758.875	229.03
759.059	220.84
759.242	167.59
759.426	140.97
759.61	208.55
759.794	81.58
759.977	147.11
760.161	339.62
760.345	292.52
760.528	257.7
760.712	198.31
760.895	194.22
761.079	69.29
761.263	85.67
761.446	59.05
761.63	122.54
761.813	247.46
761.997	63.15
762.18	134.82
762.364	210.6
762.547	50.86
762.731	102.06
762.914	71.34
763.098	-10.58
763.281	118.44
763.464	112.3
763.648	116.39
763.831	124.58
764.015	108.2
764.198	196.26
764.381	124.58
764.564	145.06
764.748	118.44
764.931	116.39
765.114	87.72
765.297	237.22
765.481	112.3
765.664	194.22
765.847	-0.34
766.03	204.46
766.213	48.81
766.397	136.87
766.58	77.48
766.763	151.21
766.946	136.87
767.129	81.58
767.312	102.06
767.495	163.5
767.678	147.11
767.861	138.92
768.044	134.82
768.227	65.19
768.41	28.33
768.593	143.02
768.776	73.39
768.959	100.01
769.142	130.73
769.324	18.09
769.507	59.05
769.69	22.19
769.873	81.58
770.056	315.05
770.239	85.67
770.421	140.97
770.604	198.31
770.787	16.04
770.97	71.34
771.152	22.19
771.335	126.63
771.518	69.29
771.7	149.16
771.883	159.4
772.066	108.2
772.248	155.3
772.431	186.02
772.613	130.73
772.796	61.1
772.978	110.25
773.161	194.22
773.343	28.33
773.526	20.14
773.708	13.99
773.891	-59.73
774.073	30.38
774.256	48.81
774.438	157.35
774.621	75.43
774.803	130.73
774.985	48.81
775.168	77.48
775.35	44.71
775.532	159.4
775.715	67.24
775.897	73.39
776.079	61.1
776.261	104.11
776.444	32.43
776.626	128.68
776.808	42.67
776.99	-4.44
777.173	83.63
777.355	13.99
777.537	169.64
777.719	87.72
777.901	44.71
778.083	59.05
778.265	22.19
778.447	75.43
778.629	54.95
778.811	50.86
778.993	116.39
779.175	194.22
779.357	67.24
779.539	28.33
779.721	93.87
779.903	28.33
780.085	65.19
780.267	77.48
780.449	44.71
780.631	59.05
780.812	196.26
780.994	38.57
781.176	85.67
781.358	-8.53
781.54	-49.49
781.721	124.58
781.903	85.67
782.085	81.58
782.267	136.87
782.448	-65.88
782.63	-63.83
782.812	106.15
782.993	34.47
783.175	104.11
783.357	40.62
783.538	48.81
783.72	-10.58
783.901	1.71
784.083	108.2
784.264	69.29
784.446	-22.87
784.627	-0.34
784.809	40.62
784.99	34.47
785.172	124.58
785.353	44.71
785.535	48.81
785.716	-49.49
785.897	22.19
786.079	7.85
786.26	83.63
786.441	48.81
786.623	-112.98
786.804	34.47
786.985	36.52
787.167	138.92
787.348	-37.2
787.529	13.99
787.71	179.88
787.891	-0.34
788.073	57
788.254	-112.98
788.435	134.82
788.616	42.67
788.797	-26.96
788.978	44.71
789.159	-16.73
789.34	42.67
789.522	63.15
789.703	16.04
789.884	46.76
790.065	91.82
790.246	161.45
790.427	57
790.607	179.88
790.788	95.91
790.969	-0.34
791.15	-6.49
791.331	46.76
791.512	18.09
791.693	-4.44
791.874	-26.96
792.054	118.44
792.235	11.95
792.416	-45.4
792.597	-10.58
792.778	52.91
792.958	63.15
793.139	97.96
793.32	11.95
793.5	-47.44
793.681	157.35
793.862	-0.34
794.042	-24.92
794.223	-74.07
794.404	42.67
794.584	-131.41
794.765	-35.16
794.945	-53.59
795.126	108.2
795.306	40.62
795.487	28.33
795.667	16.04
795.848	91.82
796.028	9.9
796.209	32.43
796.389	75.43
796.57	63.15
796.75	-14.68
796.93	18.09
797.111	18.09
797.291	-39.25
797.471	114.34
797.652	-35.16
797.832	20.14
798.012	134.82
798.192	-4.44
798.373	-41.3
798.553	46.76
798.733	-0.34
798.913	-16.73
799.093	-8.53
799.274	1.71
799.454	73.39
799.634	57
799.814	63.15
799.994	71.34
800.174	71.34
800.354	7.85
800.534	-121.17
800.714	42.67
800.894	-55.64
801.074	-162.13
801.254	-0.34
801.434	97.96
801.614	-18.77
801.794	-96.6
801.974	1992.33
802.154	-16.73
802.334	147.11
802.514	-51.54
802.693	30.38
802.873	-0.34
803.053	102.06
803.233	38.57
803.413	28.33
803.592	-41.3
803.772	3.75
803.952	-8.53
804.131	-39.25
804.311	22.19
804.491	67.24
804.67	-98.64
804.85	36.52
805.03	-4.44
805.209	42.67
805.389	-14.68
805.568	26.28
805.748	-43.35
805.928	52.91
806.107	18.09
806.287	63.15
806.466	20.14
806.646	-26.96
806.825	22.19
807.004	-12.63
807.184	22.19
807.363	38.57
807.543	44.71
807.722	-33.11
807.901	159.4
808.081	-51.54
808.26	-51.54
808.439	-10.58
808.619	-24.92
808.798	-31.06
808.977	71.34
809.156	46.76
809.336	50.86
809.515	-65.88
809.694	-51.54
809.873	-0.34
810.052	20.14
810.231	138.92
810.411	67.24
810.59	97.96
810.769	81.58
810.948	87.72
811.127	-57.68
811.306	9.9
811.485	-22.87
811.664	128.68
811.843	-57.68
812.022	13.99
812.201	26.28
812.38	57
812.559	-31.06
812.737	30.38
812.916	-110.93
813.095	-51.54
813.274	36.52
813.453	-35.16
813.632	11.95
813.811	48.81
813.989	-43.35
814.168	18.09
814.347	-55.64
814.526	11.95
814.704	65.19
814.883	122.54
815.062	-0.34
815.24	128.68
815.419	-16.73
815.598	63.15
815.776	-80.21
815.955	-16.73
816.133	-121.17
816.312	32.43
816.49	-45.4
816.669	-2.39
816.847	-45.4
817.026	89.77
817.204	-29.01
817.383	20.14
817.561	-24.92
817.74	13.99
817.918	57
818.097	-98.64
818.275	-6.49
818.453	-2.39
818.632	61.1
818.81	9.9
818.988	-20.82
819.167	-8.53
819.345	-0.34
819.523	-6.49
819.701	-14.68
819.879	95.91
820.058	32.43
820.236	13.99
820.414	54.95
820.592	42.67
820.77	16.04
820.948	-51.54
821.127	-35.16
821.305	-20.82
821.483	-35.16
821.661	97.96
821.839	7.85
822.017	40.62
822.195	36.52
822.373	18.09
822.551	-8.53
822.729	-6.49
822.907	16.04
823.085	83.63
823.262	46.76
823.44	-94.55
823.618	-29.01
823.796	-45.4
823.974	-31.06
824.152	-16.73
824.329	-57.68
824.507	-72.02
824.685	-22.87
824.863	-41.3
825.04	83.63
825.218	1.71
825.396	38.57
825.574	-41.3
825.751	20.14
825.929	122.54
826.107	-112.98
826.284	69.29
826.462	-53.59
826.639	79.53
826.817	-94.55
826.994	-86.36
827.172	-22.87
827.349	153.26
827.527	42.67
827.704	24.23
827.882	120.49
828.059	-63.83
828.237	-14.68
828.414	28.33
828.591	-137.56
828.769	-8.53
828.946	-16.73
829.124	118.44
829.301	110.25
829.478	-2.39
829.655	3.75
829.833	24.23
830.01	-20.82
830.187	61.1
830.364	16.04
830.542	-92.5
830.719	112.3
830.896	-2.39
831.073	114.34
831.25	34.47
831.427	79.53
831.604	7.85
831.782	-41.3
831.959	57
832.136	11.95
832.313	42.67
832.49	-8.53
832.667	9.9
832.844	-53.59
833.021	40.62
833.198	-41.3
833.374	16.04
833.551	59.05
833.728	9.9
833.905	20.14
834.082	-53.59
834.259	9.9
834.436	97.96
834.612	-29.01
834.789	81.58
834.966	-16.73
835.143	57
835.319	-115.03
835.496	13.99
835.673	77.48
835.85	97.96
836.026	20.14
836.203	13.99
836.38	-82.26
836.556	-39.25
836.733	-29.01
836.909	173.74
837.086	16.04
837.262	-106.84
837.439	11.95
837.616	-49.49
837.792	36.52
837.968	-20.82
838.145	-166.23
838.321	7.85
838.498	40.62
838.674	89.77
838.851	13.99
839.027	24.23
839.203	46.76
839.38	24.23
839.556	-24.92
839.732	147.11
839.909	-74.07
840.085	5.8
840.261	-137.56
840.437	40.62
840.614	-22.87
840.79	32.43
840.966	52.91
841.142	-8.53
841.318	9.9
841.494	18.09
841.671	116.39
841.847	-76.12
842.023	-115.03
842.199	54.95
842.375	32.43
842.551	-106.84
842.727	-16.73
842.903	69.29
843.079	-2.39
843.255	104.11
843.431	-53.59
843.607	79.53
843.783	-115.03
843.959	77.48
844.134	-98.64
844.31	67.24
844.486	-108.88
844.662	-39.25
844.838	-31.06
845.013	5.8
845.189	48.81
845.365	93.87
845.541	-2.39
845.716	30.38
845.892	36.52
846.068	-63.83
846.244	-53.59
846.419	-0.34
846.595	-45.4
846.77	-31.06
846.946	67.24
847.122	-92.5
847.297	24.23
847.473	59.05
847.648	-133.46
847.824	44.71
847.999	-94.55
848.175	-41.3
848.35	-45.4
848.526	61.1
848.701	69.29
848.876	38.57
849.052	95.91
849.227	-35.16
849.403	-43.35
849.578	-8.53
849.753	52.91
849.929	26.28
850.104	-6.49
850.279	-22.87
850.454	-35.16
850.63	-2.39
850.805	16.04
850.98	-0.34
851.155	20.14
851.33	22.19
851.505	-82.26
851.681	95.91
851.856	-47.44
852.031	-14.68
852.206	-35.16
852.381	-127.32
852.556	-8.53
852.731	91.82
852.906	54.95
853.081	36.52
853.256	93.87
853.431	5.8
853.606	-59.73
853.781	-78.16
853.956	-149.84
854.131	5.8
854.305	24.23
854.48	3.75
854.655	-82.26
854.83	-35.16
855.005	69.29
855.18	-59.73
855.354	16.04
855.529	79.53
855.704	-51.54
855.879	34.47
856.053	-86.36
856.228	38.57
856.403	-76.12
856.577	69.29
856.752	-72.02
856.926	57
857.101	-18.77
857.276	-84.31
857.45	32.43
857.625	42.67
857.799	-22.87
857.974	34.47
858.148	-55.64
858.323	44.71
858.497	-29.01
858.672	-29.01
858.846	-45.4
859.02	77.48
859.195	-2.39
859.369	-18.77
859.543	13.99
859.718	26.28
859.892	-33.11
860.066	7.85
860.241	-12.63
860.415	-67.92
860.589	-6.49
860.763	42.67
860.938	-82.26
861.112	-18.77
861.286	-4.44
861.46	-14.68
861.634	-6.49
861.808	28.33
861.982	-53.59
862.157	-94.55
862.331	30.38
862.505	-4.44
862.679	-82.26
862.853	-104.79
863.027	44.71
863.201	38.57
863.375	-14.68
863.549	16.04
863.722	32.43
863.896	52.91
864.07	-74.07
864.244	20.14
864.418	46.76
864.592	-33.11
864.766	16.04
864.939	7.85
865.113	-49.49
865.287	54.95
865.461	-84.31
865.634	-16.73
865.808	-26.96
865.982	-63.83
866.156	-96.6
866.329	-125.27
866.503	-33.11
866.676	18.09
866.85	-20.82
867.024	-72.02
867.197	16.04
867.371	-49.49
867.544	-16.73
867.718	-194.9
867.891	69.29
868.065	-88.4
868.238	-22.87
868.412	61.1
868.585	26.28
868.759	-45.4
868.932	89.77
869.105	-164.18
869.279	26.28
869.452	-47.44
869.625	89.77
869.799	-6.49
869.972	-61.78
870.145	-10.58
870.319	-20.82
870.492	-82.26
870.665	-143.7
870.838	-65.88
871.011	-131.41
871.185	-39.25
871.358	-14.68
871.531	9.9
871.704	-131.41
871.877	-18.77
872.05	-20.82
872.223	-57.68
872.396	36.52
872.569	-24.92
872.742	-72.02
872.915	-49.49
873.088	-4.44
873.261	-39.25
873.434	-67.92
873.607	-16.73
873.78	-6.49
873.953	-125.27
874.126	-24.92
874.299	40.62
874.471	5.8
874.644	-6.49
874.817	40.62
874.99	106.15
875.163	-47.44
875.335	34.47
875.508	-53.59
875.681	102.06
875.853	-108.88
876.026	26.28
876.199	48.81
876.371	-12.63
876.544	71.34
876.717	5.8
876.889	-8.53
877.062	38.57
877.234	-119.12
877.407	-29.01
877.579	-4.44
877.752	-39.25
877.924	87.72
878.097	13.99
878.269	-35.16
878.442	16.04
878.614	52.91
878.786	36.52
878.959	-29.01
879.131	18.09
879.303	-98.64
879.476	59.05
879.648	93.87
879.82	-10.58
879.993	-49.49
880.165	-61.78
880.337	-96.6
880.509	13.99
880.681	-131.41
880.854	-76.12
881.026	30.38
881.198	132.78
881.37	-31.06
881.542	-49.49
881.714	-45.4
881.886	-16.73
882.058	-37.2
882.23	59.05
882.402	18.09
882.574	-16.73
882.746	7.85
882.918	38.57
883.09	69.29
883.262	-10.58
883.434	61.1
883.606	-135.51
883.778	-33.11
883.95	91.82
884.122	-84.31
884.293	7.85
884.465	-22.87
884.637	140.97
884.809	-98.64
884.98	30.38
885.152	48.81
885.324	3.75
885.496	-47.44
885.667	-14.68
885.839	-37.2
886.011	89.77
886.182	1.71
886.354	75.43
886.525	46.76
886.697	30.38
886.869	-6.49
887.04	-49.49
887.212	93.87
887.383	140.97
887.555	-20.82
887.726	-33.11
887.897	-72.02
888.069	69.29
888.24	40.62
888.412	67.24
888.583	-69.97
888.754	-33.11
888.926	-106.84
889.097	-37.2
889.268	-47.44
889.44	-33.11
889.611	-106.84
889.782	-98.64
889.953	-80.21
890.125	75.43
890.296	-31.06
890.467	-10.58
890.638	-55.64
890.809	32.43
890.98	-47.44
891.151	-22.87
891.323	54.95
891.494	-4.44
891.665	-29.01
891.836	7.85
892.007	-39.25
892.178	54.95
892.349	18.09
892.52	-49.49
892.691	46.76
892.862	1.71
893.032	-176.47
893.203	-16.73
893.374	-37.2
893.545	73.39
893.716	24.23
893.887	-0.34
894.057	-18.77
894.228	24.23
894.399	-16.73
894.57	-12.63
894.74	-4.44
894.911	26.28
895.082	-63.83
895.253	-51.54
895.423	-37.2
895.594	52.91
895.764	7.85
895.935	-92.5
896.106	-16.73
896.276	-29.01
896.447	-6.49
896.617	-67.92
896.788	-82.26
896.958	-33.11
897.129	-45.4
897.299	-88.4
897.47	79.53
897.64	7.85
897.81	-22.87
897.981	-59.73
898.151	-37.2
898.322	85.67
898.492	-33.11
898.662	-39.25
898.832	-96.6
899.003	-98.64
899.173	-29.01
899.343	-67.92
899.513	-110.93
