Data from USB4F104151__13__11-24-26-107.txt Node

Date: Wed Feb 26 11:24:26 EST 2025
User: louis
Spectrometer: USB4F10415
Trigger mode: 4
Integration Time (sec): 1.000000E-1
Scans to average: 1
Electric dark correction enabled: true
Nonlinearity correction enabled: false
Boxcar width: 0
XAxis mode: Wavelengths
Number of Pixels in Spectrum: 3648
>>>>>Begin Spectral Data<<<<<
178.204	-460.62
178.424	-460.62
178.644	-460.62
178.864	-411.47
179.084	-347.98
179.304	47.27
179.524	-89.94
179.744	47.27
179.964	75.95
180.184	37.03
180.404	6.31
180.624	-18.26
180.844	-46.93
181.064	12.46
181.283	16.55
181.503	-73.56
181.723	-14.17
181.943	24.75
182.163	188.58
182.383	-1.88
182.602	26.79
182.822	188.58
183.042	67.75
183.262	-20.31
183.482	32.94
183.701	-44.88
183.921	59.56
184.141	-36.69
184.361	86.19
184.58	49.32
184.8	43.18
185.02	-22.36
185.239	86.19
185.459	123.05
185.679	75.95
185.898	-135
186.118	-1.88
186.338	-12.12
186.557	116.9
186.777	-44.88
186.997	69.8
187.216	32.94
187.436	192.68
187.655	67.75
187.875	59.56
188.095	12.46
188.314	215.21
188.534	77.99
188.753	-73.56
188.973	43.18
189.192	184.49
189.412	-46.93
189.631	8.36
189.851	147.62
190.07	123.05
190.29	-67.41
190.509	-20.31
190.729	39.08
190.948	67.75
191.168	352.42
191.387	59.56
191.607	24.75
191.826	98.47
192.045	75.95
192.265	43.18
192.484	84.14
192.704	49.32
192.923	-32.6
193.142	176.3
193.362	41.13
193.581	204.97
193.8	26.79
194.02	125.1
194.239	4.27
194.458	129.19
194.678	22.7
194.897	61.61
195.116	43.18
195.335	106.67
195.555	24.75
195.774	-42.84
195.993	145.58
196.212	-16.21
196.432	-67.41
196.651	37.03
196.87	71.85
197.089	241.83
197.308	59.56
197.528	65.71
197.747	-26.45
197.966	92.33
198.185	200.87
198.404	4.27
198.623	110.76
198.842	135.34
199.062	-3.93
199.281	88.23
199.5	112.81
199.719	96.43
199.938	94.38
200.157	178.34
200.376	100.52
200.595	147.62
200.814	-1.88
201.033	0.17
201.252	168.1
201.471	67.75
201.69	96.43
201.909	30.89
202.128	92.33
202.347	39.08
202.566	32.94
202.785	-69.46
203.004	-42.84
203.223	176.3
203.442	41.13
203.661	-32.6
203.879	77.99
204.098	116.9
204.317	32.94
204.536	141.48
204.755	90.28
204.974	102.57
205.193	34.99
205.411	182.44
205.63	108.71
205.849	61.61
206.068	-34.64
206.287	-12.12
206.505	172.2
206.724	2.22
206.943	-8.02
207.162	-44.88
207.381	118.95
207.599	51.37
207.818	20.65
208.037	-3.93
208.255	71.85
208.474	80.04
208.693	20.65
208.911	-51.03
209.13	112.81
209.349	92.33
209.567	77.99
209.786	129.19
210.005	67.75
210.223	16.55
210.442	-14.17
210.661	34.99
210.879	32.94
211.098	53.42
211.316	32.94
211.535	110.76
211.753	75.95
211.972	47.27
212.191	-87.89
212.409	6.31
212.628	110.76
212.846	-8.02
213.065	53.42
213.283	151.72
213.502	28.84
213.72	-5.97
213.938	12.46
214.157	-14.17
214.375	170.15
214.594	-1.88
214.812	168.1
215.031	-10.07
215.249	0.17
215.467	96.43
215.686	-14.17
215.904	108.71
216.122	14.51
216.341	176.3
216.559	18.6
216.778	71.85
216.996	121
217.214	-5.97
217.432	16.55
217.651	-71.51
217.869	77.99
218.087	24.75
218.306	8.36
218.524	106.67
218.742	-38.74
218.96	57.51
219.179	-8.02
219.397	55.47
219.615	254.12
219.833	104.62
220.051	-5.97
220.27	73.9
220.488	125.1
220.706	53.42
220.924	24.75
221.142	8.36
221.36	84.14
221.578	80.04
221.796	4.27
222.015	32.94
222.233	98.47
222.451	186.54
222.669	-18.26
222.887	57.51
223.105	94.38
223.323	14.51
223.541	0.17
223.759	135.34
223.977	22.7
224.195	135.34
224.413	92.33
224.631	49.32
224.849	88.23
225.067	258.21
225.285	57.51
225.503	-55.12
225.721	-114.52
225.939	12.46
226.157	37.03
226.375	227.5
226.592	-38.74
226.81	10.41
227.028	16.55
227.246	112.81
227.464	116.9
227.682	55.47
227.9	98.47
228.117	84.14
228.335	67.75
228.553	8.36
228.771	51.37
228.989	14.51
229.206	77.99
229.424	61.61
229.642	82.09
229.86	-20.31
230.077	198.82
230.295	86.19
230.513	131.24
230.731	34.99
230.948	145.58
231.166	137.38
231.384	-46.93
231.601	-48.98
231.819	168.1
232.037	8.36
232.254	26.79
232.472	28.84
232.689	-14.17
232.907	51.37
233.125	24.75
233.342	16.55
233.56	-26.45
233.777	14.51
233.995	16.55
234.213	137.38
234.43	55.47
234.648	8.36
234.865	10.41
235.083	53.42
235.3	34.99
235.518	118.95
235.735	131.24
235.953	114.86
236.17	88.23
236.388	6.31
236.605	16.55
236.822	94.38
237.04	86.19
237.257	84.14
237.475	-67.41
237.692	39.08
237.909	116.9
238.127	45.23
238.344	26.79
238.562	26.79
238.779	-36.69
238.996	16.55
239.214	37.03
239.431	61.61
239.648	-5.97
239.865	102.57
240.083	108.71
240.3	49.32
240.517	2.22
240.735	-32.6
240.952	170.15
241.169	47.27
241.386	133.29
241.603	-14.17
241.821	-85.84
242.038	143.53
242.255	114.86
242.472	8.36
242.689	94.38
242.907	-1.88
243.124	88.23
243.341	96.43
243.558	-1.88
243.775	-83.8
243.992	32.94
244.209	47.27
244.426	194.73
244.643	69.8
244.86	39.08
245.078	110.76
245.295	77.99
245.512	-10.07
245.729	-28.5
245.946	-22.36
246.163	71.85
246.38	57.51
246.597	80.04
246.814	59.56
247.031	63.66
247.248	34.99
247.464	67.75
247.681	71.85
247.898	-3.93
248.115	65.71
248.332	-24.4
248.549	170.15
248.766	194.73
248.983	69.8
249.2	127.14
249.417	6.31
249.633	77.99
249.85	59.56
250.067	26.79
250.284	100.52
250.501	63.66
250.717	84.14
250.934	-94.04
251.151	108.71
251.368	-3.93
251.585	65.71
251.801	96.43
252.018	-87.89
252.235	82.09
252.451	32.94
252.668	61.61
252.885	98.47
253.102	61.61
253.318	39.08
253.535	108.71
253.752	-8.02
253.968	82.09
254.185	-67.41
254.401	43.18
254.618	106.67
254.835	47.27
255.051	182.44
255.268	69.8
255.484	45.23
255.701	20.65
255.917	63.66
256.134	-69.46
256.351	59.56
256.567	-81.75
256.784	49.32
257	-14.17
257.217	92.33
257.433	118.95
257.65	43.18
257.866	141.48
258.082	-32.6
258.299	2.22
258.515	30.89
258.732	6.31
258.948	-94.04
259.165	65.71
259.381	-53.08
259.597	57.51
259.814	20.65
260.03	-16.21
260.246	26.79
260.463	94.38
260.679	131.24
260.895	57.51
261.112	65.71
261.328	6.31
261.544	-83.8
261.761	192.68
261.977	16.55
262.193	-87.89
262.409	137.38
262.626	28.84
262.842	55.47
263.058	-3.93
263.274	159.91
263.49	69.8
263.707	143.53
263.923	135.34
264.139	-130.9
264.355	51.37
264.571	125.1
264.787	26.79
265.004	110.76
265.22	98.47
265.436	55.47
265.652	73.9
265.868	90.28
266.084	53.42
266.3	34.99
266.516	-3.93
266.732	59.56
266.948	86.19
267.164	-34.64
267.38	104.62
267.596	53.42
267.812	231.59
268.028	28.84
268.244	4.27
268.46	127.14
268.676	14.51
268.892	75.95
269.108	8.36
269.324	-53.08
269.54	67.75
269.756	34.99
269.972	-71.51
270.188	47.27
270.403	-24.4
270.619	112.81
270.835	145.58
271.051	155.82
271.267	77.99
271.483	-1.88
271.698	8.36
271.914	0.17
272.13	20.65
272.346	6.31
272.562	6.31
272.777	143.53
272.993	2.22
273.209	110.76
273.425	73.9
273.64	-44.88
273.856	82.09
274.072	-48.98
274.287	22.7
274.503	57.51
274.719	98.47
274.934	8.36
275.15	-46.93
275.366	51.37
275.581	-87.89
275.797	-12.12
276.012	73.9
276.228	-85.84
276.444	73.9
276.659	82.09
276.875	-69.46
277.09	67.75
277.306	-8.02
277.521	129.19
277.737	12.46
277.952	112.81
278.168	49.32
278.383	-32.6
278.599	10.41
278.814	170.15
279.03	-12.12
279.245	118.95
279.461	75.95
279.676	82.09
279.892	-24.4
280.107	-36.69
280.322	-12.12
280.538	-40.79
280.753	-42.84
280.969	71.85
281.184	-46.93
281.399	98.47
281.615	47.27
281.83	65.71
282.045	-51.03
282.26	8.36
282.476	45.23
282.691	92.33
282.906	108.71
283.122	59.56
283.337	28.84
283.552	82.09
283.767	-34.64
283.983	92.33
284.198	-38.74
284.413	170.15
284.628	-71.51
284.843	37.03
285.058	139.43
285.274	32.94
285.489	69.8
285.704	75.95
285.919	-91.99
286.134	75.95
286.349	49.32
286.564	-16.21
286.779	118.95
286.995	77.99
287.21	-98.13
287.425	32.94
287.64	-34.64
287.855	90.28
288.07	-73.56
288.285	8.36
288.5	153.77
288.715	129.19
288.93	51.37
289.145	-87.89
289.36	102.57
289.575	10.41
289.79	75.95
290.004	37.03
290.219	55.47
290.434	16.55
290.649	18.6
290.864	10.41
291.079	77.99
291.294	49.32
291.509	-5.97
291.724	16.55
291.938	53.42
292.153	59.56
292.368	67.75
292.583	77.99
292.798	67.75
293.012	30.89
293.227	24.75
293.442	-5.97
293.657	98.47
293.871	123.05
294.086	49.32
294.301	186.54
294.516	180.39
294.73	133.29
294.945	-87.89
295.16	47.27
295.374	139.43
295.589	26.79
295.804	-22.36
296.018	-10.07
296.233	116.9
296.447	57.51
296.662	102.57
296.877	145.58
297.091	153.77
297.306	57.51
297.52	4.27
297.735	82.09
297.949	0.17
298.164	55.47
298.378	-16.21
298.593	59.56
298.807	20.65
299.022	49.32
299.236	110.76
299.451	34.99
299.665	30.89
299.88	6.31
300.094	88.23
300.309	65.71
300.523	67.75
300.737	24.75
300.952	47.27
301.166	32.94
301.381	-32.6
301.595	-42.84
301.809	67.75
302.024	12.46
302.238	-3.93
302.452	104.62
302.667	73.9
302.881	131.24
303.095	133.29
303.309	53.42
303.524	-42.84
303.738	-5.97
303.952	45.23
304.166	75.95
304.381	-122.71
304.595	176.3
304.809	43.18
305.023	67.75
305.237	-10.07
305.452	90.28
305.666	82.09
305.88	151.72
306.094	127.14
306.308	96.43
306.522	57.51
306.736	39.08
306.95	135.34
307.164	43.18
307.379	20.65
307.593	100.52
307.807	176.3
308.021	65.71
308.235	110.76
308.449	-55.12
308.663	71.85
308.877	243.88
309.091	82.09
309.305	123.05
309.519	-114.52
309.733	145.58
309.947	-16.21
310.161	67.75
310.374	145.58
310.588	121
310.802	-36.69
311.016	-16.21
311.23	-18.26
311.444	-30.55
311.658	90.28
311.872	116.9
312.085	98.47
312.299	143.53
312.513	159.91
312.727	39.08
312.941	-16.21
313.154	53.42
313.368	75.95
313.582	-3.93
313.796	51.37
314.009	75.95
314.223	168.1
314.437	43.18
314.651	65.71
314.864	0.17
315.078	-55.12
315.292	-38.74
315.505	0.17
315.719	41.13
315.933	88.23
316.146	-16.21
316.36	-104.28
316.573	67.75
316.787	129.19
317.001	26.79
317.214	-32.6
317.428	51.37
317.641	-3.93
317.855	45.23
318.068	123.05
318.282	-30.55
318.495	149.67
318.709	57.51
318.922	-42.84
319.136	161.96
319.349	125.1
319.563	-16.21
319.776	71.85
319.99	-34.64
320.203	106.67
320.417	53.42
320.63	82.09
320.843	202.92
321.057	135.34
321.27	47.27
321.483	110.76
321.697	123.05
321.91	59.56
322.124	39.08
322.337	143.53
322.55	34.99
322.763	82.09
322.977	-8.02
323.19	6.31
323.403	100.52
323.617	8.36
323.83	98.47
324.043	26.79
324.256	75.95
324.469	-69.46
324.683	102.57
324.896	8.36
325.109	-18.26
325.322	-26.45
325.535	100.52
325.748	155.82
325.962	61.61
326.175	63.66
326.388	94.38
326.601	151.72
326.814	-38.74
327.027	82.09
327.24	184.49
327.453	-53.08
327.666	149.67
327.879	125.1
328.092	53.42
328.305	59.56
328.518	26.79
328.731	-16.21
328.944	37.03
329.157	32.94
329.37	37.03
329.583	190.63
329.796	131.24
330.009	-40.79
330.222	135.34
330.435	145.58
330.648	39.08
330.861	82.09
331.073	32.94
331.286	143.53
331.499	18.6
331.712	-22.36
331.925	-5.97
332.138	82.09
332.35	125.1
332.563	-16.21
332.776	90.28
332.989	12.46
333.202	-30.55
333.414	53.42
333.627	47.27
333.84	100.52
334.053	14.51
334.265	-24.4
334.478	-22.36
334.691	77.99
334.903	34.99
335.116	-14.17
335.329	6.31
335.541	147.62
335.754	164.01
335.966	-55.12
336.179	82.09
336.392	49.32
336.604	61.61
336.817	104.62
337.029	12.46
337.242	32.94
337.454	116.9
337.667	57.51
337.88	121
338.092	49.32
338.305	65.71
338.517	2.22
338.729	102.57
338.942	137.38
339.154	-8.02
339.367	-36.69
339.579	174.25
339.792	-22.36
340.004	133.29
340.217	94.38
340.429	98.47
340.641	-18.26
340.854	-26.45
341.066	-1.88
341.278	172.2
341.491	161.96
341.703	82.09
341.915	6.31
342.128	153.77
342.34	84.14
342.552	-18.26
342.764	90.28
342.977	28.84
343.189	82.09
343.401	82.09
343.613	-63.32
343.826	18.6
344.038	47.27
344.25	34.99
344.462	28.84
344.674	121
344.886	30.89
345.099	86.19
345.311	51.37
345.523	32.94
345.735	-91.99
345.947	51.37
346.159	55.47
346.371	37.03
346.583	8.36
346.795	190.63
347.007	20.65
347.219	39.08
347.431	6.31
347.643	145.58
347.855	-20.31
348.067	137.38
348.279	14.51
348.491	-3.93
348.703	82.09
348.915	16.55
349.127	-8.02
349.339	65.71
349.551	41.13
349.763	49.32
349.975	18.6
350.187	176.3
350.399	180.39
350.61	69.8
350.822	-67.41
351.034	112.81
351.246	53.42
351.458	135.34
351.669	114.86
351.881	96.43
352.093	145.58
352.305	127.14
352.517	32.94
352.728	139.43
352.94	63.66
353.152	80.04
353.363	-48.98
353.575	73.9
353.787	161.96
353.999	59.56
354.21	213.16
354.422	-24.4
354.633	32.94
354.845	41.13
355.057	-1.88
355.268	10.41
355.48	77.99
355.692	-61.27
355.903	32.94
356.115	8.36
356.326	-61.27
356.538	69.8
356.749	118.95
356.961	118.95
357.172	-1.88
357.384	6.31
357.595	233.64
357.807	-40.79
358.018	-38.74
358.23	10.41
358.441	61.61
358.653	104.62
358.864	30.89
359.075	-57.17
359.287	92.33
359.498	121
359.709	118.95
359.921	-32.6
360.132	77.99
360.344	41.13
360.555	-36.69
360.766	94.38
360.977	-3.93
361.189	88.23
361.4	49.32
361.611	102.57
361.823	121
362.034	2.22
362.245	-46.93
362.456	28.84
362.667	84.14
362.879	-44.88
363.09	82.09
363.301	47.27
363.512	112.81
363.723	24.75
363.935	61.61
364.146	102.57
364.357	-26.45
364.568	164.01
364.779	16.55
364.99	135.34
365.201	61.61
365.412	192.68
365.623	-16.21
365.834	133.29
366.045	30.89
366.256	30.89
366.467	65.71
366.678	24.75
366.889	71.85
367.1	12.46
367.311	174.25
367.522	6.31
367.733	71.85
367.944	71.85
368.155	84.14
368.366	121
368.577	37.03
368.788	86.19
368.999	-69.46
369.209	106.67
369.42	164.01
369.631	241.83
369.842	153.77
370.053	112.81
370.264	84.14
370.474	-40.79
370.685	143.53
370.896	65.71
371.107	174.25
371.317	75.95
371.528	2.22
371.739	139.43
371.95	96.43
372.16	77.99
372.371	20.65
372.582	-42.84
372.792	77.99
373.003	90.28
373.214	39.08
373.424	63.66
373.635	12.46
373.846	-12.12
374.056	-46.93
374.267	100.52
374.477	6.31
374.688	57.51
374.898	-24.4
375.109	106.67
375.319	45.23
375.53	209.06
375.74	43.18
375.951	14.51
376.161	73.9
376.372	129.19
376.582	30.89
376.793	22.7
377.003	37.03
377.214	88.23
377.424	47.27
377.635	82.09
377.845	49.32
378.055	104.62
378.266	-16.21
378.476	43.18
378.686	43.18
378.897	67.75
379.107	65.71
379.317	114.86
379.528	4.27
379.738	106.67
379.948	-42.84
380.158	131.24
380.369	80.04
380.579	104.62
380.789	61.61
380.999	145.58
381.21	145.58
381.42	166.06
381.63	104.62
381.84	59.56
382.05	77.99
382.261	125.1
382.471	88.23
382.681	-30.55
382.891	147.62
383.101	106.67
383.311	-36.69
383.521	24.75
383.731	86.19
383.941	121
384.151	18.6
384.361	63.66
384.571	51.37
384.781	51.37
384.991	231.59
385.201	188.58
385.411	106.67
385.621	55.47
385.831	116.9
386.041	98.47
386.251	55.47
386.461	102.57
386.671	20.65
386.881	53.42
387.091	73.9
387.301	121
387.511	26.79
387.72	135.34
387.93	102.57
388.14	-110.42
388.35	71.85
388.56	94.38
388.769	100.52
388.979	51.37
389.189	47.27
389.399	16.55
389.609	131.24
389.818	100.52
390.028	155.82
390.238	164.01
390.447	28.84
390.657	104.62
390.867	30.89
391.076	-46.93
391.286	96.43
391.496	47.27
391.705	67.75
391.915	133.29
392.125	141.48
392.334	-71.51
392.544	94.38
392.753	16.55
392.963	82.09
393.172	77.99
393.382	16.55
393.591	157.86
393.801	102.57
394.01	114.86
394.22	108.71
394.429	90.28
394.639	88.23
394.848	90.28
395.058	96.43
395.267	14.51
395.477	88.23
395.686	96.43
395.895	237.74
396.105	221.35
396.314	94.38
396.524	114.86
396.733	71.85
396.942	170.15
397.152	55.47
397.361	143.53
397.57	-1.88
397.78	61.61
397.989	123.05
398.198	176.3
398.407	71.85
398.617	-1.88
398.826	57.51
399.035	30.89
399.244	100.52
399.453	57.51
399.663	63.66
399.872	82.09
400.081	22.7
400.29	114.86
400.499	6.31
400.708	49.32
400.917	18.6
401.127	86.19
401.336	-96.08
401.545	182.44
401.754	116.9
401.963	123.05
402.172	51.37
402.381	-36.69
402.59	39.08
402.799	125.1
403.008	96.43
403.217	112.81
403.426	94.38
403.635	-38.74
403.844	67.75
404.053	10.41
404.262	32.94
404.471	98.47
404.68	65.71
404.888	24.75
405.097	34.99
405.306	90.28
405.515	57.51
405.724	39.08
405.933	112.81
406.142	-12.12
406.35	55.47
406.559	73.9
406.768	41.13
406.977	123.05
407.185	59.56
407.394	41.13
407.603	-75.6
407.812	82.09
408.02	190.63
408.229	114.86
408.438	135.34
408.646	-91.99
408.855	-1.88
409.064	86.19
409.272	-51.03
409.481	67.75
409.69	-26.45
409.898	-65.36
410.107	47.27
410.315	135.34
410.524	2.22
410.733	61.61
410.941	12.46
411.15	102.57
411.358	100.52
411.567	102.57
411.775	63.66
411.984	108.71
412.192	147.62
412.401	88.23
412.609	149.67
412.818	110.76
413.026	94.38
413.234	12.46
413.443	43.18
413.651	-16.21
413.86	22.7
414.068	90.28
414.276	194.73
414.485	-67.41
414.693	176.3
414.901	207.02
415.11	45.23
415.318	0.17
415.526	67.75
415.734	121
415.943	84.14
416.151	170.15
416.359	-14.17
416.567	157.86
416.776	88.23
416.984	116.9
417.192	133.29
417.4	4.27
417.608	77.99
417.817	-87.89
418.025	190.63
418.233	155.82
418.441	-12.12
418.649	-51.03
418.857	121
419.065	100.52
419.273	61.61
419.481	84.14
419.689	106.67
419.897	-24.4
420.105	-75.6
420.313	108.71
420.521	188.58
420.729	155.82
420.937	8.36
421.145	59.56
421.353	172.2
421.561	151.72
421.769	30.89
421.977	47.27
422.185	88.23
422.393	110.76
422.601	135.34
422.809	129.19
423.017	127.14
423.224	100.52
423.432	157.86
423.64	-3.93
423.848	94.38
424.056	6.31
424.263	137.38
424.471	69.8
424.679	213.16
424.887	30.89
425.094	118.95
425.302	151.72
425.51	80.04
425.718	151.72
425.925	145.58
426.133	100.52
426.341	235.69
426.548	-30.55
426.756	8.36
426.964	143.53
427.171	53.42
427.379	73.9
427.586	118.95
427.794	164.01
428.001	149.67
428.209	110.76
428.417	151.72
428.624	104.62
428.832	34.99
429.039	67.75
429.247	63.66
429.454	178.34
429.662	297.13
429.869	112.81
430.076	125.1
430.284	202.92
430.491	213.16
430.699	157.86
430.906	301.22
431.114	104.62
431.321	106.67
431.528	129.19
431.736	106.67
431.943	174.25
432.15	231.59
432.358	211.11
432.565	293.03
432.772	-32.6
432.979	309.41
433.187	186.54
433.394	217.26
433.601	125.1
433.808	323.75
434.016	317.61
434.223	231.59
434.43	243.88
434.637	266.41
434.844	223.4
435.052	215.21
435.259	250.02
435.466	327.85
435.673	229.54
435.88	221.35
436.087	415.91
436.294	364.71
436.501	301.22
436.708	256.17
436.915	356.52
437.122	364.71
437.329	305.32
437.537	327.85
437.743	370.85
437.95	444.58
438.157	387.24
438.364	463.01
438.571	417.96
438.778	540.83
438.985	495.78
439.192	397.48
439.399	387.24
439.606	430.24
439.813	587.94
440.02	589.99
440.227	645.28
440.433	553.12
440.64	518.31
440.847	512.16
441.054	649.38
441.261	764.06
441.467	602.27
441.674	704.67
441.881	731.3
442.088	710.82
442.294	759.97
442.501	880.8
442.708	831.65
442.914	805.02
443.121	929.95
443.328	905.37
443.534	981.15
443.741	1022.11
443.948	864.41
444.154	1089.69
444.361	1271.96
444.568	1063.07
444.774	1122.46
444.981	1026.2
445.187	1253.53
445.394	1271.96
445.6	1261.72
445.807	1413.27
446.013	1253.53
446.22	1450.13
446.426	1382.55
446.633	1618.07
446.839	1775.76
447.046	1517.72
447.252	1689.74
447.459	1704.08
447.665	1704.08
447.871	2072.72
448.078	1958.03
448.284	1943.69
448.491	2164.87
448.697	2222.22
448.903	2388.1
449.11	2341
449.316	2267.27
449.522	2459.78
449.728	2541.7
449.935	2705.54
450.141	2738.3
450.347	3027.07
450.553	2969.73
450.76	3022.97
450.966	3096.7
451.172	3164.28
451.378	3436.66
451.584	3444.85
451.791	3704.95
451.997	3766.39
452.203	3842.16
452.409	3940.46
452.615	4028.53
452.821	4044.91
453.027	4175.98
453.233	4761.7
453.44	4526.18
453.646	4593.76
453.852	4946.02
454.058	5189.72
454.264	5357.66
454.47	5580.89
454.676	5820.5
454.882	6051.92
455.088	5933.14
455.294	6201.42
455.5	6635.59
455.705	6852.67
455.911	7123.01
456.117	7106.62
456.323	7624.76
456.529	7485.5
456.735	8097.84
456.941	8226.86
457.147	8742.95
457.352	8863.78
457.558	9297.95
457.764	9680.92
457.97	9809.94
458.176	10291.21
458.381	10799.11
458.587	11177.98
458.793	11497.47
458.999	11687.93
459.204	13037.54
459.41	13340.64
459.616	13148.13
459.821	14329.81
460.027	14358.48
460.233	15482.81
460.438	15585.21
460.644	16320.43
460.85	16525.23
461.055	17280.93
461.261	18001.82
461.466	17506.21
461.672	17831.83
461.878	20246.39
462.083	19675.01
462.289	20168.57
462.494	21061.48
462.7	21051.24
462.905	21428.07
463.111	23351.11
463.316	24375.09
463.522	24670
463.727	25554.72
463.932	26748.69
464.138	27479.82
464.343	28499.7
464.549	28776.18
464.754	30619.35
464.959	31256.27
465.165	32376.51
465.37	32036.55
465.575	31798.98
465.781	33885.86
465.986	35006.1
466.191	34625.18
466.397	34647.71
466.602	34418.33
466.807	36040.32
467.012	36312.7
467.218	36968.05
467.423	37334.64
467.628	38661.72
467.833	40171.08
468.038	39761.48
468.244	38837.85
468.449	40721.98
468.654	39986.76
468.859	40232.52
469.064	40119.88
469.269	39104.09
469.474	39444.05
469.679	40531.52
469.885	39577.17
470.09	40103.49
470.295	40113.73
470.5	39190.1
470.705	39925.32
470.91	38557.28
471.115	38303.33
471.32	38921.82
471.525	38420.06
471.73	37125.75
471.935	37045.88
472.139	35739.27
472.344	35935.88
472.549	35526.28
472.754	34795.16
472.959	33930.92
473.164	32898.74
473.369	32423.61
473.574	33775.27
473.778	32749.24
473.983	32300.73
474.188	32024.26
474.393	29933.28
474.598	30004.96
474.802	29218.54
475.007	29005.55
475.212	28811
475.417	27465.48
475.621	27287.31
475.826	27299.59
476.031	26826.51
476.235	25876.26
476.44	25771.81
476.645	25315.11
476.849	25100.08
477.054	24479.54
477.259	24012.6
477.463	23844.67
477.668	22984.52
477.872	23650.11
478.077	22355.8
478.282	22202.2
478.486	21899.1
478.691	21626.72
478.895	21176.17
479.1	21407.59
479.304	21014.38
479.509	20340.6
479.713	20674.42
479.918	20383.6
480.122	19597.18
480.326	19814.27
480.531	19965.82
480.735	19939.19
480.94	19335.04
481.144	20160.38
481.348	18939.79
481.553	19019.66
481.757	18778
481.961	18642.83
482.166	18839.44
482.37	18702.22
482.574	18145.17
482.778	18020.25
482.983	18573.2
483.187	17940.38
483.391	17829.79
483.595	17655.71
483.8	17285.03
484.004	17348.51
484.208	17250.21
484.412	16951.21
484.616	16857
484.821	16742.32
485.025	16240.56
485.229	16289.71
485.433	15740.86
485.637	15978.42
485.841	15728.57
486.045	15407.04
486.249	15306.69
486.453	14931.91
486.657	14796.74
486.861	14743.5
487.065	14067.67
487.269	14284.75
487.473	13596.64
487.677	13932.5
487.881	13860.82
488.085	13367.26
488.289	13254.62
488.493	12953.57
488.697	13074.4
488.901	12664.81
489.105	12500.97
489.309	12185.58
489.512	12070.9
489.716	11659.26
489.92	11397.12
490.124	11325.44
490.328	11257.85
490.531	10731.53
490.735	10651.66
490.939	10620.94
491.143	10221.58
491.346	10416.14
491.55	10270.73
491.754	10043.41
491.958	9646.1
492.161	9500.7
492.365	9179.17
492.569	9179.17
492.772	9000.99
492.976	9152.54
493.18	8988.71
493.383	8998.95
493.587	8816.68
493.79	8736.81
493.994	8407.08
494.197	8478.76
494.401	8314.92
494.605	8200.24
494.808	8314.92
495.012	8312.88
495.215	8280.11
495.419	8118.32
495.622	7860.27
495.825	7921.71
496.029	7739.44
496.232	7929.91
496.436	7794.74
496.639	7893.04
496.843	7585.85
497.046	7970.87
497.249	7897.14
497.453	7893.04
497.656	7733.3
497.859	7755.83
498.063	7864.37
498.266	7899.19
498.469	7624.76
498.673	8038.45
498.876	8040.5
499.079	7936.05
499.282	7974.96
499.485	8380.46
499.689	8005.68
499.892	8120.37
500.095	8048.69
500.298	8521.77
500.501	8331.31
500.705	8300.59
500.908	8515.62
501.111	8402.99
501.314	8792.1
501.517	8761.38
501.72	8587.3
501.923	8751.14
502.126	8900.64
502.329	9127.97
502.532	9099.3
502.735	9056.29
502.938	9564.18
503.141	9500.7
503.344	9484.31
503.547	9562.14
503.75	9719.83
503.953	10035.22
504.156	10125.33
504.359	9977.87
504.562	10131.47
504.765	10416.14
504.968	10485.77
505.17	10784.77
505.373	11022.34
505.576	11106.31
505.779	11288.57
505.982	11362.3
506.185	11661.3
506.387	11894.77
506.59	12046.32
506.793	12314.61
506.996	12382.19
507.198	12855.27
507.401	12953.57
507.604	12943.33
507.807	13596.64
508.009	13815.77
508.212	14053.33
508.415	14262.23
508.617	14344.14
508.82	14690.25
509.022	14968.77
509.225	15294.4
509.428	15648.7
509.63	15738.81
509.833	16164.79
510.035	16861.1
510.238	17051.56
510.44	17424.29
510.643	17799.07
510.845	18128.79
511.048	18460.56
511.25	18868.11
511.453	19183.49
511.655	20236.15
511.858	20105.08
512.06	20670.32
512.262	20602.74
512.465	21282.66
512.667	21743.45
512.87	22361.94
513.072	22513.49
513.274	23605.06
513.477	24051.52
513.679	24305.46
513.881	25089.84
514.084	25511.72
514.286	25915.17
514.488	26662.68
514.69	27455.24
514.893	27848.45
515.095	28161.79
515.297	28974.83
515.499	29619.94
515.701	29767.4
515.904	30174.94
516.106	31143.63
516.308	32274.11
516.51	32138.94
516.712	32847.54
516.914	33402.54
517.116	34690.71
517.318	35266.19
517.52	35595.92
517.722	35739.27
517.925	36884.09
518.127	37504.62
518.329	38235.75
518.531	38268.51
518.733	39003.74
518.935	40011.34
519.136	40568.38
519.338	41207.35
519.54	42178.09
519.742	42139.18
519.944	42792.48
520.146	43505.17
520.348	44348.93
520.55	44555.78
520.752	45145.59
520.954	46394.85
521.155	45802.99
521.357	46779.87
521.559	47390.17
521.761	48229.83
521.963	47967.69
522.164	48770.5
522.366	49116.61
522.568	49681.84
522.77	49679.8
522.971	50058.67
523.173	50263.47
523.375	50570.66
523.576	51099.04
523.778	50941.35
523.98	51445.15
524.181	51590.55
524.383	52243.85
524.584	52368.78
524.786	52442.51
524.988	51529.11
525.189	52372.88
525.391	52405.64
525.592	52737.41
525.794	52405.64
525.995	52114.83
526.197	52299.15
526.398	52241.81
526.6	52753.8
526.801	52297.1
527.003	52166.03
527.204	52088.21
527.406	52163.98
527.607	51430.81
527.808	51565.98
528.01	50423.21
528.211	50783.65
528.412	51170.72
528.614	50470.31
528.815	50087.34
529.016	50267.56
529.218	49229.24
529.419	48899.52
529.62	48733.64
529.822	47773.14
530.023	47697.36
530.224	47082.97
530.425	46673.38
530.626	45954.54
530.828	45405.69
531.029	45835.76
531.23	44348.93
531.431	44549.63
531.632	44049.93
531.833	43689.49
532.035	43288.09
532.236	42751.52
532.437	42071.59
532.638	41494.07
532.839	40621.63
533.04	40969.79
533.241	39458.38
533.442	39910.99
533.643	38895.19
533.844	38520.41
534.045	38004.33
534.246	37138.04
534.447	37103.22
534.648	36531.84
534.849	36238.98
535.05	35034.77
535.251	34807.45
535.451	34182.82
535.652	34162.34
535.853	33601.19
536.054	33308.33
536.255	32808.63
536.456	31805.13
536.657	31813.32
536.857	31555.27
537.058	31012.56
537.259	30639.83
537.46	30093.02
537.66	29832.93
537.861	29542.12
538.062	29062.9
538.263	28976.88
538.463	28350.2
538.664	28083.97
538.865	27422.47
539.065	27350.79
539.266	26611.48
539.466	27031.31
539.667	25906.98
539.868	26287.9
540.068	25673.51
540.269	25167.66
540.469	25300.78
540.67	24690.48
540.87	24524.6
541.071	24180.54
541.271	23981.88
541.472	23529.28
541.672	23199.56
541.873	22808.4
542.073	22550.35
542.274	22712.14
542.474	22353.75
542.675	21892.96
542.875	21872.48
543.075	21374.82
543.276	21153.64
543.476	21155.69
543.676	20823.92
543.877	20535.15
544.077	20490.1
544.277	20156.28
544.478	19814.27
544.678	19761.02
544.878	19380.1
545.078	19394.43
545.279	18706.32
545.479	18700.17
545.679	18546.58
545.879	18249.62
546.079	18259.86
546.28	17899.42
546.48	17629.09
546.68	17696.67
546.88	17342.37
547.08	16992.17
547.28	16865.19
547.48	16854.95
547.68	16506.8
547.88	16428.98
548.081	16005.05
548.281	15896.5
548.481	15708.09
548.681	15519.68
548.881	15329.22
549.081	15228.87
549.28	15022.02
549.48	14985.16
549.68	14653.39
549.88	14440.4
550.08	14106.58
550.28	13852.63
550.48	14004.18
550.68	13608.92
550.88	13357.02
551.08	13139.94
551.279	13068.26
551.479	12816.36
551.679	12765.16
551.879	12339.18
552.079	12486.64
552.278	11978.74
552.478	12064.75
552.678	11689.98
552.878	11825.14
553.077	11651.06
553.277	11302.91
553.477	11024.39
553.676	10799.11
553.876	10752.01
554.076	10588.17
554.275	10317.84
554.475	10168.34
554.674	10209.29
554.874	10131.47
555.074	9748.5
555.273	9670.68
555.473	9445.4
555.672	9183.26
555.872	9132.06
556.071	9101.34
556.271	9007.14
556.47	8779.81
556.67	8523.82
556.869	8519.72
557.068	8323.12
557.268	8126.51
557.467	7938.1
557.667	7974.96
557.866	7837.75
558.065	7671.86
558.265	7465.02
558.464	7471.16
558.663	7487.54
558.863	7178.3
559.062	7227.45
559.261	6895.68
559.461	6901.83
559.66	6692.93
559.859	6592.58
560.058	6590.53
560.258	6336.59
560.457	6228.04
560.656	6377.55
560.855	6074.45
561.054	6133.84
561.253	5998.67
561.453	5840.98
561.652	5793.87
561.851	5812.31
562.05	5658.71
562.249	5247.07
562.448	5541.97
562.647	5232.73
562.846	5220.44
563.045	5222.49
563.244	5019.74
563.443	4958.3
563.642	4845.66
563.841	5116
564.04	4657.25
564.239	4790.37
564.438	4552.81
564.637	4466.79
564.836	4446.31
565.035	4294.76
565.234	4374.63
565.432	4358.25
565.631	4477.03
565.83	4249.71
566.029	4221.03
566.228	3991.66
566.427	4153.45
566.625	3930.22
566.824	3788.91
567.023	3948.65
567.222	3766.39
567.42	3676.27
567.619	3657.84
567.818	3760.24
568.016	3862.64
568.215	3516.53
568.414	3506.29
568.612	3545.2
568.811	3496.05
569.01	3338.36
569.208	3262.58
569.407	3319.93
569.605	3217.53
569.804	3176.57
570.002	3324.02
570.201	3037.31
570.4	3053.69
570.598	3092.6
570.797	2914.43
570.995	2910.33
571.193	2982.01
571.392	2824.32
571.59	2807.94
571.789	2723.97
571.987	2773.12
572.186	2693.25
572.384	2564.23
572.582	2642.05
572.781	2654.34
572.979	2453.64
573.177	2476.16
573.376	2433.16
573.574	2472.07
573.772	2367.62
573.971	2310.28
574.169	2328.71
574.367	2265.22
574.565	2158.73
574.763	2158.73
574.962	2097.29
575.16	2160.78
575.358	2138.25
575.556	2031.76
575.754	1984.65
575.952	1927.31
576.151	1958.03
576.349	1992.84
576.547	1804.43
576.745	1986.7
576.943	1847.44
577.141	1763.47
577.339	1777.81
577.537	1790.1
577.735	1695.89
577.933	1779.86
578.131	1671.31
578.329	1767.57
578.527	1601.68
578.725	1683.6
578.923	1484.95
579.121	1681.55
579.319	1370.26
579.516	1499.28
579.714	1732.75
579.912	1392.79
580.11	1290.39
580.308	1403.03
580.506	1347.73
580.704	1220.76
580.901	1261.72
581.099	1448.08
581.297	1302.68
581.495	1360.02
581.692	1308.82
581.89	1443.99
582.088	1331.35
582.285	1155.23
582.483	1177.75
582.681	1194.14
582.878	1157.27
583.076	1173.66
583.274	1144.99
583.471	1194.14
583.669	1030.3
583.866	1091.74
584.064	1011.87
584.262	995.48
584.459	917.66
584.657	1032.35
584.854	1056.92
585.052	1067.16
585.249	960.67
585.447	942.24
585.644	829.6
585.841	1083.55
586.039	860.32
586.236	1085.59
586.434	932
586.631	815.26
586.828	788.64
587.026	1032.35
587.223	755.87
587.42	798.88
587.618	831.65
587.815	964.76
588.012	798.88
588.21	770.21
588.407	807.07
588.604	823.45
588.801	708.77
588.999	751.78
589.196	854.17
589.393	630.95
589.59	778.4
589.787	819.36
589.984	788.64
590.182	821.41
590.379	628.9
590.576	647.33
590.773	667.81
590.97	723.1
591.167	684.19
591.364	774.3
591.561	762.02
591.758	882.85
591.955	796.83
592.152	729.25
592.349	778.4
592.546	725.15
592.743	719.01
592.94	798.88
593.137	663.71
593.334	784.54
593.531	798.88
593.727	798.88
593.924	813.21
594.121	778.4
594.318	817.31
594.515	753.82
594.712	819.36
594.908	770.21
595.105	553.12
595.302	733.34
595.499	696.48
595.696	759.97
595.892	845.98
596.089	948.38
596.286	731.3
596.482	893.09
596.679	854.17
596.876	825.5
597.072	921.76
597.269	899.23
597.466	872.61
597.662	913.56
597.859	845.98
598.055	917.66
598.252	1101.98
598.448	1175.7
598.645	1128.6
598.841	1149.08
599.038	1280.15
599.234	1222.81
599.431	1192.09
599.627	1321.11
599.824	1380.5
600.02	1382.55
600.217	1368.21
600.413	1505.43
600.609	1577.11
600.806	1892.49
601.002	1730.7
601.198	1738.9
601.395	1861.77
601.591	1886.35
601.787	2007.18
601.984	2031.76
602.18	2072.72
602.376	2156.68
602.572	2336.9
602.769	2367.62
602.965	2420.87
603.161	2467.97
603.357	2642.05
603.553	2726.02
603.75	2584.71
603.946	2855.04
604.142	2936.96
604.338	3151.99
604.534	3074.17
604.73	3135.61
604.926	3178.62
605.122	3530.87
605.318	3326.07
605.514	3698.8
605.71	3729.52
605.906	3836.02
606.102	3905.65
606.298	4100.2
606.494	4354.15
606.69	4452.45
606.886	4571.24
607.082	4524.13
607.278	4735.07
607.474	4851.81
607.67	5038.17
607.866	4874.34
608.062	5275.74
608.257	5458.01
608.453	5582.93
608.649	5716.05
608.845	5867.6
609.041	5851.22
609.236	6125.65
609.432	6430.79
609.628	6543.43
609.824	6846.53
610.019	6889.54
610.215	6844.48
610.411	7172.16
610.606	7520.31
610.802	7686.2
610.998	7936.05
611.193	8030.26
611.389	8103.98
611.584	8472.62
611.78	8626.22
611.976	8728.61
612.171	9218.08
612.367	9453.59
612.562	9617.43
612.758	9627.67
612.953	10037.27
613.149	10379.28
613.344	10512.39
613.539	10752.01
613.735	11253.76
613.93	11524.09
614.126	11751.42
614.321	12107.76
614.517	12482.54
614.712	12648.43
614.907	12996.58
615.103	13393.89
615.298	13524.96
615.493	14041.04
615.688	14333.9
615.884	14862.28
616.079	14843.85
616.274	15660.99
616.47	15822.78
616.665	16578.48
616.86	16687.02
617.055	17106.85
617.25	17522.59
617.445	18313.11
617.641	18118.55
617.836	19070.86
618.031	18917.26
618.226	20074.36
618.421	20408.18
618.616	20715.37
618.811	21028.71
619.006	21960.54
619.201	21854.05
619.396	22318.93
619.591	22701.9
619.786	23607.11
619.981	23869.25
620.176	24563.51
620.371	24923.95
620.566	25644.84
620.761	26375.96
620.956	26887.95
621.151	26824.47
621.346	27748.1
621.541	27938.56
621.735	28995.31
621.93	28983.02
622.125	29894.37
622.32	29591.27
622.515	30848.72
622.709	31112.91
622.904	31876.8
623.099	32380.6
623.294	33121.97
623.488	33130.16
623.683	34248.35
623.878	33760.94
624.072	35210.9
624.267	35839.62
624.462	36394.62
624.656	36392.58
624.851	37459.57
625.046	37803.63
625.24	38239.84
625.435	39073.37
625.629	39401.04
625.824	39675.47
626.018	40535.62
626.213	40033.86
626.407	41438.77
626.602	40869.44
626.796	42020.39
626.991	42559.01
627.185	42444.32
627.38	42933.79
627.574	43138.58
627.768	43521.55
627.963	43027.99
628.157	43669.01
628.352	44064.27
628.546	43296.28
628.74	44340.74
628.935	43855.37
629.129	43996.68
629.323	43322.9
629.517	43404.82
629.712	43595.28
629.906	43032.09
630.1	42493.47
630.294	42442.28
630.489	41717.29
630.683	41682.48
630.877	40261.19
631.071	39849.55
631.265	39437.9
631.459	38520.41
631.653	37787.24
631.848	37095.03
632.042	36015.75
632.236	35536.52
632.43	34584.22
632.624	33730.22
632.818	32806.58
633.012	31430.35
633.206	30863.06
633.4	29847.27
633.594	28550.9
633.788	27907.84
633.982	27006.73
634.176	26111.77
634.369	24663.86
634.563	24072
634.757	22923.08
634.951	22509.4
635.145	21841.76
635.339	20889.45
635.533	19976.06
635.726	19087.24
635.92	18239.38
636.114	17455.01
636.308	16902.06
636.501	16228.28
636.695	15552.45
636.889	14991.3
637.083	14469.07
637.276	13524.96
637.47	13088.74
637.664	12718.06
637.857	12201.97
638.051	11829.24
638.244	11282.43
638.438	10594.31
638.632	10293.26
638.825	9891.86
639.019	9517.08
639.212	9340.96
639.406	8781.86
639.599	8517.67
639.793	8126.51
639.986	7682.1
640.18	7772.21
640.373	7059.52
640.567	6688.84
640.76	6717.51
640.954	6424.65
641.147	6240.33
641.34	5773.39
641.534	5828.69
641.727	5671
641.92	5378.14
642.114	5032.03
642.307	4974.69
642.5	4700.26
642.694	4481.13
642.887	4300.91
643.08	4284.52
643.273	4036.72
643.467	3903.6
643.66	3674.23
643.853	3500.15
644.046	3489.91
644.239	3248.25
644.432	3242.11
644.626	2988.16
644.819	2977.92
645.012	2910.33
645.205	2939.01
645.398	2715.78
645.591	2523.27
645.784	2367.62
645.977	2271.37
646.17	2236.55
646.363	2146.44
646.556	1982.6
646.749	1994.89
646.942	2076.81
647.135	1964.17
647.328	1812.62
647.521	1687.7
647.714	1560.72
647.907	1704.08
648.099	1548.44
648.292	1677.46
648.485	1466.52
648.678	1288.34
648.871	1409.17
649.064	1333.4
649.256	1171.61
649.449	1187.99
649.642	1132.7
649.835	1089.69
650.027	1054.87
650.22	1075.35
650.413	1144.99
650.605	1136.79
650.798	1003.68
650.991	850.08
651.183	862.37
651.376	927.9
651.568	876.7
651.761	729.25
651.954	891.04
652.146	725.15
652.339	704.67
652.531	893.09
652.724	692.38
652.916	577.7
653.109	473.25
653.301	606.37
653.494	587.94
653.686	645.28
653.879	690.34
654.071	606.37
654.263	577.7
654.456	514.21
654.648	606.37
654.84	612.51
655.033	510.11
655.225	581.79
655.417	342.18
655.61	632.99
655.802	508.07
655.994	534.69
656.186	266.41
656.379	508.07
656.571	340.13
656.763	348.33
656.955	387.24
657.148	409.76
657.34	479.4
657.532	354.47
657.724	366.76
657.916	301.22
658.108	479.4
658.3	397.48
658.492	311.46
658.684	295.08
658.876	348.33
659.068	194.73
659.26	221.35
659.452	258.21
659.644	268.45
659.836	424.1
660.028	323.75
660.22	219.3
660.412	346.28
660.604	223.4
660.796	290.98
660.988	340.13
661.18	288.93
661.372	344.23
661.563	299.17
661.755	290.98
661.947	131.24
662.139	139.43
662.331	172.2
662.522	286.89
662.714	102.57
662.906	139.43
663.097	196.78
663.289	151.72
663.481	127.14
663.673	219.3
663.864	118.95
664.056	231.59
664.247	94.38
664.439	315.56
664.631	237.74
664.822	161.96
665.014	209.06
665.205	121
665.397	129.19
665.588	213.16
665.78	147.62
665.971	268.45
666.163	112.81
666.354	254.12
666.546	125.1
666.737	82.09
666.929	80.04
667.12	108.71
667.311	155.82
667.503	180.39
667.694	123.05
667.885	127.14
668.077	258.21
668.268	65.71
668.459	188.58
668.651	168.1
668.842	250.02
669.033	178.34
669.224	92.33
669.416	370.85
669.607	180.39
669.798	53.42
669.989	207.02
670.18	168.1
670.371	250.02
670.563	100.52
670.754	227.5
670.945	118.95
671.136	252.07
671.327	4.27
671.518	241.83
671.709	327.85
671.9	221.35
672.091	233.64
672.282	180.39
672.473	270.5
672.664	82.09
672.855	196.78
673.046	184.49
673.237	245.93
673.428	159.91
673.619	286.89
673.809	166.06
674	262.31
674.191	282.79
674.382	178.34
674.573	135.34
674.764	121
674.954	258.21
675.145	88.23
675.336	118.95
675.527	159.91
675.717	204.97
675.908	250.02
676.099	118.95
676.289	239.78
676.48	245.93
676.671	262.31
676.861	190.63
677.052	196.78
677.243	125.1
677.433	114.86
677.624	278.69
677.814	174.25
678.005	159.91
678.195	329.89
678.386	194.73
678.576	190.63
678.767	118.95
678.957	307.37
679.148	239.78
679.338	358.57
679.529	282.79
679.719	188.58
679.909	264.36
680.1	252.07
680.29	305.32
680.481	190.63
680.671	286.89
680.861	319.65
681.052	293.03
681.242	174.25
681.432	338.09
681.622	258.21
681.813	116.9
682.003	262.31
682.193	174.25
682.383	288.93
682.573	237.74
682.764	192.68
682.954	233.64
683.144	374.95
683.334	159.91
683.524	274.6
683.714	342.18
683.904	188.58
684.094	202.92
684.284	274.6
684.474	452.77
684.664	274.6
684.854	260.26
685.044	366.76
685.234	252.07
685.424	282.79
685.614	323.75
685.804	417.96
685.994	336.04
686.184	153.77
686.374	288.93
686.564	333.99
686.753	227.5
686.943	241.83
687.133	254.12
687.323	252.07
687.513	344.23
687.702	282.79
687.892	202.92
688.082	319.65
688.272	387.24
688.461	331.94
688.651	354.47
688.841	284.84
689.03	333.99
689.22	329.89
689.41	299.17
689.599	282.79
689.789	280.74
689.979	405.67
690.168	243.88
690.358	254.12
690.547	243.88
690.737	295.08
690.926	262.31
691.116	293.03
691.305	288.93
691.495	350.37
691.684	196.78
691.874	190.63
692.063	204.97
692.252	370.85
692.442	327.85
692.631	252.07
692.82	225.45
693.01	227.5
693.199	196.78
693.388	350.37
693.578	182.44
693.767	264.36
693.956	295.08
694.146	254.12
694.335	295.08
694.524	188.58
694.713	280.74
694.902	200.87
695.092	284.84
695.281	293.03
695.47	286.89
695.659	204.97
695.848	270.5
696.037	198.82
696.226	288.93
696.415	217.26
696.604	364.71
696.793	286.89
696.982	225.45
697.171	428.2
697.36	223.4
697.549	233.64
697.738	166.06
697.927	135.34
698.116	182.44
698.305	280.74
698.494	260.26
698.683	260.26
698.872	299.17
699.061	276.65
699.25	186.54
699.438	272.55
699.627	229.54
699.816	422.05
700.005	151.72
700.193	207.02
700.382	272.55
700.571	258.21
700.76	290.98
700.948	227.5
701.137	333.99
701.326	344.23
701.514	227.5
701.703	233.64
701.892	221.35
702.08	448.68
702.269	229.54
702.457	211.11
702.646	250.02
702.834	231.59
703.023	344.23
703.212	229.54
703.4	237.74
703.589	229.54
703.777	245.93
703.965	211.11
704.154	215.21
704.342	204.97
704.531	164.01
704.719	250.02
704.907	252.07
705.096	164.01
705.284	166.06
705.472	174.25
705.661	284.84
705.849	270.5
706.037	368.81
706.226	147.62
706.414	282.79
706.602	254.12
706.79	340.13
706.979	149.67
707.167	213.16
707.355	94.38
707.543	329.89
707.731	282.79
707.919	237.74
708.107	260.26
708.296	178.34
708.484	182.44
708.672	213.16
708.86	200.87
709.048	239.78
709.236	149.67
709.424	256.17
709.612	286.89
709.8	125.1
709.988	235.69
710.176	352.42
710.364	327.85
710.551	221.35
710.739	293.03
710.927	131.24
711.115	202.92
711.303	274.6
711.491	305.32
711.679	131.24
711.866	358.57
712.054	223.4
712.242	270.5
712.43	366.76
712.617	305.32
712.805	282.79
712.993	237.74
713.181	225.45
713.368	270.5
713.556	317.61
713.744	200.87
713.931	391.33
714.119	254.12
714.306	182.44
714.494	282.79
714.682	219.3
714.869	233.64
715.057	237.74
715.244	155.82
715.432	229.54
715.619	247.97
715.807	215.21
715.994	290.98
716.182	266.41
716.369	282.79
716.556	321.7
716.744	135.34
716.931	143.53
717.119	270.5
717.306	309.41
717.493	286.89
717.681	190.63
717.868	176.3
718.055	323.75
718.242	229.54
718.43	245.93
718.617	352.42
718.804	252.07
718.991	325.8
719.179	223.4
719.366	307.37
719.553	327.85
719.74	293.03
719.927	223.4
720.114	258.21
720.301	219.3
720.488	225.45
720.676	325.8
720.863	385.19
721.05	438.44
721.237	317.61
721.424	383.14
721.611	295.08
721.798	96.43
721.985	297.13
722.172	266.41
722.358	209.06
722.545	331.94
722.732	211.11
722.919	374.95
723.106	325.8
723.293	284.84
723.48	317.61
723.667	198.82
723.853	319.65
724.04	385.19
724.227	350.37
724.414	268.45
724.6	309.41
724.787	366.76
724.974	413.86
725.161	288.93
725.347	241.83
725.534	374.95
725.72	428.2
725.907	420
726.094	440.48
726.28	301.22
726.467	317.61
726.653	192.68
726.84	460.96
727.027	417.96
727.213	270.5
727.4	370.85
727.586	284.84
727.773	422.05
727.959	397.48
728.145	379.04
728.332	284.84
728.518	243.88
728.705	356.52
728.891	327.85
729.077	346.28
729.264	227.5
729.45	329.89
729.636	374.95
729.823	401.57
730.009	446.63
730.195	360.61
730.382	463.01
730.568	303.27
730.754	366.76
730.94	374.95
731.126	360.61
731.313	417.96
731.499	303.27
731.685	407.72
731.871	401.57
732.057	366.76
732.243	358.57
732.429	430.24
732.615	452.77
732.801	413.86
732.987	268.45
733.173	387.24
733.359	331.94
733.545	362.66
733.731	362.66
733.917	452.77
734.103	434.34
734.289	415.91
734.475	303.27
734.661	530.59
734.847	362.66
735.033	440.48
735.219	364.71
735.404	379.04
735.59	338.09
735.776	352.42
735.962	467.11
736.148	465.06
736.333	420
736.519	385.19
736.705	321.7
736.89	401.57
737.076	395.43
737.262	366.76
737.447	340.13
737.633	385.19
737.819	501.92
738.004	348.33
738.19	354.47
738.375	428.2
738.561	401.57
738.747	428.2
738.932	362.66
739.118	581.79
739.303	471.2
739.489	426.15
739.674	420
739.859	387.24
740.045	469.16
740.23	342.18
740.416	307.37
740.601	508.07
740.786	381.09
740.972	329.89
741.157	379.04
741.342	370.85
741.528	364.71
741.713	387.24
741.898	403.62
742.084	424.1
742.269	395.43
742.454	379.04
742.639	430.24
742.824	405.67
743.01	463.01
743.195	501.92
743.38	327.85
743.565	293.03
743.75	413.86
743.935	432.29
744.12	458.92
744.305	344.23
744.49	364.71
744.675	391.33
744.86	374.95
745.045	354.47
745.23	338.09
745.415	329.89
745.6	467.11
745.785	315.56
745.97	469.16
746.155	440.48
746.34	491.68
746.525	383.14
746.71	469.16
746.895	262.31
747.079	338.09
747.264	331.94
747.449	391.33
747.634	477.35
747.819	395.43
748.003	342.18
748.188	252.07
748.373	383.14
748.557	407.72
748.742	458.92
748.927	297.13
749.111	305.32
749.296	286.89
749.481	329.89
749.665	377
749.85	282.79
750.034	489.64
750.219	297.13
750.404	364.71
750.588	348.33
750.773	252.07
750.957	274.6
751.141	309.41
751.326	397.48
751.51	270.5
751.695	331.94
751.879	202.92
752.064	422.05
752.248	260.26
752.432	401.57
752.617	409.76
752.801	364.71
752.985	274.6
753.17	424.1
753.354	297.13
753.538	377
753.722	338.09
753.907	344.23
754.091	213.16
754.275	317.61
754.459	219.3
754.643	231.59
754.828	364.71
755.012	252.07
755.196	225.45
755.38	282.79
755.564	258.21
755.748	184.49
755.932	297.13
756.116	266.41
756.3	254.12
756.484	303.27
756.668	327.85
756.852	192.68
757.036	237.74
757.22	254.12
757.404	174.25
757.588	233.64
757.772	233.64
757.956	252.07
758.14	379.04
758.323	145.58
758.507	217.26
758.691	211.11
758.875	295.08
759.059	383.14
759.242	198.82
759.426	237.74
759.61	229.54
759.794	149.67
759.977	297.13
760.161	497.83
760.345	313.51
760.528	186.54
760.712	231.59
760.895	233.64
761.079	219.3
761.263	176.3
761.446	217.26
761.63	213.16
761.813	315.56
761.997	135.34
762.18	161.96
762.364	258.21
762.547	24.75
762.731	192.68
762.914	200.87
763.098	170.15
763.281	104.62
763.464	192.68
763.648	194.73
763.831	131.24
764.015	88.23
764.198	200.87
764.381	215.21
764.564	258.21
764.748	235.69
764.931	245.93
765.114	180.39
765.297	223.4
765.481	61.61
765.664	106.67
765.847	180.39
766.03	223.4
766.213	84.14
766.397	118.95
766.58	153.77
766.763	280.74
766.946	166.06
767.129	166.06
767.312	180.39
767.495	168.1
767.678	-16.21
767.861	108.71
768.044	174.25
768.227	174.25
768.41	168.1
768.593	112.81
768.776	151.72
768.959	49.32
769.142	254.12
769.324	112.81
769.507	123.05
769.69	108.71
769.873	53.42
770.056	305.32
770.239	131.24
770.421	262.31
770.604	174.25
770.787	129.19
770.97	209.06
771.152	39.08
771.335	192.68
771.518	86.19
771.7	168.1
771.883	147.62
772.066	176.3
772.248	139.43
772.431	219.3
772.613	170.15
772.796	67.75
772.978	141.48
773.161	278.69
773.343	71.85
773.526	133.29
773.708	32.94
773.891	49.32
774.073	123.05
774.256	30.89
774.438	245.93
774.621	157.86
774.803	129.19
774.985	24.75
775.168	211.11
775.35	82.09
775.532	125.1
775.715	88.23
775.897	180.39
776.079	41.13
776.261	63.66
776.444	108.71
776.626	59.56
776.808	88.23
776.99	-18.26
777.173	159.91
777.355	118.95
777.537	159.91
777.719	135.34
777.901	151.72
778.083	69.8
778.265	67.75
778.447	172.2
778.629	94.38
778.811	170.15
778.993	127.14
779.175	133.29
779.357	135.34
779.539	0.17
779.721	51.37
779.903	145.58
780.085	118.95
780.267	157.86
780.449	98.47
780.631	127.14
780.812	141.48
780.994	82.09
781.176	63.66
781.358	77.99
781.54	77.99
781.721	102.57
781.903	200.87
782.085	-3.93
782.267	204.97
782.448	20.65
782.63	53.42
782.812	204.97
782.993	145.58
783.175	94.38
783.357	61.61
783.538	118.95
783.72	63.66
783.901	69.8
784.083	82.09
784.264	133.29
784.446	-20.31
784.627	-40.79
784.809	102.57
784.99	116.9
785.172	100.52
785.353	182.44
785.535	94.38
785.716	-22.36
785.897	-48.98
786.079	4.27
786.26	24.75
786.441	96.43
786.623	-53.08
786.804	22.7
786.985	14.51
787.167	135.34
787.348	57.51
787.529	80.04
787.71	137.38
787.891	73.9
788.073	-59.22
788.254	-10.07
788.435	202.92
788.616	10.41
788.797	-75.6
788.978	121
789.159	4.27
789.34	125.1
789.522	71.85
789.703	6.31
789.884	6.31
790.065	112.81
790.246	116.9
790.427	61.61
790.607	149.67
790.788	118.95
790.969	22.7
791.15	106.67
791.331	-20.31
791.512	-12.12
791.693	51.37
791.874	10.41
792.054	215.21
792.235	98.47
792.416	12.46
792.597	77.99
792.778	180.39
792.958	53.42
793.139	10.41
793.32	-8.02
793.5	32.94
793.681	159.91
793.862	57.51
794.042	96.43
794.223	-38.74
794.404	-61.27
794.584	-12.12
794.765	45.23
794.945	28.84
795.126	108.71
795.306	133.29
795.487	45.23
795.667	28.84
795.848	61.61
796.028	14.51
796.209	71.85
796.389	184.49
796.57	2.22
796.75	-14.17
796.93	8.36
797.111	37.03
797.291	67.75
797.471	110.76
797.652	4.27
797.832	12.46
798.012	96.43
798.192	-1.88
798.373	18.6
798.553	-24.4
798.733	57.51
798.913	45.23
799.093	10.41
799.274	20.65
799.454	123.05
799.634	96.43
799.814	186.54
799.994	77.99
800.174	84.14
800.354	92.33
800.534	-40.79
800.714	34.99
800.894	4.27
801.074	4.27
801.254	-10.07
801.434	112.81
801.614	-34.64
801.794	-24.4
801.974	1597.59
802.154	14.51
802.334	131.24
802.514	-59.22
802.693	12.46
802.873	43.18
803.053	157.86
803.233	22.7
803.413	-16.21
803.592	65.71
803.772	16.55
803.952	39.08
804.131	-79.7
804.311	116.9
804.491	143.53
804.67	-57.17
804.85	16.55
805.03	108.71
805.209	49.32
805.389	53.42
805.568	-14.17
805.748	63.66
805.928	55.47
806.107	133.29
806.287	47.27
806.466	45.23
806.646	82.09
806.825	-22.36
807.004	41.13
807.184	94.38
807.363	94.38
807.543	16.55
807.722	-57.17
807.901	155.82
808.081	100.52
808.26	-110.42
808.439	-18.26
808.619	30.89
808.798	14.51
808.977	77.99
809.156	104.62
809.336	-20.31
809.515	86.19
809.694	-8.02
809.873	-16.21
810.052	-10.07
810.231	123.05
810.411	-30.55
810.59	161.96
810.769	-65.36
810.948	143.53
811.127	-112.47
811.306	-36.69
811.485	37.03
811.664	57.51
811.843	-16.21
812.022	57.51
812.201	-75.6
812.38	32.94
812.559	-5.97
812.737	92.33
812.916	-69.46
813.095	-32.6
813.274	43.18
813.453	18.6
813.632	20.65
813.811	32.94
813.989	-26.45
814.168	-3.93
814.347	-112.47
814.526	-61.27
814.704	96.43
814.883	71.85
815.062	-81.75
815.24	121
815.419	16.55
815.598	63.66
815.776	-98.13
815.955	20.65
816.133	-153.43
816.312	59.56
816.49	-83.8
816.669	-24.4
816.847	22.7
817.026	41.13
817.204	14.51
817.383	-71.51
817.561	-1.88
817.74	43.18
817.918	88.23
818.097	28.84
818.275	-48.98
818.453	41.13
818.632	57.51
818.81	20.65
818.988	-28.5
819.167	8.36
819.345	-10.07
819.523	-5.97
819.701	53.42
819.879	121
820.058	-1.88
820.236	-5.97
820.414	26.79
820.592	30.89
820.77	8.36
820.948	-34.64
821.127	-20.31
821.305	80.04
821.483	-42.84
821.661	24.75
821.839	-1.88
822.017	-87.89
822.195	-10.07
822.373	37.03
822.551	14.51
822.729	82.09
822.907	14.51
823.085	71.85
823.262	41.13
823.44	-10.07
823.618	-102.23
823.796	53.42
823.974	39.08
824.152	-87.89
824.329	-8.02
824.507	37.03
824.685	108.71
824.863	20.65
825.04	8.36
825.218	71.85
825.396	57.51
825.574	16.55
825.751	20.65
825.929	100.52
826.107	34.99
826.284	-8.02
826.462	73.9
826.639	-59.22
826.817	-106.32
826.994	-8.02
827.172	-42.84
827.349	110.76
827.527	8.36
827.704	-46.93
827.882	118.95
828.059	-1.88
828.237	-12.12
828.414	-40.79
828.591	-85.84
828.769	55.47
828.946	-48.98
829.124	75.95
829.301	90.28
829.478	12.46
829.655	53.42
829.833	30.89
830.01	-63.32
830.187	65.71
830.364	73.9
830.542	18.6
830.719	131.24
830.896	2.22
831.073	69.8
831.25	30.89
831.427	77.99
831.604	-1.88
831.782	-20.31
831.959	112.81
832.136	-26.45
832.313	61.61
832.49	-5.97
832.667	-20.31
832.844	-96.08
833.021	75.95
833.198	49.32
833.374	69.8
833.551	14.51
833.728	10.41
833.905	69.8
834.082	-98.13
834.259	-28.5
834.436	-1.88
834.612	34.99
834.789	75.95
834.966	32.94
835.143	-14.17
835.319	-75.6
835.496	-53.08
835.673	34.99
835.85	84.14
836.026	75.95
836.203	32.94
836.38	-8.02
836.556	-14.17
836.733	-51.03
836.909	188.58
837.086	10.41
837.262	-46.93
837.439	22.7
837.616	-77.65
837.792	71.85
837.968	12.46
838.145	-98.13
838.321	-55.12
838.498	51.37
838.674	112.81
838.851	69.8
839.027	-26.45
839.203	26.79
839.38	32.94
839.556	-51.03
839.732	82.09
839.909	65.71
840.085	8.36
840.261	-8.02
840.437	65.71
840.614	-57.17
840.79	0.17
840.966	108.71
841.142	41.13
841.318	-14.17
841.494	32.94
841.671	94.38
841.847	-104.28
842.023	-98.13
842.199	67.75
842.375	106.67
842.551	-83.8
842.727	-149.33
842.903	151.72
843.079	-12.12
843.255	80.04
843.431	-16.21
843.607	53.42
843.783	-145.24
843.959	26.79
844.134	-81.75
844.31	63.66
844.486	-48.98
844.662	-157.52
844.838	53.42
845.013	-10.07
845.189	73.9
845.365	49.32
845.541	47.27
845.716	37.03
845.892	114.86
846.068	4.27
846.244	-32.6
846.419	28.84
846.595	-89.94
846.77	-85.84
846.946	86.19
847.122	-40.79
847.297	-12.12
847.473	112.81
847.648	-126.8
847.824	41.13
847.999	-53.08
848.175	-38.74
848.35	-44.88
848.526	94.38
848.701	24.75
848.876	123.05
849.052	49.32
849.227	8.36
849.403	24.75
849.578	-24.4
849.753	8.36
849.929	2.22
850.104	-22.36
850.279	-12.12
850.454	53.42
850.63	26.79
850.805	55.47
850.98	39.08
851.155	-38.74
851.33	-12.12
851.505	-16.21
851.681	112.81
851.856	-102.23
852.031	51.37
852.206	-59.22
852.381	20.65
852.556	-36.69
852.731	-46.93
852.906	28.84
853.081	-28.5
853.256	106.67
853.431	71.85
853.606	-108.37
853.781	-83.8
853.956	-57.17
854.131	59.56
854.305	-61.27
854.48	-5.97
854.655	20.65
854.83	41.13
855.005	-75.6
855.18	6.31
855.354	-22.36
855.529	49.32
855.704	45.23
855.879	26.79
856.053	18.6
856.228	37.03
856.403	-67.41
856.577	51.37
856.752	-83.8
856.926	55.47
857.101	-55.12
857.276	-65.36
857.45	34.99
857.625	-12.12
857.799	53.42
857.974	-51.03
858.148	-132.95
858.323	14.51
858.497	8.36
858.672	-32.6
858.846	-67.41
859.02	90.28
859.195	-71.51
859.369	0.17
859.543	104.62
859.718	-38.74
859.892	-5.97
860.066	-36.69
860.241	-16.21
860.415	-28.5
860.589	39.08
860.763	-20.31
860.938	-65.36
861.112	-12.12
861.286	16.55
861.46	14.51
861.634	-65.36
861.808	67.75
861.982	-73.56
862.157	-167.76
862.331	-89.94
862.505	-65.36
862.679	-147.28
862.853	2.22
863.027	-22.36
863.201	114.86
863.375	-30.55
863.549	-1.88
863.722	67.75
863.896	96.43
864.07	-42.84
864.244	47.27
864.418	39.08
864.592	-26.45
864.766	12.46
864.939	41.13
865.113	-12.12
865.287	159.91
865.461	-51.03
865.634	-77.65
865.808	-83.8
865.982	-48.98
866.156	-77.65
866.329	-44.88
866.503	51.37
866.676	32.94
866.85	59.56
867.024	-98.13
867.197	12.46
867.371	20.65
867.544	28.84
867.718	-48.98
867.891	104.62
868.065	-44.88
868.238	2.22
868.412	24.75
868.585	22.7
868.759	-16.21
868.932	-38.74
869.105	-132.95
869.279	65.71
869.452	-81.75
869.625	22.7
869.799	-5.97
869.972	-46.93
870.145	-36.69
870.319	41.13
870.492	-85.84
870.665	-53.08
870.838	-10.07
871.011	-135
871.185	-1.88
871.358	-1.88
871.531	-32.6
871.704	28.84
871.877	24.75
872.05	-77.65
872.223	-57.17
872.396	49.32
872.569	-14.17
872.742	-75.6
872.915	47.27
873.088	18.6
873.261	-65.36
873.434	34.99
873.607	-20.31
873.78	121
873.953	-110.42
874.126	49.32
874.299	-24.4
874.471	43.18
874.644	-75.6
874.817	86.19
874.99	200.87
875.163	-87.89
875.335	84.14
875.508	-59.22
875.681	8.36
875.853	-51.03
876.026	-22.36
876.199	51.37
876.371	-12.12
876.544	-51.03
876.717	0.17
876.889	-48.98
877.062	30.89
877.234	30.89
877.407	-65.36
877.579	32.94
877.752	16.55
877.924	26.79
878.097	-5.97
878.269	47.27
878.442	43.18
878.614	100.52
878.786	65.71
878.959	-12.12
879.131	-89.94
879.303	-24.4
879.476	39.08
879.648	53.42
879.82	-3.93
879.993	-106.32
880.165	14.51
880.337	-16.21
880.509	-14.17
880.681	-159.57
880.854	26.79
881.026	49.32
881.198	159.91
881.37	26.79
881.542	14.51
881.714	10.41
881.886	-73.56
882.058	22.7
882.23	-46.93
882.402	32.94
882.574	49.32
882.746	49.32
882.918	47.27
883.09	18.6
883.262	-22.36
883.434	37.03
883.606	-79.7
883.778	-24.4
883.95	49.32
884.122	-24.4
884.293	0.17
884.465	-28.5
884.637	110.76
884.809	-114.52
884.98	43.18
885.152	-8.02
885.324	39.08
885.496	-44.88
885.667	-59.22
885.839	-69.46
886.011	141.48
886.182	20.65
886.354	-18.26
886.525	30.89
886.697	26.79
886.869	-3.93
887.04	-40.79
887.212	67.75
887.383	104.62
887.555	55.47
887.726	-28.5
887.897	2.22
888.069	22.7
888.24	59.56
888.412	12.46
888.583	14.51
888.754	-71.51
888.926	-130.9
889.097	-73.56
889.268	-91.99
889.44	63.66
889.611	-61.27
889.782	-61.27
889.953	-57.17
890.125	147.62
890.296	-42.84
890.467	-83.8
890.638	10.41
890.809	-12.12
890.98	0.17
891.151	-46.93
891.323	153.77
891.494	18.6
891.665	22.7
891.836	-18.26
892.007	-8.02
892.178	-16.21
892.349	8.36
892.52	22.7
892.691	26.79
892.862	-24.4
893.032	-106.32
893.203	-65.36
893.374	4.27
893.545	88.23
893.716	-16.21
893.887	20.65
894.057	-77.65
894.228	-46.93
894.399	-28.5
894.57	71.85
894.74	-1.88
894.911	39.08
895.082	-89.94
895.253	6.31
895.423	37.03
895.594	92.33
895.764	59.56
895.935	-89.94
896.106	39.08
896.276	-14.17
896.447	2.22
896.617	-38.74
896.788	8.36
896.958	75.95
897.129	8.36
897.299	10.41
897.47	80.04
897.64	49.32
897.81	0.17
897.981	96.43
898.151	-98.13
898.322	-10.07
898.492	41.13
898.662	-81.75
898.832	-46.93
899.003	-65.36
899.173	32.94
899.343	-30.55
899.513	-91.99
