Data from USB4F104151__37__10-24-45-238.txt Node

Date: Wed Feb 26 10:24:45 EST 2025
User: louis
Spectrometer: USB4F10415
Trigger mode: 4
Integration Time (sec): 1.000000E-1
Scans to average: 1
Electric dark correction enabled: true
Nonlinearity correction enabled: false
Boxcar width: 0
XAxis mode: Wavelengths
Number of Pixels in Spectrum: 3648
>>>>>Begin Spectral Data<<<<<
178.204	-428.88
178.424	-428.88
178.644	-428.88
178.864	-336.72
179.084	-496.46
179.304	-4.95
179.524	27.82
179.744	3.24
179.964	66.73
180.184	-11.09
180.404	25.77
180.624	5.29
180.844	-50
181.064	-80.72
181.283	42.15
181.503	-4.95
181.723	-19.29
181.943	-146.26
182.163	160.94
182.383	-25.43
182.602	74.92
182.822	150.7
183.042	85.16
183.262	-47.96
183.482	5.29
183.701	27.82
183.921	79.02
184.141	-37.72
184.361	54.44
184.58	72.87
184.8	-2.9
185.02	-15.19
185.239	74.92
185.459	40.11
185.679	119.98
185.898	-97.11
186.118	85.16
186.338	46.25
186.557	93.35
186.777	-9.05
186.997	3.24
187.216	3.24
187.436	181.42
187.655	85.16
187.875	93.35
188.095	-23.38
188.314	48.3
188.534	117.93
188.753	-35.67
188.973	179.37
189.192	177.32
189.412	31.91
189.631	-4.95
189.851	31.91
190.07	136.36
190.29	-84.82
190.509	-117.59
190.729	19.63
190.948	93.35
191.168	230.57
191.387	38.06
191.607	58.54
191.826	56.49
192.045	85.16
192.265	64.68
192.484	46.25
192.704	46.25
192.923	-11.09
193.142	140.46
193.362	126.12
193.581	122.02
193.8	70.83
194.02	128.17
194.239	-7
194.458	44.2
194.678	-23.38
194.897	-68.44
195.116	-52.05
195.335	21.67
195.555	13.48
195.774	-54.1
195.993	144.55
196.212	23.72
196.432	5.29
196.651	-37.72
196.87	56.49
197.089	158.89
197.308	60.59
197.528	27.82
197.747	-47.96
197.966	115.88
198.185	58.54
198.404	-23.38
198.623	56.49
198.842	56.49
199.062	48.3
199.281	99.5
199.5	3.24
199.719	36.01
199.938	-35.67
200.157	91.31
200.376	97.45
200.595	103.59
200.814	23.72
201.033	9.39
201.252	101.55
201.471	46.25
201.69	97.45
201.909	7.34
202.128	83.11
202.347	162.98
202.566	-2.9
202.785	-54.1
203.004	-37.72
203.223	193.7
203.442	19.63
203.661	-0.85
203.879	66.73
204.098	111.78
204.317	-60.24
204.536	85.16
204.755	95.4
204.974	109.74
205.193	-9.05
205.411	105.64
205.63	64.68
205.849	62.63
206.068	33.96
206.287	-7
206.505	70.83
206.724	15.53
206.943	19.63
207.162	-0.85
207.381	33.96
207.599	54.44
207.818	87.21
208.037	-76.63
208.255	21.67
208.474	64.68
208.693	56.49
208.911	40.11
209.13	74.92
209.349	29.87
209.567	85.16
209.786	58.54
210.005	72.87
210.223	58.54
210.442	-68.44
210.661	11.43
210.879	58.54
211.098	44.2
211.316	-35.67
211.535	81.07
211.753	29.87
211.972	27.82
212.191	9.39
212.409	33.96
212.628	58.54
212.846	-37.72
213.065	13.48
213.283	183.46
213.502	56.49
213.72	46.25
213.938	58.54
214.157	48.3
214.375	122.02
214.594	1.19
214.812	58.54
215.031	29.87
215.249	58.54
215.467	36.01
215.686	-27.48
215.904	91.31
216.122	42.15
216.341	142.5
216.559	23.72
216.778	54.44
216.996	134.31
217.214	-23.38
217.432	-39.76
217.651	-7
217.869	136.36
218.087	9.39
218.306	-19.29
218.524	60.59
218.742	7.34
218.96	101.55
219.179	-31.57
219.397	23.72
219.615	210.09
219.833	50.35
220.051	-21.33
220.27	109.74
220.488	126.12
220.706	21.67
220.924	-41.81
221.142	-74.58
221.36	58.54
221.578	58.54
221.796	29.87
222.015	-23.38
222.233	-19.29
222.451	89.26
222.669	-80.72
222.887	87.21
223.105	-62.29
223.323	-21.33
223.541	-64.34
223.759	74.92
223.977	79.02
224.195	148.65
224.413	132.26
224.631	38.06
224.849	36.01
225.067	144.55
225.285	1.19
225.503	-17.24
225.721	-109.4
225.939	46.25
226.157	9.39
226.375	267.43
226.592	-19.29
226.81	46.25
227.028	74.92
227.246	68.78
227.464	79.02
227.682	128.17
227.9	25.77
228.117	15.53
228.335	66.73
228.553	124.07
228.771	13.48
228.989	48.3
229.206	31.91
229.424	-37.72
229.642	-29.52
229.86	-68.44
230.077	138.41
230.295	70.83
230.513	99.5
230.731	31.91
230.948	187.56
231.166	160.94
231.384	13.48
231.601	-29.52
231.819	150.7
232.037	-0.85
232.254	-27.48
232.472	-17.24
232.689	25.77
232.907	124.07
233.125	-17.24
233.342	-105.3
233.56	-39.76
233.777	-33.62
233.995	-11.09
234.213	99.5
234.43	38.06
234.648	36.01
234.865	-11.09
235.083	79.02
235.3	38.06
235.518	119.98
235.735	183.46
235.953	126.12
236.17	-13.14
236.388	-0.85
236.605	38.06
236.822	74.92
237.04	107.69
237.257	17.58
237.475	-97.11
237.692	21.67
237.909	85.16
238.127	-43.86
238.344	91.31
238.562	44.2
238.779	-13.14
238.996	-17.24
239.214	23.72
239.431	64.68
239.648	33.96
239.865	40.11
240.083	17.58
240.3	-43.86
240.517	21.67
240.735	44.2
240.952	124.07
241.169	36.01
241.386	7.34
241.603	-21.33
241.821	-78.68
242.038	122.02
242.255	124.07
242.472	-45.91
242.689	31.91
242.907	85.16
243.124	58.54
243.341	-4.95
243.558	-23.38
243.775	-80.72
243.992	9.39
244.209	56.49
244.426	134.31
244.643	56.49
244.86	-31.57
245.078	154.79
245.295	17.58
245.512	72.87
245.729	-4.95
245.946	42.15
246.163	48.3
246.38	-4.95
246.597	122.02
246.814	-9.05
247.031	25.77
247.248	33.96
247.464	42.15
247.681	15.53
247.898	38.06
248.115	-7
248.332	-56.15
248.549	89.26
248.766	171.18
248.983	46.25
249.2	72.87
249.417	85.16
249.633	-13.14
249.85	-2.9
250.067	38.06
250.284	85.16
250.501	66.73
250.717	105.64
250.934	-13.14
251.151	5.29
251.368	64.68
251.585	91.31
251.801	93.35
252.018	-56.15
252.235	23.72
252.451	-123.73
252.668	-0.85
252.885	162.98
253.102	31.91
253.318	-11.09
253.535	-2.9
253.752	1.19
253.968	-25.43
254.185	-45.91
254.401	29.87
254.618	113.83
254.835	-11.09
255.051	148.65
255.268	11.43
255.484	66.73
255.701	9.39
255.917	44.2
256.134	-15.19
256.351	17.58
256.567	-95.06
256.784	13.48
257	-74.58
257.217	72.87
257.433	50.35
257.65	122.02
257.866	64.68
258.082	-93.01
258.299	-88.92
258.515	-23.38
258.732	124.07
258.948	-9.05
259.165	58.54
259.381	-86.87
259.597	23.72
259.814	21.67
260.03	11.43
260.246	-64.34
260.463	89.26
260.679	160.94
260.895	-11.09
261.112	5.29
261.328	48.3
261.544	-39.76
261.761	134.31
261.977	-35.67
262.193	-11.09
262.409	36.01
262.626	91.31
262.842	13.48
263.058	-33.62
263.274	107.69
263.49	38.06
263.707	95.4
263.923	76.97
264.139	-7
264.355	15.53
264.571	175.27
264.787	13.48
265.004	70.83
265.22	-45.91
265.436	-52.05
265.652	-21.33
265.868	38.06
266.084	-68.44
266.3	38.06
266.516	-23.38
266.732	62.63
266.948	-41.81
267.164	-2.9
267.38	27.82
267.596	42.15
267.812	212.14
268.028	58.54
268.244	-19.29
268.46	81.07
268.676	17.58
268.892	60.59
269.108	-23.38
269.324	9.39
269.54	5.29
269.756	126.12
269.972	-56.15
270.188	81.07
270.403	-117.59
270.619	5.29
270.835	101.55
271.051	-17.24
271.267	-0.85
271.483	19.63
271.698	119.98
271.914	79.02
272.13	40.11
272.346	3.24
272.562	29.87
272.777	165.03
272.993	-70.48
273.209	-17.24
273.425	23.72
273.64	-62.29
273.856	95.4
274.072	-13.14
274.287	-115.54
274.503	87.21
274.719	74.92
274.934	-35.67
275.15	-115.54
275.366	70.83
275.581	-9.05
275.797	-76.63
276.012	7.34
276.228	-62.29
276.444	17.58
276.659	91.31
276.875	1.19
277.09	19.63
277.306	-37.72
277.521	64.68
277.737	29.87
277.952	85.16
278.168	38.06
278.383	46.25
278.599	19.63
278.814	40.11
279.03	-2.9
279.245	113.83
279.461	-41.81
279.676	72.87
279.892	-68.44
280.107	11.43
280.322	27.82
280.538	70.83
280.753	-13.14
280.969	76.97
281.184	-35.67
281.399	158.89
281.615	70.83
281.83	7.34
282.045	-19.29
282.26	1.19
282.476	38.06
282.691	66.73
282.906	33.96
283.122	52.39
283.337	-47.96
283.552	25.77
283.767	-0.85
283.983	103.59
284.198	54.44
284.413	-4.95
284.628	-0.85
284.843	-13.14
285.058	119.98
285.274	-52.05
285.489	-76.63
285.704	85.16
285.919	-15.19
286.134	21.67
286.349	-21.33
286.564	-70.48
286.779	208.04
286.995	31.91
287.21	-45.91
287.425	60.59
287.64	7.34
287.855	31.91
288.07	-93.01
288.285	97.45
288.5	113.83
288.715	42.15
288.93	36.01
289.145	1.19
289.36	140.46
289.575	3.24
289.79	83.11
290.004	31.91
290.219	89.26
290.434	-29.52
290.649	-19.29
290.864	-33.62
291.079	-0.85
291.294	33.96
291.509	27.82
291.724	68.78
291.938	42.15
292.153	58.54
292.368	13.48
292.583	25.77
292.798	134.31
293.012	19.63
293.227	115.88
293.442	-29.52
293.657	158.89
293.871	126.12
294.086	-2.9
294.301	128.17
294.516	142.5
294.73	15.53
294.945	-62.29
295.16	31.91
295.374	142.5
295.589	13.48
295.804	-60.24
296.018	-4.95
296.233	62.63
296.447	122.02
296.662	17.58
296.877	144.55
297.091	119.98
297.306	-74.58
297.52	50.35
297.735	-7
297.949	40.11
298.164	17.58
298.378	42.15
298.593	-21.33
298.807	-21.33
299.022	11.43
299.236	152.74
299.451	-25.43
299.665	-21.33
299.88	48.3
300.094	29.87
300.309	-33.62
300.523	70.83
300.737	-4.95
300.952	72.87
301.166	105.64
301.381	-17.24
301.595	3.24
301.809	-7
302.024	42.15
302.238	-41.81
302.452	83.11
302.667	42.15
302.881	70.83
303.095	27.82
303.309	76.97
303.524	15.53
303.738	70.83
303.952	-29.52
304.166	29.87
304.381	-133.97
304.595	173.22
304.809	62.63
305.023	7.34
305.237	13.48
305.452	48.3
305.666	33.96
305.88	11.43
306.094	124.07
306.308	46.25
306.522	-2.9
306.736	74.92
306.95	160.94
307.164	17.58
307.379	21.67
307.593	103.59
307.807	122.02
308.021	76.97
308.235	60.59
308.449	-45.91
308.663	-52.05
308.877	275.62
309.091	83.11
309.305	122.02
309.519	-136.02
309.733	93.35
309.947	-7
310.161	144.55
310.374	89.26
310.588	93.35
310.802	-56.15
311.016	17.58
311.23	29.87
311.444	-41.81
311.658	40.11
311.872	79.02
312.085	152.74
312.299	68.78
312.513	220.33
312.727	11.43
312.941	-47.96
313.154	76.97
313.368	76.97
313.582	-11.09
313.796	60.59
314.009	-7
314.223	140.46
314.437	31.91
314.651	132.26
314.864	74.92
315.078	-39.76
315.292	-111.44
315.505	-23.38
315.719	48.3
315.933	115.88
316.146	-21.33
316.36	-56.15
316.573	138.41
316.787	9.39
317.001	81.07
317.214	25.77
317.428	46.25
317.641	-58.2
317.855	-78.68
318.068	17.58
318.282	-11.09
318.495	46.25
318.709	42.15
318.922	66.73
319.136	152.74
319.349	62.63
319.563	-29.52
319.776	9.39
319.99	-127.83
320.203	107.69
320.417	31.91
320.63	101.55
320.843	191.66
321.057	36.01
321.27	11.43
321.483	76.97
321.697	183.46
321.91	91.31
322.124	9.39
322.337	44.2
322.55	-31.57
322.763	13.48
322.977	38.06
323.19	-62.29
323.403	9.39
323.617	40.11
323.83	162.98
324.043	54.44
324.256	64.68
324.469	11.43
324.683	101.55
324.896	103.59
325.109	36.01
325.322	-19.29
325.535	95.4
325.748	56.49
325.962	13.48
326.175	119.98
326.388	56.49
326.601	136.36
326.814	-43.86
327.027	21.67
327.24	99.5
327.453	-23.38
327.666	105.64
327.879	85.16
328.092	105.64
328.305	140.46
328.518	-21.33
328.731	-39.76
328.944	9.39
329.157	95.4
329.37	-0.85
329.583	117.93
329.796	50.35
330.009	-7
330.222	72.87
330.435	117.93
330.648	25.77
330.861	11.43
331.073	103.59
331.286	150.7
331.499	89.26
331.712	-68.44
331.925	-27.48
332.138	-50
332.35	173.22
332.563	-9.05
332.776	64.68
332.989	3.24
333.202	70.83
333.414	11.43
333.627	21.67
333.84	-70.48
334.053	17.58
334.265	81.07
334.478	42.15
334.691	95.4
334.903	93.35
335.116	-35.67
335.329	42.15
335.541	89.26
335.754	169.13
335.966	40.11
336.179	-39.76
336.392	-45.91
336.604	29.87
336.817	5.29
337.029	13.48
337.242	-25.43
337.454	40.11
337.667	66.73
337.88	238.76
338.092	74.92
338.305	58.54
338.517	-41.81
338.729	36.01
338.942	97.45
339.154	-82.77
339.367	-82.77
339.579	87.21
339.792	-37.72
340.004	64.68
340.217	13.48
340.429	83.11
340.641	-0.85
340.854	-15.19
341.066	13.48
341.278	124.07
341.491	144.55
341.703	42.15
341.915	33.96
342.128	-27.48
342.34	50.35
342.552	-25.43
342.764	33.96
342.977	79.02
343.189	97.45
343.401	44.2
343.613	-50
343.826	54.44
344.038	11.43
344.25	-25.43
344.462	-35.67
344.674	81.07
344.886	-31.57
345.099	13.48
345.311	44.2
345.523	-29.52
345.735	-76.63
345.947	60.59
346.159	54.44
346.371	27.82
346.583	38.06
346.795	179.37
347.007	-31.57
347.219	99.5
347.431	13.48
347.643	142.5
347.855	1.19
348.067	81.07
348.279	-2.9
348.491	17.58
348.703	13.48
348.915	44.2
349.127	19.63
349.339	-29.52
349.551	48.3
349.763	72.87
349.975	5.29
350.187	79.02
350.399	124.07
350.61	38.06
350.822	-31.57
351.034	128.17
351.246	91.31
351.458	97.45
351.669	140.46
351.881	46.25
352.093	74.92
352.305	117.93
352.517	1.19
352.728	162.98
352.94	50.35
353.152	46.25
353.363	-35.67
353.575	21.67
353.787	191.66
353.999	115.88
354.21	240.81
354.422	-33.62
354.633	-7
354.845	15.53
355.057	25.77
355.268	74.92
355.48	128.17
355.692	-66.39
355.903	93.35
356.115	-19.29
356.326	-86.87
356.538	134.31
356.749	91.31
356.961	79.02
357.172	38.06
357.384	-62.29
357.595	218.28
357.807	36.01
358.018	-60.24
358.23	-68.44
358.441	165.03
358.653	117.93
358.864	42.15
359.075	-50
359.287	19.63
359.498	169.13
359.709	93.35
359.921	-17.24
360.132	50.35
360.344	27.82
360.555	7.34
360.766	11.43
360.977	27.82
361.189	103.59
361.4	-27.48
361.611	60.59
361.823	115.88
362.034	85.16
362.245	-76.63
362.456	101.55
362.667	111.78
362.879	-0.85
363.09	44.2
363.301	64.68
363.512	-31.57
363.723	-39.76
363.935	9.39
364.146	101.55
364.357	58.54
364.568	-50
364.779	-33.62
364.99	74.92
365.201	-2.9
365.412	105.64
365.623	-109.4
365.834	62.63
366.045	66.73
366.256	31.91
366.467	42.15
366.678	50.35
366.889	5.29
367.1	-90.96
367.311	128.17
367.522	-2.9
367.733	70.83
367.944	52.39
368.155	-4.95
368.366	132.26
368.577	68.78
368.788	58.54
368.999	-60.24
369.209	52.39
369.42	205.99
369.631	146.6
369.842	42.15
370.053	-58.2
370.264	107.69
370.474	-39.76
370.685	126.12
370.896	-4.95
371.107	122.02
371.317	85.16
371.528	-35.67
371.739	132.26
371.95	19.63
372.16	36.01
372.371	-35.67
372.582	11.43
372.792	38.06
373.003	95.4
373.214	29.87
373.424	60.59
373.635	-70.48
373.846	97.45
374.056	58.54
374.267	44.2
374.477	21.67
374.688	-25.43
374.898	40.11
375.109	46.25
375.319	5.29
375.53	64.68
375.74	23.72
375.951	-21.33
376.161	9.39
376.372	122.02
376.582	13.48
376.793	87.21
377.003	-2.9
377.214	-60.24
377.424	38.06
377.635	44.2
377.845	-52.05
378.055	134.31
378.266	-84.82
378.476	38.06
378.686	1.19
378.897	-4.95
379.107	93.35
379.317	70.83
379.528	50.35
379.738	46.25
379.948	-56.15
380.158	134.31
380.369	79.02
380.579	81.07
380.789	56.49
380.999	23.72
381.21	124.07
381.42	158.89
381.63	72.87
381.84	95.4
382.05	33.96
382.261	128.17
382.471	95.4
382.681	-62.29
382.891	167.08
383.101	3.24
383.311	-50
383.521	-58.2
383.731	107.69
383.941	46.25
384.151	23.72
384.361	79.02
384.571	50.35
384.781	103.59
384.991	167.08
385.201	165.03
385.411	210.09
385.621	70.83
385.831	56.49
386.041	-15.19
386.251	-13.14
386.461	19.63
386.671	52.39
386.881	113.83
387.091	107.69
387.301	177.32
387.511	-13.14
387.72	31.91
387.93	117.93
388.14	-76.63
388.35	97.45
388.56	156.84
388.769	140.46
388.979	38.06
389.189	52.39
389.399	89.26
389.609	40.11
389.818	15.53
390.028	56.49
390.238	64.68
390.447	19.63
390.657	42.15
390.867	-17.24
391.076	-107.35
391.286	79.02
391.496	-13.14
391.705	97.45
391.915	128.17
392.125	113.83
392.334	13.48
392.544	29.87
392.753	66.73
392.963	1.19
393.172	56.49
393.382	-41.81
393.591	130.22
393.801	-31.57
394.01	68.78
394.22	113.83
394.429	113.83
394.639	76.97
394.848	-11.09
395.058	44.2
395.267	72.87
395.477	56.49
395.686	33.96
395.895	177.32
396.105	253.09
396.314	87.21
396.524	-41.81
396.733	44.2
396.942	95.4
397.152	40.11
397.361	60.59
397.57	-29.52
397.78	50.35
397.989	72.87
398.198	185.51
398.407	48.3
398.617	3.24
398.826	1.19
399.035	7.34
399.244	165.03
399.453	17.58
399.663	64.68
399.872	58.54
400.081	-27.48
400.29	72.87
400.499	-17.24
400.708	124.07
400.917	-33.62
401.127	-11.09
401.336	-9.05
401.545	79.02
401.754	115.88
401.963	46.25
402.172	42.15
402.381	-11.09
402.59	13.48
402.799	48.3
403.008	132.26
403.217	27.82
403.426	111.78
403.635	-47.96
403.844	48.3
404.053	60.59
404.262	-13.14
404.471	210.09
404.68	1.19
404.888	-9.05
405.097	-13.14
405.306	-7
405.515	109.74
405.724	64.68
405.933	58.54
406.142	21.67
406.35	46.25
406.559	11.43
406.768	70.83
406.977	93.35
407.185	17.58
407.394	122.02
407.603	-43.86
407.812	7.34
408.02	91.31
408.229	-0.85
408.438	103.59
408.646	-136.02
408.855	62.63
409.064	48.3
409.272	-52.05
409.481	85.16
409.69	25.77
409.898	-56.15
410.107	62.63
410.315	126.12
410.524	17.58
410.733	79.02
410.941	21.67
411.15	21.67
411.358	117.93
411.567	146.6
411.775	5.29
411.984	38.06
412.192	15.53
412.401	-11.09
412.609	146.6
412.818	150.7
413.026	60.59
413.234	58.54
413.443	-19.29
413.651	9.39
413.86	81.07
414.068	91.31
414.276	165.03
414.485	-35.67
414.693	150.7
414.901	130.22
415.11	15.53
415.318	115.88
415.526	54.44
415.734	140.46
415.943	83.11
416.151	128.17
416.359	-15.19
416.567	115.88
416.776	54.44
416.984	21.67
417.192	181.42
417.4	-70.48
417.608	-39.76
417.817	-64.34
418.025	56.49
418.233	152.74
418.441	-19.29
418.649	-2.9
418.857	50.35
419.065	138.41
419.273	13.48
419.481	89.26
419.689	38.06
419.897	52.39
420.105	-31.57
420.313	140.46
420.521	136.36
420.729	175.27
420.937	9.39
421.145	15.53
421.353	150.7
421.561	181.42
421.769	9.39
421.977	-41.81
422.185	119.98
422.393	17.58
422.601	83.11
422.809	40.11
423.017	60.59
423.224	103.59
423.432	105.64
423.64	13.48
423.848	7.34
424.056	-31.57
424.263	46.25
424.471	1.19
424.679	105.64
424.887	-29.52
425.094	122.02
425.302	46.25
425.51	5.29
425.718	138.41
425.925	72.87
426.133	99.5
426.341	156.84
426.548	48.3
426.756	13.48
426.964	154.79
427.171	9.39
427.379	130.22
427.586	-7
427.794	62.63
428.001	156.84
428.209	36.01
428.417	183.46
428.624	156.84
428.832	99.5
429.039	175.27
429.247	111.78
429.454	97.45
429.662	226.47
429.869	117.93
430.076	97.45
430.284	142.5
430.491	111.78
430.699	169.13
430.906	226.47
431.114	103.59
431.321	101.55
431.528	87.21
431.736	97.45
431.943	138.41
432.15	138.41
432.358	162.98
432.565	205.99
432.772	11.43
432.979	214.18
433.187	119.98
433.394	253.09
433.601	38.06
433.808	222.38
434.016	171.18
434.223	187.56
434.43	111.78
434.637	242.85
434.844	218.28
435.052	242.85
435.259	224.42
435.466	205.99
435.673	251.05
435.88	244.9
436.087	279.72
436.294	275.62
436.501	269.48
436.708	339.11
436.915	257.19
437.122	298.15
437.329	173.22
437.537	240.81
437.743	296.1
437.95	343.21
438.157	361.64
438.364	255.14
438.571	330.92
438.778	337.06
438.985	457.89
439.192	451.75
439.399	335.01
439.606	423.08
439.813	470.18
440.02	488.61
440.227	619.68
440.433	494.76
440.64	461.99
440.847	326.82
441.054	382.12
441.261	631.97
441.467	480.42
441.674	529.57
441.881	570.53
442.088	484.52
442.294	705.7
442.501	642.21
442.708	642.21
442.914	658.59
443.121	732.32
443.328	654.5
443.534	756.9
443.741	853.15
443.948	660.64
444.154	869.53
444.361	973.98
444.568	754.85
444.774	806.05
444.981	832.67
445.187	963.74
445.394	898.2
445.6	898.2
445.807	1150.11
446.013	1064.09
446.22	1014.94
446.426	1174.68
446.633	1219.74
446.839	1406.1
447.046	1256.6
447.252	1387.67
447.459	1418.39
447.665	1447.06
447.871	1574.03
448.078	1746.06
448.284	1596.56
448.491	1610.9
448.697	1692.82
448.903	1830.03
449.11	1840.27
449.316	1811.6
449.522	2049.16
449.728	2159.75
449.935	2184.33
450.141	2059.4
450.347	2241.67
450.553	2213
450.76	2331.78
450.966	2628.74
451.172	2522.24
451.378	2573.44
451.584	2751.62
451.791	2813.06
451.997	2970.75
452.203	3019.9
452.409	3116.16
452.615	3279.99
452.821	3247.23
453.027	3247.23
453.233	3785.84
453.44	3523.7
453.646	3662.96
453.852	3851.38
454.058	3894.38
454.264	4078.7
454.47	4426.86
454.676	4416.62
454.882	4877.41
455.088	4719.71
455.294	4889.7
455.5	5198.94
455.705	5510.23
455.911	5657.68
456.117	5735.51
456.323	5964.88
456.529	5887.06
456.735	6476.87
456.941	6710.34
457.147	7068.73
457.352	6947.9
457.558	7089.21
457.764	7703.61
457.97	7771.19
458.176	8080.43
458.381	8498.22
458.587	8791.08
458.793	9022.5
458.999	9229.34
459.204	10195.98
459.41	10437.64
459.616	10380.3
459.821	11103.23
460.027	11770.87
460.233	12202.99
460.438	12196.85
460.644	12788.71
460.85	12790.76
461.055	13394.91
461.261	14343.12
461.466	13669.34
461.672	14119.89
461.878	15938.49
462.083	15506.37
462.289	15860.66
462.494	16491.44
462.7	16642.99
462.905	16763.82
463.111	18056.09
463.316	19227.53
463.522	19647.36
463.727	20151.16
463.932	20757.36
464.138	21693.28
464.343	22506.32
464.549	22676.3
464.754	24243
464.959	24838.96
465.165	25183.02
465.37	24869.68
465.575	25312.04
465.781	26526.49
465.986	27751.17
466.191	27239.18
466.397	27587.33
466.602	26688.28
466.807	28275.45
467.012	28795.64
467.218	29113.07
467.423	29303.53
467.628	29960.93
467.833	31638.22
468.038	30851.8
468.244	30544.6
468.449	31959.75
468.654	31574.73
468.859	31474.38
469.064	31763.14
469.269	30761.69
469.474	31187.66
469.679	31939.27
469.885	30749.4
470.09	31376.08
470.295	31916.74
470.5	30595.8
470.705	31304.4
470.91	30434.01
471.115	30278.36
471.32	30673.62
471.525	30212.83
471.73	29442.79
471.935	29328.11
472.139	27812.61
472.344	28152.57
472.549	27624.2
472.754	27697.92
472.959	26643.22
473.164	26100.51
473.369	25236.27
473.574	26385.18
473.778	25848.61
473.983	25312.04
474.188	25178.92
474.393	23728.96
474.598	23710.53
474.802	23038.8
475.007	22836.05
475.212	22526.8
475.417	21592.93
475.621	21566.31
475.826	21003.11
476.031	20650.86
476.235	20527.99
476.44	20527.99
476.645	19882.88
476.849	19714.94
477.054	19262.34
477.259	18824.08
477.463	18922.38
477.668	18389.91
477.872	18144.15
478.077	17849.24
478.282	17054.63
478.486	17241
478.691	16849.83
478.895	16636.84
479.1	16757.67
479.304	16888.74
479.509	16290.74
479.713	16395.18
479.918	16065.46
480.122	15688.64
480.326	15610.81
480.531	15727.55
480.735	15653.82
480.94	15270.85
481.144	15813.56
481.348	14709.71
481.553	14973.89
481.757	14525.39
481.961	14765
482.166	15213.51
482.37	14623.69
482.574	14103.51
482.778	14224.34
482.983	14273.49
483.187	14035.92
483.391	13982.68
483.595	13695.96
483.8	13566.94
484.004	13730.78
484.208	13632.47
484.412	13382.62
484.616	13294.56
484.821	13255.65
485.025	12770.28
485.229	12858.34
485.433	12753.9
485.637	12669.93
485.841	12717.03
486.045	12235.76
486.249	12112.88
486.453	11719.67
486.657	11572.22
486.861	11658.23
487.065	11402.24
487.269	11183.1
487.473	11009.03
487.677	11013.12
487.881	10925.06
488.085	10566.67
488.289	10406.92
488.493	10220.56
488.697	10304.53
488.901	9907.22
489.105	9620.5
489.309	9727
489.512	9608.22
489.716	9507.87
489.92	9149.47
490.124	8934.43
490.328	8993.83
490.531	8631.33
490.735	8565.8
490.939	8258.6
491.143	8213.55
491.346	8047.66
491.55	8062
491.754	7922.74
491.958	7707.7
492.161	7593.01
492.365	7580.73
492.569	7197.76
492.772	7128.13
492.976	7187.52
493.18	6952
493.383	7011.39
493.587	6814.79
493.79	6939.71
493.994	6681.67
494.197	6648.9
494.401	6775.88
494.605	6519.88
494.808	6485.06
495.012	6558.79
495.215	6534.21
495.419	6415.43
495.622	6202.44
495.825	6472.78
496.029	6253.64
496.232	6392.91
496.436	6093.9
496.639	6440.01
496.843	6026.32
497.046	6259.79
497.249	6288.46
497.453	6188.11
497.656	6077.52
497.859	6218.83
498.063	6220.88
498.266	6253.64
498.469	6016.08
498.673	6052.94
498.876	6110.29
499.079	6200.4
499.282	6200.4
499.485	6528.07
499.689	6515.78
499.892	6612.04
500.095	6485.06
500.298	6603.85
500.501	6435.91
500.705	6599.75
500.908	6607.94
501.111	6759.49
501.314	6923.33
501.517	6970.43
501.72	7031.87
501.923	6947.9
502.126	6943.81
502.329	7320.63
502.532	7187.52
502.735	7371.83
502.938	7564.34
503.141	7554.1
503.344	7461.94
503.547	7691.32
503.75	7619.64
503.953	7881.78
504.156	8066.1
504.359	8014.9
504.562	8156.21
504.765	8442.92
504.968	8606.76
505.17	8717.35
505.373	8465.45
505.576	9036.83
505.779	8938.53
505.982	9040.93
506.185	9333.79
506.387	9145.38
506.59	9544.73
506.793	9870.36
506.996	9817.11
507.198	10138.64
507.401	10269.71
507.604	10329.1
507.807	10595.34
508.009	10970.12
508.212	11256.83
508.415	11121.66
508.617	11408.38
508.82	11588.6
509.022	11701.24
509.225	12313.58
509.428	12282.86
509.63	12577.77
509.833	12940.26
510.035	13552.6
510.238	13491.16
510.44	13792.22
510.643	14140.37
510.845	14410.7
511.048	14666.7
511.25	14965.7
511.453	15303.62
511.655	16042.93
511.858	16040.89
512.06	16577.45
512.262	16591.79
512.465	16954.28
512.667	17460.13
512.87	17669.02
513.072	18035.61
513.274	18797.45
513.477	18879.37
513.679	19473.28
513.881	19755.9
514.084	20493.17
514.286	20743.02
514.488	21087.08
514.69	21605.22
514.893	22143.83
515.095	22469.46
515.297	22928.2
515.499	23284.55
515.701	23962.43
515.904	24595.25
516.106	25035.56
516.308	25410.34
516.51	25996.06
516.712	26639.12
516.914	26962.7
517.116	27525.89
517.318	27583.24
517.52	28269.31
517.722	28547.83
517.925	29453.03
518.127	30235.36
518.329	30487.26
518.531	30474.97
518.733	31226.57
518.935	32012.99
519.136	32592.57
519.338	32959.16
519.54	33270.45
519.742	33925.8
519.944	34458.27
520.146	35076.76
520.348	35377.81
520.55	35402.38
520.752	35971.72
520.954	36946.55
521.155	36702.84
521.357	37034.61
521.559	38124.13
521.761	38503.01
521.963	38472.29
522.164	39193.17
522.366	39402.07
522.568	39615.05
522.77	40090.18
522.971	40331.84
523.173	40409.67
523.375	40921.66
523.576	40852.03
523.778	41122.36
523.98	41585.2
524.181	42066.47
524.383	41558.58
524.584	41964.07
524.786	41642.54
524.988	42009.13
525.189	42105.38
525.391	42132.01
525.592	42345
525.794	42273.32
525.995	42127.91
526.197	42011.18
526.398	41974.31
526.6	42093.1
526.801	42082.86
527.003	42201.64
527.204	41873.96
527.406	41916.97
527.607	41579.06
527.808	41581.1
528.01	40618.56
528.211	40841.79
528.412	41062.97
528.614	40716.86
528.815	40071.75
529.016	40237.64
529.218	39369.3
529.419	39479.89
529.62	38785.63
529.822	38781.53
530.023	38560.35
530.224	38136.42
530.425	37372.53
530.626	36708.99
530.828	36678.27
531.029	37196.4
531.23	36074.12
531.431	35586.7
531.632	35216.02
531.833	34992.79
532.035	34646.68
532.236	34261.66
532.437	33731.24
532.638	33628.84
532.839	33041.07
533.04	32895.67
533.241	31853.25
533.442	32404.16
533.643	31316.68
533.844	31097.55
534.045	30946
534.246	29805.28
534.447	30014.18
534.648	29207.28
534.849	28965.62
535.05	28498.68
535.251	28453.62
535.451	27673.35
535.652	27796.23
535.853	27323.15
536.054	26780.43
536.255	26526.49
536.456	25819.94
536.657	26223.39
536.857	25289.51
537.058	25029.42
537.259	24722.23
537.46	24462.13
537.66	24165.18
537.861	23909.18
538.062	23462.72
538.263	22987.6
538.463	22983.5
538.664	22506.32
538.865	22164.31
539.065	22104.92
539.266	21588.83
539.466	21594.98
539.667	21308.26
539.868	21042.03
540.068	20671.34
540.269	20634.48
540.469	20646.77
540.67	19972.99
540.87	19876.73
541.071	19504
541.271	19583.87
541.472	19071.88
541.672	18885.51
541.873	18639.76
542.073	17918.87
542.274	18551.7
542.474	18033.56
542.675	17865.63
542.875	17869.72
543.075	17345.44
543.276	16862.12
543.476	17365.92
543.676	16794.54
543.877	16751.53
544.077	16448.43
544.277	16231.35
544.478	16169.91
544.678	16171.96
544.878	15686.59
545.078	15532.99
545.279	15375.3
545.479	15074.24
545.679	15068.1
545.879	15107.01
546.079	14885.83
546.28	14513.1
546.48	14361.55
546.68	14318.54
546.88	14210
547.08	13937.62
547.28	13749.21
547.48	13327.33
547.68	13542.36
547.88	13005.8
548.081	13153.25
548.281	12805.1
548.481	12788.71
548.681	12760.04
548.881	12432.36
549.081	12215.28
549.28	12241.9
549.48	11934.71
549.68	11990
549.88	11822.07
550.08	11561.98
550.28	11445.24
550.48	11197.44
550.68	11068.42
550.88	10970.12
551.08	10822.66
551.279	10601.48
551.479	10304.53
551.679	10501.13
551.879	10101.78
552.079	10081.3
552.278	9856.02
552.478	9878.55
552.678	9595.93
552.878	9417.75
553.077	9204.77
553.277	9194.53
553.477	9151.52
553.676	9102.37
553.876	8735.78
554.076	8563.75
554.275	8543.27
554.475	8234.03
554.674	8295.47
554.874	8197.17
555.074	7941.17
555.273	7912.5
555.473	7820.34
555.672	7547.96
555.872	7597.11
556.071	7373.88
556.271	7320.63
556.47	7218.24
556.67	6931.52
556.869	7001.15
557.068	6839.36
557.268	6540.36
557.467	6579.27
557.667	6558.79
557.866	6499.4
558.065	6194.25
558.265	6171.72
558.464	6028.37
558.663	6069.33
558.863	5784.66
559.062	5833.81
559.261	5508.18
559.461	5798.99
559.66	5495.89
559.859	5411.93
560.058	5342.3
560.258	5153.88
560.457	5026.91
560.656	5207.13
560.855	4897.89
561.054	4990.05
561.253	4834.4
561.453	4832.35
561.652	4686.95
561.851	4715.62
562.05	4480.1
562.249	4447.33
562.448	4607.08
562.647	4271.21
562.846	4203.63
563.045	4140.14
563.244	4099.18
563.443	4119.66
563.642	3998.83
563.841	3884.14
564.04	3994.73
564.239	3845.23
564.438	3787.89
564.637	3769.46
564.836	3644.53
565.035	3566.71
565.234	3667.06
565.432	3560.56
565.631	3431.54
565.83	3519.6
566.029	3382.39
566.228	3220.6
566.427	3316.86
566.625	3249.27
566.824	3312.76
567.023	3304.57
567.222	3093.63
567.42	3138.68
567.619	3056.76
567.818	2980.99
568.016	3114.11
568.215	2976.89
568.414	2954.37
568.612	2980.99
568.811	2798.72
569.01	2788.48
569.208	2684.03
569.407	2729.09
569.605	2747.52
569.804	2581.64
570.002	2589.83
570.201	2501.76
570.4	2567.3
570.598	2401.41
570.797	2411.65
570.995	2317.45
571.193	2278.54
571.392	2364.55
571.59	2276.49
571.789	2370.69
571.987	2210.95
572.186	2251.91
572.384	1985.68
572.582	2153.61
572.781	2122.89
572.979	2000.01
573.177	1936.53
573.376	2014.35
573.574	2008.2
573.772	1805.46
573.971	1756.3
574.169	1815.69
574.367	1899.66
574.565	1741.97
574.763	1723.54
574.962	1766.54
575.16	1674.39
575.358	1598.61
575.556	1651.86
575.754	1733.78
575.952	1598.61
576.151	1645.71
576.349	1727.63
576.547	1457.3
576.745	1559.7
576.943	1549.46
577.141	1344.66
577.339	1522.84
577.537	1471.64
577.735	1397.91
577.933	1387.67
578.131	1399.96
578.329	1412.25
578.527	1365.14
578.725	1363.09
578.923	1236.12
579.121	1248.41
579.319	1217.69
579.516	1168.54
579.714	1309.85
579.912	1221.78
580.11	1174.68
580.308	1107.1
580.506	1049.75
580.704	1053.85
580.901	1002.65
581.099	1166.49
581.297	1082.52
581.495	1072.28
581.692	1027.23
581.89	1193.11
582.088	1006.75
582.285	947.36
582.483	982.17
582.681	916.64
582.878	928.92
583.076	947.36
583.274	906.4
583.471	1051.8
583.669	928.92
583.866	822.43
584.064	865.44
584.262	769.18
584.459	795.81
584.657	851.1
584.854	822.43
585.052	898.2
585.249	797.85
585.447	791.71
585.644	629.92
585.841	816.29
586.039	834.72
586.236	918.68
586.434	720.03
586.631	617.63
586.828	642.21
587.026	779.42
587.223	681.12
587.42	494.76
587.618	648.35
587.815	726.18
588.012	709.79
588.21	648.35
588.407	658.59
588.604	750.75
588.801	642.21
588.999	599.2
589.196	638.11
589.393	558.24
589.59	597.15
589.787	597.15
589.984	591.01
590.182	650.4
590.379	445.6
590.576	541.86
590.773	531.62
590.97	691.36
591.167	564.39
591.364	646.3
591.561	666.78
591.758	738.46
591.955	570.53
592.152	548
592.349	486.56
592.546	435.36
592.743	504.99
592.94	494.76
593.137	519.33
593.334	631.97
593.531	568.48
593.727	623.78
593.924	509.09
594.121	535.71
594.318	533.67
594.515	550.05
594.712	650.4
594.908	636.06
595.105	466.08
595.302	572.58
595.499	605.35
595.696	744.61
595.892	623.78
596.089	781.47
596.286	586.91
596.482	656.54
596.679	713.89
596.876	599.2
597.072	806.05
597.269	668.83
597.466	808.09
597.662	717.98
597.859	717.98
598.055	734.37
598.252	801.95
598.448	832.67
598.645	912.54
598.841	902.3
599.038	1025.18
599.234	1088.67
599.431	920.73
599.627	1084.57
599.824	1189.02
600.02	986.27
600.217	1143.96
600.413	1178.78
600.609	1250.46
600.806	1475.73
601.002	1508.5
601.198	1393.81
601.395	1541.27
601.591	1594.51
601.787	1606.8
601.984	1774.74
602.18	1662.1
602.376	1725.58
602.572	1846.41
602.769	1959.05
602.965	1803.41
603.161	2043.02
603.357	2038.92
603.553	2264.2
603.75	2102.41
603.946	2241.67
604.142	2393.22
604.338	2661.51
604.534	2409.61
604.73	2616.45
604.926	2649.22
605.122	2792.58
605.318	2831.49
605.514	3030.14
605.71	3112.06
605.906	3165.31
606.102	3214.46
606.298	3433.59
606.494	3501.17
606.69	3740.79
606.886	3718.26
607.082	3708.02
607.278	3900.53
607.474	4066.41
607.67	4054.12
607.866	4150.38
608.062	4447.33
608.257	4396.14
608.453	4482.15
608.649	4691.04
608.845	4488.29
609.041	4772.96
609.236	4961.37
609.432	5246.04
609.628	5403.74
609.824	5514.33
610.019	5608.53
610.215	5655.64
610.411	6239.31
610.606	6276.17
610.802	6265.93
610.998	6653
611.193	6517.83
611.389	6734.92
611.584	6960.19
611.78	7023.68
611.976	7189.56
612.171	7631.93
612.367	7711.8
612.562	7937.07
612.758	8059.95
612.953	8066.1
613.149	8379.43
613.344	8453.16
613.539	9059.36
613.735	9380.89
613.93	9432.09
614.126	9532.44
614.321	9942.03
614.517	10079.25
614.712	10464.27
614.907	10685.45
615.103	11045.89
615.298	11310.08
615.493	11559.93
615.688	11504.64
615.884	12137.46
616.079	12258.29
616.274	12745.7
616.47	12868.58
616.665	13321.18
616.86	13665.24
617.055	14011.35
617.25	14306.26
617.445	14742.47
617.641	15000.52
617.836	15449.02
618.031	15494.08
618.226	16040.89
618.421	16509.87
618.616	17122.21
618.811	17253.28
619.006	17873.82
619.201	18095
619.396	18555.79
619.591	18654.09
619.786	19446.66
619.981	19512.19
620.176	20290.42
620.371	20327.28
620.566	21056.36
620.761	21326.69
620.956	22197.08
621.151	22156.12
621.346	22897.49
621.541	22946.64
621.735	23812.93
621.93	23706.43
622.125	24286.01
622.32	24613.68
622.515	25324.33
622.709	25629.48
622.904	26503.96
623.099	26854.16
623.294	27341.58
623.488	27349.77
623.683	28205.82
623.878	27894.53
624.072	28742.39
624.267	29399.79
624.462	29629.16
624.656	30051.04
624.851	31263.44
625.046	30980.82
625.24	31834.82
625.435	31969.99
625.629	32438.97
625.824	32996.02
626.018	32981.68
626.213	33045.17
626.407	34491.04
626.602	34210.46
626.796	34898.58
626.991	35115.67
627.185	35228.31
627.38	35560.08
627.574	35682.95
627.768	35920.52
627.963	36078.21
628.157	36504.19
628.352	36637.31
628.546	36405.89
628.74	36711.03
628.935	36561.53
629.129	36735.61
629.323	36229.76
629.517	36508.29
629.712	35879.56
629.906	35912.33
630.1	35547.79
630.294	35607.18
630.489	34769.56
630.683	34843.29
630.877	33759.91
631.071	33184.43
631.265	33122.99
631.459	32402.11
631.653	31595.21
631.848	31140.56
632.042	30184.16
632.236	29688.55
632.43	28650.23
632.624	28277.5
632.818	27288.33
633.012	26262.3
633.206	25707.3
633.4	24912.69
633.594	24083.26
633.788	23339.85
633.982	22551.38
634.176	21750.62
634.369	20697.97
634.563	19811.2
634.757	19340.16
634.951	18867.08
635.145	18262.93
635.339	17124.26
635.533	16452.53
635.726	16223.16
635.92	15414.21
636.114	14683.08
636.308	13857.75
636.501	13624.28
636.695	12901.35
636.889	12108.79
637.083	11957.24
637.276	11518.97
637.47	10826.76
637.664	10406.92
637.857	10335.24
638.051	9604.12
638.244	9196.57
638.438	9028.64
638.632	8780.84
638.825	8274.99
639.019	8045.62
639.212	7642.17
639.406	7406.65
639.599	7005.25
639.793	6736.96
639.986	6673.48
640.18	6241.36
640.373	6098
640.567	5665.88
640.76	5612.63
640.954	5309.53
641.147	5182.56
641.34	4889.7
641.534	4842.59
641.727	4650.08
641.92	4373.61
642.114	4170.86
642.307	4146.28
642.5	3980.4
642.694	3896.43
642.887	3654.77
643.08	3738.74
643.273	3517.56
643.467	3105.92
643.66	3073.15
643.853	2870.4
644.046	3083.39
644.239	2780.29
644.432	2692.23
644.626	2518.15
644.819	2514.05
645.012	2344.07
645.205	2411.65
645.398	2208.9
645.591	2106.51
645.784	2032.78
645.977	1801.36
646.17	1830.03
646.363	1868.94
646.556	1633.43
646.749	1633.43
646.942	1633.43
647.135	1672.34
647.328	1453.2
647.521	1455.25
647.714	1434.77
647.907	1344.66
648.099	1303.7
648.292	1354.9
648.485	1074.33
648.678	1137.82
648.871	1045.66
649.064	1070.23
649.256	928.92
649.449	1019.04
649.642	844.96
649.835	857.25
650.027	881.82
650.22	869.53
650.413	760.99
650.605	812.19
650.798	769.18
650.991	767.13
651.183	722.08
651.376	767.13
651.568	754.85
651.761	599.2
651.954	593.06
652.146	580.77
652.339	629.92
652.531	681.12
652.724	441.51
652.916	601.25
653.109	400.55
653.301	636.06
653.494	509.09
653.686	476.32
653.879	500.9
654.071	480.42
654.263	476.32
654.456	345.25
654.648	461.99
654.84	406.69
655.033	287.91
655.225	414.88
655.417	302.25
655.61	414.88
655.802	402.6
655.994	470.18
656.186	255.14
656.379	443.56
656.571	287.91
656.763	300.2
656.955	328.87
657.148	322.73
657.34	433.32
657.532	232.62
657.724	253.09
657.916	322.73
658.108	326.82
658.3	324.77
658.492	308.39
658.684	222.38
658.876	332.97
659.068	122.02
659.26	165.03
659.452	165.03
659.644	253.09
659.836	380.07
660.028	322.73
660.22	124.07
660.412	212.14
660.604	234.66
660.796	214.18
660.988	285.86
661.18	261.29
661.372	205.99
661.563	179.37
661.755	224.42
661.947	171.18
662.139	148.65
662.331	212.14
662.522	179.37
662.714	105.64
662.906	119.98
663.097	234.66
663.289	29.87
663.481	76.97
663.673	138.41
663.864	179.37
664.056	222.38
664.247	21.67
664.439	228.52
664.631	156.84
664.822	255.14
665.014	144.55
665.205	105.64
665.397	99.5
665.588	189.61
665.78	160.94
665.971	197.8
666.163	83.11
666.354	126.12
666.546	91.31
666.737	79.02
666.929	99.5
667.12	105.64
667.311	175.27
667.503	128.17
667.694	115.88
667.885	99.5
668.077	181.42
668.268	68.78
668.459	91.31
668.651	111.78
668.842	101.55
669.033	91.31
669.224	29.87
669.416	273.57
669.607	58.54
669.798	1.19
669.989	142.5
670.18	124.07
670.371	97.45
670.563	23.72
670.754	208.04
670.945	171.18
671.136	179.37
671.327	27.82
671.518	171.18
671.709	244.9
671.9	85.16
672.091	187.56
672.282	105.64
672.473	117.93
672.664	152.74
672.855	146.6
673.046	216.23
673.237	160.94
673.428	87.21
673.619	160.94
673.809	52.39
674	224.42
674.191	156.84
674.382	99.5
674.573	167.08
674.764	142.5
674.954	236.71
675.145	36.01
675.336	60.59
675.527	103.59
675.717	74.92
675.908	150.7
676.099	40.11
676.289	197.8
676.48	7.34
676.671	58.54
676.861	38.06
677.052	130.22
677.243	54.44
677.433	117.93
677.624	128.17
677.814	21.67
678.005	158.89
678.195	187.56
678.386	89.26
678.576	74.92
678.767	17.58
678.957	117.93
679.148	212.14
679.338	314.53
679.529	210.09
679.719	128.17
679.909	134.31
680.1	232.62
680.29	140.46
680.481	-4.95
680.671	189.61
680.861	142.5
681.052	122.02
681.242	76.97
681.432	197.8
681.622	218.28
681.813	85.16
682.003	165.03
682.193	136.36
682.383	165.03
682.573	154.79
682.764	109.74
682.954	140.46
683.144	226.47
683.334	158.89
683.524	144.55
683.714	128.17
683.904	148.65
684.094	87.21
684.284	162.98
684.474	226.47
684.664	232.62
684.854	259.24
685.044	109.74
685.234	101.55
685.424	210.09
685.614	99.5
685.804	328.87
685.994	205.99
686.184	230.57
686.374	193.7
686.564	152.74
686.753	246.95
686.943	36.01
687.133	191.66
687.323	122.02
687.513	232.62
687.702	138.41
687.892	212.14
688.082	216.23
688.272	281.77
688.461	185.51
688.651	312.49
688.841	267.43
689.03	101.55
689.22	136.36
689.41	171.18
689.599	232.62
689.789	97.45
689.979	253.09
690.168	167.08
690.358	246.95
690.547	74.92
690.737	152.74
690.926	189.61
691.116	216.23
691.305	128.17
691.495	273.57
691.684	189.61
691.874	85.16
692.063	156.84
692.252	173.22
692.442	296.1
692.631	169.13
692.82	201.9
693.01	91.31
693.199	91.31
693.388	216.23
693.578	205.99
693.767	185.51
693.956	230.57
694.146	210.09
694.335	181.42
694.524	162.98
694.713	314.53
694.902	132.26
695.092	128.17
695.281	210.09
695.47	95.4
695.659	183.46
695.848	142.5
696.037	154.79
696.226	185.51
696.415	138.41
696.604	279.72
696.793	208.04
696.982	142.5
697.171	310.44
697.36	64.68
697.549	175.27
697.738	81.07
697.927	183.46
698.116	111.78
698.305	179.37
698.494	113.83
698.683	185.51
698.872	285.86
699.061	117.93
699.25	33.96
699.438	226.47
699.627	117.93
699.816	312.49
700.005	7.34
700.193	111.78
700.382	165.03
700.571	101.55
700.76	242.85
700.948	144.55
701.137	152.74
701.326	195.75
701.514	76.97
701.703	177.32
701.892	191.66
702.08	238.76
702.269	191.66
702.457	68.78
702.646	130.22
702.834	160.94
703.023	160.94
703.212	179.37
703.4	142.5
703.589	76.97
703.777	115.88
703.965	83.11
704.154	89.26
704.342	-76.63
704.531	56.49
704.719	220.33
704.907	136.36
705.096	21.67
705.284	56.49
705.472	142.5
705.661	148.65
705.849	218.28
706.037	232.62
706.226	193.7
706.414	146.6
706.602	58.54
706.79	238.76
706.979	89.26
707.167	158.89
707.355	27.82
707.543	244.9
707.731	154.79
707.919	115.88
708.107	189.61
708.296	95.4
708.484	115.88
708.672	210.09
708.86	216.23
709.048	138.41
709.236	150.7
709.424	228.52
709.612	244.9
709.8	38.06
709.988	128.17
710.176	228.52
710.364	304.29
710.551	146.6
710.739	175.27
710.927	99.5
711.115	181.42
711.303	183.46
711.491	195.75
711.679	83.11
711.866	230.57
712.054	160.94
712.242	197.8
712.43	220.33
712.617	105.64
712.805	242.85
712.993	99.5
713.181	74.92
713.368	216.23
713.556	144.55
713.744	115.88
713.931	287.91
714.119	191.66
714.306	150.7
714.494	154.79
714.682	169.13
714.869	132.26
715.057	156.84
715.244	72.87
715.432	230.57
715.619	101.55
715.807	122.02
715.994	162.98
716.182	160.94
716.369	185.51
716.556	249
716.744	60.59
716.931	48.3
717.119	144.55
717.306	165.03
717.493	167.08
717.681	105.64
717.868	117.93
718.055	142.5
718.242	154.79
718.43	189.61
718.617	234.66
718.804	138.41
718.991	255.14
719.179	238.76
719.366	171.18
719.553	156.84
719.74	253.09
719.927	187.56
720.114	175.27
720.301	79.02
720.488	136.36
720.676	138.41
720.863	310.44
721.05	369.83
721.237	189.61
721.424	265.38
721.611	177.32
721.798	66.73
721.985	158.89
722.172	169.13
722.358	173.22
722.545	302.25
722.732	191.66
722.919	341.16
723.106	289.96
723.293	144.55
723.48	146.6
723.667	105.64
723.853	228.52
724.04	185.51
724.227	197.8
724.414	212.14
724.6	222.38
724.787	339.11
724.974	304.29
725.161	214.18
725.347	126.12
725.534	271.53
725.72	271.53
725.907	236.71
726.094	267.43
726.28	173.22
726.467	232.62
726.653	154.79
726.84	314.53
727.027	296.1
727.213	240.81
727.4	240.81
727.586	287.91
727.773	230.57
727.959	193.7
728.145	228.52
728.332	261.29
728.518	171.18
728.705	281.77
728.891	185.51
729.077	218.28
729.264	242.85
729.45	226.47
729.636	240.81
729.823	265.38
730.009	310.44
730.195	259.24
730.382	351.4
730.568	103.59
730.754	177.32
730.94	238.76
731.126	240.81
731.313	230.57
731.499	269.48
731.685	347.3
731.871	271.53
732.057	292.01
732.243	281.77
732.429	257.19
732.615	357.54
732.801	265.38
732.987	208.04
733.173	242.85
733.359	193.7
733.545	220.33
733.731	267.43
733.917	314.53
734.103	302.25
734.289	285.86
734.475	222.38
734.661	447.65
734.847	271.53
735.033	330.92
735.219	330.92
735.404	220.33
735.59	269.48
735.776	281.77
735.962	273.57
736.148	267.43
736.333	375.97
736.519	310.44
736.705	353.45
736.89	298.15
737.076	310.44
737.262	189.61
737.447	152.74
737.633	261.29
737.819	230.57
738.004	205.99
738.19	320.68
738.375	222.38
738.561	365.73
738.747	263.33
738.932	119.98
739.118	498.85
739.303	318.63
739.489	236.71
739.674	273.57
739.859	263.33
740.045	359.59
740.23	339.11
740.416	228.52
740.601	294.05
740.786	292.01
740.972	189.61
741.157	232.62
741.342	224.42
741.528	187.56
741.713	365.73
741.898	242.85
742.084	285.86
742.269	201.9
742.454	257.19
742.639	289.96
742.824	261.29
743.01	375.97
743.195	404.64
743.38	271.53
743.565	191.66
743.75	279.72
743.935	390.31
744.12	328.87
744.305	300.2
744.49	216.23
744.675	275.62
744.86	205.99
745.045	324.77
745.23	277.67
745.415	228.52
745.6	464.04
745.785	253.09
745.97	294.05
746.155	328.87
746.34	326.82
746.525	310.44
746.71	349.35
746.895	251.05
747.079	185.51
747.264	300.2
747.449	275.62
747.634	320.68
747.819	283.81
748.003	224.42
748.188	175.27
748.373	320.68
748.557	304.29
748.742	224.42
748.927	279.72
749.111	242.85
749.296	226.47
749.481	275.62
749.665	273.57
749.85	265.38
750.034	378.02
750.219	191.66
750.404	226.47
750.588	259.24
750.773	173.22
750.957	249
751.141	191.66
751.326	330.92
751.51	208.04
751.695	185.51
751.879	224.42
752.064	312.49
752.248	187.56
752.432	337.06
752.617	304.29
752.801	341.16
752.985	150.7
753.17	308.39
753.354	185.51
753.538	216.23
753.722	208.04
753.907	185.51
754.091	56.49
754.275	316.58
754.459	107.69
754.643	76.97
754.828	232.62
755.012	287.91
755.196	113.83
755.38	240.81
755.564	111.78
755.748	232.62
755.932	199.85
756.116	242.85
756.3	242.85
756.484	144.55
756.668	238.76
756.852	136.36
757.036	119.98
757.22	220.33
757.404	154.79
757.588	185.51
757.772	199.85
757.956	173.22
758.14	279.72
758.323	109.74
758.507	181.42
758.691	169.13
758.875	210.09
759.059	197.8
759.242	29.87
759.426	177.32
759.61	179.37
759.794	117.93
759.977	224.42
760.161	347.3
760.345	165.03
760.528	214.18
760.712	191.66
760.895	152.74
761.079	101.55
761.263	103.59
761.446	113.83
761.63	119.98
761.813	208.04
761.997	31.91
762.18	173.22
762.364	191.66
762.547	40.11
762.731	91.31
762.914	128.17
763.098	111.78
763.281	79.02
763.464	124.07
763.648	103.59
763.831	148.65
764.015	76.97
764.198	251.05
764.381	70.83
764.564	156.84
764.748	195.75
764.931	216.23
765.114	189.61
765.297	199.85
765.481	36.01
765.664	48.3
765.847	105.64
766.03	165.03
766.213	79.02
766.397	91.31
766.58	64.68
766.763	259.24
766.946	130.22
767.129	74.92
767.312	109.74
767.495	93.35
767.678	38.06
767.861	148.65
768.044	91.31
768.227	165.03
768.41	54.44
768.593	83.11
768.776	144.55
768.959	19.63
769.142	193.7
769.324	64.68
769.507	58.54
769.69	44.2
769.873	40.11
770.056	296.1
770.239	64.68
770.421	146.6
770.604	111.78
770.787	107.69
770.97	173.22
771.152	83.11
771.335	171.18
771.518	-7
771.7	185.51
771.883	187.56
772.066	83.11
772.248	87.21
772.431	165.03
772.613	154.79
772.796	91.31
772.978	183.46
773.161	193.7
773.343	40.11
773.526	17.58
773.708	-37.72
773.891	17.58
774.073	79.02
774.256	60.59
774.438	236.71
774.621	5.29
774.803	74.92
774.985	-17.24
775.168	128.17
775.35	11.43
775.532	52.39
775.715	38.06
775.897	160.94
776.079	95.4
776.261	95.4
776.444	-11.09
776.626	64.68
776.808	83.11
776.99	27.82
777.173	23.72
777.355	54.44
777.537	130.22
777.719	113.83
777.901	40.11
778.083	103.59
778.265	5.29
778.447	134.31
778.629	-19.29
778.811	93.35
778.993	93.35
779.175	91.31
779.357	70.83
779.539	-33.62
779.721	-4.95
779.903	138.41
780.085	31.91
780.267	115.88
780.449	87.21
780.631	111.78
780.812	189.61
780.994	62.63
781.176	33.96
781.358	13.48
781.54	81.07
781.721	111.78
781.903	109.74
782.085	1.19
782.267	240.81
782.448	-47.96
782.63	50.35
782.812	68.78
782.993	83.11
783.175	128.17
783.357	11.43
783.538	79.02
783.72	-31.57
783.901	58.54
784.083	117.93
784.264	74.92
784.446	-21.33
784.627	46.25
784.809	199.85
784.99	-56.15
785.172	74.92
785.353	19.63
785.535	162.98
785.716	17.58
785.897	-13.14
786.079	5.29
786.26	83.11
786.441	74.92
786.623	1.19
786.804	13.48
786.985	70.83
787.167	99.5
787.348	42.15
787.529	-56.15
787.71	128.17
787.891	134.31
788.073	-45.91
788.254	-103.25
788.435	74.92
788.616	48.3
788.797	-31.57
788.978	44.2
789.159	31.91
789.34	29.87
789.522	15.53
789.703	5.29
789.884	99.5
790.065	21.67
790.246	148.65
790.427	5.29
790.607	76.97
790.788	95.4
790.969	-4.95
791.15	74.92
791.331	15.53
791.512	36.01
791.693	-66.39
791.874	23.72
792.054	181.42
792.235	117.93
792.416	-13.14
792.597	21.67
792.778	81.07
792.958	13.48
793.139	48.3
793.32	64.68
793.5	-15.19
793.681	54.44
793.862	-21.33
794.042	23.72
794.223	-66.39
794.404	7.34
794.584	-99.16
794.765	25.77
794.945	13.48
795.126	46.25
795.306	95.4
795.487	79.02
795.667	3.24
795.848	93.35
796.028	29.87
796.209	-13.14
796.389	13.48
796.57	52.39
796.75	-60.24
796.93	-23.38
797.111	17.58
797.291	48.3
797.471	17.58
797.652	-2.9
797.832	-50
798.012	79.02
798.192	-56.15
798.373	-15.19
798.553	-52.05
798.733	7.34
798.913	-50
799.093	-54.1
799.274	-2.9
799.454	124.07
799.634	95.4
799.814	97.45
799.994	56.49
800.174	79.02
800.354	36.01
800.534	-127.83
800.714	48.3
800.894	-66.39
801.074	-43.86
801.254	46.25
801.434	122.02
801.614	-52.05
801.794	-54.1
801.974	1823.89
802.154	-39.76
802.334	58.54
802.514	-82.77
802.693	3.24
802.873	-80.72
803.053	76.97
803.233	-19.29
803.413	-11.09
803.592	-13.14
803.772	-56.15
803.952	60.59
804.131	-76.63
804.311	-0.85
804.491	93.35
804.67	-52.05
804.85	-105.3
805.03	89.26
805.209	95.4
805.389	-56.15
805.568	58.54
805.748	42.15
805.928	17.58
806.107	87.21
806.287	40.11
806.466	-35.67
806.646	-15.19
806.825	72.87
807.004	-7
807.184	13.48
807.363	38.06
807.543	52.39
807.722	-109.4
807.901	113.83
808.081	50.35
808.26	-146.26
808.439	21.67
808.619	25.77
808.798	-33.62
808.977	-27.48
809.156	91.31
809.336	29.87
809.515	42.15
809.694	-29.52
809.873	-0.85
810.052	62.63
810.231	134.31
810.411	23.72
810.59	46.25
810.769	56.49
810.948	58.54
811.127	-82.77
811.306	-35.67
811.485	-7
811.664	142.5
811.843	3.24
812.022	-52.05
812.201	36.01
812.38	7.34
812.559	-41.81
812.737	-45.91
812.916	-136.02
813.095	-33.62
813.274	17.58
813.453	-4.95
813.632	50.35
813.811	5.29
813.989	-109.4
814.168	27.82
814.347	-90.96
814.526	-50
814.704	21.67
814.883	130.22
815.062	-41.81
815.24	76.97
815.419	-25.43
815.598	-23.38
815.776	-111.44
815.955	93.35
816.133	-78.68
816.312	13.48
816.49	-39.76
816.669	-15.19
816.847	-19.29
817.026	-13.14
817.204	52.39
817.383	5.29
817.561	-82.77
817.74	13.48
817.918	1.19
818.097	-86.87
818.275	-74.58
818.453	7.34
818.632	11.43
818.81	-68.44
818.988	-17.24
819.167	-29.52
819.345	19.63
819.523	-78.68
819.701	62.63
819.879	-37.72
820.058	-2.9
820.236	-84.82
820.414	33.96
820.592	33.96
820.77	21.67
820.948	-66.39
821.127	-27.48
821.305	52.39
821.483	-68.44
821.661	85.16
821.839	-19.29
822.017	-35.67
822.195	-25.43
822.373	83.11
822.551	-31.57
822.729	-13.14
822.907	-37.72
823.085	42.15
823.262	99.5
823.44	-93.01
823.618	-21.33
823.796	-23.38
823.974	-72.53
824.152	-27.48
824.329	-13.14
824.507	7.34
824.685	-50
824.863	9.39
825.04	-7
825.218	7.34
825.396	23.72
825.574	11.43
825.751	1.19
825.929	60.59
826.107	-90.96
826.284	-2.9
826.462	-19.29
826.639	-31.57
826.817	-111.44
826.994	-23.38
827.172	-105.3
827.349	132.26
827.527	58.54
827.704	87.21
827.882	48.3
828.059	-62.29
828.237	9.39
828.414	79.02
828.591	-138.07
828.769	9.39
828.946	-103.25
829.124	40.11
829.301	109.74
829.478	-2.9
829.655	29.87
829.833	19.63
830.01	-121.68
830.187	52.39
830.364	-52.05
830.542	81.07
830.719	119.98
830.896	68.78
831.073	138.41
831.25	-27.48
831.427	40.11
831.604	-56.15
831.782	-7
831.959	7.34
832.136	-25.43
832.313	7.34
832.49	-125.78
832.667	60.59
832.844	-52.05
833.021	74.92
833.198	25.77
833.374	-56.15
833.551	56.49
833.728	-111.44
833.905	66.73
834.082	-97.11
834.259	-41.81
834.436	25.77
834.612	9.39
834.789	-7
834.966	-27.48
835.143	-31.57
835.319	-113.49
835.496	111.78
835.673	13.48
835.85	48.3
836.026	-47.96
836.203	85.16
836.38	-33.62
836.556	9.39
836.733	-21.33
836.909	130.22
837.086	-74.58
837.262	-37.72
837.439	17.58
837.616	-64.34
837.792	-43.86
837.968	3.24
838.145	-86.87
838.321	-37.72
838.498	-39.76
838.674	-0.85
838.851	99.5
839.027	-13.14
839.203	-84.82
839.38	-15.19
839.556	-4.95
839.732	62.63
839.909	-58.2
840.085	44.2
840.261	-13.14
840.437	-84.82
840.614	-125.78
840.79	93.35
840.966	48.3
841.142	-2.9
841.318	-25.43
841.494	95.4
841.671	103.59
841.847	-103.25
842.023	-13.14
842.199	44.2
842.375	152.74
842.551	-84.82
842.727	-62.29
842.903	173.22
843.079	-93.01
843.255	27.82
843.431	9.39
843.607	31.91
843.783	-101.2
843.959	46.25
844.134	-19.29
844.31	48.3
844.486	-33.62
844.662	-70.48
844.838	29.87
845.013	-33.62
845.189	19.63
845.365	21.67
845.541	60.59
845.716	27.82
845.892	50.35
846.068	-76.63
846.244	-11.09
846.419	9.39
846.595	33.96
846.77	-90.96
846.946	-13.14
847.122	-52.05
847.297	-27.48
847.473	91.31
847.648	-123.73
847.824	7.34
847.999	-183.12
848.175	13.48
848.35	-13.14
848.526	68.78
848.701	50.35
848.876	40.11
849.052	52.39
849.227	-43.86
849.403	-15.19
849.578	-39.76
849.753	42.15
849.929	56.49
850.104	-117.59
850.279	-23.38
850.454	15.53
850.63	29.87
850.805	25.77
850.98	62.63
851.155	19.63
851.33	-31.57
851.505	-84.82
851.681	-4.95
851.856	-76.63
852.031	36.01
852.206	15.53
852.381	-13.14
852.556	38.06
852.731	64.68
852.906	5.29
853.081	25.77
853.256	76.97
853.431	-43.86
853.606	-2.9
853.781	-86.87
853.956	-168.79
854.131	17.58
854.305	-74.58
854.48	-13.14
854.655	-39.76
854.83	-121.68
855.005	-64.34
855.18	-0.85
855.354	-64.34
855.529	29.87
855.704	-4.95
855.879	-15.19
856.053	-123.73
856.228	-58.2
856.403	-52.05
856.577	56.49
856.752	-41.81
856.926	-54.1
857.101	52.39
857.276	-95.06
857.45	-11.09
857.625	-7
857.799	-80.72
857.974	-13.14
858.148	-144.21
858.323	-11.09
858.497	-17.24
858.672	7.34
858.846	-84.82
859.02	48.3
859.195	-90.96
859.369	-62.29
859.543	33.96
859.718	-2.9
859.892	13.48
860.066	33.96
860.241	-80.72
860.415	-86.87
860.589	89.26
860.763	111.78
860.938	-78.68
861.112	72.87
861.286	-50
861.46	1.19
861.634	-11.09
861.808	36.01
861.982	-39.76
862.157	-101.2
862.331	-113.49
862.505	-129.88
862.679	-101.2
862.853	-31.57
863.027	-39.76
863.201	58.54
863.375	-29.52
863.549	-33.62
863.722	68.78
863.896	74.92
864.07	-43.86
864.244	-13.14
864.418	21.67
864.592	7.34
864.766	56.49
864.939	-45.91
865.113	-2.9
865.287	48.3
865.461	-121.68
865.634	62.63
865.808	52.39
865.982	-68.44
866.156	-47.96
866.329	-101.2
866.503	19.63
866.676	-11.09
866.85	29.87
867.024	-68.44
867.197	-37.72
867.371	46.25
867.544	-39.76
867.718	-45.91
867.891	42.15
868.065	-97.11
868.238	25.77
868.412	79.02
868.585	1.19
868.759	-37.72
868.932	-76.63
869.105	-27.48
869.279	-47.96
869.452	-109.4
869.625	25.77
869.799	21.67
869.972	-103.25
870.145	-86.87
870.319	31.91
870.492	-90.96
870.665	-7
870.838	-19.29
871.011	-140.12
871.185	1.19
871.358	-68.44
871.531	-43.86
871.704	-70.48
871.877	-11.09
872.05	-70.48
872.223	-50
872.396	36.01
872.569	15.53
872.742	-72.53
872.915	-29.52
873.088	-76.63
873.261	-133.97
873.434	-19.29
873.607	-37.72
873.78	113.83
873.953	-109.4
874.126	44.2
874.299	-41.81
874.471	-31.57
874.644	-56.15
874.817	95.4
874.99	138.41
875.163	-9.05
875.335	-39.76
875.508	27.82
875.681	19.63
875.853	-93.01
876.026	-97.11
876.199	101.55
876.371	5.29
876.544	-31.57
876.717	-58.2
876.889	-23.38
877.062	66.73
877.234	-109.4
877.407	3.24
877.579	-47.96
877.752	11.43
877.924	83.11
878.097	5.29
878.269	7.34
878.442	-19.29
878.614	54.44
878.786	-45.91
878.959	23.72
879.131	1.19
879.303	-144.21
879.476	19.63
879.648	-15.19
879.82	-7
879.993	-64.34
880.165	-39.76
880.337	-156.5
880.509	85.16
880.681	-90.96
880.854	-33.62
881.026	27.82
881.198	115.88
881.37	-66.39
881.542	-45.91
881.714	-35.67
881.886	-0.85
882.058	-93.01
882.23	-50
882.402	-39.76
882.574	-0.85
882.746	42.15
882.918	144.55
883.09	62.63
883.262	5.29
883.434	3.24
883.606	-70.48
883.778	-31.57
883.95	122.02
884.122	-39.76
884.293	79.02
884.465	-80.72
884.637	50.35
884.809	-56.15
884.98	23.72
885.152	48.3
885.324	70.83
885.496	-56.15
885.667	9.39
885.839	-50
886.011	56.49
886.182	58.54
886.354	119.98
886.525	-43.86
886.697	-52.05
886.869	-103.25
887.04	-35.67
887.212	89.26
887.383	85.16
887.555	-11.09
887.726	-95.06
887.897	-15.19
888.069	-47.96
888.24	54.44
888.412	-52.05
888.583	-58.2
888.754	-41.81
888.926	-193.36
889.097	54.44
889.268	-140.12
889.44	23.72
889.611	-17.24
889.782	-109.4
889.953	-80.72
890.125	9.39
890.296	-60.24
890.467	17.58
890.638	-19.29
890.809	-41.81
890.98	-60.24
891.151	85.16
891.323	97.45
891.494	79.02
891.665	-25.43
891.836	-0.85
892.007	-7
892.178	-70.48
892.349	-39.76
892.52	-97.11
892.691	-21.33
892.862	-33.62
893.032	-95.06
893.203	-70.48
893.374	-15.19
893.545	36.01
893.716	-7
893.887	68.78
894.057	-45.91
894.228	-93.01
894.399	9.39
894.57	126.12
894.74	52.39
894.911	42.15
895.082	-43.86
895.253	-74.58
895.423	-15.19
895.594	21.67
895.764	36.01
895.935	-136.02
896.106	3.24
896.276	-21.33
896.447	66.73
896.617	-45.91
896.788	-80.72
896.958	52.39
897.129	-90.96
897.299	-76.63
897.47	107.69
897.64	19.63
897.81	-88.92
897.981	9.39
898.151	-29.52
898.322	-17.24
898.492	-19.29
898.662	1.19
898.832	-0.85
899.003	-58.2
899.173	42.15
899.343	-84.82
899.513	-74.58
