Data from USB4F104151__33__10-24-31-638.txt Node

Date: Wed Feb 26 10:24:31 EST 2025
User: louis
Spectrometer: USB4F10415
Trigger mode: 4
Integration Time (sec): 1.000000E-1
Scans to average: 1
Electric dark correction enabled: true
Nonlinearity correction enabled: false
Boxcar width: 0
XAxis mode: Wavelengths
Number of Pixels in Spectrum: 3648
>>>>>Begin Spectral Data<<<<<
178.204	-366.93
178.424	-366.93
178.644	-366.93
178.864	-434.51
179.084	-385.36
179.304	1.71
179.524	-0.34
179.744	-2.39
179.964	38.57
180.184	-37.2
180.404	89.77
180.624	1.71
180.844	-49.49
181.064	-92.5
181.283	-20.82
181.503	-20.82
181.723	91.82
181.943	-102.74
182.163	169.64
182.383	48.81
182.602	65.19
182.822	138.92
183.042	102.06
183.262	-49.49
183.482	63.15
183.701	20.14
183.921	13.99
184.141	-33.11
184.361	93.87
184.58	104.11
184.8	100.01
185.02	11.95
185.239	161.45
185.459	95.91
185.679	151.21
185.898	-121.17
186.118	-29.01
186.338	110.25
186.557	143.02
186.777	-84.31
186.997	-0.34
187.216	83.63
187.436	161.45
187.655	134.82
187.875	83.63
188.095	50.86
188.314	48.81
188.534	75.43
188.753	-29.01
188.973	204.46
189.192	151.21
189.412	108.2
189.631	36.52
189.851	52.91
190.07	61.1
190.29	-31.06
190.509	42.67
190.729	77.48
190.948	177.83
191.168	290.47
191.387	157.35
191.607	28.33
191.826	95.91
192.045	-16.73
192.265	7.85
192.484	71.34
192.704	54.95
192.923	-74.07
193.142	110.25
193.362	40.62
193.581	196.26
193.8	22.19
194.02	30.38
194.239	20.14
194.458	65.19
194.678	54.95
194.897	77.48
195.116	18.09
195.335	46.76
195.555	40.62
195.774	28.33
195.993	124.58
196.212	93.87
196.432	42.67
196.651	67.24
196.87	48.81
197.089	257.7
197.308	16.04
197.528	79.53
197.747	-78.16
197.966	93.87
198.185	161.45
198.404	-12.63
198.623	216.74
198.842	73.39
199.062	147.11
199.281	42.67
199.5	20.14
199.719	126.63
199.938	130.73
200.157	122.54
200.376	159.4
200.595	151.21
200.814	122.54
201.033	-2.39
201.252	128.68
201.471	97.96
201.69	87.72
201.909	77.48
202.128	126.63
202.347	75.43
202.566	46.76
202.785	-106.84
203.004	89.77
203.223	282.28
203.442	81.58
203.661	-49.49
203.879	69.29
204.098	179.88
204.317	-41.3
204.536	67.24
204.755	145.06
204.974	44.71
205.193	-45.4
205.411	245.41
205.63	67.24
205.849	24.23
206.068	-2.39
206.287	13.99
206.505	104.11
206.724	50.86
206.943	1.71
207.162	1.71
207.381	89.77
207.599	28.33
207.818	126.63
208.037	3.75
208.255	69.29
208.474	69.29
208.693	48.81
208.911	67.24
209.13	52.91
209.349	104.11
209.567	106.15
209.786	108.2
210.005	75.43
210.223	157.35
210.442	-96.6
210.661	-41.3
210.879	32.43
211.098	63.15
211.316	34.47
211.535	89.77
211.753	13.99
211.972	36.52
212.191	11.95
212.409	7.85
212.628	57
212.846	11.95
213.065	52.91
213.283	116.39
213.502	69.29
213.72	54.95
213.938	36.52
214.157	-14.68
214.375	59.05
214.594	61.1
214.812	75.43
215.031	91.82
215.249	65.19
215.467	85.67
215.686	42.67
215.904	71.34
216.122	20.14
216.341	130.73
216.559	-12.63
216.778	151.21
216.996	163.5
217.214	91.82
217.432	28.33
217.651	-16.73
217.869	110.25
218.087	106.15
218.306	75.43
218.524	85.67
218.742	24.23
218.96	126.63
219.179	16.04
219.397	48.81
219.615	261.8
219.833	108.2
220.051	-26.96
220.27	157.35
220.488	67.24
220.706	143.02
220.924	-26.96
221.142	69.29
221.36	44.71
221.578	93.87
221.796	63.15
222.015	89.77
222.233	77.48
222.451	177.83
222.669	-57.68
222.887	50.86
223.105	-94.55
223.323	32.43
223.541	11.95
223.759	-4.44
223.977	-37.2
224.195	134.82
224.413	165.54
224.631	112.3
224.849	61.1
225.067	237.22
225.285	77.48
225.503	93.87
225.721	-92.5
225.939	38.57
226.157	-26.96
226.375	231.08
226.592	-29.01
226.81	65.19
227.028	104.11
227.246	134.82
227.464	100.01
227.682	149.16
227.9	54.95
228.117	50.86
228.335	151.21
228.553	36.52
228.771	9.9
228.989	63.15
229.206	44.71
229.424	87.72
229.642	30.38
229.86	50.86
230.077	73.39
230.295	50.86
230.513	102.06
230.731	110.25
230.948	149.16
231.166	233.13
231.384	57
231.601	42.67
231.819	212.65
232.037	-80.21
232.254	-47.44
232.472	16.04
232.689	-12.63
232.907	110.25
233.125	36.52
233.342	5.8
233.56	16.04
233.777	36.52
233.995	-12.63
234.213	89.77
234.43	83.63
234.648	-12.63
234.865	34.47
235.083	87.72
235.3	91.82
235.518	85.67
235.735	145.06
235.953	65.19
236.17	46.76
236.388	32.43
236.605	42.67
236.822	100.01
237.04	171.69
237.257	26.28
237.475	-26.96
237.692	118.44
237.909	65.19
238.127	9.9
238.344	48.81
238.562	48.81
238.779	-10.58
238.996	-106.84
239.214	18.09
239.431	114.34
239.648	-51.54
239.865	79.53
240.083	97.96
240.3	-43.35
240.517	48.81
240.735	102.06
240.952	108.2
241.169	128.68
241.386	22.19
241.603	75.43
241.821	-31.06
242.038	126.63
242.255	149.16
242.472	-100.69
242.689	77.48
242.907	97.96
243.124	81.58
243.341	5.8
243.558	-47.44
243.775	-115.03
243.992	-35.16
244.209	120.49
244.426	204.46
244.643	132.78
244.86	-4.44
245.078	136.87
245.295	26.28
245.512	108.2
245.729	5.8
245.946	77.48
246.163	52.91
246.38	36.52
246.597	61.1
246.814	34.47
247.031	52.91
247.248	54.95
247.464	95.91
247.681	44.71
247.898	93.87
248.115	-16.73
248.332	-112.98
248.549	153.26
248.766	130.73
248.983	126.63
249.2	87.72
249.417	140.97
249.633	85.67
249.85	81.58
250.067	97.96
250.284	54.95
250.501	130.73
250.717	30.38
250.934	-18.77
251.151	147.11
251.368	65.19
251.585	20.14
251.801	79.53
252.018	36.52
252.235	140.97
252.451	-78.16
252.668	-2.39
252.885	114.34
253.102	57
253.318	13.99
253.535	-8.53
253.752	30.38
253.968	-0.34
254.185	-41.3
254.401	13.99
254.618	75.43
254.835	36.52
255.051	169.64
255.268	108.2
255.484	71.34
255.701	-26.96
255.917	89.77
256.134	-24.92
256.351	79.53
256.567	-39.25
256.784	5.8
257	-33.11
257.217	122.54
257.433	136.87
257.65	71.34
257.866	102.06
258.082	-61.78
258.299	24.23
258.515	30.38
258.732	11.95
258.948	34.47
259.165	83.63
259.381	97.96
259.597	9.9
259.814	93.87
260.03	26.28
260.246	-18.77
260.463	171.69
260.679	89.77
260.895	9.9
261.112	65.19
261.328	36.52
261.544	-14.68
261.761	222.89
261.977	-22.87
262.193	-47.44
262.409	155.3
262.626	81.58
262.842	42.67
263.058	-49.49
263.274	77.48
263.49	69.29
263.707	128.68
263.923	93.87
264.139	-49.49
264.355	-26.96
264.571	161.45
264.787	87.72
265.004	40.62
265.22	46.76
265.436	13.99
265.652	-2.39
265.868	83.63
266.084	-55.64
266.3	69.29
266.516	-10.58
266.732	89.77
266.948	75.43
267.164	-72.02
267.38	73.39
267.596	16.04
267.812	171.69
268.028	81.58
268.244	-22.87
268.46	112.3
268.676	-8.53
268.892	-6.49
269.108	1.71
269.324	5.8
269.54	18.09
269.756	206.5
269.972	-45.4
270.188	22.19
270.403	1.71
270.619	13.99
270.835	93.87
271.051	44.71
271.267	28.33
271.483	24.23
271.698	132.78
271.914	48.81
272.13	114.34
272.346	100.01
272.562	32.43
272.777	177.83
272.993	28.33
273.209	57
273.425	100.01
273.64	-67.92
273.856	118.44
274.072	-2.39
274.287	-14.68
274.503	104.11
274.719	140.97
274.934	-69.97
275.15	-41.3
275.366	50.86
275.581	-26.96
275.797	46.76
276.012	30.38
276.228	48.81
276.444	93.87
276.659	112.3
276.875	16.04
277.09	11.95
277.306	61.1
277.521	118.44
277.737	16.04
277.952	102.06
278.168	30.38
278.383	100.01
278.599	108.2
278.814	61.1
279.03	32.43
279.245	237.22
279.461	28.33
279.676	126.63
279.892	-106.84
280.107	30.38
280.322	38.57
280.538	155.3
280.753	13.99
280.969	44.71
281.184	159.4
281.399	97.96
281.615	122.54
281.83	95.91
282.045	-65.88
282.26	30.38
282.476	46.76
282.691	120.49
282.906	67.24
283.122	106.15
283.337	3.75
283.552	102.06
283.767	-39.25
283.983	136.87
284.198	30.38
284.413	48.81
284.628	-88.4
284.843	32.43
285.058	102.06
285.274	65.19
285.489	20.14
285.704	106.15
285.919	20.14
286.134	24.23
286.349	69.29
286.564	65.19
286.779	167.59
286.995	124.58
287.21	-12.63
287.425	120.49
287.64	71.34
287.855	7.85
288.07	-57.68
288.285	155.3
288.5	151.21
288.715	87.72
288.93	42.67
289.145	-67.92
289.36	110.25
289.575	-65.88
289.79	102.06
290.004	11.95
290.219	118.44
290.434	57
290.649	3.75
290.864	-29.01
291.079	89.77
291.294	42.67
291.509	63.15
291.724	1.71
291.938	28.33
292.153	-20.82
292.368	24.23
292.583	26.28
292.798	192.17
293.012	85.67
293.227	85.67
293.442	48.81
293.657	85.67
293.871	83.63
294.086	138.92
294.301	208.55
294.516	124.58
294.73	3.75
294.945	-22.87
295.16	61.1
295.374	165.54
295.589	48.81
295.804	-41.3
296.018	38.57
296.233	155.3
296.447	34.47
296.662	54.95
296.877	173.74
297.091	140.97
297.306	128.68
297.52	36.52
297.735	106.15
297.949	69.29
298.164	114.34
298.378	46.76
298.593	-8.53
298.807	26.28
299.022	110.25
299.236	188.07
299.451	42.67
299.665	54.95
299.88	102.06
300.094	28.33
300.309	-14.68
300.523	102.06
300.737	48.81
300.952	136.87
301.166	71.34
301.381	-90.45
301.595	83.63
301.809	79.53
302.024	13.99
302.238	20.14
302.452	147.11
302.667	7.85
302.881	192.17
303.095	114.34
303.309	69.29
303.524	-10.58
303.738	57
303.952	9.9
304.166	97.96
304.381	-78.16
304.595	163.5
304.809	-24.92
305.023	-2.39
305.237	59.05
305.452	13.99
305.666	79.53
305.88	130.73
306.094	89.77
306.308	50.86
306.522	42.67
306.736	97.96
306.95	110.25
307.164	95.91
307.379	-16.73
307.593	104.11
307.807	155.3
308.021	108.2
308.235	81.58
308.449	-16.73
308.663	16.04
308.877	233.13
309.091	110.25
309.305	140.97
309.519	-67.92
309.733	167.59
309.947	-74.07
310.161	57
310.374	143.02
310.588	140.97
310.802	3.75
311.016	-24.92
311.23	73.39
311.444	-47.44
311.658	97.96
311.872	120.49
312.085	145.06
312.299	128.68
312.513	161.45
312.727	24.23
312.941	-53.59
313.154	110.25
313.368	69.29
313.582	13.99
313.796	110.25
314.009	120.49
314.223	116.39
314.437	11.95
314.651	100.01
314.864	-6.49
315.078	24.23
315.292	-18.77
315.505	-51.54
315.719	169.64
315.933	59.05
316.146	-8.53
316.36	-53.59
316.573	147.11
316.787	77.48
317.001	48.81
317.214	34.47
317.428	28.33
317.641	40.62
317.855	50.86
318.068	104.11
318.282	52.91
318.495	214.7
318.709	79.53
318.922	54.95
319.136	196.26
319.349	112.3
319.563	-43.35
319.776	87.72
319.99	-20.82
320.203	108.2
320.417	42.67
320.63	165.54
320.843	188.07
321.057	16.04
321.27	89.77
321.483	75.43
321.697	116.39
321.91	-14.68
322.124	87.72
322.337	81.58
322.55	48.81
322.763	16.04
322.977	87.72
323.19	20.14
323.403	-24.92
323.617	147.11
323.83	71.34
324.043	26.28
324.256	-16.73
324.469	-8.53
324.683	95.91
324.896	81.58
325.109	28.33
325.322	-35.16
325.535	202.41
325.748	50.86
325.962	-2.39
326.175	75.43
326.388	143.02
326.601	169.64
326.814	-4.44
327.027	69.29
327.24	157.35
327.453	-59.73
327.666	108.2
327.879	151.21
328.092	147.11
328.305	89.77
328.518	65.19
328.731	1.71
328.944	36.52
329.157	61.1
329.37	-33.11
329.583	202.41
329.796	143.02
330.009	-82.26
330.222	63.15
330.435	128.68
330.648	48.81
330.861	26.28
331.073	54.95
331.286	63.15
331.499	5.8
331.712	-4.44
331.925	48.81
332.138	38.57
332.35	122.54
332.563	-39.25
332.776	128.68
332.989	9.9
333.202	73.39
333.414	71.34
333.627	61.1
333.84	50.86
334.053	-6.49
334.265	-98.64
334.478	42.67
334.691	26.28
334.903	18.09
335.116	-119.12
335.329	57
335.541	67.24
335.754	95.91
335.966	-47.44
336.179	54.95
336.392	65.19
336.604	93.87
336.817	97.96
337.029	65.19
337.242	26.28
337.454	126.63
337.667	20.14
337.88	151.21
338.092	69.29
338.305	114.34
338.517	30.38
338.729	128.68
338.942	130.73
339.154	-26.96
339.367	32.43
339.579	95.91
339.792	-0.34
340.004	57
340.217	91.82
340.429	38.57
340.641	7.85
340.854	-39.25
341.066	28.33
341.278	124.58
341.491	159.4
341.703	95.91
341.915	46.76
342.128	97.96
342.34	67.24
342.552	-29.01
342.764	44.71
342.977	40.62
343.189	120.49
343.401	54.95
343.613	-20.82
343.826	122.54
344.038	-10.58
344.25	28.33
344.462	59.05
344.674	100.01
344.886	91.82
345.099	1.71
345.311	95.91
345.523	13.99
345.735	48.81
345.947	50.86
346.159	59.05
346.371	89.77
346.583	30.38
346.795	243.37
347.007	7.85
347.219	147.11
347.431	-12.63
347.643	138.92
347.855	59.05
348.067	208.55
348.279	26.28
348.491	46.76
348.703	145.06
348.915	42.67
349.127	20.14
349.339	57
349.551	-45.4
349.763	134.82
349.975	28.33
350.187	83.63
350.399	110.25
350.61	136.87
350.822	-2.39
351.034	63.15
351.246	61.1
351.458	93.87
351.669	128.68
351.881	130.73
352.093	77.48
352.305	100.01
352.517	81.58
352.728	106.15
352.94	128.68
353.152	59.05
353.363	20.14
353.575	75.43
353.787	118.44
353.999	83.63
354.21	276.13
354.422	-4.44
354.633	79.53
354.845	40.62
355.057	87.72
355.268	97.96
355.48	75.43
355.692	7.85
355.903	-4.44
356.115	5.8
356.326	-147.8
356.538	126.63
356.749	118.44
356.961	159.4
357.172	11.95
357.384	-63.83
357.595	206.5
357.807	-8.53
358.018	7.85
358.23	69.29
358.441	112.3
358.653	89.77
358.864	57
359.075	1.71
359.287	138.92
359.498	120.49
359.709	97.96
359.921	59.05
360.132	57
360.344	-12.63
360.555	-4.44
360.766	63.15
360.977	83.63
361.189	120.49
361.4	13.99
361.611	222.89
361.823	59.05
362.034	38.57
362.245	18.09
362.456	147.11
362.667	147.11
362.879	-121.17
363.09	97.96
363.301	30.38
363.512	73.39
363.723	59.05
363.935	-16.73
364.146	186.02
364.357	32.43
364.568	122.54
364.779	-121.17
364.99	102.06
365.201	-16.73
365.412	153.26
365.623	-39.25
365.834	77.48
366.045	-0.34
366.256	134.82
366.467	128.68
366.678	89.77
366.889	165.54
367.1	20.14
367.311	108.2
367.522	100.01
367.733	110.25
367.944	136.87
368.155	36.52
368.366	134.82
368.577	134.82
368.788	91.82
368.999	-26.96
369.209	24.23
369.42	210.6
369.631	229.03
369.842	95.91
370.053	-33.11
370.264	36.52
370.474	-39.25
370.685	87.72
370.896	-4.44
371.107	134.82
371.317	44.71
371.528	-33.11
371.739	204.46
371.95	89.77
372.16	69.29
372.371	22.19
372.582	26.28
372.792	116.39
373.003	9.9
373.214	83.63
373.424	52.91
373.635	-16.73
373.846	149.16
374.056	89.77
374.267	32.43
374.477	71.34
374.688	3.75
374.898	97.96
375.109	73.39
375.319	85.67
375.53	71.34
375.74	89.77
375.951	34.47
376.161	61.1
376.372	73.39
376.582	32.43
376.793	110.25
377.003	48.81
377.214	-53.59
377.424	151.21
377.635	36.52
377.845	93.87
378.055	239.27
378.266	-14.68
378.476	7.85
378.686	83.63
378.897	114.34
379.107	102.06
379.317	79.53
379.528	83.63
379.738	104.11
379.948	42.67
380.158	73.39
380.369	48.81
380.579	61.1
380.789	36.52
380.999	153.26
381.21	124.58
381.42	204.46
381.63	48.81
381.84	54.95
382.05	57
382.261	108.2
382.471	153.26
382.681	1.71
382.891	124.58
383.101	175.78
383.311	-72.02
383.521	11.95
383.731	75.43
383.941	132.78
384.151	-2.39
384.361	69.29
384.571	124.58
384.781	100.01
384.991	198.31
385.201	183.98
385.411	97.96
385.621	102.06
385.831	54.95
386.041	69.29
386.251	46.76
386.461	145.06
386.671	30.38
386.881	93.87
387.091	-4.44
387.301	165.54
387.511	116.39
387.72	130.73
387.93	48.81
388.14	-57.68
388.35	118.44
388.56	79.53
388.769	69.29
388.979	9.9
389.189	-35.16
389.399	63.15
389.609	79.53
389.818	118.44
390.028	28.33
390.238	104.11
390.447	-14.68
390.657	106.15
390.867	95.91
391.076	-10.58
391.286	32.43
391.496	-35.16
391.705	38.57
391.915	126.63
392.125	122.54
392.334	1.71
392.544	212.65
392.753	40.62
392.963	-20.82
393.172	44.71
393.382	-6.49
393.591	237.22
393.801	132.78
394.01	71.34
394.22	85.67
394.429	77.48
394.639	18.09
394.848	85.67
395.058	16.04
395.267	97.96
395.477	100.01
395.686	40.62
395.895	124.58
396.105	183.98
396.314	22.19
396.524	67.24
396.733	-0.34
396.942	106.15
397.152	102.06
397.361	116.39
397.57	44.71
397.78	28.33
397.989	143.02
398.198	188.07
398.407	79.53
398.617	46.76
398.826	85.67
399.035	38.57
399.244	159.4
399.453	22.19
399.663	108.2
399.872	46.76
400.081	-14.68
400.29	136.87
400.499	-74.07
400.708	140.97
400.917	93.87
401.127	46.76
401.336	7.85
401.545	222.89
401.754	112.3
401.963	140.97
402.172	38.57
402.381	-16.73
402.59	22.19
402.799	71.34
403.008	57
403.217	81.58
403.426	24.23
403.635	-33.11
403.844	42.67
404.053	87.72
404.262	61.1
404.471	173.74
404.68	97.96
404.888	-10.58
405.097	28.33
405.306	65.19
405.515	93.87
405.724	112.3
405.933	157.35
406.142	36.52
406.35	157.35
406.559	-2.39
406.768	118.44
406.977	206.5
407.185	46.76
407.394	50.86
407.603	30.38
407.812	73.39
408.02	147.11
408.229	-47.44
408.438	104.11
408.646	-49.49
408.855	26.28
409.064	79.53
409.272	-57.68
409.481	16.04
409.69	11.95
409.898	-22.87
410.107	140.97
410.315	145.06
410.524	-37.2
410.733	93.87
410.941	18.09
411.15	108.2
411.358	112.3
411.567	163.5
411.775	-0.34
411.984	167.59
412.192	147.11
412.401	22.19
412.609	143.02
412.818	140.97
413.026	112.3
413.234	26.28
413.443	81.58
413.651	5.8
413.86	93.87
414.068	83.63
414.276	167.59
414.485	-2.39
414.693	151.21
414.901	143.02
415.11	77.48
415.318	79.53
415.526	75.43
415.734	140.97
415.943	44.71
416.151	200.36
416.359	42.67
416.567	95.91
416.776	149.16
416.984	118.44
417.192	145.06
417.4	-29.01
417.608	-16.73
417.817	52.91
418.025	143.02
418.233	169.64
418.441	-39.25
418.649	44.71
418.857	89.77
419.065	140.97
419.273	3.75
419.481	54.95
419.689	73.39
419.897	61.1
420.105	-53.59
420.313	188.07
420.521	159.4
420.729	157.35
420.937	48.81
421.145	-41.3
421.353	167.59
421.561	237.22
421.769	153.26
421.977	28.33
422.185	67.24
422.393	46.76
422.601	140.97
422.809	157.35
423.017	118.44
423.224	83.63
423.432	196.26
423.64	97.96
423.848	69.29
424.056	42.67
424.263	134.82
424.471	114.34
424.679	222.89
424.887	-26.96
425.094	165.54
425.302	69.29
425.51	48.81
425.718	69.29
425.925	77.48
426.133	22.19
426.341	317.09
426.548	28.33
426.756	63.15
426.964	136.87
427.171	20.14
427.379	165.54
427.586	104.11
427.794	87.72
428.001	194.22
428.209	120.49
428.417	157.35
428.624	128.68
428.832	214.7
429.039	81.58
429.247	110.25
429.454	83.63
429.662	245.41
429.869	71.34
430.076	245.41
430.284	167.59
430.491	259.75
430.699	233.13
430.906	190.12
431.114	140.97
431.321	183.98
431.528	81.58
431.736	159.4
431.943	161.45
432.15	188.07
432.358	249.51
432.565	272.04
432.772	83.63
432.979	175.78
433.187	110.25
433.394	192.17
433.601	140.97
433.808	269.99
434.016	292.52
434.223	392.87
434.43	251.56
434.637	372.39
434.844	306.85
435.052	261.8
435.259	341.67
435.466	315.05
435.673	280.23
435.88	353.96
436.087	390.82
436.294	372.39
436.501	380.58
436.708	329.38
436.915	329.38
437.122	433.83
437.329	331.43
437.537	392.87
437.743	372.39
437.95	439.97
438.157	380.58
438.364	437.92
438.571	370.34
438.778	491.17
438.985	489.12
439.192	507.55
439.399	497.32
439.606	505.51
439.813	564.9
440.02	720.54
440.227	630.43
440.433	659.1
440.64	552.61
440.847	519.84
441.054	669.34
441.261	810.65
441.467	609.95
441.674	593.57
441.881	827.04
442.088	724.64
442.294	790.17
442.501	859.81
442.708	911
442.914	818.85
443.121	954.01
443.328	878.24
443.534	1033.88
443.741	954.01
443.948	947.87
444.154	1017.5
444.361	1222.3
444.568	1183.38
444.774	1164.95
444.981	1095.32
445.187	1195.67
445.394	1365.65
445.6	1347.22
445.807	1420.95
446.013	1400.47
446.22	1408.66
446.426	1615.51
446.633	1633.94
446.839	1715.86
447.046	1617.55
447.252	1816.21
447.459	1912.46
447.665	1842.83
447.871	2061.96
448.078	2115.21
448.284	2100.87
448.491	2137.74
448.697	2383.49
448.903	2270.86
449.11	2457.22
449.316	2403.97
449.522	2526.85
449.728	2651.78
449.935	2795.14
450.141	2727.55
450.347	2913.92
450.553	2948.73
450.76	2909.82
450.966	3303.03
451.172	3475.06
451.378	3491.45
451.584	3565.17
451.791	3774.07
451.997	3829.36
452.203	4005.49
452.409	4365.93
452.615	4318.82
452.821	4154.99
453.027	4185.71
453.233	4898.4
453.44	4736.61
453.646	4947.55
453.852	5150.3
454.058	5295.71
454.264	5322.33
454.47	5729.88
454.676	5791.31
454.882	6417.99
455.088	6145.61
455.294	6270.54
455.5	6870.59
455.705	7036.48
455.911	7235.13
456.117	7403.07
456.323	7671.35
456.529	7704.12
456.735	8427.05
456.941	8551.98
457.147	8855.08
457.352	9178.65
457.558	9227.81
457.764	10110.48
457.97	10282.51
458.176	10692.1
458.381	11177.47
458.587	11419.13
458.793	11800.05
458.999	11886.07
459.204	13417.95
459.41	13796.82
459.616	13561.31
459.821	14214.61
460.027	15091.14
460.233	15787.45
460.438	15713.72
460.644	16887.21
460.85	16930.22
461.055	17378.72
461.261	18470.29
461.466	17837.47
461.672	18492.82
461.878	20800.88
462.083	20180.34
462.289	20929.9
462.494	21544.29
462.7	21785.95
462.905	22037.85
463.111	23397.7
463.316	24984.88
463.522	25384.23
463.727	26156.32
463.932	27151.63
464.138	27690.24
464.343	29379.82
464.549	29410.54
464.754	31456.46
464.959	31911.11
465.165	32787.64
465.37	32427.2
465.575	32619.7
465.781	34802.84
465.986	35601.55
466.191	35552.4
466.397	35746.95
466.602	34858.13
466.807	36736.12
467.012	37272.69
467.218	37854.31
467.423	37520.49
467.628	38915.16
467.833	41178.17
468.038	40385.6
468.244	39685.2
468.449	41317.43
468.654	40799.29
468.859	40643.65
469.064	40805.44
469.269	39844.94
469.474	39963.72
469.679	41243.7
469.885	39844.94
470.09	40709.18
470.295	40899.64
470.5	39982.15
470.705	39996.49
470.91	39205.97
471.115	38698.08
471.32	38878.3
471.525	39337.04
471.73	37911.66
471.935	37416.05
472.139	36457.6
472.344	36355.2
472.549	36052.1
472.754	35265.68
472.959	34712.73
473.164	33520.81
473.369	33105.07
473.574	34114.72
473.778	33406.12
473.983	32791.73
474.188	32265.41
474.393	30483.67
474.598	30364.89
474.802	29865.19
475.007	29777.12
475.212	29433.07
475.417	27792.64
475.621	27761.92
475.826	27426.06
476.031	27055.37
476.235	26279.19
476.44	26352.92
476.645	25742.63
476.849	25457.96
477.054	24896.81
477.259	24704.31
477.463	24427.83
477.668	23590.21
477.872	23862.59
478.077	22947.15
478.282	22424.92
478.486	22486.36
478.691	22048.09
478.895	21871.96
479.1	21542.24
479.304	21687.65
479.509	20884.84
479.713	20960.62
479.918	20692.33
480.122	20233.59
480.326	20288.89
480.531	20358.52
480.735	19830.14
480.94	19551.62
481.144	20145.53
481.348	19201.41
481.553	19152.26
481.757	18759.05
481.961	18904.46
482.166	19242.37
482.37	18847.12
482.574	18302.36
482.778	18574.74
482.983	18591.12
483.187	17937.82
483.391	18277.78
483.595	17933.72
483.8	17747.36
484.004	17698.2
484.208	17571.23
484.412	17141.16
484.616	17112.49
484.821	17155.49
485.025	16549.29
485.229	16844.2
485.433	16383.41
485.637	15990.2
485.841	15752.63
486.045	15683
486.249	15689.15
486.453	15259.07
486.657	15269.31
486.861	15125.96
487.065	14415.31
487.269	14509.52
487.473	13891.03
487.677	14288.34
487.881	14235.09
488.085	13686.23
488.289	13538.78
488.493	13096.42
488.697	13180.39
488.901	12789.22
489.105	12320.24
489.309	12260.85
489.512	12154.35
489.716	12004.85
489.92	11855.35
490.124	11582.97
490.328	11478.52
490.531	11077.12
490.735	10784.26
490.939	10661.38
491.143	10638.86
491.346	10352.14
491.55	10262.03
491.754	10133.01
491.958	9993.75
492.161	9692.69
492.365	9700.89
492.569	9399.84
492.772	9246.24
492.976	9186.85
493.18	9041.44
493.383	9162.27
493.587	8883.75
493.79	8885.8
493.994	8492.59
494.197	8474.15
494.401	8597.03
494.605	8392.23
494.808	8394.28
495.012	8416.81
495.215	8295.98
495.419	8269.36
495.622	7921.2
495.825	7992.88
496.029	7816.76
496.232	8281.64
496.436	8001.07
496.639	7945.78
496.843	7855.67
497.046	8074.8
497.249	8203.82
497.453	8011.31
497.656	7984.69
497.859	7886.39
498.063	7960.11
498.266	8195.63
498.469	7919.15
498.673	8003.12
498.876	7984.69
499.079	7884.34
499.282	7976.5
499.485	8375.85
499.689	8156.72
499.892	8295.98
500.095	8087.09
500.298	8476.2
500.501	8287.79
500.705	8619.56
500.908	8594.98
501.111	8578.6
501.314	8857.12
501.517	8928.8
501.72	8947.23
501.923	8842.79
502.126	8980
502.329	9315.87
502.532	9299.48
502.735	9508.38
502.938	9424.41
503.141	9461.27
503.344	9403.93
503.547	9868.82
503.75	9854.48
503.953	10083.86
504.156	10049.04
504.359	10268.17
504.562	10399.24
504.765	10700.3
504.968	10812.93
505.17	10827.27
505.373	11277.82
505.576	11367.93
505.779	11474.43
505.982	11546.11
506.185	12094.96
506.387	12160.5
506.59	12133.87
506.793	12310
506.996	12543.47
507.198	13190.63
507.401	13143.52
507.604	13182.43
507.807	13794.78
508.009	13712.86
508.212	14179.79
508.415	14368.21
508.617	14599.63
508.82	15011.27
509.022	15062.47
509.225	15777.21
509.428	15867.32
509.63	16235.95
509.833	16489.9
510.035	17171.88
510.238	17155.49
510.44	17284.51
510.643	18081.17
510.845	18365.84
511.048	18591.12
511.25	18918.79
511.453	19180.93
511.655	20358.52
511.858	20321.65
512.06	20809.07
512.262	21407.08
512.465	21779.81
512.667	22261.08
512.87	22621.52
513.072	23143.75
513.274	23684.42
513.477	24169.79
513.679	24653.11
513.881	25226.54
514.084	25812.26
514.286	26215.71
514.488	27002.13
514.69	27852.03
514.893	28015.87
515.095	28562.68
515.297	29310.19
515.499	29564.14
515.701	30291.16
515.904	31214.8
516.106	31499.47
516.308	31864
516.51	33092.79
516.712	33633.45
516.914	33832.1
517.116	34729.11
517.318	35357.84
517.52	35480.72
517.722	36189.31
517.925	36891.77
518.127	37954.66
518.329	38089.83
518.531	38730.84
518.733	39760.97
518.935	40535.1
519.136	40600.64
519.338	41043
519.54	41690.16
519.742	42148.9
519.944	42929.18
520.146	43858.96
520.348	44225.54
520.55	45007.87
520.752	44817.41
520.954	46144.49
521.155	45431.8
521.357	46578.66
521.559	47094.75
521.761	48038.86
521.963	47975.37
522.164	48452.55
522.366	48755.65
522.568	49497.02
522.77	49707.96
522.971	49834.93
523.173	49470.39
523.375	50641.83
523.576	50334.63
523.778	50496.42
523.98	51057.57
524.181	51819.41
524.383	51155.87
524.584	51772.31
524.786	51411.87
524.988	51051.42
525.189	52280.2
525.391	51880.85
525.592	52151.18
525.794	51813.27
525.995	51348.38
526.197	51295.13
526.398	51403.67
526.6	51805.08
526.801	51434.39
527.003	51016.61
527.204	51084.19
527.406	51190.69
527.607	50701.22
527.808	50664.36
528.01	50000.82
528.211	49847.22
528.412	50449.32
528.614	49638.33
528.815	49071.04
529.016	49533.88
529.218	48301
529.419	48071.63
529.62	47277.02
529.822	47186.91
530.023	46515.17
530.224	46511.08
530.425	46115.82
530.626	44639.23
530.828	44452.87
531.029	45151.23
531.23	43760.65
531.431	43369.49
531.632	42961.95
531.833	42355.75
532.035	42075.18
532.236	41311.28
532.437	41118.78
532.638	40543.3
532.839	39828.55
533.04	39922.76
533.241	38534.24
533.442	39101.53
533.643	37977.19
533.844	37540.97
534.045	37287.03
534.246	36367.49
534.447	36383.87
534.648	35912.84
534.849	35501.2
535.05	34499.74
535.251	34247.84
535.451	33590.44
535.652	33094.83
535.853	33035.44
536.054	32335.04
536.255	32318.65
536.456	31278.29
536.657	31487.18
536.857	30616.79
537.058	30047.46
537.259	30014.69
537.46	29658.34
537.66	28896.5
537.861	28880.11
538.062	28484.86
538.263	28122.37
538.463	27546.89
538.664	27489.54
538.865	26967.31
539.065	26932.5
539.266	26225.95
539.466	26002.72
539.667	25724.19
539.868	25775.39
540.068	24909.1
540.269	24839.47
540.469	24769.84
540.67	23915.84
540.87	24165.69
541.071	23729.47
541.271	23686.47
541.472	23237.96
541.672	22943.05
541.873	22642
542.073	21984.6
542.274	22119.77
542.474	21960.03
542.675	21503.33
542.875	21267.81
543.075	21333.35
543.276	20223.35
543.476	20508.02
543.676	20458.87
543.877	20100.47
544.077	20213.11
544.277	19840.38
544.478	19725.69
544.678	19486.08
544.878	19211.65
545.078	18840.97
545.279	18636.17
545.479	18355.6
545.679	18234.77
545.879	18107.8
546.079	17843.61
546.28	17710.49
546.48	17472.93
546.68	17429.92
546.88	17085.86
547.08	16942.5
547.28	16580.01
547.48	16252.34
547.68	16416.18
547.88	16213.43
548.081	16027.06
548.281	15476.16
548.481	15244.74
548.681	15394.24
548.881	15121.86
549.081	14874.06
549.28	14994.89
549.48	14259.67
549.68	14151.12
549.88	14077.4
550.08	13719
550.28	13882.84
550.48	13446.62
550.68	13379.04
550.88	13020.64
551.08	12983.78
551.279	12807.66
551.479	12565.99
551.679	12500.46
551.879	12273.14
552.079	12054
552.278	12111.35
552.478	11888.12
552.678	11535.87
552.878	11523.58
553.077	11265.53
553.277	10925.57
553.477	10761.73
553.676	10814.98
553.876	10550.79
554.076	10468.87
554.275	10278.41
554.475	9840.15
554.674	9932.31
554.874	9813.52
555.074	9651.74
555.273	9586.2
555.473	9416.22
555.672	9240.09
555.872	9070.11
556.071	8994.34
556.271	9008.67
556.47	8633.89
556.67	8515.11
556.869	8265.26
557.068	8189.49
557.268	8089.14
557.467	7990.83
557.667	7747.12
557.866	7607.86
558.065	7523.9
558.265	7423.55
558.464	7269.95
558.663	7411.26
558.863	7048.77
559.062	7077.44
559.261	6673.99
559.461	6991.42
559.66	6553.16
559.859	6573.64
560.058	6291.02
560.258	6297.16
560.457	6133.33
560.656	6276.68
560.855	5906
561.054	6049.36
561.253	5785.17
561.453	5860.95
561.652	5854.8
561.851	5668.44
562.05	5492.31
562.249	5465.69
562.448	5480.02
562.647	5316.19
562.846	5178.97
563.045	5234.27
563.244	5080.67
563.443	5193.31
563.642	4900.45
563.841	4802.15
564.04	4839.01
564.239	4793.95
564.438	4689.51
564.637	4619.88
564.836	4580.96
565.035	4376.17
565.234	4306.54
565.432	4322.92
565.631	4245.1
565.83	4243.05
566.029	4142.7
566.228	4226.67
566.427	4023.92
566.625	3722.87
566.824	3948.14
567.023	3898.99
567.222	3778.16
567.42	3769.97
567.619	3708.53
567.818	3778.16
568.016	3808.88
568.215	3688.05
568.414	3745.39
568.612	3454.58
568.811	3438.2
569.01	3352.18
569.208	3409.53
569.407	3511.93
569.605	3294.84
569.804	3165.82
570.002	3210.87
570.201	3012.22
570.4	3065.47
570.598	2958.97
570.797	2938.49
570.995	2926.21
571.193	2872.96
571.392	2909.82
571.59	2731.65
571.789	2922.11
571.987	2733.7
572.186	2809.47
572.384	2621.06
572.582	2700.93
572.781	2739.84
572.979	2436.74
573.177	2344.58
573.376	2526.85
573.574	2535.04
573.772	2461.32
573.971	2268.81
574.169	2309.77
574.367	2299.53
574.565	2248.33
574.763	2215.56
574.962	2252.42
575.16	2143.88
575.358	2049.68
575.556	2074.25
575.754	2125.45
575.952	2008.72
576.151	2104.97
576.349	2016.91
576.547	1832.59
576.745	2006.67
576.943	1924.75
577.141	1855.12
577.339	1592.98
577.537	1781.39
577.735	1810.06
577.933	1787.54
578.131	1681.04
578.329	1808.02
578.527	1664.66
578.725	1697.42
578.923	1500.82
579.121	1588.88
579.319	1552.02
579.516	1529.49
579.714	1629.84
579.912	1363.61
580.11	1351.32
580.308	1382.04
580.506	1406.61
580.704	1322.65
580.901	1312.41
581.099	1463.96
581.297	1310.36
581.495	1359.51
581.692	1384.09
581.89	1365.65
582.088	1222.3
582.285	1228.44
582.483	1173.14
582.681	1298.07
582.878	1187.48
583.076	1195.67
583.274	1265.3
583.471	1212.06
583.669	1205.91
583.866	1087.13
584.064	1044.12
584.262	990.88
584.459	1058.46
584.657	1095.32
584.854	972.44
585.052	1132.19
585.249	1076.89
585.447	935.58
585.644	933.53
585.841	1107.61
586.039	986.78
586.236	1095.32
586.434	931.48
586.631	896.67
586.828	878.24
587.026	908.96
587.223	911
587.42	843.42
587.618	816.8
587.815	890.53
588.012	884.38
588.21	841.37
588.407	929.44
588.604	870.05
588.801	794.27
588.999	796.32
589.196	880.29
589.393	779.93
589.59	808.61
589.787	784.03
589.984	781.98
590.182	818.85
590.379	755.36
590.576	814.75
590.773	683.68
590.97	757.41
591.167	812.7
591.364	718.5
591.561	679.58
591.758	849.57
591.955	792.22
592.152	665.25
592.349	728.74
592.546	695.97
592.743	677.54
592.94	663.2
593.137	769.69
593.334	698.02
593.531	786.08
593.727	732.83
593.924	810.65
594.121	700.06
594.318	675.49
594.515	765.6
594.712	898.72
594.908	728.74
595.105	659.1
595.302	755.36
595.499	779.93
595.696	888.48
595.892	763.55
596.089	896.67
596.286	775.84
596.482	888.48
596.679	927.39
596.876	839.33
597.072	972.44
597.269	874.14
597.466	884.38
597.662	984.73
597.859	833.18
598.055	1085.08
598.252	1058.46
598.448	1109.66
598.645	1226.39
598.841	1220.25
599.038	1199.77
599.234	1437.33
599.431	1316.5
599.627	1443.48
599.824	1449.62
600.02	1347.22
600.217	1554.07
600.413	1498.77
600.609	1615.51
600.806	1988.24
601.002	1742.48
601.198	1859.21
601.395	1918.61
601.591	2021
601.787	2025.1
601.984	2168.46
602.18	2227.85
602.376	2201.23
602.572	2326.15
602.769	2440.84
602.965	2496.13
603.161	2565.76
603.357	2567.81
603.553	2891.39
603.75	2819.71
603.946	2920.06
604.142	3102.33
604.338	3305.08
604.534	3280.5
604.73	3307.13
604.926	3444.34
605.122	3692.15
605.318	3659.38
605.514	3780.21
605.71	3851.89
605.906	4167.28
606.102	4077.16
606.298	4279.91
606.494	4419.18
606.69	4679.27
606.886	4810.34
607.082	4730.47
607.278	4990.56
607.474	5176.92
607.67	5477.98
607.866	5248.6
608.062	5746.26
608.257	5772.88
608.453	5731.92
608.649	5975.63
608.845	5975.63
609.041	6217.29
609.236	6534.73
609.432	6768.2
609.628	6766.15
609.824	7228.99
610.019	7155.26
610.215	7247.42
610.411	7788.08
610.606	7935.54
610.802	8009.26
610.998	8107.57
611.193	8394.28
611.389	8470.06
611.584	8928.8
611.78	8998.43
611.976	9137.7
612.171	9870.87
612.367	9844.24
612.562	9897.49
612.758	10432.01
612.953	10429.96
613.149	10855.94
613.344	11040.26
613.539	11544.06
613.735	11795.96
613.93	12006.9
614.126	12344.81
614.321	12838.37
614.517	13155.81
614.712	13393.37
614.907	13784.54
615.103	14050.77
615.298	14345.68
615.493	14888.39
615.688	15156.68
615.884	15689.15
616.079	15599.04
616.274	16489.9
616.47	16782.76
616.665	17141.16
616.86	17622.43
617.055	17991.06
617.25	18126.23
617.445	18861.45
617.641	19029.38
617.836	19873.15
618.031	20200.82
618.226	20872.56
618.421	21532
618.616	21929.31
618.811	21947.74
619.006	23160.14
619.201	22869.33
619.396	24212.79
619.591	24034.62
619.786	25105.71
619.981	25013.55
620.176	26127.64
620.371	26365.21
620.566	26823.95
620.761	27196.68
620.956	28235
621.151	28560.63
621.346	29601
621.541	29234.41
621.735	30614.74
621.93	30528.73
622.125	31360.2
622.32	31212.75
622.515	32492.73
622.709	33168.56
622.904	33604.78
623.099	34137.25
623.294	35007.64
623.488	35085.46
623.683	36326.53
623.878	36516.99
624.072	36791.42
624.267	37821.55
624.462	38249.57
624.656	38544.48
624.851	39640.14
625.046	39677.01
625.24	40533.06
625.435	40657.98
625.629	41276.47
625.824	42083.37
626.018	42814.49
626.213	42664.99
626.407	43428.88
626.602	43441.17
626.796	44338.18
626.991	44536.84
627.185	45216.76
627.38	45306.87
627.574	45908.97
627.768	45622.26
627.963	46058.48
628.157	46193.64
628.352	46760.93
628.546	45960.17
628.74	46937.05
628.935	46470.12
629.129	46490.6
629.323	46353.38
629.517	45831.15
629.712	45908.97
629.906	45446.13
630.1	44964.86
630.294	44770.3
630.489	43613.2
630.683	44258.31
630.877	42753.05
631.071	42157.1
631.265	41964.59
631.459	40580.16
631.653	39984.2
631.848	39189.59
632.042	38616.16
632.236	37796.97
632.43	36467.84
632.624	35761.29
632.818	34391.2
633.012	33432.75
633.206	32195.78
633.4	31536.33
633.594	30323.93
633.788	29867.23
633.982	28251.39
634.176	27620.61
634.369	26088.73
634.563	25394.47
634.757	24536.37
634.951	23870.78
635.145	22658.38
635.339	21679.46
635.533	20876.65
635.726	20217.21
635.92	19457.41
636.114	18478.48
636.308	17814.94
636.501	17266.08
636.695	16457.14
636.889	15519.17
637.083	15054.28
637.276	14388.69
637.47	13942.23
637.664	13250.02
637.857	12977.64
638.051	12479.98
638.244	11773.43
638.438	11406.84
638.632	10925.57
638.825	10368.52
639.019	10206.73
639.212	9633.3
639.406	9319.96
639.599	8850.98
639.793	8463.91
639.986	8121.9
640.18	8140.33
640.373	7663.16
640.567	7204.41
640.76	7059.01
640.954	6884.93
641.147	6491.72
641.34	6274.63
641.534	6131.28
641.727	5891.66
641.92	5674.58
642.114	5486.17
642.307	5088.86
642.5	5107.29
642.694	5008.99
642.887	4726.37
643.08	4521.57
643.273	4345.45
643.467	4216.43
643.66	3939.95
643.853	3870.32
644.046	3759.73
644.239	3620.47
644.432	3368.57
644.626	3260.02
644.819	3227.26
645.012	3036.8
645.205	3092.09
645.398	2932.35
645.591	2786.94
645.784	2522.76
645.977	2399.88
646.17	2524.8
646.363	2391.69
646.556	2315.91
646.749	2104.97
646.942	2109.07
647.135	2006.67
647.328	1863.31
647.521	1865.36
647.714	1722
647.907	1740.43
648.099	1668.75
648.292	1666.71
648.485	1658.51
648.678	1439.38
648.871	1353.37
649.064	1345.17
649.256	1234.58
649.449	1259.16
649.642	1101.47
649.835	1111.71
650.027	1056.41
650.22	1185.43
650.413	1111.71
650.605	994.97
650.798	949.92
650.991	863.9
651.183	906.91
651.376	964.25
651.568	921.24
651.761	917.15
651.954	829.09
652.146	765.6
652.339	933.53
652.531	853.66
652.724	638.62
652.916	646.82
653.109	636.58
653.301	779.93
653.494	714.4
653.686	603.81
653.879	745.12
654.071	634.53
654.263	552.61
654.456	474.79
654.648	646.82
654.84	540.32
655.033	577.19
655.225	683.68
655.417	423.59
655.61	585.38
655.802	480.93
655.994	517.79
656.186	392.87
656.379	482.98
656.571	468.64
656.763	460.45
656.955	308.9
657.148	425.64
657.34	439.97
657.532	337.57
657.724	419.49
657.916	341.67
658.108	392.87
658.3	378.53
658.492	360.1
658.684	231.08
658.876	364.2
659.068	220.84
659.26	247.46
659.452	229.03
659.644	298.66
659.836	480.93
660.028	370.34
660.22	226.98
660.412	229.03
660.604	231.08
660.796	220.84
660.988	390.82
661.18	239.27
661.372	360.1
661.563	288.42
661.755	231.08
661.947	132.78
662.139	175.78
662.331	286.37
662.522	231.08
662.714	143.02
662.906	130.73
663.097	169.64
663.289	157.35
663.481	97.96
663.673	198.31
663.864	284.33
664.056	294.57
664.247	130.73
664.439	284.33
664.631	212.65
664.822	179.88
665.014	155.3
665.205	143.02
665.397	159.4
665.588	175.78
665.78	280.23
665.971	261.8
666.163	181.93
666.354	188.07
666.546	100.01
666.737	120.49
666.929	116.39
667.12	167.59
667.311	222.89
667.503	181.93
667.694	200.36
667.885	257.7
668.077	259.75
668.268	110.25
668.459	196.26
668.651	235.18
668.842	171.69
669.033	81.58
669.224	52.91
669.416	274.09
669.607	161.45
669.798	28.33
669.989	220.84
670.18	163.5
670.371	208.55
670.563	155.3
670.754	253.61
670.945	222.89
671.136	175.78
671.327	73.39
671.518	233.13
671.709	278.18
671.9	175.78
672.091	267.94
672.282	192.17
672.473	179.88
672.664	118.44
672.855	171.69
673.046	315.05
673.237	259.75
673.428	155.3
673.619	280.23
673.809	145.06
674	288.42
674.191	204.46
674.382	112.3
674.573	188.07
674.764	140.97
674.954	263.85
675.145	120.49
675.336	206.5
675.527	102.06
675.717	114.34
675.908	163.5
676.099	140.97
676.289	224.94
676.48	186.02
676.671	245.41
676.861	245.41
677.052	200.36
677.243	226.98
677.433	145.06
677.624	231.08
677.814	192.17
678.005	147.11
678.195	181.93
678.386	143.02
678.576	151.21
678.767	44.71
678.957	200.36
679.148	237.22
679.338	306.85
679.529	255.65
679.719	249.51
679.909	317.09
680.1	368.29
680.29	276.13
680.481	173.74
680.671	241.32
680.861	229.03
681.052	212.65
681.242	163.5
681.432	239.27
681.622	249.51
681.813	169.64
682.003	220.84
682.193	143.02
682.383	274.09
682.573	153.26
682.764	276.13
682.954	265.89
683.144	333.48
683.334	280.23
683.524	212.65
683.714	280.23
683.904	372.39
684.094	251.56
684.284	165.54
684.474	401.06
684.664	321.19
684.854	231.08
685.044	204.46
685.234	214.7
685.424	229.03
685.614	169.64
685.804	278.18
685.994	327.33
686.184	155.3
686.374	296.61
686.564	302.76
686.753	261.8
686.943	177.83
687.133	249.51
687.323	233.13
687.513	282.28
687.702	183.98
687.892	292.52
688.082	276.13
688.272	274.09
688.461	251.56
688.651	308.9
688.841	310.95
689.03	274.09
689.22	192.17
689.41	280.23
689.599	222.89
689.789	192.17
689.979	362.15
690.168	294.57
690.358	317.09
690.547	269.99
690.737	183.98
690.926	327.33
691.116	212.65
691.305	298.66
691.495	308.9
691.684	110.25
691.874	229.03
692.063	190.12
692.252	335.53
692.442	220.84
692.631	181.93
692.82	198.31
693.01	204.46
693.199	145.06
693.388	292.52
693.578	306.85
693.767	280.23
693.956	310.95
694.146	204.46
694.335	251.56
694.524	159.4
694.713	292.52
694.902	208.55
695.092	161.45
695.281	321.19
695.47	218.79
695.659	138.92
695.848	200.36
696.037	138.92
696.226	237.22
696.415	233.13
696.604	302.76
696.793	269.99
696.982	128.68
697.171	300.71
697.36	140.97
697.549	118.44
697.738	188.07
697.927	204.46
698.116	145.06
698.305	235.18
698.494	220.84
698.683	210.6
698.872	392.87
699.061	239.27
699.25	167.59
699.438	255.65
699.627	216.74
699.816	319.14
700.005	140.97
700.193	149.16
700.382	200.36
700.571	280.23
700.76	267.94
700.948	308.9
701.137	265.89
701.326	218.79
701.514	130.73
701.703	147.11
701.892	259.75
702.08	315.05
702.269	214.7
702.457	151.21
702.646	183.98
702.834	192.17
703.023	276.13
703.212	315.05
703.4	218.79
703.589	188.07
703.777	145.06
703.965	224.94
704.154	186.02
704.342	69.29
704.531	245.41
704.719	196.26
704.907	272.04
705.096	145.06
705.284	218.79
705.472	212.65
705.661	218.79
705.849	284.33
706.037	192.17
706.226	210.6
706.414	147.11
706.602	83.63
706.79	278.18
706.979	128.68
707.167	265.89
707.355	69.29
707.543	292.52
707.731	245.41
707.919	226.98
708.107	237.22
708.296	161.45
708.484	59.05
708.672	226.98
708.86	243.37
709.048	274.09
709.236	110.25
709.424	255.65
709.612	239.27
709.8	177.83
709.988	255.65
710.176	216.74
710.364	343.72
710.551	183.98
710.739	214.7
710.927	138.92
711.115	231.08
711.303	296.61
711.491	306.85
711.679	140.97
711.866	323.24
712.054	218.79
712.242	278.18
712.43	292.52
712.617	204.46
712.805	173.74
712.993	284.33
713.181	89.77
713.368	214.7
713.556	165.54
713.744	157.35
713.931	337.57
714.119	333.48
714.306	198.31
714.494	122.54
714.682	179.88
714.869	132.78
715.057	237.22
715.244	181.93
715.432	226.98
715.619	212.65
715.807	237.22
715.994	220.84
716.182	222.89
716.369	292.52
716.556	241.32
716.744	95.91
716.931	208.55
717.119	366.25
717.306	171.69
717.493	310.95
717.681	167.59
717.868	175.78
718.055	188.07
718.242	259.75
718.43	190.12
718.617	349.86
718.804	237.22
718.991	335.53
719.179	272.04
719.366	239.27
719.553	265.89
719.74	210.6
719.927	310.95
720.114	310.95
720.301	235.18
720.488	245.41
720.676	175.78
720.863	374.44
721.05	376.48
721.237	247.46
721.424	294.57
721.611	292.52
721.798	138.92
721.985	161.45
722.172	243.37
722.358	200.36
722.545	280.23
722.732	261.8
722.919	380.58
723.106	263.85
723.293	235.18
723.48	208.55
723.667	179.88
723.853	362.15
724.04	356.01
724.227	304.81
724.414	278.18
724.6	241.32
724.787	358.05
724.974	349.86
725.161	321.19
725.347	237.22
725.534	282.28
725.72	267.94
725.907	257.7
726.094	370.34
726.28	206.5
726.467	319.14
726.653	202.41
726.84	466.6
727.027	380.58
727.213	308.9
727.4	274.09
727.586	263.85
727.773	329.38
727.959	269.99
728.145	294.57
728.332	257.7
728.518	259.75
728.705	358.05
728.891	362.15
729.077	341.67
729.264	233.13
729.45	321.19
729.636	399.01
729.823	294.57
730.009	396.96
730.195	329.38
730.382	396.96
730.568	290.47
730.754	356.01
730.94	284.33
731.126	341.67
731.313	407.2
731.499	325.29
731.685	405.16
731.871	403.11
732.057	325.29
732.243	403.11
732.429	321.19
732.615	439.97
732.801	394.92
732.987	325.29
733.173	317.09
733.359	321.19
733.545	401.06
733.731	255.65
733.917	454.31
734.103	356.01
734.289	390.82
734.475	272.04
734.661	448.16
734.847	399.01
735.033	296.61
735.219	341.67
735.404	366.25
735.59	409.25
735.776	335.53
735.962	396.96
736.148	437.92
736.333	487.08
736.519	349.86
736.705	388.77
736.89	349.86
737.076	378.53
737.262	329.38
737.447	362.15
737.633	310.95
737.819	442.02
738.004	442.02
738.19	390.82
738.375	360.1
738.561	446.12
738.747	474.79
738.932	353.96
739.118	515.75
739.303	458.4
739.489	413.35
739.674	366.25
739.859	372.39
740.045	394.92
740.23	409.25
740.416	282.28
740.601	360.1
740.786	421.54
740.972	284.33
741.157	360.1
741.342	265.89
741.528	267.94
741.713	511.65
741.898	368.29
742.084	341.67
742.269	378.53
742.454	448.16
742.639	446.12
742.824	392.87
743.01	509.6
743.195	491.17
743.38	386.72
743.565	331.43
743.75	278.18
743.935	464.55
744.12	538.27
744.305	325.29
744.49	276.13
744.675	343.72
744.86	351.91
745.045	466.6
745.23	421.54
745.415	366.25
745.6	454.31
745.785	394.92
745.97	528.03
746.155	503.46
746.34	403.11
746.525	333.48
746.71	548.51
746.895	233.13
747.079	233.13
747.264	347.81
747.449	495.27
747.634	495.27
747.819	435.88
748.003	310.95
748.188	259.75
748.373	364.2
748.557	323.24
748.742	325.29
748.927	386.72
749.111	286.37
749.296	343.72
749.481	403.11
749.665	319.14
749.85	255.65
750.034	368.29
750.219	298.66
750.404	200.36
750.588	331.43
750.773	313
750.957	288.42
751.141	366.25
751.326	407.2
751.51	302.76
751.695	276.13
751.879	286.37
752.064	431.78
752.248	306.85
752.432	403.11
752.617	362.15
752.801	298.66
752.985	286.37
753.17	411.3
753.354	280.23
753.538	237.22
753.722	278.18
753.907	249.51
754.091	272.04
754.275	337.57
754.459	212.65
754.643	265.89
754.828	323.24
755.012	333.48
755.196	206.5
755.38	368.29
755.564	302.76
755.748	249.51
755.932	366.25
756.116	425.64
756.3	315.05
756.484	220.84
756.668	274.09
756.852	181.93
757.036	247.46
757.22	394.92
757.404	143.02
757.588	208.55
757.772	282.28
757.956	210.6
758.14	317.09
758.323	163.5
758.507	243.37
758.691	167.59
758.875	239.27
759.059	290.47
759.242	220.84
759.426	159.4
759.61	224.94
759.794	194.22
759.977	261.8
760.161	394.92
760.345	292.52
760.528	366.25
760.712	306.85
760.895	294.57
761.079	167.59
761.263	126.63
761.446	165.54
761.63	192.17
761.813	329.38
761.997	100.01
762.18	175.78
762.364	216.74
762.547	44.71
762.731	181.93
762.914	222.89
763.098	208.55
763.281	153.26
763.464	147.11
763.648	274.09
763.831	104.11
764.015	106.15
764.198	282.28
764.381	153.26
764.564	161.45
764.748	257.7
764.931	175.78
765.114	204.46
765.297	300.71
765.481	104.11
765.664	151.21
765.847	220.84
766.03	313
766.213	130.73
766.397	226.98
766.58	52.91
766.763	239.27
766.946	177.83
767.129	118.44
767.312	138.92
767.495	81.58
767.678	85.67
767.861	163.5
768.044	200.36
768.227	112.3
768.41	151.21
768.593	177.83
768.776	124.58
768.959	179.88
769.142	335.53
769.324	202.41
769.507	153.26
769.69	169.64
769.873	149.16
770.056	310.95
770.239	165.54
770.421	161.45
770.604	183.98
770.787	157.35
770.97	145.06
771.152	140.97
771.335	163.5
771.518	26.28
771.7	210.6
771.883	261.8
772.066	75.43
772.248	163.5
772.431	239.27
772.613	102.06
772.796	120.49
772.978	124.58
773.161	224.94
773.343	126.63
773.526	46.76
773.708	-2.39
773.891	71.34
774.073	106.15
774.256	110.25
774.438	306.85
774.621	108.2
774.803	186.02
774.985	89.77
775.168	179.88
775.35	196.26
775.532	151.21
775.715	50.86
775.897	186.02
776.079	-0.34
776.261	85.67
776.444	93.87
776.626	75.43
776.808	110.25
776.99	-26.96
777.173	196.26
777.355	91.82
777.537	102.06
777.719	102.06
777.901	61.1
778.083	132.78
778.265	28.33
778.447	145.06
778.629	140.97
778.811	159.4
778.993	118.44
779.175	206.5
779.357	89.77
779.539	120.49
779.721	132.78
779.903	140.97
780.085	59.05
780.267	73.39
780.449	95.91
780.631	210.6
780.812	132.78
780.994	79.53
781.176	59.05
781.358	38.57
781.54	114.34
781.721	83.63
781.903	124.58
782.085	38.57
782.267	143.02
782.448	36.52
782.63	22.19
782.812	116.39
782.993	138.92
783.175	186.02
783.357	36.52
783.538	140.97
783.72	75.43
783.901	42.67
784.083	57
784.264	79.53
784.446	-12.63
784.627	54.95
784.809	102.06
784.99	28.33
785.172	122.54
785.353	112.3
785.535	75.43
785.716	44.71
785.897	48.81
786.079	36.52
786.26	69.29
786.441	140.97
786.623	26.28
786.804	44.71
786.985	147.11
787.167	126.63
787.348	57
787.529	81.58
787.71	192.17
787.891	114.34
788.073	-24.92
788.254	50.86
788.435	151.21
788.616	108.2
788.797	59.05
788.978	69.29
789.159	-16.73
789.34	128.68
789.522	50.86
789.703	20.14
789.884	136.87
790.065	97.96
790.246	120.49
790.427	-8.53
790.607	173.74
790.788	173.74
790.969	9.9
791.15	77.48
791.331	69.29
791.512	95.91
791.693	-22.87
791.874	63.15
792.054	190.12
792.235	89.77
792.416	26.28
792.597	48.81
792.778	81.58
792.958	102.06
793.139	59.05
793.32	71.34
793.5	3.75
793.681	106.15
793.862	112.3
794.042	79.53
794.223	-55.64
794.404	36.52
794.584	-22.87
794.765	24.23
794.945	22.19
795.126	95.91
795.306	81.58
795.487	77.48
795.667	79.53
795.848	65.19
796.028	36.52
796.209	-31.06
796.389	81.58
796.57	65.19
796.75	3.75
796.93	-16.73
797.111	-22.87
797.291	34.47
797.471	75.43
797.652	83.63
797.832	-76.12
798.012	183.98
798.192	-12.63
798.373	-26.96
798.553	3.75
798.733	36.52
798.913	38.57
799.093	52.91
799.274	93.87
799.454	42.67
799.634	110.25
799.814	46.76
799.994	132.78
800.174	89.77
800.354	50.86
800.534	-53.59
800.714	40.62
800.894	32.43
801.074	-51.54
801.254	-82.26
801.434	196.26
801.614	48.81
801.794	-18.77
801.974	1896.08
802.154	69.29
802.334	73.39
802.514	-14.68
802.693	61.1
802.873	-31.06
803.053	95.91
803.233	75.43
803.413	-0.34
803.592	100.01
803.772	-16.73
803.952	116.39
804.131	32.43
804.311	114.34
804.491	116.39
804.67	-39.25
804.85	-78.16
805.03	161.45
805.209	116.39
805.389	61.1
805.568	77.48
805.748	18.09
805.928	57
806.107	118.44
806.287	63.15
806.466	71.34
806.646	16.04
806.825	28.33
807.004	30.38
807.184	71.34
807.363	140.97
807.543	9.9
807.722	1.71
807.901	112.3
808.081	116.39
808.26	-47.44
808.439	93.87
808.619	16.04
808.798	-78.16
808.977	67.24
809.156	122.54
809.336	16.04
809.515	16.04
809.694	-39.25
809.873	54.95
810.052	44.71
810.231	54.95
810.411	79.53
810.59	169.64
810.769	1.71
810.948	44.71
811.127	-102.74
811.306	1.71
811.485	28.33
811.664	110.25
811.843	100.01
812.022	13.99
812.201	73.39
812.38	-18.77
812.559	-39.25
812.737	114.34
812.916	-72.02
813.095	40.62
813.274	48.81
813.453	28.33
813.632	69.29
813.811	130.73
813.989	-76.12
814.168	40.62
814.347	-61.78
814.526	63.15
814.704	194.22
814.883	83.63
815.062	-123.22
815.24	151.21
815.419	-14.68
815.598	52.91
815.776	-4.44
815.955	-43.35
816.133	-84.31
816.312	36.52
816.49	-16.73
816.669	67.24
816.847	-10.58
817.026	20.14
817.204	-94.55
817.383	-6.49
817.561	-53.59
817.74	26.28
817.918	46.76
818.097	11.95
818.275	-12.63
818.453	79.53
818.632	77.48
818.81	-35.16
818.988	11.95
819.167	-20.82
819.345	40.62
819.523	-49.49
819.701	89.77
819.879	138.92
820.058	65.19
820.236	7.85
820.414	93.87
820.592	26.28
820.77	7.85
820.948	1.71
821.127	-108.88
821.305	30.38
821.483	-49.49
821.661	134.82
821.839	-61.78
822.017	-14.68
822.195	-33.11
822.373	65.19
822.551	81.58
822.729	54.95
822.907	16.04
823.085	-18.77
823.262	69.29
823.44	32.43
823.618	91.82
823.796	120.49
823.974	1.71
824.152	1.71
824.329	-18.77
824.507	-8.53
824.685	40.62
824.863	75.43
825.04	-10.58
825.218	28.33
825.396	-14.68
825.574	65.19
825.751	73.39
825.929	81.58
826.107	-22.87
826.284	-22.87
826.462	36.52
826.639	-0.34
826.817	-61.78
826.994	-20.82
827.172	-76.12
827.349	85.67
827.527	20.14
827.704	-18.77
827.882	50.86
828.059	-16.73
828.237	50.86
828.414	89.77
828.591	-92.5
828.769	-10.58
828.946	13.99
829.124	73.39
829.301	157.35
829.478	28.33
829.655	79.53
829.833	100.01
830.01	-31.06
830.187	42.67
830.364	40.62
830.542	104.11
830.719	97.96
830.896	114.34
831.073	22.19
831.25	75.43
831.427	65.19
831.604	32.43
831.782	-8.53
831.959	112.3
832.136	50.86
832.313	93.87
832.49	16.04
832.667	32.43
832.844	30.38
833.021	65.19
833.198	95.91
833.374	1.71
833.551	-4.44
833.728	-37.2
833.905	61.1
834.082	-90.45
834.259	30.38
834.436	89.77
834.612	9.9
834.789	104.11
834.966	16.04
835.143	85.67
835.319	-82.26
835.496	-6.49
835.673	102.06
835.85	59.05
836.026	59.05
836.203	65.19
836.38	-29.01
836.556	-86.36
836.733	-4.44
836.909	157.35
837.086	65.19
837.262	-35.16
837.439	-6.49
837.616	-88.4
837.792	20.14
837.968	-20.82
838.145	-43.35
838.321	59.05
838.498	44.71
838.674	93.87
838.851	130.73
839.027	46.76
839.203	52.91
839.38	28.33
839.556	81.58
839.732	7.85
839.909	7.85
840.085	71.34
840.261	-6.49
840.437	42.67
840.614	63.15
840.79	69.29
840.966	95.91
841.142	95.91
841.318	11.95
841.494	20.14
841.671	159.4
841.847	-65.88
842.023	16.04
842.199	46.76
842.375	63.15
842.551	-121.17
842.727	-20.82
842.903	157.35
843.079	-86.36
843.255	114.34
843.431	-29.01
843.607	85.67
843.783	-135.51
843.959	97.96
844.134	-6.49
844.31	118.44
844.486	-55.64
844.662	5.8
844.838	77.48
845.013	26.28
845.189	143.02
845.365	24.23
845.541	-0.34
845.716	13.99
845.892	73.39
846.068	-22.87
846.244	-22.87
846.419	30.38
846.595	-33.11
846.77	-69.97
846.946	83.63
847.122	24.23
847.297	-51.54
847.473	147.11
847.648	-78.16
847.824	-24.92
847.999	-123.22
848.175	-55.64
848.35	57
848.526	89.77
848.701	87.72
848.876	50.86
849.052	77.48
849.227	11.95
849.403	132.78
849.578	57
849.753	-4.44
849.929	83.63
850.104	-2.39
850.279	-49.49
850.454	-10.58
850.63	9.9
850.805	-41.3
850.98	69.29
851.155	-37.2
851.33	42.67
851.505	-14.68
851.681	81.58
851.856	-98.64
852.031	-4.44
852.206	87.72
852.381	-59.73
852.556	-37.2
852.731	28.33
852.906	116.39
853.081	65.19
853.256	67.24
853.431	9.9
853.606	-76.12
853.781	-18.77
853.956	-108.88
854.131	32.43
854.305	-88.4
854.48	-12.63
854.655	-16.73
854.83	-94.55
855.005	-14.68
855.18	-45.4
855.354	-4.44
855.529	16.04
855.704	22.19
855.879	87.72
856.053	-43.35
856.228	69.29
856.403	-53.59
856.577	71.34
856.752	-94.55
856.926	22.19
857.101	20.14
857.276	-49.49
857.45	-53.59
857.625	52.91
857.799	5.8
857.974	87.72
858.148	-74.07
858.323	-45.4
858.497	-10.58
858.672	34.47
858.846	-49.49
859.02	24.23
859.195	-57.68
859.369	9.9
859.543	3.75
859.718	46.76
859.892	81.58
860.066	165.54
860.241	-33.11
860.415	38.57
860.589	71.34
860.763	-22.87
860.938	-0.34
861.112	93.87
861.286	-22.87
861.46	48.81
861.634	-35.16
861.808	52.91
861.982	-37.2
862.157	-67.92
862.331	-14.68
862.505	-33.11
862.679	-2.39
862.853	-69.97
863.027	-14.68
863.201	163.5
863.375	-47.44
863.549	-14.68
863.722	30.38
863.896	140.97
864.07	-45.4
864.244	3.75
864.418	89.77
864.592	50.86
864.766	24.23
864.939	40.62
865.113	1.71
865.287	124.58
865.461	-123.22
865.634	24.23
865.808	-6.49
865.982	-8.53
866.156	-12.63
866.329	-59.73
866.503	-43.35
866.676	77.48
866.85	52.91
867.024	-39.25
867.197	81.58
867.371	34.47
867.544	-86.36
867.718	-80.21
867.891	91.82
868.065	-108.88
868.238	54.95
868.412	118.44
868.585	73.39
868.759	-16.73
868.932	50.86
869.105	-14.68
869.279	-0.34
869.452	11.95
869.625	102.06
869.799	11.95
869.972	-6.49
870.145	-26.96
870.319	97.96
870.492	-26.96
870.665	28.33
870.838	-45.4
871.011	-74.07
871.185	9.9
871.358	-67.92
871.531	104.11
871.704	-16.73
871.877	16.04
872.05	16.04
872.223	-49.49
872.396	22.19
872.569	3.75
872.742	-88.4
872.915	89.77
873.088	-69.97
873.261	-112.98
873.434	108.2
873.607	20.14
873.78	143.02
873.953	-67.92
874.126	30.38
874.299	52.91
874.471	-35.16
874.644	-65.88
874.817	20.14
874.99	171.69
875.163	-92.5
875.335	38.57
875.508	-14.68
875.681	59.05
875.853	-74.07
876.026	42.67
876.199	24.23
876.371	18.09
876.544	-20.82
876.717	-35.16
876.889	-65.88
877.062	46.76
877.234	-47.44
877.407	-49.49
877.579	110.25
877.752	34.47
877.924	3.75
878.097	-16.73
878.269	44.71
878.442	50.86
878.614	42.67
878.786	46.76
878.959	28.33
879.131	-8.53
879.303	-125.27
879.476	-14.68
879.648	102.06
879.82	9.9
879.993	-29.01
880.165	-51.54
880.337	-90.45
880.509	65.19
880.681	-102.74
880.854	-24.92
881.026	22.19
881.198	110.25
881.37	-10.58
881.542	-2.39
881.714	28.33
881.886	-29.01
882.058	30.38
882.23	-49.49
882.402	-57.68
882.574	-8.53
882.746	155.3
882.918	48.81
883.09	16.04
883.262	-26.96
883.434	-49.49
883.606	-72.02
883.778	-49.49
883.95	145.06
884.122	3.75
884.293	110.25
884.465	11.95
884.637	67.24
884.809	-49.49
884.98	13.99
885.152	69.29
885.324	79.53
885.496	-2.39
885.667	16.04
885.839	-59.73
886.011	106.15
886.182	71.34
886.354	83.63
886.525	38.57
886.697	9.9
886.869	7.85
887.04	-59.73
887.212	67.24
887.383	134.82
887.555	11.95
887.726	-12.63
887.897	3.75
888.069	-24.92
888.24	46.76
888.412	-10.58
888.583	46.76
888.754	-10.58
888.926	-96.6
889.097	-45.4
889.268	-96.6
889.44	124.58
889.611	-131.41
889.782	-29.01
889.953	-41.3
890.125	61.1
890.296	28.33
890.467	-24.92
890.638	50.86
890.809	97.96
890.98	-29.01
891.151	-72.02
891.323	79.53
891.494	9.9
891.665	38.57
891.836	73.39
892.007	-57.68
892.178	42.67
892.349	-8.53
892.52	-53.59
892.691	-47.44
892.862	32.43
893.032	-158.03
893.203	-55.64
893.374	28.33
893.545	110.25
893.716	-43.35
893.887	85.67
894.057	-18.77
894.228	11.95
894.399	-37.2
894.57	161.45
894.74	34.47
894.911	87.72
895.082	-112.98
895.253	36.52
895.423	-47.44
895.594	48.81
895.764	61.1
895.935	-82.26
896.106	71.34
896.276	-63.83
896.447	28.33
896.617	-74.07
896.788	-115.03
896.958	-4.44
897.129	-24.92
897.299	-43.35
897.47	65.19
897.64	120.49
897.81	-61.78
897.981	7.85
898.151	-8.53
898.322	18.09
898.492	69.29
898.662	-16.73
898.832	3.75
899.003	13.99
899.173	50.86
899.343	-92.5
899.513	-18.77
