Data from USB4F104151__1__11-24-08-709.txt Node

Date: Wed Feb 26 11:24:08 EST 2025
User: louis
Spectrometer: USB4F10415
Trigger mode: 4
Integration Time (sec): 1.000000E-1
Scans to average: 1
Electric dark correction enabled: true
Nonlinearity correction enabled: false
Boxcar width: 0
XAxis mode: Wavelengths
Number of Pixels in Spectrum: 3648
>>>>>Begin Spectral Data<<<<<
178.204	-379.56
178.424	-379.56
178.644	-379.56
178.864	-371.37
179.084	-402.08
179.304	122.2
179.524	-55.98
179.744	19.8
179.964	17.75
180.184	36.18
180.404	23.89
180.624	-86.7
180.844	-12.97
181.064	-117.42
181.283	1.37
181.503	-4.78
181.723	56.66
181.943	-55.98
182.163	134.48
182.383	-74.41
182.602	68.95
182.822	118.1
183.042	118.1
183.262	62.8
183.482	40.28
183.701	105.81
183.921	54.61
184.141	15.7
184.361	130.39
184.58	128.34
184.8	9.56
185.02	-35.5
185.239	122.2
185.459	60.76
185.679	187.73
185.898	-21.16
186.118	64.85
186.338	48.47
186.557	107.86
186.777	-66.22
186.997	23.89
187.216	48.47
187.436	185.68
187.655	60.76
187.875	95.57
188.095	99.67
188.314	154.96
188.534	140.63
188.753	54.61
188.973	146.77
189.192	140.63
189.412	52.56
189.631	71
189.851	81.24
190.07	109.91
190.29	-29.35
190.509	19.8
190.729	9.56
190.948	62.8
191.168	224.59
191.387	165.2
191.607	7.51
191.826	81.24
192.045	38.23
192.265	15.7
192.484	81.24
192.704	62.8
192.923	-70.31
193.142	232.79
193.362	97.62
193.581	148.82
193.8	27.99
194.02	71
194.239	48.47
194.458	97.62
194.678	-4.78
194.897	85.33
195.116	62.8
195.335	21.84
195.555	130.39
195.774	44.37
195.993	68.95
196.212	85.33
196.432	-10.92
196.651	-88.75
196.87	105.81
197.089	251.22
197.308	75.09
197.528	60.76
197.747	-29.35
197.966	91.48
198.185	95.57
198.404	-27.31
198.623	163.15
198.842	130.39
199.062	167.25
199.281	83.28
199.5	19.8
199.719	114
199.938	17.75
200.157	183.63
200.376	181.59
200.595	64.85
200.814	11.61
201.033	73.04
201.252	171.35
201.471	124.24
201.69	95.57
201.909	134.48
202.128	146.77
202.347	42.32
202.566	48.47
202.785	-35.5
203.004	30.04
203.223	308.56
203.442	56.66
203.661	13.65
203.879	114
204.098	103.76
204.317	11.61
204.536	91.48
204.755	136.53
204.974	159.06
205.193	58.71
205.411	173.39
205.63	107.86
205.849	32.08
206.068	23.89
206.287	-23.21
206.505	146.77
206.724	-70.31
206.943	-62.12
207.162	1.37
207.381	99.67
207.599	40.28
207.818	23.89
208.037	-15.02
208.255	21.84
208.474	99.67
208.693	5.46
208.911	79.19
209.13	146.77
209.349	181.59
209.567	81.24
209.786	19.8
210.005	17.75
210.223	19.8
210.442	-72.36
210.661	-39.59
210.879	79.19
211.098	97.62
211.316	95.57
211.535	85.33
211.753	30.04
211.972	124.24
212.191	-35.5
212.409	62.8
212.628	75.09
212.846	27.99
213.065	111.96
213.283	11.61
213.502	30.04
213.72	17.75
213.938	36.18
214.157	40.28
214.375	93.52
214.594	5.46
214.812	99.67
215.031	81.24
215.249	27.99
215.467	130.39
215.686	-33.45
215.904	32.08
216.122	32.08
216.341	185.68
216.559	101.72
216.778	134.48
216.996	85.33
217.214	77.14
217.432	-82.6
217.651	17.75
217.869	101.72
218.087	25.94
218.306	107.86
218.524	32.08
218.742	105.81
218.96	87.38
219.179	27.99
219.397	77.14
219.615	197.97
219.833	122.2
220.051	17.75
220.27	103.76
220.488	89.43
220.706	95.57
220.924	64.85
221.142	17.75
221.36	54.61
221.578	93.52
221.796	13.65
222.015	103.76
222.233	44.37
222.451	206.16
222.669	85.33
222.887	87.38
223.105	50.52
223.323	79.19
223.541	19.8
223.759	17.75
223.977	128.34
224.195	163.15
224.413	130.39
224.631	48.47
224.849	101.72
225.067	251.22
225.285	-12.97
225.503	17.75
225.721	-51.88
225.939	9.56
226.157	146.77
226.375	185.68
226.592	27.99
226.81	75.09
227.028	146.77
227.246	77.14
227.464	66.9
227.682	87.38
227.9	103.76
228.117	89.43
228.335	36.18
228.553	60.76
228.771	130.39
228.989	54.61
229.206	97.62
229.424	40.28
229.642	23.89
229.86	23.89
230.077	138.58
230.295	105.81
230.513	85.33
230.731	38.23
230.948	154.96
231.166	202.07
231.384	-41.64
231.601	-25.26
231.819	142.68
232.037	25.94
232.254	-21.16
232.472	105.81
232.689	-60.07
232.907	116.05
233.125	11.61
233.342	-8.87
233.56	-37.55
233.777	-27.31
233.995	21.84
234.213	73.04
234.43	154.96
234.648	-10.92
234.865	62.8
235.083	40.28
235.3	60.76
235.518	68.95
235.735	138.58
235.953	68.95
236.17	30.04
236.388	64.85
236.605	50.52
236.822	68.95
237.04	165.2
237.257	71
237.475	11.61
237.692	-35.5
237.909	120.15
238.127	19.8
238.344	23.89
238.562	68.95
238.779	-62.12
238.996	38.23
239.214	27.99
239.431	58.71
239.648	64.85
239.865	66.9
240.083	60.76
240.3	23.89
240.517	-27.31
240.735	64.85
240.952	136.53
241.169	50.52
241.386	93.52
241.603	23.89
241.821	-2.73
242.038	77.14
242.255	97.62
242.472	-80.55
242.689	73.04
242.907	73.04
243.124	3.41
243.341	66.9
243.558	56.66
243.775	-39.59
243.992	-27.31
244.209	159.06
244.426	118.1
244.643	-37.55
244.86	23.89
245.078	95.57
245.295	146.77
245.512	46.42
245.729	7.51
245.946	93.52
246.163	71
246.38	19.8
246.597	27.99
246.814	99.67
247.031	1.37
247.248	19.8
247.464	56.66
247.681	38.23
247.898	40.28
248.115	42.32
248.332	15.7
248.549	101.72
248.766	259.41
248.983	32.08
249.2	66.9
249.417	187.73
249.633	19.8
249.85	64.85
250.067	54.61
250.284	60.76
250.501	42.32
250.717	136.53
250.934	-21.16
251.151	-0.68
251.368	68.95
251.585	99.67
251.801	58.71
252.018	-35.5
252.235	93.52
252.451	44.37
252.668	7.51
252.885	200.02
253.102	56.66
253.318	58.71
253.535	32.08
253.752	-39.59
253.968	21.84
254.185	38.23
254.401	68.95
254.618	52.56
254.835	30.04
255.051	150.87
255.268	138.58
255.484	91.48
255.701	30.04
255.917	103.76
256.134	-8.87
256.351	103.76
256.567	-62.12
256.784	-8.87
257	-29.35
257.217	128.34
257.433	130.39
257.65	114
257.866	173.39
258.082	-12.97
258.299	-37.55
258.515	42.32
258.732	52.56
258.948	-60.07
259.165	1.37
259.381	17.75
259.597	111.96
259.814	75.09
260.03	66.9
260.246	15.7
260.463	105.81
260.679	89.43
260.895	13.65
261.112	83.28
261.328	101.72
261.544	19.8
261.761	177.49
261.977	21.84
262.193	34.13
262.409	42.32
262.626	97.62
262.842	81.24
263.058	9.56
263.274	144.72
263.49	146.77
263.707	114
263.923	83.28
264.139	7.51
264.355	103.76
264.571	191.83
264.787	36.18
265.004	93.52
265.22	73.04
265.436	-17.07
265.652	68.95
265.868	48.47
266.084	-55.98
266.3	54.61
266.516	1.37
266.732	19.8
266.948	81.24
267.164	-33.45
267.38	95.57
267.596	77.14
267.812	165.2
268.028	52.56
268.244	71
268.46	38.23
268.676	42.32
268.892	21.84
269.108	17.75
269.324	-37.55
269.54	-53.93
269.756	83.28
269.972	-72.36
270.188	73.04
270.403	48.47
270.619	-29.35
270.835	38.23
271.051	64.85
271.267	25.94
271.483	15.7
271.698	120.15
271.914	140.63
272.13	73.04
272.346	7.51
272.562	60.76
272.777	165.2
272.993	89.43
273.209	21.84
273.425	85.33
273.64	-21.16
273.856	114
274.072	23.89
274.287	40.28
274.503	71
274.719	64.85
274.934	7.51
275.15	-41.64
275.366	-6.83
275.581	-4.78
275.797	140.63
276.012	30.04
276.228	71
276.444	19.8
276.659	107.86
276.875	32.08
277.09	66.9
277.306	-15.02
277.521	50.52
277.737	17.75
277.952	144.72
278.168	64.85
278.383	46.42
278.599	105.81
278.814	46.42
279.03	38.23
279.245	161.11
279.461	13.65
279.676	60.76
279.892	-39.59
280.107	-58.03
280.322	9.56
280.538	124.24
280.753	9.56
280.969	118.1
281.184	81.24
281.399	111.96
281.615	21.84
281.83	124.24
282.045	-25.26
282.26	-19.11
282.476	58.71
282.691	111.96
282.906	23.89
283.122	181.59
283.337	32.08
283.552	105.81
283.767	-12.97
283.983	118.1
284.198	60.76
284.413	103.76
284.628	-12.97
284.843	68.95
285.058	136.53
285.274	62.8
285.489	3.41
285.704	81.24
285.919	7.51
286.134	87.38
286.349	105.81
286.564	-4.78
286.779	157.01
286.995	23.89
287.21	-78.51
287.425	38.23
287.64	7.51
287.855	97.62
288.07	-37.55
288.285	116.05
288.5	105.81
288.715	122.2
288.93	48.47
289.145	71
289.36	77.14
289.575	91.48
289.79	124.24
290.004	9.56
290.219	103.76
290.434	1.37
290.649	-43.69
290.864	30.04
291.079	52.56
291.294	-10.92
291.509	66.9
291.724	56.66
291.938	87.38
292.153	85.33
292.368	-4.78
292.583	19.8
292.798	167.25
293.012	-6.83
293.227	73.04
293.442	60.76
293.657	91.48
293.871	140.63
294.086	11.61
294.301	134.48
294.516	97.62
294.73	58.71
294.945	-39.59
295.16	36.18
295.374	171.35
295.589	116.05
295.804	-2.73
296.018	40.28
296.233	50.52
296.447	107.86
296.662	9.56
296.877	179.54
297.091	116.05
297.306	77.14
297.52	44.37
297.735	163.15
297.949	114
298.164	68.95
298.378	64.85
298.593	-17.07
298.807	58.71
299.022	23.89
299.236	159.06
299.451	38.23
299.665	36.18
299.88	52.56
300.094	136.53
300.309	-6.83
300.523	27.99
300.737	23.89
300.952	-21.16
301.166	60.76
301.381	-86.7
301.595	46.42
301.809	134.48
302.024	3.41
302.238	-49.83
302.452	73.04
302.667	-6.83
302.881	204.11
303.095	187.73
303.309	50.52
303.524	25.94
303.738	56.66
303.952	32.08
304.166	60.76
304.381	-107.18
304.595	159.06
304.809	1.37
305.023	62.8
305.237	-12.97
305.452	-43.69
305.666	58.71
305.88	118.1
306.094	146.77
306.308	52.56
306.522	163.15
306.736	71
306.95	79.19
307.164	15.7
307.379	85.33
307.593	152.91
307.807	120.15
308.021	95.57
308.235	42.32
308.449	-10.92
308.663	83.28
308.877	204.11
309.091	36.18
309.305	101.72
309.519	3.41
309.733	111.96
309.947	-72.36
310.161	101.72
310.374	85.33
310.588	140.63
310.802	-43.69
311.016	58.71
311.23	124.24
311.444	-4.78
311.658	15.7
311.872	120.15
312.085	124.24
312.299	144.72
312.513	150.87
312.727	87.38
312.941	-0.68
313.154	23.89
313.368	19.8
313.582	64.85
313.796	60.76
314.009	34.13
314.223	146.77
314.437	140.63
314.651	103.76
314.864	-10.92
315.078	136.53
315.292	3.41
315.505	44.37
315.719	118.1
315.933	38.23
316.146	11.61
316.36	-10.92
316.573	118.1
316.787	128.34
317.001	81.24
317.214	1.37
317.428	91.48
317.641	48.47
317.855	75.09
318.068	52.56
318.282	42.32
318.495	175.44
318.709	99.67
318.922	46.42
319.136	144.72
319.349	95.57
319.563	34.13
319.776	64.85
319.99	-84.65
320.203	152.91
320.417	-6.83
320.63	60.76
320.843	206.16
321.057	32.08
321.27	50.52
321.483	146.77
321.697	197.97
321.91	91.48
322.124	46.42
322.337	68.95
322.55	17.75
322.763	-84.65
322.977	40.28
323.19	73.04
323.403	23.89
323.617	85.33
323.83	159.06
324.043	-10.92
324.256	202.07
324.469	-17.07
324.683	146.77
324.896	89.43
325.109	79.19
325.322	3.41
325.535	105.81
325.748	138.58
325.962	95.57
326.175	136.53
326.388	77.14
326.601	87.38
326.814	1.37
327.027	-0.68
327.24	167.25
327.453	-12.97
327.666	126.29
327.879	114
328.092	97.62
328.305	134.48
328.518	-23.21
328.731	-6.83
328.944	52.56
329.157	75.09
329.37	19.8
329.583	140.63
329.796	95.57
330.009	-27.31
330.222	122.2
330.435	122.2
330.648	34.13
330.861	134.48
331.073	68.95
331.286	93.52
331.499	50.52
331.712	32.08
331.925	58.71
332.138	54.61
332.35	157.01
332.563	-98.99
332.776	152.91
332.989	-25.26
333.202	-0.68
333.414	81.24
333.627	62.8
333.84	1.37
334.053	27.99
334.265	-103.08
334.478	7.51
334.691	48.47
334.903	93.52
335.116	-64.17
335.329	-29.35
335.541	150.87
335.754	122.2
335.966	9.56
336.179	93.52
336.392	-45.74
336.604	19.8
336.817	95.57
337.029	132.44
337.242	32.08
337.454	79.19
337.667	81.24
337.88	105.81
338.092	68.95
338.305	118.1
338.517	-17.07
338.729	111.96
338.942	249.17
339.154	-15.02
339.367	-41.64
339.579	101.72
339.792	-15.02
340.004	132.44
340.217	-19.11
340.429	68.95
340.641	-37.55
340.854	3.41
341.066	19.8
341.278	101.72
341.491	107.86
341.703	32.08
341.915	-2.73
342.128	36.18
342.34	75.09
342.552	-25.26
342.764	27.99
342.977	23.89
343.189	83.28
343.401	81.24
343.613	-80.55
343.826	48.47
344.038	-31.4
344.25	87.38
344.462	-53.93
344.674	75.09
344.886	60.76
345.099	83.28
345.311	83.28
345.523	-41.64
345.735	-90.79
345.947	148.82
346.159	87.38
346.371	17.75
346.583	54.61
346.795	202.07
347.007	-10.92
347.219	118.1
347.431	25.94
347.643	97.62
347.855	1.37
348.067	101.72
348.279	-15.02
348.491	46.42
348.703	83.28
348.915	44.37
349.127	-68.27
349.339	91.48
349.551	-4.78
349.763	107.86
349.975	15.7
350.187	114
350.399	161.11
350.61	107.86
350.822	-109.23
351.034	27.99
351.246	50.52
351.458	114
351.669	56.66
351.881	138.58
352.093	95.57
352.305	154.96
352.517	83.28
352.728	93.52
352.94	52.56
353.152	111.96
353.363	-70.31
353.575	97.62
353.787	154.96
353.999	68.95
354.21	165.2
354.422	-15.02
354.633	1.37
354.845	27.99
355.057	124.24
355.268	85.33
355.48	140.63
355.692	-15.02
355.903	58.71
356.115	5.46
356.326	-0.68
356.538	23.89
356.749	128.34
356.961	175.44
357.172	-4.78
357.384	1.37
357.595	195.92
357.807	23.89
358.018	-103.08
358.23	79.19
358.441	187.73
358.653	89.43
358.864	97.62
359.075	-53.93
359.287	138.58
359.498	152.91
359.709	95.57
359.921	32.08
360.132	56.66
360.344	-37.55
360.555	27.99
360.766	75.09
360.977	68.95
361.189	81.24
361.4	1.37
361.611	150.87
361.823	118.1
362.034	42.32
362.245	-6.83
362.456	21.84
362.667	81.24
362.879	-4.78
363.09	13.65
363.301	97.62
363.512	34.13
363.723	-2.73
363.935	-2.73
364.146	62.8
364.357	79.19
364.568	32.08
364.779	-94.89
364.99	206.16
365.201	-0.68
365.412	75.09
365.623	3.41
365.834	101.72
366.045	87.38
366.256	66.9
366.467	81.24
366.678	-10.92
366.889	62.8
367.1	32.08
367.311	116.05
367.522	21.84
367.733	58.71
367.944	81.24
368.155	50.52
368.366	89.43
368.577	97.62
368.788	87.38
368.999	52.56
369.209	52.56
369.42	193.87
369.631	283.98
369.842	105.81
370.053	-8.87
370.264	73.04
370.474	-35.5
370.685	44.37
370.896	48.47
371.107	111.96
371.317	73.04
371.528	-47.79
371.739	58.71
371.95	77.14
372.16	75.09
372.371	-70.31
372.582	-4.78
372.792	169.3
373.003	52.56
373.214	101.72
373.424	97.62
373.635	-74.41
373.846	111.96
374.056	48.47
374.267	34.13
374.477	15.7
374.688	-27.31
374.898	42.32
375.109	130.39
375.319	150.87
375.53	179.54
375.74	111.96
375.951	21.84
376.161	118.1
376.372	87.38
376.582	30.04
376.793	97.62
377.003	25.94
377.214	3.41
377.424	114
377.635	68.95
377.845	-10.92
378.055	132.44
378.266	1.37
378.476	25.94
378.686	36.18
378.897	77.14
379.107	91.48
379.317	140.63
379.528	19.8
379.738	114
379.948	-33.45
380.158	116.05
380.369	89.43
380.579	44.37
380.789	91.48
380.999	118.1
381.21	122.2
381.42	210.26
381.63	-27.31
381.84	191.83
382.05	85.33
382.261	91.48
382.471	175.44
382.681	21.84
382.891	204.11
383.101	30.04
383.311	19.8
383.521	7.51
383.731	77.14
383.941	142.68
384.151	36.18
384.361	13.65
384.571	73.04
384.781	89.43
384.991	218.45
385.201	214.35
385.411	89.43
385.621	60.76
385.831	85.33
386.041	42.32
386.251	95.57
386.461	136.53
386.671	3.41
386.881	38.23
387.091	34.13
387.301	79.19
387.511	54.61
387.72	66.9
387.93	87.38
388.14	71
388.35	11.61
388.56	171.35
388.769	171.35
388.979	64.85
389.189	7.51
389.399	111.96
389.609	148.82
389.818	114
390.028	62.8
390.238	15.7
390.447	-88.75
390.657	30.04
390.867	50.52
391.076	-105.13
391.286	95.57
391.496	105.81
391.705	58.71
391.915	183.63
392.125	167.25
392.334	-29.35
392.544	181.59
392.753	-4.78
392.963	-21.16
393.172	-37.55
393.382	13.65
393.591	148.82
393.801	32.08
394.01	109.91
394.22	103.76
394.429	42.32
394.639	114
394.848	42.32
395.058	130.39
395.267	77.14
395.477	111.96
395.686	87.38
395.895	165.2
396.105	175.44
396.314	111.96
396.524	62.8
396.733	109.91
396.942	107.86
397.152	77.14
397.361	171.35
397.57	132.44
397.78	81.24
397.989	154.96
398.198	261.46
398.407	-27.31
398.617	66.9
398.826	71
399.035	7.51
399.244	142.68
399.453	21.84
399.663	64.85
399.872	101.72
400.081	-2.73
400.29	116.05
400.499	-35.5
400.708	97.62
400.917	60.76
401.127	-33.45
401.336	25.94
401.545	200.02
401.754	103.76
401.963	130.39
402.172	11.61
402.381	-8.87
402.59	46.42
402.799	111.96
403.008	210.26
403.217	138.58
403.426	79.19
403.635	-76.46
403.844	89.43
404.053	68.95
404.262	-41.64
404.471	253.27
404.68	52.56
404.888	66.9
405.097	5.46
405.306	-47.79
405.515	146.77
405.724	109.91
405.933	85.33
406.142	17.75
406.35	130.39
406.559	1.37
406.768	60.76
406.977	101.72
407.185	130.39
407.394	42.32
407.603	17.75
407.812	103.76
408.02	99.67
408.229	52.56
408.438	116.05
408.646	15.7
408.855	118.1
409.064	116.05
409.272	46.42
409.481	109.91
409.69	-51.88
409.898	-45.74
410.107	21.84
410.315	111.96
410.524	40.28
410.733	83.28
410.941	-72.36
411.15	130.39
411.358	132.44
411.567	202.07
411.775	56.66
411.984	9.56
412.192	130.39
412.401	107.86
412.609	95.57
412.818	97.62
413.026	91.48
413.234	126.29
413.443	46.42
413.651	34.13
413.86	116.05
414.068	152.91
414.276	181.59
414.485	9.56
414.693	171.35
414.901	140.63
415.11	56.66
415.318	99.67
415.526	101.72
415.734	163.15
415.943	68.95
416.151	138.58
416.359	68.95
416.567	75.09
416.776	175.44
416.984	107.86
417.192	134.48
417.4	27.99
417.608	11.61
417.817	-41.64
418.025	93.52
418.233	165.2
418.441	71
418.649	-15.02
418.857	165.2
419.065	111.96
419.273	1.37
419.481	46.42
419.689	64.85
419.897	120.15
420.105	-29.35
420.313	107.86
420.521	173.39
420.729	204.11
420.937	27.99
421.145	-45.74
421.353	89.43
421.561	146.77
421.769	120.15
421.977	58.71
422.185	38.23
422.393	25.94
422.601	101.72
422.809	52.56
423.017	77.14
423.224	111.96
423.432	208.21
423.64	62.8
423.848	142.68
424.056	36.18
424.263	118.1
424.471	17.75
424.679	93.52
424.887	3.41
425.094	226.64
425.302	136.53
425.51	68.95
425.718	109.91
425.925	32.08
426.133	36.18
426.341	257.36
426.548	40.28
426.756	71
426.964	167.25
427.171	62.8
427.379	87.38
427.586	83.28
427.794	191.83
428.001	152.91
428.209	50.52
428.417	128.34
428.624	183.63
428.832	126.29
429.039	91.48
429.247	132.44
429.454	116.05
429.662	183.63
429.869	93.52
430.076	161.11
430.284	134.48
430.491	138.58
430.699	130.39
430.906	228.69
431.114	175.44
431.321	140.63
431.528	120.15
431.736	173.39
431.943	181.59
432.15	224.59
432.358	173.39
432.565	224.59
432.772	87.38
432.979	232.79
433.187	152.91
433.394	148.82
433.601	118.1
433.808	232.79
434.016	181.59
434.223	240.98
434.43	150.87
434.637	288.08
434.844	304.46
435.052	216.4
435.259	206.16
435.466	222.55
435.673	185.68
435.88	208.21
436.087	353.62
436.294	363.86
436.501	312.66
436.708	224.59
436.915	359.76
437.122	355.66
437.329	271.7
437.537	333.14
437.743	372.05
437.95	478.54
438.157	357.71
438.364	390.48
438.571	456.01
438.778	435.53
438.985	396.62
439.192	521.55
439.399	447.82
439.606	488.78
439.813	499.02
440.02	556.36
440.227	656.72
440.433	556.36
440.64	525.65
440.847	564.56
441.054	603.47
441.261	730.44
441.467	582.99
441.674	630.09
441.881	763.21
442.088	560.46
442.294	709.96
442.501	716.11
442.708	785.74
442.914	740.68
443.121	859.46
443.328	832.84
443.534	830.79
443.741	855.37
443.948	793.93
444.154	972.1
444.361	1115.46
444.568	1027.4
444.774	976.2
444.981	970.05
445.187	1203.52
445.394	1097.03
445.6	1105.22
445.807	1254.72
446.013	1256.77
446.22	1170.76
446.426	1299.78
446.633	1416.51
446.839	1643.84
447.046	1457.47
447.252	1516.86
447.459	1563.97
447.665	1568.06
447.871	1721.66
448.078	1848.63
448.284	1885.5
448.491	1955.13
448.697	2028.85
448.903	1975.61
449.11	2065.72
449.316	2276.66
449.522	2137.4
449.728	2444.59
449.935	2354.48
450.141	2395.44
450.347	2710.83
450.553	2602.29
450.76	2811.18
450.966	2835.75
451.172	3048.74
451.378	3052.84
451.584	3024.17
451.791	3228.96
451.997	3274.02
452.203	3360.03
452.409	3499.3
452.615	3818.78
452.821	3656.99
453.027	3759.39
453.233	4234.52
453.44	4103.45
453.646	4226.32
453.852	4386.07
454.058	4613.39
454.264	4801.8
454.47	5096.71
454.676	5119.24
454.882	5455.11
455.088	5295.36
455.294	5627.14
455.5	6116.6
455.705	6241.53
455.911	6407.41
456.117	6563.06
456.323	6829.29
456.529	6722.8
456.735	7263.46
456.941	7568.61
457.147	7673.06
457.352	7898.33
457.558	8142.04
457.764	8842.45
457.97	8832.21
458.176	9133.26
458.381	9850.05
458.587	9972.93
458.793	10486.97
458.999	10503.35
459.204	11668.64
459.41	11994.27
459.616	12092.57
459.821	12510.36
460.027	13139.08
460.233	13708.42
460.438	13776
460.644	14574.71
460.85	14670.97
461.055	15066.22
461.261	15973.47
461.466	15678.57
461.672	16006.24
461.878	17857.6
462.083	17474.63
462.289	18089.03
462.494	18781.24
462.7	19035.19
462.905	19235.89
463.111	20636.7
463.316	21969.93
463.522	22195.2
463.727	22909.94
463.932	23600.11
464.138	24386.53
464.343	25365.46
464.549	25662.41
464.754	27468.72
464.959	28353.44
465.165	28621.73
465.37	28410.79
465.575	28447.65
465.781	29936.52
465.986	31122.3
466.191	30661.51
466.397	30950.27
466.602	30370.69
466.807	31568.76
467.012	32363.37
467.218	33235.8
467.423	33354.58
467.628	34237.26
467.833	35795.76
468.038	34853.7
468.244	34655.04
468.449	36459.31
468.654	35459.9
468.859	35750.71
469.064	35570.49
469.269	34726.72
469.474	34984.77
469.679	35869.49
469.885	34974.53
470.09	35296.06
470.295	35699.51
470.5	34853.7
470.705	35162.94
470.91	34577.22
471.115	34007.89
471.32	34380.62
471.525	34128.72
471.73	33198.94
471.935	32803.68
472.139	31443.83
472.344	31492.98
472.549	31634.29
472.754	30876.54
472.959	30415.75
473.164	29363.09
473.369	28863.39
473.574	29735.82
473.778	28941.21
473.983	28744.61
474.188	27739.05
474.393	26543.04
474.598	26477.51
474.802	25775.05
475.007	25775.05
475.212	25826.25
475.417	24277.99
475.621	24179.68
475.826	23897.06
476.031	23208.95
476.235	22961.14
476.44	23045.11
476.645	22041.6
476.849	21992.45
477.054	21718.03
477.259	21210.13
477.463	21070.87
477.668	20292.64
477.872	20286.5
478.077	20177.95
478.282	19244.08
478.486	19469.36
478.691	19024.95
478.895	18881.59
479.1	18879.54
479.304	18525.24
479.509	17962.05
479.713	18687.03
479.918	17724.49
480.122	17452.11
480.326	17491.02
480.531	17525.83
480.735	17353.8
480.94	17024.08
481.144	17464.39
481.348	16622.68
481.553	16835.67
481.757	16106.59
481.961	16591.96
482.166	16606.3
482.37	16501.85
482.574	16032.86
482.778	15905.89
482.983	16417.88
483.187	15735.91
483.391	15664.23
483.595	15578.22
483.8	15191.15
484.004	15537.26
484.208	15336.56
484.412	15225.97
484.616	14783.6
484.821	14605.43
485.025	14247.04
485.229	14271.61
485.433	14181.5
485.637	14009.47
485.841	13755.52
486.045	13739.14
486.249	13583.49
486.453	13456.52
486.657	13274.25
486.861	13022.35
487.065	12463.26
487.269	12321.95
487.473	11889.82
487.677	12037.28
487.881	12207.26
488.085	11801.76
488.289	11658.4
488.493	11265.19
488.697	11480.23
488.901	10865.84
489.105	10945.71
489.309	10710.19
489.512	10501.3
489.716	10335.42
489.92	10003.64
490.124	9925.82
490.328	10017.98
490.531	9581.76
490.735	9553.09
490.939	9237.7
491.143	9112.78
491.346	8809.68
491.55	9135.31
491.754	8729.81
491.958	8453.33
492.161	8484.05
492.365	8348.89
492.569	8107.23
492.772	8013.02
492.976	8119.51
493.18	7865.57
493.383	7830.75
493.587	7634.14
493.79	7591.14
493.994	7445.73
494.197	7455.97
494.401	7410.92
494.605	7232.74
494.808	7173.35
495.012	7046.38
495.215	7013.61
495.419	7230.69
495.622	6999.27
495.825	6851.82
496.029	6819.05
496.232	7087.34
496.436	6450.42
496.639	6900.97
496.843	6919.4
497.046	6710.51
497.249	6997.23
497.453	6900.97
497.656	6876.4
497.859	6829.29
498.063	6896.88
498.266	7054.57
498.469	6860.01
498.673	6976.75
498.876	6892.78
499.079	6982.89
499.282	7136.49
499.485	7396.58
499.689	6974.7
499.892	7271.65
500.095	7136.49
500.298	7331.05
500.501	7138.54
500.705	7417.06
500.908	7453.92
501.111	7501.03
501.314	7619.81
501.517	7711.97
501.72	7558.37
501.923	7625.95
502.126	7718.11
502.329	8166.62
502.532	8066.27
502.735	7957.72
502.938	8242.39
503.141	8277.21
503.344	8377.56
503.547	8477.91
503.75	8400.09
503.953	8766.67
504.156	8715.47
504.359	8924.37
504.562	8922.32
504.765	9258.18
504.968	9286.86
505.17	9450.69
505.373	9567.43
505.576	9696.45
505.779	9985.21
505.982	10054.84
506.185	10247.35
506.387	10355.9
506.59	10542.26
506.793	10771.63
506.996	10851.5
507.198	11164.84
507.401	11390.12
507.604	11678.88
507.807	12002.46
508.009	11994.27
508.212	12399.77
508.415	12403.86
508.617	12981.39
508.82	12995.73
509.022	12903.57
509.225	13640.84
509.428	13753.48
509.63	14036.1
509.833	14183.55
510.035	15086.7
510.238	14908.53
510.44	15219.82
510.643	15826.02
510.845	15979.62
511.048	16135.26
511.25	16694.36
511.453	16895.06
511.655	17812.55
511.858	17792.07
512.06	18406.46
512.262	18369.6
512.465	18943.03
512.667	19573.8
512.87	19999.78
513.072	20366.37
513.274	21171.22
513.477	21435.41
513.679	21976.07
513.881	22139.91
514.084	22615.04
514.286	23094.26
514.488	23987.18
514.69	24605.66
514.893	24677.34
515.095	25283.54
515.297	25961.42
515.499	26344.39
515.701	26596.29
515.904	27990.95
516.106	28324.77
516.308	29076.38
516.51	29084.57
516.712	30049.16
516.914	30536.58
517.116	31234.94
517.318	31585.14
517.52	32260.97
517.722	32842.59
517.925	33231.71
518.127	34288.46
518.329	34734.92
518.531	34966.34
518.733	35834.67
518.935	36375.34
519.136	36786.98
519.338	37604.12
519.54	38370.06
519.742	38832.9
519.944	39336.7
520.146	40162.03
520.348	40413.93
520.55	41173.73
520.752	41525.98
520.954	42347.22
521.155	42533.58
521.357	42820.3
521.559	43449.02
521.761	44436.14
521.963	44894.89
522.164	45146.79
522.366	45269.67
522.568	46084.76
522.77	46459.54
522.971	47323.78
523.173	46756.49
523.375	47295.11
523.576	47563.39
523.778	47788.67
523.98	48292.47
524.181	48386.67
524.383	48570.99
524.584	48980.59
524.786	48849.52
524.988	48554.61
525.189	49218.15
525.391	49244.77
525.592	49588.83
525.794	49719.9
525.995	49637.98
526.197	49287.78
526.398	49328.74
526.6	49336.93
526.801	49037.93
527.003	49064.55
527.204	48712.3
527.406	49332.84
527.607	48593.52
527.808	48927.34
528.01	47792.76
528.211	48231.03
528.412	48202.36
528.614	47227.52
528.815	47250.05
529.016	47401.6
529.218	46699.15
529.419	46383.76
529.62	46115.48
529.822	45339.3
530.023	44749.48
530.224	44823.21
530.425	44208.82
530.626	43340.48
530.828	43107.01
531.029	43438.78
531.23	42592.97
531.431	41917.14
531.632	41992.92
531.833	41822.94
532.035	41167.59
532.236	40657.64
532.437	40563.43
532.638	39168.77
532.839	39293.69
533.04	39246.59
533.241	37946.13
533.442	38060.82
533.643	37350.17
533.844	36688.68
534.045	36520.74
534.246	35390.27
534.447	35349.31
534.648	34861.89
534.849	34556.74
535.05	33741.65
535.251	33467.22
535.451	32959.33
535.652	32723.81
535.853	32361.32
536.054	31679.35
536.255	31447.93
536.456	30827.39
536.657	31093.63
536.857	30143.37
537.058	30100.36
537.259	29559.7
537.46	29127.58
537.66	28486.56
537.861	28490.66
538.062	27954.09
538.263	27780.01
538.463	27501.49
538.664	26850.24
538.865	26780.6
539.065	26192.84
539.266	25725.9
539.466	25646.03
539.667	25420.75
539.868	25289.68
540.068	24980.44
540.269	24462.3
540.469	24161.25
540.67	23821.29
540.87	23479.28
541.071	23157.75
541.271	23440.37
541.472	22817.79
541.672	22524.93
541.873	21998.6
542.073	21765.13
542.274	22004.74
542.474	21572.62
542.675	21246.99
542.875	21255.18
543.075	20550.68
543.276	20423.71
543.476	20538.4
543.676	20259.87
543.877	20016.16
544.077	20026.4
544.277	19657.77
544.478	19088.43
544.678	19231.79
544.878	18707.51
545.078	18811.96
545.279	18232.38
545.479	18056.26
545.679	17972.29
545.879	17853.51
546.079	17460.3
546.28	17347.66
546.48	16938.07
546.68	17101.9
546.88	16893.01
547.08	16610.39
547.28	16561.24
547.48	16165.98
547.68	16098.4
547.88	16141.41
548.081	15928.42
548.281	15668.33
548.481	15058.03
548.681	15383.66
548.881	14898.29
549.081	14627.96
549.28	14584.95
549.48	14363.77
549.68	14242.94
549.88	14029.95
550.08	13630.6
550.28	13653.12
550.48	13456.52
550.68	13368.46
550.88	13102.22
551.08	12795.03
551.279	13122.7
551.479	12491.93
551.679	12547.22
551.879	12274.84
552.079	12068
552.278	11728.03
552.478	11820.19
552.678	11705.51
552.878	11271.34
553.077	11146.41
553.277	10824.88
553.477	10824.88
553.676	10792.11
553.876	10509.49
554.076	10079.42
554.275	10241.21
554.475	9848
554.674	9944.25
554.874	9833.66
555.074	9432.26
555.273	9438.41
555.473	9274.57
555.672	9016.52
555.872	8948.94
556.071	8811.73
556.271	8879.31
556.47	8445.14
556.67	8299.73
556.869	8164.57
557.068	8021.21
557.268	7988.44
557.467	7867.61
557.667	7726.3
557.866	7582.95
558.065	7308.52
558.265	7308.52
558.464	7036.14
558.663	7085.29
558.863	6878.44
559.062	6778.09
559.261	6632.69
559.461	6700.27
559.66	6575.34
559.859	6356.21
560.058	6190.33
560.258	6151.42
560.457	6012.15
560.656	6272.25
560.855	5895.42
561.054	5993.72
561.253	5647.62
561.453	5629.18
561.652	5729.53
561.851	5717.25
562.05	5399.81
562.249	5268.74
562.448	5170.44
562.647	5041.42
562.846	5078.28
563.045	5059.85
563.244	4992.27
563.443	4896.01
563.642	4689.17
563.841	4775.18
564.04	4590.86
564.239	4564.24
564.438	4459.79
564.637	4447.51
564.836	4291.86
565.035	4175.13
565.234	4240.66
565.432	4160.79
565.631	3984.66
565.83	4060.44
566.029	3896.6
566.228	3886.36
566.427	3937.56
566.625	3734.81
566.824	3867.93
567.023	3599.65
567.222	3620.13
567.42	3634.46
567.619	3593.5
567.818	3491.1
568.016	3622.17
568.215	3323.17
568.414	3382.56
568.612	3304.74
568.811	3314.98
569.01	3192.1
569.208	3188
569.407	3151.14
569.605	3108.13
569.804	2966.82
570.002	2862.38
570.201	2940.2
570.4	2929.96
570.598	2823.47
570.797	2913.58
570.995	2759.98
571.193	2841.9
571.392	2733.36
571.59	2567.47
571.789	2678.06
571.987	2620.72
572.186	2510.13
572.384	2397.49
572.582	2338.1
572.781	2467.12
572.979	2301.23
573.177	2389.3
573.376	2366.77
573.574	2305.33
573.772	2176.31
573.971	1977.66
574.169	2182.45
574.367	2141.49
574.565	2176.31
574.763	1967.42
574.962	1989.94
575.16	1944.89
575.358	1867.06
575.556	1977.66
575.754	1908.02
575.952	1860.92
576.151	1951.03
576.349	1762.62
576.547	1631.55
576.745	1746.23
576.943	1836.35
577.141	1621.31
577.339	1578.3
577.537	1762.62
577.735	1715.52
577.933	1643.84
578.131	1531.2
578.329	1643.84
578.527	1623.36
578.725	1670.46
578.923	1416.51
579.121	1484.09
579.319	1369.41
579.516	1371.46
579.714	1523.01
579.912	1332.54
580.11	1279.3
580.308	1336.64
580.506	1125.7
580.704	1119.56
580.901	1285.44
581.099	1367.36
581.297	1228.1
581.495	1207.62
581.692	1178.95
581.89	1260.87
582.088	1131.84
582.285	1207.62
582.483	1137.99
582.681	1127.75
582.878	1135.94
583.076	1101.12
583.274	1113.41
583.471	1113.41
583.669	1043.78
583.866	1002.82
584.064	1000.77
584.262	988.49
584.459	888.14
584.657	959.81
584.854	1097.03
585.052	996.68
585.249	984.39
585.447	963.91
585.644	841.03
585.841	982.34
586.039	929.1
586.236	970.05
586.434	832.84
586.631	738.63
586.828	824.65
587.026	795.98
587.223	638.28
587.42	777.55
587.618	785.74
587.815	869.7
588.012	714.06
588.21	761.16
588.407	824.65
588.604	755.02
588.801	662.86
588.999	689.48
589.196	781.64
589.393	671.05
589.59	730.44
589.787	677.19
589.984	675.15
590.182	795.98
590.379	646.48
590.576	697.67
590.773	679.24
590.97	587.08
591.167	679.24
591.364	671.05
591.561	679.24
591.758	830.79
591.955	681.29
592.152	658.76
592.349	525.65
592.546	646.48
592.743	609.61
592.94	617.8
593.137	724.3
593.334	701.77
593.531	818.5
593.727	613.71
593.924	722.25
594.121	587.08
594.318	650.57
594.515	785.74
594.712	744.78
594.908	740.68
595.105	611.66
595.302	666.96
595.499	685.39
595.696	855.37
595.892	685.39
596.089	873.8
596.286	761.16
596.482	922.95
596.679	828.74
596.876	675.15
597.072	832.84
597.269	857.42
597.466	806.22
597.662	838.98
597.859	939.33
598.055	845.13
598.252	978.25
598.448	1054.02
598.645	1029.45
598.841	1121.6
599.038	1236.29
599.234	1332.54
599.431	1228.1
599.627	1328.45
599.824	1383.74
600.02	1287.49
600.217	1250.63
600.413	1451.33
600.609	1367.36
600.806	1682.75
601.002	1666.36
601.198	1525.05
601.395	1654.08
601.591	1795.39
601.787	1852.73
601.984	1971.51
602.18	1926.46
602.376	2008.37
602.572	2088.25
602.769	2172.21
602.965	2133.3
603.161	2381.1
603.357	2354.48
603.553	2590
603.75	2604.33
603.946	2647.34
604.142	2805.03
604.338	2835.75
604.534	2841.9
604.73	3007.78
604.926	3013.93
605.122	3392.8
605.318	3274.02
605.514	3519.78
605.71	3542.3
605.906	3628.32
606.102	3552.54
606.298	3812.64
606.494	4121.88
606.69	4121.88
606.886	4146.45
607.082	4164.89
607.278	4238.61
607.474	4541.71
607.67	4709.65
607.866	4668.69
608.062	4918.54
608.257	5168.39
608.453	5129.48
608.649	5285.12
608.845	5336.32
609.041	5500.16
609.236	5799.16
609.432	5926.14
609.628	6100.22
609.824	6233.33
610.019	6266.1
610.215	6558.96
610.411	6743.28
610.606	6903.02
610.802	7007.47
610.998	7075.05
611.193	7281.89
611.389	7488.74
611.584	7761.12
611.78	7765.21
611.976	8076.51
612.171	8735.95
612.367	8637.65
612.562	8692.94
612.758	9159.88
612.953	9098.44
613.149	9526.47
613.344	9741.5
613.539	10173.63
613.735	10345.66
613.93	10644.66
614.126	10519.73
614.321	11013.29
614.517	11328.68
614.712	11656.36
614.907	12070.05
615.103	12373.14
615.298	12391.58
615.493	12856.47
615.688	13081.74
615.884	13657.22
616.079	13790.34
616.274	14072.96
616.47	14525.56
616.665	14781.56
616.86	15033.46
617.055	15701.09
617.25	15750.24
617.445	16331.87
617.641	16622.68
617.836	17146.96
618.031	17380.43
618.226	18058.31
618.421	18455.61
618.616	19035.19
618.811	19309.61
619.006	20050.98
619.201	20046.88
619.396	20718.62
619.591	20536.35
619.786	21498.89
619.981	21537.8
620.176	22379.52
620.371	22721.53
620.566	23679.98
620.761	23999.46
620.956	24136.68
621.151	24351.71
621.346	25234.39
621.541	25318.35
621.735	26129.35
621.93	26362.82
622.125	26872.76
622.32	27544.5
622.515	27921.32
622.709	28089.26
622.904	29168.54
623.099	29158.3
623.294	29584.27
623.488	30251.91
623.683	31157.11
623.878	31206.27
624.072	32203.63
624.267	32633.7
624.462	33014.62
624.656	33151.84
624.851	34112.33
625.046	34278.22
625.24	34732.87
625.435	35119.93
625.629	36088.62
625.824	36193.07
626.018	36584.23
626.213	36520.74
626.407	37761.81
626.602	37532.44
626.796	38544.14
626.991	38558.47
627.185	38650.63
627.38	39125.76
627.574	39371.52
627.768	39645.94
627.963	39709.43
628.157	39521.02
628.352	40088.31
628.546	39508.73
628.74	40534.76
628.935	40002.29
629.129	40155.89
629.323	39291.65
629.517	40000.24
629.712	39392
629.906	39447.29
630.1	38320.91
630.294	38656.78
630.489	37602.07
630.683	37810.96
630.877	36610.85
631.071	35990.32
631.265	36115.25
631.459	34833.22
631.653	34302.79
631.848	33858.38
632.042	32797.54
632.236	31656.82
632.43	30997.37
632.624	30573.44
632.818	29639.57
633.012	28619.68
633.206	27382.71
633.4	27300.79
633.594	25758.67
633.788	25113.56
633.982	24542.17
634.176	23841.77
634.369	22612.99
634.563	21638.16
634.757	20892.69
634.951	20395.04
635.145	19246.13
635.339	18783.29
635.533	17816.65
635.726	17345.61
635.92	16223.33
636.114	15750.24
636.308	15015.02
636.501	14517.37
636.695	14095.49
636.889	13489.29
637.083	12907.66
637.276	12416.15
637.47	11658.4
637.664	11420.84
637.857	10796.21
638.051	10503.35
638.244	10036.41
638.438	9526.47
638.632	9360.58
638.825	8772.82
639.019	8352.98
639.212	8004.83
639.406	8070.36
639.599	7644.38
639.793	7324.9
639.986	6925.55
640.18	6745.33
640.373	6282.49
640.567	6120.7
640.76	5981.43
640.954	5772.54
641.147	5434.63
641.34	5412.1
641.534	5287.17
641.727	4867.34
641.92	4791.56
642.114	4656.4
642.307	4377.87
642.5	4224.28
642.694	3968.28
642.887	3958.04
643.08	3915.03
643.273	3730.72
643.467	3534.11
643.66	3317.03
643.853	3245.35
644.046	3134.76
644.239	2968.87
644.432	2759.98
644.626	2630.96
644.819	2612.53
645.012	2481.46
645.205	2522.41
645.398	2452.78
645.591	2266.42
645.784	2092.34
645.977	2141.49
646.17	2127.16
646.363	1912.12
646.556	1895.74
646.749	1680.7
646.942	1785.15
647.135	1729.85
647.328	1568.06
647.521	1535.29
647.714	1576.25
647.907	1469.76
648.099	1312.07
648.292	1396.03
648.485	1267.01
648.678	1275.2
648.871	1170.76
649.064	1023.3
649.256	1070.4
649.449	976.2
649.642	941.38
649.835	953.67
650.027	900.42
650.22	994.63
650.413	914.76
650.605	871.75
650.798	742.73
650.991	871.75
651.183	736.59
651.376	777.55
651.568	742.73
651.761	679.24
651.954	679.24
652.146	669
652.339	626
652.531	722.25
652.724	552.27
652.916	673.1
653.109	437.58
653.301	662.86
653.494	660.81
653.686	572.75
653.879	609.61
654.071	593.23
654.263	445.77
654.456	492.88
654.648	597.32
654.84	503.12
655.033	404.82
655.225	480.59
655.417	318.8
655.61	519.5
655.802	378.19
655.994	503.12
656.186	302.42
656.379	484.69
656.571	283.98
656.763	296.27
656.955	275.79
657.148	290.13
657.34	390.48
657.532	187.73
657.724	236.88
657.916	316.75
658.108	316.75
658.3	279.89
658.492	337.23
658.684	236.88
658.876	331.09
659.068	191.83
659.26	222.55
659.452	144.72
659.644	292.18
659.836	351.57
660.028	347.47
660.22	204.11
660.412	259.41
660.604	202.07
660.796	240.98
660.988	429.39
661.18	292.18
661.372	226.64
661.563	281.94
661.755	230.74
661.947	175.44
662.139	247.12
662.331	210.26
662.522	251.22
662.714	165.2
662.906	179.54
663.097	183.63
663.289	181.59
663.481	81.24
663.673	214.35
663.864	247.12
664.056	269.65
664.247	165.2
664.439	218.45
664.631	222.55
664.822	304.46
665.014	210.26
665.205	79.19
665.397	144.72
665.588	105.81
665.78	200.02
665.971	245.07
666.163	157.01
666.354	191.83
666.546	107.86
666.737	185.68
666.929	95.57
667.12	103.76
667.311	261.46
667.503	175.44
667.694	171.35
667.885	167.25
668.077	202.07
668.268	27.99
668.459	105.81
668.651	157.01
668.842	157.01
669.033	136.53
669.224	64.85
669.416	349.52
669.607	161.11
669.798	87.38
669.989	175.44
670.18	140.63
670.371	161.11
670.563	79.19
670.754	146.77
670.945	154.96
671.136	210.26
671.327	93.52
671.518	193.87
671.709	212.31
671.9	193.87
672.091	195.92
672.282	200.02
672.473	107.86
672.664	95.57
672.855	107.86
673.046	189.78
673.237	249.17
673.428	136.53
673.619	202.07
673.809	134.48
674	245.07
674.191	138.58
674.382	154.96
674.573	157.01
674.764	181.59
674.954	247.12
675.145	120.15
675.336	152.91
675.527	95.57
675.717	171.35
675.908	109.91
676.099	118.1
676.289	208.21
676.48	124.24
676.671	171.35
676.861	148.82
677.052	132.44
677.243	183.63
677.433	187.73
677.624	249.17
677.814	204.11
678.005	175.44
678.195	189.78
678.386	128.34
678.576	95.57
678.767	46.42
678.957	236.88
679.148	267.6
679.338	298.32
679.529	177.49
679.719	195.92
679.909	310.61
680.1	261.46
680.29	191.83
680.481	120.15
680.671	314.7
680.861	236.88
681.052	222.55
681.242	126.29
681.432	159.06
681.622	204.11
681.813	146.77
682.003	247.12
682.193	154.96
682.383	181.59
682.573	165.2
682.764	202.07
682.954	138.58
683.144	240.98
683.334	220.5
683.524	240.98
683.714	283.98
683.904	210.26
684.094	144.72
684.284	247.12
684.474	367.95
684.664	294.22
684.854	161.11
685.044	224.59
685.234	193.87
685.424	224.59
685.614	204.11
685.804	316.75
685.994	333.14
686.184	171.35
686.374	288.08
686.564	214.35
686.753	224.59
686.943	87.38
687.133	218.45
687.323	226.64
687.513	339.28
687.702	314.7
687.892	197.97
688.082	269.65
688.272	271.7
688.461	294.22
688.651	337.23
688.841	247.12
689.03	224.59
689.22	175.44
689.41	269.65
689.599	150.87
689.789	193.87
689.979	353.62
690.168	191.83
690.358	212.31
690.547	294.22
690.737	255.31
690.926	318.8
691.116	261.46
691.305	337.23
691.495	374.1
691.684	191.83
691.874	183.63
692.063	183.63
692.252	300.37
692.442	283.98
692.631	222.55
692.82	179.54
693.01	234.83
693.199	232.79
693.388	273.75
693.578	214.35
693.767	281.94
693.956	290.13
694.146	257.36
694.335	312.66
694.524	157.01
694.713	302.42
694.902	245.07
695.092	181.59
695.281	292.18
695.47	208.21
695.659	208.21
695.848	234.83
696.037	218.45
696.226	290.13
696.415	208.21
696.604	251.22
696.793	380.24
696.982	195.92
697.171	335.18
697.36	226.64
697.549	294.22
697.738	107.86
697.927	212.31
698.116	161.11
698.305	302.42
698.494	296.27
698.683	175.44
698.872	388.43
699.061	195.92
699.25	175.44
699.438	197.97
699.627	195.92
699.816	288.08
700.005	224.59
700.193	253.27
700.382	261.46
700.571	197.97
700.76	193.87
700.948	238.93
701.137	228.69
701.326	288.08
701.514	93.52
701.703	257.36
701.892	249.17
702.08	374.1
702.269	228.69
702.457	144.72
702.646	228.69
702.834	204.11
703.023	224.59
703.212	245.07
703.4	230.74
703.589	249.17
703.777	165.2
703.965	169.3
704.154	161.11
704.342	128.34
704.531	183.63
704.719	277.84
704.907	294.22
705.096	175.44
705.284	109.91
705.472	171.35
705.661	249.17
705.849	267.6
706.037	238.93
706.226	210.26
706.414	183.63
706.602	185.68
706.79	204.11
706.979	202.07
707.167	220.5
707.355	146.77
707.543	206.16
707.731	255.31
707.919	204.11
708.107	130.39
708.296	130.39
708.484	177.49
708.672	251.22
708.86	288.08
709.048	210.26
709.236	154.96
709.424	312.66
709.612	226.64
709.8	79.19
709.988	212.31
710.176	290.13
710.364	347.47
710.551	197.97
710.739	232.79
710.927	189.78
711.115	204.11
711.303	286.03
711.491	290.13
711.679	206.16
711.866	294.22
712.054	200.02
712.242	224.59
712.43	247.12
712.617	200.02
712.805	310.61
712.993	263.51
713.181	142.68
713.368	243.03
713.556	183.63
713.744	210.26
713.931	472.4
714.119	312.66
714.306	197.97
714.494	200.02
714.682	255.31
714.869	195.92
715.057	275.79
715.244	130.39
715.432	224.59
715.619	193.87
715.807	238.93
715.994	279.89
716.182	249.17
716.369	302.42
716.556	349.52
716.744	187.73
716.931	189.78
717.119	261.46
717.306	273.75
717.493	331.09
717.681	232.79
717.868	200.02
718.055	288.08
718.242	310.61
718.43	339.28
718.617	378.19
718.804	265.55
718.991	329.04
719.179	308.56
719.366	314.7
719.553	245.07
719.74	255.31
719.927	159.06
720.114	210.26
720.301	126.29
720.488	130.39
720.676	171.35
720.863	367.95
721.05	353.62
721.237	318.8
721.424	296.27
721.611	204.11
721.798	191.83
721.985	226.64
722.172	210.26
722.358	249.17
722.545	331.09
722.732	286.03
722.919	314.7
723.106	314.7
723.293	269.65
723.48	310.61
723.667	232.79
723.853	417.1
724.04	326.99
724.227	380.24
724.414	245.07
724.6	357.71
724.787	365.9
724.974	394.58
725.161	275.79
725.347	234.83
725.534	261.46
725.72	326.99
725.907	406.86
726.094	341.33
726.28	226.64
726.467	331.09
726.653	251.22
726.84	337.23
727.027	294.22
727.213	308.56
727.4	271.7
727.586	320.85
727.773	361.81
727.959	275.79
728.145	294.22
728.332	261.46
728.518	218.45
728.705	298.32
728.891	304.46
729.077	370
729.264	263.51
729.45	370
729.636	427.34
729.823	351.57
730.009	288.08
730.195	406.86
730.382	339.28
730.568	210.26
730.754	322.9
730.94	312.66
731.126	339.28
731.313	345.42
731.499	367.95
731.685	421.2
731.871	351.57
732.057	337.23
732.243	351.57
732.429	337.23
732.615	417.1
732.801	331.09
732.987	359.76
733.173	320.85
733.359	288.08
733.545	406.86
733.731	380.24
733.917	425.29
734.103	404.82
734.289	363.86
734.475	283.98
734.661	433.49
734.847	337.23
735.033	355.66
735.219	320.85
735.404	341.33
735.59	267.6
735.776	298.32
735.962	353.62
736.148	372.05
736.333	437.58
736.519	292.18
736.705	337.23
736.89	329.04
737.076	347.47
737.262	316.75
737.447	286.03
737.633	343.38
737.819	392.53
738.004	273.75
738.19	326.99
738.375	388.43
738.561	415.05
738.747	417.1
738.932	269.65
739.118	613.71
739.303	478.54
739.489	314.7
739.674	288.08
739.859	298.32
740.045	355.66
740.23	406.86
740.416	185.68
740.601	386.38
740.786	347.47
740.972	331.09
741.157	322.9
741.342	267.6
741.528	326.99
741.713	433.49
741.898	324.94
742.084	308.56
742.269	292.18
742.454	341.33
742.639	408.91
742.824	343.38
743.01	456.01
743.195	499.02
743.38	382.29
743.565	269.65
743.75	335.18
743.935	417.1
744.12	425.29
744.305	286.03
744.49	234.83
744.675	228.69
744.86	236.88
745.045	361.81
745.23	347.47
745.415	329.04
745.6	357.71
745.785	224.59
745.97	386.38
746.155	302.42
746.34	341.33
746.525	294.22
746.71	435.53
746.895	261.46
747.079	189.78
747.264	269.65
747.449	333.14
747.634	384.34
747.819	308.56
748.003	220.5
748.188	183.63
748.373	333.14
748.557	288.08
748.742	261.46
748.927	240.98
749.111	351.57
749.296	171.35
749.481	398.67
749.665	240.98
749.85	255.31
750.034	343.38
750.219	316.75
750.404	263.51
750.588	255.31
750.773	220.5
750.957	347.47
751.141	245.07
751.326	265.55
751.51	255.31
751.695	122.2
751.879	261.46
752.064	376.14
752.248	187.73
752.432	396.62
752.617	359.76
752.801	337.23
752.985	218.45
753.17	253.27
753.354	347.47
753.538	351.57
753.722	157.01
753.907	247.12
754.091	230.74
754.275	294.22
754.459	99.67
754.643	193.87
754.828	220.5
755.012	251.22
755.196	218.45
755.38	183.63
755.564	197.97
755.748	189.78
755.932	292.18
756.116	265.55
756.3	255.31
756.484	185.68
756.668	324.94
756.852	126.29
757.036	253.27
757.22	218.45
757.404	140.63
757.588	220.5
757.772	238.93
757.956	152.91
758.14	370
758.323	169.3
758.507	230.74
758.691	169.3
758.875	267.6
759.059	183.63
759.242	109.91
759.426	214.35
759.61	265.55
759.794	85.33
759.977	226.64
760.161	349.52
760.345	243.03
760.528	277.84
760.712	197.97
760.895	255.31
761.079	202.07
761.263	64.85
761.446	154.96
761.63	161.11
761.813	286.03
761.997	114
762.18	122.2
762.364	214.35
762.547	130.39
762.731	259.41
762.914	148.82
763.098	114
763.281	122.2
763.464	185.68
763.648	101.72
763.831	150.87
764.015	122.2
764.198	243.03
764.381	216.4
764.564	157.01
764.748	142.68
764.931	163.15
765.114	175.44
765.297	216.4
765.481	66.9
765.664	91.48
765.847	195.92
766.03	193.87
766.213	126.29
766.397	173.39
766.58	58.71
766.763	144.72
766.946	107.86
767.129	157.01
767.312	114
767.495	124.24
767.678	142.68
767.861	154.96
768.044	111.96
768.227	68.95
768.41	159.06
768.593	257.36
768.776	144.72
768.959	81.24
769.142	230.74
769.324	97.62
769.507	124.24
769.69	159.06
769.873	105.81
770.056	247.12
770.239	83.28
770.421	204.11
770.604	193.87
770.787	107.86
770.97	83.28
771.152	38.23
771.335	161.11
771.518	118.1
771.7	222.55
771.883	226.64
772.066	138.58
772.248	83.28
772.431	234.83
772.613	85.33
772.796	124.24
772.978	152.91
773.161	267.6
773.343	116.05
773.526	95.57
773.708	1.37
773.891	-15.02
774.073	118.1
774.256	73.04
774.438	195.92
774.621	54.61
774.803	144.72
774.985	54.61
775.168	236.88
775.35	93.52
775.532	118.1
775.715	58.71
775.897	136.53
776.079	42.32
776.261	218.45
776.444	107.86
776.626	124.24
776.808	89.43
776.99	50.52
777.173	134.48
777.355	50.52
777.537	87.38
777.719	103.76
777.901	120.15
778.083	27.99
778.265	-25.26
778.447	91.48
778.629	11.61
778.811	107.86
778.993	93.52
779.175	134.48
779.357	122.2
779.539	-15.02
779.721	50.52
779.903	193.87
780.085	56.66
780.267	181.59
780.449	128.34
780.631	204.11
780.812	171.35
780.994	62.8
781.176	111.96
781.358	120.15
781.54	40.28
781.721	136.53
781.903	208.21
782.085	93.52
782.267	144.72
782.448	40.28
782.63	40.28
782.812	114
782.993	169.3
783.175	77.14
783.357	50.52
783.538	165.2
783.72	-27.31
783.901	5.46
784.083	52.56
784.264	107.86
784.446	-39.59
784.627	-0.68
784.809	71
784.99	-66.22
785.172	44.37
785.353	36.18
785.535	34.13
785.716	75.09
785.897	-37.55
786.079	60.76
786.26	58.71
786.441	68.95
786.623	5.46
786.804	38.23
786.985	-17.07
787.167	52.56
787.348	44.37
787.529	15.7
787.71	171.35
787.891	7.51
788.073	11.61
788.254	36.18
788.435	165.2
788.616	15.7
788.797	38.23
788.978	40.28
789.159	3.41
789.34	116.05
789.522	52.56
789.703	58.71
789.884	116.05
790.065	52.56
790.246	193.87
790.427	77.14
790.607	122.2
790.788	52.56
790.969	3.41
791.15	107.86
791.331	40.28
791.512	-62.12
791.693	17.75
791.874	62.8
792.054	142.68
792.235	75.09
792.416	9.56
792.597	38.23
792.778	114
792.958	79.19
793.139	66.9
793.32	68.95
793.5	-2.73
793.681	103.76
793.862	101.72
794.042	1.37
794.223	27.99
794.404	-39.59
794.584	-4.78
794.765	64.85
794.945	79.19
795.126	42.32
795.306	136.53
795.487	46.42
795.667	-45.74
795.848	52.56
796.028	30.04
796.209	48.47
796.389	150.87
796.57	85.33
796.75	-21.16
796.93	-0.68
797.111	-35.5
797.291	30.04
797.471	48.47
797.652	27.99
797.832	1.37
798.012	66.9
798.192	-25.26
798.373	-15.02
798.553	-62.12
798.733	75.09
798.913	-33.45
799.093	46.42
799.274	25.94
799.454	11.61
799.634	73.04
799.814	93.52
799.994	114
800.174	95.57
800.354	-31.4
800.534	-107.18
800.714	81.24
800.894	-45.74
801.074	-4.78
801.254	19.8
801.434	197.97
801.614	42.32
801.794	-12.97
801.974	1764.67
802.154	-4.78
802.334	126.29
802.514	-60.07
802.693	-0.68
802.873	71
803.053	101.72
803.233	-12.97
803.413	30.04
803.592	1.37
803.772	-25.26
803.952	-33.45
804.131	-35.5
804.311	105.81
804.491	77.14
804.67	50.52
804.85	-29.35
805.03	-21.16
805.209	101.72
805.389	54.61
805.568	64.85
805.748	23.89
805.928	19.8
806.107	71
806.287	66.9
806.466	50.52
806.646	25.94
806.825	-6.83
807.004	5.46
807.184	30.04
807.363	122.2
807.543	75.09
807.722	-74.41
807.901	3.41
808.081	60.76
808.26	-141.99
808.439	-12.97
808.619	-33.45
808.798	-8.87
808.977	68.95
809.156	109.91
809.336	17.75
809.515	68.95
809.694	-123.56
809.873	-119.46
810.052	91.48
810.231	83.28
810.411	-23.21
810.59	58.71
810.769	46.42
810.948	91.48
811.127	-25.26
811.306	-31.4
811.485	21.84
811.664	173.39
811.843	23.89
812.022	-35.5
812.201	9.56
812.38	-8.87
812.559	-8.87
812.737	54.61
812.916	-103.08
813.095	21.84
813.274	19.8
813.453	1.37
813.632	27.99
813.811	36.18
813.989	-23.21
814.168	-33.45
814.347	-2.73
814.526	-0.68
814.704	142.68
814.883	46.42
815.062	-17.07
815.24	40.28
815.419	48.47
815.598	111.96
815.776	-82.6
815.955	85.33
816.133	-10.92
816.312	48.47
816.49	46.42
816.669	60.76
816.847	60.76
817.026	105.81
817.204	-53.93
817.383	-12.97
817.561	30.04
817.74	7.51
817.918	-29.35
818.097	5.46
818.275	34.13
818.453	-8.87
818.632	77.14
818.81	-4.78
818.988	60.76
819.167	75.09
819.345	52.56
819.523	-96.94
819.701	52.56
819.879	-0.68
820.058	3.41
820.236	15.7
820.414	-12.97
820.592	48.47
820.77	15.7
820.948	5.46
821.127	7.51
821.305	93.52
821.483	15.7
821.661	50.52
821.839	1.37
822.017	3.41
822.195	48.47
822.373	60.76
822.551	3.41
822.729	64.85
822.907	-33.45
823.085	68.95
823.262	15.7
823.44	62.8
823.618	-4.78
823.796	40.28
823.974	-23.21
824.152	-2.73
824.329	19.8
824.507	46.42
824.685	-15.02
824.863	68.95
825.04	48.47
825.218	103.76
825.396	42.32
825.574	13.65
825.751	23.89
825.929	85.33
826.107	-10.92
826.284	46.42
826.462	118.1
826.639	-29.35
826.817	-66.22
826.994	34.13
827.172	-45.74
827.349	120.15
827.527	-12.97
827.704	-25.26
827.882	105.81
828.059	-35.5
828.237	15.7
828.414	66.9
828.591	-17.07
828.769	-29.35
828.946	-76.46
829.124	97.62
829.301	79.19
829.478	9.56
829.655	-10.92
829.833	-6.83
830.01	-148.14
830.187	17.75
830.364	-15.02
830.542	23.89
830.719	83.28
830.896	64.85
831.073	5.46
831.25	19.8
831.427	30.04
831.604	3.41
831.782	-66.22
831.959	46.42
832.136	-31.4
832.313	25.94
832.49	-41.64
832.667	32.08
832.844	-23.21
833.021	75.09
833.198	21.84
833.374	-31.4
833.551	30.04
833.728	-45.74
833.905	30.04
834.082	-62.12
834.259	46.42
834.436	161.11
834.612	-55.98
834.789	89.43
834.966	52.56
835.143	68.95
835.319	-88.75
835.496	-49.83
835.673	56.66
835.85	111.96
836.026	91.48
836.203	62.8
836.38	-49.83
836.556	-4.78
836.733	-17.07
836.909	138.58
837.086	-29.35
837.262	-94.89
837.439	32.08
837.616	-25.26
837.792	-62.12
837.968	30.04
838.145	-53.93
838.321	-35.5
838.498	152.91
838.674	138.58
838.851	87.38
839.027	56.66
839.203	13.65
839.38	66.9
839.556	-60.07
839.732	114
839.909	-98.99
840.085	44.37
840.261	-82.6
840.437	60.76
840.614	-86.7
840.79	64.85
840.966	91.48
841.142	32.08
841.318	-27.31
841.494	-33.45
841.671	116.05
841.847	-76.46
842.023	-8.87
842.199	17.75
842.375	93.52
842.551	-90.79
842.727	-45.74
842.903	111.96
843.079	-98.99
843.255	62.8
843.431	-15.02
843.607	15.7
843.783	-55.98
843.959	-4.78
844.134	7.51
844.31	42.32
844.486	3.41
844.662	9.56
844.838	-82.6
845.013	118.1
845.189	40.28
845.365	-47.79
845.541	34.13
845.716	-12.97
845.892	114
846.068	-41.64
846.244	-19.11
846.419	75.09
846.595	-60.07
846.77	-43.69
846.946	54.61
847.122	-15.02
847.297	1.37
847.473	107.86
847.648	-101.03
847.824	-2.73
847.999	-141.99
848.175	9.56
848.35	27.99
848.526	111.96
848.701	60.76
848.876	128.34
849.052	107.86
849.227	-35.5
849.403	13.65
849.578	66.9
849.753	62.8
849.929	9.56
850.104	-88.75
850.279	-88.75
850.454	77.14
850.63	25.94
850.805	-12.97
850.98	40.28
851.155	-19.11
851.33	25.94
851.505	-51.88
851.681	89.43
851.856	-33.45
852.031	105.81
852.206	-15.02
852.381	-25.26
852.556	85.33
852.731	15.7
852.906	118.1
853.081	7.51
853.256	154.96
853.431	50.52
853.606	-90.79
853.781	-15.02
853.956	-82.6
854.131	103.76
854.305	-105.13
854.48	-47.79
854.655	-101.03
854.83	36.18
855.005	-4.78
855.18	1.37
855.354	-0.68
855.529	13.65
855.704	-35.5
855.879	34.13
856.053	-21.16
856.228	64.85
856.403	-78.51
856.577	32.08
856.752	-115.37
856.926	-72.36
857.101	17.75
857.276	-29.35
857.45	85.33
857.625	48.47
857.799	36.18
857.974	23.89
858.148	-137.9
858.323	-37.55
858.497	13.65
858.672	-45.74
858.846	-127.66
859.02	52.56
859.195	-115.37
859.369	-8.87
859.543	-0.68
859.718	-80.55
859.892	60.76
860.066	-17.07
860.241	-84.65
860.415	-60.07
860.589	1.37
860.763	13.65
860.938	50.52
861.112	101.72
861.286	-12.97
861.46	5.46
861.634	44.37
861.808	99.67
861.982	-135.85
862.157	-105.13
862.331	1.37
862.505	-64.17
862.679	-60.07
862.853	-31.4
863.027	25.94
863.201	107.86
863.375	-51.88
863.549	-12.97
863.722	52.56
863.896	60.76
864.07	-41.64
864.244	-12.97
864.418	48.47
864.592	-29.35
864.766	-51.88
864.939	-39.59
865.113	-29.35
865.287	71
865.461	-125.61
865.634	-12.97
865.808	50.52
865.982	-8.87
866.156	-105.13
866.329	-66.22
866.503	-27.31
866.676	30.04
866.85	42.32
867.024	-0.68
867.197	109.91
867.371	60.76
867.544	23.89
867.718	-62.12
867.891	126.29
868.065	-105.13
868.238	58.71
868.412	75.09
868.585	-4.78
868.759	-41.64
868.932	-39.59
869.105	-62.12
869.279	89.43
869.452	-76.46
869.625	85.33
869.799	11.61
869.972	-60.07
870.145	-74.41
870.319	54.61
870.492	-66.22
870.665	-2.73
870.838	-35.5
871.011	-135.85
871.185	-47.79
871.358	19.8
871.531	19.8
871.704	-82.6
871.877	-4.78
872.05	-33.45
872.223	-66.22
872.396	34.13
872.569	30.04
872.742	-37.55
872.915	-33.45
873.088	23.89
873.261	-62.12
873.434	40.28
873.607	-55.98
873.78	83.28
873.953	-121.51
874.126	32.08
874.299	111.96
874.471	-17.07
874.644	27.99
874.817	52.56
874.99	161.11
875.163	13.65
875.335	-2.73
875.508	13.65
875.681	87.38
875.853	-43.69
876.026	-17.07
876.199	56.66
876.371	58.71
876.544	25.94
876.717	48.47
876.889	-41.64
877.062	-6.83
877.234	-17.07
877.407	-35.5
877.579	38.23
877.752	-76.46
877.924	56.66
878.097	13.65
878.269	-6.83
878.442	15.7
878.614	-19.11
878.786	-19.11
878.959	93.52
879.131	1.37
879.303	-33.45
879.476	-0.68
879.648	46.42
879.82	-51.88
879.993	-105.13
880.165	-17.07
880.337	-74.41
880.509	-45.74
880.681	-51.88
880.854	-86.7
881.026	107.86
881.198	91.48
881.37	-23.21
881.542	-15.02
881.714	27.99
881.886	-51.88
882.058	-90.79
882.23	-10.92
882.402	93.52
882.574	15.7
882.746	48.47
882.918	83.28
883.09	48.47
883.262	-31.4
883.434	-41.64
883.606	-70.31
883.778	-10.92
883.95	150.87
884.122	-31.4
884.293	116.05
884.465	54.61
884.637	58.71
884.809	-8.87
884.98	34.13
885.152	64.85
885.324	5.46
885.496	-92.84
885.667	-66.22
885.839	1.37
886.011	122.2
886.182	-12.97
886.354	85.33
886.525	-31.4
886.697	93.52
886.869	-66.22
887.04	-39.59
887.212	118.1
887.383	97.62
887.555	13.65
887.726	-2.73
887.897	-82.6
888.069	30.04
888.24	46.42
888.412	-64.17
888.583	-15.02
888.754	11.61
888.926	-201.38
889.097	-74.41
889.268	-78.51
889.44	-27.31
889.611	-88.75
889.782	-107.18
889.953	40.28
890.125	128.34
890.296	-43.69
890.467	27.99
890.638	-94.89
890.809	44.37
890.98	-76.46
891.151	-2.73
891.323	122.2
891.494	27.99
891.665	-27.31
891.836	30.04
892.007	-41.64
892.178	1.37
892.349	-12.97
892.52	-51.88
892.691	-10.92
892.862	-92.84
893.032	-98.99
893.203	-37.55
893.374	32.08
893.545	116.05
893.716	50.52
893.887	50.52
894.057	-111.27
894.228	-17.07
894.399	-25.26
894.57	40.28
894.74	64.85
894.911	27.99
895.082	30.04
895.253	19.8
895.423	7.51
895.594	79.19
895.764	60.76
895.935	-78.51
896.106	3.41
896.276	-55.98
896.447	32.08
896.617	-115.37
896.788	-45.74
896.958	-33.45
897.129	52.56
897.299	-37.55
897.47	103.76
897.64	126.29
897.81	-8.87
897.981	-39.59
898.151	-25.26
898.322	-33.45
898.492	-10.92
898.662	-45.74
898.832	-0.68
899.003	-78.51
899.173	73.04
899.343	-49.83
899.513	-76.46
