Data from USB4F104151__23__10-23-54-544.txt Node

Date: Wed Feb 26 10:23:54 EST 2025
User: louis
Spectrometer: USB4F10415
Trigger mode: 4
Integration Time (sec): 1.000000E-1
Scans to average: 1
Electric dark correction enabled: true
Nonlinearity correction enabled: false
Boxcar width: 0
XAxis mode: Wavelengths
Number of Pixels in Spectrum: 3648
>>>>>Begin Spectral Data<<<<<
178.204	-373.24
178.424	-373.24
178.644	-373.24
178.864	-352.76
179.084	-408.06
179.304	-14.85
179.524	42.5
179.744	-47.62
179.964	71.17
180.184	36.35
180.404	3.58
180.624	-35.33
180.844	-31.23
181.064	-47.62
181.283	44.54
181.503	-72.19
181.723	50.69
181.943	-92.67
182.163	132.61
182.383	-51.71
182.602	56.83
182.822	218.62
183.042	101.89
183.262	-86.53
183.482	-37.38
183.701	36.35
183.921	77.31
184.141	-127.49
184.361	40.45
184.58	69.12
184.8	91.65
185.02	1.54
185.239	93.69
185.459	67.07
185.679	65.02
185.898	-145.92
186.118	105.98
186.338	48.64
186.557	99.84
186.777	-70.14
186.997	22.02
187.216	46.59
187.436	212.48
187.655	108.03
187.875	91.65
188.095	40.45
188.314	93.69
188.534	151.04
188.753	-47.62
188.973	132.61
189.192	83.45
189.412	26.11
189.631	46.59
189.851	114.17
190.07	169.47
190.29	-23.04
190.509	24.06
190.729	15.87
190.948	89.6
191.168	251.39
191.387	124.41
191.607	36.35
191.826	81.41
192.045	54.78
192.265	52.74
192.484	73.21
192.704	73.21
192.923	-6.66
193.142	101.89
193.362	110.08
193.581	144.89
193.8	130.56
194.02	93.69
194.239	48.64
194.458	101.89
194.678	87.55
194.897	22.02
195.116	67.07
195.335	50.69
195.555	13.82
195.774	54.78
195.993	105.98
196.212	26.11
196.432	48.64
196.651	-18.94
196.87	46.59
197.089	261.63
197.308	38.4
197.528	103.93
197.747	-33.28
197.966	83.45
198.185	140.8
198.404	-6.66
198.623	77.31
198.842	142.85
199.062	103.93
199.281	169.47
199.5	44.54
199.719	42.5
199.938	103.93
200.157	75.26
200.376	118.27
200.595	198.14
200.814	62.98
201.033	-16.9
201.252	204.28
201.471	40.45
201.69	50.69
201.909	36.35
202.128	132.61
202.347	138.75
202.566	46.59
202.785	-14.85
203.004	-23.04
203.223	214.52
203.442	-8.7
203.661	-16.9
203.879	54.78
204.098	183.81
204.317	-18.94
204.536	83.45
204.755	42.5
204.974	114.17
205.193	9.73
205.411	105.98
205.63	120.32
205.849	28.16
206.068	5.63
206.287	-18.94
206.505	108.03
206.724	75.26
206.943	-0.51
207.162	-84.48
207.381	48.64
207.599	-8.7
207.818	99.84
208.037	-51.71
208.255	24.06
208.474	-2.56
208.693	42.5
208.911	71.17
209.13	124.41
209.349	58.88
209.567	101.89
209.786	48.64
210.005	71.17
210.223	75.26
210.442	-102.91
210.661	48.64
210.879	65.02
211.098	30.21
211.316	-2.56
211.535	73.21
211.753	91.65
211.972	103.93
212.191	-14.85
212.409	9.73
212.628	112.13
212.846	-18.94
213.065	67.07
213.283	97.79
213.502	7.68
213.72	30.21
213.938	9.73
214.157	-49.66
214.375	71.17
214.594	-8.7
214.812	32.26
215.031	54.78
215.249	58.88
215.467	-2.56
215.686	83.45
215.904	79.36
216.122	69.12
216.341	142.85
216.559	-18.94
216.778	97.79
216.996	81.41
217.214	32.26
217.432	22.02
217.651	-31.23
217.869	124.41
218.087	71.17
218.306	-10.75
218.524	79.36
218.742	3.58
218.96	95.74
219.179	9.73
219.397	67.07
219.615	179.71
219.833	50.69
220.051	-37.38
220.27	24.06
220.488	142.85
220.706	103.93
220.924	-57.86
221.142	22.02
221.36	71.17
221.578	79.36
221.796	15.87
222.015	38.4
222.233	116.22
222.451	134.65
222.669	22.02
222.887	108.03
223.105	-31.23
223.323	46.59
223.541	24.06
223.759	157.18
223.977	54.78
224.195	173.57
224.413	120.32
224.631	83.45
224.849	65.02
225.067	124.41
225.285	38.4
225.503	-10.75
225.721	-27.14
225.939	103.93
226.157	42.5
226.375	226.81
226.592	-16.9
226.81	46.59
227.028	159.23
227.246	95.74
227.464	85.5
227.682	54.78
227.9	77.31
228.117	62.98
228.335	136.7
228.553	9.73
228.771	-33.28
228.989	15.87
229.206	120.32
229.424	75.26
229.642	15.87
229.86	-111.1
230.077	81.41
230.295	81.41
230.513	32.26
230.731	60.93
230.948	153.09
231.166	134.65
231.384	15.87
231.601	-23.04
231.819	124.41
232.037	-18.94
232.254	-14.85
232.472	58.88
232.689	-68.09
232.907	132.61
233.125	-12.8
233.342	-25.09
233.56	54.78
233.777	22.02
233.995	19.97
234.213	58.88
234.43	65.02
234.648	1.54
234.865	40.45
235.083	40.45
235.3	54.78
235.518	134.65
235.735	118.27
235.953	87.55
236.17	73.21
236.388	60.93
236.605	71.17
236.822	103.93
237.04	71.17
237.257	79.36
237.475	-76.29
237.692	40.45
237.909	140.8
238.127	24.06
238.344	77.31
238.562	26.11
238.779	17.92
238.996	-6.66
239.214	1.54
239.431	60.93
239.648	22.02
239.865	77.31
240.083	128.51
240.3	-10.75
240.517	71.17
240.735	-4.61
240.952	89.6
241.169	75.26
241.386	130.56
241.603	19.97
241.821	-2.56
242.038	118.27
242.255	83.45
242.472	-23.04
242.689	124.41
242.907	1.54
243.124	34.3
243.341	95.74
243.558	19.97
243.775	34.3
243.992	-76.29
244.209	91.65
244.426	142.85
244.643	62.98
244.86	46.59
245.078	87.55
245.295	81.41
245.512	38.4
245.729	13.82
245.946	46.59
246.163	42.5
246.38	65.02
246.597	22.02
246.814	3.58
247.031	122.37
247.248	26.11
247.464	46.59
247.681	24.06
247.898	79.36
248.115	65.02
248.332	26.11
248.549	146.94
248.766	175.61
248.983	85.5
249.2	91.65
249.417	50.69
249.633	-33.28
249.85	155.13
250.067	11.78
250.284	185.85
250.501	34.3
250.717	62.98
250.934	-82.43
251.151	13.82
251.368	69.12
251.585	91.65
251.801	24.06
252.018	-45.57
252.235	146.94
252.451	-45.57
252.668	75.26
252.885	138.75
253.102	60.93
253.318	-6.66
253.535	38.4
253.752	3.58
253.968	-12.8
254.185	-88.57
254.401	58.88
254.618	87.55
254.835	-41.47
255.051	67.07
255.268	118.27
255.484	56.83
255.701	-8.7
255.917	-20.99
256.134	-18.94
256.351	40.45
256.567	-82.43
256.784	32.26
257	-84.48
257.217	146.94
257.433	169.47
257.65	62.98
257.866	110.08
258.082	-20.99
258.299	17.92
258.515	97.79
258.732	28.16
258.948	26.11
259.165	103.93
259.381	-70.14
259.597	19.97
259.814	75.26
260.03	-10.75
260.246	-4.61
260.463	112.13
260.679	161.28
260.895	44.54
261.112	81.41
261.328	87.55
261.544	26.11
261.761	153.09
261.977	-47.62
262.193	-84.48
262.409	140.8
262.626	26.11
262.842	-45.57
263.058	-10.75
263.274	142.85
263.49	17.92
263.707	157.18
263.923	52.74
264.139	-92.67
264.355	54.78
264.571	73.21
264.787	93.69
265.004	126.46
265.22	46.59
265.436	-10.75
265.652	3.58
265.868	24.06
266.084	-39.42
266.3	36.35
266.516	-27.14
266.732	22.02
266.948	-6.66
267.164	-39.42
267.38	101.89
267.596	73.21
267.812	151.04
268.028	24.06
268.244	-4.61
268.46	91.65
268.676	62.98
268.892	79.36
269.108	-25.09
269.324	-16.9
269.54	-35.33
269.756	124.41
269.972	-10.75
270.188	22.02
270.403	-82.43
270.619	11.78
270.835	99.84
271.051	-10.75
271.267	-72.19
271.483	9.73
271.698	99.84
271.914	58.88
272.13	144.89
272.346	17.92
272.562	32.26
272.777	198.14
272.993	-6.66
273.209	36.35
273.425	83.45
273.64	48.64
273.856	157.18
274.072	-12.8
274.287	-33.28
274.503	65.02
274.719	93.69
274.934	13.82
275.15	-68.09
275.366	83.45
275.581	-82.43
275.797	79.36
276.012	71.17
276.228	-8.7
276.444	69.12
276.659	153.09
276.875	-57.86
277.09	56.83
277.306	-4.61
277.521	42.5
277.737	87.55
277.952	30.21
278.168	40.45
278.383	97.79
278.599	24.06
278.814	38.4
279.03	83.45
279.245	99.84
279.461	44.54
279.676	54.78
279.892	36.35
280.107	-8.7
280.322	-74.24
280.538	81.41
280.753	3.58
280.969	40.45
281.184	-23.04
281.399	126.46
281.615	1.54
281.83	118.27
282.045	-68.09
282.26	-2.56
282.476	58.88
282.691	44.54
282.906	48.64
283.122	134.65
283.337	34.3
283.552	128.51
283.767	36.35
283.983	99.84
284.198	24.06
284.413	87.55
284.628	-76.29
284.843	140.8
285.058	52.74
285.274	26.11
285.489	77.31
285.704	44.54
285.919	5.63
286.134	58.88
286.349	46.59
286.564	11.78
286.779	212.48
286.995	11.78
287.21	-43.52
287.425	103.93
287.64	-0.51
287.855	81.41
288.07	-39.42
288.285	114.17
288.5	99.84
288.715	17.92
288.93	81.41
289.145	-6.66
289.36	112.13
289.575	30.21
289.79	75.26
290.004	-10.75
290.219	69.12
290.434	28.16
290.649	71.17
290.864	-16.9
291.079	-0.51
291.294	75.26
291.509	19.97
291.724	-12.8
291.938	-4.61
292.153	42.5
292.368	7.68
292.583	77.31
292.798	95.74
293.012	77.31
293.227	134.65
293.442	42.5
293.657	132.61
293.871	159.23
294.086	85.5
294.301	169.47
294.516	112.13
294.73	50.69
294.945	26.11
295.16	58.88
295.374	151.04
295.589	114.17
295.804	-16.9
296.018	-14.85
296.233	116.22
296.447	26.11
296.662	-16.9
296.877	220.67
297.091	124.41
297.306	-2.56
297.52	44.54
297.735	130.56
297.949	-35.33
298.164	-20.99
298.378	58.88
298.593	38.4
298.807	-35.33
299.022	73.21
299.236	183.81
299.451	24.06
299.665	-88.57
299.88	-31.23
300.094	99.84
300.309	71.17
300.523	120.32
300.737	-4.61
300.952	54.78
301.166	81.41
301.381	-4.61
301.595	42.5
301.809	52.74
302.024	-10.75
302.238	-59.9
302.452	132.61
302.667	30.21
302.881	181.76
303.095	134.65
303.309	99.84
303.524	-53.76
303.738	42.5
303.952	62.98
304.166	77.31
304.381	-76.29
304.595	110.08
304.809	-41.47
305.023	19.97
305.237	91.65
305.452	34.3
305.666	15.87
305.88	97.79
306.094	105.98
306.308	116.22
306.522	103.93
306.736	112.13
306.95	142.85
307.164	50.69
307.379	3.58
307.593	32.26
307.807	132.61
308.021	58.88
308.235	83.45
308.449	-61.95
308.663	5.63
308.877	189.95
309.091	32.26
309.305	173.57
309.519	-47.62
309.733	110.08
309.947	-0.51
310.161	81.41
310.374	69.12
310.588	112.13
310.802	-27.14
311.016	-64
311.23	81.41
311.444	-117.25
311.658	26.11
311.872	58.88
312.085	67.07
312.299	153.09
312.513	130.56
312.727	124.41
312.941	-119.29
313.154	15.87
313.368	11.78
313.582	50.69
313.796	36.35
314.009	9.73
314.223	71.17
314.437	54.78
314.651	79.36
314.864	52.74
315.078	22.02
315.292	-43.52
315.505	22.02
315.719	126.46
315.933	38.4
316.146	-20.99
316.36	-94.72
316.573	77.31
316.787	101.89
317.001	65.02
317.214	3.58
317.428	-33.28
317.641	19.97
317.855	-45.57
318.068	50.69
318.282	93.69
318.495	169.47
318.709	36.35
318.922	67.07
319.136	183.81
319.349	120.32
319.563	-66.05
319.776	65.02
319.99	-92.67
320.203	54.78
320.417	-51.71
320.63	126.46
320.843	138.75
321.057	38.4
321.27	101.89
321.483	112.13
321.697	155.13
321.91	40.45
322.124	15.87
322.337	138.75
322.55	-66.05
322.763	19.97
322.977	11.78
323.19	-53.76
323.403	34.3
323.617	24.06
323.83	108.03
324.043	40.45
324.256	75.26
324.469	-72.19
324.683	97.79
324.896	7.68
325.109	-8.7
325.322	-74.24
325.535	108.03
325.748	73.21
325.962	-6.66
326.175	67.07
326.388	17.92
326.601	175.61
326.814	-45.57
327.027	89.6
327.24	157.18
327.453	-55.81
327.666	93.69
327.879	99.84
328.092	65.02
328.305	-45.57
328.518	28.16
328.731	-16.9
328.944	-25.09
329.157	85.5
329.37	-33.28
329.583	241.15
329.796	155.13
330.009	-16.9
330.222	54.78
330.435	103.93
330.648	38.4
330.861	-8.7
331.073	71.17
331.286	81.41
331.499	52.74
331.712	-45.57
331.925	54.78
332.138	5.63
332.35	110.08
332.563	24.06
332.776	140.8
332.989	-55.81
333.202	42.5
333.414	75.26
333.627	15.87
333.84	73.21
334.053	42.5
334.265	62.98
334.478	-49.66
334.691	5.63
334.903	-29.18
335.116	15.87
335.329	-37.38
335.541	62.98
335.754	132.61
335.966	15.87
336.179	67.07
336.392	79.36
336.604	-4.61
336.817	46.59
337.029	87.55
337.242	79.36
337.454	146.94
337.667	38.4
337.88	200.19
338.092	116.22
338.305	167.42
338.517	-43.52
338.729	85.5
338.942	134.65
339.154	-117.25
339.367	-59.9
339.579	28.16
339.792	-39.42
340.004	128.51
340.217	42.5
340.429	73.21
340.641	-61.95
340.854	24.06
341.066	34.3
341.278	138.75
341.491	181.76
341.703	46.59
341.915	-35.33
342.128	185.85
342.34	169.47
342.552	26.11
342.764	32.26
342.977	7.68
343.189	73.21
343.401	54.78
343.613	-61.95
343.826	-23.04
344.038	-49.66
344.25	103.93
344.462	-33.28
344.674	52.74
344.886	-18.94
345.099	93.69
345.311	75.26
345.523	73.21
345.735	-72.19
345.947	48.64
346.159	81.41
346.371	-8.7
346.583	-49.66
346.795	224.76
347.007	65.02
347.219	71.17
347.431	75.26
347.643	69.12
347.855	-14.85
348.067	206.33
348.279	-35.33
348.491	67.07
348.703	95.74
348.915	46.59
349.127	19.97
349.339	65.02
349.551	1.54
349.763	114.17
349.975	26.11
350.187	48.64
350.399	200.19
350.61	89.6
350.822	-59.9
351.034	85.5
351.246	54.78
351.458	65.02
351.669	34.3
351.881	67.07
352.093	103.93
352.305	148.99
352.517	34.3
352.728	124.41
352.94	17.92
353.152	108.03
353.363	-35.33
353.575	46.59
353.787	110.08
353.999	97.79
354.21	183.81
354.422	-6.66
354.633	3.58
354.845	79.36
355.057	17.92
355.268	101.89
355.48	124.41
355.692	-68.09
355.903	24.06
356.115	-35.33
356.326	-39.42
356.538	120.32
356.749	112.13
356.961	112.13
357.172	-12.8
357.384	3.58
357.595	235
357.807	30.21
358.018	-14.85
358.23	17.92
358.441	206.33
358.653	48.64
358.864	15.87
359.075	-27.14
359.287	110.08
359.498	151.04
359.709	120.32
359.921	30.21
360.132	30.21
360.344	13.82
360.555	81.41
360.766	112.13
360.977	99.84
361.189	112.13
361.4	85.5
361.611	148.99
361.823	97.79
362.034	28.16
362.245	-57.86
362.456	-20.99
362.667	58.88
362.879	-147.97
363.09	73.21
363.301	46.59
363.512	79.36
363.723	-98.81
363.935	46.59
364.146	112.13
364.357	42.5
364.568	44.54
364.779	-76.29
364.99	120.32
365.201	-51.71
365.412	79.36
365.623	-2.56
365.834	58.88
366.045	-16.9
366.256	50.69
366.467	134.65
366.678	22.02
366.889	122.37
367.1	-55.81
367.311	134.65
367.522	-43.52
367.733	52.74
367.944	44.54
368.155	15.87
368.366	75.26
368.577	128.51
368.788	171.52
368.999	1.54
369.209	75.26
369.42	216.57
369.631	181.76
369.842	69.12
370.053	-16.9
370.264	130.56
370.474	26.11
370.685	118.27
370.896	-18.94
371.107	99.84
371.317	81.41
371.528	-2.56
371.739	52.74
371.95	26.11
372.16	62.98
372.371	-64
372.582	-76.29
372.792	120.32
373.003	81.41
373.214	-23.04
373.424	36.35
373.635	9.73
373.846	194.05
374.056	-84.48
374.267	30.21
374.477	75.26
374.688	-43.52
374.898	46.59
375.109	91.65
375.319	30.21
375.53	132.61
375.74	89.6
375.951	40.45
376.161	87.55
376.372	48.64
376.582	-53.76
376.793	32.26
377.003	40.45
377.214	-59.9
377.424	91.65
377.635	-4.61
377.845	-12.8
378.055	175.61
378.266	-49.66
378.476	22.02
378.686	83.45
378.897	17.92
379.107	65.02
379.317	34.3
379.528	-55.81
379.738	114.17
379.948	-37.38
380.158	132.61
380.369	-0.51
380.579	75.26
380.789	11.78
380.999	108.03
381.21	120.32
381.42	101.89
381.63	36.35
381.84	175.61
382.05	120.32
382.261	99.84
382.471	144.89
382.681	-16.9
382.891	124.41
383.101	52.74
383.311	15.87
383.521	38.4
383.731	30.21
383.941	171.52
384.151	130.56
384.361	-23.04
384.571	40.45
384.781	30.21
384.991	194.05
385.201	134.65
385.411	130.56
385.621	58.88
385.831	54.78
386.041	36.35
386.251	22.02
386.461	138.75
386.671	15.87
386.881	132.61
387.091	44.54
387.301	22.02
387.511	13.82
387.72	24.06
387.93	69.12
388.14	-61.95
388.35	9.73
388.56	183.81
388.769	112.13
388.979	9.73
389.189	-18.94
389.399	-66.05
389.609	128.51
389.818	114.17
390.028	34.3
390.238	75.26
390.447	-16.9
390.657	42.5
390.867	62.98
391.076	-35.33
391.286	77.31
391.496	65.02
391.705	15.87
391.915	114.17
392.125	183.81
392.334	32.26
392.544	67.07
392.753	97.79
392.963	42.5
393.172	62.98
393.382	3.58
393.591	247.29
393.801	42.5
394.01	56.83
394.22	108.03
394.429	54.78
394.639	79.36
394.848	87.55
395.058	116.22
395.267	75.26
395.477	54.78
395.686	97.79
395.895	165.37
396.105	306.68
396.314	5.63
396.524	-39.42
396.733	7.68
396.942	126.46
397.152	69.12
397.361	148.99
397.57	62.98
397.78	58.88
397.989	40.45
398.198	222.72
398.407	71.17
398.617	91.65
398.826	126.46
399.035	28.16
399.244	122.37
399.453	26.11
399.663	138.75
399.872	167.42
400.081	-102.91
400.29	134.65
400.499	1.54
400.708	148.99
400.917	46.59
401.127	19.97
401.336	-2.56
401.545	171.52
401.754	81.41
401.963	138.75
402.172	-25.09
402.381	73.21
402.59	32.26
402.799	19.97
403.008	153.09
403.217	81.41
403.426	65.02
403.635	-68.09
403.844	24.06
404.053	99.84
404.262	11.78
404.471	167.42
404.68	157.18
404.888	-8.7
405.097	-10.75
405.306	40.45
405.515	140.8
405.724	97.79
405.933	56.83
406.142	83.45
406.35	105.98
406.559	19.97
406.768	40.45
406.977	130.56
407.185	24.06
407.394	157.18
407.603	-100.86
407.812	48.64
408.02	165.37
408.229	87.55
408.438	118.27
408.646	-74.24
408.855	69.12
409.064	114.17
409.272	42.5
409.481	73.21
409.69	-51.71
409.898	-86.53
410.107	17.92
410.315	122.37
410.524	-57.86
410.733	24.06
410.941	9.73
411.15	48.64
411.358	69.12
411.567	114.17
411.775	54.78
411.984	-27.14
412.192	87.55
412.401	46.59
412.609	237.05
412.818	163.33
413.026	46.59
413.234	38.4
413.443	-25.09
413.651	-39.42
413.86	42.5
414.068	202.24
414.276	126.46
414.485	-57.86
414.693	198.14
414.901	157.18
415.11	44.54
415.318	13.82
415.526	9.73
415.734	200.19
415.943	-8.7
416.151	194.05
416.359	87.55
416.567	46.59
416.776	83.45
416.984	79.36
417.192	177.66
417.4	28.16
417.608	-23.04
417.817	-8.7
418.025	116.22
418.233	253.44
418.441	-64
418.649	-6.66
418.857	46.59
419.065	120.32
419.273	-10.75
419.481	110.08
419.689	-27.14
419.897	-70.14
420.105	-20.99
420.313	128.51
420.521	93.69
420.729	163.33
420.937	3.58
421.145	-98.81
421.353	83.45
421.561	140.8
421.769	38.4
421.977	-72.19
422.185	75.26
422.393	-23.04
422.601	48.64
422.809	87.55
423.017	22.02
423.224	112.13
423.432	128.51
423.64	34.3
423.848	99.84
424.056	-29.18
424.263	71.17
424.471	-20.99
424.679	93.69
424.887	1.54
425.094	140.8
425.302	126.46
425.51	67.07
425.718	99.84
425.925	101.89
426.133	17.92
426.341	171.52
426.548	67.07
426.756	-0.51
426.964	48.64
427.171	36.35
427.379	13.82
427.586	52.74
427.794	85.5
428.001	167.42
428.209	151.04
428.417	226.81
428.624	159.23
428.832	95.74
429.039	89.6
429.247	46.59
429.454	79.36
429.662	210.43
429.869	114.17
430.076	95.74
430.284	108.03
430.491	153.09
430.699	79.36
430.906	259.58
431.114	120.32
431.321	85.5
431.528	105.98
431.736	134.65
431.943	212.48
432.15	146.94
432.358	132.61
432.565	265.72
432.772	26.11
432.979	173.57
433.187	77.31
433.394	194.05
433.601	89.6
433.808	181.76
434.016	232.96
434.223	224.76
434.43	126.46
434.637	329.21
434.844	286.2
435.052	247.29
435.259	257.53
435.466	278.01
435.673	165.37
435.88	208.38
436.087	222.72
436.294	327.16
436.501	282.11
436.708	206.33
436.915	288.25
437.122	349.69
437.329	275.96
437.537	243.2
437.743	243.2
437.95	460.28
438.157	284.16
438.364	308.73
438.571	355.83
438.778	339.45
438.985	376.31
439.192	452.09
439.399	339.45
439.606	388.6
439.813	417.27
440.02	509.43
440.227	615.93
440.433	525.82
440.64	413.18
440.847	417.27
441.054	474.62
441.261	656.89
441.467	509.43
441.674	454.14
441.881	658.93
442.088	480.76
442.294	681.46
442.501	615.93
442.708	667.13
442.914	603.64
443.121	648.69
443.328	771.57
443.534	687.61
443.741	763.38
443.948	654.84
444.154	835.06
444.361	957.94
444.568	824.82
444.774	919.03
444.981	771.57
445.187	1015.28
445.394	865.78
445.6	916.98
445.807	1123.82
446.013	1019.38
446.22	988.66
446.426	1121.77
446.633	1097.2
446.839	1328.62
447.046	1103.34
447.252	1218.03
447.459	1254.89
447.665	1281.52
447.871	1496.55
448.078	1730.02
448.284	1605.1
448.491	1596.9
448.697	1644.01
448.903	1682.92
449.11	1756.65
449.316	1730.02
449.522	1967.59
449.728	1953.25
449.935	2117.09
450.141	2108.9
450.347	2072.03
450.553	2166.24
450.76	2235.87
450.966	2405.85
451.172	2383.32
451.378	2627.03
451.584	2569.69
451.791	2733.53
451.997	2817.49
452.203	2917.84
452.409	2997.71
452.615	3091.92
452.821	2905.56
453.027	3106.26
453.233	3610.06
453.44	3485.13
453.646	3605.96
453.852	3632.58
454.058	3753.41
454.264	3935.68
454.47	4085.19
454.676	4392.38
454.882	4689.34
455.088	4494.78
455.294	4670.9
455.5	5066.16
455.705	5180.85
455.911	5164.47
456.117	5354.93
456.323	5529
456.529	5717.42
456.735	6022.56
456.941	6141.35
457.147	6587.8
457.352	6606.24
457.558	6815.13
457.764	7447.95
457.97	7609.74
458.176	7808.39
458.381	8066.44
458.587	8244.61
458.793	8813.95
458.999	8650.11
459.204	9569.65
459.41	10106.21
459.616	10098.02
459.821	10493.28
460.027	10870.11
460.233	11576.66
460.438	11572.56
460.644	12242.25
460.85	12315.97
461.055	12766.53
461.261	13495.6
461.466	13104.44
461.672	13237.56
461.878	15068.44
462.083	14705.95
462.289	15011.1
462.494	15633.68
462.7	15994.12
462.905	16162.06
463.111	17267.96
463.316	18310.38
463.522	18511.08
463.727	19010.78
463.932	20073.68
464.138	20593.86
464.343	21355.71
464.549	21634.23
464.754	23258.27
464.959	23764.12
465.165	24243.34
465.37	23895.19
465.575	23702.68
465.781	25252.99
465.986	25799.8
466.191	25746.55
466.397	26293.36
466.602	25427.07
466.807	27294.82
467.012	27538.52
467.218	27837.53
467.423	28142.67
467.628	28861.51
467.833	30082.1
468.038	29443.13
468.244	29246.53
468.449	30477.36
468.654	30051.38
468.859	29897.78
469.064	30100.53
469.269	29473.85
469.474	29611.07
469.679	30438.45
469.885	29508.67
470.09	30106.68
470.295	30055.48
470.5	29398.08
470.705	30151.73
470.91	28818.5
471.115	28533.84
471.32	28859.46
471.525	28914.76
471.73	27868.25
471.935	27913.3
472.139	26864.74
472.344	26979.43
472.549	26508.4
472.754	26274.93
472.959	25777.27
473.164	25017.47
473.369	24480.91
473.574	25076.87
473.778	24337.55
473.983	24290.45
474.188	23921.81
474.393	22637.73
474.598	22815.91
474.802	21961.9
475.007	21630.13
475.212	21580.98
475.417	20858.05
475.621	20610.25
475.826	20339.91
476.031	19856.59
476.235	19440.86
476.44	19559.64
476.645	18824.42
476.849	18613.48
477.054	18654.44
477.259	17874.16
477.463	18201.83
477.668	17558.77
477.872	17237.24
478.077	17044.73
478.282	16606.47
478.486	16542.98
478.691	16205.06
478.895	16162.06
479.1	15842.57
479.304	15828.24
479.509	15400.21
479.713	15607.06
479.918	15234.33
480.122	14851.36
480.326	15189.27
480.531	15088.92
480.735	14779.68
480.94	14497.06
481.144	15136.03
481.348	14234.92
481.553	14376.23
481.757	14132.52
481.961	14288.17
482.166	14202.15
482.37	14150.95
482.574	13866.28
482.778	13702.45
482.983	13892.91
483.187	13681.97
483.391	13495.6
483.595	13219.13
483.8	13016.38
484.004	13073.72
484.208	13040.95
484.412	13008.19
484.616	12744
484.821	12807.48
485.025	12516.67
485.229	12565.82
485.433	12156.23
485.637	12012.87
485.841	11935.05
486.045	11824.46
486.249	11638.09
486.453	11470.16
486.657	11308.37
486.861	11111.77
487.065	10700.12
487.269	10728.8
487.473	10368.35
487.677	10378.59
487.881	10732.89
488.085	10120.55
488.289	10253.67
488.493	9862.51
488.697	9844.07
488.901	9448.82
489.105	9313.65
489.309	9164.15
489.512	9213.3
489.716	8996.21
489.92	8799.61
490.124	8820.09
490.328	8732.03
490.531	8304
490.735	8369.54
490.939	8142.21
491.143	8070.53
491.346	7835.02
491.55	7863.69
491.754	7480.72
491.958	7435.66
492.161	7540.11
492.365	7458.19
492.569	7103.89
492.772	7222.67
492.976	7071.12
493.18	6821.27
493.383	6927.77
493.587	6690.2
493.79	6702.49
493.994	6618.52
494.197	6538.65
494.401	6473.12
494.605	6370.72
494.808	6247.84
495.012	6385.05
495.215	6262.18
495.419	6301.09
495.622	6223.27
495.825	6149.54
496.029	6053.28
496.232	6401.44
496.436	6028.71
496.639	6047.14
496.843	6049.19
497.046	5969.32
497.249	6063.52
497.453	6227.36
497.656	5930.41
497.859	6026.66
498.063	6290.85
498.266	6260.13
498.469	5918.12
498.673	6124.96
498.876	6077.86
499.079	6327.71
499.282	6256.03
499.485	6497.69
499.689	6546.84
499.892	6514.08
500.095	6309.28
500.298	6444.45
500.501	6397.34
500.705	6548.89
500.908	6596
501.111	6694.3
501.314	6747.55
501.517	6843.8
501.72	6798.74
501.923	6858.14
502.126	6942.1
502.329	7206.29
502.532	7247.25
502.735	7218.58
502.938	7452.05
503.141	7423.37
503.344	7335.31
503.547	7591.31
503.75	7716.23
503.953	7749
504.156	7994.76
504.359	8078.72
504.562	7890.31
504.765	8428.93
504.968	8344.96
505.17	8582.53
505.373	8641.92
505.576	9024.89
505.779	8951.16
505.982	8887.67
506.185	9307.51
506.387	9233.78
506.59	9708.91
506.793	9702.76
506.996	9713
507.198	10165.6
507.401	10227.04
507.604	10517.86
507.807	10798.43
508.009	11064.66
508.212	11156.82
508.415	11504.98
508.617	11574.61
508.82	11803.98
509.022	12000.58
509.225	12485.95
509.428	12637.5
509.63	12844.35
509.833	12961.08
510.035	13505.84
510.238	13514.03
510.44	13800.75
510.643	13997.35
510.845	14601.51
511.048	14660.9
511.25	15090.97
511.453	15514.9
511.655	16106.76
511.858	16147.72
512.06	16497.92
512.262	16829.7
512.465	17229.05
512.667	17593.59
512.87	18021.61
513.072	18334.95
513.274	18779.36
513.477	19205.34
513.679	19582.17
513.881	19877.07
514.084	20331.72
514.286	20702.4
514.488	21222.59
514.69	21922.99
514.893	22275.24
515.095	22897.83
515.297	23137.44
515.499	23596.18
515.701	24284.3
515.904	24798.34
516.106	25582.71
516.308	25740.41
516.51	26346.61
516.712	26594.41
516.914	27253.86
517.116	27755.61
517.318	28283.98
517.52	28673.1
517.722	28841.03
517.925	29369.41
518.127	30194.74
518.329	31034.41
518.531	30927.91
518.733	31751.2
518.935	32322.58
519.136	32525.33
519.338	33166.34
519.54	33604.61
519.742	34550.77
519.944	34583.54
520.146	35345.38
520.348	35437.54
520.55	35982.3
520.752	36189.14
520.954	37237.7
521.155	37319.62
521.357	37938.11
521.559	38138.81
521.761	38673.33
521.963	39058.35
522.164	39183.27
522.366	39627.68
522.568	39881.63
522.77	40352.66
522.971	40827.79
523.173	40641.43
523.375	40924.05
523.576	41309.07
523.778	41200.52
523.98	41628.55
524.181	42144.64
524.383	41958.27
524.584	42392.44
524.786	42101.63
524.988	41487.24
525.189	42503.03
525.391	42339.19
525.592	42724.21
525.794	42656.63
525.995	42963.82
526.197	42390.39
526.398	42402.68
526.6	42578.81
526.801	42296.19
527.003	42355.58
527.204	41997.18
527.406	41769.86
527.607	41636.74
527.808	41448.33
528.01	40932.24
528.211	40971.15
528.412	41173.9
528.614	41221
528.815	40553.37
529.016	40541.08
529.218	39533.48
529.419	39846.82
529.62	38966.19
529.822	38730.67
530.023	38570.93
530.224	38351.8
530.425	37798.85
530.626	36942.8
530.828	36471.76
531.029	37260.23
531.23	36027.35
531.431	35773.41
531.632	35879.9
531.833	35355.62
532.035	35017.71
532.236	34354.16
532.437	34024.44
532.638	33197.06
532.839	33022.98
533.04	32945.16
533.241	32222.23
533.442	32455.7
533.643	31560.73
533.844	31157.28
534.045	30860.33
534.246	30071.86
534.447	30018.61
534.648	29365.31
534.849	29262.91
535.05	28728.39
535.251	28437.58
535.451	28187.73
535.652	27556.96
535.853	27393.12
536.054	27196.51
536.255	26604.65
536.456	25756.79
536.657	26190.96
536.857	25482.36
537.058	25246.85
537.259	24992.9
537.46	24525.96
537.66	24097.94
537.861	24159.38
538.062	23303.32
538.263	23604.38
538.463	22934.69
538.664	23020.7
538.865	22475.95
539.065	22289.58
539.266	21662.9
539.466	21869.75
539.667	21298.36
539.868	21406.91
540.068	20851.91
540.269	20671.68
540.469	20548.81
540.67	20169.93
540.87	20075.73
541.071	19549.4
541.271	19582.17
541.472	18951.39
541.672	18920.67
541.873	18855.14
542.073	18173.16
542.274	18531.56
542.474	18244.84
542.675	18003.18
542.875	17882.35
543.075	17196.28
543.276	16958.72
543.476	17401.08
543.676	17061.12
543.877	16991.48
544.077	16723.2
544.277	16307.46
544.478	16192.78
544.678	16342.28
544.878	15764.75
545.078	15535.38
545.279	15369.49
545.479	15172.89
545.679	15191.32
545.879	15142.17
546.079	14947.61
546.28	14820.64
546.48	14591.27
546.68	14605.6
546.88	14288.17
547.08	14161.19
547.28	13911.34
547.48	13630.77
547.68	13763.89
547.88	13251.89
548.081	13243.7
548.281	13194.55
548.481	12928.31
548.681	12860.73
548.881	12358.98
549.081	12275.01
549.28	12180.81
549.48	12176.71
549.68	11922.76
549.88	11830.6
550.08	11662.67
550.28	11504.98
550.48	11543.89
550.68	11183.45
550.88	10962.26
551.08	10945.88
551.279	11048.28
551.479	10304.87
551.679	10415.46
551.879	10032.49
552.079	10034.53
552.278	10138.98
552.478	9997.67
552.678	9792.87
552.878	9657.71
553.077	9491.82
553.277	9338.23
553.477	9178.48
553.676	9020.79
553.876	8955.26
554.076	8707.45
554.275	8494.46
554.475	8271.23
554.674	8500.61
554.874	8158.6
555.074	8074.63
555.273	8017.29
555.473	7902.6
555.672	7628.17
555.872	7554.44
556.071	7406.99
556.271	7390.61
556.47	7150.99
556.67	7132.56
556.869	7030.16
557.068	6911.38
557.268	6772.12
557.467	6596
557.667	6718.87
557.866	6632.86
558.065	6333.86
558.265	6266.27
558.464	6094.24
558.663	6143.39
558.863	6045.09
559.062	6215.07
559.261	5905.83
559.461	5893.54
559.66	5631.4
559.859	5483.95
560.058	5240.24
560.258	5256.62
560.457	5320.11
560.656	5447.08
560.855	4994.48
561.054	5064.11
561.253	4949.43
561.453	5037.49
561.652	4834.74
561.851	4957.62
562.05	4662.71
562.249	4447.68
562.448	4562.36
562.647	4392.38
562.846	4259.26
563.045	4402.62
563.244	4335.04
563.443	4324.8
563.642	4234.69
563.841	4093.38
564.04	4007.36
564.239	4120
564.438	4042.18
564.637	3708.36
564.836	3933.64
565.035	3941.83
565.234	3743.17
565.432	3706.31
565.631	3429.84
565.83	3462.6
566.029	3540.43
566.228	3495.37
566.427	3521.99
566.625	3233.23
566.824	3407.31
567.023	3266
567.222	3050.96
567.42	3192.27
567.619	3182.03
567.818	3050.96
568.016	3169.74
568.215	2966.99
568.414	2893.27
568.612	3048.91
568.811	2995.67
569.01	2768.34
569.208	2723.29
569.407	2891.22
569.605	2725.33
569.804	2620.89
570.002	2743.77
570.201	2493.91
570.4	2624.98
570.598	2567.64
570.797	2588.12
570.995	2399.71
571.193	2395.61
571.392	2520.54
571.59	2280.93
571.789	2473.43
571.987	2311.64
572.186	2336.22
572.384	2170.33
572.582	2172.38
572.781	2156
572.979	2022.88
573.177	2074.08
573.376	2104.8
573.574	2069.98
573.772	2043.36
573.971	1926.63
574.169	1838.56
574.367	1957.35
574.565	1861.09
574.763	1836.52
574.962	1910.24
575.16	1646.05
575.358	1803.75
575.556	1711.59
575.754	1717.73
575.952	1666.53
576.151	1590.76
576.349	1699.3
576.547	1582.57
576.745	1682.92
576.943	1601
577.141	1582.57
577.339	1551.85
577.537	1467.88
577.735	1533.42
577.933	1408.49
578.131	1435.11
578.329	1439.21
578.527	1373.68
578.725	1514.98
578.923	1299.95
579.121	1291.76
579.319	1209.84
579.516	1207.79
579.714	1490.41
579.912	1232.37
580.11	1086.96
580.308	1181.17
580.506	1211.89
580.704	1068.53
580.901	1129.97
581.099	1218.03
581.297	1095.15
581.495	1197.55
581.692	1101.3
581.89	1119.73
582.088	1035.76
582.285	1056.24
582.483	955.89
582.681	1146.35
582.878	1058.29
583.076	892.4
583.274	980.47
583.471	1046
583.669	976.37
583.866	888.31
584.064	833.01
584.262	732.66
584.459	906.74
584.657	890.35
584.854	814.58
585.052	982.51
585.249	849.4
585.447	790
585.644	728.56
585.841	943.6
586.039	863.73
586.236	853.49
586.434	796.15
586.631	742.9
586.828	665.08
587.026	777.72
587.223	685.56
587.42	747
587.618	769.52
587.815	771.57
588.012	718.33
588.21	710.13
588.407	728.56
588.604	775.67
588.801	654.84
588.999	572.92
589.196	736.76
589.393	587.26
589.59	654.84
589.787	615.93
589.984	726.52
590.182	685.56
590.379	552.44
590.576	677.37
590.773	652.79
590.97	634.36
591.167	665.08
591.364	642.55
591.561	562.68
591.758	722.42
591.955	771.57
592.152	591.35
592.349	548.34
592.546	507.38
592.743	574.97
592.94	556.54
593.137	669.17
593.334	706.04
593.531	609.78
593.727	673.27
593.924	550.39
594.121	650.74
594.318	570.87
594.515	579.06
594.712	751.09
594.908	693.75
595.105	546.3
595.302	667.13
595.499	652.79
595.696	734.71
595.892	697.85
596.089	732.66
596.286	628.21
596.482	785.91
596.679	677.37
596.876	726.52
597.072	847.35
597.269	652.79
597.466	648.69
597.662	787.96
597.859	591.35
598.055	822.77
598.252	953.84
598.448	847.35
598.645	1033.71
598.841	1017.33
599.038	1148.4
599.234	1138.16
599.431	1099.25
599.627	1080.82
599.824	1172.97
600.02	1127.92
600.217	1181.17
600.413	1318.38
600.609	1322.48
600.806	1541.61
601.002	1398.25
601.198	1357.29
601.395	1545.7
601.591	1615.34
601.787	1639.91
601.984	1723.88
602.18	1912.29
602.376	1922.53
602.572	1916.39
602.769	1998.31
602.965	1936.87
603.161	2094.56
603.357	2209.25
603.553	2450.91
603.75	2282.97
603.946	2303.45
604.142	2538.97
604.338	2649.56
604.534	2657.75
604.73	2696.66
604.926	2614.74
605.122	2864.6
605.318	3012.05
605.514	3118.54
605.71	3126.74
605.906	3356.11
606.102	3296.72
606.298	3534.28
606.494	3614.15
606.69	3849.67
606.886	3898.82
607.082	3771.85
607.278	3866.05
607.474	4169.15
607.67	4218.3
607.866	4251.07
608.062	4552.12
608.257	4668.86
608.453	4758.97
608.649	4961.72
608.845	4754.87
609.041	4947.38
609.236	5141.94
609.432	5285.3
609.628	5492.14
609.824	5731.75
610.019	5756.33
610.215	6002.08
610.411	6190.5
610.606	6231.46
610.802	6374.81
610.998	6679.96
611.193	6968.73
611.389	6892.95
611.584	7140.76
611.78	7300.5
611.976	7468.43
612.171	7822.73
612.367	7927.18
612.562	8097.16
612.758	8328.58
612.953	8291.71
613.149	8811.9
613.344	8969.59
613.539	9430.38
613.735	9473.39
613.93	9839.98
614.126	9901.42
614.321	10507.62
614.517	10644.83
614.712	10925.4
614.907	11042.14
615.103	11361.62
615.298	11717.97
615.493	12207.43
615.688	11998.54
615.884	12864.83
616.079	12926.27
616.274	13182.26
616.47	13579.57
616.665	13798.7
616.86	14249.25
617.055	14521.63
617.25	14753.05
617.445	15285.53
617.641	15527.19
617.836	16010.51
618.031	16303.37
618.226	16942.33
618.421	17046.78
618.616	17939.69
618.811	17792.24
619.006	18549.99
619.201	18894.05
619.396	19266.78
619.591	19619.03
619.786	20364.49
619.981	20321.48
620.176	20962.5
620.371	20810.95
620.566	21775.54
620.761	22258.86
620.956	22899.87
621.151	22750.37
621.346	23930
621.541	23739.54
621.735	24575.11
621.93	24523.91
622.125	25617.53
622.32	25691.26
622.515	26256.5
622.709	26440.81
622.904	27440.22
623.099	27585.63
623.294	28539.98
623.488	28273.74
623.683	29193.28
623.878	29430.85
624.072	30192.69
624.267	30610.48
624.462	31071.27
624.656	31433.76
624.851	31923.22
625.046	32386.07
625.24	33352.71
625.435	33090.57
625.629	33590.27
625.824	34542.58
626.018	34989.03
626.213	34747.37
626.407	35281.89
626.602	35681.25
626.796	36262.87
626.991	36955.08
627.185	37006.28
627.38	36961.23
627.574	37419.97
627.768	37561.28
627.963	37620.67
628.157	37778.37
628.352	38020.03
628.546	37635.01
628.74	38364.09
628.935	38153.15
629.129	38167.48
629.323	37678.02
629.517	37952.44
629.712	37510.08
629.906	37505.99
630.1	36641.74
630.294	36807.63
630.489	36471.76
630.683	36078.55
630.877	35181.54
631.071	34376.69
631.265	34438.13
631.459	33500.16
631.653	33166.34
631.848	32300.05
632.042	31462.43
632.236	31120.42
632.43	29858.87
632.624	29305.92
632.818	28329.04
633.012	27497.56
633.206	26504.3
633.4	25986.16
633.594	24943.75
633.788	24540.3
633.982	23590.04
634.176	22514.86
634.369	21609.65
634.563	21001.41
634.757	20085.97
634.951	19754.19
635.145	18738.4
635.339	18064.62
635.533	17468.66
635.726	16745.73
635.92	16014.6
636.114	15529.24
636.308	14673.18
636.501	14064.94
636.695	13727.02
636.889	12582.21
637.083	12567.87
637.276	11930.95
637.47	11480.4
637.664	10927.45
637.857	10532.19
638.051	10124.65
638.244	9702.76
638.438	9594.22
638.632	9121.14
638.825	8564.09
639.019	8379.78
639.212	7847.3
639.406	7951.75
639.599	7476.62
639.793	7138.71
639.986	6792.6
640.18	6589.85
640.373	6370.72
640.567	6065.57
640.76	5954.98
640.954	5598.63
641.147	5254.58
641.34	5152.18
641.534	5021.11
641.727	4988.34
641.92	4795.83
642.114	4488.64
642.307	4294.08
642.5	4275.65
642.694	3984.84
642.887	3790.28
643.08	3708.36
643.273	3710.41
643.467	3315.15
643.66	3253.71
643.853	2977.23
644.046	3151.31
644.239	3030.48
644.432	2772.44
644.626	2657.75
644.819	2565.59
645.012	2500.06
645.205	2473.43
645.398	2412
645.591	2143.71
645.784	2051.55
645.977	2037.22
646.17	2043.36
646.363	1930.72
646.556	1875.43
646.749	1777.12
646.942	1699.3
647.135	1752.55
647.328	1568.23
647.521	1508.84
647.714	1422.83
647.907	1426.92
648.099	1318.38
648.292	1447.4
648.485	1316.33
648.678	1121.77
648.871	1162.73
649.064	1211.89
649.256	1037.81
649.449	996.85
649.642	970.23
649.835	996.85
650.027	945.65
650.22	992.75
650.413	1011.18
650.605	865.78
650.798	925.17
650.991	681.46
651.183	742.9
651.376	810.48
651.568	771.57
651.761	724.47
651.954	695.8
652.146	679.41
652.339	683.51
652.531	679.41
652.724	519.67
652.916	570.87
653.109	425.47
653.301	632.31
653.494	609.78
653.686	476.66
653.879	599.54
654.071	488.95
654.263	443.9
654.456	472.57
654.648	558.58
654.84	488.95
655.033	447.99
655.225	476.66
655.417	247.29
655.61	499.19
655.802	382.46
655.994	499.19
656.186	288.25
656.379	466.42
656.571	290.3
656.763	364.03
656.955	263.68
657.148	343.55
657.34	404.99
657.532	245.24
657.724	273.92
657.916	327.16
658.108	402.94
658.3	396.79
658.492	325.12
658.684	257.53
658.876	357.88
659.068	288.25
659.26	259.58
659.452	208.38
659.644	230.91
659.836	431.61
660.028	390.65
660.22	148.99
660.412	241.15
660.604	312.83
660.796	269.82
660.988	321.02
661.18	275.96
661.372	294.4
661.563	214.52
661.755	224.76
661.947	173.57
662.139	232.96
662.331	200.19
662.522	148.99
662.714	179.71
662.906	163.33
663.097	153.09
663.289	181.76
663.481	112.13
663.673	208.38
663.864	118.27
664.056	220.67
664.247	122.37
664.439	290.3
664.631	159.23
664.822	245.24
665.014	175.61
665.205	112.13
665.397	151.04
665.588	89.6
665.78	103.93
665.971	222.72
666.163	167.42
666.354	185.85
666.546	118.27
666.737	167.42
666.929	105.98
667.12	73.21
667.311	226.81
667.503	159.23
667.694	177.66
667.885	189.95
668.077	218.62
668.268	-23.04
668.459	110.08
668.651	189.95
668.842	181.76
669.033	46.59
669.224	134.65
669.416	292.35
669.607	110.08
669.798	110.08
669.989	269.82
670.18	136.7
670.371	153.09
670.563	89.6
670.754	275.96
670.945	192
671.136	200.19
671.327	114.17
671.518	329.21
671.709	259.58
671.9	261.63
672.091	208.38
672.282	165.37
672.473	163.33
672.664	17.92
672.855	144.89
673.046	114.17
673.237	249.34
673.428	146.94
673.619	216.57
673.809	157.18
674	198.14
674.191	214.52
674.382	142.85
674.573	151.04
674.764	189.95
674.954	247.29
675.145	128.51
675.336	103.93
675.527	155.13
675.717	200.19
675.908	95.74
676.099	175.61
676.289	235
676.48	36.35
676.671	136.7
676.861	181.76
677.052	267.77
677.243	208.38
677.433	140.8
677.624	230.91
677.814	216.57
678.005	161.28
678.195	312.83
678.386	185.85
678.576	228.86
678.767	110.08
678.957	56.83
679.148	255.48
679.338	271.87
679.529	185.85
679.719	157.18
679.909	198.14
680.1	339.45
680.29	239.1
680.481	159.23
680.671	239.1
680.861	259.58
681.052	275.96
681.242	226.81
681.432	267.77
681.622	353.79
681.813	73.21
682.003	110.08
682.193	259.58
682.383	212.48
682.573	163.33
682.764	245.24
682.954	257.53
683.144	298.49
683.334	261.63
683.524	210.43
683.714	312.83
683.904	294.4
684.094	304.64
684.284	220.67
684.474	374.27
684.664	290.3
684.854	237.05
685.044	224.76
685.234	194.05
685.424	294.4
685.614	255.48
685.804	407.03
685.994	222.72
686.184	237.05
686.374	204.28
686.564	247.29
686.753	267.77
686.943	177.66
687.133	251.39
687.323	259.58
687.513	247.29
687.702	171.52
687.892	171.52
688.082	284.16
688.272	372.22
688.461	140.8
688.651	392.7
688.841	347.64
689.03	271.87
689.22	187.9
689.41	228.86
689.599	245.24
689.789	226.81
689.979	318.97
690.168	208.38
690.358	253.44
690.547	282.11
690.737	239.1
690.926	280.06
691.116	181.76
691.305	292.35
691.495	298.49
691.684	173.57
691.874	194.05
692.063	253.44
692.252	243.2
692.442	278.01
692.631	237.05
692.82	144.89
693.01	325.12
693.199	192
693.388	198.14
693.578	192
693.767	314.88
693.956	185.85
694.146	214.52
694.335	249.34
694.524	185.85
694.713	208.38
694.902	275.96
695.092	228.86
695.281	269.82
695.47	151.04
695.659	114.17
695.848	259.58
696.037	44.54
696.226	273.92
696.415	120.32
696.604	318.97
696.793	323.07
696.982	165.37
697.171	318.97
697.36	146.94
697.549	251.39
697.738	85.5
697.927	163.33
698.116	226.81
698.305	163.33
698.494	232.96
698.683	218.62
698.872	255.48
699.061	163.33
699.25	163.33
699.438	259.58
699.627	241.15
699.816	337.4
700.005	97.79
700.193	189.95
700.382	251.39
700.571	239.1
700.76	339.45
700.948	257.53
701.137	271.87
701.326	232.96
701.514	194.05
701.703	218.62
701.892	263.68
702.08	312.83
702.269	181.76
702.457	77.31
702.646	255.48
702.834	122.37
703.023	204.28
703.212	259.58
703.4	192
703.589	179.71
703.777	134.65
703.965	142.85
704.154	202.24
704.342	198.14
704.531	189.95
704.719	175.61
704.907	226.81
705.096	169.47
705.284	224.76
705.472	224.76
705.661	222.72
705.849	214.52
706.037	259.58
706.226	183.81
706.414	243.2
706.602	69.12
706.79	232.96
706.979	91.65
707.167	196.09
707.355	132.61
707.543	247.29
707.731	189.95
707.919	196.09
708.107	120.32
708.296	134.65
708.484	179.71
708.672	218.62
708.86	210.43
709.048	216.57
709.236	148.99
709.424	218.62
709.612	318.97
709.8	161.28
709.988	261.63
710.176	224.76
710.364	335.35
710.551	249.34
710.739	230.91
710.927	161.28
711.115	204.28
711.303	335.35
711.491	232.96
711.679	155.13
711.866	259.58
712.054	263.68
712.242	224.76
712.43	335.35
712.617	226.81
712.805	298.49
712.993	218.62
713.181	13.82
713.368	247.29
713.556	226.81
713.744	108.03
713.931	407.03
714.119	296.44
714.306	89.6
714.494	116.22
714.682	286.2
714.869	212.48
715.057	243.2
715.244	110.08
715.432	202.24
715.619	140.8
715.807	208.38
715.994	218.62
716.182	189.95
716.369	386.55
716.556	257.53
716.744	93.69
716.931	114.17
717.119	296.44
717.306	273.92
717.493	306.68
717.681	241.15
717.868	232.96
718.055	230.91
718.242	171.52
718.43	245.24
718.617	298.49
718.804	253.44
718.991	245.24
719.179	265.72
719.366	265.72
719.553	280.06
719.74	169.47
719.927	247.29
720.114	222.72
720.301	181.76
720.488	183.81
720.676	198.14
720.863	304.64
721.05	394.75
721.237	235
721.424	312.83
721.611	239.1
721.798	208.38
721.985	251.39
722.172	280.06
722.358	161.28
722.545	228.86
722.732	267.77
722.919	304.64
723.106	300.54
723.293	173.57
723.48	304.64
723.667	241.15
723.853	296.44
724.04	263.68
724.227	364.03
724.414	265.72
724.6	329.21
724.787	407.03
724.974	470.52
725.161	259.58
725.347	237.05
725.534	290.3
725.72	341.5
725.907	394.75
726.094	263.68
726.28	267.77
726.467	247.29
726.653	108.03
726.84	278.01
727.027	353.79
727.213	308.73
727.4	312.83
727.586	245.24
727.773	265.72
727.959	351.74
728.145	343.55
728.332	237.05
728.518	273.92
728.705	374.27
728.891	306.68
729.077	249.34
729.264	255.48
729.45	271.87
729.636	259.58
729.823	312.83
730.009	275.96
730.195	235
730.382	396.79
730.568	306.68
730.754	306.68
730.94	255.48
731.126	384.51
731.313	402.94
731.499	370.17
731.685	454.14
731.871	347.64
732.057	372.22
732.243	343.55
732.429	361.98
732.615	435.71
732.801	323.07
732.987	351.74
733.173	298.49
733.359	364.03
733.545	337.4
733.731	302.59
733.917	409.08
734.103	302.59
734.289	380.41
734.475	306.68
734.661	466.42
734.847	368.12
735.033	355.83
735.219	314.88
735.404	351.74
735.59	294.4
735.776	312.83
735.962	325.12
736.148	298.49
736.333	488.95
736.519	390.65
736.705	423.42
736.89	359.93
737.076	376.31
737.262	269.82
737.447	351.74
737.633	316.92
737.819	437.75
738.004	353.79
738.19	321.02
738.375	361.98
738.561	435.71
738.747	298.49
738.932	355.83
739.118	462.33
739.303	425.47
739.489	466.42
739.674	316.92
739.859	300.54
740.045	419.32
740.23	429.56
740.416	189.95
740.601	347.64
740.786	429.56
740.972	355.83
741.157	341.5
741.342	351.74
741.528	337.4
741.713	501.24
741.898	314.88
742.084	402.94
742.269	337.4
742.454	384.51
742.639	361.98
742.824	380.41
743.01	464.38
743.195	529.91
743.38	306.68
743.565	370.17
743.75	398.84
743.935	325.12
744.12	402.94
744.305	271.87
744.49	302.59
744.675	337.4
744.86	329.21
745.045	443.9
745.23	466.42
745.415	323.07
745.6	359.93
745.785	312.83
745.97	427.51
746.155	312.83
746.34	398.84
746.525	339.45
746.71	415.23
746.895	192
747.079	267.77
747.264	325.12
747.449	384.51
747.634	361.98
747.819	353.79
748.003	275.96
748.188	210.43
748.373	370.17
748.557	341.5
748.742	388.6
748.927	341.5
749.111	312.83
749.296	278.01
749.481	306.68
749.665	353.79
749.85	245.24
750.034	370.17
750.219	329.21
750.404	259.58
750.588	409.08
750.773	259.58
750.957	271.87
751.141	333.31
751.326	409.08
751.51	224.76
751.695	304.64
751.879	339.45
752.064	368.12
752.248	282.11
752.432	464.38
752.617	353.79
752.801	329.21
752.985	237.05
753.17	310.78
753.354	294.4
753.538	294.4
753.722	206.33
753.907	249.34
754.091	228.86
754.275	316.92
754.459	177.66
754.643	169.47
754.828	351.74
755.012	255.48
755.196	173.57
755.38	243.2
755.564	226.81
755.748	294.4
755.932	257.53
756.116	292.35
756.3	355.83
756.484	273.92
756.668	300.54
756.852	99.84
757.036	232.96
757.22	271.87
757.404	194.05
757.588	187.9
757.772	349.69
757.956	230.91
758.14	411.13
758.323	159.23
758.507	275.96
758.691	161.28
758.875	333.31
759.059	329.21
759.242	206.33
759.426	259.58
759.61	194.05
759.794	167.42
759.977	230.91
760.161	454.14
760.345	345.59
760.528	200.19
760.712	214.52
760.895	290.3
761.079	185.85
761.263	181.76
761.446	140.8
761.63	175.61
761.813	294.4
761.997	163.33
762.18	204.28
762.364	177.66
762.547	71.17
762.731	134.65
762.914	212.48
763.098	122.37
763.281	175.61
763.464	167.42
763.648	138.75
763.831	118.27
764.015	140.8
764.198	235
764.381	171.52
764.564	187.9
764.748	175.61
764.931	253.44
765.114	136.7
765.297	202.24
765.481	99.84
765.664	128.51
765.847	44.54
766.03	333.31
766.213	99.84
766.397	183.81
766.58	91.65
766.763	245.24
766.946	114.17
767.129	177.66
767.312	142.85
767.495	75.26
767.678	163.33
767.861	144.89
768.044	85.5
768.227	210.43
768.41	118.27
768.593	157.18
768.776	239.1
768.959	153.09
769.142	280.06
769.324	130.56
769.507	75.26
769.69	50.69
769.873	97.79
770.056	306.68
770.239	108.03
770.421	212.48
770.604	153.09
770.787	169.47
770.97	95.74
771.152	108.03
771.335	169.47
771.518	83.45
771.7	194.05
771.883	235
772.066	192
772.248	224.76
772.431	208.38
772.613	187.9
772.796	159.23
772.978	144.89
773.161	220.67
773.343	136.7
773.526	40.45
773.708	-31.23
773.891	44.54
774.073	93.69
774.256	95.74
774.438	259.58
774.621	91.65
774.803	196.09
774.985	54.78
775.168	216.57
775.35	126.46
775.532	189.95
775.715	65.02
775.897	140.8
776.079	112.13
776.261	148.99
776.444	128.51
776.626	44.54
776.808	54.78
776.99	97.79
777.173	126.46
777.355	28.16
777.537	140.8
777.719	67.07
777.901	75.26
778.083	38.4
778.265	69.12
778.447	144.89
778.629	101.89
778.811	132.61
778.993	146.94
779.175	108.03
779.357	138.75
779.539	24.06
779.721	79.36
779.903	83.45
780.085	28.16
780.267	112.13
780.449	11.78
780.631	148.99
780.812	181.76
780.994	118.27
781.176	28.16
781.358	30.21
781.54	77.31
781.721	161.28
781.903	97.79
782.085	34.3
782.267	87.55
782.448	26.11
782.63	87.55
782.812	95.74
782.993	97.79
783.175	196.09
783.357	38.4
783.538	122.37
783.72	69.12
783.901	3.58
784.083	116.22
784.264	38.4
784.446	3.58
784.627	-18.94
784.809	101.89
784.99	32.26
785.172	93.69
785.353	67.07
785.535	87.55
785.716	3.58
785.897	-10.75
786.079	38.4
786.26	-20.99
786.441	67.07
786.623	-16.9
786.804	-10.75
786.985	26.11
787.167	69.12
787.348	116.22
787.529	91.65
787.71	173.57
787.891	83.45
788.073	-10.75
788.254	48.64
788.435	161.28
788.616	32.26
788.797	-43.52
788.978	17.92
789.159	-23.04
789.34	67.07
789.522	-10.75
789.703	-8.7
789.884	62.98
790.065	99.84
790.246	163.33
790.427	26.11
790.607	105.98
790.788	159.23
790.969	1.54
791.15	120.32
791.331	38.4
791.512	52.74
791.693	-10.75
791.874	13.82
792.054	210.43
792.235	26.11
792.416	-2.56
792.597	-18.94
792.778	87.55
792.958	73.21
793.139	60.93
793.32	62.98
793.5	-33.28
793.681	128.51
793.862	87.55
794.042	42.5
794.223	-10.75
794.404	89.6
794.584	-6.66
794.765	62.98
794.945	71.17
795.126	105.98
795.306	48.64
795.487	67.07
795.667	22.02
795.848	65.02
796.028	-27.14
796.209	116.22
796.389	108.03
796.57	-16.9
796.75	-47.62
796.93	36.35
797.111	-10.75
797.291	-102.91
797.471	132.61
797.652	-6.66
797.832	-57.86
798.012	56.83
798.192	-35.33
798.373	-45.57
798.553	11.78
798.733	52.74
798.913	7.68
799.093	65.02
799.274	60.93
799.454	93.69
799.634	101.89
799.814	54.78
799.994	134.65
800.174	91.65
800.354	60.93
800.534	-115.2
800.714	62.98
800.894	-55.81
801.074	-66.05
801.254	-82.43
801.434	200.19
801.614	-41.47
801.794	-18.94
801.974	1912.29
802.154	7.68
802.334	101.89
802.514	-2.56
802.693	-25.09
802.873	7.68
803.053	75.26
803.233	69.12
803.413	-2.56
803.592	-61.95
803.772	15.87
803.952	58.88
804.131	-64
804.311	130.56
804.491	69.12
804.67	-53.76
804.85	-57.86
805.03	62.98
805.209	126.46
805.389	-16.9
805.568	-23.04
805.748	-64
805.928	24.06
806.107	130.56
806.287	93.69
806.466	71.17
806.646	73.21
806.825	34.3
807.004	38.4
807.184	83.45
807.363	36.35
807.543	15.87
807.722	-88.57
807.901	91.65
808.081	124.41
808.26	-115.2
808.439	15.87
808.619	62.98
808.798	-4.61
808.977	46.59
809.156	52.74
809.336	46.59
809.515	118.27
809.694	-43.52
809.873	13.82
810.052	194.05
810.231	122.37
810.411	97.79
810.59	112.13
810.769	108.03
810.948	36.35
811.127	-96.77
811.306	-33.28
811.485	-41.47
811.664	140.8
811.843	-8.7
812.022	36.35
812.201	-35.33
812.38	-25.09
812.559	-14.85
812.737	142.85
812.916	22.02
813.095	-57.86
813.274	77.31
813.453	62.98
813.632	5.63
813.811	26.11
813.989	-47.62
814.168	30.21
814.347	-64
814.526	58.88
814.704	200.19
814.883	97.79
815.062	44.54
815.24	56.83
815.419	-55.81
815.598	50.69
815.776	-107.01
815.955	81.41
816.133	-115.2
816.312	34.3
816.49	26.11
816.669	58.88
816.847	-6.66
817.026	36.35
817.204	7.68
817.383	9.73
817.561	-55.81
817.74	17.92
817.918	67.07
818.097	-12.8
818.275	-6.66
818.453	38.4
818.632	26.11
818.81	9.73
818.988	15.87
819.167	-125.44
819.345	-31.23
819.523	46.59
819.701	44.54
819.879	67.07
820.058	73.21
820.236	24.06
820.414	5.63
820.592	34.3
820.77	-10.75
820.948	-0.51
821.127	-72.19
821.305	17.92
821.483	-68.09
821.661	93.69
821.839	46.59
822.017	-51.71
822.195	13.82
822.373	32.26
822.551	-43.52
822.729	163.33
822.907	-41.47
823.085	22.02
823.262	44.54
823.44	32.26
823.618	17.92
823.796	28.16
823.974	5.63
824.152	-70.14
824.329	-4.61
824.507	30.21
824.685	26.11
824.863	36.35
825.04	-37.38
825.218	-14.85
825.396	36.35
825.574	-57.86
825.751	22.02
825.929	13.82
826.107	-76.29
826.284	54.78
826.462	85.5
826.639	-109.05
826.817	-98.81
826.994	73.21
827.172	-10.75
827.349	69.12
827.527	99.84
827.704	-10.75
827.882	89.6
828.059	22.02
828.237	-18.94
828.414	42.5
828.591	-76.29
828.769	42.5
828.946	-78.33
829.124	79.36
829.301	124.41
829.478	-31.23
829.655	85.5
829.833	-33.28
830.01	-127.49
830.187	95.74
830.364	9.73
830.542	-4.61
830.719	114.17
830.896	142.85
831.073	65.02
831.25	-14.85
831.427	81.41
831.604	-57.86
831.782	-84.48
831.959	-6.66
832.136	22.02
832.313	-23.04
832.49	62.98
832.667	5.63
832.844	-12.8
833.021	91.65
833.198	36.35
833.374	65.02
833.551	46.59
833.728	-76.29
833.905	19.97
834.082	-113.15
834.259	-12.8
834.436	46.59
834.612	-43.52
834.789	77.31
834.966	60.93
835.143	-10.75
835.319	-8.7
835.496	-64
835.673	87.55
835.85	91.65
836.026	38.4
836.203	81.41
836.38	-35.33
836.556	-70.14
836.733	-76.29
836.909	151.04
837.086	65.02
837.262	-150.01
837.439	-33.28
837.616	-64
837.792	50.69
837.968	-2.56
838.145	-94.72
838.321	52.74
838.498	17.92
838.674	95.74
838.851	1.54
839.027	15.87
839.203	-33.28
839.38	46.59
839.556	-18.94
839.732	5.63
839.909	13.82
840.085	93.69
840.261	-10.75
840.437	22.02
840.614	-33.28
840.79	87.55
840.966	91.65
841.142	38.4
841.318	-0.51
841.494	54.78
841.671	36.35
841.847	-66.05
842.023	-16.9
842.199	22.02
842.375	83.45
842.551	-20.99
842.727	7.68
842.903	165.37
843.079	-31.23
843.255	112.13
843.431	30.21
843.607	-35.33
843.783	-131.58
843.959	81.41
844.134	-8.7
844.31	46.59
844.486	-78.33
844.662	-14.85
844.838	58.88
845.013	9.73
845.189	3.58
845.365	-2.56
845.541	-74.24
845.716	-35.33
845.892	71.17
846.068	-129.53
846.244	-88.57
846.419	50.69
846.595	-64
846.77	-0.51
846.946	40.45
847.122	-68.09
847.297	-37.38
847.473	175.61
847.648	-27.14
847.824	-10.75
847.999	-111.1
848.175	-84.48
848.35	-20.99
848.526	126.46
848.701	67.07
848.876	26.11
849.052	11.78
849.227	-25.09
849.403	-39.42
849.578	19.97
849.753	79.36
849.929	7.68
850.104	-74.24
850.279	-33.28
850.454	36.35
850.63	60.93
850.805	46.59
850.98	3.58
851.155	-10.75
851.33	46.59
851.505	-72.19
851.681	146.94
851.856	-14.85
852.031	26.11
852.206	-47.62
852.381	-43.52
852.556	3.58
852.731	5.63
852.906	108.03
853.081	26.11
853.256	153.09
853.431	-6.66
853.606	-6.66
853.781	-51.71
853.956	-145.92
854.131	-90.62
854.305	-90.62
854.48	-66.05
854.655	-64
854.83	-47.62
855.005	-55.81
855.18	-35.33
855.354	-59.9
855.529	34.3
855.704	-12.8
855.879	26.11
856.053	-47.62
856.228	40.45
856.403	-82.43
856.577	93.69
856.752	-100.86
856.926	-25.09
857.101	-47.62
857.276	-47.62
857.45	-6.66
857.625	9.73
857.799	-2.56
857.974	7.68
858.148	-170.49
858.323	5.63
858.497	26.11
858.672	-43.52
858.846	-33.28
859.02	26.11
859.195	-76.29
859.369	-90.62
859.543	-55.81
859.718	44.54
859.892	-37.38
860.066	32.26
860.241	-41.47
860.415	-2.56
860.589	1.54
860.763	-12.8
860.938	-45.57
861.112	65.02
861.286	-8.7
861.46	15.87
861.634	-27.14
861.808	114.17
861.982	-113.15
862.157	-53.76
862.331	-55.81
862.505	-84.48
862.679	-119.29
862.853	-49.66
863.027	34.3
863.201	136.7
863.375	-8.7
863.549	24.06
863.722	89.6
863.896	75.26
864.07	-10.75
864.244	15.87
864.418	77.31
864.592	-16.9
864.766	-14.85
864.939	-49.66
865.113	-88.57
865.287	83.45
865.461	-78.33
865.634	-0.51
865.808	-53.76
865.982	-49.66
866.156	-111.1
866.329	-104.96
866.503	-0.51
866.676	5.63
866.85	32.26
867.024	-92.67
867.197	26.11
867.371	-6.66
867.544	44.54
867.718	-88.57
867.891	65.02
868.065	-55.81
868.238	-6.66
868.412	28.16
868.585	5.63
868.759	-2.56
868.932	-27.14
869.105	-61.95
869.279	-6.66
869.452	-90.62
869.625	1.54
869.799	38.4
869.972	-45.57
870.145	-12.8
870.319	62.98
870.492	-14.85
870.665	-88.57
870.838	-76.29
871.011	-127.49
871.185	-37.38
871.358	-70.14
871.531	11.78
871.704	15.87
871.877	69.12
872.05	-100.86
872.223	-98.81
872.396	5.63
872.569	-0.51
872.742	-82.43
872.915	75.26
873.088	-23.04
873.261	-55.81
873.434	120.32
873.607	-41.47
873.78	13.82
873.953	-47.62
874.126	17.92
874.299	28.16
874.471	22.02
874.644	1.54
874.817	97.79
874.99	71.17
875.163	-78.33
875.335	24.06
875.508	-16.9
875.681	22.02
875.853	-25.09
876.026	-12.8
876.199	44.54
876.371	17.92
876.544	-20.99
876.717	9.73
876.889	-119.29
877.062	52.74
877.234	-31.23
877.407	-51.71
877.579	-47.62
877.752	7.68
877.924	-33.28
878.097	71.17
878.269	-2.56
878.442	-20.99
878.614	32.26
878.786	85.5
878.959	7.68
879.131	32.26
879.303	-127.49
879.476	-43.52
879.648	138.75
879.82	-20.99
879.993	22.02
880.165	-31.23
880.337	-82.43
880.509	34.3
880.681	-86.53
880.854	-94.72
881.026	95.74
881.198	151.04
881.37	-23.04
881.542	56.83
881.714	-96.77
881.886	46.59
882.058	-20.99
882.23	-76.29
882.402	-59.9
882.574	28.16
882.746	40.45
882.918	81.41
883.09	26.11
883.262	-80.38
883.434	-25.09
883.606	-68.09
883.778	-45.57
883.95	110.08
884.122	-12.8
884.293	87.55
884.465	5.63
884.637	93.69
884.809	-84.48
884.98	58.88
885.152	38.4
885.324	28.16
885.496	-64
885.667	-14.85
885.839	-18.94
886.011	62.98
886.182	-20.99
886.354	11.78
886.525	17.92
886.697	-53.76
886.869	3.58
887.04	19.97
887.212	22.02
887.383	134.65
887.555	-2.56
887.726	-37.38
887.897	15.87
888.069	-18.94
888.24	13.82
888.412	-37.38
888.583	-12.8
888.754	11.78
888.926	-90.62
889.097	-55.81
889.268	-86.53
889.44	34.3
889.611	-74.24
889.782	17.92
889.953	-82.43
890.125	67.07
890.296	5.63
890.467	-72.19
890.638	-0.51
890.809	-10.75
890.98	-72.19
891.151	-16.9
891.323	54.78
891.494	-23.04
891.665	19.97
891.836	-47.62
892.007	-72.19
892.178	7.68
892.349	-47.62
892.52	-100.86
892.691	93.69
892.862	-37.38
893.032	-92.67
893.203	-23.04
893.374	13.82
893.545	69.12
893.716	24.06
893.887	99.84
894.057	-35.33
894.228	-18.94
894.399	-51.71
894.57	187.9
894.74	19.97
894.911	7.68
895.082	54.78
895.253	7.68
895.423	1.54
895.594	-14.85
895.764	17.92
895.935	-43.52
896.106	-2.56
896.276	-74.24
896.447	46.59
896.617	-49.66
896.788	-100.86
896.958	-41.47
897.129	-6.66
897.299	-51.71
897.47	128.51
897.64	13.82
897.81	7.68
897.981	17.92
898.151	-57.86
898.322	15.87
898.492	42.5
898.662	-139.77
898.832	-70.14
899.003	30.21
899.173	60.93
899.343	-12.8
899.513	-141.82
