Data from USB4F104151__34__09-27-15-109.txt Node

Date: Wed Feb 26 09:27:15 EST 2025
User: louis
Spectrometer: USB4F10415
Trigger mode: 4
Integration Time (sec): 1.000000E-1
Scans to average: 1
Electric dark correction enabled: true
Nonlinearity correction enabled: false
Boxcar width: 0
XAxis mode: Wavelengths
Number of Pixels in Spectrum: 3648
>>>>>Begin Spectral Data<<<<<
178.204	-329.04
178.424	-329.04
178.644	-329.04
178.864	-308.56
179.084	-357.71
179.304	-38.23
179.524	-25.94
179.744	-56.66
179.964	47.79
180.184	25.26
180.404	-7.51
180.624	-23.89
180.844	80.55
181.064	-44.37
181.283	70.31
181.503	-25.94
181.723	-1.37
181.943	-87.38
182.163	178.86
182.383	6.83
182.602	39.59
182.822	107.18
183.042	92.84
183.262	-87.38
183.482	35.5
183.701	23.21
183.921	19.11
184.141	55.98
184.361	74.41
184.58	88.75
184.8	-9.56
185.02	-54.61
185.239	92.84
185.459	49.83
185.679	88.75
185.898	-48.47
186.118	70.31
186.338	180.9
186.557	78.51
186.777	35.5
186.997	68.27
187.216	-7.51
187.436	162.47
187.655	121.51
187.875	51.88
188.095	58.03
188.314	148.14
188.534	150.18
188.753	-32.08
188.973	72.36
189.192	129.7
189.412	86.7
189.631	105.13
189.851	166.57
190.07	111.27
190.29	-27.99
190.509	27.31
190.729	-5.46
190.948	92.84
191.168	250.53
191.387	119.46
191.607	27.31
191.826	66.22
192.045	-7.51
192.265	21.16
192.484	35.5
192.704	53.93
192.923	23.21
193.142	148.14
193.362	55.98
193.581	174.76
193.8	107.18
194.02	123.56
194.239	19.11
194.458	64.17
194.678	-34.13
194.897	74.41
195.116	19.11
195.335	74.41
195.555	115.37
195.774	68.27
195.993	162.47
196.212	72.36
196.432	35.5
196.651	-5.46
196.87	23.21
197.089	176.81
197.308	113.32
197.528	49.83
197.747	25.26
197.966	64.17
198.185	232.1
198.404	17.07
198.623	92.84
198.842	121.51
199.062	127.66
199.281	109.22
199.5	33.45
199.719	146.09
199.938	86.7
200.157	98.99
200.376	127.66
200.595	170.66
200.814	119.46
201.033	-46.42
201.252	133.8
201.471	35.5
201.69	72.36
201.909	62.12
202.128	49.83
202.347	60.07
202.566	37.55
202.785	19.11
203.004	-7.51
203.223	320.17
203.442	64.17
203.661	31.4
203.879	4.78
204.098	109.22
204.317	-17.75
204.536	166.57
204.755	72.36
204.974	51.88
205.193	33.45
205.411	217.77
205.63	133.8
205.849	115.37
206.068	23.21
206.287	-52.56
206.505	170.66
206.724	37.55
206.943	39.59
207.162	27.31
207.381	80.55
207.599	-19.8
207.818	96.94
208.037	27.31
208.255	10.92
208.474	27.31
208.693	60.07
208.911	-30.04
209.13	86.7
209.349	45.74
209.567	76.46
209.786	123.56
210.005	109.22
210.223	27.31
210.442	-30.04
210.661	90.79
210.879	82.6
211.098	133.8
211.316	90.79
211.535	74.41
211.753	17.07
211.972	21.16
212.191	45.74
212.409	51.88
212.628	51.88
212.846	58.03
213.065	35.5
213.283	168.62
213.502	55.98
213.72	119.46
213.938	4.78
214.157	74.41
214.375	119.46
214.594	10.92
214.812	109.22
215.031	29.35
215.249	84.65
215.467	25.26
215.686	10.92
215.904	70.31
216.122	55.98
216.341	213.67
216.559	109.22
216.778	53.93
216.996	193.19
217.214	105.13
217.432	-7.51
217.651	45.74
217.869	47.79
218.087	88.75
218.306	12.97
218.524	6.83
218.742	41.64
218.96	131.75
219.179	6.83
219.397	70.31
219.615	240.29
219.833	84.65
220.051	-42.32
220.27	58.03
220.488	113.32
220.706	35.5
220.924	72.36
221.142	23.21
221.36	68.27
221.578	72.36
221.796	51.88
222.015	82.6
222.233	78.51
222.451	195.24
222.669	-5.46
222.887	62.12
223.105	51.88
223.323	64.17
223.541	23.21
223.759	78.51
223.977	101.03
224.195	115.37
224.413	45.74
224.631	66.22
224.849	80.55
225.067	180.9
225.285	19.11
225.503	23.21
225.721	-111.96
225.939	58.03
226.157	-13.65
226.375	195.24
226.592	10.92
226.81	-32.08
227.028	92.84
227.246	125.61
227.464	125.61
227.682	47.79
227.9	84.65
228.117	60.07
228.335	80.55
228.553	55.98
228.771	10.92
228.989	60.07
229.206	107.18
229.424	15.02
229.642	92.84
229.86	-17.75
230.077	160.42
230.295	135.85
230.513	117.42
230.731	80.55
230.948	162.47
231.166	121.51
231.384	94.89
231.601	8.87
231.819	246.44
232.037	70.31
232.254	-71
232.472	62.12
232.689	33.45
232.907	101.03
233.125	15.02
233.342	10.92
233.56	0.68
233.777	-13.65
233.995	6.83
234.213	135.85
234.43	43.69
234.648	58.03
234.865	10.92
235.083	70.31
235.3	35.5
235.518	90.79
235.735	119.46
235.953	131.75
236.17	39.59
236.388	43.69
236.605	10.92
236.822	141.99
237.04	113.32
237.257	58.03
237.475	43.69
237.692	51.88
237.909	82.6
238.127	10.92
238.344	131.75
238.562	82.6
238.779	25.26
238.996	-19.8
239.214	-71
239.431	96.94
239.648	43.69
239.865	78.51
240.083	92.84
240.3	-48.47
240.517	6.83
240.735	101.03
240.952	213.67
241.169	72.36
241.386	15.02
241.603	19.11
241.821	-38.23
242.038	148.14
242.255	80.55
242.472	31.4
242.689	55.98
242.907	88.75
243.124	62.12
243.341	47.79
243.558	-21.85
243.775	-5.46
243.992	-44.37
244.209	35.5
244.426	113.32
244.643	80.55
244.86	88.75
245.078	84.65
245.295	17.07
245.512	-19.8
245.729	107.18
245.946	76.46
246.163	51.88
246.38	68.27
246.597	64.17
246.814	41.64
247.031	25.26
247.248	2.73
247.464	90.79
247.681	66.22
247.898	111.27
248.115	45.74
248.332	-42.32
248.549	113.32
248.766	254.63
248.983	76.46
249.2	10.92
249.417	174.76
249.633	60.07
249.85	33.45
250.067	-36.18
250.284	31.4
250.501	105.13
250.717	137.9
250.934	-15.7
251.151	60.07
251.368	-38.23
251.585	96.94
251.801	-13.65
252.018	62.12
252.235	119.46
252.451	78.51
252.668	72.36
252.885	113.32
253.102	82.6
253.318	-3.41
253.535	0.68
253.752	45.74
253.968	33.45
254.185	-11.61
254.401	-13.65
254.618	-60.76
254.835	35.5
255.051	107.18
255.268	101.03
255.484	94.89
255.701	-25.94
255.917	76.46
256.134	72.36
256.351	19.11
256.567	-34.13
256.784	45.74
257	-40.28
257.217	53.93
257.433	133.8
257.65	80.55
257.866	125.61
258.082	-30.04
258.299	-13.65
258.515	58.03
258.732	-48.47
258.948	25.26
259.165	101.03
259.381	-15.7
259.597	78.51
259.814	19.11
260.03	-7.51
260.246	31.4
260.463	94.89
260.679	111.27
260.895	133.8
261.112	197.29
261.328	27.31
261.544	51.88
261.761	234.15
261.977	-17.75
262.193	-71
262.409	66.22
262.626	80.55
262.842	133.8
263.058	-17.75
263.274	80.55
263.49	94.89
263.707	96.94
263.923	39.59
264.139	-60.76
264.355	-7.51
264.571	211.62
264.787	19.11
265.004	148.14
265.22	68.27
265.436	21.16
265.652	66.22
265.868	158.38
266.084	-60.76
266.3	53.93
266.516	8.87
266.732	31.4
266.948	35.5
267.164	41.64
267.38	123.56
267.596	31.4
267.812	230.06
268.028	133.8
268.244	19.11
268.46	45.74
268.676	115.37
268.892	125.61
269.108	-32.08
269.324	35.5
269.54	-19.8
269.756	113.32
269.972	-30.04
270.188	19.11
270.403	51.88
270.619	64.17
270.835	80.55
271.051	47.79
271.267	51.88
271.483	6.83
271.698	76.46
271.914	178.86
272.13	86.7
272.346	-7.51
272.562	127.66
272.777	150.18
272.993	-1.37
273.209	10.92
273.425	117.42
273.64	-48.47
273.856	150.18
274.072	35.5
274.287	2.73
274.503	92.84
274.719	98.99
274.934	43.69
275.15	-46.42
275.366	123.56
275.581	-54.61
275.797	94.89
276.012	55.98
276.228	-5.46
276.444	17.07
276.659	68.27
276.875	-44.37
277.09	58.03
277.306	-1.37
277.521	76.46
277.737	19.11
277.952	131.75
278.168	55.98
278.383	58.03
278.599	33.45
278.814	125.61
279.03	6.83
279.245	178.86
279.461	78.51
279.676	68.27
279.892	8.87
280.107	0.68
280.322	-25.94
280.538	53.93
280.753	33.45
280.969	94.89
281.184	74.41
281.399	174.76
281.615	45.74
281.83	66.22
282.045	60.07
282.26	-32.08
282.476	133.8
282.691	51.88
282.906	51.88
283.122	98.99
283.337	-11.61
283.552	55.98
283.767	51.88
283.983	12.97
284.198	39.59
284.413	68.27
284.628	-40.28
284.843	60.07
285.058	82.6
285.274	15.02
285.489	19.11
285.704	150.18
285.919	31.4
286.134	74.41
286.349	45.74
286.564	10.92
286.779	117.42
286.995	23.21
287.21	-44.37
287.425	86.7
287.64	51.88
287.855	37.55
288.07	-34.13
288.285	94.89
288.5	207.53
288.715	109.22
288.93	55.98
289.145	33.45
289.36	96.94
289.575	27.31
289.79	178.86
290.004	43.69
290.219	76.46
290.434	47.79
290.649	-46.42
290.864	-21.85
291.079	39.59
291.294	47.79
291.509	92.84
291.724	66.22
291.938	64.17
292.153	58.03
292.368	-15.7
292.583	103.08
292.798	109.22
293.012	72.36
293.227	19.11
293.442	-38.23
293.657	64.17
293.871	115.37
294.086	117.42
294.301	166.57
294.516	144.04
294.73	-13.65
294.945	58.03
295.16	43.69
295.374	160.42
295.589	139.94
295.804	84.65
296.018	76.46
296.233	90.79
296.447	125.61
296.662	66.22
296.877	10.92
297.091	115.37
297.306	-17.75
297.52	113.32
297.735	107.18
297.949	109.22
298.164	35.5
298.378	111.27
298.593	51.88
298.807	19.11
299.022	-13.65
299.236	60.07
299.451	-5.46
299.665	80.55
299.88	29.35
300.094	-30.04
300.309	2.73
300.523	-17.75
300.737	19.11
300.952	-21.85
301.166	66.22
301.381	15.02
301.595	82.6
301.809	33.45
302.024	74.41
302.238	-23.89
302.452	195.24
302.667	90.79
302.881	115.37
303.095	49.83
303.309	94.89
303.524	-38.23
303.738	43.69
303.952	-34.13
304.166	49.83
304.381	-91.48
304.595	115.37
304.809	-9.56
305.023	152.23
305.237	35.5
305.452	4.78
305.666	19.11
305.88	107.18
306.094	119.46
306.308	6.83
306.522	182.95
306.736	68.27
306.95	78.51
307.164	12.97
307.379	19.11
307.593	160.42
307.807	144.04
308.021	109.22
308.235	137.9
308.449	-27.99
308.663	43.69
308.877	197.29
309.091	-30.04
309.305	90.79
309.519	6.83
309.733	182.95
309.947	-32.08
310.161	-23.89
310.374	41.64
310.588	131.75
310.802	-7.51
311.016	43.69
311.23	60.07
311.444	41.64
311.658	27.31
311.872	170.66
312.085	62.12
312.299	107.18
312.513	127.66
312.727	55.98
312.941	-15.7
313.154	21.16
313.368	60.07
313.582	70.31
313.796	101.03
314.009	0.68
314.223	160.42
314.437	45.74
314.651	58.03
314.864	41.64
315.078	64.17
315.292	-17.75
315.505	39.59
315.719	35.5
315.933	49.83
316.146	53.93
316.36	66.22
316.573	76.46
316.787	131.75
317.001	84.65
317.214	-50.52
317.428	92.84
317.641	-7.51
317.855	-23.89
318.068	53.93
318.282	43.69
318.495	189.1
318.709	62.12
318.922	84.65
319.136	133.8
319.349	23.21
319.563	55.98
319.776	74.41
319.99	-5.46
320.203	96.94
320.417	139.94
320.63	135.85
320.843	211.62
321.057	76.46
321.27	47.79
321.483	53.93
321.697	43.69
321.91	78.51
322.124	45.74
322.337	111.27
322.55	-79.19
322.763	180.9
322.977	33.45
323.19	-15.7
323.403	0.68
323.617	58.03
323.83	133.8
324.043	68.27
324.256	-7.51
324.469	-15.7
324.683	123.56
324.896	2.73
325.109	27.31
325.322	-3.41
325.535	82.6
325.748	49.83
325.962	68.27
326.175	113.32
326.388	92.84
326.601	141.99
326.814	80.55
327.027	92.84
327.24	23.21
327.453	-83.28
327.666	92.84
327.879	148.14
328.092	53.93
328.305	152.23
328.518	39.59
328.731	-3.41
328.944	6.83
329.157	51.88
329.37	4.78
329.583	201.38
329.796	131.75
330.009	-68.95
330.222	152.23
330.435	72.36
330.648	23.21
330.861	74.41
331.073	154.28
331.286	66.22
331.499	8.87
331.712	41.64
331.925	43.69
332.138	27.31
332.35	148.14
332.563	-42.32
332.776	150.18
332.989	-17.75
333.202	60.07
333.414	58.03
333.627	94.89
333.84	19.11
334.053	17.07
334.265	-21.85
334.478	-7.51
334.691	-1.37
334.903	43.69
335.116	-23.89
335.329	21.16
335.541	43.69
335.754	180.9
335.966	-15.7
336.179	23.21
336.392	27.31
336.604	62.12
336.817	41.64
337.029	55.98
337.242	60.07
337.454	78.51
337.667	27.31
337.88	133.8
338.092	80.55
338.305	74.41
338.517	31.4
338.729	201.38
338.942	125.61
339.154	21.16
339.367	-27.99
339.579	94.89
339.792	-1.37
340.004	164.52
340.217	55.98
340.429	76.46
340.641	-27.99
340.854	-17.75
341.066	105.13
341.278	98.99
341.491	84.65
341.703	6.83
341.915	17.07
342.128	17.07
342.34	137.9
342.552	-25.94
342.764	23.21
342.977	51.88
343.189	150.18
343.401	58.03
343.613	-52.56
343.826	-7.51
344.038	10.92
344.25	86.7
344.462	-5.46
344.674	55.98
344.886	37.55
345.099	125.61
345.311	162.47
345.523	84.65
345.735	-48.47
345.947	39.59
346.159	-34.13
346.371	-9.56
346.583	-54.61
346.795	150.18
347.007	82.6
347.219	2.73
347.431	53.93
347.643	78.51
347.855	-7.51
348.067	111.27
348.279	-44.37
348.491	35.5
348.703	125.61
348.915	27.31
349.127	-64.85
349.339	84.65
349.551	41.64
349.763	129.7
349.975	60.07
350.187	178.86
350.399	174.76
350.61	121.51
350.822	47.79
351.034	62.12
351.246	129.7
351.458	84.65
351.669	90.79
351.881	66.22
352.093	105.13
352.305	115.37
352.517	90.79
352.728	82.6
352.94	15.02
353.152	58.03
353.363	15.02
353.575	76.46
353.787	166.57
353.999	19.11
354.21	101.03
354.422	35.5
354.633	19.11
354.845	31.4
355.057	51.88
355.268	23.21
355.48	86.7
355.692	35.5
355.903	88.75
356.115	-36.18
356.326	-5.46
356.538	135.85
356.749	64.17
356.961	215.72
357.172	64.17
357.384	47.79
357.595	230.06
357.807	-15.7
358.018	98.99
358.23	17.07
358.441	125.61
358.653	94.89
358.864	25.26
359.075	-19.8
359.287	96.94
359.498	2.73
359.709	141.99
359.921	31.4
360.132	141.99
360.344	74.41
360.555	17.07
360.766	64.17
360.977	-11.61
361.189	84.65
361.4	53.93
361.611	105.13
361.823	82.6
362.034	123.56
362.245	25.26
362.456	74.41
362.667	90.79
362.879	43.69
363.09	78.51
363.301	64.17
363.512	66.22
363.723	-50.52
363.935	51.88
364.146	160.42
364.357	109.22
364.568	90.79
364.779	-48.47
364.99	152.23
365.201	19.11
365.412	158.38
365.623	-87.38
365.834	121.51
366.045	189.1
366.256	49.83
366.467	51.88
366.678	55.98
366.889	55.98
367.1	29.35
367.311	96.94
367.522	43.69
367.733	90.79
367.944	68.27
368.155	19.11
368.366	105.13
368.577	166.57
368.788	80.55
368.999	33.45
369.209	58.03
369.42	195.24
369.631	191.14
369.842	86.7
370.053	98.99
370.264	191.14
370.474	-44.37
370.685	43.69
370.896	107.18
371.107	80.55
371.317	60.07
371.528	31.4
371.739	117.42
371.95	121.51
372.16	164.52
372.371	-64.85
372.582	-11.61
372.792	105.13
373.003	148.14
373.214	58.03
373.424	96.94
373.635	-9.56
373.846	107.18
374.056	39.59
374.267	19.11
374.477	72.36
374.688	17.07
374.898	154.28
375.109	68.27
375.319	19.11
375.53	178.86
375.74	166.57
375.951	45.74
376.161	51.88
376.372	66.22
376.582	19.11
376.793	58.03
377.003	55.98
377.214	76.46
377.424	64.17
377.635	78.51
377.845	2.73
378.055	92.84
378.266	64.17
378.476	23.21
378.686	111.27
378.897	101.03
379.107	160.42
379.317	25.26
379.528	60.07
379.738	92.84
379.948	31.4
380.158	31.4
380.369	15.02
380.579	117.42
380.789	58.03
380.999	64.17
381.21	-5.46
381.42	203.43
381.63	-1.37
381.84	78.51
382.05	92.84
382.261	94.89
382.471	182.95
382.681	41.64
382.891	164.52
383.101	68.27
383.311	17.07
383.521	17.07
383.731	154.28
383.941	170.66
384.151	25.26
384.361	17.07
384.571	19.11
384.781	76.46
384.991	203.43
385.201	170.66
385.411	94.89
385.621	101.03
385.831	-5.46
386.041	-83.28
386.251	43.69
386.461	156.33
386.671	43.69
386.881	39.59
387.091	51.88
387.301	90.79
387.511	25.26
387.72	33.45
387.93	174.76
388.14	-79.19
388.35	98.99
388.56	70.31
388.769	80.55
388.979	37.55
389.189	33.45
389.399	23.21
389.609	96.94
389.818	68.27
390.028	103.08
390.238	98.99
390.447	-21.85
390.657	19.11
390.867	82.6
391.076	-19.8
391.286	33.45
391.496	58.03
391.705	82.6
391.915	115.37
392.125	115.37
392.334	33.45
392.544	150.18
392.753	12.97
392.963	43.69
393.172	21.16
393.382	68.27
393.591	234.15
393.801	12.97
394.01	199.34
394.22	94.89
394.429	-5.46
394.639	23.21
394.848	121.51
395.058	92.84
395.267	109.22
395.477	148.14
395.686	-7.51
395.895	244.39
396.105	123.56
396.314	88.75
396.524	33.45
396.733	-13.65
396.942	162.47
397.152	98.99
397.361	133.8
397.57	66.22
397.78	-9.56
397.989	111.27
398.198	158.38
398.407	53.93
398.617	23.21
398.826	66.22
399.035	105.13
399.244	90.79
399.453	17.07
399.663	70.31
399.872	33.45
400.081	-9.56
400.29	115.37
400.499	-9.56
400.708	178.86
400.917	43.69
401.127	78.51
401.336	-13.65
401.545	133.8
401.754	60.07
401.963	98.99
402.172	-7.51
402.381	2.73
402.59	74.41
402.799	74.41
403.008	80.55
403.217	27.31
403.426	94.89
403.635	58.03
403.844	72.36
404.053	96.94
404.262	10.92
404.471	215.72
404.68	88.75
404.888	68.27
405.097	27.31
405.306	62.12
405.515	80.55
405.724	82.6
405.933	92.84
406.142	60.07
406.35	199.34
406.559	113.32
406.768	121.51
406.977	137.9
407.185	82.6
407.394	105.13
407.603	-15.7
407.812	66.22
408.02	23.21
408.229	35.5
408.438	119.46
408.646	2.73
408.855	74.41
409.064	125.61
409.272	29.35
409.481	125.61
409.69	39.59
409.898	-17.75
410.107	27.31
410.315	182.95
410.524	25.26
410.733	58.03
410.941	51.88
411.15	105.13
411.358	68.27
411.567	158.38
411.775	58.03
411.984	62.12
412.192	107.18
412.401	92.84
412.609	191.14
412.818	187.05
413.026	82.6
413.234	-46.42
413.443	92.84
413.651	27.31
413.86	115.37
414.068	121.51
414.276	201.38
414.485	-1.37
414.693	185
414.901	152.23
415.11	131.75
415.318	51.88
415.526	45.74
415.734	84.65
415.943	74.41
416.151	101.03
416.359	-19.8
416.567	101.03
416.776	86.7
416.984	92.84
417.192	215.72
417.4	6.83
417.608	37.55
417.817	-46.42
418.025	101.03
418.233	193.19
418.441	-36.18
418.649	-32.08
418.857	72.36
419.065	182.95
419.273	-5.46
419.481	64.17
419.689	33.45
419.897	33.45
420.105	119.46
420.313	76.46
420.521	96.94
420.729	141.99
420.937	31.4
421.145	2.73
421.353	121.51
421.561	92.84
421.769	90.79
421.977	49.83
422.185	139.94
422.393	37.55
422.601	121.51
422.809	27.31
423.017	90.79
423.224	27.31
423.432	94.89
423.64	15.02
423.848	113.32
424.056	2.73
424.263	133.8
424.471	74.41
424.679	205.48
424.887	12.97
425.094	162.47
425.302	111.27
425.51	35.5
425.718	121.51
425.925	82.6
426.133	70.31
426.341	123.56
426.548	64.17
426.756	64.17
426.964	164.52
427.171	68.27
427.379	101.03
427.586	123.56
427.794	125.61
428.001	131.75
428.209	125.61
428.417	150.18
428.624	103.08
428.832	178.86
429.039	8.87
429.247	98.99
429.454	90.79
429.662	225.96
429.869	129.7
430.076	123.56
430.284	146.09
430.491	268.97
430.699	162.47
430.906	62.12
431.114	125.61
431.321	185
431.528	117.42
431.736	217.77
431.943	123.56
432.15	182.95
432.358	217.77
432.565	254.63
432.772	113.32
432.979	256.68
433.187	115.37
433.394	248.49
433.601	105.13
433.808	223.91
434.016	240.29
434.223	303.78
434.43	154.28
434.637	191.14
434.844	254.63
435.052	248.49
435.259	318.12
435.466	271.01
435.673	199.34
435.88	379.56
436.087	348.84
436.294	301.73
436.501	324.26
436.708	293.54
436.915	303.78
437.122	346.79
437.329	262.82
437.537	309.93
437.743	369.32
437.95	436.9
438.157	404.13
438.364	406.18
438.571	484
438.778	426.66
438.985	410.28
439.192	494.24
439.399	481.96
439.606	469.67
439.813	469.67
440.02	598.69
440.227	682.66
440.433	535.2
440.64	557.73
440.847	535.2
441.054	713.38
441.261	703.14
441.467	641.7
441.674	635.55
441.881	772.77
442.088	625.31
442.294	725.66
442.501	805.53
442.708	852.64
442.914	836.25
443.121	866.97
443.328	918.17
443.534	873.12
443.741	860.83
443.948	809.63
444.154	948.89
444.361	1090.2
444.568	1043.1
444.774	1108.63
444.981	1034.91
445.187	1264.28
445.394	1141.4
445.6	1237.66
445.807	1387.16
446.013	1280.66
446.22	1290.9
446.426	1280.66
446.633	1495.7
446.839	1565.33
447.046	1436.31
447.252	1604.24
447.459	1702.54
447.665	1669.78
447.871	1802.9
448.078	1960.59
448.284	1856.14
448.491	1933.97
448.697	2067.08
448.903	2187.91
449.11	2161.29
449.316	2032.27
449.522	2343.56
449.728	2464.39
449.935	2495.11
450.141	2525.83
450.347	2857.6
450.553	2620.03
450.76	2759.3
450.966	2951.81
451.172	3080.83
451.378	3086.97
451.584	3232.38
451.791	3336.82
451.997	3447.41
452.203	3560.05
452.409	3738.23
452.615	3916.4
452.821	3760.75
453.027	3951.21
453.233	4282.99
453.44	4174.44
453.646	4524.65
453.852	4790.88
454.058	4663.91
454.264	4938.34
454.47	5192.28
454.676	5229.15
454.882	5841.49
455.088	5603.93
455.294	5765.71
455.5	6273.61
455.705	6488.65
455.911	6515.27
456.117	6632.01
456.323	7023.17
456.529	6836.8
456.735	7576.12
456.941	7690.81
457.147	8241.71
457.352	8233.52
457.558	8628.77
457.764	9136.67
457.97	9409.05
458.176	9638.42
458.381	10017.3
458.587	10283.53
458.793	10871.3
458.999	10775.05
459.204	12173.81
459.41	12802.54
459.616	12274.16
459.821	13236.7
460.027	13554.14
460.233	14322.13
460.438	14227.92
460.644	15141.32
460.85	15081.92
461.055	16005.56
461.261	16570.8
461.466	16429.49
461.672	16503.21
461.878	18483.6
462.083	18293.14
462.289	18575.76
462.494	19376.51
462.7	19540.35
462.905	19933.56
463.111	21553.51
463.316	22495.57
463.522	22786.38
463.727	23718.21
463.932	24719.67
464.138	25381.16
464.343	26433.82
464.549	26554.65
464.754	28471.54
464.959	29561.06
465.165	29530.34
465.37	29597.93
465.575	29540.58
465.781	31162.58
465.986	32946.36
466.191	31926.47
466.397	32198.85
466.602	31477.96
466.807	33345.71
467.012	33855.65
467.218	34381.98
467.423	34885.78
467.628	36053.12
467.833	37345.39
468.038	36651.13
468.244	36018.31
468.449	37949.54
468.654	36970.61
468.859	36835.45
469.064	37380.21
469.269	36298.88
469.474	36386.94
469.679	37605.48
469.885	36794.49
470.09	36851.83
470.295	37042.29
470.5	36180.1
470.705	36481.15
470.91	35496.08
471.115	35119.25
471.32	36006.02
471.525	35610.76
471.73	34099.36
471.935	34984.08
472.139	33192.11
472.344	33124.53
472.549	33018.03
472.754	32313.53
472.959	31367.37
473.164	30744.79
473.369	30226.65
473.574	30818.52
473.778	30583
473.983	30226.65
474.188	29331.69
474.393	27934.98
474.598	27470.09
474.802	26857.74
475.007	26794.26
475.212	26761.49
475.417	25575.72
475.621	25370.92
475.826	25469.22
476.031	24525.11
476.235	24146.23
476.44	24105.27
476.645	23386.44
476.849	22995.28
477.054	22645.07
477.259	22362.45
477.463	22059.35
477.668	21610.85
477.872	21399.91
478.077	21000.55
478.282	20568.43
478.486	20228.47
478.691	19911.03
478.895	19831.16
479.1	19634.56
479.304	19880.32
479.509	18948.49
479.713	19136.9
479.918	18993.54
480.122	18174.36
480.326	18516.37
480.531	18395.54
480.735	18299.28
480.94	17932.7
481.144	18518.42
481.348	17664.41
481.553	17609.12
481.757	17377.7
481.961	17435.04
482.166	17525.15
482.37	17140.13
482.574	16777.64
482.778	16662.96
482.983	17041.83
483.187	16966.06
483.391	16505.26
483.595	16007.61
483.8	16345.52
484.004	16155.06
484.208	16249.27
484.412	15743.42
484.616	15708.6
484.821	15643.07
485.025	14922.18
485.229	15126.98
485.433	14858.7
485.637	14594.51
485.841	14649.8
486.045	14252.5
486.249	14377.42
486.453	14000.6
486.657	13756.89
486.861	13494.75
487.065	13285.86
487.269	13347.29
487.473	12757.48
487.677	12999.14
487.881	13187.55
488.085	12450.28
488.289	12448.24
488.493	11975.16
488.697	12036.59
488.901	12061.17
489.105	11497.98
489.309	11344.38
489.512	11117.06
489.716	11121.15
489.92	10629.64
490.124	10641.93
490.328	10512.91
490.531	10166.8
490.735	9996.82
490.939	9847.32
491.143	9843.22
491.346	9607.7
491.55	9480.73
491.754	9355.8
491.958	9110.05
492.161	9001.51
492.365	8917.54
492.569	8655.4
492.772	8553
492.976	8536.62
493.18	8489.51
493.383	8505.9
493.587	8376.87
493.79	8280.62
493.994	8034.86
494.197	7977.52
494.401	8114.73
494.605	7866.93
494.808	7895.6
495.012	7946.8
495.215	7817.78
495.419	7653.94
495.622	7539.26
495.825	7643.7
496.029	7514.68
496.232	7692.85
496.436	7514.68
496.639	7750.2
496.843	7350.84
497.046	7533.11
497.249	7555.64
497.453	7709.24
497.656	7610.93
497.859	7604.79
498.063	7541.3
498.266	7719.48
498.469	7660.09
498.673	7742
498.876	7641.65
499.079	7791.16
499.282	7707.19
499.485	8055.34
499.689	7981.62
499.892	7944.75
500.095	8131.12
500.298	8325.68
500.501	7903.79
500.705	8305.2
500.908	8481.32
501.111	8403.5
501.314	8561.19
501.517	8745.51
501.72	8858.15
501.923	8788.52
502.126	8915.49
502.329	8995.36
502.532	9087.52
502.735	8854.05
502.938	9318.94
503.141	9333.28
503.344	9421.34
503.547	9919
503.75	9804.31
503.953	9984.53
504.156	10011.15
504.359	10107.41
504.562	10357.26
504.765	10633.74
504.968	10672.65
505.17	10973.7
505.373	10930.69
505.576	11389.44
505.779	11160.06
505.982	11305.47
506.185	11536.89
506.387	11897.33
506.59	12157.43
506.793	12382.7
506.996	12446.19
507.198	12915.17
507.401	13031.91
507.604	13193.7
507.807	13560.28
508.009	13900.25
508.212	14055.89
508.415	14268.88
508.617	14524.88
508.82	15083.97
509.022	14858.7
509.225	15653.31
509.428	15858.1
509.63	16402.86
509.833	16734.64
510.035	16935.34
510.238	17185.19
510.44	17615.26
510.643	18055.58
510.845	18323.86
511.048	18852.23
511.25	19259.78
511.453	19642.75
511.655	20502.9
511.858	20887.92
512.06	21422.44
512.262	21477.73
512.465	21801.31
512.667	22552.91
512.87	22929.74
513.072	23325
513.274	23812.42
513.477	24674.61
513.679	25162.03
513.881	25655.59
514.084	26329.37
514.286	26824.98
514.488	27017.49
514.69	28371.19
514.893	28262.65
515.095	28811.51
515.297	29839.59
515.499	30372.06
515.701	31031.51
515.904	31903.94
516.106	32358.59
516.308	32993.46
516.51	33771.69
516.712	34015.4
516.914	34621.59
517.116	35332.24
517.318	36085.89
517.52	36884.6
517.722	37113.97
517.925	37826.67
518.127	38883.42
518.329	39428.18
518.531	39616.59
518.733	40984.63
518.935	41676.85
519.136	41818.16
519.338	42786.85
519.54	43323.41
519.742	44120.07
519.944	44726.27
520.146	45432.82
520.348	45477.88
520.55	46153.71
520.752	46751.71
520.954	47837.14
521.155	47685.59
521.357	48781.25
521.559	49158.08
521.761	50048.94
521.963	50263.98
522.164	50503.59
522.366	51085.22
522.568	51306.4
522.77	51611.54
522.971	52883.33
523.173	51941.27
523.375	52725.64
523.576	52793.22
523.778	53047.17
523.98	53624.7
524.181	53989.23
524.383	53569.4
524.584	54306.67
524.786	54542.19
524.988	54087.54
525.189	54724.46
525.391	54882.15
525.592	55086.95
525.794	54656.87
525.995	54605.67
526.197	54439.79
526.398	55111.52
526.6	55123.81
526.801	54439.79
527.003	54280.05
527.204	54062.96
527.406	54366.06
527.607	53817.21
527.808	53854.07
528.01	52883.33
528.211	52924.29
528.412	53229.44
528.614	52768.65
528.815	52512.65
529.016	52584.33
529.218	51449.75
529.419	51507.1
529.62	50634.66
529.822	50325.42
530.023	49883.06
530.224	49577.91
530.425	49123.26
530.626	48203.72
530.828	47486.93
531.029	48113.61
531.23	46551.01
531.431	46518.24
531.632	45924.33
531.833	45830.13
532.035	45021.18
532.236	44349.45
532.437	44488.71
532.638	43388.95
532.839	43352.09
533.04	42663.97
533.241	41603.12
533.442	42211.37
533.643	40898.62
533.844	40304.71
534.045	39931.98
534.246	39010.39
534.447	39157.85
534.648	38262.88
534.849	37437.55
535.05	36868.22
535.251	36999.29
535.451	36292.74
535.652	35911.81
535.853	35070.1
536.054	35223.7
536.255	34556.06
536.456	33929.38
536.657	34052.26
536.857	33366.19
537.058	32657.59
537.259	32268.48
537.46	32030.91
537.66	31307.98
537.861	30945.49
538.062	30431.45
538.263	30091.49
538.463	29421.8
538.664	29014.26
538.865	29180.14
539.065	28987.63
539.266	28197.12
539.466	28365.05
539.667	27277.58
539.868	27730.18
540.068	27316.49
540.269	26847.5
540.469	26773.78
540.67	26046.75
540.87	25778.47
541.071	25764.13
541.271	25174.31
541.472	25067.82
541.672	24416.57
541.873	24379.7
542.073	23775.55
542.274	23925.05
542.474	23669.06
542.675	23284.04
542.875	23089.48
543.075	22761.81
543.276	22364.5
543.476	22452.56
543.676	22071.64
543.877	21829.98
544.077	21492.07
544.277	21305.7
544.478	21207.4
544.678	20797.81
544.878	20322.68
545.078	20463.99
545.279	19749.25
545.479	19933.56
545.679	19665.28
545.879	19325.32
546.079	19175.81
546.28	18821.52
546.48	18659.73
546.68	18522.51
546.88	18332.05
547.08	18194.84
547.28	17914.27
547.48	17553.82
547.68	17623.45
547.88	17070.5
548.081	17174.95
548.281	16667.05
548.481	16495.02
548.681	16710.06
548.881	16411.06
549.081	16021.94
549.28	15770.04
549.48	15622.59
549.68	15399.36
549.88	15337.92
550.08	14946.76
550.28	14764.49
550.48	14602.7
550.68	14469.58
550.88	14275.02
551.08	13865.43
551.279	13851.1
551.479	13552.09
551.679	13482.46
551.879	13167.07
552.079	13087.2
552.278	12739.05
552.478	12859.88
552.678	12454.38
552.878	12268.02
553.077	12210.67
553.277	11764.22
553.477	11715.06
553.676	11481.6
553.876	11043.33
554.076	11147.78
554.275	11016.71
554.475	10668.55
554.674	10666.5
554.874	10435.08
555.074	10164.75
555.273	10119.7
555.473	10148.37
555.672	9812.5
555.872	9556.5
556.071	9591.32
556.271	9341.47
556.47	9318.94
556.67	8899.11
556.869	8878.63
557.068	8849.96
557.268	8473.13
557.467	8507.94
557.667	8225.33
557.866	8137.26
558.065	8030.77
558.265	7918.13
558.464	7670.33
558.663	7719.48
558.863	7641.65
559.062	7428.67
559.261	7217.72
559.461	7404.09
559.66	7088.7
559.859	6875.71
560.058	6814.27
560.258	6726.21
560.457	6539.85
560.656	6636.1
560.855	6312.52
561.054	6617.67
561.253	6064.72
561.453	6185.55
561.652	6091.34
561.851	6070.86
562.05	5925.46
562.249	5845.59
562.448	5724.76
562.647	5569.11
562.846	5466.71
563.045	5696.08
563.244	5259.87
563.443	5339.74
563.642	5214.81
563.841	5184.09
564.04	5188.19
564.239	5014.11
564.438	5040.73
564.637	4803.17
564.836	4895.33
565.035	4622.95
565.234	4557.41
565.432	4573.8
565.631	4532.84
565.83	4491.88
566.029	4328.04
566.228	4156.01
566.427	4260.46
566.625	4072.04
566.824	4086.38
567.023	4190.83
567.222	3947.12
567.42	4053.61
567.619	3981.93
567.818	3787.38
568.016	3918.45
568.215	3773.04
568.414	3711.6
568.612	3519.09
568.811	3543.67
569.01	3727.99
569.208	3465.85
569.407	3537.52
569.605	3443.32
569.804	3242.62
570.002	3400.31
570.201	3132.03
570.4	3177.08
570.598	3017.34
570.797	3148.41
570.995	3015.29
571.193	3009.15
571.392	3005.05
571.59	2753.15
571.789	2945.66
571.987	2912.89
572.186	2859.65
572.384	2728.58
572.582	2605.7
572.781	2658.95
572.979	2566.79
573.177	2581.12
573.376	2554.5
573.574	2597.51
573.772	2378.37
573.971	2398.85
574.169	2359.94
574.367	2484.87
574.565	2232.97
574.763	2321.03
574.962	2185.87
575.16	2146.95
575.358	2304.65
575.556	2159.24
575.754	2134.67
575.952	2050.7
576.151	2048.65
576.349	2091.66
576.547	2024.08
576.745	1985.16
576.943	1993.36
577.141	1878.67
577.339	1706.64
577.537	1761.94
577.735	1893.01
577.933	1888.91
578.131	1657.49
578.329	1761.94
578.527	1692.3
578.725	1749.65
578.923	1600.15
579.121	1630.87
579.319	1524.37
579.516	1630.87
579.714	1673.87
579.912	1548.95
580.11	1452.69
580.308	1497.75
580.506	1426.07
580.704	1315.48
580.901	1325.72
581.099	1469.08
581.297	1387.16
581.495	1344.15
581.692	1313.43
581.89	1260.18
582.088	1333.91
582.285	1249.94
582.483	1297.05
582.681	1217.18
582.878	1299.09
583.076	1215.13
583.274	1219.22
583.471	1288.86
583.669	1223.32
583.866	1100.44
584.064	959.13
584.262	959.13
584.459	1043.1
584.657	1077.91
584.854	1071.77
585.052	1045.15
585.249	1116.83
585.447	996
585.644	952.99
585.841	1090.2
586.039	1026.71
586.236	993.95
586.434	834.21
586.631	887.45
586.828	905.88
587.026	891.55
587.223	844.45
587.42	895.64
587.618	926.36
587.815	996
588.012	862.88
588.21	789.15
588.407	819.87
588.604	838.3
588.801	748.19
588.999	776.86
589.196	801.44
589.393	690.85
589.59	803.49
589.787	789.15
589.984	770.72
590.182	768.67
590.379	713.38
590.576	721.57
590.773	715.42
590.97	791.2
591.167	762.53
591.364	768.67
591.561	686.75
591.758	817.82
591.955	740
592.152	633.51
592.349	676.51
592.546	717.47
592.743	684.7
592.94	740
593.137	682.66
593.334	789.15
593.531	735.9
593.727	664.22
593.924	797.34
594.121	772.77
594.318	662.18
594.515	783.01
594.712	871.07
594.908	813.73
595.105	600.74
595.302	746.14
595.499	828.06
595.696	891.55
595.892	735.9
596.089	735.9
596.286	762.53
596.482	881.31
596.679	793.25
596.876	758.43
597.072	965.28
597.269	897.69
597.466	932.51
597.662	909.98
597.859	881.31
598.055	936.6
598.252	1045.15
598.448	1161.88
598.645	1190.55
598.841	1192.6
599.038	1288.86
599.234	1274.52
599.431	1317.53
599.627	1307.29
599.824	1374.87
600.02	1305.24
600.217	1395.35
600.413	1436.31
600.609	1448.6
600.806	1858.19
601.002	1753.74
601.198	1604.24
601.395	1831.57
601.591	1854.09
601.787	1903.25
601.984	2099.85
602.18	2073.23
602.376	2040.46
602.572	2327.18
602.769	2357.89
602.965	2312.84
603.161	2361.99
603.357	2454.15
603.553	2753.15
603.75	2650.75
603.946	2708.1
604.142	2869.89
604.338	3080.83
604.534	3115.64
604.73	3314.3
604.926	3148.41
605.122	3543.67
605.318	3496.57
605.514	3730.03
605.71	3676.79
605.906	3846.77
606.102	3934.83
606.298	4127.34
606.494	4151.92
606.69	4350.57
606.886	4432.49
607.082	4399.72
607.278	4538.98
607.474	4756.07
607.67	5075.55
607.866	4944.48
608.062	5198.43
608.257	5411.42
608.453	5487.19
608.649	5530.2
608.845	5825.11
609.041	5876.3
609.236	6138.44
609.432	6122.06
609.628	6400.59
609.824	6670.92
610.019	6787.65
610.215	6883.91
610.411	7252.54
610.606	7385.66
610.802	7469.62
610.998	7684.66
611.193	8014.38
611.389	8055.34
611.584	8233.52
611.78	8317.48
611.976	8835.62
612.171	8976.93
612.367	9173.53
612.562	9480.73
612.758	9529.88
612.953	9906.71
613.149	10193.42
613.344	10332.68
613.539	10803.72
613.735	11008.51
613.93	11350.53
614.126	11659.77
614.321	11872.76
614.517	12253.68
614.712	12597.74
614.907	12833.25
615.103	13101.54
615.298	13330.91
615.493	13994.45
615.688	14152.15
615.884	14744.01
616.079	14588.36
616.274	15223.23
616.47	15448.51
616.665	16103.86
616.86	16347.57
617.055	16812.46
617.25	17068.45
617.445	17826.2
617.641	17998.23
617.836	18739.6
618.031	18516.37
618.226	19528.06
618.421	19763.58
618.616	20420.98
618.811	20441.46
619.006	21465.44
619.201	21178.73
619.396	22171.99
619.591	22186.33
619.786	23478.6
619.981	23325
620.176	24289.59
620.371	24527.16
620.566	24940.85
620.761	25604.39
620.956	26042.65
621.151	26560.79
621.346	27195.66
621.541	27013.39
621.735	28588.28
621.93	28207.36
622.125	29151.47
622.32	29552.87
622.515	30187.74
622.709	30689.49
622.904	31152.34
623.099	31850.69
623.294	32342.21
623.488	32940.21
623.683	33667.24
623.878	33523.88
624.072	34660.51
624.267	34769.05
624.462	35616.91
624.656	35829.9
624.851	36634.75
625.046	37050.49
625.24	37736.55
625.435	37965.93
625.629	38416.48
625.824	38803.55
626.018	39663.69
626.213	39393.36
626.407	40380.48
626.602	40333.38
626.796	41533.49
626.991	41848.88
627.185	41998.38
627.38	42211.37
627.574	42420.26
627.768	42340.39
627.963	42848.28
628.157	43030.55
628.352	43352.09
628.546	42872.86
628.74	43601.94
628.935	42876.96
629.129	43724.82
629.323	42717.21
629.517	43257.88
629.712	42692.64
629.906	42655.78
630.1	41525.3
630.294	41513.01
630.489	41138.23
630.683	40925.24
630.877	39899.21
631.071	39288.92
631.265	39129.17
631.459	38170.72
631.653	37730.41
631.848	36835.45
632.042	35864.71
632.236	35127.44
632.43	33804.45
632.624	33267.89
632.818	32268.48
633.012	31097.04
633.206	30445.79
633.4	29847.78
633.594	28582.13
633.788	27468.04
633.982	26790.16
634.176	25917.73
634.369	24826.16
634.563	23857.47
634.757	22942.03
634.951	22163.8
635.145	21258.6
635.339	20586.86
635.533	19767.68
635.726	19112.33
635.92	18061.72
636.114	17209.76
636.308	16570.8
636.501	16126.39
636.695	15528.38
636.889	14784.97
637.083	14191.06
637.276	13367.77
637.47	13079.01
637.664	12575.21
637.857	12182
638.051	11643.38
638.244	10940.93
638.438	10773
638.632	10377.74
638.825	9875.99
639.019	9460.25
639.212	8802.85
639.406	8714.79
639.599	8444.46
639.793	8077.87
639.986	7842.35
640.18	7524.92
640.373	7008.83
640.567	6847.04
640.76	6582.85
640.954	6195.79
641.147	6068.81
641.34	5710.42
641.534	5646.93
641.727	5571.16
641.92	5227.1
642.114	4932.19
642.307	4766.31
642.5	4790.88
642.694	4520.55
642.887	4266.6
643.08	4250.22
643.273	4065.9
643.467	4010.61
643.66	3727.99
643.853	3467.89
644.046	3500.66
644.239	3406.45
644.432	3160.7
644.626	3009.15
644.819	2966.14
645.012	2757.25
645.205	2704
645.398	2669.19
645.591	2550.4
645.784	2435.72
645.977	2245.26
646.17	2327.18
646.363	2214.54
646.556	1960.59
646.749	1946.25
646.942	1915.53
647.135	1958.54
647.328	1696.4
647.521	1723.02
647.714	1747.6
647.907	1594
648.099	1510.04
648.292	1448.6
648.485	1452.69
648.678	1241.75
648.871	1305.24
649.064	1260.18
649.256	1159.83
649.449	1082.01
649.642	1026.71
649.835	1075.87
650.027	1026.71
650.22	1051.29
650.413	1014.43
650.605	993.95
650.798	912.03
650.991	871.07
651.183	795.29
651.376	871.07
651.568	819.87
651.761	836.25
651.954	842.4
652.146	756.38
652.339	717.47
652.531	807.58
652.724	580.26
652.916	658.08
653.109	551.59
653.301	647.84
653.494	570.02
653.686	668.32
653.879	703.14
654.071	651.94
654.263	527.01
654.456	471.72
654.648	596.64
654.84	484
655.033	449.19
655.225	541.35
655.417	354.98
655.61	469.67
655.802	527.01
655.994	436.9
656.186	281.25
656.379	502.43
656.571	297.64
656.763	316.07
656.955	434.85
657.148	334.5
657.34	428.71
657.532	373.41
657.724	459.43
657.916	238.25
658.108	420.52
658.3	336.55
658.492	391.84
658.684	234.15
658.876	404.13
659.068	293.54
659.26	262.82
659.452	215.72
659.644	281.25
659.836	379.56
660.028	256.68
660.22	271.01
660.412	219.82
660.604	262.82
660.796	330.41
660.988	299.69
661.18	219.82
661.372	271.01
661.563	236.2
661.755	221.86
661.947	260.77
662.139	180.9
662.331	277.16
662.522	254.63
662.714	236.2
662.906	174.76
663.097	248.49
663.289	115.37
663.481	92.84
663.673	234.15
663.864	187.05
664.056	248.49
664.247	25.26
664.439	256.68
664.631	166.57
664.822	258.73
665.014	146.09
665.205	176.81
665.397	103.08
665.588	133.8
665.78	150.18
665.971	146.09
666.163	176.81
666.354	201.38
666.546	185
666.737	162.47
666.929	162.47
667.12	205.48
667.311	176.81
667.503	187.05
667.694	174.76
667.885	164.52
668.077	182.95
668.268	172.71
668.459	150.18
668.651	139.94
668.842	115.37
669.033	137.9
669.224	121.51
669.416	311.97
669.607	193.19
669.798	139.94
669.989	266.92
670.18	160.42
670.371	199.34
670.563	45.74
670.754	248.49
670.945	246.44
671.136	271.01
671.327	141.99
671.518	182.95
671.709	228.01
671.9	92.84
672.091	199.34
672.282	113.32
672.473	123.56
672.664	152.23
672.855	133.8
673.046	201.38
673.237	199.34
673.428	101.03
673.619	199.34
673.809	123.56
674	178.86
674.191	146.09
674.382	178.86
674.573	158.38
674.764	211.62
674.954	244.39
675.145	117.42
675.336	166.57
675.527	133.8
675.717	144.04
675.908	84.65
676.099	170.66
676.289	203.43
676.48	189.1
676.671	221.86
676.861	174.76
677.052	107.18
677.243	152.23
677.433	141.99
677.624	275.11
677.814	287.4
678.005	213.67
678.195	344.74
678.386	131.75
678.576	228.01
678.767	123.56
678.957	187.05
679.148	240.29
679.338	277.16
679.529	268.97
679.719	101.03
679.909	266.92
680.1	232.1
680.29	301.73
680.481	271.01
680.671	219.82
680.861	223.91
681.052	193.19
681.242	88.75
681.432	213.67
681.622	225.96
681.813	205.48
682.003	252.58
682.193	185
682.383	289.45
682.573	182.95
682.764	84.65
682.954	240.29
683.144	252.58
683.334	172.71
683.524	228.01
683.714	254.63
683.904	254.63
684.094	264.87
684.284	262.82
684.474	379.56
684.664	348.84
684.854	281.25
685.044	264.87
685.234	230.06
685.424	219.82
685.614	133.8
685.804	338.6
685.994	279.21
686.184	230.06
686.374	281.25
686.564	305.83
686.753	197.29
686.943	221.86
687.133	258.73
687.323	168.62
687.513	264.87
687.702	262.82
687.892	260.77
688.082	332.45
688.272	240.29
688.461	236.2
688.651	383.65
688.841	254.63
689.03	215.72
689.22	240.29
689.41	295.59
689.599	260.77
689.789	232.1
689.979	215.72
690.168	199.34
690.358	199.34
690.547	314.02
690.737	248.49
690.926	344.74
691.116	271.01
691.305	260.77
691.495	309.93
691.684	205.48
691.874	221.86
692.063	225.96
692.252	397.99
692.442	324.26
692.631	232.1
692.82	275.11
693.01	287.4
693.199	258.73
693.388	301.73
693.578	191.14
693.767	281.25
693.956	228.01
694.146	271.01
694.335	207.53
694.524	191.14
694.713	195.24
694.902	211.62
695.092	150.18
695.281	293.54
695.47	256.68
695.659	168.62
695.848	164.52
696.037	150.18
696.226	158.38
696.415	291.49
696.604	250.53
696.793	291.49
696.982	230.06
697.171	385.7
697.36	205.48
697.549	228.01
697.738	115.37
697.927	195.24
698.116	203.43
698.305	285.35
698.494	217.77
698.683	195.24
698.872	328.36
699.061	178.86
699.25	156.33
699.438	252.58
699.627	178.86
699.816	281.25
700.005	162.47
700.193	160.42
700.382	258.73
700.571	223.91
700.76	178.86
700.948	279.21
701.137	316.07
701.326	289.45
701.514	172.71
701.703	285.35
701.892	271.01
702.08	410.28
702.269	256.68
702.457	131.75
702.646	246.44
702.834	352.93
703.023	281.25
703.212	350.89
703.4	172.71
703.589	170.66
703.777	248.49
703.965	166.57
704.154	137.9
704.342	205.48
704.531	170.66
704.719	217.77
704.907	332.45
705.096	148.14
705.284	219.82
705.472	236.2
705.661	238.25
705.849	199.34
706.037	285.35
706.226	297.64
706.414	238.25
706.602	119.46
706.79	203.43
706.979	117.42
707.167	158.38
707.355	131.75
707.543	268.97
707.731	254.63
707.919	199.34
708.107	211.62
708.296	215.72
708.484	279.21
708.672	248.49
708.86	170.66
709.048	297.64
709.236	133.8
709.424	305.83
709.612	330.41
709.8	141.99
709.988	185
710.176	305.83
710.364	311.97
710.551	230.06
710.739	256.68
710.927	230.06
711.115	209.58
711.303	293.54
711.491	305.83
711.679	135.85
711.866	287.4
712.054	246.44
712.242	266.92
712.43	309.93
712.617	176.81
712.805	217.77
712.993	211.62
713.181	141.99
713.368	307.88
713.556	213.67
713.744	195.24
713.931	443.04
714.119	238.25
714.306	250.53
714.494	164.52
714.682	248.49
714.869	180.9
715.057	242.34
715.244	98.99
715.432	170.66
715.619	123.56
715.807	230.06
715.994	189.1
716.182	273.06
716.369	281.25
716.556	311.97
716.744	170.66
716.931	133.8
717.119	228.01
717.306	178.86
717.493	297.64
717.681	170.66
717.868	219.82
718.055	279.21
718.242	322.21
718.43	281.25
718.617	271.01
718.804	221.86
718.991	346.79
719.179	219.82
719.366	260.77
719.553	260.77
719.74	322.21
719.927	244.39
720.114	248.49
720.301	201.38
720.488	182.95
720.676	191.14
720.863	303.78
721.05	469.67
721.237	342.69
721.424	299.69
721.611	187.05
721.798	207.53
721.985	166.57
722.172	207.53
722.358	260.77
722.545	328.36
722.732	228.01
722.919	277.16
723.106	293.54
723.293	232.1
723.48	352.93
723.667	273.06
723.853	236.2
724.04	293.54
724.227	430.76
724.414	152.23
724.6	400.04
724.787	336.55
724.974	463.52
725.161	293.54
725.347	232.1
725.534	330.41
725.72	357.03
725.907	289.45
726.094	268.97
726.28	256.68
726.467	260.77
726.653	266.92
726.84	371.37
727.027	416.42
727.213	307.88
727.4	320.17
727.586	303.78
727.773	230.06
727.959	295.59
728.145	230.06
728.332	223.91
728.518	209.58
728.705	297.64
728.891	330.41
729.077	277.16
729.264	246.44
729.45	293.54
729.636	314.02
729.823	344.74
730.009	309.93
730.195	354.98
730.382	354.98
730.568	299.69
730.754	332.45
730.94	266.92
731.126	328.36
731.313	383.65
731.499	346.79
731.685	297.64
731.871	404.13
732.057	285.35
732.243	256.68
732.429	305.83
732.615	342.69
732.801	305.83
732.987	338.6
733.173	250.53
733.359	305.83
733.545	307.88
733.731	287.4
733.917	379.56
734.103	397.99
734.289	273.06
734.475	377.51
734.661	469.67
734.847	420.52
735.033	322.21
735.219	309.93
735.404	338.6
735.59	318.12
735.776	303.78
735.962	400.04
736.148	334.5
736.333	404.13
736.519	277.16
736.705	264.87
736.89	314.02
737.076	348.84
737.262	213.67
737.447	303.78
737.633	256.68
737.819	453.28
738.004	338.6
738.19	330.41
738.375	402.08
738.561	369.32
738.747	258.73
738.932	307.88
739.118	350.89
739.303	467.62
739.489	363.17
739.674	240.29
739.859	223.91
740.045	350.89
740.23	277.16
740.416	203.43
740.601	332.45
740.786	328.36
740.972	275.11
741.157	336.55
741.342	281.25
741.528	328.36
741.713	328.36
741.898	256.68
742.084	346.79
742.269	309.93
742.454	404.13
742.639	293.54
742.824	365.22
743.01	451.24
743.195	465.57
743.38	250.53
743.565	279.21
743.75	277.16
743.935	316.07
744.12	377.51
744.305	336.55
744.49	277.16
744.675	219.82
744.86	275.11
745.045	316.07
745.23	299.69
745.415	297.64
745.6	363.17
745.785	195.24
745.97	475.81
746.155	389.8
746.34	305.83
746.525	266.92
746.71	365.22
746.895	236.2
747.079	215.72
747.264	264.87
747.449	402.08
747.634	395.94
747.819	285.35
748.003	254.63
748.188	232.1
748.373	291.49
748.557	328.36
748.742	252.58
748.927	260.77
749.111	322.21
749.296	264.87
749.481	309.93
749.665	346.79
749.85	174.76
750.034	248.49
750.219	307.88
750.404	193.19
750.588	332.45
750.773	172.71
750.957	240.29
751.141	287.4
751.326	359.08
751.51	197.29
751.695	328.36
751.879	232.1
752.064	359.08
752.248	185
752.432	350.89
752.617	381.6
752.801	320.17
752.985	281.25
753.17	303.78
753.354	217.77
753.538	219.82
753.722	187.05
753.907	281.25
754.091	228.01
754.275	264.87
754.459	139.94
754.643	121.51
754.828	268.97
755.012	244.39
755.196	193.19
755.38	342.69
755.564	191.14
755.748	283.3
755.932	271.01
756.116	281.25
756.3	240.29
756.484	158.38
756.668	324.26
756.852	141.99
757.036	271.01
757.22	223.91
757.404	221.86
757.588	125.61
757.772	236.2
757.956	238.25
758.14	359.08
758.323	156.33
758.507	314.02
758.691	201.38
758.875	238.25
759.059	281.25
759.242	158.38
759.426	232.1
759.61	205.48
759.794	195.24
759.977	271.01
760.161	248.49
760.345	279.21
760.528	178.86
760.712	242.34
760.895	281.25
761.079	172.71
761.263	158.38
761.446	96.94
761.63	176.81
761.813	187.05
761.997	117.42
762.18	203.43
762.364	164.52
762.547	43.69
762.731	107.18
762.914	66.22
763.098	55.98
763.281	219.82
763.464	172.71
763.648	215.72
763.831	139.94
764.015	158.38
764.198	182.95
764.381	187.05
764.564	131.75
764.748	156.33
764.931	150.18
765.114	211.62
765.297	168.62
765.481	76.46
765.664	111.27
765.847	131.75
766.03	242.34
766.213	76.46
766.397	193.19
766.58	121.51
766.763	178.86
766.946	90.79
767.129	141.99
767.312	53.93
767.495	98.99
767.678	51.88
767.861	90.79
768.044	150.18
768.227	123.56
768.41	115.37
768.593	178.86
768.776	203.43
768.959	117.42
769.142	207.53
769.324	166.57
769.507	96.94
769.69	55.98
769.873	125.61
770.056	281.25
770.239	119.46
770.421	191.14
770.604	133.8
770.787	139.94
770.97	182.95
771.152	101.03
771.335	203.43
771.518	144.04
771.7	158.38
771.883	301.73
772.066	123.56
772.248	86.7
772.431	256.68
772.613	148.14
772.796	125.61
772.978	90.79
773.161	223.91
773.343	139.94
773.526	80.55
773.708	74.41
773.891	19.11
774.073	92.84
774.256	164.52
774.438	256.68
774.621	68.27
774.803	223.91
774.985	68.27
775.168	197.29
775.35	144.04
775.532	121.51
775.715	68.27
775.897	172.71
776.079	133.8
776.261	92.84
776.444	125.61
776.626	47.79
776.808	72.36
776.99	60.07
777.173	154.28
777.355	39.59
777.537	127.66
777.719	117.42
777.901	64.17
778.083	17.07
778.265	29.35
778.447	131.75
778.629	74.41
778.811	25.26
778.993	101.03
779.175	109.22
779.357	19.11
779.539	64.17
779.721	72.36
779.903	166.57
780.085	107.18
780.267	158.38
780.449	55.98
780.631	154.28
780.812	223.91
780.994	113.32
781.176	35.5
781.358	35.5
781.54	80.55
781.721	51.88
781.903	201.38
782.085	74.41
782.267	84.65
782.448	-15.7
782.63	64.17
782.812	141.99
782.993	45.74
783.175	109.22
783.357	101.03
783.538	80.55
783.72	47.79
783.901	31.4
784.083	84.65
784.264	98.99
784.446	2.73
784.627	-44.37
784.809	80.55
784.99	-19.8
785.172	137.9
785.353	37.55
785.535	141.99
785.716	68.27
785.897	31.4
786.079	55.98
786.26	125.61
786.441	96.94
786.623	-23.89
786.804	60.07
786.985	78.51
787.167	117.42
787.348	101.03
787.529	68.27
787.71	185
787.891	117.42
788.073	-15.7
788.254	51.88
788.435	154.28
788.616	43.69
788.797	66.22
788.978	27.31
789.159	55.98
789.34	39.59
789.522	86.7
789.703	27.31
789.884	121.51
790.065	92.84
790.246	133.8
790.427	-5.46
790.607	125.61
790.788	154.28
790.969	10.92
791.15	92.84
791.331	58.03
791.512	29.35
791.693	31.4
791.874	37.55
792.054	238.25
792.235	98.99
792.416	-54.61
792.597	-1.37
792.778	109.22
792.958	113.32
793.139	80.55
793.32	27.31
793.5	27.31
793.681	23.21
793.862	72.36
794.042	84.65
794.223	6.83
794.404	109.22
794.584	-32.08
794.765	98.99
794.945	64.17
795.126	141.99
795.306	133.8
795.487	10.92
795.667	-60.76
795.848	127.66
796.028	94.89
796.209	39.59
796.389	76.46
796.57	-13.65
796.75	-3.41
796.93	41.64
797.111	43.69
797.291	53.93
797.471	80.55
797.652	76.46
797.832	-32.08
798.012	113.32
798.192	60.07
798.373	17.07
798.553	-25.94
798.733	80.55
798.913	37.55
799.093	29.35
799.274	-25.94
799.454	103.08
799.634	43.69
799.814	53.93
799.994	82.6
800.174	-5.46
800.354	-11.61
800.534	8.87
800.714	78.51
800.894	-7.51
801.074	-44.37
801.254	-5.46
801.434	156.33
801.614	-32.08
801.794	98.99
801.974	1690.26
802.154	37.55
802.334	51.88
802.514	-17.75
802.693	66.22
802.873	-5.46
803.053	168.62
803.233	55.98
803.413	107.18
803.592	-66.9
803.772	10.92
803.952	58.03
804.131	-64.85
804.311	107.18
804.491	154.28
804.67	23.21
804.85	-13.65
805.03	121.51
805.209	90.79
805.389	8.87
805.568	-17.75
805.748	-62.8
805.928	39.59
806.107	119.46
806.287	70.31
806.466	37.55
806.646	35.5
806.825	-17.75
807.004	10.92
807.184	29.35
807.363	39.59
807.543	64.17
807.722	-30.04
807.901	72.36
808.081	35.5
808.26	-77.14
808.439	27.31
808.619	23.21
808.798	25.26
808.977	80.55
809.156	125.61
809.336	-38.23
809.515	60.07
809.694	-25.94
809.873	31.4
810.052	92.84
810.231	6.83
810.411	60.07
810.59	80.55
810.769	-19.8
810.948	45.74
811.127	-11.61
811.306	82.6
811.485	51.88
811.664	162.47
811.843	39.59
812.022	96.94
812.201	-23.89
812.38	-62.8
812.559	-13.65
812.737	72.36
812.916	-54.61
813.095	27.31
813.274	27.31
813.453	-25.94
813.632	60.07
813.811	131.75
813.989	-73.04
814.168	103.08
814.347	-25.94
814.526	0.68
814.704	103.08
814.883	90.79
815.062	-64.85
815.24	123.56
815.419	-36.18
815.598	41.64
815.776	-54.61
815.955	51.88
816.133	2.73
816.312	-7.51
816.49	10.92
816.669	68.27
816.847	2.73
817.026	43.69
817.204	41.64
817.383	88.75
817.561	-50.52
817.74	88.75
817.918	43.69
818.097	0.68
818.275	19.11
818.453	25.26
818.632	37.55
818.81	10.92
818.988	80.55
819.167	-54.61
819.345	-1.37
819.523	-34.13
819.701	74.41
819.879	-56.66
820.058	15.02
820.236	-25.94
820.414	-5.46
820.592	43.69
820.77	47.79
820.948	70.31
821.127	-46.42
821.305	109.22
821.483	-3.41
821.661	78.51
821.839	2.73
822.017	-68.95
822.195	-38.23
822.373	47.79
822.551	43.69
822.729	-13.65
822.907	-17.75
823.085	92.84
823.262	6.83
823.44	-34.13
823.618	-17.75
823.796	68.27
823.974	15.02
824.152	-56.66
824.329	6.83
824.507	51.88
824.685	43.69
824.863	10.92
825.04	35.5
825.218	86.7
825.396	29.35
825.574	41.64
825.751	47.79
825.929	62.12
826.107	21.16
826.284	2.73
826.462	43.69
826.639	15.02
826.817	-48.47
826.994	0.68
827.172	-27.99
827.349	164.52
827.527	27.31
827.704	27.31
827.882	74.41
828.059	25.26
828.237	-15.7
828.414	113.32
828.591	-103.76
828.769	-32.08
828.946	-48.47
829.124	29.35
829.301	76.46
829.478	2.73
829.655	33.45
829.833	64.17
830.01	-128.34
830.187	105.13
830.364	84.65
830.542	39.59
830.719	49.83
830.896	84.65
831.073	84.65
831.25	62.12
831.427	45.74
831.604	15.02
831.782	33.45
831.959	119.46
832.136	10.92
832.313	41.64
832.49	19.11
832.667	29.35
832.844	23.21
833.021	70.31
833.198	8.87
833.374	-30.04
833.551	70.31
833.728	-1.37
833.905	133.8
834.082	-44.37
834.259	66.22
834.436	78.51
834.612	15.02
834.789	96.94
834.966	31.4
835.143	17.07
835.319	-64.85
835.496	15.02
835.673	-46.42
835.85	49.83
836.026	41.64
836.203	-17.75
836.38	-15.7
836.556	-15.7
836.733	-3.41
836.909	133.8
837.086	-46.42
837.262	-66.9
837.439	-44.37
837.616	-1.37
837.792	49.83
837.968	-23.89
838.145	-40.28
838.321	-34.13
838.498	29.35
838.674	64.17
838.851	92.84
839.027	-30.04
839.203	-13.65
839.38	21.16
839.556	25.26
839.732	109.22
839.909	10.92
840.085	150.18
840.261	-111.96
840.437	101.03
840.614	-17.75
840.79	107.18
840.966	35.5
841.142	-38.23
841.318	-23.89
841.494	68.27
841.671	70.31
841.847	-32.08
842.023	-32.08
842.199	-17.75
842.375	51.88
842.551	-107.86
842.727	-124.24
842.903	207.53
843.079	-48.47
843.255	111.27
843.431	-13.65
843.607	10.92
843.783	-103.76
843.959	0.68
844.134	-54.61
844.31	19.11
844.486	-66.9
844.662	-64.85
844.838	-34.13
845.013	66.22
845.189	41.64
845.365	19.11
845.541	19.11
845.716	68.27
845.892	68.27
846.068	10.92
846.244	-64.85
846.419	-58.71
846.595	-44.37
846.77	-58.71
846.946	6.83
847.122	31.4
847.297	21.16
847.473	86.7
847.648	-75.09
847.824	49.83
847.999	-136.53
848.175	0.68
848.35	-38.23
848.526	33.45
848.701	23.21
848.876	53.93
849.052	21.16
849.227	-1.37
849.403	-19.8
849.578	-46.42
849.753	-32.08
849.929	109.22
850.104	-122.2
850.279	-15.7
850.454	17.07
850.63	84.65
850.805	33.45
850.98	-25.94
851.155	27.31
851.33	49.83
851.505	-95.57
851.681	74.41
851.856	47.79
852.031	-7.51
852.206	74.41
852.381	-19.8
852.556	25.26
852.731	-36.18
852.906	-1.37
853.081	-52.56
853.256	144.04
853.431	90.79
853.606	-64.85
853.781	21.16
853.956	-140.63
854.131	35.5
854.305	-21.85
854.48	-56.66
854.655	-30.04
854.83	-54.61
855.005	-5.46
855.18	-46.42
855.354	25.26
855.529	68.27
855.704	51.88
855.879	25.26
856.053	-30.04
856.228	60.07
856.403	-62.8
856.577	82.6
856.752	-66.9
856.926	-9.56
857.101	19.11
857.276	-83.28
857.45	17.07
857.625	72.36
857.799	49.83
857.974	-46.42
858.148	-48.47
858.323	37.55
858.497	10.92
858.672	41.64
858.846	27.31
859.02	158.38
859.195	-62.8
859.369	35.5
859.543	10.92
859.718	-13.65
859.892	-34.13
860.066	72.36
860.241	-46.42
860.415	-54.61
860.589	-54.61
860.763	-46.42
860.938	-36.18
861.112	6.83
861.286	-32.08
861.46	98.99
861.634	21.16
861.808	76.46
861.982	-21.85
862.157	-40.28
862.331	51.88
862.505	-89.43
862.679	-1.37
862.853	43.69
863.027	-66.9
863.201	96.94
863.375	-21.85
863.549	41.64
863.722	-30.04
863.896	88.75
864.07	-38.23
864.244	41.64
864.418	43.69
864.592	-44.37
864.766	-9.56
864.939	15.02
865.113	-64.85
865.287	109.22
865.461	0.68
865.634	64.17
865.808	-30.04
865.982	8.87
866.156	-13.65
866.329	-62.8
866.503	74.41
866.676	23.21
866.85	6.83
867.024	-42.32
867.197	4.78
867.371	103.08
867.544	74.41
867.718	-66.9
867.891	49.83
868.065	-36.18
868.238	-15.7
868.412	64.17
868.585	12.97
868.759	-19.8
868.932	-46.42
869.105	-21.85
869.279	-9.56
869.452	-103.76
869.625	10.92
869.799	-54.61
869.972	-111.96
870.145	29.35
870.319	92.84
870.492	45.74
870.665	-9.56
870.838	-66.9
871.011	-97.62
871.185	-1.37
871.358	-13.65
871.531	15.02
871.704	-71
871.877	33.45
872.05	-85.33
872.223	-7.51
872.396	10.92
872.569	101.03
872.742	-56.66
872.915	53.93
873.088	-81.24
873.261	-32.08
873.434	80.55
873.607	35.5
873.78	88.75
873.953	-79.19
874.126	45.74
874.299	103.08
874.471	-56.66
874.644	-25.94
874.817	41.64
874.99	88.75
875.163	-3.41
875.335	37.55
875.508	29.35
875.681	105.13
875.853	-40.28
876.026	10.92
876.199	82.6
876.371	-25.94
876.544	55.98
876.717	23.21
876.889	-38.23
877.062	-15.7
877.234	39.59
877.407	8.87
877.579	39.59
877.752	8.87
877.924	88.75
878.097	17.07
878.269	51.88
878.442	37.55
878.614	17.07
878.786	88.75
878.959	12.97
879.131	-30.04
879.303	-54.61
879.476	-114
879.648	119.46
879.82	-54.61
879.993	-3.41
880.165	37.55
880.337	-68.95
880.509	8.87
880.681	-58.71
880.854	-89.43
881.026	-34.13
881.198	144.04
881.37	19.11
881.542	-25.94
881.714	0.68
881.886	-38.23
882.058	17.07
882.23	-1.37
882.402	-93.52
882.574	96.94
882.746	109.22
882.918	103.08
883.09	55.98
883.262	64.17
883.434	8.87
883.606	-105.81
883.778	-13.65
883.95	96.94
884.122	-42.32
884.293	-5.46
884.465	-38.23
884.637	60.07
884.809	-13.65
884.98	-1.37
885.152	10.92
885.324	-3.41
885.496	-54.61
885.667	-5.46
885.839	-7.51
886.011	84.65
886.182	66.22
886.354	86.7
886.525	-40.28
886.697	37.55
886.869	-32.08
887.04	25.26
887.212	96.94
887.383	88.75
887.555	80.55
887.726	-32.08
887.897	-25.94
888.069	-62.8
888.24	78.51
888.412	35.5
888.583	8.87
888.754	25.26
888.926	-105.81
889.097	-46.42
889.268	-58.71
889.44	-7.51
889.611	19.11
889.782	-7.51
889.953	-46.42
890.125	129.7
890.296	-71
890.467	-23.89
890.638	-7.51
890.809	35.5
890.98	31.4
891.151	68.27
891.323	113.32
891.494	2.73
891.665	-5.46
891.836	-13.65
892.007	25.26
892.178	43.69
892.349	-11.61
892.52	-17.75
892.691	-19.8
892.862	-32.08
893.032	-34.13
893.203	47.79
893.374	-11.61
893.545	137.9
893.716	-91.48
893.887	51.88
894.057	-56.66
894.228	49.83
894.399	-66.9
894.57	-5.46
894.74	2.73
894.911	55.98
895.082	-11.61
895.253	-38.23
895.423	-40.28
895.594	49.83
895.764	-3.41
895.935	-46.42
896.106	64.17
896.276	-21.85
896.447	66.22
896.617	-23.89
896.788	-40.28
896.958	-11.61
897.129	-44.37
897.299	-56.66
897.47	154.28
897.64	35.5
897.81	-62.8
897.981	19.11
898.151	-15.7
898.322	27.31
898.492	15.02
898.662	-89.43
898.832	-66.9
899.003	-21.85
899.173	58.03
899.343	-109.91
899.513	-44.37
