Data from USB4F104151__1__10-21-54-756.txt Node

Date: Wed Feb 26 10:21:54 EST 2025
User: louis
Spectrometer: USB4F10415
Trigger mode: 4
Integration Time (sec): 1.000000E-1
Scans to average: 1
Electric dark correction enabled: true
Nonlinearity correction enabled: false
Boxcar width: 0
XAxis mode: Wavelengths
Number of Pixels in Spectrum: 3648
>>>>>Begin Spectral Data<<<<<
178.204	-448.16
178.424	-448.16
178.644	-448.16
178.864	-358.05
179.084	-403.11
179.304	-42.67
179.524	-5.8
179.744	45.4
179.964	41.3
180.184	33.11
180.404	-3.75
180.624	-30.38
180.844	-7.85
181.064	-38.57
181.283	55.64
181.503	-48.81
181.723	2.39
181.943	-102.06
182.163	158.03
182.383	-26.28
182.602	72.02
182.822	135.51
183.042	22.87
183.262	-63.15
183.482	6.49
183.701	102.74
183.921	55.64
184.141	-67.24
184.361	119.12
184.58	10.58
184.8	74.07
185.02	-3.75
185.239	69.97
185.459	112.98
185.679	168.27
185.898	-95.91
186.118	33.11
186.338	51.54
186.557	41.3
186.777	-28.33
186.997	2.39
187.216	14.68
187.436	170.32
187.655	8.53
187.875	45.4
188.095	123.22
188.314	133.46
188.534	72.02
188.753	4.44
188.973	100.69
189.192	86.36
189.412	24.92
189.631	49.49
189.851	127.32
190.07	135.51
190.29	26.96
190.509	37.2
190.729	98.64
190.948	112.98
191.168	334.16
191.387	59.73
191.607	22.87
191.826	86.36
192.045	49.49
192.265	8.53
192.484	26.96
192.704	94.55
192.923	-32.43
193.142	178.51
193.362	135.51
193.581	43.35
193.8	98.64
194.02	47.44
194.239	16.73
194.458	125.27
194.678	20.82
194.897	16.73
195.116	22.87
195.335	100.69
195.555	76.12
195.774	-3.75
195.993	65.88
196.212	-42.67
196.432	12.63
196.651	33.11
196.87	22.87
197.089	198.99
197.308	-16.04
197.528	117.08
197.747	20.82
197.966	112.98
198.185	162.13
198.404	-3.75
198.623	102.74
198.842	76.12
199.062	186.71
199.281	96.6
199.5	67.92
199.719	131.41
199.938	12.63
200.157	4.44
200.376	139.6
200.595	69.97
200.814	78.16
201.033	6.49
201.252	190.8
201.471	72.02
201.69	-11.95
201.909	65.88
202.128	55.64
202.347	110.93
202.566	90.45
202.785	-73.39
203.004	53.59
203.223	317.78
203.442	55.64
203.661	-67.24
203.879	61.78
204.098	59.73
204.317	-24.23
204.536	76.12
204.755	100.69
204.974	190.8
205.193	63.83
205.411	158.03
205.63	92.5
205.849	115.03
206.068	69.97
206.287	-44.71
206.505	67.92
206.724	31.06
206.943	22.87
207.162	8.53
207.381	76.12
207.599	-9.9
207.818	80.21
208.037	-32.43
208.255	72.02
208.474	98.64
208.693	72.02
208.911	55.64
209.13	69.97
209.349	172.37
209.567	102.74
209.786	57.68
210.005	88.4
210.223	100.69
210.442	-48.81
210.661	-16.04
210.879	65.88
211.098	31.06
211.316	8.53
211.535	92.5
211.753	-11.95
211.972	88.4
212.191	59.73
212.409	-54.95
212.628	72.02
212.846	-5.8
213.065	84.31
213.283	125.27
213.502	53.59
213.72	55.64
213.938	74.07
214.157	-38.57
214.375	78.16
214.594	26.96
214.812	90.45
215.031	8.53
215.249	-13.99
215.467	29.01
215.686	45.4
215.904	125.27
216.122	59.73
216.341	106.84
216.559	78.16
216.778	82.26
216.996	196.95
217.214	18.77
217.432	47.44
217.651	-18.09
217.869	24.92
218.087	12.63
218.306	2.39
218.524	80.21
218.742	-18.09
218.96	65.88
219.179	26.96
219.397	-30.38
219.615	149.84
219.833	63.83
220.051	-30.38
220.27	63.83
220.488	96.6
220.706	153.94
220.924	12.63
221.142	59.73
221.36	35.16
221.578	106.84
221.796	4.44
222.015	-22.19
222.233	33.11
222.451	246.1
222.669	-3.75
222.887	61.78
223.105	-9.9
223.323	31.06
223.541	-67.24
223.759	6.49
223.977	123.22
224.195	164.18
224.413	129.36
224.631	26.96
224.849	-3.75
225.067	207.19
225.285	-26.28
225.503	86.36
225.721	-75.43
225.939	59.73
226.157	110.93
226.375	178.51
226.592	6.49
226.81	63.83
227.028	88.4
227.246	121.17
227.464	12.63
227.682	67.92
227.9	59.73
228.117	104.79
228.335	125.27
228.553	119.12
228.771	82.26
228.989	41.3
229.206	31.06
229.424	-24.23
229.642	-69.29
229.86	10.58
230.077	174.42
230.295	127.32
230.513	65.88
230.731	55.64
230.948	172.37
231.166	147.8
231.384	-1.71
231.601	-46.76
231.819	149.84
232.037	4.44
232.254	37.2
232.472	29.01
232.689	26.96
232.907	151.89
233.125	61.78
233.342	-24.23
233.56	29.01
233.777	4.44
233.995	-20.14
234.213	78.16
234.43	37.2
234.648	74.07
234.865	24.92
235.083	10.58
235.3	76.12
235.518	153.94
235.735	143.7
235.953	72.02
236.17	22.87
236.388	135.51
236.605	-20.14
236.822	45.4
237.04	145.75
237.257	-7.85
237.475	16.73
237.692	24.92
237.909	88.4
238.127	55.64
238.344	104.79
238.562	26.96
238.779	-57
238.996	-24.23
239.214	24.92
239.431	129.36
239.648	125.27
239.865	43.35
240.083	137.56
240.3	-48.81
240.517	10.58
240.735	-26.28
240.952	129.36
241.169	78.16
241.386	55.64
241.603	-42.67
241.821	4.44
242.038	67.92
242.255	80.21
242.472	-38.57
242.689	53.59
242.907	115.03
243.124	43.35
243.341	0.34
243.558	31.06
243.775	-38.57
243.992	-79.53
244.209	31.06
244.426	115.03
244.643	35.16
244.86	37.2
245.078	143.7
245.295	26.96
245.512	-3.75
245.729	57.68
245.946	67.92
246.163	143.7
246.38	-22.19
246.597	55.64
246.814	16.73
247.031	29.01
247.248	-38.57
247.464	102.74
247.681	16.73
247.898	39.25
248.115	80.21
248.332	45.4
248.549	119.12
248.766	149.84
248.983	16.73
249.2	147.8
249.417	125.27
249.633	-28.33
249.85	102.74
250.067	106.84
250.284	53.59
250.501	33.11
250.717	45.4
250.934	29.01
251.151	104.79
251.368	35.16
251.585	6.49
251.801	35.16
252.018	-24.23
252.235	137.56
252.451	-24.23
252.668	78.16
252.885	121.17
253.102	45.4
253.318	-11.95
253.535	45.4
253.752	47.44
253.968	24.92
254.185	-44.71
254.401	67.92
254.618	57.68
254.835	37.2
255.051	196.95
255.268	88.4
255.484	82.26
255.701	10.58
255.917	57.68
256.134	18.77
256.351	47.44
256.567	10.58
256.784	65.88
257	-48.81
257.217	37.2
257.433	72.02
257.65	121.17
257.866	78.16
258.082	-112.3
258.299	18.77
258.515	47.44
258.732	-11.95
258.948	-20.14
259.165	-7.85
259.381	-38.57
259.597	39.25
259.814	76.12
260.03	47.44
260.246	-42.67
260.463	29.01
260.679	155.99
260.895	12.63
261.112	43.35
261.328	-18.09
261.544	29.01
261.761	201.04
261.977	10.58
262.193	8.53
262.409	94.55
262.626	-13.99
262.842	63.83
263.058	10.58
263.274	63.83
263.49	43.35
263.707	108.88
263.923	123.22
264.139	4.44
264.355	51.54
264.571	63.83
264.787	61.78
265.004	80.21
265.22	37.2
265.436	-42.67
265.652	72.02
265.868	47.44
266.084	-44.71
266.3	80.21
266.516	-44.71
266.732	26.96
266.948	20.82
267.164	-24.23
267.38	141.65
267.596	74.07
267.812	86.36
268.028	65.88
268.244	22.87
268.46	53.59
268.676	8.53
268.892	72.02
269.108	57.68
269.324	-1.71
269.54	-46.76
269.756	96.6
269.972	-26.28
270.188	31.06
270.403	45.4
270.619	55.64
270.835	94.55
271.051	22.87
271.267	26.96
271.483	51.54
271.698	92.5
271.914	45.4
272.13	12.63
272.346	26.96
272.562	90.45
272.777	106.84
272.993	51.54
273.209	-54.95
273.425	92.5
273.64	-54.95
273.856	100.69
274.072	10.58
274.287	6.49
274.503	153.94
274.719	84.31
274.934	45.4
275.15	-83.63
275.366	-52.91
275.581	-46.76
275.797	92.5
276.012	-48.81
276.228	8.53
276.444	39.25
276.659	127.32
276.875	35.16
277.09	72.02
277.306	-1.71
277.521	39.25
277.737	39.25
277.952	14.68
278.168	4.44
278.383	63.83
278.599	90.45
278.814	39.25
279.03	47.44
279.245	192.85
279.461	82.26
279.676	82.26
279.892	-7.85
280.107	-50.86
280.322	8.53
280.538	63.83
280.753	51.54
280.969	43.35
281.184	37.2
281.399	180.56
281.615	67.92
281.83	94.55
282.045	-50.86
282.26	20.82
282.476	76.12
282.691	88.4
282.906	76.12
283.122	53.59
283.337	-24.23
283.552	86.36
283.767	-13.99
283.983	127.32
284.198	35.16
284.413	55.64
284.628	2.39
284.843	33.11
285.058	102.74
285.274	4.44
285.489	35.16
285.704	100.69
285.919	-13.99
286.134	-38.57
286.349	115.03
286.564	-11.95
286.779	84.31
286.995	-61.1
287.21	-132.78
287.425	33.11
287.64	8.53
287.855	37.2
288.07	-89.77
288.285	35.16
288.5	149.84
288.715	84.31
288.93	80.21
289.145	33.11
289.36	96.6
289.575	-7.85
289.79	123.22
290.004	8.53
290.219	110.93
290.434	-32.43
290.649	-30.38
290.864	31.06
291.079	18.77
291.294	51.54
291.509	96.6
291.724	29.01
291.938	-16.04
292.153	41.3
292.368	31.06
292.583	10.58
292.798	108.88
293.012	-7.85
293.227	86.36
293.442	16.73
293.657	104.79
293.871	162.13
294.086	53.59
294.301	254.29
294.516	129.36
294.73	90.45
294.945	-1.71
295.16	33.11
295.374	137.56
295.589	131.41
295.804	35.16
296.018	102.74
296.233	65.88
296.447	74.07
296.662	-40.62
296.877	53.59
297.091	69.97
297.306	55.64
297.52	-7.85
297.735	143.7
297.949	63.83
298.164	24.92
298.378	6.49
298.593	-42.67
298.807	33.11
299.022	-7.85
299.236	145.75
299.451	-24.23
299.665	-13.99
299.88	86.36
300.094	90.45
300.309	-42.67
300.523	8.53
300.737	-30.38
300.952	139.6
301.166	94.55
301.381	-46.76
301.595	2.39
301.809	65.88
302.024	4.44
302.238	31.06
302.452	162.13
302.667	47.44
302.881	201.04
303.095	67.92
303.309	94.55
303.524	-61.1
303.738	14.68
303.952	18.77
304.166	59.73
304.381	-104.11
304.595	186.71
304.809	-9.9
305.023	86.36
305.237	2.39
305.452	67.92
305.666	72.02
305.88	59.73
306.094	115.03
306.308	106.84
306.522	110.93
306.736	65.88
306.95	194.9
307.164	4.44
307.379	-3.75
307.593	149.84
307.807	131.41
308.021	24.92
308.235	110.93
308.449	-59.05
308.663	104.79
308.877	225.62
309.091	104.79
309.305	174.42
309.519	-106.15
309.733	186.71
309.947	-59.05
310.161	76.12
310.374	137.56
310.588	119.12
310.802	22.87
311.016	-32.43
311.23	65.88
311.444	-54.95
311.658	86.36
311.872	43.35
312.085	160.08
312.299	90.45
312.513	94.55
312.727	14.68
312.941	-87.72
313.154	72.02
313.368	100.69
313.582	119.12
313.796	76.12
314.009	43.35
314.223	182.61
314.437	53.59
314.651	119.12
314.864	61.78
315.078	16.73
315.292	-20.14
315.505	29.01
315.719	96.6
315.933	125.27
316.146	-3.75
316.36	59.73
316.573	121.17
316.787	86.36
317.001	67.92
317.214	-13.99
317.428	76.12
317.641	-63.15
317.855	43.35
318.068	0.34
318.282	29.01
318.495	123.22
318.709	69.97
318.922	86.36
319.136	61.78
319.349	98.64
319.563	69.97
319.776	78.16
319.99	-108.2
320.203	215.38
320.417	35.16
320.63	137.56
320.843	168.27
321.057	20.82
321.27	39.25
321.483	33.11
321.697	151.89
321.91	76.12
322.124	53.59
322.337	133.46
322.55	45.4
322.763	-20.14
322.977	74.07
323.19	-7.85
323.403	43.35
323.617	-28.33
323.83	39.25
324.043	49.49
324.256	63.83
324.469	-57
324.683	115.03
324.896	72.02
325.109	59.73
325.322	-16.04
325.535	67.92
325.748	149.84
325.962	-3.75
326.175	63.83
326.388	33.11
326.601	168.27
326.814	61.78
327.027	55.64
327.24	141.65
327.453	-85.67
327.666	98.64
327.879	174.42
328.092	41.3
328.305	65.88
328.518	16.73
328.731	37.2
328.944	0.34
329.157	65.88
329.37	-46.76
329.583	196.95
329.796	155.99
330.009	-40.62
330.222	88.4
330.435	137.56
330.648	61.78
330.861	84.31
331.073	69.97
331.286	112.98
331.499	14.68
331.712	-67.24
331.925	0.34
332.138	94.55
332.35	90.45
332.563	45.4
332.776	162.13
332.989	39.25
333.202	22.87
333.414	2.39
333.627	-22.19
333.84	-24.23
334.053	90.45
334.265	-77.48
334.478	18.77
334.691	57.68
334.903	33.11
335.116	-42.67
335.329	-59.05
335.541	155.99
335.754	139.6
335.966	61.78
336.179	84.31
336.392	-44.71
336.604	37.2
336.817	127.32
337.029	39.25
337.242	72.02
337.454	35.16
337.667	80.21
337.88	192.85
338.092	49.49
338.305	100.69
338.517	18.77
338.729	90.45
338.942	198.99
339.154	8.53
339.367	18.77
339.579	143.7
339.792	-26.28
340.004	102.74
340.217	61.78
340.429	43.35
340.641	-20.14
340.854	49.49
341.066	20.82
341.278	117.08
341.491	186.71
341.703	47.44
341.915	2.39
342.128	24.92
342.34	78.16
342.552	-1.71
342.764	76.12
342.977	-30.38
343.189	82.26
343.401	82.26
343.613	-83.63
343.826	-13.99
344.038	45.4
344.25	94.55
344.462	-48.81
344.674	-16.04
344.886	59.73
345.099	86.36
345.311	61.78
345.523	2.39
345.735	16.73
345.947	82.26
346.159	78.16
346.371	22.87
346.583	59.73
346.795	98.64
347.007	-26.28
347.219	26.96
347.431	94.55
347.643	131.41
347.855	-30.38
348.067	63.83
348.279	20.82
348.491	43.35
348.703	125.27
348.915	-20.14
349.127	-40.62
349.339	78.16
349.551	39.25
349.763	63.83
349.975	37.2
350.187	108.88
350.399	117.08
350.61	121.17
350.822	12.63
351.034	51.54
351.246	8.53
351.458	49.49
351.669	76.12
351.881	88.4
352.093	78.16
352.305	143.7
352.517	78.16
352.728	119.12
352.94	2.39
353.152	121.17
353.363	-126.63
353.575	84.31
353.787	88.4
353.999	74.07
354.21	176.47
354.422	16.73
354.633	-22.19
354.845	74.07
355.057	41.3
355.268	69.97
355.48	29.01
355.692	41.3
355.903	74.07
356.115	0.34
356.326	-91.82
356.538	82.26
356.749	170.32
356.961	131.41
357.172	80.21
357.384	-34.47
357.595	223.57
357.807	-30.38
358.018	-52.91
358.23	37.2
358.441	153.94
358.653	92.5
358.864	61.78
359.075	-20.14
359.287	69.97
359.498	69.97
359.709	96.6
359.921	53.59
360.132	37.2
360.344	78.16
360.555	-67.24
360.766	90.45
360.977	41.3
361.189	117.08
361.4	61.78
361.611	153.94
361.823	178.51
362.034	26.96
362.245	-102.06
362.456	41.3
362.667	80.21
362.879	18.77
363.09	22.87
363.301	115.03
363.512	98.64
363.723	78.16
363.935	-5.8
364.146	119.12
364.357	49.49
364.568	90.45
364.779	-54.95
364.99	131.41
365.201	-38.57
365.412	6.49
365.623	0.34
365.834	43.35
366.045	35.16
366.256	86.36
366.467	104.79
366.678	61.78
366.889	119.12
367.1	31.06
367.311	207.19
367.522	-52.91
367.733	88.4
367.944	67.92
368.155	10.58
368.366	37.2
368.577	82.26
368.788	147.8
368.999	8.53
369.209	86.36
369.42	231.76
369.631	205.14
369.842	110.93
370.053	57.68
370.264	147.8
370.474	-1.71
370.685	51.54
370.896	26.96
371.107	57.68
371.317	47.44
371.528	8.53
371.739	119.12
371.95	84.31
372.16	90.45
372.371	-34.47
372.582	72.02
372.792	39.25
373.003	53.59
373.214	43.35
373.424	102.74
373.635	-22.19
373.846	141.65
374.056	2.39
374.267	16.73
374.477	127.32
374.688	-40.62
374.898	61.78
375.109	65.88
375.319	104.79
375.53	90.45
375.74	145.75
375.951	-3.75
376.161	100.69
376.372	65.88
376.582	12.63
376.793	49.49
377.003	88.4
377.214	8.53
377.424	65.88
377.635	72.02
377.845	12.63
378.055	149.84
378.266	24.92
378.476	10.58
378.686	49.49
378.897	39.25
379.107	92.5
379.317	76.12
379.528	59.73
379.738	164.18
379.948	-3.75
380.158	72.02
380.369	92.5
380.579	61.78
380.789	31.06
380.999	162.13
381.21	135.51
381.42	182.61
381.63	-7.85
381.84	96.6
382.05	43.35
382.261	125.27
382.471	188.75
382.681	-28.33
382.891	239.95
383.101	88.4
383.311	-1.71
383.521	80.21
383.731	168.27
383.941	151.89
384.151	84.31
384.361	49.49
384.571	45.4
384.781	115.03
384.991	158.03
385.201	198.99
385.411	121.17
385.621	110.93
385.831	37.2
386.041	16.73
386.251	-30.38
386.461	112.98
386.671	4.44
386.881	57.68
387.091	59.73
387.301	104.79
387.511	6.49
387.72	31.06
387.93	141.65
388.14	-69.29
388.35	37.2
388.56	92.5
388.769	98.64
388.979	67.92
389.189	-77.48
389.399	115.03
389.609	14.68
389.818	67.92
390.028	98.64
390.238	182.61
390.447	-44.71
390.657	96.6
390.867	-52.91
391.076	-63.15
391.286	-5.8
391.496	74.07
391.705	41.3
391.915	147.8
392.125	135.51
392.334	29.01
392.544	160.08
392.753	18.77
392.963	-9.9
393.172	31.06
393.382	20.82
393.591	149.84
393.801	12.63
394.01	129.36
394.22	84.31
394.429	18.77
394.639	88.4
394.848	26.96
395.058	88.4
395.267	100.69
395.477	162.13
395.686	84.31
395.895	172.37
396.105	203.09
396.314	47.44
396.524	49.49
396.733	29.01
396.942	162.13
397.152	143.7
397.361	115.03
397.57	22.87
397.78	65.88
397.989	88.4
398.198	209.23
398.407	74.07
398.617	-32.43
398.826	49.49
399.035	33.11
399.244	129.36
399.453	39.25
399.663	84.31
399.872	59.73
400.081	-52.91
400.29	223.57
400.499	51.54
400.708	149.84
400.917	29.01
401.127	10.58
401.336	18.77
401.545	162.13
401.754	82.26
401.963	153.94
402.172	90.45
402.381	-57
402.59	92.5
402.799	39.25
403.008	172.37
403.217	49.49
403.426	147.8
403.635	0.34
403.844	84.31
404.053	90.45
404.262	-34.47
404.471	198.99
404.68	69.97
404.888	16.73
405.097	84.31
405.306	35.16
405.515	160.08
405.724	-9.9
405.933	172.37
406.142	67.92
406.35	186.71
406.559	92.5
406.768	72.02
406.977	125.27
407.185	49.49
407.394	76.12
407.603	33.11
407.812	84.31
408.02	119.12
408.229	67.92
408.438	102.74
408.646	2.39
408.855	-34.47
409.064	4.44
409.272	45.4
409.481	133.46
409.69	-32.43
409.898	14.68
410.107	26.96
410.315	149.84
410.524	-5.8
410.733	90.45
410.941	20.82
411.15	164.18
411.358	102.74
411.567	141.65
411.775	4.44
411.984	35.16
412.192	57.68
412.401	-16.04
412.609	223.57
412.818	131.41
413.026	43.35
413.234	-18.09
413.443	6.49
413.651	-1.71
413.86	31.06
414.068	129.36
414.276	203.09
414.485	82.26
414.693	178.51
414.901	254.29
415.11	76.12
415.318	69.97
415.526	6.49
415.734	82.26
415.943	39.25
416.151	139.6
416.359	10.58
416.567	78.16
416.776	47.44
416.984	115.03
417.192	174.42
417.4	-42.67
417.608	84.31
417.817	-106.15
418.025	172.37
418.233	141.65
418.441	14.68
418.649	14.68
418.857	76.12
419.065	198.99
419.273	78.16
419.481	61.78
419.689	14.68
419.897	-1.71
420.105	55.64
420.313	104.79
420.521	278.87
420.729	180.56
420.937	-28.33
421.145	-83.63
421.353	104.79
421.561	137.56
421.769	98.64
421.977	12.63
422.185	72.02
422.393	82.26
422.601	92.5
422.809	65.88
423.017	80.21
423.224	69.97
423.432	213.33
423.64	72.02
423.848	151.89
424.056	88.4
424.263	123.22
424.471	2.39
424.679	115.03
424.887	-32.43
425.094	135.51
425.302	102.74
425.51	76.12
425.718	186.71
425.925	94.55
426.133	51.54
426.341	244.05
426.548	47.44
426.756	106.84
426.964	121.17
427.171	41.3
427.379	139.6
427.586	102.74
427.794	166.23
428.001	143.7
428.209	49.49
428.417	123.22
428.624	108.88
428.832	100.69
429.039	88.4
429.247	72.02
429.454	155.99
429.662	268.63
429.869	98.64
430.076	96.6
430.284	145.75
430.491	209.23
430.699	143.7
430.906	174.42
431.114	178.51
431.321	98.64
431.528	100.69
431.736	125.27
431.943	145.75
432.15	213.33
432.358	158.03
432.565	278.87
432.772	61.78
432.979	223.57
433.187	123.22
433.394	184.66
433.601	39.25
433.808	276.82
434.016	239.95
434.223	196.95
434.43	235.86
434.637	211.28
434.844	231.76
435.052	168.27
435.259	319.82
435.466	340.3
435.673	256.34
435.88	268.63
436.087	350.54
436.294	405.84
436.501	252.24
436.708	219.47
436.915	244.05
437.122	428.37
437.329	207.19
437.537	350.54
437.743	391.5
437.95	448.85
438.157	358.74
438.364	309.58
438.571	401.74
438.778	385.36
438.985	491.85
439.192	577.87
439.399	303.44
439.606	442.7
439.813	551.24
440.02	584.01
440.227	602.44
440.433	555.34
440.64	487.76
440.847	508.24
441.054	555.34
441.261	635.21
441.467	551.24
441.674	504.14
441.881	698.7
442.088	584.01
442.294	756.04
442.501	667.98
442.708	803.15
442.914	833.86
443.121	817.48
443.328	846.15
443.534	850.25
443.741	846.15
443.948	743.75
444.154	915.78
444.361	1048.9
444.568	1022.28
444.774	983.37
444.981	903.5
445.187	1194.31
445.394	1157.44
445.6	1126.72
445.807	1319.23
446.013	1141.06
446.22	1171.78
446.426	1407.3
446.633	1403.2
446.839	1648.96
447.046	1485.12
447.252	1526.08
447.459	1524.03
447.665	1573.18
447.871	1763.64
448.078	1857.85
448.284	1890.62
448.491	2052.41
448.697	1990.97
448.903	2054.45
449.11	2124.08
449.316	2033.97
449.522	2244.92
449.728	2330.93
449.935	2464.05
450.141	2400.56
450.347	2691.37
450.553	2668.84
450.76	2699.56
450.966	2883.88
451.172	2890.03
451.378	2963.75
451.584	2992.42
451.791	3242.28
451.997	3354.91
452.203	3371.3
452.409	3592.48
452.615	3784.99
452.821	3721.5
453.027	3830.04
453.233	4073.75
453.44	4092.18
453.646	4296.98
453.852	4622.61
454.058	4606.22
454.264	4778.25
454.47	5064.97
454.676	5103.88
454.882	5452.03
455.088	5263.62
455.294	5652.74
455.5	5984.51
455.705	6236.41
455.911	6476.02
456.117	6402.29
456.323	6838.51
456.529	6699.25
456.735	7327.97
456.941	7491.81
457.147	7887.07
457.352	8106.2
457.558	8327.38
457.764	9009.36
457.97	9029.84
458.176	9298.12
458.381	9822.4
458.587	10016.96
458.793	10391.73
458.999	10481.85
459.204	12103.84
459.41	12187.8
459.616	12124.32
459.821	12417.18
460.027	13205.64
460.233	13781.12
460.438	13779.08
460.644	14622.84
460.85	14921.84
461.055	15650.92
461.261	16183.39
461.466	15800.42
461.672	16494.68
461.878	17989.7
462.083	18032.71
462.289	18315.33
462.494	18886.71
462.7	19214.38
462.905	19320.88
463.111	20832.28
463.316	22200.32
463.522	22298.63
463.727	23166.96
463.932	24199.14
464.138	24965.08
464.343	25823.18
464.549	25778.12
464.754	27672.5
464.959	28141.48
465.165	29063.07
465.37	28938.14
465.575	28764.06
465.781	30416.77
465.986	31721.33
466.191	31129.47
466.397	31115.13
466.602	30764.93
466.807	32597.86
467.012	32933.73
467.218	33568.6
467.423	33865.55
467.628	34729.8
467.833	35995.44
468.038	35938.1
468.244	35123.01
468.449	37011.23
468.654	35997.49
468.859	35747.64
469.064	36306.73
469.269	35510.07
469.474	35655.48
469.679	36505.38
469.885	35788.6
470.09	36015.92
470.295	36028.21
470.5	35458.87
470.705	35899.19
470.91	34694.98
471.115	34389.83
471.32	34987.84
471.525	34563.91
471.73	33533.78
471.935	33443.67
472.139	32057.2
472.344	32431.97
472.549	32231.27
472.754	31342.46
472.959	30953.34
473.164	29972.36
473.369	29460.37
473.574	30443.4
473.778	29620.11
473.983	29128.6
474.188	28583.84
474.393	27148.22
474.598	27072.44
474.802	26415.04
475.007	26064.84
475.212	25833.42
475.417	24504.29
475.621	24780.76
475.826	24326.11
476.031	23496.69
476.235	23212.02
476.44	23390.19
476.645	22876.15
476.849	22634.49
477.054	22005.77
477.259	21608.46
477.463	21839.88
477.668	20801.56
477.872	21176.34
478.077	20391.97
478.282	19888.17
478.486	19785.77
478.691	19550.25
478.895	19218.48
479.1	19263.54
479.304	19167.28
479.509	18688.06
479.713	18884.66
479.918	18339.9
480.122	17967.17
480.326	17832.01
480.531	17793.09
480.735	17891.4
480.94	17344.59
481.144	17952.84
481.348	16894.04
481.553	17070.16
481.757	16908.37
481.961	16937.04
482.166	17021.01
482.37	16691.29
482.574	16416.86
482.778	16549.98
482.983	16777.3
483.187	16148.57
483.391	16021.6
483.595	15919.2
483.8	15700.07
484.004	15716.45
484.208	15671.4
484.412	15575.14
484.616	15333.48
484.821	15112.3
485.025	14639.22
485.229	14940.27
485.433	14626.93
485.637	14559.35
485.841	14332.03
486.045	13951.1
486.249	13684.87
486.453	13435.02
486.657	13410.44
486.861	13291.66
487.065	12884.11
487.269	12867.73
487.473	12286.11
487.677	12583.06
487.881	12482.71
488.085	11999.39
488.289	12073.12
488.493	11565.22
488.697	11679.91
488.901	11417.77
489.105	11202.73
489.309	10965.17
489.512	10942.64
489.716	10827.95
489.92	10254.52
490.124	10123.45
490.328	10234.04
490.531	9978.05
490.735	9832.64
490.939	9636.03
491.143	9349.32
491.346	9273.54
491.55	9105.61
491.754	9005.26
491.958	8935.63
492.161	8755.41
492.365	8659.15
492.569	8509.65
492.772	8231.13
492.976	8224.98
493.18	8067.29
493.383	8159.45
493.587	8007.9
493.79	7944.41
493.994	7686.37
494.197	7649.5
494.401	7682.27
494.605	7473.38
494.808	7708.9
495.012	7614.69
495.215	7624.93
495.419	7647.46
495.622	7266.53
495.825	7276.77
496.029	7088.36
496.232	7364.84
496.436	7110.89
496.639	7407.84
496.843	7096.55
497.046	7170.28
497.249	7405.8
497.453	7049.45
497.656	7131.37
497.859	7276.77
498.063	7313.64
498.266	7483.62
498.469	7182.57
498.673	7307.49
498.876	7362.79
499.079	7362.79
499.282	7457
499.485	7727.33
499.689	7583.97
499.892	7581.92
500.095	7629.02
500.298	7530.72
500.501	7485.67
500.705	7842.01
500.908	7760.09
501.111	7985.37
501.314	8014.04
501.517	8143.07
501.72	8055
501.923	8087.77
502.126	8401.11
502.329	8407.25
502.532	8562.9
502.735	8503.51
502.938	8890.57
503.141	8681.68
503.344	8802.51
503.547	9138.38
503.75	9091.27
503.953	9478.34
504.156	9672.9
504.359	9539.78
504.562	9529.54
504.765	9894.08
504.968	9955.52
505.17	10160.31
505.373	10399.93
505.576	10533.04
505.779	10707.12
505.982	10696.88
506.185	11204.78
506.387	11161.77
506.59	11417.77
506.793	11696.29
506.996	11636.9
507.198	12341.4
507.401	12198.04
507.604	12474.52
507.807	12562.58
508.009	13109.39
508.212	13222.03
508.415	13383.82
508.617	13727.88
508.82	13957.25
509.022	14000.26
509.225	14477.43
509.428	14815.35
509.63	15171.69
509.833	15284.33
510.035	16068.7
510.238	16224.35
510.44	16314.46
510.643	17014.87
510.845	17287.25
511.048	17391.69
511.25	17983.55
511.453	18243.65
511.655	19359.79
511.858	18784.31
512.06	19673.13
512.262	19859.49
512.465	20082.72
512.667	20580.38
512.87	21108.76
513.072	21428.24
513.274	22181.89
513.477	22620.16
513.679	22884.34
513.881	23592.94
514.084	23906.28
514.286	24588.25
514.488	24926.17
514.69	25827.28
514.893	25839.56
515.095	26589.12
515.297	27080.63
515.499	27633.58
515.701	28278.69
515.904	28958.62
516.106	29484.95
516.308	29908.88
516.51	30910.33
516.712	31049.6
516.914	31596.4
517.116	32575.33
517.318	32671.59
517.52	33627.99
517.722	34088.78
517.925	34525
518.127	35340.09
518.329	35678
518.531	35788.6
518.733	36685.61
518.935	37203.74
519.136	37981.97
519.338	38485.77
519.54	39149.31
519.742	40150.77
519.944	39988.98
520.146	40871.65
520.348	41125.6
520.55	41420.51
520.752	41922.26
520.954	42893
521.155	42741.45
521.357	43749.05
521.559	43996.85
521.761	44797.61
521.963	44650.16
522.164	45149.86
522.366	45665.95
522.568	46098.07
522.77	46188.18
522.971	46935.69
523.173	46780.04
523.375	47087.24
523.576	46724.75
523.778	47355.52
523.98	47767.16
524.181	47795.84
524.383	48049.78
524.584	48230.01
524.786	48215.67
524.988	47916.67
525.189	48483.95
525.391	48582.26
525.592	48115.32
525.794	48514.67
525.995	48283.25
526.197	48203.38
526.398	48273.01
526.6	48389.75
526.801	48078.46
527.003	47724.16
527.204	48119.42
527.406	47746.68
527.607	47120.01
527.808	47345.28
528.01	46290.58
528.211	46382.74
528.412	47173.25
528.614	46390.93
528.815	45815.45
529.016	45944.47
529.218	44721.83
529.419	44447.41
529.62	44175.03
529.822	44056.25
530.023	43849.4
530.224	43321.02
530.425	42974.92
530.626	42258.13
530.828	41428.7
531.029	41899.73
531.23	41039.59
531.431	40355.57
531.632	40378.09
531.833	39601.91
532.035	39427.84
532.236	38616.84
532.437	38514.44
532.638	37670.68
532.839	37252.89
533.04	37224.22
533.241	36110.13
533.442	36290.35
533.643	35430.2
533.844	34950.98
534.045	34520.9
534.246	33931.09
534.447	33824.59
534.648	33187.67
534.849	32649.06
535.05	31899.5
535.251	31838.06
535.451	31360.89
535.652	31039.36
535.853	30691.2
536.054	30021.52
536.255	29757.33
536.456	29026.2
536.657	29048.73
536.857	28557.22
537.058	28121
537.259	28059.56
537.46	27588.53
537.66	27011
537.861	26793.92
538.062	26253.25
538.263	25786.32
538.463	25380.82
538.664	25561.04
538.865	25108.44
539.065	24801.24
539.266	24215.52
539.466	24004.58
539.667	24043.49
539.868	23721.96
540.068	23322.61
540.269	22704.12
540.469	22837.24
540.67	22366.21
540.87	22122.5
541.071	21899.27
541.271	21723.15
541.472	21487.63
541.672	21325.84
541.873	20928.53
542.073	20576.28
542.274	20596.76
542.474	20215.84
542.675	19941.41
542.875	19767.34
543.075	19564.59
543.276	18968.63
543.476	19140.66
543.676	18720.82
543.877	18794.55
544.077	18436.16
544.277	18143.3
544.478	18311.23
544.678	17858.63
544.878	17537.1
545.078	17459.27
545.279	17193.04
545.479	16879.7
545.679	16986.19
545.879	16547.93
546.079	16611.42
546.28	16343.13
546.48	16242.78
546.68	15960.16
546.88	15667.3
547.08	15390.83
547.28	15358.06
547.48	14870.64
547.68	15038.58
547.88	14753.91
548.081	14921.84
548.281	14166.14
548.481	14276.73
548.681	13930.62
548.881	13832.32
549.081	13570.18
549.28	13521.03
549.48	13240.46
549.68	13187.21
549.88	13099.15
550.08	12757.14
550.28	12466.33
550.48	12515.48
550.68	12292.25
550.88	11972.77
551.08	11899.04
551.279	11958.43
551.479	11311.27
551.679	11167.91
551.879	11190.44
552.079	11319.46
552.278	10776.75
552.478	10995.89
552.678	10696.88
552.878	10606.77
553.077	10074.3
553.277	9935.04
553.477	10096.83
553.676	9904.32
553.876	9705.67
554.076	9468.1
554.275	9355.46
554.475	8986.83
554.674	9087.18
554.874	9044.17
555.074	8730.83
555.273	8421.59
555.473	8714.45
555.672	8290.52
555.872	8325.33
556.071	8057.05
556.271	8116.44
556.47	7831.77
556.67	7555.3
556.869	7553.25
557.068	7465.19
557.268	7323.88
557.467	7117.03
557.667	7301.35
557.866	7108.84
558.065	7024.87
558.265	6678.77
558.464	6590.7
558.663	6715.63
558.863	6371.57
559.062	6529.27
559.261	6142.2
559.461	6281.46
559.66	6068.47
559.859	6027.51
560.058	5873.92
560.258	5591.3
560.457	5646.59
560.656	5720.32
560.855	5237
561.054	5665.02
561.253	5263.62
561.453	5191.94
561.652	5204.23
561.851	5181.7
562.05	4835.6
562.249	4876.55
562.448	4991.24
562.647	4835.6
562.846	4641.04
563.045	4698.38
563.244	4628.75
563.443	4606.22
563.642	4450.58
563.841	4555.02
564.04	4286.74
564.239	4237.59
564.438	4221.2
564.637	4260.12
564.836	4069.66
565.035	4174.1
565.234	3850.52
565.432	3944.73
565.631	4004.12
565.83	3795.23
566.029	3735.84
566.228	3807.52
566.427	3719.45
566.625	3404.07
566.824	3551.52
567.023	3442.98
567.222	3410.21
567.42	3539.23
567.619	3207.46
567.818	3201.32
568.016	3402.02
568.215	3211.56
568.414	3232.04
568.612	3158.31
568.811	3195.17
569.01	3123.49
569.208	3080.49
569.407	2881.83
569.605	2857.26
569.804	2877.74
570.002	2928.94
570.201	2730.28
570.4	2787.63
570.598	2734.38
570.797	2695.47
570.995	2572.59
571.193	2607.41
571.392	2621.74
571.59	2453.81
571.789	2408.75
571.987	2529.58
572.186	2490.67
572.384	2326.83
572.582	2267.44
572.781	2396.46
572.979	2087.22
573.177	2287.92
573.376	2187.57
573.574	2195.76
573.772	2134.32
573.971	2031.93
574.169	2046.26
574.367	2040.12
574.565	2013.49
574.763	1876.28
574.962	1943.86
575.16	1952.06
575.358	1845.56
575.556	1878.33
575.754	1937.72
575.952	1794.36
576.151	1792.31
576.349	1702.2
576.547	1677.63
576.745	1698.11
576.943	1683.77
577.141	1737.02
577.339	1552.7
577.537	1560.89
577.735	1667.39
577.933	1612.09
578.131	1521.98
578.329	1558.85
578.527	1476.93
578.725	1501.5
578.923	1329.47
579.121	1442.11
579.319	1288.51
579.516	1333.57
579.714	1509.69
579.912	1272.13
580.11	1196.36
580.308	1304.9
580.506	1290.56
580.704	1165.64
580.901	1265.99
581.099	1280.32
581.297	1139.01
581.495	1093.96
581.692	1139.01
581.89	1237.31
582.088	1093.96
582.285	1122.63
582.483	1079.62
582.681	1089.86
582.878	1032.52
583.076	1057.09
583.274	1022.28
583.471	1204.55
583.669	1005.89
583.866	856.39
584.064	876.87
584.262	934.22
584.459	1018.18
584.657	977.22
584.854	981.32
585.052	874.82
585.249	911.69
585.447	956.74
585.644	819.53
585.841	889.16
586.039	850.25
586.236	919.88
586.434	860.49
586.631	825.67
586.828	756.04
587.026	713.03
587.223	657.74
587.42	731.47
587.618	745.8
587.815	774.47
588.012	797
588.21	592.2
588.407	844.1
588.604	780.62
588.801	670.03
588.999	805.19
589.196	747.85
589.393	737.61
589.59	645.45
589.787	667.98
589.984	700.75
590.182	686.41
590.379	581.96
590.576	635.21
590.773	680.27
590.97	682.31
591.167	708.94
591.364	653.64
591.561	659.79
591.758	676.17
591.955	641.36
592.152	684.36
592.349	641.36
592.546	653.64
592.743	573.77
592.94	649.55
593.137	661.84
593.334	745.8
593.531	631.12
593.727	622.92
593.924	723.27
594.121	637.26
594.318	624.97
594.515	702.79
594.712	760.14
594.908	739.66
595.105	549.2
595.302	649.55
595.499	645.45
595.696	833.86
595.892	678.22
596.089	641.36
596.286	686.41
596.482	741.71
596.679	823.62
596.876	807.24
597.072	878.92
597.269	747.85
597.466	844.1
597.662	823.62
597.859	790.86
598.055	842.06
598.252	1018.18
598.448	1102.15
598.645	1044.81
598.841	1034.57
599.038	1151.3
599.234	1155.4
599.431	1130.82
599.627	1108.29
599.824	1325.38
600.02	1151.3
600.217	1149.25
600.413	1282.37
600.609	1374.53
600.806	1702.2
601.002	1460.54
601.198	1464.64
601.395	1646.91
601.591	1567.04
601.787	1743.16
601.984	1773.88
602.18	1923.38
602.376	1792.31
602.572	2038.07
602.769	2005.3
602.965	2027.83
603.161	2220.34
603.357	2140.47
603.553	2445.62
603.75	2359.6
603.946	2558.25
604.142	2599.21
604.338	2797.87
604.534	2738.48
604.73	2783.53
604.926	2920.74
605.122	3172.64
605.318	3113.25
605.514	3330.34
605.71	3328.29
605.906	3494.18
606.102	3549.47
606.298	3764.51
606.494	3813.66
606.69	3760.41
606.886	3977.5
607.082	4096.28
607.278	4184.34
607.474	4301.08
607.67	4503.82
607.866	4364.56
608.062	4669.71
608.257	4806.92
608.453	4917.51
608.649	5040.39
608.845	5042.44
609.041	5132.55
609.236	5595.39
609.432	5476.61
609.628	5697.79
609.824	6011.13
610.019	6019.32
610.215	6037.75
610.411	6486.26
610.606	6693.1
610.802	6613.23
610.998	6930.67
611.193	7276.77
611.389	7186.66
611.584	7637.22
611.78	7651.55
611.976	7723.23
612.171	8212.7
612.367	8442.07
612.562	8712.4
612.758	8566.99
612.953	8655.06
613.149	9205.96
613.344	9208.01
613.539	9746.62
613.735	10057.92
613.93	10086.59
614.126	10342.58
614.321	10655.92
614.517	11282.6
614.712	11237.55
614.907	11610.28
615.103	11935.9
615.298	12023.97
615.493	12478.61
615.688	12726.42
615.884	13389.96
616.079	13283.47
616.274	13752.45
616.47	14018.69
616.665	14311.55
616.86	14758
617.055	15163.5
617.25	15616.1
617.445	16091.23
617.641	16150.62
617.836	16582.74
618.031	16713.81
618.226	17705.03
618.421	17932.36
618.616	18262.08
618.811	18626.62
619.006	19322.93
619.201	19558.44
619.396	20109.35
619.591	20033.57
619.786	21305.36
619.981	21403.66
620.176	22114.31
620.371	22151.17
620.566	22824.95
620.761	23062.52
620.956	23887.85
621.151	23850.99
621.346	24756.19
621.541	24866.78
621.735	25548.75
621.93	25679.82
622.125	26644.41
622.32	26695.61
622.515	27226.04
622.709	27846.57
622.904	28559.27
623.099	28897.18
623.294	29472.66
623.488	29689.74
623.683	30650.24
623.878	30621.57
624.072	31338.36
624.267	31553.4
624.462	32366.44
624.656	32339.82
624.851	33580.88
625.046	33582.93
625.24	34230.09
625.435	34254.67
625.629	35659.57
625.824	35469.11
626.018	36144.94
626.213	35923.76
626.407	37248.8
626.602	36740.9
626.796	37746.45
626.991	38248.21
627.185	38061.84
627.38	38649.61
627.574	38465.29
627.768	38504.2
627.963	39227.13
628.157	39048.96
628.352	39698.17
628.546	38917.89
628.74	39606.01
628.935	38891.27
629.129	39499.51
629.323	38833.92
629.517	39272.19
629.712	38739.72
629.906	38674.18
630.1	37877.52
630.294	37988.11
630.489	37166.88
630.683	37220.13
630.877	35995.44
631.071	35393.34
631.265	35303.23
631.459	34275.15
631.653	33853.26
631.848	33431.38
632.042	32460.65
632.236	31704.95
632.43	30807.94
632.624	30072.71
632.818	28780.45
633.012	28204.97
633.206	27584.43
633.4	26460.1
633.594	25589.71
633.788	24932.31
633.982	23996.39
634.176	23431.15
634.369	22353.92
634.563	21743.63
634.757	20377.63
634.951	20074.53
635.145	19288.11
635.339	18475.07
635.533	17922.12
635.726	17190.99
635.92	16169.05
636.114	15552.62
636.308	15073.39
636.501	14278.78
636.695	13953.15
636.889	13371.53
637.083	12949.65
637.276	12224.67
637.47	11581.6
637.664	11210.92
637.857	10821.81
638.051	10277.05
638.244	10082.49
638.438	9580.74
638.632	9257.16
638.825	8765.65
639.019	8452.31
639.212	8188.12
639.406	7790.81
639.599	7600.35
639.793	7239.91
639.986	6949.1
640.18	6797.55
640.373	6570.23
640.567	6109.43
640.76	5882.11
640.954	5865.72
641.147	5527.81
641.34	5363.97
641.534	5105.93
641.727	4950.28
641.92	4749.58
642.114	4733.2
642.307	4321.56
642.5	4206.87
642.694	4127
642.887	3911.96
643.08	3875.1
643.273	3862.81
643.467	3559.71
643.66	3385.63
643.853	3309.86
644.046	3219.75
644.239	2953.51
644.432	2857.26
644.626	2703.66
644.819	2783.53
645.012	2615.6
645.205	2525.49
645.398	2476.34
645.591	2253.11
645.784	2085.17
645.977	2181.43
646.17	2033.97
646.363	2056.5
646.556	1927.48
646.749	1724.73
646.942	1706.3
647.135	1847.61
647.328	1562.94
647.521	1542.46
647.714	1392.96
647.907	1524.03
648.099	1304.9
648.292	1538.37
648.485	1360.19
648.678	1220.93
648.871	1241.41
649.064	1253.7
649.256	1044.81
649.449	1122.63
649.642	880.97
649.835	993.61
650.027	872.78
650.22	973.13
650.413	923.98
650.605	919.88
650.798	901.45
650.991	780.62
651.183	743.75
651.376	792.91
651.568	792.91
651.761	747.85
651.954	772.43
652.146	627.02
652.339	751.95
652.531	733.51
652.724	575.82
652.916	551.24
653.109	489.81
653.301	661.84
653.494	610.64
653.686	559.44
653.879	659.79
654.071	620.88
654.263	528.72
654.456	426.32
654.648	586.06
654.84	450.89
655.033	420.17
655.225	489.81
655.417	325.97
655.61	516.43
655.802	393.55
655.994	530.77
656.186	338.26
656.379	498
656.571	323.92
656.763	405.84
656.955	254.29
657.148	299.34
657.34	457.04
657.532	297.3
657.724	274.77
657.916	354.64
658.108	336.21
658.3	350.54
658.492	317.78
658.684	311.63
658.876	276.82
659.068	182.61
659.26	203.09
659.452	246.1
659.644	336.21
659.836	389.46
660.028	293.2
660.22	256.34
660.412	209.23
660.604	215.38
660.796	215.38
660.988	266.58
661.18	260.43
661.372	233.81
661.563	295.25
661.755	221.52
661.947	119.12
662.139	108.88
662.331	225.62
662.522	158.03
662.714	205.14
662.906	178.51
663.097	137.56
663.289	196.95
663.481	131.41
663.673	254.29
663.864	235.86
664.056	250.19
664.247	137.56
664.439	215.38
664.631	155.99
664.822	221.52
665.014	192.85
665.205	108.88
665.397	153.94
665.588	123.22
665.78	203.09
665.971	190.8
666.163	158.03
666.354	180.56
666.546	104.79
666.737	162.13
666.929	127.32
667.12	147.8
667.311	176.47
667.503	155.99
667.694	141.65
667.885	184.66
668.077	178.51
668.268	47.44
668.459	135.51
668.651	184.66
668.842	164.18
669.033	72.02
669.224	26.96
669.416	282.96
669.607	131.41
669.798	78.16
669.989	260.43
670.18	69.97
670.371	115.03
670.563	12.63
670.754	289.1
670.945	143.7
671.136	190.8
671.327	33.11
671.518	198.99
671.709	325.97
671.9	133.46
672.091	244.05
672.282	41.3
672.473	201.04
672.664	106.84
672.855	135.51
673.046	223.57
673.237	242
673.428	115.03
673.619	217.43
673.809	94.55
674	207.19
674.191	223.57
674.382	104.79
674.573	78.16
674.764	117.08
674.954	268.63
675.145	65.88
675.336	86.36
675.527	127.32
675.717	160.08
675.908	112.98
676.099	98.64
676.289	155.99
676.48	18.77
676.671	102.74
676.861	176.47
677.052	129.36
677.243	137.56
677.433	119.12
677.624	231.76
677.814	276.82
678.005	155.99
678.195	237.91
678.386	135.51
678.576	108.88
678.767	115.03
678.957	158.03
679.148	182.61
679.338	260.43
679.529	268.63
679.719	141.65
679.909	246.1
680.1	174.42
680.29	246.1
680.481	139.6
680.671	262.48
680.861	250.19
681.052	141.65
681.242	125.27
681.432	219.47
681.622	201.04
681.813	160.08
682.003	149.84
682.193	149.84
682.383	184.66
682.573	188.75
682.764	215.38
682.954	217.43
683.144	235.86
683.334	252.24
683.524	196.95
683.714	229.71
683.904	246.1
684.094	207.19
684.284	223.57
684.474	358.74
684.664	278.87
684.854	203.09
685.044	151.89
685.234	155.99
685.424	225.62
685.614	186.71
685.804	356.69
685.994	309.58
686.184	162.13
686.374	246.1
686.564	137.56
686.753	211.28
686.943	166.23
687.133	213.33
687.323	252.24
687.513	280.91
687.702	221.52
687.892	153.94
688.082	352.59
688.272	270.67
688.461	256.34
688.651	299.34
688.841	239.95
689.03	57.68
689.22	248.15
689.41	301.39
689.599	301.39
689.789	237.91
689.979	272.72
690.168	229.71
690.358	295.25
690.547	252.24
690.737	303.44
690.926	280.91
691.116	205.14
691.305	184.66
691.495	270.67
691.684	125.27
691.874	149.84
692.063	192.85
692.252	203.09
692.442	323.92
692.631	215.38
692.82	160.08
693.01	244.05
693.199	186.71
693.388	272.72
693.578	174.42
693.767	231.76
693.956	285.01
694.146	192.85
694.335	170.32
694.524	180.56
694.713	276.82
694.902	145.75
695.092	182.61
695.281	285.01
695.47	219.47
695.659	266.58
695.848	108.88
696.037	123.22
696.226	221.52
696.415	256.34
696.604	289.1
696.793	321.87
696.982	112.98
697.171	315.73
697.36	196.95
697.549	141.65
697.738	16.73
697.927	143.7
698.116	237.91
698.305	258.39
698.494	192.85
698.683	207.19
698.872	344.4
699.061	172.37
699.25	239.95
699.438	250.19
699.627	219.47
699.816	282.96
700.005	72.02
700.193	112.98
700.382	246.1
700.571	246.1
700.76	317.78
700.948	198.99
701.137	192.85
701.326	270.67
701.514	127.32
701.703	211.28
701.892	250.19
702.08	344.4
702.269	164.18
702.457	133.46
702.646	254.29
702.834	178.51
703.023	252.24
703.212	252.24
703.4	151.89
703.589	149.84
703.777	166.23
703.965	162.13
704.154	168.27
704.342	151.89
704.531	106.84
704.719	178.51
704.907	278.87
705.096	82.26
705.284	155.99
705.472	207.19
705.661	168.27
705.849	182.61
706.037	258.39
706.226	276.82
706.414	145.75
706.602	115.03
706.79	248.15
706.979	248.15
707.167	160.08
707.355	80.21
707.543	239.95
707.731	198.99
707.919	239.95
708.107	151.89
708.296	92.5
708.484	162.13
708.672	256.34
708.86	291.15
709.048	127.32
709.236	201.04
709.424	248.15
709.612	248.15
709.8	129.36
709.988	192.85
710.176	168.27
710.364	319.82
710.551	137.56
710.739	151.89
710.927	160.08
711.115	164.18
711.303	301.39
711.491	252.24
711.679	129.36
711.866	295.25
712.054	190.8
712.242	319.82
712.43	192.85
712.617	209.23
712.805	256.34
712.993	180.56
713.181	84.31
713.368	362.83
713.556	178.51
713.744	82.26
713.931	442.7
714.119	262.48
714.306	186.71
714.494	190.8
714.682	229.71
714.869	96.6
715.057	84.31
715.244	96.6
715.432	239.95
715.619	117.08
715.807	188.75
715.994	231.76
716.182	178.51
716.369	252.24
716.556	299.34
716.744	69.97
716.931	178.51
717.119	233.81
717.306	252.24
717.493	332.11
717.681	196.95
717.868	86.36
718.055	252.24
718.242	190.8
718.43	330.06
718.617	239.95
718.804	153.94
718.991	278.87
719.179	258.39
719.366	262.48
719.553	319.82
719.74	196.95
719.927	278.87
720.114	192.85
720.301	78.16
720.488	176.47
720.676	129.36
720.863	307.54
721.05	405.84
721.237	303.44
721.424	250.19
721.611	246.1
721.798	100.69
721.985	223.57
722.172	149.84
722.358	190.8
722.545	358.74
722.732	252.24
722.919	291.15
723.106	272.72
723.293	227.67
723.48	291.15
723.667	239.95
723.853	309.58
724.04	297.3
724.227	321.87
724.414	262.48
724.6	262.48
724.787	309.58
724.974	440.65
725.161	379.22
725.347	254.29
725.534	252.24
725.72	291.15
725.907	317.78
726.094	328.02
726.28	225.62
726.467	254.29
726.653	219.47
726.84	338.26
727.027	389.46
727.213	209.23
727.4	291.15
727.586	270.67
727.773	328.02
727.959	358.74
728.145	301.39
728.332	303.44
728.518	248.15
728.705	344.4
728.891	313.68
729.077	287.06
729.264	260.43
729.45	221.52
729.636	344.4
729.823	356.69
730.009	448.85
730.195	297.3
730.382	325.97
730.568	205.14
730.754	383.31
730.94	285.01
731.126	330.06
731.313	319.82
731.499	256.34
731.685	362.83
731.871	332.11
732.057	348.5
732.243	411.98
732.429	237.91
732.615	393.55
732.801	377.17
732.987	303.44
733.173	330.06
733.359	350.54
733.545	344.4
733.731	364.88
733.917	495.95
734.103	389.46
734.289	463.18
734.475	280.91
734.661	407.89
734.847	391.5
735.033	334.16
735.219	454.99
735.404	399.7
735.59	282.96
735.776	244.05
735.962	354.64
736.148	336.21
736.333	448.85
736.519	264.53
736.705	393.55
736.89	420.17
737.076	387.41
737.262	401.74
737.447	336.21
737.633	303.44
737.819	444.75
738.004	289.1
738.19	407.89
738.375	321.87
738.561	491.85
738.747	356.69
738.932	293.2
739.118	420.17
739.303	405.84
739.489	428.37
739.674	377.17
739.859	348.5
740.045	385.36
740.23	289.1
740.416	213.33
740.601	444.75
740.786	358.74
740.972	293.2
741.157	252.24
741.342	305.49
741.528	252.24
741.713	418.13
741.898	325.97
742.084	303.44
742.269	375.12
742.454	389.46
742.639	432.46
742.824	305.49
743.01	520.53
743.195	543.05
743.38	416.08
743.565	309.58
743.75	395.6
743.935	432.46
744.12	493.9
744.305	344.4
744.49	301.39
744.675	311.63
744.86	366.93
745.045	356.69
745.23	330.06
745.415	311.63
745.6	461.13
745.785	268.63
745.97	465.23
746.155	303.44
746.34	518.48
746.525	373.07
746.71	409.94
746.895	358.74
747.079	295.25
747.264	231.76
747.449	391.5
747.634	371.02
747.819	325.97
748.003	303.44
748.188	289.1
748.373	291.15
748.557	395.6
748.742	368.98
748.927	344.4
749.111	315.73
749.296	411.98
749.481	344.4
749.665	342.35
749.85	309.58
750.034	407.89
750.219	362.83
750.404	268.63
750.588	393.55
750.773	219.47
750.957	287.06
751.141	352.59
751.326	338.26
751.51	282.96
751.695	229.71
751.879	270.67
752.064	432.46
752.248	309.58
752.432	332.11
752.617	350.54
752.801	366.93
752.985	223.57
753.17	342.35
753.354	307.54
753.538	340.3
753.722	223.57
753.907	176.47
754.091	295.25
754.275	342.35
754.459	205.14
754.643	166.23
754.828	360.78
755.012	297.3
755.196	211.28
755.38	235.86
755.564	237.91
755.748	293.2
755.932	373.07
756.116	313.68
756.3	192.85
756.484	196.95
756.668	246.1
756.852	37.2
757.036	242
757.22	211.28
757.404	215.38
757.588	178.51
757.772	231.76
757.956	221.52
758.14	385.36
758.323	168.27
758.507	282.96
758.691	149.84
758.875	317.78
759.059	256.34
759.242	190.8
759.426	270.67
759.61	188.75
759.794	186.71
759.977	305.49
760.161	373.07
760.345	205.14
760.528	196.95
760.712	207.19
760.895	252.24
761.079	217.43
761.263	82.26
761.446	147.8
761.63	239.95
761.813	291.15
761.997	190.8
762.18	160.08
762.364	211.28
762.547	65.88
762.731	137.56
762.914	207.19
763.098	201.04
763.281	190.8
763.464	123.22
763.648	194.9
763.831	205.14
764.015	131.41
764.198	139.6
764.381	145.75
764.564	162.13
764.748	164.18
764.931	235.86
765.114	168.27
765.297	207.19
765.481	133.46
765.664	78.16
765.847	133.46
766.03	250.19
766.213	123.22
766.397	141.65
766.58	117.08
766.763	194.9
766.946	92.5
767.129	164.18
767.312	239.95
767.495	131.41
767.678	147.8
767.861	192.85
768.044	96.6
768.227	82.26
768.41	153.94
768.593	205.14
768.776	137.56
768.959	72.02
769.142	272.72
769.324	227.67
769.507	158.03
769.69	104.79
769.873	190.8
770.056	364.88
770.239	186.71
770.421	242
770.604	139.6
770.787	141.65
770.97	139.6
771.152	117.08
771.335	158.03
771.518	63.83
771.7	254.29
771.883	272.72
772.066	69.97
772.248	176.47
772.431	174.42
772.613	213.33
772.796	158.03
772.978	153.94
773.161	158.03
773.343	55.64
773.526	90.45
773.708	108.88
773.891	39.25
774.073	121.17
774.256	131.41
774.438	215.38
774.621	63.83
774.803	108.88
774.985	125.27
775.168	168.27
775.35	92.5
775.532	72.02
775.715	51.54
775.897	135.51
776.079	63.83
776.261	153.94
776.444	92.5
776.626	123.22
776.808	133.46
776.99	78.16
777.173	53.59
777.355	131.41
777.537	127.32
777.719	131.41
777.901	147.8
778.083	-11.95
778.265	92.5
778.447	94.55
778.629	22.87
778.811	59.73
778.993	135.51
779.175	141.65
779.357	186.71
779.539	-3.75
779.721	33.11
779.903	108.88
780.085	29.01
780.267	102.74
780.449	61.78
780.631	96.6
780.812	74.07
780.994	141.65
781.176	110.93
781.358	129.36
781.54	33.11
781.721	80.21
781.903	172.37
782.085	14.68
782.267	158.03
782.448	-18.09
782.63	-46.76
782.812	96.6
782.993	147.8
783.175	125.27
783.357	112.98
783.538	35.16
783.72	-26.28
783.901	125.27
784.083	100.69
784.264	88.4
784.446	-73.39
784.627	2.39
784.809	102.74
784.99	20.82
785.172	108.88
785.353	155.99
785.535	145.75
785.716	86.36
785.897	26.96
786.079	49.49
786.26	96.6
786.441	131.41
786.623	26.96
786.804	16.73
786.985	63.83
787.167	14.68
787.348	59.73
787.529	41.3
787.71	178.51
787.891	131.41
788.073	49.49
788.254	-9.9
788.435	209.23
788.616	166.23
788.797	69.97
788.978	20.82
789.159	0.34
789.34	88.4
789.522	72.02
789.703	31.06
789.884	45.4
790.065	96.6
790.246	209.23
790.427	-30.38
790.607	153.94
790.788	139.6
790.969	-42.67
791.15	72.02
791.331	-1.71
791.512	65.88
791.693	53.59
791.874	22.87
792.054	211.28
792.235	102.74
792.416	4.44
792.597	51.54
792.778	31.06
792.958	35.16
793.139	49.49
793.32	10.58
793.5	-36.52
793.681	94.55
793.862	55.64
794.042	-32.43
794.223	-63.15
794.404	-65.19
794.584	-13.99
794.765	14.68
794.945	18.77
795.126	43.35
795.306	184.66
795.487	63.83
795.667	26.96
795.848	67.92
796.028	-24.23
796.209	63.83
796.389	143.7
796.57	96.6
796.75	-44.71
796.93	-48.81
797.111	0.34
797.291	78.16
797.471	98.64
797.652	12.63
797.832	-5.8
798.012	53.59
798.192	-59.05
798.373	-48.81
798.553	37.2
798.733	121.17
798.913	29.01
799.093	-28.33
799.274	98.64
799.454	76.12
799.634	63.83
799.814	53.59
799.994	117.08
800.174	100.69
800.354	72.02
800.534	-34.47
800.714	63.83
800.894	-34.47
801.074	-5.8
801.254	-7.85
801.434	158.03
801.614	-18.09
801.794	-48.81
801.974	1673.53
802.154	-126.63
802.334	174.42
802.514	31.06
802.693	49.49
802.873	80.21
803.053	160.08
803.233	80.21
803.413	0.34
803.592	-32.43
803.772	-3.75
803.952	51.54
804.131	-24.23
804.311	26.96
804.491	104.79
804.67	61.78
804.85	-67.24
805.03	72.02
805.209	153.94
805.389	43.35
805.568	-1.71
805.748	-38.57
805.928	-11.95
806.107	125.27
806.287	51.54
806.466	65.88
806.646	-28.33
806.825	12.63
807.004	-40.62
807.184	67.92
807.363	76.12
807.543	59.73
807.722	55.64
807.901	129.36
808.081	20.82
808.26	-118.44
808.439	10.58
808.619	10.58
808.798	-59.05
808.977	100.69
809.156	84.31
809.336	22.87
809.515	63.83
809.694	-48.81
809.873	-18.09
810.052	123.22
810.231	137.56
810.411	-40.62
810.59	110.93
810.769	33.11
810.948	65.88
811.127	-30.38
811.306	-67.24
811.485	-42.67
811.664	29.01
811.843	86.36
812.022	18.77
812.201	20.82
812.38	8.53
812.559	86.36
812.737	92.5
812.916	-104.11
813.095	-36.52
813.274	45.4
813.453	37.2
813.632	29.01
813.811	-34.47
813.989	4.44
814.168	10.58
814.347	-36.52
814.526	-38.57
814.704	96.6
814.883	135.51
815.062	-59.05
815.24	100.69
815.419	-69.29
815.598	14.68
815.776	-44.71
815.955	14.68
816.133	-75.43
816.312	26.96
816.49	-16.04
816.669	0.34
816.847	-57
817.026	65.88
817.204	-48.81
817.383	12.63
817.561	-26.28
817.74	63.83
817.918	41.3
818.097	18.77
818.275	0.34
818.453	22.87
818.632	-16.04
818.81	-28.33
818.988	-67.24
819.167	-81.58
819.345	72.02
819.523	-34.47
819.701	76.12
819.879	-54.95
820.058	51.54
820.236	94.55
820.414	14.68
820.592	-57
820.77	-65.19
820.948	-57
821.127	31.06
821.305	-18.09
821.483	-79.53
821.661	67.92
821.839	12.63
822.017	57.68
822.195	37.2
822.373	45.4
822.551	74.07
822.729	-46.76
822.907	-36.52
823.085	-42.67
823.262	45.4
823.44	-28.33
823.618	0.34
823.796	-9.9
823.974	-50.86
824.152	16.73
824.329	-16.04
824.507	51.54
824.685	26.96
824.863	4.44
825.04	35.16
825.218	53.59
825.396	45.4
825.574	31.06
825.751	57.68
825.929	35.16
826.107	-13.99
826.284	16.73
826.462	78.16
826.639	35.16
826.817	-42.67
826.994	94.55
827.172	-63.15
827.349	24.92
827.527	29.01
827.704	29.01
827.882	39.25
828.059	-38.57
828.237	-9.9
828.414	6.49
828.591	-83.63
828.769	33.11
828.946	-65.19
829.124	35.16
829.301	104.79
829.478	-95.91
829.655	69.97
829.833	4.44
830.01	-118.44
830.187	92.5
830.364	53.59
830.542	33.11
830.719	115.03
830.896	35.16
831.073	41.3
831.25	47.44
831.427	47.44
831.604	-13.99
831.782	0.34
831.959	53.59
832.136	-32.43
832.313	43.35
832.49	-65.19
832.667	-24.23
832.844	-69.29
833.021	90.45
833.198	31.06
833.374	26.96
833.551	20.82
833.728	-67.24
833.905	158.03
834.082	-136.87
834.259	20.82
834.436	123.22
834.612	-57
834.789	117.08
834.966	-22.19
835.143	41.3
835.319	-157.35
835.496	57.68
835.673	41.3
835.85	-1.71
836.026	2.39
836.203	57.68
836.38	26.96
836.556	0.34
836.733	-77.48
836.909	82.26
837.086	-32.43
837.262	-52.91
837.439	-34.47
837.616	31.06
837.792	-83.63
837.968	59.73
838.145	-110.25
838.321	6.49
838.498	31.06
838.674	49.49
838.851	-18.09
839.027	-73.39
839.203	-67.24
839.38	61.78
839.556	-36.52
839.732	55.64
839.909	31.06
840.085	94.55
840.261	-50.86
840.437	14.68
840.614	-71.34
840.79	63.83
840.966	26.96
841.142	-30.38
841.318	-38.57
841.494	2.39
841.671	51.54
841.847	-26.28
842.023	-91.82
842.199	88.4
842.375	74.07
842.551	-97.96
842.727	-67.24
842.903	153.94
843.079	-38.57
843.255	84.31
843.431	-38.57
843.607	59.73
843.783	-120.49
843.959	98.64
844.134	-3.75
844.31	80.21
844.486	22.87
844.662	-42.67
844.838	33.11
845.013	-5.8
845.189	45.4
845.365	16.73
845.541	61.78
845.716	-9.9
845.892	137.56
846.068	-3.75
846.244	10.58
846.419	86.36
846.595	-20.14
846.77	-16.04
846.946	80.21
847.122	-61.1
847.297	-28.33
847.473	108.88
847.648	-110.25
847.824	37.2
847.999	-81.58
848.175	26.96
848.35	135.51
848.526	55.64
848.701	-18.09
848.876	112.98
849.052	121.17
849.227	-38.57
849.403	-57
849.578	16.73
849.753	63.83
849.929	-22.19
850.104	-83.63
850.279	-24.23
850.454	-7.85
850.63	8.53
850.805	4.44
850.98	47.44
851.155	-30.38
851.33	51.54
851.505	-91.82
851.681	84.31
851.856	-54.95
852.031	0.34
852.206	51.54
852.381	-22.19
852.556	33.11
852.731	78.16
852.906	92.5
853.081	63.83
853.256	102.74
853.431	24.92
853.606	-48.81
853.781	20.82
853.956	-102.06
854.131	26.96
854.305	12.63
854.48	10.58
854.655	-85.67
854.83	-59.05
855.005	-22.19
855.18	-18.09
855.354	-18.09
855.529	22.87
855.704	-67.24
855.879	61.78
856.053	-50.86
856.228	33.11
856.403	-116.39
856.577	76.12
856.752	-61.1
856.926	-32.43
857.101	49.49
857.276	-104.11
857.45	16.73
857.625	-9.9
857.799	72.02
857.974	-20.14
858.148	-102.06
858.323	35.16
858.497	33.11
858.672	-59.05
858.846	-75.43
859.02	49.49
859.195	-71.34
859.369	69.97
859.543	4.44
859.718	22.87
859.892	-34.47
860.066	39.25
860.241	-50.86
860.415	-30.38
860.589	43.35
860.763	-85.67
860.938	-85.67
861.112	29.01
861.286	-57
861.46	20.82
861.634	6.49
861.808	100.69
861.982	14.68
862.157	-18.09
862.331	-50.86
862.505	-57
862.679	-95.91
862.853	-26.28
863.027	-73.39
863.201	88.4
863.375	-42.67
863.549	51.54
863.722	31.06
863.896	123.22
864.07	-102.06
864.244	-1.71
864.418	-28.33
864.592	33.11
864.766	-61.1
864.939	-13.99
865.113	6.49
865.287	190.8
865.461	-61.1
865.634	-13.99
865.808	-20.14
865.982	-75.43
866.156	-71.34
866.329	-75.43
866.503	-30.38
866.676	67.92
866.85	4.44
867.024	-54.95
867.197	31.06
867.371	69.97
867.544	0.34
867.718	-63.15
867.891	80.21
868.065	-97.96
868.238	6.49
868.412	72.02
868.585	22.87
868.759	-65.19
868.932	-11.95
869.105	-81.58
869.279	0.34
869.452	-81.58
869.625	0.34
869.799	-54.95
869.972	-79.53
870.145	-50.86
870.319	6.49
870.492	-59.05
870.665	2.39
870.838	-18.09
871.011	-157.35
871.185	-36.52
871.358	-73.39
871.531	-5.8
871.704	14.68
871.877	-13.99
872.05	10.58
872.223	-122.54
872.396	26.96
872.569	43.35
872.742	-91.82
872.915	104.79
873.088	-73.39
873.261	-46.76
873.434	47.44
873.607	8.53
873.78	90.45
873.953	-143.02
874.126	-38.57
874.299	10.58
874.471	-16.04
874.644	33.11
874.817	33.11
874.99	133.46
875.163	-3.75
875.335	-9.9
875.508	29.01
875.681	74.07
875.853	-13.99
876.026	-57
876.199	86.36
876.371	82.26
876.544	-104.11
876.717	55.64
876.889	31.06
877.062	63.83
877.234	-63.15
877.407	-34.47
877.579	31.06
877.752	-5.8
877.924	84.31
878.097	-18.09
878.269	-5.8
878.442	-5.8
878.614	43.35
878.786	-28.33
878.959	-32.43
879.131	20.82
879.303	-116.39
879.476	-54.95
879.648	112.98
879.82	-40.62
879.993	-1.71
880.165	-87.72
880.337	-126.63
880.509	-22.19
880.681	-59.05
880.854	-65.19
881.026	90.45
881.198	135.51
881.37	6.49
881.542	22.87
881.714	0.34
881.886	-44.71
882.058	24.92
882.23	-11.95
882.402	-83.63
882.574	-38.57
882.746	72.02
882.918	104.79
883.09	-5.8
883.262	-28.33
883.434	22.87
883.606	-81.58
883.778	-22.19
883.95	158.03
884.122	24.92
884.293	98.64
884.465	-28.33
884.637	86.36
884.809	-16.04
884.98	31.06
885.152	43.35
885.324	37.2
885.496	-73.39
885.667	-38.57
885.839	49.49
886.011	112.98
886.182	106.84
886.354	26.96
886.525	49.49
886.697	-13.99
886.869	-28.33
887.04	10.58
887.212	74.07
887.383	143.7
887.555	29.01
887.726	-34.47
887.897	-9.9
888.069	-59.05
888.24	37.2
888.412	-59.05
888.583	26.96
888.754	-40.62
888.926	-106.15
889.097	-85.67
889.268	-63.15
889.44	-34.47
889.611	-61.1
889.782	-81.58
889.953	-120.49
890.125	108.88
890.296	-52.91
890.467	-16.04
890.638	-24.23
890.809	0.34
890.98	-83.63
891.151	67.92
891.323	45.4
891.494	-7.85
891.665	-1.71
891.836	-50.86
892.007	-30.38
892.178	45.4
892.349	57.68
892.52	-18.09
892.691	-34.47
892.862	-67.24
893.032	-87.72
893.203	-65.19
893.374	-11.95
893.545	45.4
893.716	-97.96
893.887	-5.8
894.057	31.06
894.228	-18.09
894.399	-42.67
894.57	82.26
894.74	-1.71
894.911	16.73
895.082	-34.47
895.253	-91.82
895.423	-1.71
895.594	133.46
895.764	-5.8
895.935	-65.19
896.106	18.77
896.276	-40.62
896.447	-13.99
896.617	-89.77
896.788	-9.9
896.958	12.63
897.129	-71.34
897.299	-87.72
897.47	31.06
897.64	-71.34
897.81	29.01
897.981	4.44
898.151	-81.58
898.322	78.16
898.492	16.73
898.662	-104.11
898.832	-32.43
899.003	-11.95
899.173	76.12
899.343	-5.8
899.513	-54.95
