Data from USB4F104151__95__10-35-23-029.txt Node

Date: Wed Feb 26 10:35:23 EST 2025
User: louis
Spectrometer: USB4F10415
Trigger mode: 4
Integration Time (sec): 1.000000E-1
Scans to average: 1
Electric dark correction enabled: true
Nonlinearity correction enabled: false
Boxcar width: 0
XAxis mode: Wavelengths
Number of Pixels in Spectrum: 3648
>>>>>Begin Spectral Data<<<<<
178.204	-336.21
178.424	-336.21
178.644	-336.21
178.864	-409.94
179.084	-317.78
179.304	1.71
179.524	-18.77
179.744	52.91
179.964	40.62
180.184	54.95
180.404	28.33
180.624	-90.45
180.844	-53.59
181.064	-8.53
181.283	9.9
181.503	-92.5
181.723	75.43
181.943	42.67
182.163	253.61
182.383	-4.44
182.602	57
182.822	161.45
183.042	124.58
183.262	-0.34
183.482	59.05
183.701	46.76
183.921	59.05
184.141	-14.68
184.361	136.87
184.58	112.3
184.8	-26.96
185.02	22.19
185.239	87.72
185.459	167.59
185.679	173.74
185.898	-47.44
186.118	18.09
186.338	124.58
186.557	173.74
186.777	50.86
186.997	81.58
187.216	71.34
187.436	239.27
187.655	204.46
187.875	124.58
188.095	165.54
188.314	147.11
188.534	208.55
188.753	-2.39
188.973	136.87
189.192	169.64
189.412	61.1
189.631	91.82
189.851	136.87
190.07	192.17
190.29	-26.96
190.509	95.91
190.729	34.47
190.948	120.49
191.168	302.76
191.387	65.19
191.607	63.15
191.826	110.25
192.045	-4.44
192.265	24.23
192.484	147.11
192.704	50.86
192.923	7.85
193.142	159.4
193.362	145.06
193.581	212.65
193.8	81.58
194.02	71.34
194.239	50.86
194.458	114.34
194.678	-26.96
194.897	-12.63
195.116	120.49
195.335	67.24
195.555	30.38
195.774	9.9
195.993	128.68
196.212	77.48
196.432	32.43
196.651	36.52
196.87	71.34
197.089	235.18
197.308	57
197.528	177.83
197.747	34.47
197.966	147.11
198.185	145.06
198.404	44.71
198.623	136.87
198.842	30.38
199.062	143.02
199.281	79.53
199.5	97.96
199.719	102.06
199.938	122.54
200.157	65.19
200.376	100.01
200.595	171.69
200.814	161.45
201.033	5.8
201.252	192.17
201.471	120.49
201.69	85.67
201.909	26.28
202.128	143.02
202.347	106.15
202.566	69.29
202.785	-16.73
203.004	34.47
203.223	224.94
203.442	-0.34
203.661	-10.58
203.879	145.06
204.098	171.69
204.317	-22.87
204.536	161.45
204.755	132.78
204.974	116.39
205.193	73.39
205.411	140.97
205.63	153.26
205.849	61.1
206.068	20.14
206.287	28.33
206.505	177.83
206.724	89.77
206.943	-37.2
207.162	65.19
207.381	194.22
207.599	36.52
207.818	85.67
208.037	-8.53
208.255	-2.39
208.474	104.11
208.693	100.01
208.911	93.87
209.13	116.39
209.349	138.92
209.567	128.68
209.786	50.86
210.005	138.92
210.223	44.71
210.442	-41.3
210.661	69.29
210.879	40.62
211.098	83.63
211.316	100.01
211.535	138.92
211.753	147.11
211.972	128.68
212.191	46.76
212.409	7.85
212.628	61.1
212.846	3.75
213.065	132.78
213.283	118.44
213.502	54.95
213.72	118.44
213.938	102.06
214.157	-4.44
214.375	132.78
214.594	65.19
214.812	30.38
215.031	42.67
215.249	83.63
215.467	32.43
215.686	120.49
215.904	128.68
216.122	151.21
216.341	159.4
216.559	67.24
216.778	175.78
216.996	61.1
217.214	151.21
217.432	63.15
217.651	18.09
217.869	50.86
218.087	93.87
218.306	71.34
218.524	28.33
218.742	26.28
218.96	126.63
219.179	57
219.397	128.68
219.615	231.08
219.833	132.78
220.051	9.9
220.27	214.7
220.488	75.43
220.706	67.24
220.924	75.43
221.142	-2.39
221.36	73.39
221.578	169.64
221.796	26.28
222.015	81.58
222.233	59.05
222.451	247.46
222.669	63.15
222.887	106.15
223.105	38.57
223.323	54.95
223.541	-0.34
223.759	71.34
223.977	63.15
224.195	169.64
224.413	136.87
224.631	-14.68
224.849	153.26
225.067	255.65
225.285	26.28
225.503	34.47
225.721	-14.68
225.939	124.58
226.157	112.3
226.375	186.02
226.592	50.86
226.81	67.24
227.028	-8.53
227.246	165.54
227.464	20.14
227.682	136.87
227.9	136.87
228.117	126.63
228.335	165.54
228.553	13.99
228.771	81.58
228.989	93.87
229.206	67.24
229.424	1.71
229.642	63.15
229.86	-67.92
230.077	167.59
230.295	108.2
230.513	138.92
230.731	54.95
230.948	222.89
231.166	130.73
231.384	36.52
231.601	-29.01
231.819	292.52
232.037	-14.68
232.254	48.81
232.472	22.19
232.689	20.14
232.907	159.4
233.125	118.44
233.342	-29.01
233.56	97.96
233.777	48.81
233.995	-24.92
234.213	102.06
234.43	120.49
234.648	65.19
234.865	108.2
235.083	130.73
235.3	71.34
235.518	132.78
235.735	157.35
235.953	67.24
236.17	63.15
236.388	83.63
236.605	120.49
236.822	169.64
237.04	155.3
237.257	110.25
237.475	-33.11
237.692	157.35
237.909	75.43
238.127	36.52
238.344	151.21
238.562	108.2
238.779	1.71
238.996	20.14
239.214	71.34
239.431	126.63
239.648	81.58
239.865	179.88
240.083	97.96
240.3	50.86
240.517	85.67
240.735	3.75
240.952	132.78
241.169	118.44
241.386	114.34
241.603	38.57
241.821	7.85
242.038	163.5
242.255	116.39
242.472	100.01
242.689	77.48
242.907	169.64
243.124	132.78
243.341	30.38
243.558	108.2
243.775	1.71
243.992	50.86
244.209	173.74
244.426	210.6
244.643	147.11
244.86	26.28
245.078	126.63
245.295	32.43
245.512	65.19
245.729	71.34
245.946	87.72
246.163	22.19
246.38	30.38
246.597	140.97
246.814	28.33
247.031	57
247.248	110.25
247.464	200.36
247.681	130.73
247.898	52.91
248.115	159.4
248.332	36.52
248.549	126.63
248.766	149.16
248.983	75.43
249.2	157.35
249.417	145.06
249.633	22.19
249.85	100.01
250.067	-22.87
250.284	120.49
250.501	132.78
250.717	145.06
250.934	5.8
251.151	28.33
251.368	73.39
251.585	120.49
251.801	61.1
252.018	1.71
252.235	71.34
252.451	16.04
252.668	9.9
252.885	89.77
253.102	93.87
253.318	75.43
253.535	57
253.752	52.91
253.968	61.1
254.185	-12.63
254.401	132.78
254.618	157.35
254.835	-20.82
255.051	169.64
255.268	108.2
255.484	28.33
255.701	65.19
255.917	155.3
256.134	13.99
256.351	54.95
256.567	-0.34
256.784	28.33
257	-55.64
257.217	128.68
257.433	114.34
257.65	120.49
257.866	140.97
258.082	59.05
258.299	-33.11
258.515	71.34
258.732	26.28
258.948	48.81
259.165	52.91
259.381	34.47
259.597	63.15
259.814	48.81
260.03	69.29
260.246	48.81
260.463	251.56
260.679	147.11
260.895	75.43
261.112	24.23
261.328	42.67
261.544	36.52
261.761	224.94
261.977	34.47
262.193	63.15
262.409	153.26
262.626	69.29
262.842	73.39
263.058	59.05
263.274	48.81
263.49	38.57
263.707	97.96
263.923	192.17
264.139	-63.83
264.355	192.17
264.571	136.87
264.787	59.05
265.004	114.34
265.22	149.16
265.436	9.9
265.652	13.99
265.868	81.58
266.084	-31.06
266.3	40.62
266.516	-18.77
266.732	87.72
266.948	85.67
267.164	16.04
267.38	183.98
267.596	143.02
267.812	272.04
268.028	69.29
268.244	26.28
268.46	126.63
268.676	46.76
268.892	132.78
269.108	-16.73
269.324	40.62
269.54	34.47
269.756	145.06
269.972	16.04
270.188	130.73
270.403	-41.3
270.619	110.25
270.835	100.01
271.051	54.95
271.267	38.57
271.483	81.58
271.698	173.74
271.914	59.05
272.13	26.28
272.346	79.53
272.562	81.58
272.777	183.98
272.993	36.52
273.209	52.91
273.425	97.96
273.64	-59.73
273.856	167.59
274.072	38.57
274.287	-10.58
274.503	177.83
274.719	118.44
274.934	-4.44
275.15	-31.06
275.366	104.11
275.581	-35.16
275.797	83.63
276.012	50.86
276.228	100.01
276.444	38.57
276.659	30.38
276.875	-37.2
277.09	54.95
277.306	102.06
277.521	120.49
277.737	1.71
277.952	126.63
278.168	32.43
278.383	102.06
278.599	57
278.814	120.49
279.03	75.43
279.245	169.64
279.461	5.8
279.676	136.87
279.892	-4.44
280.107	-14.68
280.322	38.57
280.538	190.12
280.753	-59.73
280.969	116.39
281.184	38.57
281.399	171.69
281.615	79.53
281.83	85.67
282.045	-35.16
282.26	36.52
282.476	54.95
282.691	81.58
282.906	44.71
283.122	36.52
283.337	108.2
283.552	87.72
283.767	87.72
283.983	138.92
284.198	75.43
284.413	81.58
284.628	-57.68
284.843	132.78
285.058	118.44
285.274	36.52
285.489	30.38
285.704	102.06
285.919	26.28
286.134	38.57
286.349	54.95
286.564	57
286.779	194.22
286.995	48.81
287.21	-74.07
287.425	145.06
287.64	63.15
287.855	102.06
288.07	13.99
288.285	177.83
288.5	163.5
288.715	106.15
288.93	26.28
289.145	71.34
289.36	194.22
289.575	132.78
289.79	229.03
290.004	24.23
290.219	120.49
290.434	57
290.649	87.72
290.864	42.67
291.079	44.71
291.294	91.82
291.509	13.99
291.724	42.67
291.938	16.04
292.153	44.71
292.368	89.77
292.583	163.5
292.798	136.87
293.012	138.92
293.227	87.72
293.442	81.58
293.657	138.92
293.871	112.3
294.086	93.87
294.301	175.78
294.516	190.12
294.73	83.63
294.945	-14.68
295.16	9.9
295.374	106.15
295.589	91.82
295.804	3.75
296.018	110.25
296.233	173.74
296.447	116.39
296.662	116.39
296.877	175.78
297.091	149.16
297.306	48.81
297.52	54.95
297.735	143.02
297.949	120.49
298.164	97.96
298.378	165.54
298.593	-20.82
298.807	77.48
299.022	11.95
299.236	192.17
299.451	81.58
299.665	-8.53
299.88	34.47
300.094	69.29
300.309	44.71
300.523	97.96
300.737	-20.82
300.952	30.38
301.166	151.21
301.381	48.81
301.595	-4.44
301.809	42.67
302.024	18.09
302.238	-43.35
302.452	147.11
302.667	54.95
302.881	222.89
303.095	147.11
303.309	200.36
303.524	50.86
303.738	30.38
303.952	171.69
304.166	89.77
304.381	-94.55
304.595	157.35
304.809	54.95
305.023	30.38
305.237	5.8
305.452	128.68
305.666	120.49
305.88	155.3
306.094	85.67
306.308	79.53
306.522	87.72
306.736	93.87
306.95	112.3
307.164	177.83
307.379	59.05
307.593	147.11
307.807	75.43
308.021	100.01
308.235	97.96
308.449	16.04
308.663	44.71
308.877	284.33
309.091	89.77
309.305	71.34
309.519	-98.64
309.733	208.55
309.947	-57.68
310.161	126.63
310.374	42.67
310.588	46.76
310.802	-47.44
311.016	26.28
311.23	77.48
311.444	-20.82
311.658	95.91
311.872	183.98
312.085	132.78
312.299	161.45
312.513	108.2
312.727	54.95
312.941	9.9
313.154	89.77
313.368	79.53
313.582	108.2
313.796	57
314.009	28.33
314.223	147.11
314.437	-22.87
314.651	159.4
314.864	30.38
315.078	57
315.292	-98.64
315.505	106.15
315.719	108.2
315.933	81.58
316.146	-10.58
316.36	9.9
316.573	183.98
316.787	130.73
317.001	54.95
317.214	22.19
317.428	81.58
317.641	3.75
317.855	48.81
318.068	52.91
318.282	87.72
318.495	186.02
318.709	128.68
318.922	46.76
319.136	147.11
319.349	124.58
319.563	46.76
319.776	161.45
319.99	-37.2
320.203	120.49
320.417	50.86
320.63	143.02
320.843	194.22
321.057	140.97
321.27	16.04
321.483	106.15
321.697	83.63
321.91	120.49
322.124	59.05
322.337	85.67
322.55	-33.11
322.763	138.92
322.977	89.77
323.19	93.87
323.403	118.44
323.617	65.19
323.83	54.95
324.043	59.05
324.256	171.69
324.469	-37.2
324.683	179.88
324.896	50.86
325.109	46.76
325.322	32.43
325.535	116.39
325.748	169.64
325.962	-14.68
326.175	30.38
326.388	126.63
326.601	114.34
326.814	13.99
327.027	67.24
327.24	143.02
327.453	-18.77
327.666	138.92
327.879	161.45
328.092	73.39
328.305	100.01
328.518	30.38
328.731	36.52
328.944	-26.96
329.157	71.34
329.37	87.72
329.583	226.98
329.796	188.07
330.009	-0.34
330.222	79.53
330.435	218.79
330.648	106.15
330.861	52.91
331.073	63.15
331.286	108.2
331.499	63.15
331.712	67.24
331.925	77.48
332.138	122.54
332.35	165.54
332.563	-51.54
332.776	147.11
332.989	122.54
333.202	46.76
333.414	97.96
333.627	73.39
333.84	26.28
334.053	161.45
334.265	-29.01
334.478	50.86
334.691	100.01
334.903	26.28
335.116	-10.58
335.329	75.43
335.541	155.3
335.754	226.98
335.966	5.8
336.179	5.8
336.392	122.54
336.604	130.73
336.817	116.39
337.029	30.38
337.242	73.39
337.454	138.92
337.667	65.19
337.88	46.76
338.092	102.06
338.305	128.68
338.517	24.23
338.729	163.5
338.942	181.93
339.154	-47.44
339.367	57
339.579	143.02
339.792	24.23
340.004	124.58
340.217	46.76
340.429	89.77
340.641	1.71
340.854	42.67
341.066	28.33
341.278	114.34
341.491	245.41
341.703	63.15
341.915	-53.59
342.128	97.96
342.34	34.47
342.552	11.95
342.764	46.76
342.977	36.52
343.189	38.57
343.401	153.26
343.613	-16.73
343.826	3.75
344.038	22.19
344.25	169.64
344.462	-39.25
344.674	155.3
344.886	34.47
345.099	79.53
345.311	52.91
345.523	-65.88
345.735	16.04
345.947	138.92
346.159	57
346.371	93.87
346.583	-10.58
346.795	226.98
347.007	13.99
347.219	73.39
347.431	34.47
347.643	216.74
347.855	104.11
348.067	128.68
348.279	-35.16
348.491	65.19
348.703	83.63
348.915	46.76
349.127	81.58
349.339	18.09
349.551	-14.68
349.763	132.78
349.975	26.28
350.187	147.11
350.399	188.07
350.61	97.96
350.822	100.01
351.034	91.82
351.246	173.74
351.458	118.44
351.669	165.54
351.881	167.59
352.093	163.5
352.305	190.12
352.517	169.64
352.728	89.77
352.94	30.38
353.152	79.53
353.363	-18.77
353.575	63.15
353.787	147.11
353.999	32.43
354.21	202.41
354.422	-20.82
354.633	-49.49
354.845	126.63
355.057	79.53
355.268	48.81
355.48	126.63
355.692	-80.21
355.903	153.26
356.115	61.1
356.326	-59.73
356.538	155.3
356.749	134.82
356.961	224.94
357.172	67.24
357.384	-88.4
357.595	206.5
357.807	61.1
358.018	36.52
358.23	124.58
358.441	226.98
358.653	81.58
358.864	38.57
359.075	83.63
359.287	112.3
359.498	186.02
359.709	89.77
359.921	91.82
360.132	79.53
360.344	118.44
360.555	46.76
360.766	54.95
360.977	91.82
361.189	108.2
361.4	-8.53
361.611	138.92
361.823	147.11
362.034	61.1
362.245	42.67
362.456	7.85
362.667	122.54
362.879	40.62
363.09	93.87
363.301	120.49
363.512	67.24
363.723	-37.2
363.935	-8.53
364.146	89.77
364.357	52.91
364.568	124.58
364.779	-0.34
364.99	95.91
365.201	75.43
365.412	218.79
365.623	24.23
365.834	155.3
366.045	77.48
366.256	132.78
366.467	143.02
366.678	44.71
366.889	52.91
367.1	-41.3
367.311	161.45
367.522	89.77
367.733	73.39
367.944	44.71
368.155	48.81
368.366	77.48
368.577	120.49
368.788	140.97
368.999	9.9
369.209	83.63
369.42	229.03
369.631	194.22
369.842	91.82
370.053	89.77
370.264	106.15
370.474	13.99
370.685	54.95
370.896	26.28
371.107	186.02
371.317	122.54
371.528	73.39
371.739	120.49
371.95	267.94
372.16	71.34
372.371	26.28
372.582	-49.49
372.792	122.54
373.003	34.47
373.214	67.24
373.424	169.64
373.635	5.8
373.846	147.11
374.056	65.19
374.267	91.82
374.477	81.58
374.688	81.58
374.898	57
375.109	71.34
375.319	155.3
375.53	132.78
375.74	93.87
375.951	38.57
376.161	36.52
376.372	143.02
376.582	32.43
376.793	85.67
377.003	36.52
377.214	16.04
377.424	87.72
377.635	-8.53
377.845	18.09
378.055	120.49
378.266	-20.82
378.476	18.09
378.686	46.76
378.897	42.67
379.107	134.82
379.317	81.58
379.528	-41.3
379.738	179.88
379.948	-10.58
380.158	198.31
380.369	112.3
380.579	159.4
380.789	63.15
380.999	71.34
381.21	100.01
381.42	204.46
381.63	-12.63
381.84	192.17
382.05	75.43
382.261	120.49
382.471	171.69
382.681	3.75
382.891	181.93
383.101	110.25
383.311	79.53
383.521	91.82
383.731	106.15
383.941	138.92
384.151	44.71
384.361	5.8
384.571	177.83
384.781	54.95
384.991	167.59
385.201	233.13
385.411	126.63
385.621	104.11
385.831	112.3
386.041	42.67
386.251	57
386.461	149.16
386.671	-10.58
386.881	77.48
387.091	20.14
387.301	102.06
387.511	134.82
387.72	104.11
387.93	75.43
388.14	-0.34
388.35	89.77
388.56	100.01
388.769	134.82
388.979	75.43
389.189	-57.68
389.399	36.52
389.609	128.68
389.818	161.45
390.028	54.95
390.238	69.29
390.447	13.99
390.657	89.77
390.867	34.47
391.076	-0.34
391.286	42.67
391.496	71.34
391.705	100.01
391.915	212.65
392.125	79.53
392.334	83.63
392.544	132.78
392.753	87.72
392.963	57
393.172	75.43
393.382	11.95
393.591	181.93
393.801	95.91
394.01	210.6
394.22	161.45
394.429	1.71
394.639	30.38
394.848	93.87
395.058	106.15
395.267	79.53
395.477	173.74
395.686	130.73
395.895	136.87
396.105	196.26
396.314	130.73
396.524	-33.11
396.733	106.15
396.942	114.34
397.152	120.49
397.361	93.87
397.57	112.3
397.78	89.77
397.989	95.91
398.198	274.09
398.407	108.2
398.617	59.05
398.826	89.77
399.035	28.33
399.244	95.91
399.453	48.81
399.663	95.91
399.872	65.19
400.081	42.67
400.29	128.68
400.499	83.63
400.708	145.06
400.917	46.76
401.127	26.28
401.336	34.47
401.545	190.12
401.754	200.36
401.963	124.58
402.172	54.95
402.381	-12.63
402.59	-22.87
402.799	46.76
403.008	151.21
403.217	122.54
403.426	83.63
403.635	-8.53
403.844	52.91
404.053	1.71
404.262	71.34
404.471	259.75
404.68	145.06
404.888	52.91
405.097	65.19
405.306	85.67
405.515	112.3
405.724	30.38
405.933	181.93
406.142	120.49
406.35	145.06
406.559	108.2
406.768	69.29
406.977	192.17
407.185	132.78
407.394	202.41
407.603	32.43
407.812	67.24
408.02	143.02
408.229	63.15
408.438	50.86
408.646	-18.77
408.855	93.87
409.064	128.68
409.272	79.53
409.481	132.78
409.69	30.38
409.898	-33.11
410.107	149.16
410.315	81.58
410.524	-4.44
410.733	81.58
410.941	42.67
411.15	97.96
411.358	42.67
411.567	181.93
411.775	140.97
411.984	71.34
412.192	122.54
412.401	87.72
412.609	181.93
412.818	192.17
413.026	79.53
413.234	104.11
413.443	73.39
413.651	20.14
413.86	40.62
414.068	167.59
414.276	169.64
414.485	67.24
414.693	183.98
414.901	218.79
415.11	118.44
415.318	46.76
415.526	130.73
415.734	136.87
415.943	26.28
416.151	87.72
416.359	42.67
416.567	87.72
416.776	110.25
416.984	97.96
417.192	202.41
417.4	97.96
417.608	13.99
417.817	-37.2
418.025	138.92
418.233	192.17
418.441	52.91
418.649	32.43
418.857	75.43
419.065	186.02
419.273	73.39
419.481	95.91
419.689	100.01
419.897	13.99
420.105	-16.73
420.313	93.87
420.521	138.92
420.729	206.5
420.937	77.48
421.145	-12.63
421.353	145.06
421.561	110.25
421.769	67.24
421.977	-10.58
422.185	157.35
422.393	104.11
422.601	218.79
422.809	91.82
423.017	95.91
423.224	73.39
423.432	190.12
423.64	118.44
423.848	194.22
424.056	67.24
424.263	46.76
424.471	134.82
424.679	126.63
424.887	48.81
425.094	100.01
425.302	159.4
425.51	77.48
425.718	143.02
425.925	65.19
426.133	18.09
426.341	235.18
426.548	67.24
426.756	54.95
426.964	147.11
427.171	54.95
427.379	188.07
427.586	112.3
427.794	91.82
428.001	265.89
428.209	75.43
428.417	157.35
428.624	104.11
428.832	163.5
429.039	83.63
429.247	116.39
429.454	155.3
429.662	216.74
429.869	190.12
430.076	102.06
430.284	143.02
430.491	210.6
430.699	83.63
430.906	188.07
431.114	126.63
431.321	218.79
431.528	61.1
431.736	112.3
431.943	163.5
432.15	171.69
432.358	206.5
432.565	159.4
432.772	50.86
432.979	194.22
433.187	163.5
433.394	231.08
433.601	130.73
433.808	198.31
434.016	226.98
434.223	194.22
434.43	302.76
434.637	317.09
434.844	149.16
435.052	186.02
435.259	231.08
435.466	278.18
435.673	214.7
435.88	216.74
436.087	319.14
436.294	296.61
436.501	278.18
436.708	220.84
436.915	278.18
437.122	267.94
437.329	120.49
437.537	302.76
437.743	181.93
437.95	382.63
438.157	313
438.364	231.08
438.571	300.71
438.778	396.96
438.985	278.18
439.192	327.33
439.399	323.24
439.606	372.39
439.813	349.86
440.02	452.26
440.227	497.32
440.433	417.44
440.64	415.4
440.847	366.25
441.054	456.36
441.261	599.71
441.467	442.02
441.674	458.4
441.881	478.88
442.088	497.32
442.294	564.9
442.501	638.62
442.708	689.82
442.914	448.16
443.121	657.06
443.328	566.95
443.534	659.1
443.741	650.91
443.948	556.71
444.154	628.39
444.361	814.75
444.568	679.58
444.774	747.17
444.981	671.39
445.187	824.99
445.394	892.57
445.6	777.89
445.807	902.81
446.013	933.53
446.22	800.41
446.426	913.05
446.633	1015.45
446.839	1136.28
447.046	1078.94
447.252	1117.85
447.459	1123.99
447.665	1101.47
447.871	1281.69
448.078	1304.21
448.284	1316.5
448.491	1429.14
448.697	1365.65
448.903	1425.04
449.11	1478.29
449.316	1388.18
449.522	1660.56
449.728	1781.39
449.935	1552.02
450.141	1683.09
450.347	1900.17
450.553	1842.83
450.76	1996.43
450.966	2018.96
451.172	2070.16
451.378	2098.83
451.584	2141.83
451.791	2250.38
451.997	2377.35
452.203	2430.6
452.409	2647.68
452.615	2547.33
452.821	2516.61
453.027	2528.9
453.233	3020.41
453.44	2762.37
453.646	2950.78
453.852	3147.39
454.058	3298.94
454.264	3317.37
454.47	3507.83
454.676	3452.53
454.882	3831.41
455.088	3638.9
455.294	3812.98
455.5	4124.27
455.705	4279.91
455.911	4355.69
456.117	4617.83
456.323	4648.55
456.529	4705.89
456.735	5099.1
456.941	5273.18
457.147	5361.24
457.352	5465.69
457.558	5633.62
457.764	5938.77
457.97	6217.29
458.176	6319.69
458.381	6626.89
458.587	6874.69
458.793	7265.85
458.999	6999.62
459.204	7964.21
459.41	8222.25
459.616	8338.99
459.821	8748.58
460.027	8912.42
460.233	9586.2
460.438	9711.13
460.644	9901.59
460.85	10366.48
461.055	10548.75
461.261	11113.99
461.466	11079.17
461.672	10925.57
461.878	12324.33
462.083	12281.33
462.289	12559.85
462.494	12844.52
462.7	12938.73
462.905	13131.23
463.111	14530
463.316	14722.51
463.522	15089.09
463.727	15646.14
463.932	16215.48
464.138	16836.01
464.343	17720.73
464.549	17450.4
464.754	19174.79
464.959	19281.28
465.165	19766.65
465.37	19639.68
465.575	19688.83
465.781	20968.81
465.986	21513.57
466.191	21142.89
466.397	21439.84
466.602	21116.26
466.807	21974.36
467.012	22607.19
467.218	22650.19
467.423	22740.3
467.628	23174.47
467.833	24730.93
468.038	24491.32
468.244	23604.55
468.449	25036.08
468.654	24450.36
468.859	24534.32
469.064	24352.06
469.269	23821.63
469.474	23885.12
469.679	24700.21
469.885	24005.95
470.09	24069.44
470.295	24083.77
470.5	23889.21
470.705	23852.35
470.91	23379.27
471.115	23289.16
471.32	23170.38
471.525	23268.68
471.73	22617.43
471.935	22539.6
472.139	21521.76
472.344	21464.42
472.549	21552.48
472.754	20968.81
472.959	20256.12
473.164	19940.73
473.369	19537.28
473.574	19942.78
473.778	19774.84
473.983	19561.86
474.188	19117.45
474.393	18171.29
474.598	18132.37
474.802	17876.38
475.007	17597.85
475.212	17513.89
475.417	16735.66
475.621	16377.26
475.826	16301.49
476.031	15795.64
476.235	15449.53
476.44	15707.58
476.645	15302.08
476.849	14919.11
477.054	14573
477.259	14167.51
477.463	14317.01
477.668	14075.35
477.872	14149.07
478.077	13632.99
478.282	13153.76
478.486	13090.27
478.691	12987.88
478.895	12805.61
479.1	12758.5
479.304	12619.24
479.509	12168.69
479.713	12586.47
479.918	12004.85
480.122	11931.12
480.326	11912.69
480.531	11955.7
480.735	11724.28
480.94	11400.7
481.144	12015.09
481.348	11253.25
481.553	11470.33
481.757	11015.68
481.961	11021.83
482.166	11159.04
482.37	11173.38
482.574	10896.9
482.778	10851.85
482.983	11222.53
483.187	10733.06
483.391	10677.77
483.595	10423.82
483.8	10155.54
484.004	10298.89
484.208	10401.29
484.412	10300.94
484.616	10221.07
484.821	9981.46
485.025	9747.99
485.229	9838.1
485.433	9535
485.637	9532.95
485.841	9176.61
486.045	9287.2
486.249	9205.28
486.453	8926.75
486.657	9104.93
486.861	8830.5
487.065	8525.35
487.269	8597.03
487.473	8138.29
487.677	8320.56
487.881	8408.62
488.085	8078.9
488.289	7872.05
488.493	7585.33
488.697	7798.32
488.901	7437.88
489.105	7362.11
489.309	7130.69
489.512	7226.94
489.716	7054.91
489.92	6848.07
490.124	6850.11
490.328	6956.61
490.531	6616.65
490.735	6608.45
490.939	6233.68
491.143	5963.34
491.346	6168.14
491.55	5920.34
491.754	5744.21
491.958	5932.62
492.161	5668.44
492.365	5518.93
492.569	5588.57
492.772	5514.84
492.976	5490.26
493.18	5232.22
493.383	5221.98
493.587	5248.6
493.79	5183.07
493.994	5019.23
494.197	5115.48
494.401	4963.93
494.605	5131.87
494.808	4951.65
495.012	4871.78
495.215	4867.68
495.419	4982.37
495.622	4703.84
495.825	4732.51
496.029	4654.69
496.232	4925.02
496.436	4695.65
496.639	4857.44
496.843	4652.64
497.046	4564.58
497.249	4732.51
497.453	4595.3
497.656	4607.59
497.859	4646.5
498.063	4765.28
498.266	4828.77
498.469	4660.84
498.673	4617.83
498.876	4726.37
499.079	4712.03
499.282	4714.08
499.485	5101.15
499.689	4791.91
499.892	4886.11
500.095	4836.96
500.298	4867.68
500.501	4943.46
500.705	4933.22
500.908	5197.4
501.111	4824.67
501.314	5000.8
501.517	5146.2
501.72	5277.27
501.923	5238.36
502.126	5338.71
502.329	5424.73
502.532	5535.32
502.735	5449.3
502.938	5563.99
503.141	5533.27
503.344	5641.81
503.547	5801.55
503.75	5750.35
503.953	5842.51
504.156	6063.69
504.359	5893.71
504.562	6133.33
504.765	6196.81
504.968	6364.75
505.17	6284.87
505.373	6366.79
505.576	6614.6
505.779	6678.08
505.982	6592.07
506.185	6882.88
506.387	6907.46
506.59	7083.58
506.793	7185.98
506.996	7392.83
507.198	7691.83
507.401	7605.81
507.604	7804.47
507.807	8044.08
508.009	8261.16
508.212	8128.05
508.415	8259.12
508.617	8586.79
508.82	8607.27
509.022	8674.85
509.225	9145.89
509.428	9242.14
509.63	9584.15
509.833	9635.35
510.035	10051.09
510.238	9979.41
510.44	10341.9
510.643	10530.31
510.845	10960.39
511.048	11122.18
511.25	11181.57
511.453	11523.58
511.655	12031.48
511.858	12113.39
512.06	12535.28
512.262	12563.95
512.465	12994.02
512.667	12932.58
512.87	13428.19
513.072	13673.95
513.274	14228.95
513.477	14366.16
513.679	14589.39
513.881	15103.43
514.084	15373.76
514.286	15662.52
514.488	16029.11
514.69	16625.07
514.893	16643.5
515.095	17100.2
515.297	17692.06
515.499	17892.76
515.701	18281.88
515.904	18781.58
516.106	19240.33
516.308	19506.56
516.51	19910.01
516.712	20178.29
516.914	20911.47
517.116	21222.76
517.318	21575.01
517.52	21654.88
517.722	22000.99
517.925	22826.32
518.127	23405.89
518.329	23735.62
518.531	23930.17
518.733	24452.41
518.935	24792.37
519.136	25109.8
519.338	25554.21
519.54	26049.82
519.742	26586.39
519.944	26801.43
520.146	27604.23
520.348	27776.26
520.55	27954.43
520.752	28390.65
520.954	29379.82
521.155	28785.91
521.357	29977.83
521.559	30115.04
521.761	30651.61
521.963	30594.26
522.164	31007.95
522.366	31354.06
522.568	31327.44
522.77	31962.31
522.971	32373.95
523.173	31902.92
523.375	32355.52
523.576	32660.66
523.778	32685.24
523.98	33199.28
524.181	33289.39
524.383	33146.03
524.584	33356.97
524.786	33586.35
524.988	33389.74
525.189	34020.52
525.391	33961.12
525.592	34049.19
525.794	34178.21
525.995	33989.8
526.197	34161.83
526.398	34167.97
526.6	34135.2
526.801	33752.23
527.003	33586.35
527.204	33997.99
527.406	33762.47
527.607	33721.51
527.808	33803.43
528.01	32787.64
528.211	32984.24
528.412	32890.04
528.614	33172.66
528.815	32902.32
529.016	32740.54
529.218	32152.77
529.419	31837.38
529.62	31421.64
529.822	31374.54
530.023	31010
530.224	30866.64
530.425	30819.54
530.626	29990.11
530.828	29695.21
531.029	30004.45
531.23	29199.6
531.431	29101.29
531.632	28747
531.833	28540.15
532.035	27786.5
532.236	27729.16
532.437	27516.17
532.638	26920.21
532.839	26836.24
533.04	26869.01
533.241	26039.58
533.442	26266.91
533.643	25330.98
533.844	25193.77
534.045	24905.01
534.246	24378.68
534.447	24350.01
534.648	23889.21
534.849	23672.13
535.05	23049.55
535.251	22863.18
535.451	22605.14
535.652	22369.62
535.853	21628.26
536.054	22035.8
536.255	21525.86
536.456	21149.03
536.657	21153.13
536.857	20252.02
537.058	20309.36
537.259	20186.49
537.46	19965.31
537.66	19320.2
537.861	19182.98
538.062	18795.92
538.263	18769.29
538.463	18615.69
538.664	18247.06
538.865	18296.21
539.065	18083.22
539.266	17583.52
539.466	17880.47
539.667	17384.87
539.868	17290.66
540.068	17010.09
540.269	16661.93
540.469	16840.11
540.67	16260.53
540.87	16207.28
541.071	15914.42
541.271	15861.18
541.472	15596.99
541.672	15560.13
541.873	15062.47
542.073	14888.39
542.274	15365.57
542.474	14849.48
542.675	14435.79
542.875	14437.84
543.075	14357.97
543.276	14046.68
543.476	14190.03
543.676	13596.12
543.877	13694.43
544.077	13518.3
544.277	13518.3
544.478	12994.02
544.678	12768.74
544.878	12934.63
545.078	12662.25
545.279	12475.88
545.479	12402.16
545.679	12375.53
545.879	12133.87
546.079	12002.8
546.28	11726.33
546.48	11746.81
546.68	11556.35
546.88	11603.45
547.08	11462.14
547.28	11079.17
547.48	10923.52
547.68	11105.79
547.88	10855.94
548.081	10917.38
548.281	10538.51
548.481	10155.54
548.681	10266.13
548.881	10077.71
549.081	10012.18
549.28	9776.66
549.48	9870.87
549.68	9692.69
549.88	9674.26
550.08	9248.29
550.28	9125.41
550.48	9293.34
550.68	8980
550.88	8609.32
551.08	8697.38
551.279	8812.07
551.479	8496.68
551.679	8420.91
551.879	8144.43
552.079	8021.55
552.278	7878.19
552.478	8074.8
552.678	7706.17
552.878	7769.65
553.077	7476.79
553.277	7403.07
553.477	7401.02
553.676	7235.13
553.876	7007.81
554.076	7009.86
554.275	7106.11
554.475	6796.87
554.674	6829.63
554.874	6530.63
555.074	6452.81
555.273	6420.04
555.473	6164.04
555.672	5961.3
555.872	6075.98
556.071	6039.12
556.271	6067.79
556.47	5809.75
556.67	5803.6
556.869	5510.74
557.068	5432.92
557.268	5525.08
557.467	5219.93
557.667	5219.93
557.866	5158.49
558.065	4953.7
558.265	4968.03
558.464	4806.24
558.663	4822.63
558.863	4599.4
559.062	4683.36
559.261	4544.1
559.461	4642.4
559.66	4384.36
559.859	4310.63
560.058	4169.32
560.258	4042.35
560.457	4036.21
560.656	4163.18
560.855	3987.05
561.054	4036.21
561.253	3845.74
561.453	3829.36
561.652	3665.52
561.851	3802.74
562.05	3620.47
562.249	3614.32
562.448	3612.28
562.647	3339.9
562.846	3526.26
563.045	3327.61
563.244	3430.01
563.443	3372.66
563.642	3194.49
563.841	3364.47
564.04	3100.28
564.239	3094.14
564.438	2999.93
564.637	2887.29
564.836	2967.17
565.035	3032.7
565.234	2887.29
565.432	2819.71
565.631	2807.42
565.83	2719.36
566.029	2668.16
566.228	2637.44
566.427	2764.42
566.625	2449.03
566.824	2600.58
567.023	2479.75
567.222	2416.26
567.42	2401.93
567.619	2408.07
567.818	2371.21
568.016	2426.5
568.215	2170.51
568.414	2371.21
568.612	2295.43
568.811	2375.3
569.01	2168.46
569.208	2096.78
569.407	2168.46
569.605	2143.88
569.804	2041.48
570.002	2078.35
570.201	2047.63
570.4	1861.26
570.598	1992.33
570.797	1836.69
570.995	1826.45
571.193	1857.17
571.392	1793.68
571.59	1658.51
571.789	1758.86
571.987	1775.25
572.186	1820.3
572.384	1644.18
572.582	1599.12
572.781	1742.48
572.979	1496.72
573.177	1502.87
573.376	1537.68
573.574	1670.8
573.772	1425.04
573.971	1402.52
574.169	1263.26
574.367	1480.34
574.565	1429.14
574.763	1336.98
574.962	1330.84
575.16	1400.47
575.358	1212.06
575.556	1261.21
575.754	1300.12
575.952	1226.39
576.151	1273.5
576.349	1300.12
576.547	1134.23
576.745	1185.43
576.943	1078.94
577.141	1142.43
577.339	1011.36
577.537	1091.23
577.735	1218.2
577.933	1167
578.131	978.59
578.329	1130.14
578.527	1042.07
578.725	1091.23
578.923	872.09
579.121	1033.88
579.319	824.99
579.516	884.38
579.714	1138.33
579.912	929.44
580.11	804.51
580.308	824.99
580.506	796.32
580.704	775.84
580.901	790.17
581.099	849.57
581.297	718.5
581.495	753.31
581.692	732.83
581.89	898.72
582.088	786.08
582.285	771.74
582.483	812.7
582.681	759.46
582.878	677.54
583.076	798.37
583.274	722.59
583.471	743.07
583.669	644.77
583.866	624.29
584.064	607.91
584.262	675.49
584.459	667.3
584.657	679.58
584.854	706.21
585.052	675.49
585.249	587.43
585.447	642.72
585.644	425.64
585.841	675.49
586.039	644.77
586.236	736.93
586.434	620.19
586.631	482.98
586.828	579.23
587.026	577.19
587.223	417.44
587.42	517.79
587.618	540.32
587.815	695.97
588.012	454.31
588.21	505.51
588.407	638.62
588.604	472.74
588.801	442.02
588.999	458.4
589.196	573.09
589.393	489.12
589.59	503.46
589.787	568.99
589.984	480.93
590.182	388.77
590.379	366.25
590.576	480.93
590.773	546.47
590.97	456.36
591.167	550.56
591.364	528.03
591.561	411.3
591.758	540.32
591.955	497.32
592.152	509.6
592.349	331.43
592.546	427.68
592.743	356.01
592.94	415.4
593.137	517.79
593.334	536.23
593.531	556.71
593.727	489.12
593.924	419.49
594.121	474.79
594.318	407.2
594.515	478.88
594.712	573.09
594.908	538.27
595.105	366.25
595.302	466.6
595.499	456.36
595.696	585.38
595.892	480.93
596.089	591.52
596.286	489.12
596.482	681.63
596.679	573.09
596.876	564.9
597.072	603.81
597.269	589.47
597.466	609.95
597.662	603.81
597.859	591.52
598.055	573.09
598.252	659.1
598.448	804.51
598.645	753.31
598.841	767.65
599.038	865.95
599.234	882.33
599.431	741.02
599.627	829.09
599.824	818.85
600.02	865.95
600.217	781.98
600.413	1021.6
600.609	1054.36
600.806	1253.02
601.002	1048.22
601.198	1115.8
601.395	1187.48
601.591	1097.37
601.787	1203.86
601.984	1396.37
602.18	1349.27
602.376	1330.84
602.572	1396.37
602.769	1515.16
602.965	1478.29
603.161	1678.99
603.357	1625.75
603.553	1689.23
603.75	1678.99
603.946	1775.25
604.142	1726.1
604.338	1930.89
604.534	1797.78
604.73	2000.52
604.926	2053.77
605.122	2178.7
605.318	2145.93
605.514	2297.48
605.71	2209.42
605.906	2483.84
606.102	2277
606.298	2485.89
606.494	2737.79
606.69	2678.4
606.886	2725.51
607.082	2733.7
607.278	2764.42
607.474	2918.01
607.67	3042.94
607.866	2915.97
608.062	3296.89
608.257	3239.55
608.453	3421.81
608.649	3413.62
608.845	3462.77
609.041	3544.69
609.236	3729.01
609.432	3909.23
609.628	3950.19
609.824	4083.31
610.019	4009.58
610.215	4247.15
610.411	4564.58
610.606	4470.37
610.802	4570.72
610.998	4705.89
611.193	4851.3
611.389	4830.82
611.584	5029.47
611.78	5140.06
611.976	5305.95
612.171	5664.34
612.367	5557.85
612.562	5647.96
612.758	5824.08
612.953	5992.02
613.149	6264.4
613.344	6241.87
613.539	6372.94
613.735	6688.32
613.93	6932.03
614.126	6964.8
614.321	7312.96
614.517	7505.46
614.712	7599.67
614.907	7638.58
615.103	7841.33
615.298	8048.18
615.493	8224.3
615.688	8361.52
615.884	8971.81
616.079	8797.73
616.274	9395.74
616.47	9291.29
616.665	9520.67
616.86	9809.43
617.055	10114.58
617.25	10276.37
617.445	10733.06
617.641	10651.14
617.836	11056.64
618.031	11214.34
618.226	11578.87
618.421	11898.36
618.616	12291.57
618.811	12293.62
619.006	12592.62
619.201	12846.57
619.396	13295.07
619.591	13374.94
619.786	13829.59
619.981	13950.42
620.176	14335.44
620.371	14540.24
620.566	14986.69
620.761	15177.16
620.956	15568.32
621.151	15709.63
621.346	16002.49
621.541	16465.33
621.735	16942.5
621.93	17149.35
622.125	17327.52
622.32	17653.15
622.515	17759.64
622.709	18208.15
622.904	18552.21
623.099	19047.82
623.294	19627.39
623.488	19580.29
623.683	20151.67
623.878	20309.36
624.072	20536.69
624.267	20823.4
624.462	21071.21
624.656	21173.61
624.851	21892.44
625.046	22136.15
625.24	22369.62
625.435	22369.62
625.629	23020.88
625.824	23264.58
626.018	23262.54
626.213	23506.24
626.407	24030.52
626.602	23909.69
626.796	24444.21
626.991	24657.2
627.185	24786.22
627.38	24626.48
627.574	24927.53
627.768	25271.59
627.963	25273.64
628.157	25460.01
628.352	25648.42
628.546	25193.77
628.74	25642.28
628.935	25373.99
629.129	25433.38
629.323	25335.08
629.517	25015.6
629.712	25228.59
629.906	24804.66
630.1	24405.3
630.294	23964.99
630.489	23915.84
630.683	23711.04
630.877	23133.51
631.071	22912.33
631.265	22220.12
631.459	21747.04
631.653	21532
631.848	20866.41
632.042	20100.47
632.236	20079.99
632.43	19336.58
632.624	18980.23
632.818	18290.07
633.012	17517.98
633.206	16874.92
633.4	16862.63
633.594	15959.48
633.788	15488.45
633.982	15152.58
634.176	14400.97
634.369	13733.34
634.563	13204.96
634.757	12754.41
634.951	12291.57
635.145	11863.54
635.339	11427.32
635.533	10905.09
635.726	10645
635.92	9981.46
636.114	9647.64
636.308	9461.27
636.501	8900.13
636.695	8468.01
636.889	8156.72
637.083	7933.49
637.276	7575.1
637.47	7181.89
637.664	6788.68
637.857	6657.61
638.051	6331.98
638.244	6164.04
638.438	5985.87
638.632	5801.55
638.825	5127.77
639.019	5336.67
639.212	4992.61
639.406	4843.1
639.599	4519.53
639.793	4413.03
639.986	4306.54
640.18	4183.66
640.373	3952.24
640.567	3786.35
640.76	3696.24
640.954	3393.14
641.147	3282.55
641.34	3184.25
641.534	3219.07
641.727	3155.58
641.92	2973.31
642.114	2971.26
642.307	2756.22
642.5	2629.25
642.694	2418.31
642.887	2469.51
643.08	2440.84
643.273	2330.25
643.467	2121.35
643.66	2000.52
643.853	1949.32
644.046	2049.68
644.239	1879.69
644.432	1693.33
644.626	1674.9
644.819	1656.47
645.012	1554.07
645.205	1533.59
645.398	1541.78
645.591	1388.18
645.784	1312.41
645.977	1244.82
646.17	1189.53
646.363	1240.73
646.556	1101.47
646.749	966.3
646.942	1064.6
647.135	1169.05
647.328	1097.37
647.521	1033.88
647.714	837.28
647.907	949.92
648.099	822.94
648.292	868
648.485	822.94
648.678	718.5
648.871	804.51
649.064	781.98
649.256	661.15
649.449	618.15
649.642	646.82
649.835	581.28
650.027	525.99
650.22	700.06
650.413	491.17
650.605	562.85
650.798	466.6
650.991	460.45
651.183	517.79
651.376	597.67
651.568	595.62
651.761	454.31
651.954	435.88
652.146	409.25
652.339	501.41
652.531	444.07
652.724	284.33
652.916	431.78
653.109	267.94
653.301	501.41
653.494	413.35
653.686	415.4
653.879	390.82
654.071	519.84
654.263	261.8
654.456	304.81
654.648	337.57
654.84	353.96
655.033	235.18
655.225	429.73
655.417	206.5
655.61	335.53
655.802	313
655.994	517.79
656.186	237.22
656.379	337.57
656.571	186.02
656.763	196.26
656.955	233.13
657.148	237.22
657.34	390.82
657.532	140.97
657.724	169.64
657.916	214.7
658.108	294.57
658.3	231.08
658.492	274.09
658.684	261.8
658.876	272.04
659.068	175.78
659.26	106.15
659.452	153.26
659.644	192.17
659.836	343.72
660.028	169.64
660.22	216.74
660.412	181.93
660.604	212.65
660.796	226.98
660.988	257.7
661.18	130.73
661.372	235.18
661.563	255.65
661.755	218.79
661.947	44.71
662.139	102.06
662.331	190.12
662.522	147.11
662.714	134.82
662.906	188.07
663.097	159.4
663.289	104.11
663.481	100.01
663.673	186.02
663.864	138.92
664.056	294.57
664.247	93.87
664.439	224.94
664.631	165.54
664.822	224.94
665.014	220.84
665.205	3.75
665.397	65.19
665.588	102.06
665.78	93.87
665.971	194.22
666.163	163.5
666.354	235.18
666.546	67.24
666.737	147.11
666.929	108.2
667.12	173.74
667.311	202.41
667.503	183.98
667.694	222.89
667.885	169.64
668.077	132.78
668.268	59.05
668.459	212.65
668.651	206.5
668.842	147.11
669.033	67.24
669.224	52.91
669.416	345.77
669.607	87.72
669.798	11.95
669.989	206.5
670.18	83.63
670.371	216.74
670.563	95.91
670.754	253.61
670.945	165.54
671.136	167.59
671.327	77.48
671.518	220.84
671.709	245.41
671.9	183.98
672.091	233.13
672.282	190.12
672.473	200.36
672.664	9.9
672.855	169.64
673.046	153.26
673.237	265.89
673.428	173.74
673.619	183.98
673.809	91.82
674	298.66
674.191	267.94
674.382	108.2
674.573	147.11
674.764	151.21
674.954	206.5
675.145	85.67
675.336	69.29
675.527	140.97
675.717	169.64
675.908	138.92
676.099	126.63
676.289	181.93
676.48	106.15
676.671	136.87
676.861	212.65
677.052	196.26
677.243	173.74
677.433	114.34
677.624	130.73
677.814	147.11
678.005	186.02
678.195	218.79
678.386	179.88
678.576	155.3
678.767	112.3
678.957	161.45
679.148	296.61
679.338	300.71
679.529	190.12
679.719	194.22
679.909	218.79
680.1	218.79
680.29	218.79
680.481	69.29
680.671	190.12
680.861	243.37
681.052	253.61
681.242	177.83
681.432	216.74
681.622	214.7
681.813	136.87
682.003	276.13
682.193	149.16
682.383	200.36
682.573	218.79
682.764	196.26
682.954	208.55
683.144	335.53
683.334	157.35
683.524	286.37
683.714	245.41
683.904	298.66
684.094	165.54
684.284	210.6
684.474	321.19
684.664	296.61
684.854	245.41
685.044	132.78
685.234	175.78
685.424	120.49
685.614	167.59
685.804	323.24
685.994	198.31
686.184	251.56
686.374	212.65
686.564	259.75
686.753	245.41
686.943	163.5
687.133	140.97
687.323	245.41
687.513	222.89
687.702	229.03
687.892	200.36
688.082	245.41
688.272	327.33
688.461	265.89
688.651	401.06
688.841	239.27
689.03	165.54
689.22	239.27
689.41	323.24
689.599	278.18
689.789	116.39
689.979	310.95
690.168	224.94
690.358	304.81
690.547	253.61
690.737	237.22
690.926	263.85
691.116	231.08
691.305	249.51
691.495	239.27
691.684	140.97
691.874	175.78
692.063	237.22
692.252	194.22
692.442	300.71
692.631	235.18
692.82	171.69
693.01	218.79
693.199	177.83
693.388	231.08
693.578	177.83
693.767	222.89
693.956	233.13
694.146	210.6
694.335	239.27
694.524	186.02
694.713	243.37
694.902	192.17
695.092	173.74
695.281	157.35
695.47	190.12
695.659	171.69
695.848	140.97
696.037	181.93
696.226	347.81
696.415	239.27
696.604	353.96
696.793	317.09
696.982	229.03
697.171	329.38
697.36	216.74
697.549	245.41
697.738	167.59
697.927	42.67
698.116	157.35
698.305	274.09
698.494	204.46
698.683	237.22
698.872	308.9
699.061	110.25
699.25	155.3
699.438	259.75
699.627	122.54
699.816	317.09
700.005	183.98
700.193	151.21
700.382	280.23
700.571	235.18
700.76	204.46
700.948	345.77
701.137	269.99
701.326	233.13
701.514	226.98
701.703	255.65
701.892	192.17
702.08	319.14
702.269	235.18
702.457	140.97
702.646	222.89
702.834	173.74
703.023	233.13
703.212	161.45
703.4	218.79
703.589	57
703.777	247.46
703.965	128.68
704.154	224.94
704.342	118.44
704.531	163.5
704.719	296.61
704.907	278.18
705.096	120.49
705.284	192.17
705.472	122.54
705.661	267.94
705.849	220.84
706.037	210.6
706.226	122.54
706.414	267.94
706.602	155.3
706.79	233.13
706.979	192.17
707.167	169.64
707.355	93.87
707.543	231.08
707.731	243.37
707.919	269.99
708.107	239.27
708.296	173.74
708.484	145.06
708.672	198.31
708.86	267.94
709.048	267.94
709.236	177.83
709.424	226.98
709.612	313
709.8	108.2
709.988	161.45
710.176	188.07
710.364	317.09
710.551	208.55
710.739	235.18
710.927	181.93
711.115	280.23
711.303	292.52
711.491	306.85
711.679	190.12
711.866	253.61
712.054	192.17
712.242	177.83
712.43	302.76
712.617	202.41
712.805	224.94
712.993	267.94
713.181	67.24
713.368	235.18
713.556	175.78
713.744	251.56
713.931	335.53
714.119	282.28
714.306	110.25
714.494	163.5
714.682	218.79
714.869	91.82
715.057	151.21
715.244	108.2
715.432	196.26
715.619	173.74
715.807	233.13
715.994	100.01
716.182	214.7
716.369	292.52
716.556	263.85
716.744	147.11
716.931	67.24
717.119	206.5
717.306	235.18
717.493	368.29
717.681	188.07
717.868	196.26
718.055	364.2
718.242	304.81
718.43	259.75
718.617	292.52
718.804	194.22
718.991	300.71
719.179	317.09
719.366	333.48
719.553	247.46
719.74	155.3
719.927	204.46
720.114	278.18
720.301	153.26
720.488	214.7
720.676	106.15
720.863	235.18
721.05	310.95
721.237	384.68
721.424	335.53
721.611	319.14
721.798	179.88
721.985	151.21
722.172	220.84
722.358	243.37
722.545	327.33
722.732	282.28
722.919	431.78
723.106	284.33
723.293	245.41
723.48	192.17
723.667	177.83
723.853	333.48
724.04	325.29
724.227	364.2
724.414	261.8
724.6	433.83
724.787	347.81
724.974	388.77
725.161	218.79
725.347	229.03
725.534	265.89
725.72	376.48
725.907	308.9
726.094	333.48
726.28	247.46
726.467	280.23
726.653	249.51
726.84	409.25
727.027	366.25
727.213	243.37
727.4	319.14
727.586	308.9
727.773	272.04
727.959	181.93
728.145	280.23
728.332	317.09
728.518	214.7
728.705	261.8
728.891	337.57
729.077	247.46
729.264	163.5
729.45	247.46
729.636	278.18
729.823	341.67
730.009	263.85
730.195	288.42
730.382	249.51
730.568	210.6
730.754	198.31
730.94	276.13
731.126	243.37
731.313	327.33
731.499	245.41
731.685	349.86
731.871	306.85
732.057	341.67
732.243	331.43
732.429	394.92
732.615	390.82
732.801	286.37
732.987	288.42
733.173	315.05
733.359	337.57
733.545	378.53
733.731	345.77
733.917	423.59
734.103	292.52
734.289	370.34
734.475	315.05
734.661	399.01
734.847	308.9
735.033	345.77
735.219	351.91
735.404	448.16
735.59	302.76
735.776	329.38
735.962	321.19
736.148	384.68
736.333	372.39
736.519	323.24
736.705	269.99
736.89	317.09
737.076	290.47
737.262	313
737.447	325.29
737.633	300.71
737.819	386.72
738.004	267.94
738.19	310.95
738.375	339.62
738.561	360.1
738.747	263.85
738.932	181.93
739.118	464.55
739.303	356.01
739.489	317.09
739.674	245.41
739.859	202.41
740.045	313
740.23	380.58
740.416	138.92
740.601	345.77
740.786	415.4
740.972	263.85
741.157	298.66
741.342	210.6
741.528	245.41
741.713	356.01
741.898	241.32
742.084	255.65
742.269	269.99
742.454	364.2
742.639	374.44
742.824	317.09
743.01	403.11
743.195	376.48
743.38	327.33
743.565	212.65
743.75	226.98
743.935	288.42
744.12	333.48
744.305	198.31
744.49	267.94
744.675	321.19
744.86	237.22
745.045	329.38
745.23	259.75
745.415	239.27
745.6	433.83
745.785	280.23
745.97	347.81
746.155	329.38
746.34	394.92
746.525	382.63
746.71	411.3
746.895	214.7
747.079	212.65
747.264	243.37
747.449	388.77
747.634	306.85
747.819	317.09
748.003	265.89
748.188	192.17
748.373	382.63
748.557	313
748.742	333.48
748.927	233.13
749.111	298.66
749.296	308.9
749.481	310.95
749.665	206.5
749.85	302.76
750.034	349.86
750.219	255.65
750.404	319.14
750.588	358.05
750.773	220.84
750.957	313
751.141	202.41
751.326	321.19
751.51	136.87
751.695	251.56
751.879	183.98
752.064	366.25
752.248	229.03
752.432	362.15
752.617	362.15
752.801	315.05
752.985	267.94
753.17	276.13
753.354	239.27
753.538	327.33
753.722	161.45
753.907	167.59
754.091	155.3
754.275	390.82
754.459	106.15
754.643	120.49
754.828	310.95
755.012	255.65
755.196	169.64
755.38	278.18
755.564	194.22
755.748	290.47
755.932	294.57
756.116	224.94
756.3	280.23
756.484	202.41
756.668	222.89
756.852	155.3
757.036	222.89
757.22	181.93
757.404	208.55
757.588	198.31
757.772	218.79
757.956	179.88
758.14	351.91
758.323	155.3
758.507	237.22
758.691	163.5
758.875	278.18
759.059	274.09
759.242	134.82
759.426	247.46
759.61	202.41
759.794	124.58
759.977	218.79
760.161	388.77
760.345	237.22
760.528	212.65
760.712	241.32
760.895	284.33
761.079	206.5
761.263	114.34
761.446	102.06
761.63	163.5
761.813	286.37
761.997	104.11
762.18	138.92
762.364	276.13
762.547	81.58
762.731	179.88
762.914	235.18
763.098	179.88
763.281	177.83
763.464	91.82
763.648	108.2
763.831	120.49
764.015	97.96
764.198	157.35
764.381	147.11
764.564	177.83
764.748	190.12
764.931	198.31
765.114	169.64
765.297	202.41
765.481	112.3
765.664	169.64
765.847	85.67
766.03	315.05
766.213	91.82
766.397	95.91
766.58	112.3
766.763	196.26
766.946	143.02
767.129	130.73
767.312	188.07
767.495	95.91
767.678	157.35
767.861	85.67
768.044	196.26
768.227	83.63
768.41	147.11
768.593	192.17
768.776	165.54
768.959	179.88
769.142	220.84
769.324	145.06
769.507	81.58
769.69	118.44
769.873	179.88
770.056	333.48
770.239	106.15
770.421	188.07
770.604	190.12
770.787	171.69
770.97	112.3
771.152	126.63
771.335	216.74
771.518	110.25
771.7	267.94
771.883	292.52
772.066	42.67
772.248	210.6
772.431	165.54
772.613	226.98
772.796	157.35
772.978	169.64
773.161	261.8
773.343	130.73
773.526	108.2
773.708	-10.58
773.891	63.15
774.073	153.26
774.256	61.1
774.438	278.18
774.621	145.06
774.803	118.44
774.985	42.67
775.168	183.98
775.35	77.48
775.532	186.02
775.715	11.95
775.897	157.35
776.079	77.48
776.261	145.06
776.444	126.63
776.626	59.05
776.808	143.02
776.99	106.15
777.173	69.29
777.355	196.26
777.537	181.93
777.719	114.34
777.901	100.01
778.083	46.76
778.265	48.81
778.447	186.02
778.629	83.63
778.811	83.63
778.993	169.64
779.175	175.78
779.357	95.91
779.539	95.91
779.721	118.44
779.903	183.98
780.085	114.34
780.267	69.29
780.449	73.39
780.631	106.15
780.812	132.78
780.994	110.25
781.176	28.33
781.358	3.75
781.54	153.26
781.721	153.26
781.903	108.2
782.085	87.72
782.267	134.82
782.448	26.28
782.63	40.62
782.812	104.11
782.993	102.06
783.175	136.87
783.357	83.63
783.538	161.45
783.72	20.14
783.901	42.67
784.083	81.58
784.264	124.58
784.446	36.52
784.627	50.86
784.809	130.73
784.99	28.33
785.172	140.97
785.353	57
785.535	177.83
785.716	-26.96
785.897	63.15
786.079	52.91
786.26	136.87
786.441	136.87
786.623	-76.12
786.804	71.34
786.985	85.67
787.167	124.58
787.348	85.67
787.529	128.68
787.71	243.37
787.891	75.43
788.073	54.95
788.254	-2.39
788.435	120.49
788.616	59.05
788.797	32.43
788.978	130.73
789.159	1.71
789.34	81.58
789.522	112.3
789.703	81.58
789.884	106.15
790.065	63.15
790.246	194.22
790.427	54.95
790.607	186.02
790.788	120.49
790.969	48.81
791.15	143.02
791.331	13.99
791.512	67.24
791.693	46.76
791.874	65.19
792.054	167.59
792.235	132.78
792.416	124.58
792.597	20.14
792.778	40.62
792.958	77.48
793.139	91.82
793.32	116.39
793.5	18.09
793.681	147.11
793.862	124.58
794.042	61.1
794.223	-29.01
794.404	22.19
794.584	-22.87
794.765	104.11
794.945	89.77
795.126	190.12
795.306	143.02
795.487	63.15
795.667	130.73
795.848	118.44
796.028	1.71
796.209	106.15
796.389	112.3
796.57	48.81
796.75	-2.39
796.93	71.34
797.111	106.15
797.291	13.99
797.471	108.2
797.652	20.14
797.832	54.95
798.012	95.91
798.192	42.67
798.373	61.1
798.553	30.38
798.733	83.63
798.913	34.47
799.093	26.28
799.274	67.24
799.454	48.81
799.634	163.5
799.814	161.45
799.994	73.39
800.174	126.63
800.354	52.91
800.534	-104.79
800.714	110.25
800.894	18.09
801.074	36.52
801.254	-0.34
801.434	147.11
801.614	36.52
801.794	-45.4
801.974	2031.24
802.154	63.15
802.334	110.25
802.514	5.8
802.693	116.39
802.873	106.15
803.053	145.06
803.233	95.91
803.413	54.95
803.592	1.71
803.772	48.81
803.952	16.04
804.131	-43.35
804.311	163.5
804.491	104.11
804.67	-2.39
804.85	-24.92
805.03	104.11
805.209	128.68
805.389	44.71
805.568	-29.01
805.748	48.81
805.928	40.62
806.107	87.72
806.287	50.86
806.466	79.53
806.646	48.81
806.825	-4.44
807.004	-26.96
807.184	112.3
807.363	32.43
807.543	89.77
807.722	40.62
807.901	204.46
808.081	151.21
808.26	-63.83
808.439	34.47
808.619	30.38
808.798	91.82
808.977	73.39
809.156	177.83
809.336	9.9
809.515	138.92
809.694	-10.58
809.873	24.23
810.052	132.78
810.231	138.92
810.411	44.71
810.59	130.73
810.769	-12.63
810.948	91.82
811.127	-108.88
811.306	18.09
811.485	75.43
811.664	124.58
811.843	57
812.022	52.91
812.201	-47.44
812.38	52.91
812.559	93.87
812.737	104.11
812.916	-43.35
813.095	-8.53
813.274	110.25
813.453	132.78
813.632	65.19
813.811	134.82
813.989	-35.16
814.168	26.28
814.347	-31.06
814.526	-6.49
814.704	81.58
814.883	114.34
815.062	-37.2
815.24	186.02
815.419	-20.82
815.598	65.19
815.776	-57.68
815.955	57
816.133	-92.5
816.312	9.9
816.49	18.09
816.669	54.95
816.847	30.38
817.026	42.67
817.204	-51.54
817.383	-24.92
817.561	48.81
817.74	67.24
817.918	9.9
818.097	-10.58
818.275	44.71
818.453	69.29
818.632	83.63
818.81	85.67
818.988	54.95
819.167	-8.53
819.345	48.81
819.523	-55.64
819.701	3.75
819.879	75.43
820.058	61.1
820.236	11.95
820.414	100.01
820.592	73.39
820.77	30.38
820.948	3.75
821.127	1.71
821.305	52.91
821.483	50.86
821.661	73.39
821.839	-8.53
822.017	46.76
822.195	79.53
822.373	13.99
822.551	85.67
822.729	93.87
822.907	30.38
823.085	63.15
823.262	20.14
823.44	-14.68
823.618	52.91
823.796	97.96
823.974	26.28
824.152	-6.49
824.329	46.76
824.507	57
824.685	57
824.863	-20.82
825.04	67.24
825.218	54.95
825.396	-10.58
825.574	63.15
825.751	28.33
825.929	24.23
826.107	-57.68
826.284	97.96
826.462	16.04
826.639	-0.34
826.817	9.9
826.994	32.43
827.172	-22.87
827.349	169.64
827.527	34.47
827.704	83.63
827.882	54.95
828.059	69.29
828.237	38.57
828.414	126.63
828.591	-63.83
828.769	87.72
828.946	36.52
829.124	61.1
829.301	136.87
829.478	-2.39
829.655	134.82
829.833	18.09
830.01	-88.4
830.187	95.91
830.364	61.1
830.542	71.34
830.719	179.88
830.896	100.01
831.073	95.91
831.25	26.28
831.427	67.24
831.604	-39.25
831.782	-37.2
831.959	-12.63
832.136	-41.3
832.313	50.86
832.49	18.09
832.667	61.1
832.844	-59.73
833.021	110.25
833.198	34.47
833.374	3.75
833.551	77.48
833.728	20.14
833.905	61.1
834.082	-78.16
834.259	54.95
834.436	159.4
834.612	30.38
834.789	95.91
834.966	69.29
835.143	30.38
835.319	-31.06
835.496	132.78
835.673	87.72
835.85	161.45
836.026	116.39
836.203	175.78
836.38	18.09
836.556	24.23
836.733	-39.25
836.909	126.63
837.086	-4.44
837.262	-6.49
837.439	30.38
837.616	-20.82
837.792	52.91
837.968	87.72
838.145	13.99
838.321	-0.34
838.498	108.2
838.674	75.43
838.851	59.05
839.027	85.67
839.203	77.48
839.38	134.82
839.556	3.75
839.732	32.43
839.909	108.2
840.085	153.26
840.261	-31.06
840.437	93.87
840.614	48.81
840.79	40.62
840.966	11.95
841.142	77.48
841.318	-12.63
841.494	91.82
841.671	128.68
841.847	-65.88
842.023	-88.4
842.199	48.81
842.375	155.3
842.551	-88.4
842.727	-31.06
842.903	173.74
843.079	-45.4
843.255	110.25
843.431	59.05
843.607	36.52
843.783	-115.03
843.959	124.58
844.134	3.75
844.31	161.45
844.486	-57.68
844.662	-10.58
844.838	11.95
845.013	71.34
845.189	91.82
845.365	83.63
845.541	-37.2
845.716	63.15
845.892	65.19
846.068	-24.92
846.244	-43.35
846.419	153.26
846.595	-55.64
846.77	9.9
846.946	102.06
847.122	-10.58
847.297	20.14
847.473	153.26
847.648	-8.53
847.824	9.9
847.999	-110.93
848.175	22.19
848.35	-4.44
848.526	124.58
848.701	65.19
848.876	136.87
849.052	61.1
849.227	77.48
849.403	-4.44
849.578	-24.92
849.753	71.34
849.929	38.57
850.104	-16.73
850.279	38.57
850.454	63.15
850.63	73.39
850.805	71.34
850.98	7.85
851.155	32.43
851.33	32.43
851.505	20.14
851.681	136.87
851.856	13.99
852.031	24.23
852.206	34.47
852.381	-14.68
852.556	-20.82
852.731	85.67
852.906	147.11
853.081	77.48
853.256	138.92
853.431	40.62
853.606	59.05
853.781	-106.84
853.956	-104.79
854.131	48.81
854.305	-37.2
854.48	63.15
854.655	-24.92
854.83	-29.01
855.005	-6.49
855.18	5.8
855.354	-67.92
855.529	79.53
855.704	-57.68
855.879	69.29
856.053	-74.07
856.228	44.71
856.403	24.23
856.577	87.72
856.752	-47.44
856.926	30.38
857.101	48.81
857.276	-22.87
857.45	97.96
857.625	38.57
857.799	57
857.974	1.71
858.148	-76.12
858.323	16.04
858.497	24.23
858.672	-22.87
858.846	-4.44
859.02	106.15
859.195	-26.96
859.369	5.8
859.543	30.38
859.718	-43.35
859.892	18.09
860.066	89.77
860.241	-26.96
860.415	-14.68
860.589	-6.49
860.763	38.57
860.938	22.19
861.112	106.15
861.286	11.95
861.46	83.63
861.634	-4.44
861.808	140.97
861.982	-8.53
862.157	-78.16
862.331	36.52
862.505	5.8
862.679	-31.06
862.853	-29.01
863.027	59.05
863.201	175.78
863.375	-55.64
863.549	30.38
863.722	50.86
863.896	75.43
864.07	-76.12
864.244	9.9
864.418	100.01
864.592	-2.39
864.766	77.48
864.939	61.1
865.113	-45.4
865.287	91.82
865.461	26.28
865.634	69.29
865.808	28.33
865.982	38.57
866.156	-10.58
866.329	-61.78
866.503	24.23
866.676	20.14
866.85	114.34
867.024	7.85
867.197	95.91
867.371	61.1
867.544	30.38
867.718	9.9
867.891	100.01
868.065	-57.68
868.238	48.81
868.412	102.06
868.585	36.52
868.759	32.43
868.932	-35.16
869.105	13.99
869.279	1.71
869.452	22.19
869.625	24.23
869.799	-12.63
869.972	-78.16
870.145	48.81
870.319	34.47
870.492	-10.58
870.665	-22.87
870.838	-104.79
871.011	-149.84
871.185	-18.77
871.358	-31.06
871.531	26.28
871.704	-65.88
871.877	30.38
872.05	-2.39
872.223	-53.59
872.396	93.87
872.569	147.11
872.742	-47.44
872.915	54.95
873.088	42.67
873.261	-8.53
873.434	59.05
873.607	18.09
873.78	149.16
873.953	-47.44
874.126	77.48
874.299	-2.39
874.471	5.8
874.644	-67.92
874.817	97.96
874.99	132.78
875.163	46.76
875.335	75.43
875.508	52.91
875.681	214.7
875.853	65.19
876.026	5.8
876.199	102.06
876.371	54.95
876.544	-6.49
876.717	89.77
876.889	26.28
877.062	50.86
877.234	-119.12
877.407	-22.87
877.579	77.48
877.752	69.29
877.924	175.78
878.097	81.58
878.269	-10.58
878.442	42.67
878.614	18.09
878.786	7.85
878.959	11.95
879.131	-14.68
879.303	-26.96
879.476	40.62
879.648	102.06
879.82	11.95
879.993	-82.26
880.165	-10.58
880.337	-2.39
880.509	18.09
880.681	-63.83
880.854	-47.44
881.026	151.21
881.198	155.3
881.37	11.95
881.542	26.28
881.714	-29.01
881.886	-112.98
882.058	83.63
882.23	34.47
882.402	11.95
882.574	36.52
882.746	110.25
882.918	97.96
883.09	20.14
883.262	-18.77
883.434	-31.06
883.606	-51.54
883.778	48.81
883.95	151.21
884.122	22.19
884.293	59.05
884.465	26.28
884.637	100.01
884.809	-119.12
884.98	54.95
885.152	57
885.324	134.82
885.496	-12.63
885.667	28.33
885.839	11.95
886.011	128.68
886.182	93.87
886.354	126.63
886.525	20.14
886.697	13.99
886.869	20.14
887.04	67.24
887.212	138.92
887.383	65.19
887.555	48.81
887.726	9.9
887.897	-22.87
888.069	-26.96
888.24	67.24
888.412	69.29
888.583	-10.58
888.754	-10.58
888.926	-72.02
889.097	1.71
889.268	-29.01
889.44	130.73
889.611	-35.16
889.782	-78.16
889.953	16.04
890.125	79.53
890.296	-33.11
890.467	7.85
890.638	-86.36
890.809	34.47
890.98	-43.35
891.151	77.48
891.323	140.97
891.494	-26.96
891.665	-31.06
891.836	34.47
892.007	75.43
892.178	36.52
892.349	36.52
892.52	71.34
892.691	20.14
892.862	-26.96
893.032	1.71
893.203	22.19
893.374	59.05
893.545	120.49
893.716	-18.77
893.887	89.77
894.057	20.14
894.228	57
894.399	3.75
894.57	145.06
894.74	9.9
894.911	91.82
895.082	34.47
895.253	-24.92
895.423	65.19
895.594	20.14
895.764	26.28
895.935	-61.78
896.106	57
896.276	24.23
896.447	91.82
896.617	16.04
896.788	-14.68
896.958	28.33
897.129	-12.63
897.299	63.15
897.47	108.2
897.64	93.87
897.81	-18.77
897.981	38.57
898.151	-39.25
898.322	54.95
898.492	114.34
898.662	11.95
898.832	-26.96
899.003	42.67
899.173	102.06
899.343	-24.92
899.513	-33.11
