Data from USB4F104151__8__09-24-48-925.txt Node

Date: Wed Feb 26 09:24:48 EST 2025
User: louis
Spectrometer: USB4F10415
Trigger mode: 4
Integration Time (sec): 1.000000E-1
Scans to average: 1
Electric dark correction enabled: true
Nonlinearity correction enabled: false
Boxcar width: 0
XAxis mode: Wavelengths
Number of Pixels in Spectrum: 3648
>>>>>Begin Spectral Data<<<<<
178.204	-281.77
178.424	-281.77
178.644	-281.77
178.864	-353.45
179.084	-347.3
179.304	-17.58
179.524	-48.3
179.744	-50.35
179.964	84.82
180.184	23.38
180.404	72.53
180.624	-9.39
180.844	-25.77
181.064	-46.25
181.283	72.53
181.503	-85.16
181.723	29.52
181.943	-117.93
182.163	170.83
182.383	41.81
182.602	152.4
182.822	154.45
183.042	29.52
183.262	31.57
183.482	105.3
183.701	19.29
183.921	41.81
184.141	-42.15
184.361	64.34
184.58	84.82
184.8	50
185.02	-19.63
185.239	45.91
185.459	93.01
185.679	72.53
185.898	-68.78
186.118	117.59
186.338	39.76
186.557	80.72
186.777	-74.92
186.997	37.72
187.216	15.19
187.436	179.03
187.655	37.72
187.875	97.11
188.095	64.34
188.314	95.06
188.534	107.35
188.753	-25.77
188.973	-25.77
189.192	138.07
189.412	31.57
189.631	23.38
189.851	66.39
190.07	133.97
190.29	33.62
190.509	-95.4
190.729	-27.82
190.948	148.31
191.168	242.51
191.387	84.82
191.607	23.38
191.826	15.19
192.045	7
192.265	15.19
192.484	52.05
192.704	-25.77
192.923	4.95
193.142	199.51
193.362	101.2
193.581	113.49
193.8	27.48
194.02	121.68
194.239	27.48
194.458	76.63
194.678	19.29
194.897	29.52
195.116	52.05
195.335	31.57
195.555	-95.4
195.774	-5.29
195.993	103.25
196.212	-46.25
196.432	39.76
196.651	13.14
196.87	37.72
197.089	232.27
197.308	111.44
197.528	133.97
197.747	-25.77
197.966	86.87
198.185	127.83
198.404	-66.73
198.623	68.44
198.842	107.35
199.062	107.35
199.281	47.96
199.5	39.76
199.719	80.72
199.938	45.91
200.157	154.45
200.376	80.72
200.595	109.4
200.814	52.05
201.033	0.85
201.252	125.78
201.471	54.1
201.69	37.72
201.909	68.44
202.128	31.57
202.347	160.59
202.566	7
202.785	-91.31
203.004	-52.39
203.223	195.41
203.442	52.05
203.661	-68.78
203.879	115.54
204.098	80.72
204.317	101.2
204.536	105.3
204.755	111.44
204.974	166.74
205.193	43.86
205.411	74.58
205.63	47.96
205.849	-15.53
206.068	-68.78
206.287	-5.29
206.505	35.67
206.724	47.96
206.943	-25.77
207.162	62.29
207.381	54.1
207.599	-9.39
207.818	31.57
208.037	-44.2
208.255	-38.06
208.474	37.72
208.693	80.72
208.911	-1.19
209.13	35.67
209.349	62.29
209.567	54.1
209.786	95.06
210.005	52.05
210.223	11.09
210.442	-33.96
210.661	93.01
210.879	7
211.098	35.67
211.316	45.91
211.535	27.48
211.753	31.57
211.972	72.53
212.191	11.09
212.409	70.48
212.628	27.48
212.846	-50.35
213.065	95.06
213.283	115.54
213.502	70.48
213.72	-25.77
213.938	68.44
214.157	-27.82
214.375	90.96
214.594	31.57
214.812	35.67
215.031	7
215.249	62.29
215.467	33.62
215.686	70.48
215.904	93.01
216.122	31.57
216.341	56.15
216.559	23.38
216.778	84.82
216.996	109.4
217.214	-60.59
217.432	15.19
217.651	-9.39
217.869	52.05
218.087	72.53
218.306	52.05
218.524	50
218.742	-25.77
218.96	80.72
219.179	7
219.397	50
219.615	236.37
219.833	125.78
220.051	21.33
220.27	179.03
220.488	133.97
220.706	50
220.924	-1.19
221.142	31.57
221.36	56.15
221.578	33.62
221.796	41.81
222.015	70.48
222.233	31.57
222.451	119.64
222.669	9.05
222.887	19.29
223.105	80.72
223.323	19.29
223.541	7
223.759	37.72
223.977	-36.01
224.195	111.44
224.413	101.2
224.631	35.67
224.849	109.4
225.067	219.99
225.285	-11.43
225.503	0.85
225.721	-50.35
225.939	54.1
226.157	-17.58
226.375	121.68
226.592	-70.83
226.81	148.31
227.028	-1.19
227.246	162.64
227.464	7
227.682	181.07
227.9	95.06
228.117	56.15
228.335	84.82
228.553	39.76
228.771	50
228.989	64.34
229.206	95.06
229.424	76.63
229.642	11.09
229.86	11.09
230.077	119.64
230.295	35.67
230.513	125.78
230.731	-1.19
230.948	262.99
231.166	125.78
231.384	29.52
231.601	-23.72
231.819	97.11
232.037	-25.77
232.254	-52.39
232.472	-29.87
232.689	-27.82
232.907	56.15
233.125	21.33
233.342	4.95
233.56	-46.25
233.777	43.86
233.995	60.24
234.213	164.69
234.43	21.33
234.648	33.62
234.865	86.87
235.083	43.86
235.3	97.11
235.518	99.16
235.735	66.39
235.953	125.78
236.17	7
236.388	-9.39
236.605	-13.48
236.822	4.95
237.04	131.92
237.257	68.44
237.475	2.9
237.692	93.01
237.909	88.92
238.127	-25.77
238.344	105.3
238.562	64.34
238.779	-93.35
238.996	-115.88
239.214	66.39
239.431	60.24
239.648	-52.39
239.865	15.19
240.083	66.39
240.3	-27.82
240.517	29.52
240.735	101.2
240.952	168.79
241.169	127.83
241.386	76.63
241.603	54.1
241.821	-42.15
242.038	68.44
242.255	62.29
242.472	-29.87
242.689	41.81
242.907	15.19
243.124	2.9
243.341	52.05
243.558	2.9
243.775	-40.11
243.992	-42.15
244.209	113.49
244.426	144.21
244.643	64.34
244.86	-60.59
245.078	119.64
245.295	21.33
245.512	39.76
245.729	-52.39
245.946	50
246.163	-9.39
246.38	21.33
246.597	39.76
246.814	39.76
247.031	39.76
247.248	-1.19
247.464	41.81
247.681	84.82
247.898	-1.19
248.115	39.76
248.332	-46.25
248.549	117.59
248.766	154.45
248.983	119.64
249.2	35.67
249.417	111.44
249.633	23.38
249.85	-1.19
250.067	-3.24
250.284	88.92
250.501	9.05
250.717	88.92
250.934	-58.54
251.151	70.48
251.368	35.67
251.585	72.53
251.801	70.48
252.018	-25.77
252.235	125.78
252.451	-74.92
252.668	23.38
252.885	37.72
253.102	17.24
253.318	23.38
253.535	0.85
253.752	-21.67
253.968	66.39
254.185	-50.35
254.401	-3.24
254.618	39.76
254.835	-52.39
255.051	123.73
255.268	60.24
255.484	-9.39
255.701	-52.39
255.917	127.83
256.134	45.91
256.351	86.87
256.567	-54.44
256.784	19.29
257	-36.01
257.217	64.34
257.433	60.24
257.65	76.63
257.866	111.44
258.082	-72.87
258.299	2.9
258.515	103.25
258.732	15.19
258.948	62.29
259.165	52.05
259.381	-91.31
259.597	25.43
259.814	-11.43
260.03	82.77
260.246	-33.96
260.463	127.83
260.679	181.07
260.895	-17.58
261.112	80.72
261.328	-3.24
261.544	-27.82
261.761	103.25
261.977	47.96
262.193	-42.15
262.409	54.1
262.626	150.36
262.842	-17.58
263.058	4.95
263.274	-19.63
263.49	78.68
263.707	23.38
263.923	60.24
264.139	-36.01
264.355	39.76
264.571	123.73
264.787	64.34
265.004	117.59
265.22	101.2
265.436	-9.39
265.652	19.29
265.868	23.38
266.084	-7.34
266.3	-15.53
266.516	2.9
266.732	7
266.948	-44.2
267.164	11.09
267.38	66.39
267.596	103.25
267.812	142.16
268.028	4.95
268.244	-3.24
268.46	64.34
268.676	-15.53
268.892	62.29
269.108	72.53
269.324	21.33
269.54	-44.2
269.756	52.05
269.972	-42.15
270.188	7
270.403	-33.96
270.619	109.4
270.835	62.29
271.051	95.06
271.267	-33.96
271.483	74.58
271.698	25.43
271.914	90.96
272.13	-9.39
272.346	-58.54
272.562	23.38
272.777	154.45
272.993	70.48
273.209	-42.15
273.425	23.38
273.64	-13.48
273.856	125.78
274.072	2.9
274.287	31.57
274.503	86.87
274.719	109.4
274.934	68.44
275.15	-7.34
275.366	27.48
275.581	60.24
275.797	-42.15
276.012	72.53
276.228	-15.53
276.444	39.76
276.659	181.07
276.875	-76.97
277.09	-54.44
277.306	-7.34
277.521	80.72
277.737	78.68
277.952	-25.77
278.168	37.72
278.383	58.2
278.599	29.52
278.814	88.92
279.03	2.9
279.245	54.1
279.461	-17.58
279.676	68.44
279.892	-31.91
280.107	-1.19
280.322	-23.72
280.538	86.87
280.753	-21.67
280.969	-9.39
281.184	23.38
281.399	113.49
281.615	-3.24
281.83	52.05
282.045	-58.54
282.26	-38.06
282.476	19.29
282.691	150.36
282.906	31.57
283.122	84.82
283.337	-9.39
283.552	19.29
283.767	37.72
283.983	17.24
284.198	27.48
284.413	21.33
284.628	-40.11
284.843	70.48
285.058	47.96
285.274	-25.77
285.489	-5.29
285.704	138.07
285.919	27.48
286.134	-13.48
286.349	-3.24
286.564	15.19
286.779	138.07
286.995	62.29
287.21	-68.78
287.425	86.87
287.64	-44.2
287.855	39.76
288.07	-83.11
288.285	93.01
288.5	105.3
288.715	97.11
288.93	45.91
289.145	-29.87
289.36	80.72
289.575	23.38
289.79	47.96
290.004	-29.87
290.219	27.48
290.434	-101.55
290.649	-17.58
290.864	7
291.079	29.52
291.294	11.09
291.509	47.96
291.724	62.29
291.938	56.15
292.153	35.67
292.368	-25.77
292.583	-13.48
292.798	84.82
293.012	76.63
293.227	80.72
293.442	-46.25
293.657	144.21
293.871	74.58
294.086	70.48
294.301	144.21
294.516	56.15
294.73	62.29
294.945	0.85
295.16	11.09
295.374	168.79
295.589	103.25
295.804	-19.63
296.018	-33.96
296.233	90.96
296.447	15.19
296.662	-27.82
296.877	109.4
297.091	-5.29
297.306	4.95
297.52	-5.29
297.735	84.82
297.949	4.95
298.164	25.43
298.378	33.62
298.593	4.95
298.807	-15.53
299.022	31.57
299.236	142.16
299.451	23.38
299.665	39.76
299.88	58.2
300.094	-5.29
300.309	62.29
300.523	-11.43
300.737	52.05
300.952	109.4
301.166	90.96
301.381	-25.77
301.595	2.9
301.809	-9.39
302.024	33.62
302.238	31.57
302.452	154.45
302.667	43.86
302.881	62.29
303.095	31.57
303.309	-3.24
303.524	-38.06
303.738	4.95
303.952	-25.77
304.166	27.48
304.381	-17.58
304.595	109.4
304.809	-52.39
305.023	-15.53
305.237	-1.19
305.452	62.29
305.666	70.48
305.88	50
306.094	138.07
306.308	39.76
306.522	162.64
306.736	93.01
306.95	142.16
307.164	-13.48
307.379	72.53
307.593	166.74
307.807	39.76
308.021	29.52
308.235	68.44
308.449	-48.3
308.663	4.95
308.877	191.31
309.091	-9.39
309.305	21.33
309.519	-56.49
309.733	105.3
309.947	-29.87
310.161	58.2
310.374	29.52
310.588	78.68
310.802	-95.4
311.016	29.52
311.23	105.3
311.444	19.29
311.658	111.44
311.872	144.21
312.085	88.92
312.299	133.97
312.513	217.94
312.727	-9.39
312.941	11.09
313.154	127.83
313.368	-19.63
313.582	-38.06
313.796	47.96
314.009	11.09
314.223	93.01
314.437	119.64
314.651	54.1
314.864	-23.72
315.078	4.95
315.292	29.52
315.505	-15.53
315.719	76.63
315.933	97.11
316.146	-7.34
316.36	-17.58
316.573	138.07
316.787	88.92
317.001	39.76
317.214	2.9
317.428	62.29
317.641	-68.78
317.855	-44.2
318.068	31.57
318.282	56.15
318.495	146.26
318.709	-1.19
318.922	23.38
319.136	97.11
319.349	56.15
319.563	7
319.776	68.44
319.99	-15.53
320.203	127.83
320.417	-31.91
320.63	64.34
320.843	156.5
321.057	13.14
321.27	52.05
321.483	113.49
321.697	160.59
321.91	-7.34
322.124	31.57
322.337	52.05
322.55	-81.07
322.763	76.63
322.977	21.33
323.19	-58.54
323.403	23.38
323.617	-15.53
323.83	146.26
324.043	-3.24
324.256	76.63
324.469	-1.19
324.683	111.44
324.896	11.09
325.109	17.24
325.322	-42.15
325.535	80.72
325.748	76.63
325.962	39.76
326.175	111.44
326.388	41.81
326.601	174.93
326.814	-11.43
327.027	52.05
327.24	121.68
327.453	-33.96
327.666	80.72
327.879	103.25
328.092	117.59
328.305	13.14
328.518	7
328.731	25.43
328.944	2.9
329.157	82.77
329.37	64.34
329.583	211.79
329.796	60.24
330.009	-93.35
330.222	39.76
330.435	111.44
330.648	19.29
330.861	-36.01
331.073	76.63
331.286	117.59
331.499	-60.59
331.712	-64.68
331.925	21.33
332.138	7
332.35	72.53
332.563	27.48
332.776	121.68
332.989	-58.54
333.202	-17.58
333.414	45.91
333.627	-1.19
333.84	43.86
334.053	35.67
334.265	-5.29
334.478	-9.39
334.691	45.91
334.903	74.58
335.116	-13.48
335.329	23.38
335.541	72.53
335.754	146.26
335.966	27.48
336.179	4.95
336.392	-13.48
336.604	-21.67
336.817	95.06
337.029	95.06
337.242	-1.19
337.454	111.44
337.667	72.53
337.88	234.32
338.092	0.85
338.305	121.68
338.517	-5.29
338.729	84.82
338.942	166.74
339.154	-72.87
339.367	-33.96
339.579	105.3
339.792	54.1
340.004	101.2
340.217	-17.58
340.429	64.34
340.641	-27.82
340.854	19.29
341.066	-13.48
341.278	119.64
341.491	209.75
341.703	35.67
341.915	-11.43
342.128	66.39
342.34	60.24
342.552	7
342.764	19.29
342.977	64.34
343.189	11.09
343.401	-36.01
343.613	-3.24
343.826	64.34
344.038	-9.39
344.25	35.67
344.462	29.52
344.674	13.14
344.886	84.82
345.099	43.86
345.311	37.72
345.523	-9.39
345.735	-31.91
345.947	4.95
346.159	54.1
346.371	37.72
346.583	138.07
346.795	144.21
347.007	4.95
347.219	78.68
347.431	35.67
347.643	56.15
347.855	-29.87
348.067	54.1
348.279	-74.92
348.491	99.16
348.703	50
348.915	60.24
349.127	-60.59
349.339	95.06
349.551	-52.39
349.763	-5.29
349.975	19.29
350.187	117.59
350.399	84.82
350.61	25.43
350.822	-9.39
351.034	25.43
351.246	97.11
351.458	68.44
351.669	72.53
351.881	99.16
352.093	68.44
352.305	50
352.517	86.87
352.728	121.68
352.94	99.16
353.152	13.14
353.363	-13.48
353.575	35.67
353.787	29.52
353.999	64.34
354.21	86.87
354.422	2.9
354.633	50
354.845	39.76
355.057	35.67
355.268	-11.43
355.48	95.06
355.692	-36.01
355.903	127.83
356.115	-64.68
356.326	-52.39
356.538	133.97
356.749	-9.39
356.961	64.34
357.172	-1.19
357.384	52.05
357.595	154.45
357.807	-11.43
358.018	-27.82
358.23	56.15
358.441	146.26
358.653	62.29
358.864	47.96
359.075	29.52
359.287	-1.19
359.498	76.63
359.709	84.82
359.921	-7.34
360.132	13.14
360.344	41.81
360.555	-9.39
360.766	43.86
360.977	54.1
361.189	101.2
361.4	7
361.611	146.26
361.823	62.29
362.034	29.52
362.245	-11.43
362.456	45.91
362.667	27.48
362.879	-70.83
363.09	-15.53
363.301	37.72
363.512	-33.96
363.723	54.1
363.935	17.24
364.146	150.36
364.357	37.72
364.568	105.3
364.779	-19.63
364.99	45.91
365.201	-1.19
365.412	72.53
365.623	-15.53
365.834	25.43
366.045	2.9
366.256	84.82
366.467	58.2
366.678	31.57
366.889	62.29
367.1	-66.73
367.311	119.64
367.522	-9.39
367.733	43.86
367.944	164.69
368.155	50
368.366	158.55
368.577	154.45
368.788	88.92
368.999	-64.68
369.209	88.92
369.42	113.49
369.631	174.93
369.842	2.9
370.053	17.24
370.264	107.35
370.474	-31.91
370.685	99.16
370.896	54.1
371.107	181.07
371.317	47.96
371.528	47.96
371.739	76.63
371.95	60.24
372.16	54.1
372.371	-17.58
372.582	-60.59
372.792	95.06
373.003	103.25
373.214	-19.63
373.424	7
373.635	43.86
373.846	119.64
374.056	72.53
374.267	-7.34
374.477	31.57
374.688	62.29
374.898	52.05
375.109	54.1
375.319	86.87
375.53	121.68
375.74	136.02
375.951	41.81
376.161	-1.19
376.372	125.78
376.582	15.19
376.793	39.76
377.003	15.19
377.214	27.48
377.424	33.62
377.635	15.19
377.845	-52.39
378.055	109.4
378.266	-9.39
378.476	58.2
378.686	-33.96
378.897	62.29
379.107	52.05
379.317	95.06
379.528	4.95
379.738	21.33
379.948	64.34
380.158	80.72
380.369	21.33
380.579	88.92
380.789	37.72
380.999	52.05
381.21	93.01
381.42	211.79
381.63	-42.15
381.84	70.48
382.05	62.29
382.261	54.1
382.471	80.72
382.681	-1.19
382.891	80.72
383.101	70.48
383.311	60.24
383.521	-21.67
383.731	88.92
383.941	125.78
384.151	45.91
384.361	47.96
384.571	41.81
384.781	56.15
384.991	162.64
385.201	207.7
385.411	136.02
385.621	54.1
385.831	84.82
386.041	127.83
386.251	7
386.461	150.36
386.671	27.48
386.881	95.06
387.091	50
387.301	125.78
387.511	-64.68
387.72	39.76
387.93	52.05
388.14	-44.2
388.35	45.91
388.56	138.07
388.769	72.53
388.979	-11.43
389.189	-25.77
389.399	78.68
389.609	86.87
389.818	129.88
390.028	93.01
390.238	90.96
390.447	19.29
390.657	0.85
390.867	15.19
391.076	-58.54
391.286	74.58
391.496	-17.58
391.705	125.78
391.915	27.48
392.125	119.64
392.334	103.25
392.544	109.4
392.753	-5.29
392.963	-9.39
393.172	39.76
393.382	-7.34
393.591	111.44
393.801	-9.39
394.01	179.03
394.22	52.05
394.429	35.67
394.639	-3.24
394.848	80.72
395.058	39.76
395.267	47.96
395.477	56.15
395.686	109.4
395.895	117.59
396.105	113.49
396.314	105.3
396.524	101.2
396.733	15.19
396.942	103.25
397.152	154.45
397.361	58.2
397.57	47.96
397.78	80.72
397.989	125.78
398.198	125.78
398.407	72.53
398.617	21.33
398.826	35.67
399.035	115.54
399.244	-5.29
399.453	70.48
399.663	99.16
399.872	107.35
400.081	-33.96
400.29	68.44
400.499	-17.58
400.708	76.63
400.917	97.11
401.127	33.62
401.336	29.52
401.545	136.02
401.754	123.73
401.963	113.49
402.172	9.05
402.381	-29.87
402.59	13.14
402.799	31.57
403.008	113.49
403.217	95.06
403.426	4.95
403.635	-50.35
403.844	64.34
404.053	62.29
404.262	11.09
404.471	168.79
404.68	41.81
404.888	37.72
405.097	-17.58
405.306	97.11
405.515	113.49
405.724	-36.01
405.933	207.7
406.142	66.39
406.35	166.74
406.559	15.19
406.768	56.15
406.977	119.64
407.185	52.05
407.394	84.82
407.603	-1.19
407.812	109.4
408.02	101.2
408.229	15.19
408.438	25.43
408.646	39.76
408.855	90.96
409.064	76.63
409.272	11.09
409.481	105.3
409.69	-33.96
409.898	39.76
410.107	64.34
410.315	93.01
410.524	-7.34
410.733	136.02
410.941	86.87
411.15	29.52
411.358	113.49
411.567	99.16
411.775	101.2
411.984	4.95
412.192	125.78
412.401	129.88
412.609	129.88
412.818	80.72
413.026	7
413.234	70.48
413.443	39.76
413.651	-60.59
413.86	19.29
414.068	144.21
414.276	86.87
414.485	-31.91
414.693	119.64
414.901	174.93
415.11	99.16
415.318	17.24
415.526	27.48
415.734	142.16
415.943	105.3
416.151	72.53
416.359	82.77
416.567	56.15
416.776	99.16
416.984	97.11
417.192	164.69
417.4	37.72
417.608	47.96
417.817	-7.34
418.025	54.1
418.233	148.31
418.441	-9.39
418.649	62.29
418.857	52.05
419.065	76.63
419.273	-1.19
419.481	95.06
419.689	35.67
419.897	129.88
420.105	-1.19
420.313	164.69
420.521	174.93
420.729	150.36
420.937	56.15
421.145	-66.73
421.353	88.92
421.561	109.4
421.769	60.24
421.977	11.09
422.185	80.72
422.393	86.87
422.601	103.25
422.809	107.35
423.017	88.92
423.224	99.16
423.432	138.07
423.64	23.38
423.848	144.21
424.056	80.72
424.263	111.44
424.471	29.52
424.679	99.16
424.887	37.72
425.094	166.74
425.302	35.67
425.51	86.87
425.718	80.72
425.925	115.54
426.133	-29.87
426.341	234.32
426.548	-42.15
426.756	78.68
426.964	-11.43
427.171	-21.67
427.379	189.27
427.586	45.91
427.794	78.68
428.001	203.6
428.209	146.26
428.417	236.37
428.624	113.49
428.832	111.44
429.039	93.01
429.247	138.07
429.454	88.92
429.662	119.64
429.869	201.55
430.076	154.45
430.284	70.48
430.491	217.94
430.699	140.12
430.906	240.47
431.114	74.58
431.321	199.51
431.528	105.3
431.736	211.79
431.943	158.55
432.15	199.51
432.358	156.5
432.565	236.37
432.772	76.63
432.979	230.23
433.187	138.07
433.394	224.08
433.601	164.69
433.808	193.36
434.016	285.52
434.223	248.66
434.43	138.07
434.637	262.99
434.844	289.62
435.052	277.33
435.259	293.71
435.466	267.09
435.673	320.34
435.88	365.39
436.087	351.06
436.294	408.4
436.501	369.49
436.708	314.19
436.915	285.52
437.122	310.1
437.329	310.1
437.537	367.44
437.743	379.73
437.95	537.42
438.157	389.97
438.364	447.31
438.571	441.17
438.778	447.31
438.985	588.62
439.192	506.7
439.399	414.54
439.606	469.84
439.813	602.96
440.02	688.97
440.227	676.68
440.433	551.76
440.64	641.87
440.847	613.2
441.054	697.16
441.261	711.5
441.467	691.02
441.674	703.31
441.881	822.09
442.088	731.98
442.294	834.38
442.501	949.06
442.708	910.15
442.914	928.58
443.121	932.68
443.328	928.58
443.534	1004.36
443.741	1086.28
443.948	1016.65
444.154	1112.9
444.361	1280.83
444.568	1137.48
444.774	1149.76
444.981	1160
445.187	1450.82
445.394	1342.27
445.6	1344.32
445.807	1571.65
446.013	1508.16
446.22	1450.82
446.426	1643.32
446.633	1717.05
446.839	1891.13
447.046	1686.33
447.252	1973.05
447.459	1958.71
447.665	1942.33
447.871	2202.42
448.078	2255.67
448.284	2362.16
448.491	2265.91
448.697	2556.72
448.903	2669.36
449.11	2485.04
449.316	2530.09
449.522	2767.66
449.728	2798.38
449.935	2882.35
450.141	2904.87
450.347	3078.95
450.553	3234.6
450.76	3224.36
450.966	3463.97
451.172	3402.53
451.378	3650.33
451.584	3773.21
451.791	4160.28
451.997	4180.76
452.203	4254.48
452.409	4465.43
452.615	4707.09
452.821	4406.03
453.027	4389.65
453.233	5159.69
453.44	5106.44
453.646	5245.7
453.852	5298.95
454.058	5819.13
454.264	5831.42
454.47	6122.23
454.676	6290.17
454.882	6871.79
455.088	6353.65
455.294	6974.19
455.5	7285.48
455.705	7789.28
455.911	7699.17
456.117	8192.73
456.323	8067.8
456.529	8225.5
456.735	8985.29
456.941	9239.24
457.147	9728.7
457.352	9761.47
457.558	10242.75
457.764	10951.34
457.97	11002.54
458.176	11504.29
458.381	12268.19
458.587	12282.52
458.793	13015.69
458.999	12890.77
459.204	14424.7
459.41	14879.35
459.616	14678.65
459.821	15676.01
460.027	16314.97
460.233	17109.58
460.438	17058.39
460.644	17953.35
460.85	18328.13
461.055	19061.3
461.261	19946.02
461.466	19448.36
461.672	19960.36
461.878	22665.72
462.083	21897.74
462.289	22725.11
462.494	23462.38
462.7	23464.43
462.905	24119.78
463.111	25653.71
463.316	27103.67
463.522	27443.63
463.727	28285.35
463.932	29417.88
464.138	30427.53
464.343	31492.47
464.549	31457.65
464.754	34365.77
464.959	34816.32
465.165	35287.35
465.37	35563.83
465.575	35266.88
465.781	37882.13
465.986	38854.92
466.191	37921.04
466.397	38535.43
466.602	37624.09
466.807	39811.32
467.012	40579.31
467.218	41079.01
467.423	41130.21
467.628	42496.2
467.833	44032.18
468.038	44101.81
468.244	42563.79
468.449	45101.22
468.654	44445.87
468.859	44034.23
469.064	43980.98
469.269	43032.77
469.474	43323.58
469.679	45062.31
469.885	43165.89
470.09	44019.89
470.295	44337.33
470.5	43073.73
470.705	43628.73
470.91	42258.64
471.115	42072.28
471.32	42354.9
471.525	42371.28
471.73	41224.42
471.935	40870.12
472.139	39332.09
472.344	39751.93
472.549	39432.44
472.754	38490.38
472.959	37361.95
473.164	36403.5
473.369	35580.21
473.574	37036.32
473.778	35897.65
473.983	35600.69
474.188	35199.29
474.393	33059.16
474.598	32958.81
474.802	32248.17
475.007	31871.34
475.212	31705.46
475.417	30114.19
475.621	30153.1
475.826	29637.01
476.031	29086.11
476.235	28615.07
476.44	28555.68
476.645	27949.48
476.849	27509.17
477.054	27054.52
477.259	26401.22
477.463	26487.23
477.668	25491.92
477.872	25739.72
478.077	25192.92
478.282	24248.8
478.486	24074.73
478.691	23917.03
478.895	23783.91
479.1	23335.41
479.304	23581.17
479.509	22563.33
479.713	23237.11
479.918	22571.52
480.122	22194.69
480.326	22475.26
480.531	22362.62
480.735	21647.88
480.94	21318.16
481.144	22258.18
481.348	20955.67
481.553	21174.8
481.757	20548.12
481.961	20867.61
482.166	20861.46
482.37	20650.52
482.574	19790.38
482.778	20365.85
482.983	20189.73
483.187	19929.64
483.391	19843.62
483.595	19501.61
483.8	19139.12
484.004	19474.99
484.208	19354.16
484.412	18750.01
484.616	18954.8
484.821	18469.44
485.025	18041.41
485.229	18360.89
485.433	17803.85
485.637	17918.53
485.841	17453.64
486.045	17392.2
486.249	17242.7
486.453	16929.36
486.657	16427.61
486.861	16341.6
487.065	15993.44
487.269	15770.21
487.473	15440.49
487.677	15452.78
487.881	15155.82
488.085	14709.36
488.289	14975.6
488.493	14402.17
488.697	14303.87
488.901	14047.87
489.105	13603.46
489.309	13517.45
489.512	13406.86
489.716	13048.46
489.92	12755.6
490.124	12483.22
490.328	12456.6
490.531	12182.17
490.735	12171.93
490.939	11805.35
491.143	11471.53
491.346	11242.15
491.55	11389.61
491.754	11115.18
491.958	11035.31
492.161	10805.94
492.365	10726.07
492.569	10447.54
492.772	10271.42
492.976	10369.72
493.18	10080.96
493.383	9974.46
493.587	9915.07
493.79	9738.94
493.994	9632.45
494.197	9499.33
494.401	9546.44
494.605	9364.17
494.808	9167.56
495.012	9261.77
495.215	9194.19
495.419	9304.78
495.622	8989.39
495.825	8993.48
496.029	9022.16
496.232	9030.35
496.436	9001.68
496.639	9032.4
496.843	8778.45
497.046	8821.45
497.249	9149.13
497.453	9059.02
497.656	9022.16
497.859	8970.96
498.063	9018.06
498.266	9196.23
498.469	8946.38
498.673	8921.81
498.876	9044.68
499.079	9071.31
499.282	9044.68
499.485	9349.83
499.689	9198.28
499.892	9366.21
500.095	9390.79
500.298	9583.3
500.501	9272.01
500.705	9616.07
500.908	9812.67
501.111	10003.13
501.314	10048.19
501.517	10138.3
501.72	10105.53
501.923	10222.27
502.126	10263.22
502.329	10597.04
502.532	10750.64
502.735	10748.59
502.938	11057.84
503.141	10939.05
503.344	11381.42
503.547	11334.31
503.75	11498.15
503.953	11707.04
504.156	11741.86
504.359	11856.54
504.562	12065.44
504.765	12327.58
504.968	12565.14
505.17	12688.02
505.373	12933.78
505.576	12950.16
505.779	13212.3
505.982	13320.84
506.185	13671.04
506.387	14099.07
506.59	14152.32
506.793	14330.49
506.996	14506.62
507.198	15307.37
507.401	14994.03
507.604	15374.95
507.807	15850.08
508.009	16067.17
508.212	16290.4
508.415	16990.8
508.617	17295.95
508.82	17797.7
509.022	17578.57
509.225	18465.34
509.428	18614.84
509.63	19032.63
509.833	19558.95
510.035	20146.72
510.238	20449.82
510.44	20468.25
510.643	21090.84
510.845	21766.67
511.048	21824.01
511.25	22440.45
511.453	22815.23
511.655	24031.72
511.858	24332.77
512.06	24648.16
512.262	24973.78
512.465	25330.13
512.667	26335.68
512.87	26923.45
513.072	27195.83
513.274	28326.31
513.477	28854.69
513.679	29335.96
513.881	30157.19
514.084	30706.05
514.286	31148.41
514.488	31498.61
514.69	32856.42
514.893	33401.18
515.095	33702.23
515.297	34496.84
515.499	35342.65
515.701	36372.78
515.904	36817.19
516.106	37497.11
516.308	38043.92
516.51	39184.64
516.712	39538.94
516.914	40444.14
517.116	41414.88
517.318	42395.85
517.52	42635.47
517.722	43196.61
517.925	44271.79
518.127	45353.12
518.329	45934.74
518.531	45828.25
518.733	47278.21
518.935	48244.85
519.136	48537.71
519.338	49623.14
519.54	50171.99
519.742	51030.09
519.944	51683.39
520.146	52650.03
520.348	52869.17
520.55	54143
520.752	53952.54
520.954	55175.18
521.155	55365.64
521.357	56078.33
521.559	56967.15
521.761	57737.19
521.963	57651.17
522.164	58355.67
522.366	58773.46
522.568	59051.98
522.77	59707.33
522.971	60362.68
523.173	59885.51
523.375	60661.69
523.576	60497.85
523.778	60690.36
523.98	61554.6
524.181	62181.28
524.383	62070.69
524.584	62539.68
524.786	62236.58
524.988	62332.83
525.189	62220.19
525.391	62926.74
525.592	62498.72
525.794	62650.27
525.995	62556.06
526.197	62586.78
526.398	62410.65
526.6	62554.01
526.801	62203.81
527.003	62295.97
527.204	62021.54
527.406	62357.41
527.607	61534.12
527.808	62072.74
528.01	60612.54
528.211	60719.03
528.412	60981.17
528.614	60759.99
528.815	60313.53
529.016	60039.11
529.218	59146.19
529.419	59027.41
529.62	58566.62
529.822	57825.25
530.023	57155.57
530.224	56745.97
530.425	56346.62
530.626	55617.54
530.828	54835.22
531.029	55746.56
531.23	53835.81
531.431	53567.52
531.632	53035.05
531.833	52682.8
532.035	52234.3
532.236	51527.75
532.437	51036.23
532.638	49811.55
532.839	49971.29
533.04	49344.61
533.241	48343.16
533.442	48771.18
533.643	47652.99
533.844	47014.02
534.045	46391.44
534.246	45482.14
534.447	45254.82
534.648	44110
534.849	44200.11
535.05	43028.68
535.251	43008.2
535.451	42174.67
535.652	42049.75
535.853	40771.82
536.054	40648.94
536.255	40501.48
536.456	39512.31
536.657	39338.24
536.857	38469.9
537.058	37759.25
537.259	37937.43
537.46	36864.29
537.66	36249.9
537.861	36192.56
538.062	35498.3
538.263	35148.09
538.463	34744.64
538.664	34652.48
538.865	34087.25
539.065	34056.53
539.266	33022.3
539.466	32616.8
539.667	32127.34
539.868	32307.56
540.068	31574.39
540.269	31005.05
540.469	31175.03
540.67	30224.78
540.87	30181.77
541.071	29827.47
541.271	29319.57
541.472	29090.2
541.672	28858.78
541.873	28803.49
542.073	27654.58
542.274	28230.05
542.474	27437.49
542.675	27068.86
542.875	27345.33
543.075	26610.11
543.276	26014.15
543.476	26292.68
543.676	25848.27
543.877	25756.11
544.077	25315.8
544.277	25063.89
544.478	24420.83
544.678	24244.71
544.878	24228.32
545.078	24130.02
545.279	23472.62
545.479	23177.72
545.679	23144.95
545.879	22794.75
546.079	22356.48
546.28	22215.17
546.48	22090.24
546.68	22157.83
546.88	21254.67
547.08	21264.91
547.28	21084.69
547.48	20462.11
547.68	20476.44
547.88	20466.21
548.081	20285.98
548.281	19665.45
548.481	19393.07
548.681	19626.54
548.881	19206.7
549.081	18776.63
549.28	18692.66
549.48	18369.09
549.68	18047.55
549.88	17758.79
550.08	17312.33
550.28	17445.45
550.48	17132.11
550.68	17228.37
550.88	16773.72
551.08	16532.06
551.279	16378.46
551.479	15952.48
551.679	15772.26
551.879	15594.09
552.079	15293.04
552.278	15082.1
552.478	15047.28
552.678	14881.39
552.878	14637.69
553.077	14174.85
553.277	13720.2
553.477	13744.77
553.676	13671.04
553.876	13470.34
554.076	13357.71
554.275	12892.82
554.475	12620.44
554.674	12825.23
554.874	12554.9
555.074	12276.38
555.273	12036.77
555.473	11700.9
555.672	11524.77
555.872	11428.52
556.071	11309.74
556.271	11424.42
556.47	11096.75
556.67	10687.15
556.869	10566.32
557.068	10353.34
557.268	10246.84
557.467	9980.61
557.667	9913.02
557.866	9585.35
558.065	9431.75
558.265	9624.26
558.464	9298.63
558.663	9263.82
558.863	9063.12
559.062	8977.1
559.261	8696.53
559.461	8790.74
559.66	8428.24
559.859	8327.89
560.058	8084.19
560.258	7932.64
560.457	7965.4
560.656	8002.27
560.855	7572.19
561.054	7656.16
561.253	7506.66
561.453	7389.92
561.652	7256.81
561.851	7267.05
562.05	6949.61
562.249	6757.1
562.448	6789.87
562.647	6656.75
562.846	6566.64
563.045	6533.87
563.244	6468.34
563.443	6406.9
563.642	6314.74
563.841	6228.73
564.04	6114.04
564.239	5972.73
564.438	6142.71
564.637	5610.24
564.836	5593.86
565.035	5581.57
565.234	5528.32
565.432	5534.46
565.631	5268.23
565.83	5452.55
566.029	5159.69
566.228	5001.99
566.427	5186.31
566.625	5073.67
566.824	5083.91
567.023	4789
567.222	4676.37
567.42	4739.85
567.619	4500.24
567.818	4655.89
568.016	4721.42
568.215	4526.86
568.414	4604.69
568.612	4274.96
568.811	4358.93
569.01	4129.56
569.208	4242.2
569.407	4168.47
569.605	4074.26
569.804	4066.07
570.002	3924.76
570.201	3928.86
570.4	3912.47
570.598	3783.45
570.797	3752.73
570.995	3586.85
571.193	3633.95
571.392	3515.17
571.59	3433.25
571.789	3580.7
571.987	3529.5
572.186	3504.93
572.384	3398.43
572.582	3128.1
572.781	3271.46
572.979	3160.87
573.177	3132.2
573.376	3119.91
573.574	3107.62
573.772	2906.92
573.971	2802.47
574.169	2890.54
574.367	2827.05
574.565	2722.6
574.763	3005.22
574.962	2743.08
575.16	2652.97
575.358	2552.62
575.556	2577.2
575.754	2628.4
575.952	2530.09
576.151	2569.01
576.349	2505.52
576.547	2282.29
576.745	2321.2
576.943	2394.93
577.141	2364.21
577.339	2130.74
577.537	2155.32
577.735	2163.51
577.933	2155.32
578.131	2052.92
578.329	2224.95
578.527	2022.2
578.725	2077.49
578.923	1837.88
579.121	2024.25
579.319	1848.12
579.516	1790.78
579.714	1889.08
579.912	1739.58
580.11	1841.98
580.308	1719.1
580.506	1768.25
580.704	1655.61
580.901	1643.32
581.099	1635.13
581.297	1760.06
581.495	1710.91
581.692	1555.26
581.89	1737.53
582.088	1477.44
582.285	1506.11
582.483	1448.77
582.681	1477.44
582.878	1538.88
583.076	1454.91
583.274	1483.58
583.471	1542.97
583.669	1481.53
583.866	1329.99
584.064	1243.97
584.262	1243.97
584.459	1211.2
584.657	1268.55
584.854	1340.22
585.052	1225.54
585.249	1219.39
585.447	1309.51
585.644	1071.94
585.841	1266.5
586.039	1258.31
586.236	1366.85
586.434	1071.94
586.631	996.17
586.828	1100.61
587.026	1141.57
587.223	1067.85
587.42	1047.37
587.618	996.17
587.815	1213.25
588.012	1043.27
588.21	1065.8
588.407	1047.37
588.604	1080.13
588.801	951.11
588.999	1041.22
589.196	1035.08
589.393	854.86
589.59	1006.41
589.787	1016.65
589.984	947.01
590.182	863.05
590.379	840.52
590.576	807.75
590.773	867.14
590.97	996.17
591.167	916.3
591.364	996.17
591.561	973.64
591.758	1039.17
591.955	904.01
592.152	936.78
592.349	912.2
592.546	889.67
592.743	856.9
592.94	852.81
593.137	924.49
593.334	914.25
593.531	914.25
593.727	953.16
593.924	906.06
594.121	871.24
594.318	850.76
594.515	807.75
594.712	949.06
594.908	930.63
595.105	846.66
595.302	957.25
595.499	904.01
595.696	1039.17
595.892	942.92
596.089	1119.04
596.286	965.45
596.482	1137.48
596.679	1110.85
596.876	996.17
597.072	1178.44
597.269	1100.61
597.466	1252.16
597.662	1217.35
597.859	1137.48
598.055	1170.24
598.252	1305.41
598.448	1383.23
598.645	1385.28
598.841	1497.92
599.038	1571.65
599.234	1569.6
599.431	1622.84
599.627	1719.1
599.824	1768.25
600.02	1682.24
600.217	1809.21
600.413	1930.04
600.609	1993.53
600.806	2327.35
601.002	1977.14
601.198	2120.5
601.395	2349.87
601.591	2349.87
601.787	2366.26
601.984	2526
602.18	2734.89
602.376	2679.6
602.572	2874.15
602.769	2886.44
602.965	2984.74
603.161	3197.73
603.357	3308.32
603.553	3478.3
603.75	3336.99
603.946	3588.89
604.142	3685.15
604.338	3898.14
604.534	3988.25
604.73	4043.54
604.926	4199.19
605.122	4481.81
605.318	4469.52
605.514	4576.02
605.71	4725.52
605.906	4872.97
606.102	5061.38
606.298	5278.47
606.494	5311.24
606.69	5518.08
606.886	5591.81
607.082	5825.28
607.278	5966.59
607.474	5991.16
607.67	6351.6
607.866	6333.17
608.062	6884.08
608.257	6769.39
608.453	6925.04
608.649	7445.22
608.845	7432.93
609.041	7674.59
609.236	8004.32
609.432	8239.83
609.628	8444.63
609.824	8506.07
610.019	8813.26
610.215	8774.35
610.411	9214.66
610.606	9532.1
610.802	9820.86
610.998	9943.74
611.193	10162.87
611.389	10105.53
611.584	10973.87
611.78	10937.01
611.976	11526.82
612.171	11487.91
612.367	11999.9
612.562	12208.8
612.758	12540.57
612.953	12831.38
613.149	13425.29
613.344	13656.71
613.539	14162.56
613.735	14377.59
613.93	14862.96
614.126	15098.48
614.321	15542.89
614.517	15772.26
614.712	16411.23
614.907	16648.79
615.103	17175.12
615.298	17386.06
615.493	18111.04
615.688	18180.67
615.884	19417.65
616.079	19333.68
616.274	20218.4
616.47	20187.68
616.665	20849.18
616.86	21346.83
617.055	22002.18
617.25	22168.07
617.445	23187.96
617.641	23466.48
617.836	24435.17
618.031	24521.18
618.226	25803.21
618.421	25838.03
618.616	26530.24
618.811	26698.17
619.006	27853.23
619.201	28029.35
619.396	29366.68
619.591	29235.61
619.786	30577.03
619.981	30210.44
620.176	31533.43
620.371	31684.98
620.566	32686.43
620.761	33126.75
620.956	34242.89
621.151	34355.53
621.346	35682.61
621.541	35850.55
621.735	37204.25
621.93	37011.74
622.125	37849.36
622.32	38289.68
622.515	39362.81
622.709	39919.86
622.904	40612.07
623.099	41468.12
623.294	42922.18
623.488	42735.82
623.683	43962.55
623.878	43618.49
624.072	45209.76
624.267	46069.91
624.462	46235.8
624.656	47095.94
624.851	48093.3
625.046	48494.71
625.24	49217.64
625.435	49768.54
625.629	49916
625.824	50630.74
626.018	51554.37
626.213	51200.07
626.407	52400.18
626.602	52592.69
626.796	53692.45
626.991	54091.8
627.185	54632.47
627.38	54681.62
627.574	54624.28
627.768	54548.5
627.963	55095.31
628.157	55410.7
628.352	56088.57
628.546	55824.39
628.74	56309.75
628.935	55574.53
629.129	56324.09
629.323	54923.28
629.517	55592.97
629.712	55132.17
629.906	54745.11
630.1	53315.62
630.294	53696.55
630.489	53207.08
630.683	52930.61
630.877	50929.74
631.071	50880.59
631.265	50366.55
631.459	49303.65
631.653	48156.79
631.848	46940.3
632.042	45924.5
632.236	45047.97
632.43	44015.8
632.624	42977.48
632.818	41476.32
633.012	40296.69
633.206	38834.44
633.4	38138.13
633.594	36282.67
633.788	35488.06
633.982	34550.09
634.176	32999.77
634.369	31781.23
634.563	30755.2
634.757	29102.49
634.951	28848.54
635.145	27310.52
635.339	26177.99
635.533	25313.75
635.726	24402.4
635.92	23089.65
636.114	22534.65
636.308	21383.7
636.501	20386.33
636.695	19935.78
636.889	18770.49
637.083	18367.04
637.276	17293.9
637.47	16603.74
637.664	16020.06
637.857	15340.14
638.051	14903.92
638.244	14393.98
638.438	13744.77
638.632	13114
638.825	12499.61
639.019	11983.52
639.212	11500.2
639.406	11178.67
639.599	10807.98
639.793	10207.93
639.986	9695.94
640.18	9497.28
640.373	9081.55
640.567	8757.97
640.76	8526.55
640.954	8243.93
641.147	7852.77
641.34	7334.63
641.534	7252.71
641.727	6834.93
641.92	6963.95
642.114	6519.54
642.307	6316.79
642.5	6114.04
642.694	5714.69
642.887	5645.06
643.08	5532.42
643.273	5157.64
643.467	4938.51
643.66	4743.95
643.853	4559.63
644.046	4283.16
644.239	4229.91
644.432	3951.39
644.626	3887.9
644.819	3636
645.012	3631.9
645.205	3519.26
645.398	3418.91
645.591	3232.55
645.784	3040.04
645.977	2888.49
646.17	2829.1
646.363	2937.64
646.556	2566.96
646.749	2476.85
646.942	2521.9
647.135	2306.87
647.328	2259.76
647.521	2259.76
647.714	2190.13
647.907	2136.88
648.099	1905.46
648.292	1874.74
648.485	1858.36
648.678	1723.2
648.871	1624.89
649.064	1592.13
649.256	1432.38
649.449	1395.52
649.642	1456.96
649.835	1336.13
650.027	1276.74
650.22	1338.18
650.413	1174.34
650.605	1239.87
650.798	1182.53
650.991	1112.9
651.183	1129.28
651.376	1100.61
651.568	1078.08
651.761	1055.56
651.954	1063.75
652.146	934.73
652.339	998.21
652.531	1000.26
652.724	791.37
652.916	772.94
653.109	719.69
653.301	916.3
653.494	899.91
653.686	766.79
653.879	715.59
654.071	762.7
654.263	715.59
654.456	674.64
654.648	727.88
654.84	609.1
655.033	514.89
655.225	672.59
655.417	392.02
655.61	676.68
655.802	664.4
655.994	658.25
656.186	469.84
656.379	590.67
656.571	506.7
656.763	504.65
656.955	408.4
657.148	420.69
657.34	492.37
657.532	371.54
657.724	457.55
657.916	400.21
658.108	553.8
658.3	498.51
658.492	342.86
658.684	332.62
658.876	457.55
659.068	293.71
659.26	267.09
659.452	316.24
659.644	342.86
659.836	484.17
660.028	281.43
660.22	267.09
660.412	338.77
660.604	293.71
660.796	314.19
660.988	299.86
661.18	330.58
661.372	342.86
661.563	236.37
661.755	291.66
661.947	234.32
662.139	283.47
662.331	277.33
662.522	254.8
662.714	181.07
662.906	199.51
663.097	228.18
663.289	293.71
663.481	226.13
663.673	269.14
663.864	168.79
664.056	269.14
664.247	197.46
664.439	201.55
664.631	236.37
664.822	330.58
665.014	260.95
665.205	199.51
665.397	172.88
665.588	250.71
665.78	201.55
665.971	207.7
666.163	150.36
666.354	291.66
666.546	113.49
666.737	187.22
666.929	244.56
667.12	162.64
667.311	269.14
667.503	201.55
667.694	183.12
667.885	199.51
668.077	265.04
668.268	144.21
668.459	203.6
668.651	213.84
668.842	168.79
669.033	174.93
669.224	97.11
669.416	306
669.607	199.51
669.798	86.87
669.989	258.9
670.18	176.98
670.371	277.33
670.563	156.5
670.754	275.28
670.945	240.47
671.136	258.9
671.327	133.97
671.518	256.85
671.709	299.86
671.9	174.93
672.091	232.27
672.282	168.79
672.473	211.79
672.664	113.49
672.855	271.19
673.046	226.13
673.237	217.94
673.428	242.51
673.619	293.71
673.809	219.99
674	183.12
674.191	195.41
674.382	265.04
674.573	185.17
674.764	197.46
674.954	275.28
675.145	136.02
675.336	162.64
675.527	109.4
675.717	103.25
675.908	238.42
676.099	172.88
676.289	181.07
676.48	103.25
676.671	222.03
676.861	174.93
677.052	326.48
677.243	207.7
677.433	209.75
677.624	332.62
677.814	215.89
678.005	248.66
678.195	269.14
678.386	179.03
678.576	219.99
678.767	154.45
678.957	277.33
679.148	316.24
679.338	306
679.529	267.09
679.719	287.57
679.909	250.71
680.1	301.9
680.29	342.86
680.481	195.41
680.671	238.42
680.861	314.19
681.052	209.75
681.242	289.62
681.432	383.82
681.622	289.62
681.813	176.98
682.003	222.03
682.193	203.6
682.383	256.85
682.573	299.86
682.764	211.79
682.954	267.09
683.144	389.97
683.334	250.71
683.524	228.18
683.714	306
683.904	318.29
684.094	279.38
684.284	291.66
684.474	359.25
684.664	310.1
684.854	299.86
685.044	228.18
685.234	322.38
685.424	326.48
685.614	332.62
685.804	404.3
685.994	285.52
686.184	287.57
686.374	267.09
686.564	265.04
686.753	316.24
686.943	265.04
687.133	336.72
687.323	293.71
687.513	295.76
687.702	232.27
687.892	316.24
688.082	273.23
688.272	320.34
688.461	320.34
688.651	383.82
688.841	215.89
689.03	224.08
689.22	287.57
689.41	295.76
689.599	322.38
689.789	289.62
689.979	392.02
690.168	275.28
690.358	297.81
690.547	291.66
690.737	262.99
690.926	344.91
691.116	371.54
691.305	355.15
691.495	371.54
691.684	240.47
691.874	285.52
692.063	260.95
692.252	293.71
692.442	295.76
692.631	248.66
692.82	246.61
693.01	301.9
693.199	260.95
693.388	324.43
693.578	301.9
693.767	252.75
693.956	301.9
694.146	240.47
694.335	338.77
694.524	236.37
694.713	365.39
694.902	267.09
695.092	244.56
695.281	316.24
695.47	291.66
695.659	306
695.848	312.14
696.037	322.38
696.226	402.26
696.415	310.1
696.604	355.15
696.793	328.53
696.982	285.52
697.171	396.11
697.36	166.74
697.549	232.27
697.738	232.27
697.927	230.23
698.116	258.9
698.305	285.52
698.494	310.1
698.683	224.08
698.872	402.26
699.061	250.71
699.25	314.19
699.438	238.42
699.627	265.04
699.816	303.95
700.005	93.01
700.193	306
700.382	291.66
700.571	291.66
700.76	293.71
700.948	342.86
701.137	308.05
701.326	326.48
701.514	199.51
701.703	359.25
701.892	314.19
702.08	459.6
702.269	314.19
702.457	187.22
702.646	318.29
702.834	228.18
703.023	316.24
703.212	344.91
703.4	267.09
703.589	277.33
703.777	219.99
703.965	211.79
704.154	258.9
704.342	185.17
704.531	238.42
704.719	252.75
704.907	430.93
705.096	226.13
705.284	174.93
705.472	256.85
705.661	281.43
705.849	330.58
706.037	291.66
706.226	359.25
706.414	293.71
706.602	271.19
706.79	303.95
706.979	203.6
707.167	281.43
707.355	107.35
707.543	349.01
707.731	277.33
707.919	248.66
708.107	242.51
708.296	211.79
708.484	320.34
708.672	330.58
708.86	293.71
709.048	267.09
709.236	189.27
709.424	291.66
709.612	332.62
709.8	209.75
709.988	279.38
710.176	404.3
710.364	410.45
710.551	316.24
710.739	252.75
710.927	248.66
711.115	207.7
711.303	346.96
711.491	293.71
711.679	174.93
711.866	267.09
712.054	213.84
712.242	338.77
712.43	275.28
712.617	297.81
712.805	324.43
712.993	281.43
713.181	185.17
713.368	316.24
713.556	248.66
713.744	222.03
713.931	422.73
714.119	334.67
714.306	269.14
714.494	181.07
714.682	312.14
714.869	168.79
715.057	359.25
715.244	236.37
715.432	248.66
715.619	219.99
715.807	219.99
715.994	197.46
716.182	285.52
716.369	314.19
716.556	387.92
716.744	256.85
716.931	260.95
717.119	215.89
717.306	236.37
717.493	351.06
717.681	260.95
717.868	310.1
718.055	281.43
718.242	359.25
718.43	326.48
718.617	383.82
718.804	256.85
718.991	303.95
719.179	293.71
719.366	314.19
719.553	338.77
719.74	281.43
719.927	332.62
720.114	256.85
720.301	295.76
720.488	291.66
720.676	291.66
720.863	408.4
721.05	455.5
721.237	363.34
721.424	357.2
721.611	326.48
721.798	316.24
721.985	256.85
722.172	203.6
722.358	320.34
722.545	344.91
722.732	326.48
722.919	457.55
723.106	316.24
723.293	334.67
723.48	279.38
723.667	283.47
723.853	375.63
724.04	338.77
724.227	473.93
724.414	285.52
724.6	506.7
724.787	428.88
724.974	443.21
725.161	334.67
725.347	299.86
725.534	301.9
725.72	430.93
725.907	389.97
726.094	392.02
726.28	318.29
726.467	414.54
726.653	314.19
726.84	461.65
727.027	482.13
727.213	394.06
727.4	424.78
727.586	365.39
727.773	346.96
727.959	262.99
728.145	367.44
728.332	467.79
728.518	344.91
728.705	441.17
728.891	322.38
729.077	377.68
729.264	285.52
729.45	334.67
729.636	449.36
729.823	340.82
730.009	422.73
730.195	367.44
730.382	510.8
730.568	252.75
730.754	371.54
730.94	342.86
731.126	381.78
731.313	486.22
731.499	371.54
731.685	404.3
731.871	430.93
732.057	439.12
732.243	551.76
732.429	310.1
732.615	514.89
732.801	363.34
732.987	340.82
733.173	338.77
733.359	328.53
733.545	389.97
733.731	402.26
733.917	492.37
734.103	408.4
734.289	469.84
734.475	357.2
734.661	539.47
734.847	344.91
735.033	293.71
735.219	502.61
735.404	404.3
735.59	328.53
735.776	330.58
735.962	443.21
736.148	478.03
736.333	443.21
736.519	412.5
736.705	330.58
736.89	400.21
737.076	408.4
737.262	299.86
737.447	414.54
737.633	457.55
737.819	469.84
738.004	471.89
738.19	357.2
738.375	359.25
738.561	523.09
738.747	379.73
738.932	385.87
739.118	523.09
739.303	445.26
739.489	422.73
739.674	373.58
739.859	326.48
740.045	486.22
740.23	484.17
740.416	351.06
740.601	441.17
740.786	424.78
740.972	404.3
741.157	449.36
741.342	351.06
741.528	312.14
741.713	465.74
741.898	387.92
742.084	392.02
742.269	451.41
742.454	457.55
742.639	349.01
742.824	357.2
743.01	506.7
743.195	541.52
743.38	392.02
743.565	379.73
743.75	439.12
743.935	367.44
744.12	486.22
744.305	334.67
744.49	373.58
744.675	441.17
744.86	379.73
745.045	455.5
745.23	383.82
745.415	344.91
745.6	574.28
745.785	365.39
745.97	453.45
746.155	383.82
746.34	482.13
746.525	332.62
746.71	414.54
746.895	250.71
747.079	260.95
747.264	381.78
747.449	392.02
747.634	334.67
747.819	449.36
748.003	416.59
748.188	398.16
748.373	488.27
748.557	373.58
748.742	428.88
748.927	346.96
749.111	375.63
749.296	373.58
749.481	426.83
749.665	367.44
749.85	320.34
750.034	252.75
750.219	336.72
750.404	322.38
750.588	375.63
750.773	355.15
750.957	361.3
751.141	334.67
751.326	324.43
751.51	265.04
751.695	330.58
751.879	211.79
752.064	428.88
752.248	283.47
752.432	383.82
752.617	316.24
752.801	320.34
752.985	236.37
753.17	385.87
753.354	281.43
753.538	396.11
753.722	322.38
753.907	222.03
754.091	252.75
754.275	277.33
754.459	306
754.643	215.89
754.828	318.29
755.012	293.71
755.196	191.31
755.38	195.41
755.564	199.51
755.748	297.81
755.932	306
756.116	306
756.3	318.29
756.484	242.51
756.668	342.86
756.852	187.22
757.036	293.71
757.22	312.14
757.404	193.36
757.588	195.41
757.772	236.37
757.956	262.99
758.14	334.67
758.323	148.31
758.507	258.9
758.691	181.07
758.875	299.86
759.059	277.33
759.242	166.74
759.426	279.38
759.61	287.57
759.794	248.66
759.977	242.51
760.161	353.1
760.345	299.86
760.528	269.14
760.712	269.14
760.895	289.62
761.079	166.74
761.263	103.25
761.446	201.55
761.63	209.75
761.813	283.47
761.997	217.94
762.18	176.98
762.364	281.43
762.547	97.11
762.731	121.68
762.914	191.31
763.098	115.54
763.281	125.78
763.464	140.12
763.648	240.47
763.831	193.36
764.015	150.36
764.198	219.99
764.381	189.27
764.564	138.07
764.748	232.27
764.931	211.79
765.114	226.13
765.297	189.27
765.481	131.92
765.664	267.09
765.847	162.64
766.03	219.99
766.213	93.01
766.397	123.73
766.58	101.2
766.763	226.13
766.946	133.97
767.129	99.16
767.312	136.02
767.495	47.96
767.678	103.25
767.861	142.16
768.044	152.4
768.227	211.79
768.41	179.03
768.593	246.61
768.776	148.31
768.959	97.11
769.142	195.41
769.324	97.11
769.507	133.97
769.69	140.12
769.873	168.79
770.056	232.27
770.239	95.06
770.421	248.66
770.604	211.79
770.787	101.2
770.97	174.93
771.152	39.76
771.335	66.39
771.518	162.64
771.7	265.04
771.883	215.89
772.066	183.12
772.248	144.21
772.431	179.03
772.613	209.75
772.796	113.49
772.978	133.97
773.161	273.23
773.343	127.83
773.526	72.53
773.708	54.1
773.891	15.19
774.073	123.73
774.256	146.26
774.438	228.18
774.621	35.67
774.803	160.59
774.985	111.44
775.168	199.51
775.35	185.17
775.532	236.37
775.715	64.34
775.897	119.64
776.079	4.95
776.261	168.79
776.444	80.72
776.626	103.25
776.808	37.72
776.99	2.9
777.173	144.21
777.355	103.25
777.537	119.64
777.719	54.1
777.901	58.2
778.083	133.97
778.265	52.05
778.447	95.06
778.629	47.96
778.811	80.72
778.993	193.36
779.175	142.16
779.357	58.2
779.539	7
779.721	152.4
779.903	107.35
780.085	47.96
780.267	140.12
780.449	74.58
780.631	99.16
780.812	154.45
780.994	-11.43
781.176	-7.34
781.358	62.29
781.54	113.49
781.721	105.3
781.903	88.92
782.085	82.77
782.267	146.26
782.448	62.29
782.63	56.15
782.812	176.98
782.993	70.48
783.175	54.1
783.357	19.29
783.538	58.2
783.72	-25.77
783.901	15.19
784.083	154.45
784.264	64.34
784.446	-58.54
784.627	-15.53
784.809	88.92
784.99	56.15
785.172	154.45
785.353	74.58
785.535	70.48
785.716	19.29
785.897	39.76
786.079	31.57
786.26	93.01
786.441	74.58
786.623	-9.39
786.804	21.33
786.985	86.87
787.167	133.97
787.348	60.24
787.529	11.09
787.71	154.45
787.891	152.4
788.073	64.34
788.254	64.34
788.435	138.07
788.616	23.38
788.797	45.91
788.978	35.67
789.159	2.9
789.34	-9.39
789.522	31.57
789.703	29.52
789.884	45.91
790.065	64.34
790.246	150.36
790.427	47.96
790.607	121.68
790.788	183.12
790.969	64.34
791.15	-68.78
791.331	-7.34
791.512	-33.96
791.693	-19.63
791.874	64.34
792.054	170.83
792.235	84.82
792.416	-56.49
792.597	21.33
792.778	111.44
792.958	72.53
793.139	11.09
793.32	82.77
793.5	-1.19
793.681	113.49
793.862	70.48
794.042	27.48
794.223	-70.83
794.404	-11.43
794.584	-76.97
794.765	84.82
794.945	80.72
795.126	152.4
795.306	138.07
795.487	-5.29
795.667	86.87
795.848	103.25
796.028	86.87
796.209	29.52
796.389	68.44
796.57	21.33
796.75	-44.2
796.93	99.16
797.111	-46.25
797.291	70.48
797.471	64.34
797.652	80.72
797.832	76.63
798.012	41.81
798.192	35.67
798.373	-36.01
798.553	29.52
798.733	11.09
798.913	-122.02
799.093	35.67
799.274	47.96
799.454	101.2
799.634	29.52
799.814	111.44
799.994	66.39
800.174	47.96
800.354	13.14
800.534	-40.11
800.714	158.55
800.894	-58.54
801.074	-42.15
801.254	11.09
801.434	105.3
801.614	13.14
801.794	-101.55
801.974	1491.77
802.154	2.9
802.334	45.91
802.514	17.24
802.693	43.86
802.873	9.05
803.053	103.25
803.233	88.92
803.413	-17.58
803.592	-3.24
803.772	-46.25
803.952	86.87
804.131	-1.19
804.311	97.11
804.491	127.83
804.67	-60.59
804.85	-38.06
805.03	76.63
805.209	150.36
805.389	37.72
805.568	45.91
805.748	-11.43
805.928	50
806.107	125.78
806.287	39.76
806.466	62.29
806.646	52.05
806.825	11.09
807.004	-17.58
807.184	88.92
807.363	76.63
807.543	39.76
807.722	-42.15
807.901	80.72
808.081	119.64
808.26	-56.49
808.439	80.72
808.619	19.29
808.798	-21.67
808.977	47.96
809.156	39.76
809.336	103.25
809.515	76.63
809.694	-111.78
809.873	0.85
810.052	7
810.231	74.58
810.411	60.24
810.59	52.05
810.769	39.76
810.948	47.96
811.127	-124.07
811.306	60.24
811.485	7
811.664	131.92
811.843	58.2
812.022	13.14
812.201	13.14
812.38	-9.39
812.559	-1.19
812.737	-36.01
812.916	-46.25
813.095	19.29
813.274	-21.67
813.453	-1.19
813.632	45.91
813.811	-13.48
813.989	-76.97
814.168	7
814.347	-58.54
814.526	17.24
814.704	23.38
814.883	74.58
815.062	-11.43
815.24	43.86
815.419	-93.35
815.598	64.34
815.776	-128.17
815.955	-3.24
816.133	-109.74
816.312	11.09
816.49	-3.24
816.669	47.96
816.847	43.86
817.026	27.48
817.204	15.19
817.383	7
817.561	13.14
817.74	-5.29
817.918	31.57
818.097	-1.19
818.275	-46.25
818.453	-9.39
818.632	-25.77
818.81	-9.39
818.988	-62.63
819.167	-17.58
819.345	-38.06
819.523	-31.91
819.701	35.67
819.879	-15.53
820.058	-74.92
820.236	80.72
820.414	86.87
820.592	-33.96
820.77	-5.29
820.948	70.48
821.127	-19.63
821.305	-13.48
821.483	-25.77
821.661	64.34
821.839	17.24
822.017	-36.01
822.195	-33.96
822.373	84.82
822.551	-60.59
822.729	33.62
822.907	-31.91
823.085	-54.44
823.262	15.19
823.44	-19.63
823.618	-17.58
823.796	-44.2
823.974	13.14
824.152	15.19
824.329	-74.92
824.507	35.67
824.685	25.43
824.863	93.01
825.04	-21.67
825.218	-7.34
825.396	15.19
825.574	-36.01
825.751	21.33
825.929	97.11
826.107	-42.15
826.284	47.96
826.462	47.96
826.639	17.24
826.817	-38.06
826.994	39.76
827.172	50
827.349	56.15
827.527	29.52
827.704	29.52
827.882	-50.35
828.059	-19.63
828.237	-21.67
828.414	9.05
828.591	-169.13
828.769	37.72
828.946	-33.96
829.124	88.92
829.301	41.81
829.478	15.19
829.655	47.96
829.833	7
830.01	-109.74
830.187	86.87
830.364	-11.43
830.542	37.72
830.719	162.64
830.896	90.96
831.073	27.48
831.25	66.39
831.427	-15.53
831.604	78.68
831.782	-13.48
831.959	64.34
832.136	-83.11
832.313	56.15
832.49	-21.67
832.667	31.57
832.844	-50.35
833.021	105.3
833.198	29.52
833.374	101.2
833.551	7
833.728	-17.58
833.905	23.38
834.082	-134.31
834.259	39.76
834.436	7
834.612	-33.96
834.789	35.67
834.966	-5.29
835.143	9.05
835.319	-17.58
835.496	23.38
835.673	45.91
835.85	31.57
836.026	4.95
836.203	-3.24
836.38	-9.39
836.556	-27.82
836.733	-44.2
836.909	160.59
837.086	7
837.262	-111.78
837.439	-17.58
837.616	-27.82
837.792	-50.35
837.968	7
838.145	-33.96
838.321	-33.96
838.498	-19.63
838.674	142.16
838.851	60.24
839.027	-25.77
839.203	-25.77
839.38	15.19
839.556	-38.06
839.732	72.53
839.909	21.33
840.085	-9.39
840.261	27.48
840.437	-15.53
840.614	-52.39
840.79	64.34
840.966	39.76
841.142	-58.54
841.318	-19.63
841.494	-46.25
841.671	68.44
841.847	-91.31
842.023	15.19
842.199	13.14
842.375	117.59
842.551	-33.96
842.727	-50.35
842.903	70.48
843.079	64.34
843.255	138.07
843.431	19.29
843.607	62.29
843.783	-132.26
843.959	41.81
844.134	-52.39
844.31	52.05
844.486	-76.97
844.662	-81.07
844.838	31.57
845.013	80.72
845.189	-19.63
845.365	33.62
845.541	39.76
845.716	35.67
845.892	133.97
846.068	-21.67
846.244	13.14
846.419	66.39
846.595	-68.78
846.77	-64.68
846.946	21.33
847.122	-1.19
847.297	-103.59
847.473	109.4
847.648	-113.83
847.824	33.62
847.999	-160.94
848.175	-25.77
848.35	60.24
848.526	78.68
848.701	39.76
848.876	99.16
849.052	101.2
849.227	39.76
849.403	105.3
849.578	19.29
849.753	37.72
849.929	37.72
850.104	-134.31
850.279	-17.58
850.454	-70.83
850.63	72.53
850.805	88.92
850.98	-52.39
851.155	109.4
851.33	72.53
851.505	-27.82
851.681	150.36
851.856	-52.39
852.031	13.14
852.206	-25.77
852.381	-109.74
852.556	-23.72
852.731	-58.54
852.906	39.76
853.081	-17.58
853.256	74.58
853.431	27.48
853.606	-1.19
853.781	-42.15
853.956	-97.45
854.131	-21.67
854.305	-89.26
854.48	-5.29
854.655	-79.02
854.83	-50.35
855.005	-33.96
855.18	-70.83
855.354	-19.63
855.529	-9.39
855.704	17.24
855.879	11.09
856.053	-27.82
856.228	-13.48
856.403	-25.77
856.577	-56.49
856.752	-124.07
856.926	-46.25
857.101	50
857.276	-91.31
857.45	-19.63
857.625	-27.82
857.799	-15.53
857.974	9.05
858.148	-142.5
858.323	29.52
858.497	-87.21
858.672	-33.96
858.846	-27.82
859.02	52.05
859.195	-33.96
859.369	35.67
859.543	76.63
859.718	-40.11
859.892	-25.77
860.066	-13.48
860.241	-17.58
860.415	-5.29
860.589	-19.63
860.763	-83.11
860.938	-31.91
861.112	39.76
861.286	-5.29
861.46	43.86
861.634	-42.15
861.808	9.05
861.982	-140.46
862.157	-60.59
862.331	-119.98
862.505	-115.88
862.679	-87.21
862.853	9.05
863.027	-56.49
863.201	58.2
863.375	-83.11
863.549	-17.58
863.722	-33.96
863.896	56.15
864.07	-58.54
864.244	7
864.418	86.87
864.592	-27.82
864.766	45.91
864.939	76.63
865.113	-113.83
865.287	97.11
865.461	-115.88
865.634	27.48
865.808	50
865.982	-52.39
866.156	-50.35
866.329	-134.31
866.503	-64.68
866.676	78.68
866.85	-17.58
867.024	-60.59
867.197	52.05
867.371	25.43
867.544	-15.53
867.718	-134.31
867.891	86.87
868.065	-87.21
868.238	27.48
868.412	45.91
868.585	-36.01
868.759	-56.49
868.932	-25.77
869.105	-115.88
869.279	-50.35
869.452	-132.26
869.625	15.19
869.799	58.2
869.972	-79.02
870.145	0.85
870.319	72.53
870.492	-33.96
870.665	-58.54
870.838	-99.5
871.011	-199.85
871.185	-85.16
871.358	-17.58
871.531	-79.02
871.704	-50.35
871.877	15.19
872.05	2.9
872.223	-5.29
872.396	-70.83
872.569	11.09
872.742	-74.92
872.915	-19.63
873.088	-46.25
873.261	-11.43
873.434	-50.35
873.607	11.09
873.78	80.72
873.953	-83.11
874.126	-3.24
874.299	43.86
874.471	-36.01
874.644	29.52
874.817	-1.19
874.99	64.34
875.163	-79.02
875.335	11.09
875.508	27.48
875.681	21.33
875.853	-70.83
876.026	-9.39
876.199	27.48
876.371	-1.19
876.544	31.57
876.717	-52.39
876.889	-46.25
877.062	35.67
877.234	-48.3
877.407	-60.59
877.579	-60.59
877.752	41.81
877.924	127.83
878.097	-31.91
878.269	-15.53
878.442	-52.39
878.614	45.91
878.786	47.96
878.959	35.67
879.131	35.67
879.303	-101.55
879.476	31.57
879.648	4.95
879.82	-50.35
879.993	-70.83
880.165	-76.97
880.337	-50.35
880.509	-42.15
880.681	-66.73
880.854	-91.31
881.026	27.48
881.198	74.58
881.37	-70.83
881.542	37.72
881.714	4.95
881.886	-23.72
882.058	70.48
882.23	31.57
882.402	-25.77
882.574	37.72
882.746	19.29
882.918	39.76
883.09	17.24
883.262	-21.67
883.434	-109.74
883.606	-81.07
883.778	7
883.95	64.34
884.122	-27.82
884.293	31.57
884.465	-7.34
884.637	19.29
884.809	11.09
884.98	41.81
885.152	23.38
885.324	-3.24
885.496	-42.15
885.667	-11.43
885.839	-58.54
886.011	54.1
886.182	64.34
886.354	64.34
886.525	-29.87
886.697	56.15
886.869	-60.59
887.04	-25.77
887.212	43.86
887.383	127.83
887.555	-9.39
887.726	-87.21
887.897	21.33
888.069	-44.2
888.24	23.38
888.412	7
888.583	7
888.754	-42.15
888.926	-64.68
889.097	-58.54
889.268	-72.87
889.44	21.33
889.611	-136.36
889.782	-46.25
889.953	-42.15
890.125	54.1
890.296	-126.12
890.467	-21.67
890.638	31.57
890.809	11.09
890.98	-60.59
891.151	-42.15
891.323	54.1
891.494	-29.87
891.665	-29.87
891.836	-33.96
892.007	-33.96
892.178	39.76
892.349	-11.43
892.52	-72.87
892.691	-17.58
892.862	64.34
893.032	-62.63
893.203	-60.59
893.374	-50.35
893.545	31.57
893.716	11.09
893.887	-1.19
894.057	-62.63
894.228	-1.19
894.399	-1.19
894.57	47.96
894.74	-58.54
894.911	37.72
895.082	60.24
895.253	-19.63
895.423	31.57
895.594	17.24
895.764	58.2
895.935	-13.48
896.106	-9.39
896.276	-66.73
896.447	0.85
896.617	-115.88
896.788	-52.39
896.958	-105.64
897.129	-72.87
897.299	-44.2
897.47	129.88
897.64	64.34
897.81	-97.45
897.981	23.38
898.151	-68.78
898.322	-3.24
898.492	-17.58
898.662	-9.39
898.832	-50.35
899.003	-81.07
899.173	-58.54
899.343	-85.16
899.513	-50.35
