Data from USB4F104151__81__10-33-58-138.txt Node

Date: Wed Feb 26 10:33:58 EST 2025
User: louis
Spectrometer: USB4F10415
Trigger mode: 4
Integration Time (sec): 1.000000E-1
Scans to average: 1
Electric dark correction enabled: true
Nonlinearity correction enabled: false
Boxcar width: 0
XAxis mode: Wavelengths
Number of Pixels in Spectrum: 3648
>>>>>Begin Spectral Data<<<<<
178.204	-401.06
178.424	-401.06
178.644	-401.06
178.864	-382.63
179.084	-302.76
179.304	26.96
179.524	-54.95
179.744	-13.99
179.964	90.45
180.184	45.4
180.404	26.96
180.624	-16.04
180.844	26.96
181.064	-73.39
181.283	-7.85
181.503	-38.57
181.723	-11.95
181.943	-97.96
182.163	162.13
182.383	22.87
182.602	65.88
182.822	145.75
183.042	84.31
183.262	-5.8
183.482	4.44
183.701	80.21
183.921	125.27
184.141	-83.63
184.361	63.83
184.58	61.78
184.8	31.06
185.02	37.2
185.239	123.22
185.459	24.92
185.679	69.97
185.898	49.49
186.118	-18.09
186.338	37.2
186.557	90.45
186.777	-40.62
186.997	57.68
187.216	121.17
187.436	170.32
187.655	88.4
187.875	108.88
188.095	-48.81
188.314	102.74
188.534	102.74
188.753	18.77
188.973	135.51
189.192	147.8
189.412	39.25
189.631	0.34
189.851	29.01
190.07	176.47
190.29	8.53
190.509	-32.43
190.729	63.83
190.948	166.23
191.168	223.57
191.387	63.83
191.607	18.77
191.826	12.63
192.045	43.35
192.265	-11.95
192.484	65.88
192.704	53.59
192.923	-50.86
193.142	203.09
193.362	74.07
193.581	100.69
193.8	51.54
194.02	41.3
194.239	18.77
194.458	123.22
194.678	26.96
194.897	119.12
195.116	53.59
195.335	-13.99
195.555	57.68
195.774	37.2
195.993	145.75
196.212	-20.14
196.432	-26.28
196.651	53.59
196.87	88.4
197.089	276.82
197.308	76.12
197.528	94.55
197.747	2.39
197.966	53.59
198.185	186.71
198.404	22.87
198.623	115.03
198.842	172.37
199.062	84.31
199.281	108.88
199.5	35.16
199.719	127.32
199.938	59.73
200.157	53.59
200.376	168.27
200.595	26.96
200.814	141.65
201.033	24.92
201.252	168.27
201.471	92.5
201.69	53.59
201.909	47.44
202.128	104.79
202.347	133.46
202.566	137.56
202.785	-28.33
203.004	39.25
203.223	229.71
203.442	33.11
203.661	-34.47
203.879	72.02
204.098	188.75
204.317	2.39
204.536	16.73
204.755	63.83
204.974	110.93
205.193	-18.09
205.411	211.28
205.63	186.71
205.849	88.4
206.068	-83.63
206.287	12.63
206.505	18.77
206.724	-5.8
206.943	-32.43
207.162	-81.58
207.381	145.75
207.599	14.68
207.818	45.4
208.037	47.44
208.255	69.97
208.474	57.68
208.693	37.2
208.911	84.31
209.13	112.98
209.349	63.83
209.567	125.27
209.786	92.5
210.005	63.83
210.223	43.35
210.442	-108.2
210.661	-38.57
210.879	69.97
211.098	69.97
211.316	47.44
211.535	63.83
211.753	33.11
211.972	78.16
212.191	2.39
212.409	-7.85
212.628	119.12
212.846	63.83
213.065	82.26
213.283	131.41
213.502	10.58
213.72	100.69
213.938	76.12
214.157	47.44
214.375	78.16
214.594	65.88
214.812	35.16
215.031	12.63
215.249	90.45
215.467	102.74
215.686	-20.14
215.904	24.92
216.122	-9.9
216.341	225.62
216.559	67.92
216.778	162.13
216.996	145.75
217.214	18.77
217.432	59.73
217.651	-7.85
217.869	149.84
218.087	55.64
218.306	-48.81
218.524	80.21
218.742	-38.57
218.96	74.07
219.179	-7.85
219.397	-32.43
219.615	223.57
219.833	94.55
220.051	-5.8
220.27	182.61
220.488	80.21
220.706	26.96
220.924	-7.85
221.142	53.59
221.36	74.07
221.578	78.16
221.796	57.68
222.015	59.73
222.233	69.97
222.451	172.37
222.669	-61.1
222.887	80.21
223.105	16.73
223.323	104.79
223.541	82.26
223.759	133.46
223.977	112.98
224.195	205.14
224.413	41.3
224.631	80.21
224.849	51.54
225.067	186.71
225.285	0.34
225.503	-1.71
225.721	-36.52
225.939	39.25
226.157	69.97
226.375	244.05
226.592	65.88
226.81	22.87
227.028	108.88
227.246	110.93
227.464	88.4
227.682	39.25
227.9	74.07
228.117	59.73
228.335	57.68
228.553	49.49
228.771	39.25
228.989	43.35
229.206	123.22
229.424	49.49
229.642	29.01
229.86	6.49
230.077	137.56
230.295	12.63
230.513	39.25
230.731	90.45
230.948	190.8
231.166	172.37
231.384	49.49
231.601	47.44
231.819	162.13
232.037	-5.8
232.254	-38.57
232.472	49.49
232.689	0.34
232.907	76.12
233.125	12.63
233.342	92.5
233.56	16.73
233.777	20.82
233.995	65.88
234.213	100.69
234.43	88.4
234.648	-16.04
234.865	16.73
235.083	43.35
235.3	90.45
235.518	96.6
235.735	170.32
235.953	112.98
236.17	65.88
236.388	-20.14
236.605	22.87
236.822	86.36
237.04	123.22
237.257	47.44
237.475	-59.05
237.692	35.16
237.909	139.6
238.127	-13.99
238.344	149.84
238.562	16.73
238.779	-95.91
238.996	-48.81
239.214	49.49
239.431	69.97
239.648	-1.71
239.865	37.2
240.083	29.01
240.3	-85.67
240.517	84.31
240.735	31.06
240.952	231.76
241.169	92.5
241.386	55.64
241.603	65.88
241.821	-9.9
242.038	69.97
242.255	69.97
242.472	78.16
242.689	86.36
242.907	49.49
243.124	82.26
243.341	61.78
243.558	37.2
243.775	-100.01
243.992	-52.91
244.209	98.64
244.426	170.32
244.643	131.41
244.86	-30.38
245.078	133.46
245.295	100.69
245.512	10.58
245.729	-40.62
245.946	63.83
246.163	26.96
246.38	-5.8
246.597	115.03
246.814	35.16
247.031	53.59
247.248	-13.99
247.464	88.4
247.681	43.35
247.898	102.74
248.115	49.49
248.332	-22.19
248.549	102.74
248.766	145.75
248.983	117.08
249.2	72.02
249.417	16.73
249.633	41.3
249.85	106.84
250.067	45.4
250.284	24.92
250.501	51.54
250.717	145.75
250.934	-22.19
251.151	-9.9
251.368	31.06
251.585	61.78
251.801	72.02
252.018	2.39
252.235	108.88
252.451	-126.63
252.668	10.58
252.885	72.02
253.102	-30.38
253.318	-32.43
253.535	4.44
253.752	14.68
253.968	-42.67
254.185	-69.29
254.401	10.58
254.618	72.02
254.835	-18.09
255.051	108.88
255.268	110.93
255.484	102.74
255.701	106.84
255.917	153.94
256.134	16.73
256.351	-22.19
256.567	-34.47
256.784	33.11
257	-44.71
257.217	94.55
257.433	123.22
257.65	57.68
257.866	160.08
258.082	-77.48
258.299	-32.43
258.515	69.97
258.732	35.16
258.948	35.16
259.165	-3.75
259.381	-1.71
259.597	78.16
259.814	22.87
260.03	65.88
260.246	16.73
260.463	121.17
260.679	196.95
260.895	51.54
261.112	123.22
261.328	39.25
261.544	-69.29
261.761	203.09
261.977	-1.71
262.193	-52.91
262.409	47.44
262.626	65.88
262.842	-3.75
263.058	-5.8
263.274	96.6
263.49	55.64
263.707	141.65
263.923	61.78
264.139	-46.76
264.355	47.44
264.571	155.99
264.787	16.73
265.004	137.56
265.22	29.01
265.436	-7.85
265.652	31.06
265.868	67.92
266.084	-81.58
266.3	88.4
266.516	-34.47
266.732	82.26
266.948	110.93
267.164	-26.28
267.38	47.44
267.596	90.45
267.812	211.28
268.028	119.12
268.244	39.25
268.46	121.17
268.676	-3.75
268.892	102.74
269.108	49.49
269.324	24.92
269.54	-5.8
269.756	162.13
269.972	-83.63
270.188	57.68
270.403	-34.47
270.619	39.25
270.835	88.4
271.051	72.02
271.267	59.73
271.483	67.92
271.698	131.41
271.914	72.02
272.13	125.27
272.346	16.73
272.562	4.44
272.777	170.32
272.993	22.87
273.209	-3.75
273.425	61.78
273.64	-116.39
273.856	100.69
274.072	39.25
274.287	0.34
274.503	76.12
274.719	100.69
274.934	-34.47
275.15	-22.19
275.366	35.16
275.581	-16.04
275.797	2.39
276.012	112.98
276.228	104.79
276.444	90.45
276.659	96.6
276.875	-63.15
277.09	-18.09
277.306	-16.04
277.521	78.16
277.737	12.63
277.952	61.78
278.168	76.12
278.383	110.93
278.599	0.34
278.814	57.68
279.03	47.44
279.245	153.94
279.461	51.54
279.676	115.03
279.892	-110.25
280.107	33.11
280.322	33.11
280.538	49.49
280.753	-30.38
280.969	92.5
281.184	69.97
281.399	139.6
281.615	45.4
281.83	127.32
282.045	-42.67
282.26	26.96
282.476	119.12
282.691	84.31
282.906	-16.04
283.122	-1.71
283.337	20.82
283.552	76.12
283.767	-44.71
283.983	123.22
284.198	-16.04
284.413	43.35
284.628	0.34
284.843	31.06
285.058	160.08
285.274	-36.52
285.489	-34.47
285.704	131.41
285.919	59.73
286.134	20.82
286.349	94.55
286.564	39.25
286.779	168.27
286.995	16.73
287.21	-22.19
287.425	29.01
287.64	31.06
287.855	18.77
288.07	-7.85
288.285	129.36
288.5	131.41
288.715	59.73
288.93	-11.95
289.145	18.77
289.36	192.85
289.575	-3.75
289.79	178.51
290.004	-13.99
290.219	131.41
290.434	-7.85
290.649	-38.57
290.864	45.4
291.079	45.4
291.294	39.25
291.509	72.02
291.724	96.6
291.938	57.68
292.153	33.11
292.368	49.49
292.583	45.4
292.798	112.98
293.012	63.83
293.227	41.3
293.442	-28.33
293.657	121.17
293.871	127.32
294.086	84.31
294.301	141.65
294.516	123.22
294.73	65.88
294.945	-42.67
295.16	-11.95
295.374	145.75
295.589	80.21
295.804	84.31
296.018	43.35
296.233	147.8
296.447	123.22
296.662	-5.8
296.877	164.18
297.091	20.82
297.306	55.64
297.52	6.49
297.735	20.82
297.949	-3.75
298.164	145.75
298.378	14.68
298.593	-57
298.807	-13.99
299.022	43.35
299.236	168.27
299.451	-3.75
299.665	63.83
299.88	10.58
300.094	119.12
300.309	94.55
300.523	76.12
300.737	47.44
300.952	6.49
301.166	67.92
301.381	-13.99
301.595	12.63
301.809	35.16
302.024	26.96
302.238	-18.09
302.452	121.17
302.667	37.2
302.881	47.44
303.095	178.51
303.309	147.8
303.524	14.68
303.738	16.73
303.952	-24.23
304.166	90.45
304.381	-69.29
304.595	127.32
304.809	33.11
305.023	-1.71
305.237	4.44
305.452	-54.95
305.666	102.74
305.88	35.16
306.094	108.88
306.308	57.68
306.522	115.03
306.736	129.36
306.95	55.64
307.164	92.5
307.379	18.77
307.593	149.84
307.807	112.98
308.021	100.69
308.235	131.41
308.449	-61.1
308.663	96.6
308.877	237.91
309.091	6.49
309.305	59.73
309.519	26.96
309.733	90.45
309.947	-65.19
310.161	41.3
310.374	84.31
310.588	143.7
310.802	-16.04
311.016	-1.71
311.23	69.97
311.444	-28.33
311.658	53.59
311.872	172.37
312.085	86.36
312.299	129.36
312.513	119.12
312.727	80.21
312.941	-5.8
313.154	55.64
313.368	51.54
313.582	-44.71
313.796	53.59
314.009	72.02
314.223	178.51
314.437	2.39
314.651	139.6
314.864	41.3
315.078	55.64
315.292	-34.47
315.505	-32.43
315.719	135.51
315.933	59.73
316.146	-1.71
316.36	-22.19
316.573	184.66
316.787	162.13
317.001	102.74
317.214	-48.81
317.428	57.68
317.641	-18.09
317.855	-42.67
318.068	90.45
318.282	51.54
318.495	82.26
318.709	153.94
318.922	110.93
319.136	102.74
319.349	139.6
319.563	61.78
319.776	92.5
319.99	-16.04
320.203	104.79
320.417	31.06
320.63	141.65
320.843	231.76
321.057	110.93
321.27	22.87
321.483	65.88
321.697	110.93
321.91	117.08
322.124	33.11
322.337	94.55
322.55	10.58
322.763	76.12
322.977	61.78
323.19	20.82
323.403	80.21
323.617	92.5
323.83	137.56
324.043	41.3
324.256	20.82
324.469	-104.11
324.683	57.68
324.896	2.39
325.109	-3.75
325.322	-42.67
325.535	63.83
325.748	35.16
325.962	-40.62
326.175	74.07
326.388	41.3
326.601	117.08
326.814	74.07
327.027	92.5
327.24	168.27
327.453	-44.71
327.666	67.92
327.879	168.27
328.092	172.37
328.305	90.45
328.518	0.34
328.731	-28.33
328.944	18.77
329.157	72.02
329.37	18.77
329.583	129.36
329.796	190.8
330.009	-48.81
330.222	90.45
330.435	55.64
330.648	100.69
330.861	14.68
331.073	63.83
331.286	65.88
331.499	14.68
331.712	-18.09
331.925	67.92
332.138	-20.14
332.35	49.49
332.563	-54.95
332.776	96.6
332.989	-57
333.202	98.64
333.414	-38.57
333.627	45.4
333.84	88.4
334.053	74.07
334.265	20.82
334.478	18.77
334.691	16.73
334.903	123.22
335.116	39.25
335.329	-5.8
335.541	125.27
335.754	180.56
335.966	14.68
336.179	53.59
336.392	29.01
336.604	-9.9
336.817	129.36
337.029	127.32
337.242	45.4
337.454	102.74
337.667	14.68
337.88	139.6
338.092	100.69
338.305	78.16
338.517	-38.57
338.729	18.77
338.942	143.7
339.154	22.87
339.367	-13.99
339.579	86.36
339.792	-18.09
340.004	92.5
340.217	51.54
340.429	-28.33
340.641	41.3
340.854	10.58
341.066	-9.9
341.278	72.02
341.491	196.95
341.703	41.3
341.915	-11.95
342.128	151.89
342.34	-7.85
342.552	-71.34
342.764	96.6
342.977	4.44
343.189	51.54
343.401	-9.9
343.613	-16.04
343.826	57.68
344.038	-9.9
344.25	6.49
344.462	-48.81
344.674	14.68
344.886	-26.28
345.099	53.59
345.311	45.4
345.523	59.73
345.735	-87.72
345.947	-20.14
346.159	53.59
346.371	61.78
346.583	39.25
346.795	186.71
347.007	26.96
347.219	92.5
347.431	49.49
347.643	133.46
347.855	-32.43
348.067	153.94
348.279	55.64
348.491	18.77
348.703	29.01
348.915	8.53
349.127	90.45
349.339	22.87
349.551	-24.23
349.763	151.89
349.975	37.2
350.187	16.73
350.399	184.66
350.61	6.49
350.822	4.44
351.034	16.73
351.246	31.06
351.458	106.84
351.669	78.16
351.881	29.01
352.093	94.55
352.305	207.19
352.517	94.55
352.728	110.93
352.94	53.59
353.152	112.98
353.363	90.45
353.575	67.92
353.787	112.98
353.999	39.25
354.21	155.99
354.422	-50.86
354.633	121.17
354.845	69.97
355.057	31.06
355.268	63.83
355.48	43.35
355.692	31.06
355.903	24.92
356.115	22.87
356.326	-63.15
356.538	162.13
356.749	84.31
356.961	84.31
357.172	-1.71
357.384	-36.52
357.595	196.95
357.807	63.83
358.018	49.49
358.23	-26.28
358.441	155.99
358.653	98.64
358.864	10.58
359.075	-3.75
359.287	20.82
359.498	112.98
359.709	123.22
359.921	76.12
360.132	-36.52
360.344	2.39
360.555	-44.71
360.766	16.73
360.977	10.58
361.189	121.17
361.4	2.39
361.611	110.93
361.823	74.07
362.034	84.31
362.245	-81.58
362.456	49.49
362.667	110.93
362.879	-24.23
363.09	-1.71
363.301	59.73
363.512	49.49
363.723	-5.8
363.935	-24.23
364.146	92.5
364.357	-32.43
364.568	123.22
364.779	-7.85
364.99	55.64
365.201	-18.09
365.412	198.99
365.623	-9.9
365.834	106.84
366.045	-9.9
366.256	84.31
366.467	100.69
366.678	41.3
366.889	14.68
367.1	41.3
367.311	117.08
367.522	-34.47
367.733	86.36
367.944	39.25
368.155	-30.38
368.366	119.12
368.577	129.36
368.788	108.88
368.999	-63.15
369.209	80.21
369.42	172.37
369.631	215.38
369.842	145.75
370.053	-9.9
370.264	102.74
370.474	-28.33
370.685	84.31
370.896	100.69
371.107	153.94
371.317	20.82
371.528	72.02
371.739	168.27
371.95	57.68
372.16	82.26
372.371	-30.38
372.582	-34.47
372.792	100.69
373.003	86.36
373.214	53.59
373.424	55.64
373.635	-7.85
373.846	106.84
374.056	121.17
374.267	49.49
374.477	29.01
374.688	-65.19
374.898	112.98
375.109	72.02
375.319	92.5
375.53	63.83
375.74	98.64
375.951	24.92
376.161	76.12
376.372	88.4
376.582	-1.71
376.793	98.64
377.003	49.49
377.214	14.68
377.424	121.17
377.635	86.36
377.845	39.25
378.055	86.36
378.266	-71.34
378.476	2.39
378.686	112.98
378.897	39.25
379.107	131.41
379.317	47.44
379.528	-20.14
379.738	139.6
379.948	12.63
380.158	151.89
380.369	4.44
380.579	133.46
380.789	26.96
380.999	47.44
381.21	69.97
381.42	155.99
381.63	43.35
381.84	69.97
382.05	127.32
382.261	80.21
382.471	96.6
382.681	-18.09
382.891	178.51
383.101	102.74
383.311	14.68
383.521	51.54
383.731	115.03
383.941	129.36
384.151	96.6
384.361	39.25
384.571	57.68
384.781	61.78
384.991	178.51
385.201	203.09
385.411	119.12
385.621	63.83
385.831	112.98
386.041	6.49
386.251	14.68
386.461	155.99
386.671	35.16
386.881	86.36
387.091	74.07
387.301	84.31
387.511	12.63
387.72	119.12
387.93	117.08
388.14	10.58
388.35	76.12
388.56	162.13
388.769	100.69
388.979	47.44
389.189	-3.75
389.399	47.44
389.609	72.02
389.818	123.22
390.028	72.02
390.238	26.96
390.447	-22.19
390.657	10.58
390.867	47.44
391.076	-73.39
391.286	86.36
391.496	57.68
391.705	-34.47
391.915	119.12
392.125	102.74
392.334	67.92
392.544	155.99
392.753	55.64
392.963	74.07
393.172	47.44
393.382	-5.8
393.591	160.08
393.801	-20.14
394.01	160.08
394.22	72.02
394.429	20.82
394.639	37.2
394.848	88.4
395.058	98.64
395.267	26.96
395.477	14.68
395.686	96.6
395.895	272.72
396.105	266.58
396.314	98.64
396.524	76.12
396.733	69.97
396.942	178.51
397.152	59.73
397.361	112.98
397.57	51.54
397.78	74.07
397.989	78.16
398.198	203.09
398.407	-26.28
398.617	76.12
398.826	-5.8
399.035	-38.57
399.244	55.64
399.453	22.87
399.663	45.4
399.872	47.44
400.081	-5.8
400.29	205.14
400.499	29.01
400.708	108.88
400.917	45.4
401.127	158.03
401.336	33.11
401.545	143.7
401.754	78.16
401.963	164.18
402.172	35.16
402.381	-30.38
402.59	22.87
402.799	98.64
403.008	110.93
403.217	88.4
403.426	104.79
403.635	-73.39
403.844	14.68
404.053	98.64
404.262	84.31
404.471	166.23
404.68	67.92
404.888	67.92
405.097	22.87
405.306	10.58
405.515	155.99
405.724	-24.23
405.933	117.08
406.142	-16.04
406.35	123.22
406.559	-28.33
406.768	59.73
406.977	178.51
407.185	37.2
407.394	117.08
407.603	-110.25
407.812	63.83
408.02	141.65
408.229	53.59
408.438	100.69
408.646	-63.15
408.855	-1.71
409.064	49.49
409.272	-9.9
409.481	96.6
409.69	-9.9
409.898	2.39
410.107	102.74
410.315	131.41
410.524	53.59
410.733	74.07
410.941	67.92
411.15	96.6
411.358	59.73
411.567	102.74
411.775	31.06
411.984	10.58
412.192	94.55
412.401	-38.57
412.609	217.43
412.818	106.84
413.026	55.64
413.234	72.02
413.443	31.06
413.651	-48.81
413.86	98.64
414.068	174.42
414.276	139.6
414.485	-32.43
414.693	143.7
414.901	174.42
415.11	141.65
415.318	-1.71
415.526	55.64
415.734	164.18
415.943	112.98
416.151	72.02
416.359	-65.19
416.567	57.68
416.776	74.07
416.984	47.44
417.192	196.95
417.4	43.35
417.608	-16.04
417.817	53.59
418.025	178.51
418.233	147.8
418.441	-16.04
418.649	-13.99
418.857	26.96
419.065	203.09
419.273	10.58
419.481	47.44
419.689	88.4
419.897	18.77
420.105	-42.67
420.313	55.64
420.521	143.7
420.729	168.27
420.937	47.44
421.145	4.44
421.353	117.08
421.561	141.65
421.769	80.21
421.977	53.59
422.185	164.18
422.393	51.54
422.601	72.02
422.809	108.88
423.017	-3.75
423.224	67.92
423.432	74.07
423.64	45.4
423.848	164.18
424.056	86.36
424.263	174.42
424.471	-9.9
424.679	158.03
424.887	2.39
425.094	82.26
425.302	80.21
425.51	29.01
425.718	119.12
425.925	108.88
426.133	20.82
426.341	246.1
426.548	49.49
426.756	-32.43
426.964	74.07
427.171	16.73
427.379	102.74
427.586	127.32
427.794	80.21
428.001	53.59
428.209	61.78
428.417	256.34
428.624	158.03
428.832	143.7
429.039	67.92
429.247	6.49
429.454	59.73
429.662	223.57
429.869	94.55
430.076	172.37
430.284	112.98
430.491	180.56
430.699	108.88
430.906	207.19
431.114	170.32
431.321	80.21
431.528	55.64
431.736	90.45
431.943	74.07
432.15	217.43
432.358	145.75
432.565	264.53
432.772	37.2
432.979	178.51
433.187	147.8
433.394	174.42
433.601	31.06
433.808	170.32
434.016	246.1
434.223	192.85
434.43	65.88
434.637	194.9
434.844	158.03
435.052	190.8
435.259	176.47
435.466	209.23
435.673	205.14
435.88	229.71
436.087	248.15
436.294	274.77
436.501	330.06
436.708	270.67
436.915	203.09
437.122	280.91
437.329	227.67
437.537	295.25
437.743	246.1
437.95	319.82
438.157	274.77
438.364	278.87
438.571	332.11
438.778	352.59
438.985	293.2
439.192	407.89
439.399	246.1
439.606	325.97
439.813	397.65
440.02	461.13
440.227	498
440.433	411.98
440.64	336.21
440.847	338.26
441.054	424.27
441.261	590.16
441.467	452.94
441.674	420.17
441.881	514.38
442.088	489.81
442.294	602.44
442.501	590.16
442.708	563.53
442.914	532.81
443.121	526.67
443.328	592.2
443.534	700.75
443.741	682.31
443.948	522.57
444.154	647.5
444.361	887.11
444.568	803.15
444.774	762.19
444.981	647.5
445.187	803.15
445.394	858.44
445.6	829.77
445.807	919.88
446.013	801.1
446.22	848.2
446.426	993.61
446.633	1139.01
446.839	1112.39
447.046	991.56
447.252	1308.99
447.459	1136.96
447.665	1102.15
447.871	1259.84
448.078	1302.85
448.284	1421.63
448.491	1458.5
448.697	1595.71
448.903	1526.08
449.11	1540.41
449.316	1591.61
449.522	1792.31
449.728	1681.72
449.935	1816.89
450.141	1743.16
450.347	1917.24
450.553	1888.57
450.76	1945.91
450.966	2013.49
451.172	2183.48
451.378	2210.1
451.584	2232.63
451.791	2486.58
451.997	2480.43
452.203	2566.45
452.409	2679.08
452.615	2885.93
452.821	2687.28
453.027	2595.12
453.233	3133.73
453.44	2963.75
453.646	3154.21
453.852	3316
454.058	3397.92
454.264	3399.97
454.47	3864.86
454.676	3793.18
454.882	4088.09
455.088	3842.33
455.294	4112.66
455.5	4464.91
455.705	4665.61
455.911	4706.57
456.117	4716.81
456.323	4905.23
456.529	4958.47
456.735	5480.71
456.941	5505.28
457.147	5837.05
457.352	5835
457.558	6011.13
457.764	6424.82
457.97	6721.77
458.176	6912.24
458.381	7203.05
458.587	7278.82
458.793	7510.24
458.999	7659.74
459.204	8665.3
459.41	8999.12
459.616	8876.24
459.821	9404.61
460.027	9742.53
460.233	10231.99
460.438	10166.46
460.644	10762.42
460.85	10850.48
461.055	11135.15
461.261	11913.38
461.466	11780.26
461.672	11860.13
461.878	13129.87
462.083	12959.89
462.289	13392.01
462.494	13846.66
462.7	13971.58
462.905	14235.77
463.111	15378.54
463.316	16070.75
463.522	16195.68
463.727	16756.82
463.932	17635.4
464.138	18090.05
464.343	18489.4
464.549	18874.42
464.754	20176.93
464.959	20885.53
465.165	21202.96
465.37	20768.79
465.575	20936.73
465.781	22218.75
465.986	23324.66
466.191	22724.6
466.397	22902.78
466.602	22237.19
466.807	23580.65
467.012	24063.97
467.218	24295.39
467.423	24573.92
467.628	25061.33
467.833	26400.71
468.038	26044.36
468.244	25376.72
468.449	26562.5
468.654	26138.57
468.859	26388.42
469.064	26476.48
469.269	25755.6
469.474	25933.77
469.679	26451.91
469.885	25989.06
470.09	26286.02
470.295	26122.18
470.5	25538.51
470.705	25702.35
470.91	25051.1
471.115	24866.78
471.32	25442.26
471.525	25044.95
471.73	24154.08
471.935	24330.21
472.139	23435.25
472.344	23599.09
472.549	23048.18
472.754	23050.23
472.959	22306.82
473.164	21639.18
473.369	21186.58
473.574	21772.3
473.778	21207.06
473.983	20903.96
474.188	20838.42
474.393	19623.98
474.598	19920.93
474.802	19245.1
475.007	19263.54
475.212	18661.43
475.417	17713.22
475.621	17840.2
475.826	17662.02
476.031	17197.13
476.235	16689.24
476.44	16939.09
476.645	16394.33
476.849	16289.88
477.054	15941.73
477.259	15677.54
477.463	15466.6
477.668	15179.89
477.872	15077.49
478.077	14639.22
478.282	14293.12
478.486	14243.96
478.691	13940.86
478.895	13836.42
479.1	13897.86
479.304	13895.81
479.509	13320.33
479.713	13639.81
479.918	13019.28
480.122	12775.57
480.326	13068.43
480.531	13031.57
480.735	12820.63
480.94	12486.81
481.144	13203.6
481.348	12026.01
481.553	12480.66
481.757	11806.88
481.961	12042.4
482.166	12361.88
482.37	11995.29
482.574	11704.48
482.778	11641
482.983	11911.33
483.187	11675.81
483.391	11679.91
483.595	11380.9
483.8	11444.39
484.004	11112.62
484.208	11319.46
484.412	11126.96
484.616	11053.23
484.821	11079.85
485.025	10535.09
485.229	10631.35
485.433	10510.52
485.637	10330.3
485.841	10131.64
486.045	10096.83
486.249	9871.55
486.453	9765.06
486.657	9636.03
486.861	9597.12
487.065	9234.63
487.269	9451.72
487.473	8915.15
487.677	9042.12
487.881	9097.42
488.085	8646.87
488.289	8626.39
488.493	8155.35
488.697	8380.63
488.901	8204.5
489.105	8032.47
489.309	7956.7
489.512	7715.04
489.716	7350.5
489.92	7342.31
490.124	7370.98
490.328	7246.05
490.531	7104.74
490.735	6848.75
490.939	6768.88
491.143	6592.75
491.346	6543.6
491.55	6531.31
491.754	6377.72
491.958	6226.17
492.161	6256.89
492.365	6140.15
492.569	5964.03
492.772	5886.2
492.976	5912.83
493.18	5775.61
493.383	5830.91
493.587	5570.82
493.79	5656.83
493.994	5478.66
494.197	5538.05
494.401	5372.16
494.605	5357.83
494.808	5241.09
495.012	5191.94
495.215	5323.01
495.419	5210.37
495.622	5042.44
495.825	4974.86
496.029	4958.47
496.232	5216.52
496.436	4997.39
496.639	5185.8
496.843	4808.97
497.046	4921.61
497.249	5132.55
497.453	4972.81
497.656	4946.19
497.859	4995.34
498.063	5085.45
498.266	5021.96
498.469	4813.07
498.673	4974.86
498.876	4882.7
499.079	5036.3
499.282	5040.39
499.485	5331.2
499.689	5167.37
499.892	5296.39
500.095	4993.29
500.298	5218.57
500.501	5202.18
500.705	5191.94
500.908	5452.03
501.111	5310.72
501.314	5515.52
501.517	5484.8
501.72	5679.36
501.923	5531.9
502.126	5601.54
502.329	5644.54
502.532	5710.08
502.735	5800.19
502.938	6041.85
503.141	5914.88
503.344	5718.27
503.547	6095.1
503.75	6074.62
503.953	6232.31
504.156	6324.47
504.359	6258.93
504.562	6314.23
504.765	6506.74
504.968	6682.86
505.17	6729.97
505.373	6801.65
505.576	7004.39
505.779	7114.98
505.982	7270.63
506.185	7299.3
506.387	7291.11
506.59	7735.52
506.793	7727.33
506.996	7760.09
507.198	8030.43
507.401	8044.76
507.604	8374.49
507.807	8425.68
508.009	8722.64
508.212	8702.16
508.415	9046.22
508.617	9179.34
508.82	9189.58
509.022	9439.43
509.225	9742.53
509.428	9863.36
509.63	10029.24
509.833	10168.51
510.035	10737.84
510.238	10602.68
510.44	10860.72
510.643	11264.17
510.845	11403.43
511.048	11741.35
511.25	11745.44
511.453	12040.35
511.655	12732.56
511.858	12603.54
512.06	13242.51
512.262	13086.86
512.465	13445.26
512.667	13875.33
512.87	14067.84
513.072	14395.51
513.274	14641.27
513.477	15134.83
513.679	15470.7
513.881	15956.07
514.084	16240.73
514.286	16228.45
514.488	16738.39
514.69	17573.96
514.893	17770.57
515.095	17932.36
515.297	18253.89
515.499	18747.45
515.701	18882.61
515.904	19660.84
516.106	20049.96
516.308	20289.57
516.51	20846.62
516.712	21190.67
516.914	21346.32
517.116	21891.08
517.318	22200.32
517.52	22800.38
517.722	23093.24
517.925	23492.59
518.127	23902.18
518.329	24422.37
518.531	24795.1
518.733	25339.86
518.935	25737.16
519.136	25917.39
519.338	26572.74
519.54	26886.08
519.742	27901.87
519.944	27979.69
520.146	28389.28
520.348	28780.45
520.55	28907.42
520.752	29177.75
520.954	30451.59
521.155	29593.49
521.357	30777.22
521.559	30896
521.761	31373.17
521.963	31299.45
522.164	31983.47
522.366	32264.04
522.568	32984.93
522.77	32651.11
522.971	33453.91
523.173	33036.13
523.375	33533.78
523.576	33675.09
523.778	33703.76
523.98	33771.35
524.181	34213.71
524.383	34070.35
524.584	34649.92
524.786	34748.23
524.988	34430.79
525.189	34996.03
525.391	34996.03
525.592	35063.61
525.794	35206.97
525.995	34819.91
526.197	34883.39
526.398	35307.32
526.6	35022.65
526.801	34543.43
527.003	34854.72
527.204	34590.53
527.406	34441.03
527.607	34127.69
527.808	34234.19
528.01	33795.92
528.211	33992.53
528.412	34299.72
528.614	33779.54
528.815	33576.79
529.016	33779.54
529.218	32933.73
529.419	32784.23
529.62	32665.44
529.822	32350.06
530.023	31782.77
530.224	31778.67
530.425	31637.36
530.626	31027.07
530.828	30306.18
531.029	30642.05
531.23	30252.94
531.431	29345.69
531.632	29409.17
531.833	29253.53
532.035	28860.32
532.236	28479.39
532.437	28045.23
532.638	27883.44
532.839	27658.16
533.04	27426.74
533.241	26658.75
533.442	27076.54
533.643	26202.05
533.844	25921.48
534.045	25311.19
534.246	25087.96
534.447	24868.83
534.648	24240.1
534.849	24627.17
535.05	23613.42
535.251	23601.13
535.451	22902.78
535.652	23023.61
535.853	22458.37
536.054	22462.46
536.255	22216.71
536.456	21600.27
536.657	21555.21
536.857	20912.15
537.058	20883.48
537.259	20672.54
537.46	20578.33
537.66	19660.84
537.861	19771.43
538.062	19742.76
538.263	19413.04
538.463	18821.17
538.664	19073.07
538.865	18907.19
539.065	18446.4
539.266	18073.67
539.466	17774.66
539.667	17543.24
539.868	17635.4
540.068	17334.35
540.269	17082.45
540.469	17061.97
540.67	16509.02
540.87	16615.51
541.071	16320.6
541.271	16046.18
541.472	15894.63
541.672	15749.22
541.873	15773.8
542.073	14921.84
542.274	15489.13
542.474	15202.41
542.675	14874.74
542.875	15065.2
543.075	14563.45
543.276	14356.6
543.476	14270.59
543.676	14033.02
543.877	13815.94
544.077	13838.47
544.277	13656.2
544.478	13457.54
544.678	13447.3
544.878	13183.12
545.078	13131.92
545.279	12693.65
545.479	12773.52
545.679	12648.6
545.879	12480.66
546.079	12568.73
546.28	12374.17
546.48	11901.09
546.68	12062.88
546.88	11565.22
547.08	11720.87
547.28	11376.81
547.48	11362.47
547.68	11432.1
547.88	11081.9
548.081	10932.4
548.281	10895.54
548.481	10643.63
548.681	10784.94
548.881	10354.87
549.081	10172.6
549.28	10201.27
549.48	9969.85
549.68	9896.13
549.88	10041.53
550.08	9388.23
550.28	9580.74
550.48	9504.96
550.68	9322.7
550.88	9165
551.08	8882.38
551.279	8958.16
551.479	8704.21
551.679	8792.27
551.879	8466.64
552.079	8548.56
552.278	8255.7
552.478	8179.93
552.678	7913.69
552.878	8171.74
553.077	7678.18
553.277	7444.71
553.477	7600.35
553.676	7497.95
553.876	7545.06
554.076	7287.01
554.275	7209.19
554.475	7037.16
554.674	6914.28
554.874	6686.96
555.074	6631.66
555.273	6531.31
555.473	6551.79
555.672	6320.37
555.872	6328.56
556.071	6091
556.271	6195.45
556.47	5976.31
556.67	5632.26
556.869	5794.04
557.068	5624.06
557.268	5593.34
557.467	5421.31
557.667	5386.5
557.866	5316.87
558.065	5327.11
558.265	5048.58
558.464	4901.13
558.663	5021.96
558.863	4839.69
559.062	4911.37
559.261	4606.22
559.461	4606.22
559.66	4528.4
559.859	4487.44
560.058	4364.56
560.258	4294.93
560.457	4200.73
560.656	4352.27
560.855	4161.81
561.054	4104.47
561.253	4053.27
561.453	4137.24
561.652	3985.69
561.851	3897.63
562.05	3801.37
562.249	3522.85
562.448	3703.07
562.647	3637.53
562.846	3596.57
563.045	3610.91
563.244	3449.12
563.443	3402.02
563.642	3217.7
563.841	3336.48
564.04	3174.69
564.239	3117.35
564.438	3143.97
564.637	3023.14
564.836	3037.48
565.035	3025.19
565.234	2920.74
565.432	2984.23
565.631	2935.08
565.83	2957.61
566.029	2705.71
566.228	2625.84
566.427	2756.91
566.625	2566.45
566.824	2674.99
567.023	2550.06
567.222	2439.47
567.42	2541.87
567.619	2498.86
567.818	2509.1
568.016	2488.62
568.215	2421.04
568.414	2269.49
568.612	2275.63
568.811	2218.29
569.01	2283.83
569.208	2236.72
569.407	2292.02
569.605	2193.72
569.804	2099.51
570.002	2167.09
570.201	2048.31
570.4	2036.02
570.598	1915.19
570.797	1894.71
570.995	1831.23
571.193	1921.34
571.392	1915.19
571.59	1835.32
571.789	1898.81
571.987	1868.09
572.186	1710.4
572.384	1608
572.582	1739.07
572.781	1808.7
572.979	1589.57
573.177	1634.62
573.376	1571.13
573.574	1685.82
573.772	1481.02
573.971	1448.26
574.169	1407.3
574.367	1483.07
574.565	1491.26
574.763	1446.21
574.962	1458.5
575.16	1429.82
575.358	1395.01
575.556	1358.14
575.754	1292.61
575.952	1251.65
576.151	1251.65
576.349	1339.71
576.547	1096
576.745	1306.95
576.943	1327.43
577.141	1171.78
577.339	1141.06
577.537	1145.16
577.735	1139.01
577.933	1153.35
578.131	1089.86
578.329	1136.96
578.527	1042.76
578.725	1114.44
578.923	966.98
579.121	1032.52
579.319	926.02
579.516	962.89
579.714	1190.21
579.912	932.17
580.11	790.86
580.308	921.93
580.506	928.07
580.704	756.04
580.901	794.95
581.099	866.63
581.297	811.34
581.495	858.44
581.692	764.23
581.89	987.46
582.088	747.85
582.285	825.67
582.483	799.05
582.681	815.43
582.878	672.08
583.076	708.94
583.274	676.17
583.471	862.54
583.669	735.56
583.866	567.63
584.064	715.08
584.262	604.49
584.459	631.12
584.657	706.89
584.854	678.22
585.052	715.08
585.249	678.22
585.447	680.27
585.644	592.2
585.841	713.03
586.039	674.12
586.236	649.55
586.434	606.54
586.631	528.72
586.828	502.09
587.026	682.31
587.223	532.81
587.42	479.57
587.618	614.73
587.815	629.07
588.012	581.96
588.21	536.91
588.407	508.24
588.604	614.73
588.801	502.09
588.999	514.38
589.196	502.09
589.393	504.14
589.59	432.46
589.787	487.76
589.984	430.41
590.182	479.57
590.379	469.33
590.576	452.94
590.773	448.85
590.97	399.7
591.167	483.66
591.364	512.33
591.561	442.7
591.758	608.59
591.955	444.75
592.152	530.77
592.349	350.54
592.546	393.55
592.743	330.06
592.94	416.08
593.137	411.98
593.334	563.53
593.531	528.72
593.727	399.7
593.924	510.29
594.121	393.55
594.318	487.76
594.515	522.57
594.712	581.96
594.908	510.29
595.105	411.98
595.302	498
595.499	534.86
595.696	690.51
595.892	442.7
596.089	579.92
596.286	500.05
596.482	596.3
596.679	567.63
596.876	506.19
597.072	684.36
597.269	567.63
597.466	622.92
597.662	528.72
597.859	555.34
598.055	612.68
598.252	684.36
598.448	753.99
598.645	776.52
598.841	694.6
599.038	860.49
599.234	952.65
599.431	743.75
599.627	903.5
599.824	878.92
600.02	899.4
600.217	893.26
600.413	944.45
600.609	950.6
600.806	1302.85
601.002	1038.66
601.198	971.08
601.395	1241.41
601.591	1216.83
601.787	1268.03
601.984	1341.76
602.18	1276.23
602.376	1313.09
602.572	1546.56
602.769	1567.04
602.965	1499.45
603.161	1694.01
603.357	1599.8
603.553	1788.22
603.75	1624.38
603.946	1794.36
604.142	1921.34
604.338	1866.04
604.534	1954.1
604.73	2068.79
604.926	2001.21
605.122	2246.96
605.318	2169.14
605.514	2343.22
605.71	2320.69
605.906	2466.1
606.102	2410.8
606.298	2597.17
606.494	2715.95
606.69	2857.26
606.886	2779.43
607.082	2763.05
607.278	2773.29
607.474	3014.95
607.67	3135.78
607.866	3137.83
608.062	3320.1
608.257	3225.89
608.453	3287.33
608.649	3551.52
608.845	3557.66
609.041	3682.59
609.236	3752.22
609.432	3834.14
609.628	4139.29
609.824	4143.38
610.019	4155.67
610.215	4196.63
610.411	4675.85
610.606	4725.01
610.802	4690.19
610.998	4817.16
611.193	4886.79
611.389	4972.81
611.584	5255.43
611.78	5177.61
611.976	5339.4
612.171	5865.72
612.367	5767.42
612.562	5916.92
612.758	5857.53
612.953	6056.18
613.149	6248.69
613.344	6365.43
613.539	6748.4
613.735	6721.77
613.93	7051.5
614.126	7074.03
614.321	7379.17
614.517	7624.93
614.712	7649.5
614.907	7868.64
615.103	8089.82
615.298	8321.24
615.493	8497.36
615.688	8542.42
615.884	9089.23
616.079	9093.32
616.274	9285.83
616.47	9480.39
616.665	9959.61
616.86	10139.83
617.055	10330.3
617.25	10549.43
617.445	10854.58
617.641	10836.14
617.836	11397.29
618.031	11415.72
618.226	12048.54
618.421	12050.59
618.616	12394.65
618.811	12679.32
619.006	13097.1
619.201	13334.67
619.396	13553.8
619.591	13467.78
619.786	14188.67
619.981	14391.42
620.176	14993.52
620.371	14778.48
620.566	15351.92
620.761	15534.18
620.956	16076.9
621.151	16353.37
621.346	16638.04
621.541	16896.08
621.735	17338.44
621.93	17387.6
622.125	17842.25
622.32	17995.84
622.515	18415.68
622.709	18661.43
622.904	19144.75
623.099	19396.65
623.294	19959.84
623.488	20070.44
623.683	20641.82
623.878	20623.39
624.072	21352.46
624.267	21286.93
624.462	21819.4
624.656	21999.62
624.851	22147.08
625.046	22616.06
625.24	22865.91
625.435	23349.23
625.629	23500.78
625.824	23883.75
626.018	24268.77
626.213	24121.32
626.407	24776.67
626.602	24629.21
626.796	25452.5
626.991	25751.5
627.185	25698.25
627.38	25878.47
627.574	26001.35
627.768	25913.29
627.963	26017.74
628.157	26132.42
628.352	26490.82
628.546	26206.15
628.74	26662.85
628.935	26060.74
629.129	26595.26
629.323	26056.65
629.517	25757.64
629.712	25890.76
629.906	25602
630.1	25143.25
630.294	25243.6
630.489	24772.57
630.683	24393.7
630.877	24154.08
631.071	23609.33
631.265	23406.58
631.459	23031.8
631.653	22329.34
631.848	21895.18
632.042	21250.07
632.236	20987.93
632.43	20228.13
632.624	19427.37
632.818	18862.13
633.012	18565.18
633.206	17995.84
633.4	17424.46
633.594	16576.6
633.788	16242.78
633.982	15872.1
634.176	15341.68
634.369	14297.21
634.563	13904
634.757	13217.93
634.951	12912.78
635.145	12513.43
635.339	12032.16
635.533	11573.41
635.726	10848.43
635.92	10522.8
636.114	10156.22
636.308	9601.22
636.501	9197.77
636.695	8978.64
636.889	8321.24
637.083	8050.91
637.276	7682.27
637.47	7342.31
637.664	7379.17
637.857	7104.74
638.051	6750.45
638.244	6416.63
638.438	6099.19
638.632	6074.62
638.825	5507.33
639.019	5560.58
639.212	5204.23
639.406	5173.51
639.599	4727.05
639.793	4700.43
639.986	4493.58
640.18	4393.23
640.373	4012.31
640.567	3995.93
640.76	3819.8
640.954	3674.4
641.147	3602.72
641.34	3488.03
641.534	3367.2
641.727	3232.04
641.92	2980.14
642.114	2935.08
642.307	2789.67
642.5	2761
642.694	2588.97
642.887	2410.8
643.08	2511.15
643.273	2263.35
643.467	2220.34
643.66	2115.89
643.853	2070.84
644.046	2101.56
644.239	1937.72
644.432	1876.28
644.626	1704.25
644.819	1702.2
645.012	1728.83
645.205	1734.97
645.398	1548.61
645.591	1427.78
645.784	1423.68
645.977	1278.27
646.17	1278.27
646.363	1308.99
646.556	1167.68
646.749	1036.61
646.942	1218.88
647.135	1169.73
647.328	1067.33
647.521	1093.96
647.714	1057.09
647.907	989.51
648.099	780.62
648.292	887.11
648.485	860.49
648.678	788.81
648.871	743.75
649.064	708.94
649.256	627.02
649.449	614.73
649.642	575.82
649.835	590.16
650.027	571.72
650.22	663.88
650.413	502.09
650.605	637.26
650.798	547.15
650.991	600.4
651.183	465.23
651.376	584.01
651.568	475.47
651.761	485.71
651.954	471.37
652.146	502.09
652.339	536.91
652.531	487.76
652.724	420.17
652.916	418.13
653.109	237.91
653.301	389.46
653.494	405.84
653.686	448.85
653.879	368.98
654.071	438.61
654.263	287.06
654.456	285.01
654.648	323.92
654.84	342.35
655.033	323.92
655.225	389.46
655.417	178.51
655.61	354.64
655.802	278.87
655.994	311.63
656.186	194.9
656.379	336.21
656.571	192.85
656.763	207.19
656.955	170.32
657.148	254.29
657.34	301.39
657.532	231.76
657.724	196.95
657.916	246.1
658.108	330.06
658.3	293.2
658.492	252.24
658.684	190.8
658.876	203.09
659.068	117.08
659.26	162.13
659.452	59.73
659.644	213.33
659.836	297.3
660.028	270.67
660.22	176.47
660.412	190.8
660.604	221.52
660.796	227.67
660.988	266.58
661.18	137.56
661.372	254.29
661.563	223.57
661.755	164.18
661.947	180.56
662.139	69.97
662.331	192.85
662.522	141.65
662.714	104.79
662.906	55.64
663.097	164.18
663.289	176.47
663.481	49.49
663.673	223.57
663.864	194.9
664.056	227.67
664.247	133.46
664.439	211.28
664.631	170.32
664.822	203.09
665.014	143.7
665.205	51.54
665.397	35.16
665.588	106.84
665.78	172.37
665.971	201.04
666.163	110.93
666.354	190.8
666.546	55.64
666.737	131.41
666.929	98.64
667.12	20.82
667.311	178.51
667.503	194.9
667.694	106.84
667.885	145.75
668.077	198.99
668.268	74.07
668.459	123.22
668.651	119.12
668.842	129.36
669.033	90.45
669.224	65.88
669.416	209.23
669.607	43.35
669.798	59.73
669.989	186.71
670.18	104.79
670.371	133.46
670.563	90.45
670.754	256.34
670.945	215.38
671.136	196.95
671.327	100.69
671.518	205.14
671.709	338.26
671.9	186.71
672.091	278.87
672.282	188.75
672.473	168.27
672.664	35.16
672.855	155.99
673.046	143.7
673.237	192.85
673.428	155.99
673.619	231.76
673.809	104.79
674	201.04
674.191	147.8
674.382	178.51
674.573	182.61
674.764	112.98
674.954	217.43
675.145	45.4
675.336	55.64
675.527	-13.99
675.717	198.99
675.908	164.18
676.099	203.09
676.289	96.6
676.48	24.92
676.671	221.52
676.861	176.47
677.052	164.18
677.243	215.38
677.433	143.7
677.624	256.34
677.814	217.43
678.005	182.61
678.195	282.96
678.386	133.46
678.576	137.56
678.767	205.14
678.957	203.09
679.148	217.43
679.338	291.15
679.529	207.19
679.719	256.34
679.909	155.99
680.1	262.48
680.29	162.13
680.481	65.88
680.671	297.3
680.861	244.05
681.052	207.19
681.242	125.27
681.432	309.58
681.622	205.14
681.813	123.22
682.003	262.48
682.193	172.37
682.383	205.14
682.573	205.14
682.764	207.19
682.954	278.87
683.144	303.44
683.334	139.6
683.524	194.9
683.714	254.29
683.904	198.99
684.094	330.06
684.284	264.53
684.474	325.97
684.664	235.86
684.854	285.01
685.044	246.1
685.234	180.56
685.424	203.09
685.614	227.67
685.804	330.06
685.994	305.49
686.184	332.11
686.374	301.39
686.564	280.91
686.753	182.61
686.943	119.12
687.133	264.53
687.323	192.85
687.513	262.48
687.702	317.78
687.892	178.51
688.082	235.86
688.272	315.73
688.461	258.39
688.651	387.41
688.841	379.22
689.03	225.62
689.22	229.71
689.41	317.78
689.599	229.71
689.789	201.04
689.979	330.06
690.168	176.47
690.358	328.02
690.547	280.91
690.737	242
690.926	184.66
691.116	274.77
691.305	315.73
691.495	246.1
691.684	115.03
691.874	194.9
692.063	231.76
692.252	334.16
692.442	291.15
692.631	168.27
692.82	160.08
693.01	213.33
693.199	147.8
693.388	231.76
693.578	244.05
693.767	252.24
693.956	262.48
694.146	153.94
694.335	266.58
694.524	141.65
694.713	250.19
694.902	203.09
695.092	151.89
695.281	219.47
695.47	139.6
695.659	235.86
695.848	198.99
696.037	170.32
696.226	309.58
696.415	205.14
696.604	248.15
696.793	317.78
696.982	112.98
697.171	266.58
697.36	166.23
697.549	207.19
697.738	96.6
697.927	172.37
698.116	127.32
698.305	297.3
698.494	158.03
698.683	88.4
698.872	317.78
699.061	190.8
699.25	182.61
699.438	217.43
699.627	155.99
699.816	366.93
700.005	108.88
700.193	155.99
700.382	201.04
700.571	201.04
700.76	225.62
700.948	282.96
701.137	289.1
701.326	127.32
701.514	117.08
701.703	289.1
701.892	194.9
702.08	356.69
702.269	166.23
702.457	106.84
702.646	252.24
702.834	227.67
703.023	313.68
703.212	221.52
703.4	184.66
703.589	227.67
703.777	149.84
703.965	209.23
704.154	160.08
704.342	160.08
704.531	65.88
704.719	186.71
704.907	381.26
705.096	92.5
705.284	137.56
705.472	135.51
705.661	211.28
705.849	299.34
706.037	280.91
706.226	242
706.414	235.86
706.602	160.08
706.79	192.85
706.979	168.27
707.167	164.18
707.355	174.42
707.543	258.39
707.731	237.91
707.919	178.51
708.107	235.86
708.296	233.81
708.484	174.42
708.672	225.62
708.86	192.85
709.048	180.56
709.236	106.84
709.424	190.8
709.612	278.87
709.8	82.26
709.988	198.99
710.176	235.86
710.364	342.35
710.551	227.67
710.739	207.19
710.927	176.47
711.115	205.14
711.303	239.95
711.491	278.87
711.679	82.26
711.866	205.14
712.054	123.22
712.242	223.57
712.43	248.15
712.617	160.08
712.805	323.92
712.993	192.85
713.181	170.32
713.368	194.9
713.556	131.41
713.744	102.74
713.931	387.41
714.119	229.71
714.306	119.12
714.494	194.9
714.682	278.87
714.869	139.6
715.057	231.76
715.244	96.6
715.432	246.1
715.619	127.32
715.807	186.71
715.994	166.23
716.182	270.67
716.369	270.67
716.556	260.43
716.744	178.51
716.931	158.03
717.119	260.43
717.306	125.27
717.493	293.2
717.681	123.22
717.868	209.23
718.055	145.75
718.242	264.53
718.43	194.9
718.617	262.48
718.804	137.56
718.991	303.44
719.179	194.9
719.366	186.71
719.553	297.3
719.74	227.67
719.927	162.13
720.114	192.85
720.301	158.03
720.488	217.43
720.676	180.56
720.863	358.74
721.05	338.26
721.237	268.63
721.424	309.58
721.611	233.81
721.798	166.23
721.985	172.37
722.172	166.23
722.358	170.32
722.545	198.99
722.732	334.16
722.919	346.45
723.106	297.3
723.293	145.75
723.48	225.62
723.667	184.66
723.853	239.95
724.04	282.96
724.227	426.32
724.414	188.75
724.6	293.2
724.787	336.21
724.974	469.33
725.161	297.3
725.347	112.98
725.534	287.06
725.72	244.05
725.907	371.02
726.094	264.53
726.28	186.71
726.467	244.05
726.653	215.38
726.84	399.7
727.027	387.41
727.213	246.1
727.4	250.19
727.586	362.83
727.773	248.15
727.959	297.3
728.145	266.58
728.332	233.81
728.518	278.87
728.705	373.07
728.891	229.71
729.077	285.01
729.264	158.03
729.45	272.72
729.636	301.39
729.823	325.97
730.009	463.18
730.195	266.58
730.382	358.74
730.568	203.09
730.754	262.48
730.94	246.1
731.126	358.74
731.313	340.3
731.499	248.15
731.685	346.45
731.871	237.91
732.057	362.83
732.243	356.69
732.429	368.98
732.615	403.79
732.801	358.74
732.987	377.17
733.173	289.1
733.359	246.1
733.545	272.72
733.731	352.59
733.917	373.07
734.103	317.78
734.289	354.64
734.475	239.95
734.661	407.89
734.847	364.88
735.033	248.15
735.219	387.41
735.404	289.1
735.59	237.91
735.776	315.73
735.962	291.15
736.148	405.84
736.333	395.6
736.519	401.74
736.705	383.31
736.89	358.74
737.076	328.02
737.262	237.91
737.447	272.72
737.633	379.22
737.819	403.79
738.004	317.78
738.19	293.2
738.375	362.83
738.561	481.61
738.747	377.17
738.932	256.34
739.118	422.22
739.303	358.74
739.489	360.78
739.674	299.34
739.859	276.82
740.045	354.64
740.23	373.07
740.416	158.03
740.601	323.92
740.786	278.87
740.972	260.43
741.157	194.9
741.342	266.58
741.528	237.91
741.713	360.78
741.898	321.87
742.084	289.1
742.269	319.82
742.454	444.75
742.639	430.41
742.824	278.87
743.01	381.26
743.195	469.33
743.38	379.22
743.565	313.68
743.75	366.93
743.935	328.02
744.12	346.45
744.305	264.53
744.49	293.2
744.675	264.53
744.86	315.73
745.045	358.74
745.23	309.58
745.415	276.82
745.6	389.46
745.785	313.68
745.97	403.79
746.155	346.45
746.34	407.89
746.525	282.96
746.71	395.6
746.895	237.91
747.079	299.34
747.264	252.24
747.449	293.2
747.634	321.87
747.819	403.79
748.003	291.15
748.188	198.99
748.373	348.5
748.557	250.19
748.742	305.49
748.927	301.39
749.111	229.71
749.296	209.23
749.481	360.78
749.665	256.34
749.85	276.82
750.034	223.57
750.219	272.72
750.404	256.34
750.588	272.72
750.773	196.95
750.957	301.39
751.141	217.43
751.326	373.07
751.51	223.57
751.695	303.44
751.879	293.2
752.064	457.04
752.248	246.1
752.432	375.12
752.617	289.1
752.801	362.83
752.985	201.04
753.17	344.4
753.354	242
753.538	295.25
753.722	172.37
753.907	229.71
754.091	164.18
754.275	258.39
754.459	129.36
754.643	176.47
754.828	262.48
755.012	303.44
755.196	135.51
755.38	280.91
755.564	198.99
755.748	254.29
755.932	207.19
756.116	323.92
756.3	319.82
756.484	235.86
756.668	266.58
756.852	188.75
757.036	166.23
757.22	221.52
757.404	135.51
757.588	96.6
757.772	188.75
757.956	170.32
758.14	344.4
758.323	221.52
758.507	180.56
758.691	166.23
758.875	262.48
759.059	244.05
759.242	203.09
759.426	201.04
759.61	190.8
759.794	74.07
759.977	219.47
760.161	375.12
760.345	252.24
760.528	274.77
760.712	266.58
760.895	194.9
761.079	192.85
761.263	74.07
761.446	184.66
761.63	198.99
761.813	192.85
761.997	104.79
762.18	110.93
762.364	250.19
762.547	80.21
762.731	155.99
762.914	192.85
763.098	153.94
763.281	104.79
763.464	119.12
763.648	217.43
763.831	108.88
764.015	117.08
764.198	207.19
764.381	115.03
764.564	203.09
764.748	209.23
764.931	182.61
765.114	104.79
765.297	182.61
765.481	110.93
765.664	166.23
765.847	170.32
766.03	268.63
766.213	78.16
766.397	190.8
766.58	24.92
766.763	162.13
766.946	147.8
767.129	110.93
767.312	63.83
767.495	147.8
767.678	74.07
767.861	119.12
768.044	153.94
768.227	139.6
768.41	59.73
768.593	170.32
768.776	112.98
768.959	160.08
769.142	213.33
769.324	39.25
769.507	106.84
769.69	117.08
769.873	141.65
770.056	309.58
770.239	137.56
770.421	153.94
770.604	237.91
770.787	112.98
770.97	190.8
771.152	96.6
771.335	160.08
771.518	-59.05
771.7	205.14
771.883	180.56
772.066	125.27
772.248	178.51
772.431	178.51
772.613	217.43
772.796	178.51
772.978	188.75
773.161	180.56
773.343	35.16
773.526	78.16
773.708	-3.75
773.891	-87.72
774.073	90.45
774.256	55.64
774.438	176.47
774.621	72.02
774.803	170.32
774.985	108.88
775.168	178.51
775.35	61.78
775.532	182.61
775.715	12.63
775.897	69.97
776.079	6.49
776.261	121.17
776.444	178.51
776.626	186.71
776.808	2.39
776.99	-44.71
777.173	108.88
777.355	88.4
777.537	10.58
777.719	37.2
777.901	78.16
778.083	69.97
778.265	-3.75
778.447	151.89
778.629	74.07
778.811	59.73
778.993	10.58
779.175	135.51
779.357	98.64
779.539	41.3
779.721	41.3
779.903	153.94
780.085	92.5
780.267	96.6
780.449	78.16
780.631	172.37
780.812	190.8
780.994	92.5
781.176	22.87
781.358	-1.71
781.54	127.32
781.721	127.32
781.903	86.36
782.085	102.74
782.267	125.27
782.448	14.68
782.63	22.87
782.812	115.03
782.993	133.46
783.175	90.45
783.357	43.35
783.538	106.84
783.72	2.39
783.901	51.54
784.083	96.6
784.264	80.21
784.446	8.53
784.627	14.68
784.809	88.4
784.99	65.88
785.172	63.83
785.353	69.97
785.535	-7.85
785.716	65.88
785.897	-46.76
786.079	86.36
786.26	12.63
786.441	49.49
786.623	-44.71
786.804	94.55
786.985	94.55
787.167	119.12
787.348	22.87
787.529	69.97
787.71	158.03
787.891	63.83
788.073	-22.19
788.254	-149.16
788.435	153.94
788.616	22.87
788.797	-7.85
788.978	29.01
789.159	-20.14
789.34	-5.8
789.522	108.88
789.703	-11.95
789.884	80.21
790.065	61.78
790.246	190.8
790.427	74.07
790.607	162.13
790.788	43.35
790.969	29.01
791.15	106.84
791.331	121.17
791.512	-5.8
791.693	35.16
791.874	112.98
792.054	219.47
792.235	139.6
792.416	8.53
792.597	-18.09
792.778	92.5
792.958	115.03
793.139	53.59
793.32	43.35
793.5	-22.19
793.681	117.08
793.862	-22.19
794.042	55.64
794.223	-73.39
794.404	-44.71
794.584	-30.38
794.765	82.26
794.945	53.59
795.126	80.21
795.306	100.69
795.487	41.3
795.667	6.49
795.848	51.54
796.028	108.88
796.209	22.87
796.389	127.32
796.57	57.68
796.75	-77.48
796.93	4.44
797.111	-13.99
797.291	47.44
797.471	53.59
797.652	-3.75
797.832	-18.09
798.012	82.26
798.192	-5.8
798.373	-30.38
798.553	-24.23
798.733	55.64
798.913	-38.57
799.093	0.34
799.274	-46.76
799.454	74.07
799.634	131.41
799.814	104.79
799.994	102.74
800.174	102.74
800.354	-26.28
800.534	-52.91
800.714	108.88
800.894	-42.67
801.074	-145.06
801.254	-3.75
801.434	153.94
801.614	-32.43
801.794	39.25
801.974	1952.06
802.154	76.12
802.334	90.45
802.514	67.92
802.693	33.11
802.873	39.25
803.053	131.41
803.233	106.84
803.413	139.6
803.592	-18.09
803.772	-7.85
803.952	82.26
804.131	14.68
804.311	164.18
804.491	94.55
804.67	8.53
804.85	-57
805.03	84.31
805.209	41.3
805.389	12.63
805.568	8.53
805.748	-9.9
805.928	6.49
806.107	74.07
806.287	-16.04
806.466	92.5
806.646	8.53
806.825	-22.19
807.004	-44.71
807.184	31.06
807.363	-9.9
807.543	106.84
807.722	-18.09
807.901	137.56
808.081	69.97
808.26	-118.44
808.439	-9.9
808.619	51.54
808.798	-22.19
808.977	80.21
809.156	96.6
809.336	41.3
809.515	67.92
809.694	-46.76
809.873	14.68
810.052	88.4
810.231	104.79
810.411	139.6
810.59	72.02
810.769	4.44
810.948	123.22
811.127	-32.43
811.306	-28.33
811.485	-11.95
811.664	182.61
811.843	39.25
812.022	78.16
812.201	26.96
812.38	55.64
812.559	16.73
812.737	53.59
812.916	-46.76
813.095	-81.58
813.274	39.25
813.453	35.16
813.632	49.49
813.811	123.22
813.989	-30.38
814.168	24.92
814.347	4.44
814.526	14.68
814.704	55.64
814.883	20.82
815.062	-9.9
815.24	26.96
815.419	12.63
815.598	119.12
815.776	-30.38
815.955	24.92
816.133	-100.01
816.312	61.78
816.49	14.68
816.669	-11.95
816.847	-16.04
817.026	29.01
817.204	4.44
817.383	-5.8
817.561	-40.62
817.74	80.21
817.918	6.49
818.097	69.97
818.275	-3.75
818.453	63.83
818.632	88.4
818.81	41.3
818.988	24.92
819.167	-54.95
819.345	20.82
819.523	29.01
819.701	26.96
819.879	14.68
820.058	57.68
820.236	61.78
820.414	22.87
820.592	18.77
820.77	57.68
820.948	-57
821.127	14.68
821.305	-18.09
821.483	-13.99
821.661	69.97
821.839	63.83
822.017	41.3
822.195	10.58
822.373	162.13
822.551	33.11
822.729	131.41
822.907	-42.67
823.085	92.5
823.262	53.59
823.44	-44.71
823.618	2.39
823.796	12.63
823.974	6.49
824.152	18.77
824.329	-1.71
824.507	39.25
824.685	104.79
824.863	35.16
825.04	-22.19
825.218	-16.04
825.396	-61.1
825.574	22.87
825.751	88.4
825.929	74.07
826.107	-85.67
826.284	88.4
826.462	55.64
826.639	-13.99
826.817	-136.87
826.994	82.26
827.172	-32.43
827.349	164.18
827.527	41.3
827.704	37.2
827.882	12.63
828.059	10.58
828.237	-81.58
828.414	53.59
828.591	-163.5
828.769	-28.33
828.946	-7.85
829.124	29.01
829.301	141.65
829.478	29.01
829.655	20.82
829.833	-42.67
830.01	-24.23
830.187	88.4
830.364	55.64
830.542	-1.71
830.719	72.02
830.896	-13.99
831.073	51.54
831.25	29.01
831.427	47.44
831.604	-7.85
831.782	-7.85
831.959	37.2
832.136	-18.09
832.313	-40.62
832.49	-61.1
832.667	33.11
832.844	10.58
833.021	59.73
833.198	-13.99
833.374	102.74
833.551	16.73
833.728	-16.04
833.905	51.54
834.082	-100.01
834.259	145.75
834.436	82.26
834.612	8.53
834.789	53.59
834.966	33.11
835.143	51.54
835.319	-126.63
835.496	39.25
835.673	-13.99
835.85	14.68
836.026	47.44
836.203	43.35
836.38	-75.43
836.556	-30.38
836.733	-16.04
836.909	162.13
837.086	-75.43
837.262	-44.71
837.439	43.35
837.616	14.68
837.792	20.82
837.968	20.82
838.145	-57
838.321	24.92
838.498	-3.75
838.674	49.49
838.851	49.49
839.027	-50.86
839.203	-5.8
839.38	26.96
839.556	72.02
839.732	55.64
839.909	108.88
840.085	63.83
840.261	-50.86
840.437	92.5
840.614	67.92
840.79	129.36
840.966	86.36
841.142	-3.75
841.318	-9.9
841.494	63.83
841.671	112.98
841.847	-11.95
842.023	-46.76
842.199	16.73
842.375	82.26
842.551	-38.57
842.727	-116.39
842.903	151.89
843.079	-97.96
843.255	78.16
843.431	-11.95
843.607	-48.81
843.783	-120.49
843.959	33.11
844.134	0.34
844.31	151.89
844.486	-87.72
844.662	-38.57
844.838	-24.23
845.013	-1.71
845.189	172.37
845.365	6.49
845.541	10.58
845.716	-61.1
845.892	53.59
846.068	22.87
846.244	-69.29
846.419	-5.8
846.595	-87.72
846.77	-65.19
846.946	162.13
847.122	-106.15
847.297	35.16
847.473	59.73
847.648	-34.47
847.824	47.44
847.999	-75.43
848.175	-18.09
848.35	104.79
848.526	55.64
848.701	47.44
848.876	53.59
849.052	59.73
849.227	63.83
849.403	-22.19
849.578	-11.95
849.753	14.68
849.929	-18.09
850.104	-59.05
850.279	84.31
850.454	33.11
850.63	63.83
850.805	33.11
850.98	41.3
851.155	-34.47
851.33	65.88
851.505	-48.81
851.681	72.02
851.856	-38.57
852.031	96.6
852.206	65.88
852.381	-11.95
852.556	-32.43
852.731	51.54
852.906	92.5
853.081	-28.33
853.256	198.99
853.431	-102.06
853.606	-20.14
853.781	-1.71
853.956	-75.43
854.131	69.97
854.305	16.73
854.48	-59.05
854.655	-34.47
854.83	2.39
855.005	10.58
855.18	67.92
855.354	-24.23
855.529	8.53
855.704	-38.57
855.879	-26.28
856.053	-79.53
856.228	45.4
856.403	-73.39
856.577	6.49
856.752	-91.82
856.926	61.78
857.101	43.35
857.276	-87.72
857.45	51.54
857.625	31.06
857.799	-1.71
857.974	31.06
858.148	-124.58
858.323	74.07
858.497	-5.8
858.672	-114.34
858.846	-52.91
859.02	96.6
859.195	-54.95
859.369	6.49
859.543	29.01
859.718	74.07
859.892	0.34
860.066	63.83
860.241	-71.34
860.415	-59.05
860.589	-7.85
860.763	12.63
860.938	-100.01
861.112	49.49
861.286	14.68
861.46	31.06
861.634	41.3
861.808	57.68
861.982	-83.63
862.157	-67.24
862.331	-11.95
862.505	-32.43
862.679	-50.86
862.853	-42.67
863.027	-54.95
863.201	162.13
863.375	-7.85
863.549	63.83
863.722	37.2
863.896	86.36
864.07	16.73
864.244	6.49
864.418	49.49
864.592	53.59
864.766	4.44
864.939	29.01
865.113	-54.95
865.287	45.4
865.461	-36.52
865.634	63.83
865.808	43.35
865.982	-7.85
866.156	-40.62
866.329	-89.77
866.503	-16.04
866.676	61.78
866.85	6.49
867.024	-26.28
867.197	31.06
867.371	-61.1
867.544	4.44
867.718	-143.02
867.891	72.02
868.065	-63.15
868.238	20.82
868.412	82.26
868.585	14.68
868.759	37.2
868.932	35.16
869.105	-38.57
869.279	-61.1
869.452	-75.43
869.625	47.44
869.799	-50.86
869.972	-32.43
870.145	-69.29
870.319	-1.71
870.492	-5.8
870.665	-7.85
870.838	-65.19
871.011	-194.22
871.185	-100.01
871.358	8.53
871.531	51.54
871.704	-54.95
871.877	31.06
872.05	-93.87
872.223	-79.53
872.396	37.2
872.569	14.68
872.742	-57
872.915	2.39
873.088	-22.19
873.261	-120.49
873.434	22.87
873.607	-32.43
873.78	94.55
873.953	-7.85
874.126	-16.04
874.299	90.45
874.471	-3.75
874.644	26.96
874.817	80.21
874.99	184.66
875.163	-3.75
875.335	6.49
875.508	2.39
875.681	100.69
875.853	-18.09
876.026	-36.52
876.199	78.16
876.371	10.58
876.544	6.49
876.717	-3.75
876.889	-1.71
877.062	63.83
877.234	-54.95
877.407	8.53
877.579	-22.19
877.752	84.31
877.924	-30.38
878.097	43.35
878.269	-7.85
878.442	39.25
878.614	35.16
878.786	14.68
878.959	6.49
879.131	-32.43
879.303	-134.82
879.476	-44.71
879.648	106.84
879.82	-1.71
879.993	-57
880.165	8.53
880.337	-83.63
880.509	33.11
880.681	-79.53
880.854	-48.81
881.026	82.26
881.198	129.36
881.37	16.73
881.542	72.02
881.714	-26.28
881.886	41.3
882.058	26.96
882.23	14.68
882.402	-24.23
882.574	41.3
882.746	65.88
882.918	112.98
883.09	65.88
883.262	-30.38
883.434	69.97
883.606	-108.2
883.778	20.82
883.95	137.56
884.122	-57
884.293	33.11
884.465	18.77
884.637	39.25
884.809	-38.57
884.98	106.84
885.152	63.83
885.324	55.64
885.496	-18.09
885.667	0.34
885.839	-57
886.011	139.6
886.182	-1.71
886.354	43.35
886.525	16.73
886.697	53.59
886.869	-34.47
887.04	-59.05
887.212	106.84
887.383	94.55
887.555	-3.75
887.726	-22.19
887.897	-5.8
888.069	-11.95
888.24	-16.04
888.412	-1.71
888.583	-26.28
888.754	-36.52
888.926	-54.95
889.097	-7.85
889.268	-106.15
889.44	12.63
889.611	-34.47
889.782	-42.67
889.953	-7.85
890.125	78.16
890.296	-20.14
890.467	-13.99
890.638	8.53
890.809	80.21
890.98	-59.05
891.151	53.59
891.323	78.16
891.494	12.63
891.665	20.82
891.836	2.39
892.007	59.73
892.178	29.01
892.349	-36.52
892.52	-75.43
892.691	-7.85
892.862	-26.28
893.032	-120.49
893.203	-38.57
893.374	6.49
893.545	96.6
893.716	63.83
893.887	22.87
894.057	6.49
894.228	-83.63
894.399	-102.06
894.57	141.65
894.74	-32.43
894.911	92.5
895.082	-97.96
895.253	-40.62
895.423	16.73
895.594	82.26
895.764	63.83
895.935	-46.76
896.106	41.3
896.276	-63.15
896.447	-24.23
896.617	-7.85
896.788	-16.04
896.958	-57
897.129	-7.85
897.299	-26.28
897.47	33.11
897.64	160.08
897.81	10.58
897.981	22.87
898.151	-52.91
898.322	12.63
898.492	-1.71
898.662	-93.87
898.832	-44.71
899.003	-63.15
899.173	67.92
899.343	-9.9
899.513	-67.24
