Data from USB4F104151__59__10-26-20-328.txt Node

Date: Wed Feb 26 10:26:20 EST 2025
User: louis
Spectrometer: USB4F10415
Trigger mode: 4
Integration Time (sec): 1.000000E-1
Scans to average: 1
Electric dark correction enabled: true
Nonlinearity correction enabled: false
Boxcar width: 0
XAxis mode: Wavelengths
Number of Pixels in Spectrum: 3648
>>>>>Begin Spectral Data<<<<<
178.204	-422.05
178.424	-422.05
178.644	-422.05
178.864	-438.44
179.084	-415.91
179.304	-28.84
179.524	-82.09
179.744	32.6
179.964	69.46
180.184	3.93
180.404	10.07
180.624	30.55
180.844	-51.37
181.064	-39.08
181.283	57.17
181.503	-12.46
181.723	10.07
181.943	-96.43
182.163	173.91
182.383	-34.99
182.602	104.28
182.822	163.67
183.042	139.09
183.262	-18.6
183.482	26.45
183.701	18.26
183.921	-24.75
184.141	-67.75
184.361	53.08
184.58	94.04
184.8	63.32
185.02	-0.17
185.239	98.13
185.459	98.13
185.679	69.46
185.898	-82.09
186.118	14.17
186.338	38.74
186.557	100.18
186.777	-102.57
186.997	87.89
187.216	42.84
187.436	221.01
187.655	128.85
187.875	77.65
188.095	32.6
188.314	46.93
188.534	132.95
188.753	-71.85
188.973	81.75
189.192	126.8
189.412	34.64
189.631	-24.75
189.851	147.28
190.07	204.63
190.29	-45.23
190.509	57.17
190.729	-8.36
190.948	157.52
191.168	206.67
191.387	83.8
191.607	-6.31
191.826	-4.27
192.045	91.99
192.265	-0.17
192.484	-10.41
192.704	57.17
192.923	-86.19
193.142	225.11
193.362	114.52
193.581	53.08
193.8	71.51
194.02	114.52
194.239	30.55
194.458	53.08
194.678	75.6
194.897	3.93
195.116	153.43
195.335	87.89
195.555	5.97
195.774	12.12
195.993	114.52
196.212	5.97
196.432	20.31
196.651	48.98
196.87	5.97
197.089	227.15
197.308	114.52
197.528	122.71
197.747	-47.27
197.966	79.7
198.185	81.75
198.404	3.93
198.623	143.19
198.842	75.6
199.062	40.79
199.281	34.64
199.5	30.55
199.719	71.51
199.938	132.95
200.157	12.12
200.376	132.95
200.595	104.28
200.814	87.89
201.033	-41.13
201.252	130.9
201.471	28.5
201.69	91.99
201.909	42.84
202.128	44.88
202.347	69.46
202.566	81.75
202.785	-84.14
203.004	-75.95
203.223	286.54
203.442	40.79
203.661	-2.22
203.879	61.27
204.098	81.75
204.317	-6.31
204.536	204.63
204.755	108.37
204.974	110.42
205.193	36.69
205.411	153.43
205.63	57.17
205.849	98.13
206.068	59.22
206.287	-55.47
206.505	221.01
206.724	-8.36
206.943	-2.22
207.162	10.07
207.381	135
207.599	38.74
207.818	89.94
208.037	28.5
208.255	24.4
208.474	65.36
208.693	-0.17
208.911	91.99
209.13	46.93
209.349	-8.36
209.567	44.88
209.786	32.6
210.005	77.65
210.223	81.75
210.442	-43.18
210.661	46.93
210.879	22.36
211.098	91.99
211.316	48.98
211.535	132.95
211.753	10.07
211.972	87.89
212.191	44.88
212.409	53.08
212.628	161.62
212.846	14.17
213.065	73.56
213.283	106.32
213.502	98.13
213.72	83.8
213.938	63.32
214.157	-12.46
214.375	120.66
214.594	-30.89
214.812	171.86
215.031	-10.41
215.249	-0.17
215.467	110.42
215.686	83.8
215.904	126.8
216.122	-2.22
216.341	161.62
216.559	16.21
216.778	85.84
216.996	157.52
217.214	36.69
217.432	8.02
217.651	-53.42
217.869	98.13
218.087	20.31
218.306	-57.51
218.524	77.65
218.742	69.46
218.96	112.47
219.179	-6.31
219.397	53.08
219.615	261.97
219.833	46.93
220.051	-14.51
220.27	79.7
220.488	126.8
220.706	-30.89
220.924	-28.84
221.142	-8.36
221.36	61.27
221.578	12.12
221.796	32.6
222.015	81.75
222.233	112.47
222.451	194.39
222.669	12.12
222.887	102.23
223.105	3.93
223.323	-16.55
223.541	36.69
223.759	-0.17
223.977	8.02
224.195	167.76
224.413	59.22
224.631	91.99
224.849	16.21
225.067	190.29
225.285	-47.27
225.503	12.12
225.721	5.97
225.939	91.99
226.157	96.08
226.375	255.83
226.592	30.55
226.81	94.04
227.028	-26.79
227.246	124.76
227.464	71.51
227.682	102.23
227.9	77.65
228.117	42.84
228.335	48.98
228.553	48.98
228.771	3.93
228.989	-24.75
229.206	81.75
229.424	14.17
229.642	12.12
229.86	-2.22
230.077	81.75
230.295	-22.7
230.513	81.75
230.731	51.03
230.948	180.05
231.166	112.47
231.384	-12.46
231.601	-26.79
231.819	182.1
232.037	1.88
232.254	10.07
232.472	1.88
232.689	22.36
232.907	155.47
233.125	-4.27
233.342	-43.18
233.56	-10.41
233.777	40.79
233.995	69.46
234.213	40.79
234.43	16.21
234.648	24.4
234.865	57.17
235.083	67.41
235.3	20.31
235.518	65.36
235.735	143.19
235.953	83.8
236.17	3.93
236.388	32.6
236.605	3.93
236.822	87.89
237.04	85.84
237.257	67.41
237.475	-22.7
237.692	110.42
237.909	114.52
238.127	-37.03
238.344	118.61
238.562	114.52
238.779	-61.61
238.996	-26.79
239.214	94.04
239.431	132.95
239.648	-30.89
239.865	67.41
240.083	81.75
240.3	8.02
240.517	112.47
240.735	18.26
240.952	155.47
241.169	79.7
241.386	94.04
241.603	-51.37
241.821	-51.37
242.038	124.76
242.255	48.98
242.472	-53.42
242.689	126.8
242.907	10.07
243.124	51.03
243.341	63.32
243.558	3.93
243.775	-45.23
243.992	-16.55
244.209	110.42
244.426	112.47
244.643	94.04
244.86	-8.36
245.078	12.12
245.295	67.41
245.512	-22.7
245.729	51.03
245.946	100.18
246.163	34.64
246.38	-24.75
246.597	59.22
246.814	53.08
247.031	34.64
247.248	46.93
247.464	102.23
247.681	30.55
247.898	5.97
248.115	118.61
248.332	-59.56
248.549	114.52
248.766	139.09
248.983	157.52
249.2	155.47
249.417	51.03
249.633	61.27
249.85	34.64
250.067	8.02
250.284	89.94
250.501	-26.79
250.717	16.21
250.934	-75.95
251.151	24.4
251.368	63.32
251.585	40.79
251.801	167.76
252.018	-37.03
252.235	153.43
252.451	3.93
252.668	-4.27
252.885	79.7
253.102	53.08
253.318	-18.6
253.535	26.45
253.752	42.84
253.968	-57.51
254.185	-92.33
254.401	67.41
254.618	75.6
254.835	-22.7
255.051	83.8
255.268	71.51
255.484	167.76
255.701	22.36
255.917	8.02
256.134	-94.38
256.351	-12.46
256.567	-100.52
256.784	24.4
257	-39.08
257.217	61.27
257.433	89.94
257.65	69.46
257.866	141.14
258.082	14.17
258.299	-28.84
258.515	118.61
258.732	28.5
258.948	-0.17
259.165	42.84
259.381	-28.84
259.597	59.22
259.814	28.5
260.03	-45.23
260.246	-37.03
260.463	91.99
260.679	186.19
260.895	106.32
261.112	55.12
261.328	-12.46
261.544	-61.61
261.761	153.43
261.977	46.93
262.193	53.08
262.409	46.93
262.626	96.08
262.842	48.98
263.058	-20.65
263.274	32.6
263.49	61.27
263.707	126.8
263.923	106.32
264.139	-98.47
264.355	87.89
264.571	104.28
264.787	122.71
265.004	96.08
265.22	14.17
265.436	-123.05
265.652	71.51
265.868	42.84
266.084	-39.08
266.3	8.02
266.516	-77.99
266.732	135
266.948	14.17
267.164	-18.6
267.38	57.17
267.596	98.13
267.812	165.71
268.028	14.17
268.244	38.74
268.46	20.31
268.676	30.55
268.892	10.07
269.108	-4.27
269.324	-80.04
269.54	-90.28
269.756	85.84
269.972	-61.61
270.188	-18.6
270.403	-47.27
270.619	16.21
270.835	67.41
271.051	46.93
271.267	-20.65
271.483	-53.42
271.698	116.56
271.914	83.8
272.13	79.7
272.346	-12.46
272.562	-2.22
272.777	94.04
272.993	-71.85
273.209	-63.66
273.425	106.32
273.64	12.12
273.856	102.23
274.072	14.17
274.287	-30.89
274.503	46.93
274.719	116.56
274.934	-0.17
275.15	-75.95
275.366	34.64
275.581	-12.46
275.797	18.26
276.012	42.84
276.228	-14.51
276.444	42.84
276.659	143.19
276.875	-57.51
277.09	18.26
277.306	26.45
277.521	26.45
277.737	34.64
277.952	69.46
278.168	55.12
278.383	42.84
278.599	67.41
278.814	94.04
279.03	16.21
279.245	116.56
279.461	89.94
279.676	122.71
279.892	-34.99
280.107	5.97
280.322	-6.31
280.538	77.65
280.753	18.26
280.969	71.51
281.184	57.17
281.399	163.67
281.615	-8.36
281.83	28.5
282.045	-86.19
282.26	-26.79
282.476	98.13
282.691	180.05
282.906	10.07
283.122	69.46
283.337	-24.75
283.552	34.64
283.767	12.12
283.983	167.76
284.198	-12.46
284.413	30.55
284.628	-22.7
284.843	-18.6
285.058	55.12
285.274	3.93
285.489	38.74
285.704	48.98
285.919	-30.89
286.134	3.93
286.349	22.36
286.564	20.31
286.779	87.89
286.995	34.64
287.21	-2.22
287.425	51.03
287.64	61.27
287.855	-10.41
288.07	-45.23
288.285	85.84
288.5	94.04
288.715	73.56
288.93	28.5
289.145	22.36
289.36	147.28
289.575	-53.42
289.79	157.52
290.004	-8.36
290.219	89.94
290.434	16.21
290.649	-0.17
290.864	83.8
291.079	63.32
291.294	-6.31
291.509	73.56
291.724	-43.18
291.938	-41.13
292.153	55.12
292.368	10.07
292.583	42.84
292.798	98.13
293.012	71.51
293.227	73.56
293.442	89.94
293.657	20.31
293.871	221.01
294.086	-8.36
294.301	241.49
294.516	108.37
294.73	-2.22
294.945	-26.79
295.16	30.55
295.374	147.28
295.589	87.89
295.804	59.22
296.018	85.84
296.233	153.43
296.447	61.27
296.662	-22.7
296.877	71.51
297.091	116.56
297.306	53.08
297.52	57.17
297.735	149.33
297.949	67.41
298.164	20.31
298.378	81.75
298.593	-61.61
298.807	30.55
299.022	75.6
299.236	192.34
299.451	24.4
299.665	8.02
299.88	-6.31
300.094	73.56
300.309	1.88
300.523	40.79
300.737	46.93
300.952	-20.65
301.166	83.8
301.381	32.6
301.595	-37.03
301.809	75.6
302.024	81.75
302.238	-39.08
302.452	126.8
302.667	32.6
302.881	132.95
303.095	79.7
303.309	67.41
303.524	-67.75
303.738	34.64
303.952	-24.75
304.166	24.4
304.381	-55.47
304.595	48.98
304.809	-24.75
305.023	104.28
305.237	77.65
305.452	12.12
305.666	108.37
305.88	63.32
306.094	130.9
306.308	69.46
306.522	132.95
306.736	128.85
306.95	112.47
307.164	36.69
307.379	-0.17
307.593	194.39
307.807	122.71
308.021	63.32
308.235	153.43
308.449	-55.47
308.663	14.17
308.877	147.28
309.091	79.7
309.305	12.12
309.519	-55.47
309.733	81.75
309.947	-98.47
310.161	46.93
310.374	102.23
310.588	77.65
310.802	-41.13
311.016	-28.84
311.23	59.22
311.444	-22.7
311.658	51.03
311.872	94.04
312.085	48.98
312.299	114.52
312.513	124.76
312.727	51.03
312.941	34.64
313.154	94.04
313.368	20.31
313.582	18.26
313.796	36.69
314.009	-6.31
314.223	122.71
314.437	40.79
314.651	143.19
314.864	46.93
315.078	48.98
315.292	-77.99
315.505	-0.17
315.719	100.18
315.933	22.36
316.146	34.64
316.36	-57.51
316.573	83.8
316.787	77.65
317.001	61.27
317.214	-24.75
317.428	59.22
317.641	-8.36
317.855	5.97
318.068	79.7
318.282	8.02
318.495	165.71
318.709	51.03
318.922	-34.99
319.136	161.62
319.349	104.28
319.563	-2.22
319.776	114.52
319.99	-86.19
320.203	83.8
320.417	26.45
320.63	139.09
320.843	137.04
321.057	48.98
321.27	20.31
321.483	98.13
321.697	145.24
321.91	83.8
322.124	137.04
322.337	100.18
322.55	-12.46
322.763	-0.17
322.977	-10.41
323.19	44.88
323.403	18.26
323.617	79.7
323.83	149.33
324.043	-6.31
324.256	-14.51
324.469	-53.42
324.683	98.13
324.896	14.17
325.109	18.26
325.322	-10.41
325.535	89.94
325.748	83.8
325.962	-37.03
326.175	40.79
326.388	75.6
326.601	143.19
326.814	-10.41
327.027	3.93
327.24	112.47
327.453	-32.94
327.666	30.55
327.879	114.52
328.092	81.75
328.305	53.08
328.518	-32.94
328.731	-41.13
328.944	36.69
329.157	77.65
329.37	-39.08
329.583	171.86
329.796	141.14
330.009	-114.86
330.222	3.93
330.435	108.37
330.648	65.36
330.861	100.18
331.073	55.12
331.286	51.03
331.499	85.84
331.712	-69.8
331.925	38.74
332.138	51.03
332.35	85.84
332.563	34.64
332.776	124.76
332.989	32.6
333.202	28.5
333.414	20.31
333.627	89.94
333.84	-6.31
334.053	71.51
334.265	46.93
334.478	-41.13
334.691	-2.22
334.903	132.95
335.116	-0.17
335.329	5.97
335.541	26.45
335.754	118.61
335.966	-16.55
336.179	-18.6
336.392	-45.23
336.604	-24.75
336.817	132.95
337.029	114.52
337.242	5.97
337.454	85.84
337.667	16.21
337.88	126.8
338.092	94.04
338.305	139.09
338.517	-82.09
338.729	-6.31
338.942	128.85
339.154	-65.71
339.367	-84.14
339.579	96.08
339.792	-43.18
340.004	112.47
340.217	-16.55
340.429	110.42
340.641	-2.22
340.854	-75.95
341.066	26.45
341.278	77.65
341.491	182.1
341.703	8.02
341.915	38.74
342.128	130.9
342.34	61.27
342.552	-32.94
342.764	30.55
342.977	-37.03
343.189	85.84
343.401	61.27
343.613	28.5
343.826	104.28
344.038	1.88
344.25	5.97
344.462	-39.08
344.674	75.6
344.886	32.6
345.099	30.55
345.311	12.12
345.523	-18.6
345.735	-114.86
345.947	77.65
346.159	112.47
346.371	89.94
346.583	1.88
346.795	223.06
347.007	71.51
347.219	100.18
347.431	10.07
347.643	51.03
347.855	42.84
348.067	175.95
348.279	3.93
348.491	14.17
348.703	171.86
348.915	14.17
349.127	-12.46
349.339	57.17
349.551	-49.32
349.763	36.69
349.975	53.08
350.187	85.84
350.399	51.03
350.61	57.17
350.822	10.07
351.034	57.17
351.246	77.65
351.458	120.66
351.669	81.75
351.881	122.71
352.093	69.46
352.305	116.56
352.517	30.55
352.728	55.12
352.94	-45.23
353.152	151.38
353.363	22.36
353.575	104.28
353.787	165.71
353.999	102.23
354.21	188.24
354.422	-20.65
354.633	28.5
354.845	67.41
355.057	32.6
355.268	-2.22
355.48	69.46
355.692	-67.75
355.903	-4.27
356.115	-16.55
356.326	-43.18
356.538	135
356.749	71.51
356.961	61.27
357.172	53.08
357.384	-51.37
357.595	184.15
357.807	-22.7
358.018	57.17
358.23	46.93
358.441	122.71
358.653	114.52
358.864	51.03
359.075	55.12
359.287	34.64
359.498	34.64
359.709	73.56
359.921	48.98
360.132	65.36
360.344	114.52
360.555	-2.22
360.766	98.13
360.977	85.84
361.189	83.8
361.4	-69.8
361.611	149.33
361.823	42.84
362.034	100.18
362.245	38.74
362.456	51.03
362.667	108.37
362.879	38.74
363.09	32.6
363.301	73.56
363.512	69.46
363.723	-14.51
363.935	20.31
364.146	48.98
364.357	-28.84
364.568	32.6
364.779	-80.04
364.99	137.04
365.201	-22.7
365.412	81.75
365.623	36.69
365.834	-14.51
366.045	14.17
366.256	65.36
366.467	44.88
366.678	46.93
366.889	18.26
367.1	-45.23
367.311	91.99
367.522	-32.94
367.733	110.42
367.944	24.4
368.155	20.31
368.366	42.84
368.577	69.46
368.788	51.03
368.999	71.51
369.209	87.89
369.42	153.43
369.631	286.54
369.842	12.12
370.053	32.6
370.264	106.32
370.474	32.6
370.685	8.02
370.896	69.46
371.107	96.08
371.317	22.36
371.528	-32.94
371.739	128.85
371.95	36.69
372.16	61.27
372.371	-53.42
372.582	32.6
372.792	3.93
373.003	116.56
373.214	38.74
373.424	139.09
373.635	-6.31
373.846	128.85
374.056	18.26
374.267	65.36
374.477	89.94
374.688	5.97
374.898	10.07
375.109	30.55
375.319	8.02
375.53	161.62
375.74	65.36
375.951	-28.84
376.161	61.27
376.372	110.42
376.582	-20.65
376.793	44.88
377.003	57.17
377.214	-34.99
377.424	96.08
377.635	79.7
377.845	14.17
378.055	141.14
378.266	-77.99
378.476	96.08
378.686	108.37
378.897	59.22
379.107	96.08
379.317	85.84
379.528	-0.17
379.738	98.13
379.948	-30.89
380.158	81.75
380.369	100.18
380.579	135
380.789	65.36
380.999	57.17
381.21	69.46
381.42	155.47
381.63	55.12
381.84	57.17
382.05	163.67
382.261	114.52
382.471	79.7
382.681	-45.23
382.891	104.28
383.101	16.21
383.311	-20.65
383.521	-41.13
383.731	71.51
383.941	118.61
384.151	-30.89
384.361	75.6
384.571	141.14
384.781	40.79
384.991	145.24
385.201	157.52
385.411	96.08
385.621	59.22
385.831	87.89
386.041	32.6
386.251	40.79
386.461	91.99
386.671	8.02
386.881	110.42
387.091	-6.31
387.301	51.03
387.511	55.12
387.72	73.56
387.93	-2.22
388.14	-57.51
388.35	12.12
388.56	91.99
388.769	79.7
388.979	69.46
389.189	-47.27
389.399	3.93
389.609	57.17
389.818	128.85
390.028	24.4
390.238	-12.46
390.447	18.26
390.657	102.23
390.867	-20.65
391.076	30.55
391.286	22.36
391.496	57.17
391.705	77.65
391.915	167.76
392.125	128.85
392.334	8.02
392.544	149.33
392.753	73.56
392.963	-69.8
393.172	63.32
393.382	-80.04
393.591	106.32
393.801	5.97
394.01	214.87
394.22	118.61
394.429	46.93
394.639	42.84
394.848	-6.31
395.058	85.84
395.267	18.26
395.477	163.67
395.686	-26.79
395.895	214.87
396.105	102.23
396.314	36.69
396.524	30.55
396.733	-37.03
396.942	77.65
397.152	73.56
397.361	122.71
397.57	28.5
397.78	71.51
397.989	124.76
398.198	135
398.407	-6.31
398.617	34.64
398.826	63.32
399.035	57.17
399.244	135
399.453	63.32
399.663	79.7
399.872	65.36
400.081	-26.79
400.29	143.19
400.499	22.36
400.708	106.32
400.917	5.97
401.127	110.42
401.336	-4.27
401.545	227.15
401.754	163.67
401.963	57.17
402.172	36.69
402.381	5.97
402.59	16.21
402.799	44.88
403.008	85.84
403.217	104.28
403.426	130.9
403.635	-141.48
403.844	36.69
404.053	3.93
404.262	30.55
404.471	79.7
404.68	22.36
404.888	36.69
405.097	42.84
405.306	48.98
405.515	110.42
405.724	116.56
405.933	53.08
406.142	77.65
406.35	73.56
406.559	128.85
406.768	-0.17
406.977	214.87
407.185	61.27
407.394	110.42
407.603	-32.94
407.812	85.84
408.02	79.7
408.229	34.64
408.438	51.03
408.646	-53.42
408.855	59.22
409.064	130.9
409.272	18.26
409.481	122.71
409.69	30.55
409.898	24.4
410.107	67.41
410.315	73.56
410.524	-4.27
410.733	34.64
410.941	-41.13
411.15	46.93
411.358	59.22
411.567	40.79
411.775	81.75
411.984	46.93
412.192	85.84
412.401	22.36
412.609	173.91
412.818	132.95
413.026	120.66
413.234	71.51
413.443	53.08
413.651	18.26
413.86	-12.46
414.068	175.95
414.276	186.19
414.485	59.22
414.693	147.28
414.901	159.57
415.11	79.7
415.318	51.03
415.526	61.27
415.734	155.47
415.943	106.32
416.151	75.6
416.359	100.18
416.567	188.24
416.776	104.28
416.984	124.76
417.192	198.48
417.4	28.5
417.608	-26.79
417.817	-20.65
418.025	77.65
418.233	132.95
418.441	-45.23
418.649	-51.37
418.857	94.04
419.065	98.13
419.273	40.79
419.481	42.84
419.689	30.55
419.897	42.84
420.105	-32.94
420.313	141.14
420.521	137.04
420.729	53.08
420.937	46.93
421.145	-8.36
421.353	75.6
421.561	128.85
421.769	48.98
421.977	96.08
422.185	157.52
422.393	48.98
422.601	118.61
422.809	110.42
423.017	48.98
423.224	53.08
423.432	83.8
423.64	-10.41
423.848	122.71
424.056	-12.46
424.263	112.47
424.471	46.93
424.679	157.52
424.887	61.27
425.094	126.8
425.302	106.32
425.51	46.93
425.718	26.45
425.925	1.88
426.133	-39.08
426.341	257.87
426.548	12.12
426.756	34.64
426.964	94.04
427.171	-22.7
427.379	36.69
427.586	46.93
427.794	126.8
428.001	91.99
428.209	79.7
428.417	120.66
428.624	147.28
428.832	163.67
429.039	48.98
429.247	36.69
429.454	89.94
429.662	198.48
429.869	71.51
430.076	98.13
430.284	188.24
430.491	178
430.699	132.95
430.906	194.39
431.114	141.14
431.321	137.04
431.528	151.38
431.736	186.19
431.943	120.66
432.15	180.05
432.358	157.52
432.565	288.59
432.772	-12.46
432.979	200.53
433.187	53.08
433.394	139.09
433.601	112.47
433.808	151.38
434.016	141.14
434.223	225.11
434.43	184.15
434.637	227.15
434.844	237.39
435.052	186.19
435.259	196.43
435.466	233.3
435.673	223.06
435.88	261.97
436.087	300.88
436.294	309.07
436.501	282.45
436.708	194.39
436.915	245.59
437.122	347.98
437.329	165.71
437.537	243.54
437.743	212.82
437.95	372.56
438.157	354.13
438.364	294.74
438.571	364.37
438.778	393.04
438.985	395.09
439.192	362.32
439.399	345.94
439.606	300.88
439.813	409.42
440.02	479.05
440.227	483.15
440.433	534.35
440.64	417.61
440.847	390.99
441.054	460.62
441.261	601.93
441.467	446.29
441.674	534.35
441.881	669.52
442.088	436.05
442.294	632.65
442.501	685.9
442.708	665.42
442.914	665.42
443.121	675.66
443.328	591.69
443.534	716.62
443.741	675.66
443.948	593.74
444.154	737.1
444.361	925.51
444.568	853.83
444.774	773.96
444.981	780.11
445.187	931.66
445.394	851.78
445.6	847.69
445.807	1109.83
446.013	1038.15
446.22	941.89
446.426	1068.87
446.633	1113.92
446.839	1345.34
447.046	1072.96
447.252	1234.75
447.459	1271.62
447.665	1306.43
447.871	1277.76
448.078	1517.37
448.284	1449.79
448.491	1460.03
448.697	1605.44
448.903	1666.88
449.11	1619.77
449.316	1748.79
449.522	1777.47
449.728	1900.34
449.935	1845.05
450.141	1929.02
450.347	2262.83
450.553	2076.47
450.76	2152.24
450.966	2271.03
451.172	2299.7
451.378	2471.73
451.584	2438.96
451.791	2557.74
451.997	2740.01
452.203	2672.43
452.409	2930.47
452.615	2914.09
452.821	2938.66
453.027	2965.29
453.233	3331.87
453.44	3245.86
453.646	3440.42
453.852	3446.56
454.058	3655.45
454.264	3739.42
454.47	3942.17
454.676	4075.29
454.882	4433.68
455.088	4329.24
455.294	4476.69
455.5	4720.4
455.705	5187.33
455.911	5060.36
456.117	5304.07
456.323	5316.36
456.529	5320.45
456.735	5865.21
456.941	5848.83
457.147	6362.87
457.352	6309.62
457.558	6516.47
457.764	6852.33
457.97	7085.8
458.176	7417.57
458.381	7784.16
458.587	7970.52
458.793	8357.59
458.999	8484.56
459.204	9477.83
459.41	9721.54
459.616	9430.73
459.821	10159.8
460.027	10225.34
460.233	10966.7
460.438	10890.93
460.644	11585.19
460.85	11929.25
461.055	12224.15
461.261	13037.2
461.466	12689.04
461.672	12906.13
461.878	14403.19
462.083	14036.61
462.289	14374.52
462.494	15066.74
462.7	15109.74
462.905	15464.04
463.111	16541.27
463.316	17202.77
463.522	17821.25
463.727	18230.85
463.932	19076.66
464.138	19783.21
464.343	20444.7
464.549	20459.04
464.754	21949.96
464.959	22771.19
465.165	22844.92
465.37	22763
465.575	22711.8
465.781	24260.07
465.986	25269.72
466.191	24600.03
466.397	25128.41
466.602	24479.2
466.807	25904.59
467.012	26293.7
467.218	26813.88
467.423	26959.29
467.628	27731.37
467.833	29037.98
468.038	28061.1
468.244	27848.11
468.449	29635.99
468.654	28708.26
468.859	28757.41
469.064	28616.1
469.269	28272.04
469.474	28343.72
469.679	28960.16
469.885	28319.14
470.09	28788.13
470.295	29025.69
470.5	28409.25
470.705	28482.98
470.91	28079.53
471.115	27350.45
471.32	27966.89
471.525	27819.44
471.73	26955.19
471.935	26727.87
472.139	25673.17
472.344	25798.09
472.549	25556.43
472.754	25259.48
472.959	24720.86
473.164	24014.31
473.369	23455.22
473.574	24217.06
473.778	23377.39
473.983	23369.2
474.188	22941.18
474.393	21519.88
474.598	21599.76
474.802	21333.52
475.007	20889.11
475.212	20971.03
475.417	19648.04
475.621	19828.26
475.826	19572.27
476.031	19289.65
476.235	18656.82
476.44	18710.07
476.645	18153.02
476.849	18191.94
477.054	17661.51
477.259	17262.16
477.463	17135.18
477.668	16864.85
477.872	16721.49
478.077	16336.48
478.282	15806.05
478.486	15799.91
478.691	15552.1
478.895	15521.38
479.1	15380.07
479.304	15226.48
479.509	14784.12
479.713	14722.68
479.918	14597.75
480.122	14448.25
480.326	14284.41
480.531	14007.94
480.735	13872.77
480.94	13741.7
481.144	14356.09
481.348	13520.52
481.553	13676.16
481.757	13108.88
481.961	13590.15
482.166	13565.57
482.37	13342.35
482.574	12983.95
482.778	13123.21
482.983	13067.92
483.187	12877.46
483.391	12856.98
483.595	12496.53
483.8	12498.58
484.004	12453.53
484.208	12492.44
484.412	12285.59
484.616	12373.66
484.821	12127.9
485.025	11663.01
485.229	11681.44
485.433	11398.82
485.637	11470.5
485.841	11347.62
486.045	11048.62
486.249	10782.38
486.453	10729.14
486.657	10725.04
486.861	10464.95
487.065	10290.87
487.269	10409.65
487.473	9752.26
487.677	10090.17
487.881	9754.3
488.085	9533.12
488.289	9359.05
488.493	9182.92
488.697	9422.53
488.901	9135.82
489.105	8933.07
489.309	8734.42
489.512	8543.95
489.716	8416.98
489.92	8443.6
490.124	8113.88
490.328	8195.8
490.531	7825.12
490.735	8007.39
490.939	7599.84
491.143	7565.03
491.346	7380.71
491.55	7372.52
491.754	7124.71
491.958	7014.12
492.161	7007.98
492.365	6977.26
492.569	6602.48
492.772	6704.88
492.976	6538.99
493.18	6448.88
493.383	6520.56
493.587	6356.72
493.79	6350.58
493.994	6035.19
494.197	6033.15
494.401	6129.4
494.605	5834.49
494.808	5990.14
495.012	5752.57
495.215	5885.69
495.419	5852.92
495.622	5728
495.825	5697.28
496.029	5844.73
496.232	5871.36
496.436	5758.72
496.639	5859.07
496.843	5658.37
497.046	5641.98
497.249	5721.85
497.453	5697.28
497.656	5648.13
497.859	5617.41
498.063	5695.23
498.266	5848.83
498.469	5455.62
498.673	5605.12
498.876	5732.09
499.079	5650.18
499.282	5695.23
499.485	6029.05
499.689	5793.53
499.892	5983.99
500.095	5725.95
500.298	6035.19
500.501	5830.4
500.705	6041.34
500.908	6203.13
501.111	6262.52
501.314	6196.98
501.517	6395.64
501.72	6336.24
501.923	6280.95
502.126	6510.32
502.329	6557.43
502.532	6573.81
502.735	6526.71
502.938	6827.76
503.141	6844.14
503.344	6782.7
503.547	6921.96
503.75	6913.77
503.953	7034.6
504.156	7282.41
504.359	7069.42
504.562	7417.57
504.765	7489.25
504.968	7628.51
505.17	7941.85
505.373	7759.58
505.576	8011.48
505.779	8218.33
505.982	8249.05
506.185	8507.09
506.387	8537.81
506.59	8533.72
506.793	8726.22
506.996	8933.07
507.198	9404.1
507.401	9375.43
507.604	9494.21
507.807	9660.1
508.009	9928.38
508.212	10051.26
508.415	10264.25
508.617	10294.97
508.82	10563.25
509.022	10710.71
509.225	11067.05
509.428	11253.42
509.63	11503.27
509.833	11773.6
510.035	12093.08
510.238	12074.65
510.44	12340.89
510.643	12625.56
510.845	13135.5
511.048	13186.7
511.25	13514.38
511.453	13928.06
511.655	14327.42
511.858	14376.57
512.06	14634.61
512.262	15122.03
512.465	15402.6
512.667	15500.9
512.87	16152.16
513.072	16381.53
513.274	16627.29
513.477	17202.77
513.679	17589.83
513.881	17903.17
514.084	18460.22
514.286	18648.63
514.488	19002.93
514.69	19936.81
514.893	19947.04
515.095	20475.42
515.297	20770.33
515.499	21235.22
515.701	21693.96
515.904	22093.32
516.106	22457.85
516.308	23025.14
516.51	23627.24
516.712	23672.3
516.914	24286.69
517.116	24870.36
517.318	24993.24
517.52	25693.65
517.722	25673.17
517.925	26637.76
518.127	27026.87
518.329	27674.03
518.531	27626.93
518.733	28460.45
518.935	28777.89
519.136	28753.31
519.338	29836.69
519.54	30037.39
519.742	30770.56
519.944	30999.93
520.146	31823.22
520.348	31784.3
520.55	32197.99
520.752	32521.57
520.954	33310.04
521.155	33363.29
521.357	34000.21
521.559	34215.24
521.761	34784.58
521.963	34858.31
522.164	35247.42
522.366	35317.05
522.568	35894.58
522.77	36152.62
522.971	36721.96
523.173	36082.99
523.375	36717.86
523.576	36582.7
523.778	37043.49
523.98	37422.36
524.181	37772.56
524.383	37375.26
524.584	37877.01
524.786	37958.93
524.988	37483.8
525.189	38182.16
525.391	38225.17
525.592	38190.35
525.794	38290.7
525.995	37614.87
526.197	38186.25
526.398	38124.82
526.6	38182.16
526.801	37989.65
527.003	37541.14
527.204	37709.08
527.406	37733.65
527.607	37426.46
527.808	37371.16
528.01	36478.25
528.211	36986.14
528.412	37066.02
528.614	36775.2
528.815	36269.36
529.016	36660.52
529.218	35517.75
529.419	35341.63
529.62	35036.48
529.822	35120.45
530.023	34465.1
530.224	34639.17
530.425	33744.21
530.626	33406.3
530.828	32884.06
531.029	33520.98
531.23	32388.46
531.431	31784.3
531.632	32032.11
531.833	31589.75
532.035	31391.09
532.236	30672.26
532.437	30791.04
532.638	29638.03
532.839	29793.68
533.04	29336.98
533.241	28560.8
533.442	29304.21
533.643	28554.66
533.844	28073.38
534.045	27639.22
534.246	27125.18
534.447	26873.28
534.648	26617.28
534.849	26127.81
535.05	25576.91
535.251	25720.27
535.451	24761.82
535.652	24749.53
535.853	24417.76
536.054	24094.18
536.255	23791.08
536.456	23231.99
536.657	23406.06
536.857	22795.77
537.058	22347.26
537.259	22375.94
537.46	21822.98
537.66	21437.97
537.861	21726.73
538.062	21026.32
538.263	20672.03
538.463	20557.34
538.664	20409.89
538.865	20063.78
539.065	20028.96
539.266	19301.93
539.466	19379.76
539.667	18875.96
539.868	19076.66
540.068	18732.6
540.269	18349.63
540.469	18351.68
540.67	17888.84
540.87	17860.16
541.071	17426
541.271	17407.56
541.472	17280.59
541.672	17028.69
541.873	16813.65
542.073	16260.7
542.274	16414.3
542.474	16111.2
542.675	16141.92
542.875	16025.18
543.075	15609.45
543.276	15519.34
543.476	15404.65
543.676	15203.95
543.877	14859.89
544.077	15050.35
544.277	14612.09
544.478	14599.8
544.678	14255.74
544.878	14155.39
545.078	14374.52
545.279	13923.97
545.479	13840
545.679	13475.46
545.879	13174.41
546.079	13258.38
546.28	12883.6
546.48	12981.9
546.68	12744.34
546.88	12938.9
547.08	12551.83
547.28	12230.3
547.48	11867.81
547.68	12179.1
547.88	11820.7
548.081	11857.57
548.281	11679.4
548.481	11095.72
548.681	11343.53
548.881	11181.74
549.081	11019.95
549.28	10655.41
549.48	10675.89
549.68	10784.43
549.88	10559.16
550.08	10100.41
550.28	10065.6
550.48	10096.32
550.68	9762.5
550.88	9678.53
551.08	9799.36
551.279	9735.87
551.479	9408.2
551.679	9086.67
551.879	9019.08
552.079	9012.94
552.278	8789.71
552.478	8879.82
552.678	8644.31
552.878	8638.16
553.077	8302.29
553.277	8242.9
553.477	8021.72
553.676	7900.89
553.876	7900.89
554.076	7716.58
554.275	7653.09
554.475	7526.11
554.674	7388.9
554.874	7345.89
555.074	7010.03
555.273	7212.78
555.473	7040.75
555.672	6700.78
555.872	6608.62
556.071	6645.49
556.271	6741.74
556.47	6459.12
556.67	6135.54
556.869	6188.79
557.068	6041.34
557.268	6082.3
557.467	6004.47
557.667	5764.86
557.866	5650.18
558.065	5572.35
558.265	5588.74
558.464	5445.38
558.663	5422.85
558.863	5267.2
559.062	5308.16
559.261	5144.33
559.461	5132.04
559.66	4925.19
559.859	4931.34
560.058	4849.42
560.258	4656.91
560.457	4665.1
560.656	4474.64
560.855	4456.21
561.054	4515.6
561.253	4536.08
561.453	4443.92
561.652	4230.93
561.851	4075.29
562.05	4005.66
562.249	3890.97
562.448	3944.22
562.647	3905.31
562.846	3802.91
563.045	3905.31
563.244	3817.24
563.443	3561.25
563.642	3596.06
563.841	3571.49
564.04	3557.15
564.239	3376.93
564.438	3358.5
564.637	3260.2
564.836	3278.63
565.035	3284.77
565.234	3307.3
565.432	3182.37
565.631	3098.41
565.83	2983.72
566.029	3010.34
566.228	2848.55
566.427	2944.81
566.625	2920.23
566.824	2877.23
567.023	2813.74
567.222	2768.68
567.42	2729.77
567.619	2715.44
567.818	2645.8
568.016	2805.55
568.215	2570.03
568.414	2545.45
568.612	2592.56
568.811	2445.1
569.01	2377.52
569.208	2350.9
569.407	2379.57
569.605	2451.25
569.804	2295.6
570.002	2180.92
570.201	2240.31
570.4	2225.97
570.598	2144.05
570.797	2023.22
570.995	2019.13
571.193	2180.92
571.392	2164.53
571.59	1859.38
571.789	2045.75
571.987	2053.94
572.186	2076.47
572.384	1806.14
572.582	1998.65
572.781	1937.21
572.979	1797.95
573.177	1853.24
573.376	1816.38
573.574	1773.37
573.772	1734.46
573.971	1685.31
574.169	1509.18
574.367	1568.57
574.565	1597.24
574.763	1494.85
574.962	1507.13
575.16	1582.91
575.358	1566.53
575.556	1494.85
575.754	1474.37
575.952	1449.79
576.151	1464.13
576.349	1539.9
576.547	1263.43
576.745	1517.37
576.943	1482.56
577.141	1224.51
577.339	1173.32
577.537	1341.25
577.735	1335.1
577.933	1238.85
578.131	1185.6
578.329	1267.52
578.527	1206.08
578.725	1218.37
578.923	1093.44
579.121	1232.71
579.319	1038.15
579.516	1111.88
579.714	1275.71
579.912	1095.49
580.11	991.05
580.308	991.05
580.506	995.14
580.704	862.02
580.901	954.18
581.099	1095.49
581.297	855.88
581.495	995.14
581.692	978.76
581.89	1001.29
582.088	890.7
582.285	999.24
582.483	925.51
582.681	890.7
582.878	862.02
583.076	806.73
583.274	937.8
583.471	1015.62
583.669	739.15
583.866	773.96
584.064	698.19
584.262	685.9
584.459	626.51
584.657	767.82
584.854	835.4
585.052	868.17
585.249	704.33
585.447	724.81
585.644	620.36
585.841	761.67
586.039	759.63
586.236	862.02
586.434	644.94
586.631	595.79
586.828	659.28
587.026	710.47
587.223	520.01
587.42	681.8
587.618	603.98
587.815	716.62
588.012	653.13
588.21	540.49
588.407	603.98
588.604	708.43
588.801	603.98
588.999	558.92
589.196	665.42
589.393	479.05
589.59	595.79
589.787	575.31
589.984	552.78
590.182	589.64
590.379	520.01
590.576	544.59
590.773	544.59
590.97	474.96
591.167	511.82
591.364	558.92
591.561	454.48
591.758	581.45
591.955	544.59
592.152	591.69
592.349	511.82
592.546	466.77
592.743	534.35
592.94	571.21
593.137	526.16
593.334	651.08
593.531	614.22
593.727	481.1
593.924	450.38
594.121	575.31
594.318	438.09
594.515	544.59
594.712	708.43
594.908	540.49
595.105	487.25
595.302	571.21
595.499	474.96
595.696	737.1
595.892	595.79
596.089	651.08
596.286	558.92
596.482	710.47
596.679	626.51
596.876	507.73
597.072	696.14
597.269	579.4
597.466	753.48
597.662	630.6
597.859	724.81
598.055	714.57
598.252	702.28
598.448	794.44
598.645	829.26
598.841	823.11
599.038	958.28
599.234	1011.53
599.431	939.85
599.627	997.19
599.824	966.47
600.02	1052.49
600.217	970.57
600.413	1150.79
600.609	1158.98
600.806	1451.84
601.002	1335.1
601.198	1179.46
601.395	1367.87
601.591	1361.73
601.787	1410.88
601.984	1537.85
602.18	1582.91
602.376	1519.42
602.572	1679.16
602.769	1861.43
602.965	1814.33
603.161	1804.09
603.357	1963.83
603.553	2015.03
603.75	1851.19
603.946	2053.94
604.142	2156.34
604.338	2344.75
604.534	2328.37
604.73	2309.94
604.926	2447.15
605.122	2576.17
605.318	2590.51
605.514	2832.17
605.71	2664.24
605.906	2744.11
606.102	2879.27
606.298	3092.26
606.494	3120.93
606.69	3120.93
606.886	3340.07
607.082	3264.29
607.278	3454.75
607.474	3632.93
607.67	3647.26
607.866	3581.73
608.062	3878.68
608.257	3942.17
608.453	4036.38
608.649	4261.65
608.845	4093.72
609.041	4218.64
609.236	4488.98
609.432	4603.66
609.628	4769.55
609.824	4921.1
610.019	4894.47
610.215	5140.23
610.411	5246.73
610.606	5451.52
610.802	5553.92
610.998	5541.63
611.193	5910.27
611.389	5848.83
611.584	6102.78
611.78	6289.14
611.976	6405.88
612.171	6782.7
612.367	6964.97
612.562	6858.48
612.758	7042.79
612.953	7061.23
613.149	7612.13
613.344	7653.09
613.539	7972.57
613.735	8083.16
613.93	8388.31
614.126	8527.57
614.321	8675.02
614.517	8863.44
614.712	9088.71
614.907	9514.69
615.103	9823.94
615.298	9979.58
615.493	10223.29
615.688	10208.95
615.884	10843.82
616.079	10860.21
616.274	11325.1
616.47	11493.03
616.665	11708.07
616.86	12041.89
617.055	12342.94
617.25	12533.4
617.445	13127.31
617.641	13194.89
617.836	13586.05
618.031	13942.4
618.226	14145.15
618.421	14698.1
618.616	15011.44
618.811	15056.5
619.006	15679.08
619.201	15965.79
619.396	16475.74
619.591	16426.59
619.786	17170
619.981	17149.52
620.176	17835.59
620.371	18110.02
620.566	18548.28
620.761	18757.18
620.956	19568.17
621.151	19615.27
621.346	20194.85
621.541	20301.34
621.735	21014.04
621.93	20852.25
622.125	21755.4
622.32	21857.8
622.515	22316.54
622.709	22902.26
622.904	23336.43
623.099	23647.72
623.294	23922.15
623.488	24282.59
623.683	24737.24
623.878	24829.4
624.072	25675.21
624.267	25658.83
624.462	26437.06
624.656	26682.81
624.851	27340.21
625.046	27235.77
625.24	27852.2
625.435	28011.95
625.629	28831.13
625.824	28855.71
626.018	29826.45
626.213	29220.25
626.407	30035.34
626.602	30160.27
626.796	30782.85
626.991	31149.43
627.185	31034.75
627.38	31610.23
627.574	31782.26
627.768	31880.56
627.963	31919.47
628.157	31466.87
628.352	32644.45
628.546	32081.26
628.74	32744.8
628.935	32150.89
629.129	32394.6
629.323	32042.35
629.517	31901.04
629.712	31874.41
629.906	31403.38
630.1	31335.8
630.294	31364.47
630.489	30782.85
630.683	30680.45
630.877	29603.22
631.071	29869.45
631.265	29160.86
631.459	28761.5
631.653	27741.61
631.848	27526.58
632.042	26877.37
632.236	26285.51
632.43	25327.06
632.624	25095.64
632.818	24217.06
633.012	23287.28
633.206	22382.08
633.4	22228.48
633.594	21184.02
633.788	20778.52
633.982	20244
634.176	19480.11
634.369	18447.93
634.563	17997.38
634.757	17139.28
634.951	16713.3
635.145	16055.9
635.339	15537.77
635.533	14622.33
635.726	14249.6
635.92	13758.08
636.114	12873.36
636.308	12355.22
636.501	12220.06
636.695	11697.83
636.889	11095.72
637.083	10622.64
637.276	10176.19
637.47	9916.09
637.664	9324.23
637.857	9033.42
638.051	8568.53
638.244	8369.88
638.438	7927.52
638.632	7618.27
638.825	7345.89
639.019	7186.15
639.212	6625.01
639.406	6547.19
639.599	6434.55
639.793	6088.44
639.986	5689.09
640.18	5730.05
640.373	5469.95
640.567	5164.81
640.76	5076.74
640.954	4787.98
641.147	4652.81
641.34	4427.54
641.534	4419.35
641.727	4050.71
641.92	4011.8
642.114	3884.83
642.307	3753.76
642.5	3585.82
642.694	3370.79
642.887	3385.12
643.08	3260.2
643.273	3223.33
643.467	2918.18
643.66	2762.54
643.853	2682.67
644.046	2590.51
644.239	2539.31
644.432	2305.84
644.626	2260.79
644.819	2279.22
645.012	2180.92
645.205	2111.29
645.398	2031.41
645.591	1898.3
645.784	1861.43
645.977	1675.07
646.17	1699.64
646.363	1560.38
646.556	1505.09
646.749	1472.32
646.942	1486.65
647.135	1443.65
647.328	1288
647.521	1232.71
647.714	1216.32
647.907	1206.08
648.099	1152.84
648.292	1163.08
648.485	1120.07
648.678	917.32
648.871	1034.05
649.064	902.98
649.256	894.79
649.449	939.85
649.642	728.91
649.835	780.11
650.027	767.82
650.22	870.22
650.413	685.9
650.605	833.35
650.798	716.62
650.991	655.18
651.183	653.13
651.376	632.65
651.568	694.09
651.761	577.36
651.954	616.27
652.146	558.92
652.339	591.69
652.531	599.88
652.724	423.76
652.916	446.29
653.109	411.47
653.301	563.02
653.494	456.53
653.686	450.38
653.879	546.64
654.071	393.04
654.263	319.31
654.456	429.9
654.648	421.71
654.84	450.38
655.033	376.66
655.225	472.91
655.417	288.59
655.61	423.76
655.802	438.09
655.994	440.14
656.186	157.52
656.379	431.95
656.571	282.45
656.763	345.94
656.955	218.96
657.148	235.35
657.34	370.51
657.532	319.31
657.724	266.07
657.916	352.08
658.108	350.03
658.3	253.78
658.492	243.54
658.684	253.78
658.876	300.88
659.068	182.1
659.26	124.76
659.452	194.39
659.644	282.45
659.836	378.7
660.028	206.67
660.22	171.86
660.412	253.78
660.604	169.81
660.796	180.05
660.988	255.83
661.18	231.25
661.372	296.78
661.563	237.39
661.755	178
661.947	53.08
662.139	161.62
662.331	169.81
662.522	159.57
662.714	141.14
662.906	59.22
663.097	114.52
663.289	171.86
663.481	53.08
663.673	173.91
663.864	196.43
664.056	208.72
664.247	65.36
664.439	167.76
664.631	259.92
664.822	151.38
665.014	163.67
665.205	81.75
665.397	147.28
665.588	208.72
665.78	141.14
665.971	165.71
666.163	87.89
666.354	159.57
666.546	122.71
666.737	120.66
666.929	79.7
667.12	98.13
667.311	102.23
667.503	137.04
667.694	110.42
667.885	180.05
668.077	186.19
668.268	-26.79
668.459	112.47
668.651	94.04
668.842	192.34
669.033	102.23
669.224	63.32
669.416	223.06
669.607	112.47
669.798	69.46
669.989	302.93
670.18	161.62
670.371	225.11
670.563	83.8
670.754	161.62
670.945	225.11
671.136	124.76
671.327	63.32
671.518	233.3
671.709	231.25
671.9	135
672.091	302.93
672.282	102.23
672.473	118.61
672.664	163.67
672.855	124.76
673.046	192.34
673.237	264.02
673.428	151.38
673.619	186.19
673.809	77.65
674	286.54
674.191	96.08
674.382	87.89
674.573	149.33
674.764	98.13
674.954	243.54
675.145	96.08
675.336	59.22
675.527	167.76
675.717	57.17
675.908	85.84
676.099	153.43
676.289	212.82
676.48	77.65
676.671	225.11
676.861	210.77
677.052	190.29
677.243	233.3
677.433	110.42
677.624	294.74
677.814	137.04
678.005	147.28
678.195	257.87
678.386	130.9
678.576	143.19
678.767	30.55
678.957	196.43
679.148	272.21
679.338	272.21
679.529	241.49
679.719	122.71
679.909	304.98
680.1	266.07
680.29	245.59
680.481	102.23
680.671	229.2
680.861	247.63
681.052	239.44
681.242	194.39
681.432	194.39
681.622	229.2
681.813	186.19
682.003	284.5
682.193	151.38
682.383	178
682.573	210.77
682.764	208.72
682.954	257.87
683.144	296.78
683.334	218.96
683.524	280.4
683.714	304.98
683.904	178
684.094	159.57
684.284	145.24
684.474	317.26
684.664	296.78
684.854	218.96
685.044	307.02
685.234	194.39
685.424	214.87
685.614	175.95
685.804	368.46
685.994	294.74
686.184	225.11
686.374	266.07
686.564	296.78
686.753	192.34
686.943	157.52
687.133	212.82
687.323	231.25
687.513	214.87
687.702	231.25
687.892	216.91
688.082	247.63
688.272	335.7
688.461	216.91
688.651	319.31
688.841	302.93
689.03	155.47
689.22	247.63
689.41	329.55
689.599	212.82
689.789	192.34
689.979	393.04
690.168	227.15
690.358	274.26
690.547	223.06
690.737	264.02
690.926	278.35
691.116	276.31
691.305	257.87
691.495	347.98
691.684	200.53
691.874	223.06
692.063	145.24
692.252	331.6
692.442	253.78
692.631	139.09
692.82	286.54
693.01	198.48
693.199	139.09
693.388	249.68
693.578	253.78
693.767	249.68
693.956	216.91
694.146	167.76
694.335	165.71
694.524	157.52
694.713	311.12
694.902	165.71
695.092	233.3
695.281	227.15
695.47	139.09
695.659	169.81
695.848	280.4
696.037	212.82
696.226	284.5
696.415	194.39
696.604	352.08
696.793	307.02
696.982	223.06
697.171	296.78
697.36	243.54
697.549	159.57
697.738	26.45
697.927	198.48
698.116	135
698.305	171.86
698.494	237.39
698.683	151.38
698.872	395.09
699.061	173.91
699.25	143.19
699.438	268.11
699.627	122.71
699.816	356.18
700.005	149.33
700.193	135
700.382	274.26
700.571	200.53
700.76	239.44
700.948	304.98
701.137	286.54
701.326	167.76
701.514	223.06
701.703	218.96
701.892	294.74
702.08	304.98
702.269	245.59
702.457	108.37
702.646	155.47
702.834	216.91
703.023	149.33
703.212	290.64
703.4	132.95
703.589	212.82
703.777	182.1
703.965	116.56
704.154	313.17
704.342	112.47
704.531	173.91
704.719	190.29
704.907	202.58
705.096	100.18
705.284	118.61
705.472	200.53
705.661	239.44
705.849	274.26
706.037	251.73
706.226	247.63
706.414	184.15
706.602	151.38
706.79	216.91
706.979	169.81
707.167	253.78
707.355	98.13
707.543	249.68
707.731	202.58
707.919	233.3
708.107	247.63
708.296	188.24
708.484	100.18
708.672	190.29
708.86	157.52
709.048	188.24
709.236	157.52
709.424	278.35
709.612	221.01
709.8	44.88
709.988	139.09
710.176	255.83
710.364	233.3
710.551	198.48
710.739	143.19
710.927	173.91
711.115	157.52
711.303	231.25
711.491	243.54
711.679	202.58
711.866	270.16
712.054	212.82
712.242	247.63
712.43	352.08
712.617	212.82
712.805	286.54
712.993	231.25
713.181	135
713.368	218.96
713.556	184.15
713.744	175.95
713.931	382.8
714.119	282.45
714.306	180.05
714.494	171.86
714.682	190.29
714.869	81.75
715.057	175.95
715.244	89.94
715.432	241.49
715.619	178
715.807	180.05
715.994	245.59
716.182	251.73
716.369	272.21
716.556	233.3
716.744	227.15
716.931	91.99
717.119	296.78
717.306	147.28
717.493	319.31
717.681	161.62
717.868	208.72
718.055	319.31
718.242	182.1
718.43	257.87
718.617	216.91
718.804	229.2
718.991	276.31
719.179	233.3
719.366	223.06
719.553	298.83
719.74	206.67
719.927	194.39
720.114	212.82
720.301	175.95
720.488	241.49
720.676	151.38
720.863	302.93
721.05	360.27
721.237	235.35
721.424	321.36
721.611	311.12
721.798	141.14
721.985	167.76
722.172	245.59
722.358	204.63
722.545	282.45
722.732	276.31
722.919	329.55
723.106	298.83
723.293	272.21
723.48	335.7
723.667	204.63
723.853	309.07
724.04	333.65
724.227	313.17
724.414	272.21
724.6	274.26
724.787	450.38
724.974	364.37
725.161	286.54
725.347	221.01
725.534	296.78
725.72	333.65
725.907	378.7
726.094	356.18
726.28	239.44
726.467	272.21
726.653	231.25
726.84	315.22
727.027	427.85
727.213	309.07
727.4	307.02
727.586	335.7
727.773	227.15
727.959	249.68
728.145	231.25
728.332	288.59
728.518	296.78
728.705	307.02
728.891	278.35
729.077	239.44
729.264	298.83
729.45	274.26
729.636	311.12
729.823	307.02
730.009	358.22
730.195	356.18
730.382	309.07
730.568	221.01
730.754	352.08
730.94	345.94
731.126	309.07
731.313	323.41
731.499	266.07
731.685	302.93
731.871	288.59
732.057	356.18
732.243	376.66
732.429	341.84
732.615	372.56
732.801	333.65
732.987	284.5
733.173	360.27
733.359	245.59
733.545	386.9
733.731	223.06
733.917	444.24
734.103	296.78
734.289	360.27
734.475	241.49
734.661	501.58
734.847	335.7
735.033	347.98
735.219	440.14
735.404	339.79
735.59	282.45
735.776	317.26
735.962	333.65
736.148	372.56
736.333	407.38
736.519	397.14
736.705	372.56
736.89	341.84
737.076	327.5
737.262	331.6
737.447	313.17
737.633	343.89
737.819	407.38
738.004	323.41
738.19	366.42
738.375	368.46
738.561	388.94
738.747	366.42
738.932	311.12
739.118	556.88
739.303	419.66
739.489	294.74
739.674	272.21
739.859	282.45
740.045	364.37
740.23	401.23
740.416	223.06
740.601	384.85
740.786	384.85
740.972	290.64
741.157	350.03
741.342	343.89
741.528	255.83
741.713	429.9
741.898	358.22
742.084	296.78
742.269	413.52
742.454	350.03
742.639	438.09
742.824	419.66
743.01	413.52
743.195	468.81
743.38	368.46
743.565	395.09
743.75	315.22
743.935	393.04
744.12	417.61
744.305	278.35
744.49	311.12
744.675	274.26
744.86	286.54
745.045	362.32
745.23	329.55
745.415	317.26
745.6	446.29
745.785	378.7
745.97	450.38
746.155	425.81
746.34	477.01
746.525	294.74
746.71	405.33
746.895	307.02
747.079	294.74
747.264	327.5
747.449	458.57
747.634	370.51
747.819	368.46
748.003	296.78
748.188	311.12
748.373	350.03
748.557	368.46
748.742	399.18
748.927	302.93
749.111	321.36
749.296	345.94
749.481	464.72
749.665	347.98
749.85	323.41
750.034	382.8
750.219	325.46
750.404	335.7
750.588	386.9
750.773	276.31
750.957	321.36
751.141	251.73
751.326	393.04
751.51	274.26
751.695	266.07
751.879	300.88
752.064	390.99
752.248	231.25
752.432	321.36
752.617	366.42
752.801	327.5
752.985	198.48
753.17	372.56
753.354	329.55
753.538	268.11
753.722	266.07
753.907	206.67
754.091	175.95
754.275	200.53
754.459	198.48
754.643	186.19
754.828	249.68
755.012	323.41
755.196	171.86
755.38	282.45
755.564	274.26
755.748	223.06
755.932	296.78
756.116	272.21
756.3	323.41
756.484	182.1
756.668	202.58
756.852	194.39
757.036	159.57
757.22	249.68
757.404	145.24
757.588	221.01
757.772	194.39
757.956	290.64
758.14	364.37
758.323	192.34
758.507	274.26
758.691	210.77
758.875	286.54
759.059	358.22
759.242	165.71
759.426	237.39
759.61	335.7
759.794	149.33
759.977	266.07
760.161	407.38
760.345	309.07
760.528	247.63
760.712	204.63
760.895	253.78
761.079	171.86
761.263	137.04
761.446	188.24
761.63	259.92
761.813	288.59
761.997	145.24
762.18	216.91
762.364	190.29
762.547	59.22
762.731	188.24
762.914	192.34
763.098	143.19
763.281	149.33
763.464	157.52
763.648	180.05
763.831	210.77
764.015	71.51
764.198	151.38
764.381	67.41
764.564	171.86
764.748	321.36
764.931	214.87
765.114	108.37
765.297	241.49
765.481	163.67
765.664	200.53
765.847	139.09
766.03	261.97
766.213	65.36
766.397	114.52
766.58	94.04
766.763	192.34
766.946	165.71
767.129	83.8
767.312	145.24
767.495	132.95
767.678	51.03
767.861	159.57
768.044	124.76
768.227	34.64
768.41	147.28
768.593	157.52
768.776	128.85
768.959	106.32
769.142	218.96
769.324	110.42
769.507	227.15
769.69	145.24
769.873	163.67
770.056	325.46
770.239	165.71
770.421	216.91
770.604	165.71
770.787	16.21
770.97	81.75
771.152	216.91
771.335	180.05
771.518	94.04
771.7	229.2
771.883	235.35
772.066	32.6
772.248	198.48
772.431	202.58
772.613	229.2
772.796	132.95
772.978	141.14
773.161	257.87
773.343	73.56
773.526	157.52
773.708	20.31
773.891	26.45
774.073	106.32
774.256	71.51
774.438	288.59
774.621	102.23
774.803	171.86
774.985	59.22
775.168	161.62
775.35	69.46
775.532	147.28
775.715	38.74
775.897	108.37
776.079	96.08
776.261	118.61
776.444	102.23
776.626	204.63
776.808	130.9
776.99	28.5
777.173	83.8
777.355	132.95
777.537	163.67
777.719	157.52
777.901	73.56
778.083	65.36
778.265	69.46
778.447	118.61
778.629	114.52
778.811	116.56
778.993	85.84
779.175	147.28
779.357	159.57
779.539	57.17
779.721	81.75
779.903	128.85
780.085	89.94
780.267	128.85
780.449	71.51
780.631	161.62
780.812	202.58
780.994	75.6
781.176	114.52
781.358	61.27
781.54	85.84
781.721	147.28
781.903	159.57
782.085	34.64
782.267	151.38
782.448	-14.51
782.63	87.89
782.812	87.89
782.993	167.76
783.175	184.15
783.357	98.13
783.538	100.18
783.72	48.98
783.901	61.27
784.083	130.9
784.264	96.08
784.446	34.64
784.627	-16.55
784.809	100.18
784.99	-10.41
785.172	188.24
785.353	55.12
785.535	106.32
785.716	-12.46
785.897	5.97
786.079	14.17
786.26	65.36
786.441	65.36
786.623	-18.6
786.804	-16.55
786.985	155.47
787.167	51.03
787.348	38.74
787.529	-0.17
787.71	188.24
787.891	139.09
788.073	69.46
788.254	-61.61
788.435	141.14
788.616	94.04
788.797	-8.36
788.978	20.31
789.159	-82.09
789.34	42.84
789.522	57.17
789.703	-0.17
789.884	151.38
790.065	34.64
790.246	94.04
790.427	57.17
790.607	182.1
790.788	-16.55
790.969	-53.42
791.15	55.12
791.331	75.6
791.512	128.85
791.693	-6.31
791.874	81.75
792.054	225.11
792.235	171.86
792.416	1.88
792.597	34.64
792.778	40.79
792.958	73.56
793.139	-24.75
793.32	44.88
793.5	89.94
793.681	71.51
793.862	22.36
794.042	16.21
794.223	-28.84
794.404	1.88
794.584	-90.28
794.765	10.07
794.945	14.17
795.126	94.04
795.306	110.42
795.487	-20.65
795.667	48.98
795.848	34.64
796.028	38.74
796.209	10.07
796.389	44.88
796.57	42.84
796.75	-53.42
796.93	-24.75
797.111	24.4
797.291	-2.22
797.471	63.32
797.652	-26.79
797.832	12.12
798.012	139.09
798.192	-18.6
798.373	-63.66
798.553	-24.75
798.733	69.46
798.913	-8.36
799.093	36.69
799.274	59.22
799.454	20.31
799.634	118.61
799.814	61.27
799.994	153.43
800.174	85.84
800.354	65.36
800.534	-67.75
800.714	126.8
800.894	-28.84
801.074	-32.94
801.254	51.03
801.434	10.07
801.614	5.97
801.794	-61.61
801.974	1744.7
802.154	30.55
802.334	145.24
802.514	-53.42
802.693	18.26
802.873	-53.42
803.053	145.24
803.233	42.84
803.413	-12.46
803.592	-45.23
803.772	-16.55
803.952	-45.23
804.131	-67.75
804.311	186.19
804.491	55.12
804.67	-37.03
804.85	-30.89
805.03	38.74
805.209	85.84
805.389	28.5
805.568	-96.43
805.748	5.97
805.928	-10.41
806.107	81.75
806.287	46.93
806.466	-6.31
806.646	24.4
806.825	36.69
807.004	48.98
807.184	42.84
807.363	118.61
807.543	55.12
807.722	-53.42
807.901	112.47
808.081	40.79
808.26	-121
808.439	28.5
808.619	-10.41
808.798	-10.41
808.977	46.93
809.156	98.13
809.336	57.17
809.515	100.18
809.694	-39.08
809.873	-32.94
810.052	26.45
810.231	55.12
810.411	28.5
810.59	157.52
810.769	-39.08
810.948	104.28
811.127	-110.76
811.306	36.69
811.485	30.55
811.664	120.66
811.843	-6.31
812.022	-24.75
812.201	-30.89
812.38	-49.32
812.559	-20.65
812.737	85.84
812.916	-108.71
813.095	-88.23
813.274	34.64
813.453	38.74
813.632	83.8
813.811	126.8
813.989	-80.04
814.168	55.12
814.347	-49.32
814.526	20.31
814.704	147.28
814.883	118.61
815.062	-41.13
815.24	65.36
815.419	1.88
815.598	44.88
815.776	-161.96
815.955	32.6
816.133	-65.71
816.312	12.12
816.49	-55.47
816.669	18.26
816.847	-41.13
817.026	34.64
817.204	65.36
817.383	5.97
817.561	-118.95
817.74	32.6
817.918	38.74
818.097	-43.18
818.275	-37.03
818.453	42.84
818.632	71.51
818.81	22.36
818.988	-77.99
819.167	-69.8
819.345	-6.31
819.523	-20.65
819.701	-12.46
819.879	94.04
820.058	-14.51
820.236	32.6
820.414	-8.36
820.592	20.31
820.77	-41.13
820.948	-14.51
821.127	-34.99
821.305	-49.32
821.483	-39.08
821.661	143.19
821.839	5.97
822.017	-18.6
822.195	-53.42
822.373	79.7
822.551	-53.42
822.729	55.12
822.907	53.08
823.085	55.12
823.262	28.5
823.44	-37.03
823.618	-22.7
823.796	16.21
823.974	-10.41
824.152	-4.27
824.329	26.45
824.507	-22.7
824.685	141.14
824.863	32.6
825.04	-39.08
825.218	44.88
825.396	42.84
825.574	-2.22
825.751	57.17
825.929	75.6
826.107	-94.38
826.284	-22.7
826.462	79.7
826.639	-8.36
826.817	-67.75
826.994	-32.94
827.172	-24.75
827.349	36.69
827.527	-0.17
827.704	42.84
827.882	81.75
828.059	-47.27
828.237	34.64
828.414	94.04
828.591	-102.57
828.769	28.5
828.946	-20.65
829.124	55.12
829.301	79.7
829.478	-55.47
829.655	5.97
829.833	28.5
830.01	-65.71
830.187	73.56
830.364	57.17
830.542	-0.17
830.719	53.08
830.896	106.32
831.073	81.75
831.25	18.26
831.427	71.51
831.604	-24.75
831.782	38.74
831.959	32.6
832.136	28.5
832.313	96.08
832.49	-57.51
832.667	69.46
832.844	-0.17
833.021	61.27
833.198	-37.03
833.374	32.6
833.551	69.46
833.728	16.21
833.905	1.88
834.082	-77.99
834.259	30.55
834.436	85.84
834.612	-41.13
834.789	173.91
834.966	-92.33
835.143	36.69
835.319	-59.56
835.496	38.74
835.673	-16.55
835.85	24.4
836.026	32.6
836.203	89.94
836.38	-57.51
836.556	-47.27
836.733	-71.85
836.909	96.08
837.086	-26.79
837.262	-161.96
837.439	-34.99
837.616	-98.47
837.792	-43.18
837.968	65.36
838.145	-112.81
838.321	28.5
838.498	10.07
838.674	32.6
838.851	69.46
839.027	10.07
839.203	-8.36
839.38	69.46
839.556	-41.13
839.732	26.45
839.909	3.93
840.085	1.88
840.261	12.12
840.437	-37.03
840.614	-26.79
840.79	5.97
840.966	73.56
841.142	-26.79
841.318	-102.57
841.494	87.89
841.671	114.52
841.847	-22.7
842.023	-51.37
842.199	34.64
842.375	126.8
842.551	-166.06
842.727	-41.13
842.903	75.6
843.079	-77.99
843.255	48.98
843.431	16.21
843.607	36.69
843.783	-131.24
843.959	46.93
844.134	14.17
844.31	73.56
844.486	-49.32
844.662	-69.8
844.838	3.93
845.013	22.36
845.189	51.03
845.365	-22.7
845.541	-28.84
845.716	28.5
845.892	118.61
846.068	-10.41
846.244	-94.38
846.419	14.17
846.595	-73.9
846.77	-37.03
846.946	94.04
847.122	-4.27
847.297	-39.08
847.473	73.56
847.648	-67.75
847.824	63.32
847.999	-73.9
848.175	20.31
848.35	130.9
848.526	137.04
848.701	20.31
848.876	102.23
849.052	30.55
849.227	46.93
849.403	-14.51
849.578	67.41
849.753	96.08
849.929	38.74
850.104	-45.23
850.279	8.02
850.454	-43.18
850.63	106.32
850.805	79.7
850.98	40.79
851.155	-77.99
851.33	61.27
851.505	-145.58
851.681	149.33
851.856	16.21
852.031	-6.31
852.206	48.98
852.381	-14.51
852.556	-39.08
852.731	59.22
852.906	94.04
853.081	102.23
853.256	71.51
853.431	63.32
853.606	22.36
853.781	-61.61
853.956	-4.27
854.131	-41.13
854.305	-90.28
854.48	-30.89
854.655	-14.51
854.83	-39.08
855.005	-51.37
855.18	1.88
855.354	-84.14
855.529	12.12
855.704	-114.86
855.879	14.17
856.053	-90.28
856.228	-8.36
856.403	-61.61
856.577	30.55
856.752	-137.38
856.926	-77.99
857.101	46.93
857.276	-118.95
857.45	48.98
857.625	79.7
857.799	44.88
857.974	32.6
858.148	-151.72
858.323	-12.46
858.497	-24.75
858.672	55.12
858.846	-67.75
859.02	12.12
859.195	-116.9
859.369	-102.57
859.543	-2.22
859.718	10.07
859.892	-26.79
860.066	-14.51
860.241	-28.84
860.415	-37.03
860.589	16.21
860.763	14.17
860.938	-26.79
861.112	1.88
861.286	-92.33
861.46	24.4
861.634	-71.85
861.808	38.74
861.982	-82.09
862.157	-57.51
862.331	-32.94
862.505	-57.51
862.679	-86.19
862.853	-22.7
863.027	-41.13
863.201	91.99
863.375	-77.99
863.549	57.17
863.722	18.26
863.896	122.71
864.07	-22.7
864.244	24.4
864.418	-8.36
864.592	-61.61
864.766	-28.84
864.939	-14.51
865.113	-75.95
865.287	79.7
865.461	-123.05
865.634	42.84
865.808	44.88
865.982	-6.31
866.156	-63.66
866.329	-69.8
866.503	-26.79
866.676	104.28
866.85	98.13
867.024	-110.76
867.197	59.22
867.371	40.79
867.544	40.79
867.718	-110.76
867.891	104.28
868.065	-34.99
868.238	-24.75
868.412	91.99
868.585	-30.89
868.759	-16.55
868.932	-51.37
869.105	-153.77
869.279	-59.56
869.452	-125.1
869.625	-32.94
869.799	-51.37
869.972	-108.71
870.145	-41.13
870.319	85.84
870.492	-37.03
870.665	-14.51
870.838	-37.03
871.011	-84.14
871.185	-32.94
871.358	-41.13
871.531	-45.23
871.704	-34.99
871.877	42.84
872.05	24.4
872.223	-176.3
872.396	18.26
872.569	91.99
872.742	-18.6
872.915	-16.55
873.088	-26.79
873.261	-98.47
873.434	73.56
873.607	-43.18
873.78	98.13
873.953	-41.13
874.126	-49.32
874.299	5.97
874.471	-96.43
874.644	-73.9
874.817	61.27
874.99	102.23
875.163	36.69
875.335	-16.55
875.508	48.98
875.681	98.13
875.853	-32.94
876.026	24.4
876.199	26.45
876.371	26.45
876.544	-63.66
876.717	-30.89
876.889	-8.36
877.062	44.88
877.234	-57.51
877.407	46.93
877.579	-43.18
877.752	-2.22
877.924	69.46
878.097	51.03
878.269	-18.6
878.442	44.88
878.614	-39.08
878.786	30.55
878.959	30.55
879.131	-14.51
879.303	-96.43
879.476	-131.24
879.648	51.03
879.82	10.07
879.993	-4.27
880.165	-16.55
880.337	-37.03
880.509	5.97
880.681	-86.19
880.854	-82.09
881.026	57.17
881.198	157.52
881.37	26.45
881.542	-2.22
881.714	-18.6
881.886	-2.22
882.058	48.98
882.23	-34.99
882.402	-73.9
882.574	-12.46
882.746	38.74
882.918	104.28
883.09	57.17
883.262	1.88
883.434	12.12
883.606	-121
883.778	-39.08
883.95	116.56
884.122	3.93
884.293	-2.22
884.465	-4.27
884.637	-22.7
884.809	-43.18
884.98	-32.94
885.152	-37.03
885.324	26.45
885.496	-108.71
885.667	-8.36
885.839	-4.27
886.011	104.28
886.182	30.55
886.354	53.08
886.525	-18.6
886.697	-14.51
886.869	-61.61
887.04	-69.8
887.212	139.09
887.383	135
887.555	-12.46
887.726	-92.33
887.897	30.55
888.069	-47.27
888.24	40.79
888.412	-94.38
888.583	-20.65
888.754	-24.75
888.926	-108.71
889.097	-34.99
889.268	-94.38
889.44	-24.75
889.611	-135.34
889.782	-104.62
889.953	-53.42
890.125	75.6
890.296	3.93
890.467	-20.65
890.638	18.26
890.809	-47.27
890.98	-26.79
891.151	96.08
891.323	65.36
891.494	40.79
891.665	38.74
891.836	-16.55
892.007	-2.22
892.178	-20.65
892.349	26.45
892.52	-43.18
892.691	-8.36
892.862	-77.99
893.032	-67.75
893.203	-69.8
893.374	-43.18
893.545	55.12
893.716	-69.8
893.887	8.02
894.057	-94.38
894.228	1.88
894.399	-51.37
894.57	40.79
894.74	-32.94
894.911	63.32
895.082	5.97
895.253	-30.89
895.423	3.93
895.594	94.04
895.764	81.75
895.935	-55.47
896.106	-34.99
896.276	-51.37
896.447	8.02
896.617	-67.75
896.788	-10.41
896.958	-8.36
897.129	20.31
897.299	-51.37
897.47	87.89
897.64	63.32
897.81	-12.46
897.981	-16.55
898.151	-88.23
898.322	-16.55
898.492	16.21
898.662	-100.52
898.832	-18.6
899.003	-67.75
899.173	53.08
899.343	-77.99
899.513	-28.84
