Data from USB4F104151__35__11-26-23-594.txt Node

Date: Wed Feb 26 11:26:23 EST 2025
User: louis
Spectrometer: USB4F10415
Trigger mode: 4
Integration Time (sec): 1.000000E-1
Scans to average: 1
Electric dark correction enabled: true
Nonlinearity correction enabled: false
Boxcar width: 0
XAxis mode: Wavelengths
Number of Pixels in Spectrum: 3648
>>>>>Begin Spectral Data<<<<<
178.204	-359.93
178.424	-359.93
178.644	-359.93
178.864	-452.09
179.084	-419.32
179.304	-26.11
179.524	-3.58
179.744	35.33
179.964	92.67
180.184	102.91
180.404	29.18
180.624	-22.02
180.844	-13.82
181.064	-73.21
181.283	-50.69
181.503	-79.36
181.723	8.7
181.943	-110.08
182.163	229.88
182.383	-83.45
182.602	33.28
182.822	107.01
183.042	35.33
183.262	-30.21
183.482	39.42
183.701	6.66
183.921	31.23
184.141	-32.26
184.361	102.91
184.58	90.62
184.8	104.96
185.02	-122.37
185.239	104.96
185.459	139.77
185.679	49.66
185.898	-48.64
186.118	2.56
186.338	74.24
186.557	121.34
186.777	-28.16
186.997	64
187.216	74.24
187.436	274.94
187.655	51.71
187.875	51.71
188.095	33.28
188.314	70.14
188.534	68.09
188.753	-28.16
188.973	143.87
189.192	176.64
189.412	16.9
189.631	0.51
189.851	74.24
190.07	162.3
190.29	-46.59
190.509	-13.82
190.729	-65.02
190.948	98.81
191.168	180.73
191.387	143.87
191.607	39.42
191.826	76.29
192.045	55.81
192.265	-15.87
192.484	70.14
192.704	86.53
192.923	-71.17
193.142	199.16
193.362	70.14
193.581	102.91
193.8	37.38
194.02	53.76
194.239	29.18
194.458	115.2
194.678	74.24
194.897	-11.78
195.116	78.33
195.335	100.86
195.555	4.61
195.774	-69.12
195.993	100.86
196.212	12.8
196.432	-30.21
196.651	-58.88
196.87	-28.16
197.089	307.71
197.308	53.76
197.528	115.2
197.747	-24.06
197.966	39.42
198.185	127.49
198.404	-40.45
198.623	127.49
198.842	78.33
199.062	98.81
199.281	133.63
199.5	37.38
199.719	127.49
199.938	94.72
200.157	70.14
200.376	59.9
200.595	102.91
200.814	37.38
201.033	-56.83
201.252	113.15
201.471	96.77
201.69	115.2
201.909	86.53
202.128	150.01
202.347	131.58
202.566	66.05
202.785	-28.16
203.004	-9.73
203.223	227.84
203.442	27.14
203.661	-5.63
203.879	18.94
204.098	170.49
204.317	8.7
204.536	53.76
204.755	119.29
204.974	147.97
205.193	12.8
205.411	127.49
205.63	113.15
205.849	129.53
206.068	-17.92
206.287	-42.5
206.505	170.49
206.724	-24.06
206.943	39.42
207.162	-17.92
207.381	96.77
207.599	16.9
207.818	-30.21
208.037	16.9
208.255	29.18
208.474	53.76
208.693	29.18
208.911	-11.78
209.13	66.05
209.349	51.71
209.567	94.72
209.786	84.48
210.005	143.87
210.223	98.81
210.442	-132.61
210.661	-32.26
210.879	27.14
211.098	94.72
211.316	59.9
211.535	64
211.753	25.09
211.972	127.49
212.191	-5.63
212.409	-1.54
212.628	119.29
212.846	49.66
213.065	49.66
213.283	66.05
213.502	96.77
213.72	41.47
213.938	4.61
214.157	-50.69
214.375	145.92
214.594	-5.63
214.812	127.49
215.031	-60.93
215.249	61.95
215.467	104.96
215.686	6.66
215.904	135.68
216.122	109.05
216.341	98.81
216.559	2.56
216.778	88.57
216.996	41.47
217.214	31.23
217.432	-26.11
217.651	-44.54
217.869	8.7
218.087	37.38
218.306	8.7
218.524	49.66
218.742	-38.4
218.96	94.72
219.179	-77.31
219.397	-24.06
219.615	160.25
219.833	121.34
220.051	12.8
220.27	92.67
220.488	160.25
220.706	47.62
220.924	-11.78
221.142	61.95
221.36	57.86
221.578	66.05
221.796	68.09
222.015	37.38
222.233	35.33
222.451	92.67
222.669	20.99
222.887	147.97
223.105	27.14
223.323	-3.58
223.541	6.66
223.759	29.18
223.977	100.86
224.195	68.09
224.413	107.01
224.631	2.56
224.849	88.57
225.067	193.02
225.285	-19.97
225.503	-9.73
225.721	-105.98
225.939	55.81
226.157	33.28
226.375	223.74
226.592	-9.73
226.81	-13.82
227.028	154.11
227.246	156.16
227.464	23.04
227.682	117.25
227.9	64
228.117	57.86
228.335	55.81
228.553	-3.58
228.771	37.38
228.989	102.91
229.206	64
229.424	4.61
229.642	-69.12
229.86	-34.3
230.077	131.58
230.295	74.24
230.513	102.91
230.731	82.43
230.948	174.59
231.166	160.25
231.384	45.57
231.601	-75.26
231.819	156.16
232.037	-34.3
232.254	-42.5
232.472	18.94
232.689	-56.83
232.907	184.83
233.125	-69.12
233.342	-46.59
233.56	33.28
233.777	-11.78
233.995	23.04
234.213	64
234.43	88.57
234.648	88.57
234.865	37.38
235.083	10.75
235.3	37.38
235.518	90.62
235.735	35.33
235.953	37.38
236.17	23.04
236.388	-24.06
236.605	-13.82
236.822	66.05
237.04	180.73
237.257	27.14
237.475	-50.69
237.692	92.67
237.909	72.19
238.127	51.71
238.344	43.52
238.562	45.57
238.779	-30.21
238.996	-118.27
239.214	61.95
239.431	51.71
239.648	10.75
239.865	27.14
240.083	125.44
240.3	-62.98
240.517	-9.73
240.735	0.51
240.952	170.49
241.169	72.19
241.386	139.77
241.603	20.99
241.821	-36.35
242.038	135.68
242.255	117.25
242.472	-5.63
242.689	76.29
242.907	53.76
243.124	31.23
243.341	-34.3
243.558	-22.02
243.775	-30.21
243.992	-87.55
244.209	115.2
244.426	199.16
244.643	29.18
244.86	-19.97
245.078	57.86
245.295	115.2
245.512	-36.35
245.729	-77.31
245.946	53.76
246.163	6.66
246.38	12.8
246.597	4.61
246.814	-11.78
247.031	2.56
247.248	82.43
247.464	35.33
247.681	64
247.898	64
248.115	35.33
248.332	-13.82
248.549	121.34
248.766	117.25
248.983	-17.92
249.2	84.48
249.417	115.2
249.633	-48.64
249.85	27.14
250.067	53.76
250.284	33.28
250.501	59.9
250.717	107.01
250.934	-65.02
251.151	57.86
251.368	-9.73
251.585	27.14
251.801	104.96
252.018	-71.17
252.235	102.91
252.451	-114.17
252.668	2.56
252.885	51.71
253.102	94.72
253.318	12.8
253.535	12.8
253.752	-26.11
253.968	23.04
254.185	-112.13
254.401	115.2
254.618	96.77
254.835	23.04
255.051	125.44
255.268	86.53
255.484	-1.54
255.701	-9.73
255.917	68.09
256.134	-36.35
256.351	-40.45
256.567	2.56
256.784	18.94
257	-85.5
257.217	127.49
257.433	20.99
257.65	31.23
257.866	80.38
258.082	-44.54
258.299	-34.3
258.515	20.99
258.732	-44.54
258.948	-36.35
259.165	31.23
259.381	-15.87
259.597	117.25
259.814	94.72
260.03	20.99
260.246	-58.88
260.463	125.44
260.679	139.77
260.895	25.09
261.112	78.33
261.328	-22.02
261.544	20.99
261.761	170.49
261.977	-15.87
262.193	-54.78
262.409	117.25
262.626	18.94
262.842	0.51
263.058	-11.78
263.274	35.33
263.49	96.77
263.707	147.97
263.923	25.09
264.139	-75.26
264.355	49.66
264.571	61.95
264.787	117.25
265.004	131.58
265.22	49.66
265.436	-42.5
265.652	-54.78
265.868	111.1
266.084	-19.97
266.3	45.57
266.516	-42.5
266.732	39.42
266.948	33.28
267.164	35.33
267.38	6.66
267.596	94.72
267.812	158.21
268.028	-17.92
268.244	-22.02
268.46	-13.82
268.676	47.62
268.892	92.67
269.108	-73.21
269.324	-67.07
269.54	-28.16
269.756	20.99
269.972	-91.65
270.188	90.62
270.403	-46.59
270.619	33.28
270.835	121.34
271.051	-28.16
271.267	-81.41
271.483	8.7
271.698	47.62
271.914	29.18
272.13	109.05
272.346	-11.78
272.562	59.9
272.777	152.06
272.993	-19.97
273.209	43.52
273.425	78.33
273.64	-126.46
273.856	76.29
274.072	-46.59
274.287	68.09
274.503	66.05
274.719	102.91
274.934	14.85
275.15	-85.5
275.366	78.33
275.581	43.52
275.797	-30.21
276.012	10.75
276.228	61.95
276.444	59.9
276.659	102.91
276.875	2.56
277.09	-19.97
277.306	-3.58
277.521	53.76
277.737	45.57
277.952	76.29
278.168	2.56
278.383	117.25
278.599	70.14
278.814	115.2
279.03	49.66
279.245	152.06
279.461	29.18
279.676	123.39
279.892	-124.41
280.107	-44.54
280.322	8.7
280.538	98.81
280.753	-58.88
280.969	45.57
281.184	29.18
281.399	104.96
281.615	70.14
281.83	68.09
282.045	-77.31
282.26	-9.73
282.476	47.62
282.691	168.45
282.906	92.67
283.122	2.56
283.337	23.04
283.552	53.76
283.767	-34.3
283.983	27.14
284.198	18.94
284.413	10.75
284.628	-15.87
284.843	133.63
285.058	113.15
285.274	12.8
285.489	-1.54
285.704	33.28
285.919	-34.3
286.134	35.33
286.349	102.91
286.564	37.38
286.779	152.06
286.995	33.28
287.21	-56.83
287.425	117.25
287.64	41.47
287.855	86.53
288.07	-67.07
288.285	113.15
288.5	109.05
288.715	43.52
288.93	66.05
289.145	-5.63
289.36	47.62
289.575	-73.21
289.79	86.53
290.004	0.51
290.219	172.54
290.434	-54.78
290.649	18.94
290.864	-101.89
291.079	-40.45
291.294	82.43
291.509	53.76
291.724	45.57
291.938	-40.45
292.153	90.62
292.368	-50.69
292.583	33.28
292.798	145.92
293.012	86.53
293.227	29.18
293.442	-7.68
293.657	100.86
293.871	104.96
294.086	98.81
294.301	246.27
294.516	66.05
294.73	80.38
294.945	-3.58
295.16	-26.11
295.374	98.81
295.589	166.4
295.804	70.14
296.018	-3.58
296.233	82.43
296.447	113.15
296.662	27.14
296.877	78.33
297.091	53.76
297.306	72.19
297.52	37.38
297.735	68.09
297.949	55.81
298.164	72.19
298.378	94.72
298.593	-30.21
298.807	-24.06
299.022	53.76
299.236	174.59
299.451	-52.74
299.665	-30.21
299.88	-19.97
300.094	47.62
300.309	39.42
300.523	64
300.737	-5.63
300.952	143.87
301.166	59.9
301.381	70.14
301.595	16.9
301.809	-1.54
302.024	39.42
302.238	-48.64
302.452	68.09
302.667	-26.11
302.881	86.53
303.095	59.9
303.309	47.62
303.524	-15.87
303.738	2.56
303.952	18.94
304.166	141.82
304.381	-105.98
304.595	109.05
304.809	39.42
305.023	41.47
305.237	57.86
305.452	37.38
305.666	94.72
305.88	109.05
306.094	111.1
306.308	8.7
306.522	109.05
306.736	4.61
306.95	123.39
307.164	-73.21
307.379	102.91
307.593	94.72
307.807	123.39
308.021	143.87
308.235	12.8
308.449	-36.35
308.663	20.99
308.877	188.93
309.091	29.18
309.305	76.29
309.519	-97.79
309.733	154.11
309.947	-48.64
310.161	53.76
310.374	119.29
310.588	104.96
310.802	-52.74
311.016	-5.63
311.23	154.11
311.444	-5.63
311.658	4.61
311.872	143.87
312.085	80.38
312.299	107.01
312.513	109.05
312.727	43.52
312.941	-3.58
313.154	76.29
313.368	98.81
313.582	12.8
313.796	49.66
314.009	45.57
314.223	156.16
314.437	2.56
314.651	47.62
314.864	-44.54
315.078	49.66
315.292	23.04
315.505	16.9
315.719	102.91
315.933	68.09
316.146	-11.78
316.36	-15.87
316.573	193.02
316.787	80.38
317.001	49.66
317.214	-38.4
317.428	70.14
317.641	-38.4
317.855	-28.16
318.068	68.09
318.282	45.57
318.495	182.78
318.709	109.05
318.922	94.72
319.136	160.25
319.349	139.77
319.563	78.33
319.776	94.72
319.99	23.04
320.203	88.57
320.417	14.85
320.63	96.77
320.843	137.73
321.057	31.23
321.27	64
321.483	88.57
321.697	102.91
321.91	-19.97
322.124	49.66
322.337	80.38
322.55	-9.73
322.763	4.61
322.977	57.86
323.19	-34.3
323.403	47.62
323.617	23.04
323.83	66.05
324.043	-62.98
324.256	-22.02
324.469	-56.83
324.683	115.2
324.896	68.09
325.109	111.1
325.322	8.7
325.535	37.38
325.748	80.38
325.962	18.94
326.175	31.23
326.388	33.28
326.601	107.01
326.814	25.09
327.027	12.8
327.24	135.68
327.453	-40.45
327.666	123.39
327.879	78.33
328.092	23.04
328.305	143.87
328.518	-93.69
328.731	20.99
328.944	10.75
329.157	84.48
329.37	12.8
329.583	162.3
329.796	66.05
330.009	-89.6
330.222	154.11
330.435	72.19
330.648	23.04
330.861	33.28
331.073	4.61
331.286	137.73
331.499	53.76
331.712	-7.68
331.925	49.66
332.138	92.67
332.35	135.68
332.563	-42.5
332.776	100.86
332.989	-60.93
333.202	57.86
333.414	51.71
333.627	-5.63
333.84	51.71
334.053	96.77
334.265	-19.97
334.478	0.51
334.691	14.85
334.903	-30.21
335.116	-1.54
335.329	12.8
335.541	111.1
335.754	137.73
335.966	29.18
336.179	86.53
336.392	115.2
336.604	31.23
336.817	156.16
337.029	92.67
337.242	55.81
337.454	141.82
337.667	-5.63
337.88	96.77
338.092	127.49
338.305	129.53
338.517	47.62
338.729	119.29
338.942	156.16
339.154	-52.74
339.367	-89.6
339.579	125.44
339.792	-13.82
340.004	84.48
340.217	104.96
340.429	10.75
340.641	-40.45
340.854	31.23
341.066	-118.27
341.278	119.29
341.491	119.29
341.703	29.18
341.915	-22.02
342.128	92.67
342.34	64
342.552	2.56
342.764	35.33
342.977	6.66
343.189	4.61
343.401	78.33
343.613	-46.59
343.826	39.42
344.038	-32.26
344.25	80.38
344.462	-81.41
344.674	129.53
344.886	49.66
345.099	141.82
345.311	66.05
345.523	8.7
345.735	18.94
345.947	86.53
346.159	61.95
346.371	23.04
346.583	12.8
346.795	223.74
347.007	74.24
347.219	86.53
347.431	4.61
347.643	107.01
347.855	86.53
348.067	170.49
348.279	29.18
348.491	72.19
348.703	92.67
348.915	41.47
349.127	4.61
349.339	8.7
349.551	-13.82
349.763	135.68
349.975	137.73
350.187	107.01
350.399	115.2
350.61	41.47
350.822	31.23
351.034	88.57
351.246	12.8
351.458	41.47
351.669	64
351.881	2.56
352.093	33.28
352.305	119.29
352.517	41.47
352.728	74.24
352.94	16.9
353.152	127.49
353.363	25.09
353.575	66.05
353.787	207.36
353.999	109.05
354.21	137.73
354.422	-24.06
354.633	18.94
354.845	82.43
355.057	14.85
355.268	117.25
355.48	20.99
355.692	-30.21
355.903	45.57
356.115	-50.69
356.326	-91.65
356.538	94.72
356.749	51.71
356.961	119.29
357.172	10.75
357.384	-9.73
357.595	176.64
357.807	37.38
358.018	-48.64
358.23	74.24
358.441	104.96
358.653	6.66
358.864	0.51
359.075	-11.78
359.287	43.52
359.498	76.29
359.709	143.87
359.921	39.42
360.132	82.43
360.344	82.43
360.555	25.09
360.766	100.86
360.977	-1.54
361.189	180.73
361.4	-13.82
361.611	100.86
361.823	123.39
362.034	27.14
362.245	-46.59
362.456	41.47
362.667	39.42
362.879	-36.35
363.09	-7.68
363.301	64
363.512	66.05
363.723	-26.11
363.935	8.7
364.146	127.49
364.357	-1.54
364.568	35.33
364.779	-71.17
364.99	166.4
365.201	-3.58
365.412	111.1
365.623	-87.55
365.834	47.62
366.045	145.92
366.256	84.48
366.467	2.56
366.678	-48.64
366.889	49.66
367.1	-30.21
367.311	113.15
367.522	43.52
367.733	86.53
367.944	33.28
368.155	-28.16
368.366	64
368.577	166.4
368.788	119.29
368.999	20.99
369.209	86.53
369.42	158.21
369.631	225.79
369.842	135.68
370.053	33.28
370.264	135.68
370.474	-15.87
370.685	27.14
370.896	18.94
371.107	160.25
371.317	59.9
371.528	72.19
371.739	125.44
371.95	25.09
372.16	70.14
372.371	-110.08
372.582	-22.02
372.792	41.47
373.003	82.43
373.214	80.38
373.424	78.33
373.635	-1.54
373.846	90.62
374.056	-38.4
374.267	68.09
374.477	104.96
374.688	-42.5
374.898	98.81
375.109	-3.58
375.319	47.62
375.53	119.29
375.74	61.95
375.951	-26.11
376.161	125.44
376.372	178.69
376.582	64
376.793	123.39
377.003	70.14
377.214	18.94
377.424	43.52
377.635	45.57
377.845	-26.11
378.055	102.91
378.266	-17.92
378.476	18.94
378.686	86.53
378.897	92.67
379.107	102.91
379.317	78.33
379.528	-3.58
379.738	92.67
379.948	-7.68
380.158	143.87
380.369	86.53
380.579	43.52
380.789	68.09
380.999	111.1
381.21	102.91
381.42	252.41
381.63	-7.68
381.84	61.95
382.05	111.1
382.261	184.83
382.471	104.96
382.681	-15.87
382.891	168.45
383.101	70.14
383.311	-22.02
383.521	57.86
383.731	80.38
383.941	86.53
384.151	37.38
384.361	-7.68
384.571	61.95
384.781	86.53
384.991	162.3
385.201	186.88
385.411	82.43
385.621	51.71
385.831	139.77
386.041	16.9
386.251	2.56
386.461	100.86
386.671	68.09
386.881	57.86
387.091	0.51
387.301	59.9
387.511	-34.3
387.72	35.33
387.93	102.91
388.14	-126.46
388.35	33.28
388.56	115.2
388.769	94.72
388.979	43.52
389.189	-28.16
389.399	51.71
389.609	90.62
389.818	131.58
390.028	84.48
390.238	49.66
390.447	0.51
390.657	94.72
390.867	-58.88
391.076	-91.65
391.286	86.53
391.496	33.28
391.705	70.14
391.915	90.62
392.125	102.91
392.334	76.29
392.544	145.92
392.753	-44.54
392.963	-40.45
393.172	33.28
393.382	64
393.591	184.83
393.801	35.33
394.01	147.97
394.22	47.62
394.429	121.34
394.639	78.33
394.848	107.01
395.058	117.25
395.267	-3.58
395.477	41.47
395.686	0.51
395.895	205.31
396.105	209.4
396.314	88.57
396.524	31.23
396.733	84.48
396.942	137.73
397.152	47.62
397.361	123.39
397.57	10.75
397.78	39.42
397.989	55.81
398.198	223.74
398.407	98.81
398.617	92.67
398.826	59.9
399.035	27.14
399.244	168.45
399.453	12.8
399.663	14.85
399.872	59.9
400.081	2.56
400.29	193.02
400.499	-7.68
400.708	129.53
400.917	131.58
401.127	43.52
401.336	64
401.545	94.72
401.754	68.09
401.963	78.33
402.172	-46.59
402.381	-52.74
402.59	39.42
402.799	-1.54
403.008	141.82
403.217	59.9
403.426	70.14
403.635	-62.98
403.844	-3.58
404.053	6.66
404.262	96.77
404.471	123.39
404.68	35.33
404.888	23.04
405.097	-22.02
405.306	115.2
405.515	96.77
405.724	0.51
405.933	172.54
406.142	59.9
406.35	127.49
406.559	39.42
406.768	88.57
406.977	160.25
407.185	49.66
407.394	119.29
407.603	-36.35
407.812	154.11
408.02	145.92
408.229	111.1
408.438	131.58
408.646	-75.26
408.855	-13.82
409.064	117.25
409.272	66.05
409.481	109.05
409.69	27.14
409.898	-26.11
410.107	92.67
410.315	141.82
410.524	-52.74
410.733	61.95
410.941	10.75
411.15	47.62
411.358	160.25
411.567	211.45
411.775	64
411.984	35.33
412.192	162.3
412.401	-1.54
412.609	117.25
412.818	186.88
413.026	133.63
413.234	29.18
413.443	84.48
413.651	-7.68
413.86	25.09
414.068	170.49
414.276	137.73
414.485	-15.87
414.693	164.35
414.901	199.16
415.11	-9.73
415.318	113.15
415.526	96.77
415.734	90.62
415.943	66.05
416.151	104.96
416.359	20.99
416.567	113.15
416.776	147.97
416.984	82.43
417.192	203.26
417.4	-1.54
417.608	39.42
417.817	14.85
418.025	74.24
418.233	150.01
418.441	-75.26
418.649	-19.97
418.857	107.01
419.065	195.07
419.273	-50.69
419.481	74.24
419.689	37.38
419.897	119.29
420.105	-38.4
420.313	86.53
420.521	117.25
420.729	111.1
420.937	20.99
421.145	-9.73
421.353	137.73
421.561	201.21
421.769	88.57
421.977	16.9
422.185	147.97
422.393	-7.68
422.601	111.1
422.809	135.68
423.017	82.43
423.224	72.19
423.432	135.68
423.64	59.9
423.848	141.82
424.056	51.71
424.263	107.01
424.471	29.18
424.679	197.12
424.887	4.61
425.094	45.57
425.302	84.48
425.51	12.8
425.718	88.57
425.925	137.73
426.133	10.75
426.341	162.3
426.548	16.9
426.756	102.91
426.964	117.25
427.171	27.14
427.379	92.67
427.586	61.95
427.794	92.67
428.001	107.01
428.209	59.9
428.417	205.31
428.624	141.82
428.832	186.88
429.039	74.24
429.247	59.9
429.454	115.2
429.662	227.84
429.869	76.29
430.076	45.57
430.284	211.45
430.491	176.64
430.699	129.53
430.906	266.75
431.114	131.58
431.321	98.81
431.528	84.48
431.736	168.45
431.943	207.36
432.15	107.01
432.358	168.45
432.565	258.56
432.772	8.7
432.979	174.59
433.187	160.25
433.394	252.41
433.601	129.53
433.808	221.69
434.016	274.94
434.223	137.73
434.43	217.6
434.637	252.41
434.844	279.04
435.052	160.25
435.259	248.32
435.466	356.86
435.673	229.88
435.88	332.28
436.087	283.13
436.294	315.9
436.501	260.6
436.708	330.23
436.915	291.32
437.122	352.76
437.329	254.46
437.537	371.19
437.743	315.9
437.95	412.15
438.157	311.8
438.364	373.24
438.571	340.47
438.778	401.91
438.985	395.77
439.192	502.26
439.399	389.63
439.606	416.25
439.813	498.17
440.02	590.33
440.227	670.2
440.433	549.37
440.64	561.66
440.847	514.55
441.054	524.79
441.261	635.38
441.467	664.05
441.674	588.28
441.881	668.15
442.088	561.66
442.294	694.77
442.501	860.66
442.708	659.96
442.914	709.11
443.121	815.6
443.328	852.47
443.534	965.11
443.741	879.09
443.948	868.85
444.154	909.81
444.361	1114.61
444.568	1036.78
444.774	1098.22
444.981	985.58
445.187	1092.08
445.394	1143.28
445.6	1094.13
445.807	1333.74
446.013	1200.62
446.22	1208.81
446.426	1341.93
446.633	1341.93
446.839	1577.45
447.046	1442.28
447.252	1724.9
447.459	1567.21
447.665	1516.01
447.871	1726.95
448.078	1884.64
448.284	1911.27
448.491	1946.08
448.697	1972.71
448.903	2085.34
449.11	2083.3
449.316	2034.14
449.522	2402.78
449.728	2404.83
449.935	2445.79
450.141	2435.55
450.347	2679.26
450.553	2675.16
450.76	2724.31
450.966	2888.15
451.172	2914.77
451.378	3033.55
451.584	3029.46
451.791	3353.04
451.997	3555.79
452.203	3559.88
452.409	3760.58
452.615	3766.73
452.821	3672.52
453.027	3717.58
453.233	4368.83
453.44	4030.91
453.646	4334.01
453.852	4262.33
454.058	4606.39
454.264	4686.26
454.47	5263.79
454.676	5267.89
454.882	5562.8
455.088	5382.57
455.294	5595.56
455.5	6224.29
455.705	6295.97
455.911	6316.45
456.117	6523.29
456.323	6683.03
456.529	6648.22
456.735	7328.14
456.941	7553.42
457.147	7960.97
457.352	8092.04
457.558	8407.42
457.764	8960.38
457.97	8878.46
458.176	9339.25
458.381	9804.14
458.587	9959.78
458.793	10430.82
458.999	10641.76
459.204	11907.4
459.41	12079.43
459.616	12063.05
459.821	12790.08
460.027	13148.47
460.233	13936.94
460.438	13787.44
460.644	14704.93
460.85	14723.36
461.055	15331.61
461.261	16247.05
461.466	15829.26
461.672	16056.59
461.878	18219.24
462.083	17946.86
462.289	18137.32
462.494	18827.49
462.7	19323.1
462.905	19411.16
463.111	20793.54
463.316	22188.21
463.522	22464.68
463.727	23054.5
463.932	24035.47
464.138	24883.33
464.343	25755.77
464.549	25942.13
464.754	27627.61
464.959	28432.46
465.165	28788.81
465.37	28588.11
465.575	28733.51
465.781	30930.98
465.986	31930.39
466.191	31295.52
466.397	31389.73
466.602	31060.01
466.807	32430.1
467.012	33474.56
467.218	33492.99
467.423	33851.39
467.628	34803.69
467.833	36716.5
468.038	36155.35
468.244	34895.85
468.449	37185.48
468.654	36325.33
468.859	36700.11
469.064	36366.29
469.269	35264.49
469.474	36003.8
469.679	37142.47
469.885	35508.19
470.09	36497.36
470.295	36849.61
470.5	35467.23
470.705	36038.62
470.91	35059.69
471.115	34940.91
471.32	35299.3
471.525	35264.49
471.73	33998.84
471.935	34013.18
472.139	32733.2
472.344	32786.44
472.549	32612.37
472.754	31961.11
472.959	31289.38
473.164	30005.3
473.369	29755.45
473.574	30605.36
473.778	29947.96
473.983	29677.63
474.188	28651.59
474.393	27684.95
474.598	27547.74
474.802	27019.36
475.007	26775.66
475.212	26253.42
475.417	25309.31
475.621	25249.92
475.826	24813.7
476.031	24064.14
476.235	23773.33
476.44	23720.09
476.645	23193.76
476.849	22870.18
477.054	22866.08
477.259	21878.96
477.463	21956.78
477.668	21047.49
477.872	21141.69
478.077	20791.49
478.282	20177.1
478.486	19996.88
478.691	19744.98
478.895	19495.13
479.1	19454.17
479.304	19452.12
479.509	18741.47
479.713	18901.22
479.918	18514.15
480.122	18055.4
480.326	18202.86
480.531	18102.51
480.735	18053.36
480.94	17553.65
481.144	18329.83
481.348	17096.96
481.553	17385.72
481.757	16879.87
481.961	16990.46
482.166	17121.53
482.37	17004.8
482.574	16464.13
482.778	16548.1
482.983	16828.67
483.187	16167.18
483.391	16345.35
483.595	15952.14
483.8	15636.75
484.004	15997.2
484.208	15771.92
484.412	15499.54
484.616	15319.32
484.821	15276.31
485.025	14700.83
485.229	14829.85
485.433	14719.26
485.637	14336.29
485.841	14307.62
486.045	13789.49
486.249	14053.67
486.453	13769.01
486.657	13617.46
486.861	13285.69
487.065	12765.5
487.269	12712.25
487.473	12562.75
487.677	12652.86
487.881	12527.94
488.085	11909.45
488.289	11809.1
488.493	11618.64
488.697	11710.8
488.901	11534.67
489.105	10981.72
489.309	10776.92
489.512	10727.77
489.716	10930.52
489.92	10367.33
490.124	10127.72
490.328	10248.55
490.531	9744.75
490.735	9953.64
490.939	9699.69
491.143	9171.32
491.346	9265.52
491.55	9054.58
491.754	8931.7
491.958	8690.04
492.161	8716.67
492.365	8532.35
492.569	8477.05
492.772	8352.13
492.976	8176
493.18	7809.42
493.383	8057.22
493.587	7702.92
493.79	7735.69
493.994	7612.81
494.197	7479.69
494.401	7393.68
494.605	7219.6
494.808	7252.37
495.012	7227.79
495.215	7283.09
495.419	7328.14
495.622	6924.69
495.825	7186.83
496.029	6994.33
496.232	7002.52
496.436	6986.13
496.639	7117.2
496.843	6807.96
497.046	6807.96
497.249	7051.67
497.453	6920.6
497.656	6797.72
497.859	6781.34
498.063	6955.41
498.266	7072.15
498.469	6746.52
498.673	6875.54
498.876	6977.94
499.079	6951.32
499.282	6916.5
499.485	7389.58
499.689	7051.67
499.892	7100.82
500.095	7192.98
500.298	7145.87
500.501	7068.05
500.705	7408.01
500.908	7229.84
501.111	7143.83
501.314	7610.76
501.517	7741.83
501.72	7627.15
501.923	7600.52
502.126	7747.98
502.329	7829.9
502.532	7807.37
502.735	7877
502.938	8173.96
503.141	8337.79
503.344	8216.96
503.547	8315.27
503.75	8331.65
503.953	8636.8
504.156	8683.9
504.359	8849.78
504.562	8585.6
504.765	8919.42
504.968	9191.8
505.17	9240.95
505.373	9431.41
505.576	9630.06
505.779	9691.5
505.982	9824.62
506.185	10158.44
506.387	10090.85
506.59	10103.14
506.793	10543.46
506.996	10414.43
507.198	11084.12
507.401	11098.45
507.604	11481.42
507.807	11417.94
508.009	11753.8
508.212	11891.02
508.415	12011.85
508.617	12241.22
508.82	12552.51
509.022	12824.89
509.225	13254.97
509.428	13474.1
509.63	13416.76
509.833	13762.86
510.035	14649.63
510.238	14313.77
510.44	14876.96
510.643	15178.01
510.845	15581.46
511.048	15796.49
511.25	16029.96
511.453	16609.54
511.655	17256.7
511.858	17447.16
512.06	17817.84
512.262	18446.57
512.465	18428.13
512.667	19024.09
512.87	19335.38
513.072	19724.5
513.274	20203.72
513.477	20871.36
513.679	21037.25
513.881	21655.73
514.084	22436.01
514.286	22821.03
514.488	22872.23
514.69	24180.88
514.893	24338.57
515.095	24840.32
515.297	25368.7
515.499	25860.21
515.701	26624.11
515.904	27304.03
516.106	27897.94
516.308	28487.76
516.51	28670.03
516.712	29206.59
516.914	29718.59
517.116	30738.47
517.318	31371.3
517.52	31916.06
517.722	32329.75
517.925	32913.42
518.127	33566.72
518.329	34312.18
518.531	34637.81
518.733	35774.43
518.935	36317.14
519.136	36601.81
519.338	37496.77
519.54	37953.47
519.742	38578.1
519.944	39008.17
520.146	40077.21
520.348	40292.25
520.55	40798.1
520.752	41275.27
520.954	42035.07
521.155	42477.43
521.357	43399.02
521.559	43577.19
521.761	44181.34
521.963	44824.4
522.164	45332.3
522.366	45234
522.568	46126.91
522.77	46300.99
522.971	47232.82
523.173	46835.51
523.375	47736.62
523.576	47820.58
523.778	47509.29
523.98	48424.73
524.181	48318.24
524.383	48498.46
524.584	49387.28
524.786	49280.78
524.988	48764.7
525.189	49334.03
525.391	49798.92
525.592	49923.85
525.794	50276.1
525.995	49573.64
526.197	49608.46
526.398	50036.48
526.6	49991.43
526.801	49843.98
527.003	49454.86
527.204	49073.94
527.406	49899.27
527.607	49522.44
527.808	49606.41
528.01	48172.83
528.211	48617.24
528.412	49227.54
528.614	48330.53
528.815	47922.98
529.016	47988.52
529.218	47212.34
529.419	47126.32
529.62	46708.54
529.822	46960.44
530.023	46120.77
530.224	45496.14
530.425	44959.57
530.626	44488.54
530.828	44140.38
531.029	44449.63
531.23	43685.73
531.431	43124.59
531.632	42917.75
531.833	42291.07
532.035	41734.02
532.236	41322.38
532.437	40974.22
532.638	40253.34
532.839	40130.46
533.04	39821.22
533.241	38905.77
533.442	39483.3
533.643	38404.02
533.844	37312.45
534.045	37169.1
534.246	36495.32
534.447	36333.53
534.648	35612.64
534.849	35483.62
535.05	34303.99
535.251	34390
535.451	33769.47
535.652	33658.88
535.853	32655.37
536.054	32362.51
536.255	32432.15
536.456	31397.92
536.657	31795.23
536.857	30928.94
537.058	30814.25
537.259	30236.72
537.46	29986.87
537.66	29155.4
537.861	28944.45
538.062	28555.34
538.263	28045.4
538.463	27660.38
538.664	27572.32
538.865	27308.13
539.065	27101.28
539.266	26527.85
539.466	26443.88
539.667	25772.15
539.868	25825.4
540.068	25395.32
540.269	25301.12
540.469	25208.96
540.67	24567.95
540.87	24293.52
541.071	23722.13
541.271	23894.16
541.472	23269.53
541.672	23120.03
541.873	22583.46
542.073	22364.33
542.274	22235.31
542.474	21967.02
542.675	21586.1
542.875	21797.04
543.075	21166.27
543.276	21209.28
543.476	20992.19
543.676	20484.3
543.877	20156.62
544.077	20441.29
544.277	20164.81
544.478	19652.82
544.678	19548.37
544.878	19394.78
545.078	19214.55
545.279	18944.22
545.479	18456.81
545.679	18376.94
545.879	18151.66
546.079	18385.13
546.28	18053.36
546.48	17656.05
546.68	17606.9
546.88	17250.55
547.08	17103.1
547.28	16912.64
547.48	16435.46
547.68	16638.21
547.88	16181.51
548.081	16029.96
548.281	15681.81
548.481	15460.63
548.681	15388.95
548.881	15288.6
549.081	15264.02
549.28	14842.14
549.48	14836
549.68	14508.32
549.88	14395.68
550.08	13838.64
550.28	13826.35
550.48	13828.4
550.68	13728.05
550.88	13248.82
551.08	13250.87
551.279	13166.9
551.479	12847.42
551.679	12607.81
551.879	12501.31
552.079	12353.86
552.278	11987.27
552.478	11899.21
552.678	11872.59
552.878	11661.65
553.077	11276.63
553.277	10809.69
553.477	11207
553.676	11077.97
553.876	10588.51
554.076	10516.83
554.275	10428.77
554.475	10129.77
554.674	10279.27
554.874	9920.87
555.074	9613.68
555.273	9595.25
555.473	9509.23
555.672	9326.96
555.872	8993.14
556.071	8929.66
556.271	8806.78
556.47	8702.33
556.67	8370.56
556.869	8515.97
557.068	8384.9
557.268	8147.33
557.467	8036.74
557.667	8032.65
557.866	7686.54
558.065	7567.76
558.265	7489.93
558.464	7162.26
558.663	7496.08
558.863	7129.49
559.062	7113.11
559.261	6805.91
559.461	6805.91
559.66	6539.68
559.859	6576.54
560.058	6330.78
560.258	6275.49
560.457	6220.19
560.656	6082.98
560.855	6068.64
561.054	6130.08
561.253	5898.66
561.453	5880.23
561.652	5761.45
561.851	5790.12
562.05	5491.12
562.249	5355.95
562.448	5331.37
562.647	5188.02
562.846	5091.76
563.045	5173.68
563.244	4929.97
563.443	5009.84
563.642	4721.08
563.841	4913.59
564.04	4684.22
564.239	4815.29
564.438	4532.67
564.637	4432.32
564.836	4481.47
565.035	4420.03
565.234	4344.25
565.432	4264.38
565.631	4188.61
565.83	4141.5
566.029	4133.31
566.228	4010.43
566.427	3819.97
566.625	3846.6
566.824	3985.86
567.023	3764.68
567.222	3639.75
567.42	3555.79
567.619	3678.66
567.818	3588.55
568.016	3619.27
568.215	3563.98
568.414	3469.77
568.612	3398.09
568.811	3328.46
569.01	3295.69
569.208	3166.67
569.407	3140.05
569.605	3127.76
569.804	2949.59
570.002	3125.71
570.201	2757.08
570.4	3099.09
570.598	2845.14
570.797	2851.28
570.995	2744.79
571.193	2767.32
571.392	2701.78
571.59	2703.83
571.789	2628.06
571.987	2607.58
572.186	2619.86
572.384	2591.19
572.582	2380.25
572.781	2367.96
572.979	2410.97
573.177	2400.73
573.376	2308.57
573.574	2421.21
573.772	2281.95
573.971	2159.07
574.169	2103.78
574.367	2130.4
574.565	2130.4
574.763	2066.91
574.962	2101.73
575.16	1915.36
575.358	1956.32
575.556	1935.84
575.754	1937.89
575.952	1890.79
576.151	1939.94
576.349	1931.75
576.547	1710.57
576.745	1769.96
576.943	1776.1
577.141	1696.23
577.339	1573.35
577.537	1698.28
577.735	1782.24
577.933	1556.97
578.131	1493.48
578.329	1610.22
578.527	1550.82
578.725	1497.58
578.923	1473
579.121	1507.82
579.319	1348.08
579.516	1386.99
579.714	1550.82
579.912	1358.32
580.11	1350.12
580.308	1227.25
580.506	1294.83
580.704	1284.59
580.901	1206.77
581.099	1278.44
581.297	1167.85
581.495	1282.54
581.692	1278.44
581.89	1350.12
582.088	1194.48
582.285	1130.99
582.483	1036.78
582.681	1073.65
582.878	1040.88
583.076	1096.18
583.274	952.82
583.471	1061.36
583.669	1004.02
583.866	1038.83
584.064	956.91
584.262	936.43
584.459	897.52
584.657	944.63
584.854	926.19
585.052	905.71
585.249	911.86
585.447	965.11
585.644	823.8
585.841	985.58
586.039	979.44
586.236	891.38
586.434	788.98
586.631	868.85
586.828	838.13
587.026	807.41
587.223	713.21
587.42	721.4
587.618	803.32
587.815	852.47
588.012	731.64
588.21	686.58
588.407	760.31
588.604	754.16
588.801	655.86
588.999	745.97
589.196	766.45
589.393	696.82
589.59	705.01
589.787	711.16
589.984	741.88
590.182	645.62
590.379	588.28
590.576	676.34
590.773	645.62
590.97	582.14
591.167	692.73
591.364	737.78
591.561	553.46
591.758	780.79
591.955	674.29
592.152	567.8
592.349	666.1
592.546	616.95
592.743	612.85
592.94	627.19
593.137	625.14
593.334	733.68
593.531	705.01
593.727	645.62
593.924	639.48
594.121	621.05
594.318	627.19
594.515	758.26
594.712	696.82
594.908	752.12
595.105	563.7
595.302	766.45
595.499	670.2
595.696	840.18
595.892	694.77
596.089	819.7
596.286	696.82
596.482	748.02
596.679	887.28
596.876	737.78
597.072	911.86
597.269	864.75
597.466	864.75
597.662	834.04
597.859	801.27
598.055	862.71
598.252	967.15
598.448	1077.74
598.645	1067.5
598.841	1169.9
599.038	1223.15
599.234	1262.06
599.431	1233.39
599.627	1264.11
599.824	1311.21
600.02	1223.15
600.217	1325.55
600.413	1401.32
600.609	1374.7
600.806	1788.39
601.002	1569.26
601.198	1479.15
601.395	1661.41
601.591	1698.28
601.787	1712.61
601.984	1864.16
602.18	2005.47
602.376	2023.91
602.572	2107.87
602.769	2148.83
602.965	2224.61
603.161	2370.01
603.357	2365.92
603.553	2531.8
603.75	2523.61
603.946	2648.54
604.142	2695.64
604.338	2869.72
604.534	2761.17
604.73	2980.31
604.926	3129.81
605.122	3348.94
605.318	3254.73
605.514	3568.07
605.71	3379.66
605.906	3629.51
606.102	3797.45
606.298	3828.17
606.494	3949
606.69	4125.12
606.886	4258.24
607.082	4377.02
607.278	4356.54
607.474	4643.26
607.67	4669.88
607.866	4504
608.062	5091.76
608.257	5110.19
608.453	5013.94
608.649	5407.15
608.845	5257.65
609.041	5695.91
609.236	5953.96
609.432	5904.81
609.628	6099.36
609.824	6205.86
610.019	6427.04
610.215	6545.82
610.411	6832.54
610.606	7025.04
610.802	7143.83
610.998	7201.17
611.193	7467.41
611.389	7514.51
611.584	7969.16
611.78	7979.4
611.976	8438.14
612.171	8604.03
612.367	8741.24
612.562	8794.49
612.758	9124.21
612.953	9193.84
613.149	9613.68
613.344	9621.87
613.539	10092.9
613.735	10352.99
613.93	10688.86
614.126	10879.32
614.321	11311.44
614.517	11499.86
614.712	11870.54
614.907	11958.6
615.103	12390.72
615.298	12683.58
615.493	13117.75
615.688	13168.95
615.884	13898.03
616.079	13912.36
616.274	14317.86
616.47	14545.19
616.665	15178.01
616.86	15356.18
617.055	15798.54
617.25	16195.85
617.445	16789.76
617.641	16546.05
617.836	17242.36
618.031	17199.35
618.226	18229.48
618.421	18596.07
618.616	19183.84
618.811	19310.81
619.006	19910.86
619.201	20261.07
619.396	20971.71
619.591	21168.32
619.786	21840.05
619.981	22032.56
620.176	22855.84
620.371	22958.24
620.566	23728.28
620.761	24047.76
620.956	24561.8
621.151	24604.81
621.346	25550.97
621.541	25731.19
621.735	26374.25
621.93	26882.15
622.125	27420.77
622.32	27650.14
622.515	28346.45
622.709	28889.16
622.904	29595.71
623.099	29624.38
623.294	30312.5
623.488	30771.24
623.683	31762.46
623.878	31361.06
624.072	32249.88
624.267	32917.51
624.462	33212.42
624.656	33630.21
624.851	34529.27
625.046	34537.46
625.24	35309.54
625.435	35500
625.629	36480.98
625.824	36898.76
626.018	37210.06
626.213	37044.17
626.407	38303.67
626.602	37920.7
626.796	38918.06
626.991	39042.99
627.185	39915.42
627.38	39684
627.574	39770.02
627.768	40046.49
627.963	40333.21
628.157	40339.35
628.352	40920.98
628.546	40353.69
628.74	41025.42
628.935	40998.8
629.129	40820.63
629.323	40750.99
629.517	40595.35
629.712	40568.72
629.906	40112.03
630.1	39524.26
630.294	39925.66
630.489	38944.69
630.683	38729.65
630.877	37781.44
631.071	37433.28
631.265	36894.67
631.459	36114.39
631.653	35487.71
631.848	34811.88
632.042	33884.15
632.236	33306.63
632.43	32061.46
632.624	31582.24
632.818	30756.91
633.012	29712.44
633.206	29016.13
633.4	28100.69
633.594	26951.78
633.788	26212.46
633.982	25290.88
634.176	24619.14
634.369	23214.24
634.563	23034.02
634.757	21606.58
634.951	21268.67
635.145	20295.88
635.339	19577.05
635.533	18686.18
635.726	18067.69
635.92	16980.22
636.114	16650.5
636.308	15851.79
636.501	15415.57
636.695	14780.7
636.889	13906.22
637.083	13429.04
637.276	12736.83
637.47	12351.81
637.664	11921.74
637.857	11475.28
638.051	11057.5
638.244	10629.47
638.438	10031.46
638.632	9847.15
638.825	9175.41
639.019	9134.45
639.212	8362.37
639.406	8411.52
639.599	7928.2
639.793	7661.96
639.986	7309.71
640.18	7229.84
640.373	6662.55
640.567	6480.29
640.76	6168.99
640.954	5992.87
641.147	5816.74
641.34	5464.49
641.534	5360.05
641.727	5200.3
641.92	4886.97
642.114	4823.48
642.307	4596.15
642.5	4424.12
642.694	4104.64
642.887	4041.15
643.08	4108.74
643.273	3856.84
643.467	3725.77
643.66	3437
643.853	3209.68
644.046	3205.58
644.239	3051.99
644.432	3002.83
644.626	2843.09
644.819	2703.83
645.012	2556.38
645.205	2601.43
645.398	2576.86
645.591	2269.66
645.784	2267.61
645.977	2003.43
646.17	2087.39
646.363	2050.53
646.556	1876.45
646.749	1851.88
646.942	1860.07
647.135	1843.68
647.328	1698.28
647.521	1585.64
647.714	1462.76
647.907	1485.29
648.099	1346.03
648.292	1503.72
648.485	1384.94
648.678	1233.39
648.871	1233.39
649.064	1235.44
649.256	1153.52
649.449	995.82
649.642	975.35
649.835	963.06
650.027	1016.3
650.22	1020.4
650.413	909.81
650.605	872.95
650.798	801.27
650.991	879.09
651.183	825.84
651.376	834.04
651.568	860.66
651.761	666.1
651.954	778.74
652.146	662.01
652.339	651.77
652.531	651.77
652.724	616.95
652.916	610.81
653.109	481.78
653.301	588.28
653.494	553.46
653.686	621.05
653.879	655.86
654.071	625.14
654.263	438.78
654.456	457.21
654.648	653.81
654.84	492.02
655.033	397.82
655.225	494.07
655.417	412.15
655.61	504.31
655.802	432.63
655.994	463.35
656.186	354.81
656.379	432.63
656.571	373.24
656.763	283.13
656.955	299.52
657.148	348.67
657.34	399.87
657.532	401.91
657.724	336.38
657.916	276.99
658.108	358.91
658.3	322.04
658.492	344.57
658.684	127.49
658.876	391.67
659.068	193.02
659.26	268.8
659.452	184.83
659.644	145.92
659.836	379.39
660.028	287.23
660.22	209.4
660.412	262.65
660.604	240.12
660.796	274.94
660.988	291.32
661.18	315.9
661.372	244.22
661.563	221.69
661.755	281.08
661.947	182.78
662.139	172.54
662.331	246.27
662.522	203.26
662.714	129.53
662.906	147.97
663.097	195.07
663.289	109.05
663.481	168.45
663.673	188.93
663.864	133.63
664.056	215.55
664.247	113.15
664.439	215.55
664.631	184.83
664.822	221.69
665.014	176.64
665.205	94.72
665.397	64
665.588	201.21
665.78	121.34
665.971	197.12
666.163	145.92
666.354	141.82
666.546	98.81
666.737	190.97
666.929	145.92
667.12	195.07
667.311	121.34
667.503	211.45
667.694	293.37
667.885	160.25
668.077	168.45
668.268	-60.93
668.459	131.58
668.651	141.82
668.842	227.84
669.033	139.77
669.224	33.28
669.416	356.86
669.607	147.97
669.798	82.43
669.989	297.47
670.18	102.91
670.371	170.49
670.563	55.81
670.754	219.64
670.945	231.93
671.136	231.93
671.327	20.99
671.518	88.57
671.709	299.52
671.9	172.54
672.091	242.17
672.282	268.8
672.473	139.77
672.664	14.85
672.855	172.54
673.046	193.02
673.237	166.4
673.428	141.82
673.619	274.94
673.809	123.39
674	240.12
674.191	186.88
674.382	186.88
674.573	207.36
674.764	113.15
674.954	176.64
675.145	119.29
675.336	121.34
675.527	119.29
675.717	227.84
675.908	113.15
676.099	135.68
676.289	213.5
676.48	51.71
676.671	104.96
676.861	98.81
677.052	242.17
677.243	213.5
677.433	70.14
677.624	219.64
677.814	244.22
678.005	170.49
678.195	281.08
678.386	182.78
678.576	90.62
678.767	82.43
678.957	262.65
679.148	334.33
679.338	178.69
679.529	215.55
679.719	186.88
679.909	268.8
680.1	354.81
680.29	246.27
680.481	100.86
680.671	254.46
680.861	295.42
681.052	209.4
681.242	121.34
681.432	266.75
681.622	252.41
681.813	137.73
682.003	217.6
682.193	178.69
682.383	213.5
682.573	225.79
682.764	225.79
682.954	221.69
683.144	352.76
683.334	197.12
683.524	307.71
683.714	336.38
683.904	309.76
684.094	221.69
684.284	295.42
684.474	391.67
684.664	256.51
684.854	270.84
685.044	256.51
685.234	193.02
685.424	219.64
685.614	225.79
685.804	324.09
685.994	252.41
686.184	246.27
686.374	264.7
686.564	272.89
686.753	211.45
686.943	121.34
687.133	236.03
687.323	207.36
687.513	281.08
687.702	188.93
687.892	180.73
688.082	307.71
688.272	348.67
688.461	264.7
688.651	387.58
688.841	344.57
689.03	295.42
689.22	281.08
689.41	299.52
689.599	317.95
689.789	197.12
689.979	297.47
690.168	164.35
690.358	344.57
690.547	287.23
690.737	238.08
690.926	322.04
691.116	299.52
691.305	381.43
691.495	301.56
691.684	276.99
691.874	219.64
692.063	188.93
692.252	332.28
692.442	295.42
692.631	213.5
692.82	268.8
693.01	250.36
693.199	297.47
693.388	293.37
693.578	283.13
693.767	272.89
693.956	326.14
694.146	283.13
694.335	322.04
694.524	229.88
694.713	285.18
694.902	195.07
695.092	213.5
695.281	293.37
695.47	252.41
695.659	160.25
695.848	195.07
696.037	145.92
696.226	317.95
696.415	244.22
696.604	217.6
696.793	225.79
696.982	215.55
697.171	326.14
697.36	246.27
697.549	209.4
697.738	107.01
697.927	199.16
698.116	162.3
698.305	203.26
698.494	213.5
698.683	186.88
698.872	403.96
699.061	276.99
699.25	203.26
699.438	289.28
699.627	211.45
699.816	383.48
700.005	186.88
700.193	244.22
700.382	322.04
700.571	270.84
700.76	289.28
700.948	217.6
701.137	324.09
701.326	324.09
701.514	176.64
701.703	274.94
701.892	164.35
702.08	307.71
702.269	258.56
702.457	272.89
702.646	262.65
702.834	233.98
703.023	295.42
703.212	217.6
703.4	258.56
703.589	256.51
703.777	178.69
703.965	195.07
704.154	244.22
704.342	199.16
704.531	223.74
704.719	162.3
704.907	383.48
705.096	180.73
705.284	152.06
705.472	203.26
705.661	197.12
705.849	274.94
706.037	274.94
706.226	291.32
706.414	209.4
706.602	207.36
706.79	350.71
706.979	164.35
707.167	285.18
707.355	102.91
707.543	242.17
707.731	229.88
707.919	227.84
708.107	231.93
708.296	160.25
708.484	166.4
708.672	365.05
708.86	297.47
709.048	260.6
709.236	117.25
709.424	301.56
709.612	225.79
709.8	170.49
709.988	213.5
710.176	274.94
710.364	315.9
710.551	242.17
710.739	213.5
710.927	160.25
711.115	231.93
711.303	291.32
711.491	365.05
711.679	223.74
711.866	270.84
712.054	205.31
712.242	264.7
712.43	320
712.617	276.99
712.805	268.8
712.993	160.25
713.181	133.63
713.368	322.04
713.556	299.52
713.744	156.16
713.931	369.15
714.119	270.84
714.306	119.29
714.494	217.6
714.682	197.12
714.869	141.82
715.057	236.03
715.244	145.92
715.432	209.4
715.619	225.79
715.807	223.74
715.994	215.55
716.182	256.51
716.369	291.32
716.556	266.75
716.744	207.36
716.931	143.87
717.119	250.36
717.306	250.36
717.493	281.08
717.681	178.69
717.868	227.84
718.055	205.31
718.242	264.7
718.43	252.41
718.617	360.95
718.804	225.79
718.991	303.61
719.179	322.04
719.366	264.7
719.553	324.09
719.74	260.6
719.927	217.6
720.114	272.89
720.301	182.78
720.488	233.98
720.676	207.36
720.863	328.19
721.05	352.76
721.237	326.14
721.424	326.14
721.611	260.6
721.798	227.84
721.985	201.21
722.172	262.65
722.358	289.28
722.545	377.34
722.732	287.23
722.919	326.14
723.106	303.61
723.293	250.36
723.48	307.71
723.667	285.18
723.853	301.56
724.04	264.7
724.227	276.99
724.414	260.6
724.6	309.76
724.787	356.86
724.974	410.11
725.161	289.28
725.347	217.6
725.534	301.56
725.72	283.13
725.907	348.67
726.094	256.51
726.28	242.17
726.467	336.38
726.653	156.16
726.84	305.66
727.027	373.24
727.213	326.14
727.4	315.9
727.586	330.23
727.773	262.65
727.959	268.8
728.145	270.84
728.332	266.75
728.518	258.56
728.705	326.14
728.891	317.95
729.077	320
729.264	258.56
729.45	250.36
729.636	399.87
729.823	303.61
730.009	322.04
730.195	283.13
730.382	420.35
730.568	252.41
730.754	268.8
730.94	342.52
731.126	424.44
731.313	301.56
731.499	276.99
731.685	285.18
731.871	379.39
732.057	305.66
732.243	363
732.429	383.48
732.615	414.2
732.801	371.19
732.987	303.61
733.173	301.56
733.359	264.7
733.545	410.11
733.731	338.43
733.917	344.57
734.103	344.57
734.289	373.24
734.475	229.88
734.661	522.74
734.847	332.28
735.033	332.28
735.219	383.48
735.404	260.6
735.59	289.28
735.776	229.88
735.962	383.48
736.148	365.05
736.333	375.29
736.519	344.57
736.705	313.85
736.89	354.81
737.076	238.08
737.262	309.76
737.447	244.22
737.633	291.32
737.819	358.91
738.004	348.67
738.19	356.86
738.375	299.52
738.561	344.57
738.747	311.8
738.932	293.37
739.118	539.13
739.303	338.43
739.489	360.95
739.674	270.84
739.859	344.57
740.045	416.25
740.23	322.04
740.416	158.21
740.601	305.66
740.786	301.56
740.972	295.42
741.157	332.28
741.342	225.79
741.528	223.74
741.713	397.82
741.898	326.14
742.084	315.9
742.269	291.32
742.454	334.33
742.639	375.29
742.824	295.42
743.01	436.73
743.195	397.82
743.38	350.71
743.565	287.23
743.75	299.52
743.935	301.56
744.12	391.67
744.305	315.9
744.49	293.37
744.675	324.09
744.86	301.56
745.045	270.84
745.23	346.62
745.415	315.9
745.6	383.48
745.785	258.56
745.97	430.59
746.155	348.67
746.34	371.19
746.525	301.56
746.71	426.49
746.895	195.07
747.079	178.69
747.264	281.08
747.449	363
747.634	311.8
747.819	340.47
748.003	322.04
748.188	188.93
748.373	334.33
748.557	317.95
748.742	313.85
748.927	225.79
749.111	285.18
749.296	285.18
749.481	256.51
749.665	207.36
749.85	199.16
750.034	268.8
750.219	252.41
750.404	264.7
750.588	281.08
750.773	174.59
750.957	324.09
751.141	207.36
751.326	299.52
751.51	156.16
751.695	203.26
751.879	225.79
752.064	377.34
752.248	150.01
752.432	324.09
752.617	272.89
752.801	315.9
752.985	215.55
753.17	379.39
753.354	307.71
753.538	262.65
753.722	285.18
753.907	176.64
754.091	156.16
754.275	260.6
754.459	176.64
754.643	158.21
754.828	221.69
755.012	244.22
755.196	135.68
755.38	225.79
755.564	160.25
755.748	197.12
755.932	293.37
756.116	182.78
756.3	168.45
756.484	184.83
756.668	268.8
756.852	78.33
757.036	154.11
757.22	215.55
757.404	12.8
757.588	168.45
757.772	201.21
757.956	156.16
758.14	311.8
758.323	150.01
758.507	242.17
758.691	162.3
758.875	188.93
759.059	256.51
759.242	123.39
759.426	233.98
759.61	160.25
759.794	68.09
759.977	231.93
760.161	373.24
760.345	315.9
760.528	360.95
760.712	195.07
760.895	262.65
761.079	147.97
761.263	172.54
761.446	160.25
761.63	119.29
761.813	276.99
761.997	86.53
762.18	150.01
762.364	203.26
762.547	59.9
762.731	170.49
762.914	164.35
763.098	104.96
763.281	201.21
763.464	152.06
763.648	201.21
763.831	96.77
764.015	217.6
764.198	178.69
764.381	154.11
764.564	199.16
764.748	195.07
764.931	131.58
765.114	115.2
765.297	141.82
765.481	123.39
765.664	211.45
765.847	113.15
766.03	215.55
766.213	29.18
766.397	168.45
766.58	23.04
766.763	135.68
766.946	133.63
767.129	143.87
767.312	180.73
767.495	182.78
767.678	41.47
767.861	104.96
768.044	119.29
768.227	94.72
768.41	107.01
768.593	88.57
768.776	70.14
768.959	20.99
769.142	113.15
769.324	59.9
769.507	115.2
769.69	35.33
769.873	29.18
770.056	320
770.239	137.73
770.421	233.98
770.604	205.31
770.787	125.44
770.97	156.16
771.152	8.7
771.335	160.25
771.518	-3.58
771.7	160.25
771.883	262.65
772.066	18.94
772.248	182.78
772.431	107.01
772.613	201.21
772.796	127.49
772.978	127.49
773.161	209.4
773.343	98.81
773.526	43.52
773.708	10.75
773.891	-17.92
774.073	131.58
774.256	80.38
774.438	160.25
774.621	-36.35
774.803	215.55
774.985	59.9
775.168	170.49
775.35	20.99
775.532	123.39
775.715	107.01
775.897	131.58
776.079	96.77
776.261	137.73
776.444	113.15
776.626	-3.58
776.808	55.81
776.99	-69.12
777.173	23.04
777.355	119.29
777.537	127.49
777.719	113.15
777.901	45.57
778.083	20.99
778.265	76.29
778.447	158.21
778.629	33.28
778.811	125.44
778.993	98.81
779.175	57.86
779.357	59.9
779.539	-17.92
779.721	150.01
779.903	168.45
780.085	102.91
780.267	115.2
780.449	39.42
780.631	57.86
780.812	113.15
780.994	70.14
781.176	72.19
781.358	107.01
781.54	-48.64
781.721	84.48
781.903	90.62
782.085	107.01
782.267	141.82
782.448	-50.69
782.63	-5.63
782.812	90.62
782.993	61.95
783.175	4.61
783.357	-7.68
783.538	84.48
783.72	20.99
783.901	64
784.083	127.49
784.264	109.05
784.446	29.18
784.627	25.09
784.809	86.53
784.99	20.99
785.172	94.72
785.353	35.33
785.535	25.09
785.716	-28.16
785.897	74.24
786.079	6.66
786.26	61.95
786.441	107.01
786.623	-62.98
786.804	25.09
786.985	76.29
787.167	94.72
787.348	49.66
787.529	94.72
787.71	154.11
787.891	92.67
788.073	14.85
788.254	-52.74
788.435	178.69
788.616	53.76
788.797	-56.83
788.978	16.9
789.159	12.8
789.34	41.47
789.522	80.38
789.703	51.71
789.884	14.85
790.065	43.52
790.246	162.3
790.427	49.66
790.607	133.63
790.788	137.73
790.969	31.23
791.15	57.86
791.331	-69.12
791.512	74.24
791.693	16.9
791.874	31.23
792.054	266.75
792.235	66.05
792.416	-62.98
792.597	-19.97
792.778	10.75
792.958	66.05
793.139	25.09
793.32	39.42
793.5	-130.56
793.681	117.25
793.862	70.14
794.042	20.99
794.223	-48.64
794.404	-50.69
794.584	-83.45
794.765	18.94
794.945	66.05
795.126	86.53
795.306	111.1
795.487	64
795.667	76.29
795.848	20.99
796.028	98.81
796.209	20.99
796.389	137.73
796.57	23.04
796.75	96.77
796.93	45.57
797.111	39.42
797.291	-17.92
797.471	141.82
797.652	-7.68
797.832	-38.4
798.012	88.57
798.192	-15.87
798.373	-77.31
798.553	-40.45
798.733	115.2
798.913	-3.58
799.093	-30.21
799.274	-5.63
799.454	-13.82
799.634	37.38
799.814	90.62
799.994	14.85
800.174	109.05
800.354	23.04
800.534	33.28
800.714	14.85
800.894	-46.59
801.074	-87.55
801.254	-42.5
801.434	158.21
801.614	-3.58
801.794	-26.11
801.974	1974.75
802.154	-3.58
802.334	41.47
802.514	-89.6
802.693	43.52
802.873	35.33
803.053	96.77
803.233	-38.4
803.413	25.09
803.592	-22.02
803.772	-44.54
803.952	-30.21
804.131	-62.98
804.311	139.77
804.491	66.05
804.67	-93.69
804.85	-54.78
805.03	29.18
805.209	80.38
805.389	-22.02
805.568	16.9
805.748	14.85
805.928	-1.54
806.107	-5.63
806.287	12.8
806.466	39.42
806.646	31.23
806.825	29.18
807.004	-93.69
807.184	47.62
807.363	88.57
807.543	12.8
807.722	-9.73
807.901	107.01
808.081	150.01
808.26	-9.73
808.439	-3.58
808.619	39.42
808.798	-69.12
808.977	-56.83
809.156	135.68
809.336	45.57
809.515	129.53
809.694	-65.02
809.873	-40.45
810.052	-1.54
810.231	104.96
810.411	68.09
810.59	84.48
810.769	-99.84
810.948	117.25
811.127	-26.11
811.306	-7.68
811.485	-85.5
811.664	131.58
811.843	-75.26
812.022	31.23
812.201	-58.88
812.38	-36.35
812.559	-56.83
812.737	-3.58
812.916	-60.93
813.095	6.66
813.274	41.47
813.453	53.76
813.632	98.81
813.811	18.94
813.989	-134.65
814.168	10.75
814.347	-77.31
814.526	29.18
814.704	131.58
814.883	45.57
815.062	-22.02
815.24	29.18
815.419	-52.74
815.598	43.52
815.776	-95.74
815.955	-13.82
816.133	-56.83
816.312	33.28
816.49	-48.64
816.669	-36.35
816.847	-32.26
817.026	-36.35
817.204	-44.54
817.383	-56.83
817.561	-67.07
817.74	31.23
817.918	53.76
818.097	-71.17
818.275	-36.35
818.453	88.57
818.632	8.7
818.81	-28.16
818.988	-17.92
819.167	-101.89
819.345	6.66
819.523	-11.78
819.701	68.09
819.879	35.33
820.058	66.05
820.236	-13.82
820.414	-7.68
820.592	10.75
820.77	-19.97
820.948	-62.98
821.127	-79.36
821.305	16.9
821.483	-48.64
821.661	113.15
821.839	39.42
822.017	-9.73
822.195	-69.12
822.373	107.01
822.551	41.47
822.729	35.33
822.907	14.85
823.085	35.33
823.262	66.05
823.44	-58.88
823.618	-71.17
823.796	-46.59
823.974	53.76
824.152	-7.68
824.329	-22.02
824.507	29.18
824.685	61.95
824.863	-7.68
825.04	4.61
825.218	-3.58
825.396	10.75
825.574	51.71
825.751	4.61
825.929	29.18
826.107	-89.6
826.284	-15.87
826.462	74.24
826.639	-85.5
826.817	-130.56
826.994	6.66
827.172	-60.93
827.349	66.05
827.527	51.71
827.704	18.94
827.882	90.62
828.059	0.51
828.237	-38.4
828.414	123.39
828.591	-157.18
828.769	-42.5
828.946	-81.41
829.124	16.9
829.301	107.01
829.478	8.7
829.655	43.52
829.833	-1.54
830.01	-56.83
830.187	43.52
830.364	55.81
830.542	41.47
830.719	143.87
830.896	29.18
831.073	27.14
831.25	141.82
831.427	41.47
831.604	-69.12
831.782	-19.97
831.959	47.62
832.136	14.85
832.313	57.86
832.49	-38.4
832.667	-85.5
832.844	-9.73
833.021	74.24
833.198	12.8
833.374	66.05
833.551	23.04
833.728	-85.5
833.905	53.76
834.082	-85.5
834.259	-24.06
834.436	33.28
834.612	-81.41
834.789	109.05
834.966	8.7
835.143	37.38
835.319	-32.26
835.496	33.28
835.673	57.86
835.85	64
836.026	61.95
836.203	16.9
836.38	-50.69
836.556	-52.74
836.733	-13.82
836.909	104.96
837.086	68.09
837.262	-89.6
837.439	53.76
837.616	-114.17
837.792	-24.06
837.968	49.66
838.145	-83.45
838.321	-34.3
838.498	25.09
838.674	16.9
838.851	70.14
839.027	-52.74
839.203	55.81
839.38	23.04
839.556	-95.74
839.732	57.86
839.909	2.56
840.085	66.05
840.261	-44.54
840.437	-62.98
840.614	-15.87
840.79	43.52
840.966	76.29
841.142	53.76
841.318	-3.58
841.494	-28.16
841.671	37.38
841.847	-110.08
842.023	-42.5
842.199	45.57
842.375	215.55
842.551	-167.42
842.727	-120.32
842.903	4.61
843.079	-34.3
843.255	104.96
843.431	-28.16
843.607	-36.35
843.783	-118.27
843.959	37.38
844.134	-77.31
844.31	53.76
844.486	-56.83
844.662	-50.69
844.838	-5.63
845.013	6.66
845.189	145.92
845.365	25.09
845.541	-9.73
845.716	-3.58
845.892	178.69
846.068	-101.89
846.244	-48.64
846.419	37.38
846.595	-85.5
846.77	-69.12
846.946	88.57
847.122	39.42
847.297	-91.65
847.473	195.07
847.648	-122.37
847.824	12.8
847.999	-99.84
848.175	-46.59
848.35	37.38
848.526	135.68
848.701	35.33
848.876	76.29
849.052	68.09
849.227	31.23
849.403	8.7
849.578	-15.87
849.753	29.18
849.929	12.8
850.104	-108.03
850.279	-9.73
850.454	31.23
850.63	8.7
850.805	47.62
850.98	53.76
851.155	6.66
851.33	25.09
851.505	-54.78
851.681	164.35
851.856	-28.16
852.031	2.56
852.206	59.9
852.381	-32.26
852.556	8.7
852.731	-30.21
852.906	-1.54
853.081	51.71
853.256	172.54
853.431	4.61
853.606	16.9
853.781	-24.06
853.956	-97.79
854.131	66.05
854.305	14.85
854.48	-40.45
854.655	-40.45
854.83	-36.35
855.005	29.18
855.18	25.09
855.354	-56.83
855.529	68.09
855.704	-32.26
855.879	29.18
856.053	-62.98
856.228	2.56
856.403	-46.59
856.577	43.52
856.752	-75.26
856.926	-42.5
857.101	33.28
857.276	-60.93
857.45	84.48
857.625	27.14
857.799	10.75
857.974	-19.97
858.148	-38.4
858.323	-1.54
858.497	-17.92
858.672	-46.59
858.846	4.61
859.02	-17.92
859.195	-54.78
859.369	74.24
859.543	102.91
859.718	-48.64
859.892	-69.12
860.066	-38.4
860.241	-32.26
860.415	-50.69
860.589	12.8
860.763	-48.64
860.938	29.18
861.112	70.14
861.286	-42.5
861.46	41.47
861.634	4.61
861.808	10.75
861.982	-99.84
862.157	-58.88
862.331	-89.6
862.505	-79.36
862.679	-120.32
862.853	14.85
863.027	10.75
863.201	98.81
863.375	6.66
863.549	-9.73
863.722	-40.45
863.896	154.11
864.07	-7.68
864.244	-15.87
864.418	10.75
864.592	-11.78
864.766	-11.78
864.939	64
865.113	-9.73
865.287	-3.58
865.461	-83.45
865.634	39.42
865.808	-42.5
865.982	-83.45
866.156	-116.22
866.329	-34.3
866.503	29.18
866.676	51.71
866.85	12.8
867.024	-77.31
867.197	14.85
867.371	-13.82
867.544	121.34
867.718	-171.52
867.891	14.85
868.065	-75.26
868.238	-1.54
868.412	115.2
868.585	-58.88
868.759	-56.83
868.932	2.56
869.105	-89.6
869.279	64
869.452	-99.84
869.625	115.2
869.799	-15.87
869.972	-40.45
870.145	-11.78
870.319	64
870.492	-5.63
870.665	-65.02
870.838	-95.74
871.011	-108.03
871.185	-46.59
871.358	-1.54
871.531	8.7
871.704	2.56
871.877	45.57
872.05	-11.78
872.223	-69.12
872.396	90.62
872.569	-19.97
872.742	-81.41
872.915	57.86
873.088	29.18
873.261	-22.02
873.434	98.81
873.607	-73.21
873.78	23.04
873.953	-62.98
874.126	-44.54
874.299	-9.73
874.471	-3.58
874.644	-56.83
874.817	35.33
874.99	31.23
875.163	-32.26
875.335	27.14
875.508	-34.3
875.681	78.33
875.853	-67.07
876.026	10.75
876.199	-3.58
876.371	10.75
876.544	-52.74
876.717	41.47
876.889	23.04
877.062	10.75
877.234	-116.22
877.407	41.47
877.579	-36.35
877.752	66.05
877.924	20.99
878.097	94.72
878.269	-36.35
878.442	68.09
878.614	-32.26
878.786	18.94
878.959	23.04
879.131	18.94
879.303	-99.84
879.476	-36.35
879.648	82.43
879.82	8.7
879.993	-48.64
880.165	0.51
880.337	-60.93
880.509	66.05
880.681	-5.63
880.854	-36.35
881.026	8.7
881.198	143.87
881.37	27.14
881.542	-15.87
881.714	-19.97
881.886	-40.45
882.058	59.9
882.23	-1.54
882.402	29.18
882.574	35.33
882.746	12.8
882.918	109.05
883.09	20.99
883.262	0.51
883.434	0.51
883.606	-101.89
883.778	-17.92
883.95	119.29
884.122	-58.88
884.293	113.15
884.465	41.47
884.637	51.71
884.809	6.66
884.98	82.43
885.152	20.99
885.324	41.47
885.496	-81.41
885.667	-87.55
885.839	-40.45
886.011	68.09
886.182	61.95
886.354	72.19
886.525	-28.16
886.697	-32.26
886.869	-17.92
887.04	-75.26
887.212	131.58
887.383	113.15
887.555	27.14
887.726	-40.45
887.897	-38.4
888.069	47.62
888.24	49.66
888.412	6.66
888.583	-34.3
888.754	-60.93
888.926	-163.33
889.097	-42.5
889.268	-105.98
889.44	-30.21
889.611	-77.31
889.782	-5.63
889.953	-122.37
890.125	158.21
890.296	-26.11
890.467	39.42
890.638	-60.93
890.809	-9.73
890.98	-44.54
891.151	35.33
891.323	66.05
891.494	-118.27
891.665	-24.06
891.836	-26.11
892.007	80.38
892.178	-22.02
892.349	20.99
892.52	-65.02
892.691	-34.3
892.862	-19.97
893.032	-38.4
893.203	-1.54
893.374	39.42
893.545	121.34
893.716	-9.73
893.887	25.09
894.057	20.99
894.228	-60.93
894.399	-48.64
894.57	129.53
894.74	-65.02
894.911	64
895.082	-34.3
895.253	4.61
895.423	8.7
895.594	117.25
895.764	-1.54
895.935	-60.93
896.106	-30.21
896.276	-5.63
896.447	6.66
896.617	-81.41
896.788	-91.65
896.958	-36.35
897.129	-112.13
897.299	-52.74
897.47	137.73
897.64	41.47
897.81	-42.5
897.981	-32.26
898.151	-15.87
898.322	102.91
898.492	-7.68
898.662	-46.59
898.832	-48.64
899.003	-65.02
899.173	59.9
899.343	-40.45
899.513	-34.3
