Data from USB4F104151__41__09-27-35-507.txt Node

Date: Wed Feb 26 09:27:35 EST 2025
User: louis
Spectrometer: USB4F10415
Trigger mode: 4
Integration Time (sec): 1.000000E-1
Scans to average: 1
Electric dark correction enabled: true
Nonlinearity correction enabled: false
Boxcar width: 0
XAxis mode: Wavelengths
Number of Pixels in Spectrum: 3648
>>>>>Begin Spectral Data<<<<<
178.204	-337.4
178.424	-337.4
178.644	-337.4
178.864	-359.93
179.084	-366.07
179.304	-5.63
179.524	-22.02
179.744	27.14
179.964	8.7
180.184	35.33
180.404	-32.26
180.624	25.09
180.844	-17.92
181.064	-52.74
181.283	41.47
181.503	-58.88
181.723	51.71
181.943	-110.08
182.163	123.39
182.383	-46.59
182.602	107.01
182.822	113.15
183.042	-17.92
183.262	-91.65
183.482	-22.02
183.701	31.23
183.921	12.8
184.141	-54.78
184.361	47.62
184.58	61.95
184.8	39.42
185.02	-79.36
185.239	74.24
185.459	57.86
185.679	37.38
185.898	-87.55
186.118	109.05
186.338	31.23
186.557	80.38
186.777	-26.11
186.997	33.28
187.216	43.52
187.436	188.93
187.655	16.9
187.875	57.86
188.095	-40.45
188.314	2.56
188.534	131.58
188.753	-103.93
188.973	123.39
189.192	125.44
189.412	-1.54
189.631	-9.73
189.851	35.33
190.07	141.82
190.29	-58.88
190.509	-71.17
190.729	53.76
190.948	92.67
191.168	262.65
191.387	129.53
191.607	-105.98
191.826	100.86
192.045	47.62
192.265	-50.69
192.484	109.05
192.704	-73.21
192.923	-22.02
193.142	80.38
193.362	90.62
193.581	113.15
193.8	59.9
194.02	72.19
194.239	35.33
194.458	43.52
194.678	59.9
194.897	-30.21
195.116	43.52
195.335	-40.45
195.555	100.86
195.774	68.09
195.993	55.81
196.212	-5.63
196.432	-58.88
196.651	-65.02
196.87	18.94
197.089	100.86
197.308	-5.63
197.528	92.67
197.747	-7.68
197.966	14.85
198.185	141.82
198.404	-22.02
198.623	162.3
198.842	96.77
199.062	113.15
199.281	150.01
199.5	43.52
199.719	84.48
199.938	25.09
200.157	100.86
200.376	164.35
200.595	80.38
200.814	92.67
201.033	47.62
201.252	129.53
201.471	84.48
201.69	39.42
201.909	-9.73
202.128	92.67
202.347	-1.54
202.566	-30.21
202.785	-71.17
203.004	6.66
203.223	215.55
203.442	8.7
203.661	-60.93
203.879	-1.54
204.098	64
204.317	0.51
204.536	96.77
204.755	68.09
204.974	133.63
205.193	-15.87
205.411	109.05
205.63	-3.58
205.849	35.33
206.068	-13.82
206.287	-13.82
206.505	84.48
206.724	31.23
206.943	20.99
207.162	-42.5
207.381	100.86
207.599	18.94
207.818	121.34
208.037	-30.21
208.255	59.9
208.474	8.7
208.693	16.9
208.911	55.81
209.13	55.81
209.349	92.67
209.567	16.9
209.786	68.09
210.005	66.05
210.223	41.47
210.442	-114.17
210.661	66.05
210.879	35.33
211.098	16.9
211.316	92.67
211.535	35.33
211.753	70.14
211.972	55.81
212.191	-56.83
212.409	31.23
212.628	68.09
212.846	-75.26
213.065	12.8
213.283	64
213.502	59.9
213.72	98.81
213.938	-9.73
214.157	-9.73
214.375	43.52
214.594	16.9
214.812	39.42
215.031	86.53
215.249	47.62
215.467	76.29
215.686	-22.02
215.904	66.05
216.122	96.77
216.341	107.01
216.559	-17.92
216.778	111.1
216.996	113.15
217.214	18.94
217.432	-46.59
217.651	-118.27
217.869	2.56
218.087	53.76
218.306	23.04
218.524	8.7
218.742	0.51
218.96	129.53
219.179	-17.92
219.397	23.04
219.615	199.16
219.833	88.57
220.051	-40.45
220.27	102.91
220.488	92.67
220.706	27.14
220.924	43.52
221.142	-17.92
221.36	109.05
221.578	76.29
221.796	-30.21
222.015	-60.93
222.233	59.9
222.451	115.2
222.669	-50.69
222.887	18.94
223.105	-42.5
223.323	72.19
223.541	4.61
223.759	115.2
223.977	8.7
224.195	201.21
224.413	84.48
224.631	102.91
224.849	70.14
225.067	180.73
225.285	16.9
225.503	-19.97
225.721	-89.6
225.939	43.52
226.157	-38.4
226.375	121.34
226.592	-60.93
226.81	35.33
227.028	111.1
227.246	133.63
227.464	61.95
227.682	20.99
227.9	20.99
228.117	27.14
228.335	10.75
228.553	8.7
228.771	27.14
228.989	10.75
229.206	129.53
229.424	-24.06
229.642	33.28
229.86	-75.26
230.077	117.25
230.295	88.57
230.513	47.62
230.731	80.38
230.948	190.97
231.166	152.06
231.384	0.51
231.601	-22.02
231.819	147.97
232.037	59.9
232.254	-22.02
232.472	14.85
232.689	6.66
232.907	94.72
233.125	-5.63
233.342	-26.11
233.56	-79.36
233.777	18.94
233.995	49.66
234.213	117.25
234.43	41.47
234.648	-40.45
234.865	23.04
235.083	-7.68
235.3	76.29
235.518	84.48
235.735	164.35
235.953	18.94
236.17	33.28
236.388	31.23
236.605	6.66
236.822	35.33
237.04	133.63
237.257	59.9
237.475	-13.82
237.692	-67.07
237.909	82.43
238.127	43.52
238.344	100.86
238.562	141.82
238.779	10.75
238.996	-58.88
239.214	68.09
239.431	57.86
239.648	-15.87
239.865	84.48
240.083	119.29
240.3	-9.73
240.517	-54.78
240.735	2.56
240.952	94.72
241.169	61.95
241.386	41.47
241.603	-56.83
241.821	-97.79
242.038	14.85
242.255	86.53
242.472	-40.45
242.689	135.68
242.907	33.28
243.124	31.23
243.341	-30.21
243.558	25.09
243.775	-15.87
243.992	-38.4
244.209	76.29
244.426	133.63
244.643	113.15
244.86	37.38
245.078	119.29
245.295	10.75
245.512	6.66
245.729	-108.03
245.946	-19.97
246.163	-32.26
246.38	6.66
246.597	31.23
246.814	14.85
247.031	59.9
247.248	20.99
247.464	51.71
247.681	35.33
247.898	59.9
248.115	57.86
248.332	-40.45
248.549	154.11
248.766	98.81
248.983	111.1
249.2	27.14
249.417	90.62
249.633	-38.4
249.85	113.15
250.067	43.52
250.284	55.81
250.501	80.38
250.717	51.71
250.934	-56.83
251.151	6.66
251.368	53.76
251.585	61.95
251.801	-17.92
252.018	49.66
252.235	59.9
252.451	-110.08
252.668	47.62
252.885	121.34
253.102	25.09
253.318	10.75
253.535	-5.63
253.752	6.66
253.968	27.14
254.185	35.33
254.401	-17.92
254.618	27.14
254.835	6.66
255.051	197.12
255.268	100.86
255.484	66.05
255.701	-15.87
255.917	29.18
256.134	59.9
256.351	-89.6
256.567	-56.83
256.784	6.66
257	-19.97
257.217	41.47
257.433	94.72
257.65	-28.16
257.866	129.53
258.082	-99.84
258.299	-15.87
258.515	64
258.732	-42.5
258.948	-3.58
259.165	98.81
259.381	-93.69
259.597	64
259.814	-62.98
260.03	2.56
260.246	88.57
260.463	125.44
260.679	35.33
260.895	51.71
261.112	35.33
261.328	-65.02
261.544	76.29
261.761	182.78
261.977	25.09
262.193	-9.73
262.409	109.05
262.626	66.05
262.842	4.61
263.058	-9.73
263.274	82.43
263.49	59.9
263.707	39.42
263.923	74.24
264.139	-15.87
264.355	35.33
264.571	55.81
264.787	16.9
265.004	61.95
265.22	92.67
265.436	-54.78
265.652	72.19
265.868	-30.21
266.084	-26.11
266.3	80.38
266.516	-9.73
266.732	12.8
266.948	-32.26
267.164	-3.58
267.38	23.04
267.596	115.2
267.812	182.78
268.028	16.9
268.244	-46.59
268.46	47.62
268.676	2.56
268.892	14.85
269.108	-9.73
269.324	18.94
269.54	-30.21
269.756	6.66
269.972	-48.64
270.188	0.51
270.403	-5.63
270.619	55.81
270.835	-46.59
271.051	41.47
271.267	43.52
271.483	-71.17
271.698	80.38
271.914	-22.02
272.13	-9.73
272.346	49.66
272.562	10.75
272.777	14.85
272.993	39.42
273.209	80.38
273.425	86.53
273.64	-15.87
273.856	8.7
274.072	10.75
274.287	18.94
274.503	150.01
274.719	135.68
274.934	4.61
275.15	-9.73
275.366	10.75
275.581	20.99
275.797	96.77
276.012	33.28
276.228	35.33
276.444	51.71
276.659	92.67
276.875	-50.69
277.09	2.56
277.306	4.61
277.521	43.52
277.737	35.33
277.952	-15.87
278.168	-38.4
278.383	74.24
278.599	88.57
278.814	59.9
279.03	23.04
279.245	100.86
279.461	-13.82
279.676	137.73
279.892	-69.12
280.107	64
280.322	-48.64
280.538	35.33
280.753	6.66
280.969	39.42
281.184	27.14
281.399	57.86
281.615	-13.82
281.83	43.52
282.045	-38.4
282.26	-26.11
282.476	-15.87
282.691	109.05
282.906	6.66
283.122	31.23
283.337	-3.58
283.552	125.44
283.767	12.8
283.983	119.29
284.198	4.61
284.413	82.43
284.628	-79.36
284.843	23.04
285.058	37.38
285.274	53.76
285.489	-44.54
285.704	111.1
285.919	-38.4
286.134	-34.3
286.349	-13.82
286.564	-15.87
286.779	137.73
286.995	49.66
287.21	-146.94
287.425	139.77
287.64	-24.06
287.855	2.56
288.07	-24.06
288.285	133.63
288.5	53.76
288.715	25.09
288.93	72.19
289.145	6.66
289.36	55.81
289.575	-44.54
289.79	86.53
290.004	-24.06
290.219	117.25
290.434	-40.45
290.649	27.14
290.864	-22.02
291.079	-38.4
291.294	-9.73
291.509	29.18
291.724	-58.88
291.938	59.9
292.153	16.9
292.368	12.8
292.583	61.95
292.798	117.25
293.012	-42.5
293.227	18.94
293.442	-30.21
293.657	111.1
293.871	66.05
294.086	70.14
294.301	160.25
294.516	147.97
294.73	82.43
294.945	-22.02
295.16	-7.68
295.374	168.45
295.589	51.71
295.804	23.04
296.018	70.14
296.233	109.05
296.447	111.1
296.662	-26.11
296.877	109.05
297.091	68.09
297.306	39.42
297.52	31.23
297.735	4.61
297.949	92.67
298.164	33.28
298.378	76.29
298.593	-26.11
298.807	-7.68
299.022	125.44
299.236	109.05
299.451	12.8
299.665	47.62
299.88	100.86
300.094	53.76
300.309	12.8
300.523	84.48
300.737	18.94
300.952	70.14
301.166	47.62
301.381	-50.69
301.595	33.28
301.809	18.94
302.024	-26.11
302.238	53.76
302.452	143.87
302.667	104.96
302.881	113.15
303.095	131.58
303.309	45.57
303.524	27.14
303.738	18.94
303.952	-67.07
304.166	-17.92
304.381	-105.98
304.595	31.23
304.809	-38.4
305.023	-22.02
305.237	8.7
305.452	-34.3
305.666	43.52
305.88	61.95
306.094	35.33
306.308	109.05
306.522	57.86
306.736	59.9
306.95	137.73
307.164	61.95
307.379	47.62
307.593	104.96
307.807	39.42
308.021	86.53
308.235	41.47
308.449	-79.36
308.663	-38.4
308.877	160.25
309.091	31.23
309.305	82.43
309.519	-36.35
309.733	55.81
309.947	-15.87
310.161	141.82
310.374	107.01
310.588	82.43
310.802	-58.88
311.016	-17.92
311.23	33.28
311.444	2.56
311.658	76.29
311.872	66.05
312.085	74.24
312.299	111.1
312.513	127.49
312.727	12.8
312.941	-30.21
313.154	-5.63
313.368	59.9
313.582	45.57
313.796	82.43
314.009	-30.21
314.223	129.53
314.437	-42.5
314.651	39.42
314.864	10.75
315.078	-71.17
315.292	-73.21
315.505	-17.92
315.719	61.95
315.933	88.57
316.146	41.47
316.36	-132.61
316.573	104.96
316.787	4.61
317.001	-58.88
317.214	-30.21
317.428	92.67
317.641	-77.31
317.855	-26.11
318.068	78.33
318.282	-44.54
318.495	160.25
318.709	4.61
318.922	49.66
319.136	66.05
319.349	88.57
319.563	-36.35
319.776	68.09
319.99	-67.07
320.203	109.05
320.417	-5.63
320.63	61.95
320.843	113.15
321.057	43.52
321.27	23.04
321.483	16.9
321.697	168.45
321.91	31.23
322.124	64
322.337	33.28
322.55	-42.5
322.763	121.34
322.977	-9.73
323.19	-81.41
323.403	18.94
323.617	96.77
323.83	156.16
324.043	84.48
324.256	51.71
324.469	-62.98
324.683	53.76
324.896	55.81
325.109	29.18
325.322	-144.89
325.535	72.19
325.748	57.86
325.962	76.29
326.175	43.52
326.388	53.76
326.601	174.59
326.814	-26.11
327.027	-13.82
327.24	113.15
327.453	-40.45
327.666	70.14
327.879	64
328.092	6.66
328.305	8.7
328.518	39.42
328.731	10.75
328.944	23.04
329.157	12.8
329.37	8.7
329.583	150.01
329.796	68.09
330.009	-36.35
330.222	166.4
330.435	31.23
330.648	6.66
330.861	23.04
331.073	37.38
331.286	41.47
331.499	41.47
331.712	-132.61
331.925	-5.63
332.138	16.9
332.35	174.59
332.563	-38.4
332.776	158.21
332.989	-5.63
333.202	49.66
333.414	66.05
333.627	31.23
333.84	12.8
334.053	8.7
334.265	-13.82
334.478	27.14
334.691	2.56
334.903	43.52
335.116	10.75
335.329	16.9
335.541	64
335.754	49.66
335.966	29.18
336.179	-34.3
336.392	14.85
336.604	23.04
336.817	57.86
337.029	102.91
337.242	66.05
337.454	14.85
337.667	55.81
337.88	133.63
338.092	84.48
338.305	127.49
338.517	-60.93
338.729	100.86
338.942	125.44
339.154	-65.02
339.367	-73.21
339.579	74.24
339.792	-22.02
340.004	131.58
340.217	27.14
340.429	39.42
340.641	-50.69
340.854	16.9
341.066	-17.92
341.278	49.66
341.491	150.01
341.703	47.62
341.915	-56.83
342.128	53.76
342.34	76.29
342.552	-22.02
342.764	66.05
342.977	90.62
343.189	135.68
343.401	14.85
343.613	-67.07
343.826	59.9
344.038	10.75
344.25	27.14
344.462	23.04
344.674	119.29
344.886	72.19
345.099	33.28
345.311	14.85
345.523	18.94
345.735	-67.07
345.947	68.09
346.159	35.33
346.371	8.7
346.583	43.52
346.795	205.31
347.007	72.19
347.219	98.81
347.431	-36.35
347.643	111.1
347.855	10.75
348.067	104.96
348.279	-32.26
348.491	47.62
348.703	80.38
348.915	-38.4
349.127	2.56
349.339	47.62
349.551	-46.59
349.763	55.81
349.975	-5.63
350.187	117.25
350.399	107.01
350.61	98.81
350.822	14.85
351.034	8.7
351.246	131.58
351.458	86.53
351.669	109.05
351.881	51.71
352.093	59.9
352.305	76.29
352.517	117.25
352.728	74.24
352.94	59.9
353.152	35.33
353.363	-9.73
353.575	76.29
353.787	197.12
353.999	53.76
354.21	84.48
354.422	-19.97
354.633	39.42
354.845	-26.11
355.057	-46.59
355.268	12.8
355.48	123.39
355.692	-99.84
355.903	66.05
356.115	23.04
356.326	-62.98
356.538	68.09
356.749	131.58
356.961	145.92
357.172	2.56
357.384	-22.02
357.595	137.73
357.807	-17.92
358.018	-62.98
358.23	-50.69
358.441	129.53
358.653	51.71
358.864	6.66
359.075	-54.78
359.287	6.66
359.498	131.58
359.709	64
359.921	-48.64
360.132	2.56
360.344	-5.63
360.555	-32.26
360.766	68.09
360.977	-58.88
361.189	164.35
361.4	2.56
361.611	172.54
361.823	133.63
362.034	-62.98
362.245	-11.78
362.456	6.66
362.667	-3.58
362.879	31.23
363.09	0.51
363.301	-22.02
363.512	64
363.723	23.04
363.935	-30.21
364.146	98.81
364.357	59.9
364.568	49.66
364.779	-22.02
364.99	76.29
365.201	-17.92
365.412	188.93
365.623	-32.26
365.834	4.61
366.045	-26.11
366.256	111.1
366.467	76.29
366.678	-5.63
366.889	27.14
367.1	14.85
367.311	88.57
367.522	-62.98
367.733	53.76
367.944	6.66
368.155	-7.68
368.366	117.25
368.577	121.34
368.788	31.23
368.999	-5.63
369.209	18.94
369.42	211.45
369.631	172.54
369.842	59.9
370.053	41.47
370.264	125.44
370.474	16.9
370.685	111.1
370.896	0.51
371.107	66.05
371.317	92.67
371.528	41.47
371.739	98.81
371.95	84.48
372.16	66.05
372.371	-93.69
372.582	0.51
372.792	76.29
373.003	43.52
373.214	70.14
373.424	4.61
373.635	-69.12
373.846	145.92
374.056	6.66
374.267	-11.78
374.477	57.86
374.688	2.56
374.898	14.85
375.109	18.94
375.319	6.66
375.53	158.21
375.74	57.86
375.951	-22.02
376.161	14.85
376.372	107.01
376.582	-32.26
376.793	-3.58
377.003	-19.97
377.214	-60.93
377.424	43.52
377.635	37.38
377.845	18.94
378.055	199.16
378.266	-1.54
378.476	27.14
378.686	-32.26
378.897	70.14
379.107	90.62
379.317	59.9
379.528	-67.07
379.738	84.48
379.948	-22.02
380.158	72.19
380.369	51.71
380.579	37.38
380.789	39.42
380.999	90.62
381.21	86.53
381.42	145.92
381.63	6.66
381.84	47.62
382.05	117.25
382.261	96.77
382.471	102.91
382.681	-13.82
382.891	121.34
383.101	80.38
383.311	-50.69
383.521	-58.88
383.731	72.19
383.941	121.34
384.151	18.94
384.361	0.51
384.571	51.71
384.781	23.04
384.991	154.11
385.201	174.59
385.411	107.01
385.621	66.05
385.831	72.19
386.041	47.62
386.251	0.51
386.461	100.86
386.671	41.47
386.881	35.33
387.091	-22.02
387.301	66.05
387.511	16.9
387.72	61.95
387.93	109.05
388.14	37.38
388.35	18.94
388.56	139.77
388.769	100.86
388.979	0.51
389.189	-9.73
389.399	4.61
389.609	76.29
389.818	133.63
390.028	18.94
390.238	80.38
390.447	-52.74
390.657	10.75
390.867	18.94
391.076	-17.92
391.286	10.75
391.496	-7.68
391.705	27.14
391.915	104.96
392.125	113.15
392.334	-22.02
392.544	59.9
392.753	80.38
392.963	23.04
393.172	-46.59
393.382	10.75
393.591	139.77
393.801	39.42
394.01	135.68
394.22	84.48
394.429	43.52
394.639	-1.54
394.848	35.33
395.058	96.77
395.267	-11.78
395.477	80.38
395.686	59.9
395.895	174.59
396.105	139.77
396.314	39.42
396.524	47.62
396.733	-9.73
396.942	98.81
397.152	51.71
397.361	135.68
397.57	23.04
397.78	59.9
397.989	109.05
398.198	164.35
398.407	-17.92
398.617	-9.73
398.826	23.04
399.035	10.75
399.244	80.38
399.453	16.9
399.663	100.86
399.872	86.53
400.081	-62.98
400.29	158.21
400.499	-50.69
400.708	164.35
400.917	61.95
401.127	-1.54
401.336	29.18
401.545	141.82
401.754	-3.58
401.963	133.63
402.172	61.95
402.381	-7.68
402.59	117.25
402.799	20.99
403.008	74.24
403.217	-3.58
403.426	74.24
403.635	-46.59
403.844	27.14
404.053	-11.78
404.262	37.38
404.471	109.05
404.68	84.48
404.888	-46.59
405.097	47.62
405.306	-15.87
405.515	92.67
405.724	39.42
405.933	92.67
406.142	43.52
406.35	174.59
406.559	-13.82
406.768	68.09
406.977	137.73
407.185	31.23
407.394	88.57
407.603	-7.68
407.812	41.47
408.02	100.86
408.229	-22.02
408.438	27.14
408.646	-48.64
408.855	12.8
409.064	72.19
409.272	39.42
409.481	98.81
409.69	-13.82
409.898	-11.78
410.107	80.38
410.315	127.49
410.524	-5.63
410.733	64
410.941	0.51
411.15	31.23
411.358	35.33
411.567	145.92
411.775	98.81
411.984	104.96
412.192	150.01
412.401	-13.82
412.609	133.63
412.818	109.05
413.026	117.25
413.234	45.57
413.443	10.75
413.651	16.9
413.86	27.14
414.068	133.63
414.276	182.78
414.485	6.66
414.693	92.67
414.901	172.54
415.11	31.23
415.318	10.75
415.526	-5.63
415.734	109.05
415.943	35.33
416.151	94.72
416.359	70.14
416.567	41.47
416.776	92.67
416.984	100.86
417.192	166.4
417.4	68.09
417.608	-38.4
417.817	-34.3
418.025	90.62
418.233	117.25
418.441	-24.06
418.649	20.99
418.857	-1.54
419.065	145.92
419.273	16.9
419.481	37.38
419.689	20.99
419.897	-7.68
420.105	-9.73
420.313	90.62
420.521	29.18
420.729	133.63
420.937	-36.35
421.145	20.99
421.353	29.18
421.561	205.31
421.769	49.66
421.977	-5.63
422.185	109.05
422.393	72.19
422.601	92.67
422.809	100.86
423.017	43.52
423.224	55.81
423.432	113.15
423.64	72.19
423.848	125.44
424.056	39.42
424.263	72.19
424.471	53.76
424.679	133.63
424.887	-24.06
425.094	160.25
425.302	70.14
425.51	27.14
425.718	88.57
425.925	78.33
426.133	10.75
426.341	139.77
426.548	55.81
426.756	45.57
426.964	37.38
427.171	-58.88
427.379	47.62
427.586	88.57
427.794	72.19
428.001	86.53
428.209	74.24
428.417	154.11
428.624	39.42
428.832	51.71
429.039	49.66
429.247	-15.87
429.454	84.48
429.662	209.4
429.869	119.29
430.076	27.14
430.284	104.96
430.491	152.06
430.699	109.05
430.906	147.97
431.114	102.91
431.321	100.86
431.528	115.2
431.736	100.86
431.943	119.29
432.15	104.96
432.358	121.34
432.565	199.16
432.772	27.14
432.979	182.78
433.187	59.9
433.394	141.82
433.601	109.05
433.808	252.41
434.016	287.23
434.223	182.78
434.43	250.36
434.637	262.65
434.844	272.89
435.052	182.78
435.259	231.93
435.466	258.56
435.673	186.88
435.88	346.62
436.087	289.28
436.294	330.23
436.501	297.47
436.708	184.83
436.915	320
437.122	279.04
437.329	219.64
437.537	270.84
437.743	248.32
437.95	360.95
438.157	246.27
438.364	289.28
438.571	317.95
438.778	403.96
438.985	403.96
439.192	432.63
439.399	360.95
439.606	434.68
439.813	397.82
440.02	510.46
440.227	578.04
440.433	444.92
440.64	395.77
440.847	403.96
441.054	573.94
441.261	614.9
441.467	512.5
441.674	539.13
441.881	705.01
442.088	616.95
442.294	604.66
442.501	625.14
442.708	709.11
442.914	696.82
443.121	719.35
443.328	776.69
443.534	889.33
443.741	729.59
443.948	725.49
444.154	780.79
444.361	1030.64
444.568	895.47
444.774	870.9
444.981	942.58
445.187	1028.59
445.394	967.15
445.6	1065.46
445.807	1174
446.013	1073.65
446.22	1122.8
446.426	1255.92
446.633	1346.03
446.839	1489.39
447.046	1331.69
447.252	1468.91
447.459	1409.51
447.665	1477.1
447.871	1628.65
448.078	1642.98
448.284	1624.55
448.491	1802.72
448.697	1798.63
448.903	1927.65
449.11	1982.95
449.316	1923.55
449.522	2107.87
449.728	2206.17
449.935	2226.65
450.141	2314.72
450.347	2386.4
450.553	2327
450.76	2384.35
450.966	2583
451.172	2632.15
451.378	2681.3
451.584	2820.56
451.791	2984.4
451.997	3166.67
452.203	3070.42
452.409	3408.33
452.615	3545.55
452.821	3336.65
453.027	3361.23
453.233	3901.89
453.44	3662.28
453.646	3975.62
453.852	4196.8
454.058	4274.62
454.264	4436.41
454.47	4643.26
454.676	4821.43
454.882	5161.39
455.088	5054.9
455.294	5179.82
455.5	5583.27
455.705	5749.16
455.911	5831.08
456.117	5966.24
456.323	6222.24
456.529	6207.91
456.735	6805.91
456.941	6885.78
457.147	7299.47
457.352	7373.2
457.558	7504.27
457.764	8239.49
457.97	8366.46
458.176	8427.9
458.381	9019.77
458.587	9183.6
458.793	9601.39
458.999	9537.9
459.204	10762.59
459.41	11204.95
459.616	10801.5
459.821	11630.93
460.027	12173.64
460.233	12675.39
460.438	12732.73
460.644	13648.18
460.85	13558.07
461.055	14080.3
461.261	14997.79
461.466	14377.25
461.672	14491.94
461.878	16617.73
462.083	16285.96
462.289	16869.63
462.494	17717.49
462.7	17445.11
462.905	17914.09
463.111	19144.92
463.316	20166.86
463.522	20474.06
463.727	21256.38
463.932	22112.43
464.138	22653.09
464.343	23666.84
464.549	23752.85
464.754	25495.67
464.959	25985.14
465.165	26333.29
465.37	26302.57
465.575	26488.94
465.781	28117.07
465.986	29126.72
466.191	28475.47
466.397	28792.9
466.602	28151.89
466.807	29861.94
467.012	30054.45
467.218	30255.15
467.423	30834.73
467.628	31522.85
467.833	33470.47
468.038	32827.4
468.244	31926.3
468.449	33783.8
468.654	32722.96
468.859	32956.43
469.064	33107.97
469.269	32544.78
469.474	32243.73
469.679	33480.71
469.885	32325.65
470.09	32948.23
470.295	33185.8
470.5	32170.01
470.705	32448.53
470.91	32047.13
471.115	31225.89
471.32	31768.6
471.525	31711.26
471.73	30847.02
471.935	30537.77
472.139	29595.71
472.344	29487.17
472.549	29483.07
472.754	28872.78
472.959	28125.27
473.164	27031.65
473.369	26804.33
473.574	27414.62
473.778	26921.06
473.983	26417.26
474.188	26179.7
474.393	24563.85
474.598	24692.87
474.802	23976.08
475.007	23582.87
475.212	23597.21
475.417	22833.32
475.621	22649
475.826	22214.83
476.031	21557.43
476.235	21422.27
476.44	21231.8
476.645	20789.44
476.849	20535.49
477.054	20287.69
477.259	19536.09
477.463	19656.92
477.668	19060.96
477.872	19232.99
478.077	18563.3
478.282	18206.95
478.486	17948.91
478.691	17637.62
478.895	17563.89
479.1	17539.32
479.304	17451.25
479.509	16849.15
479.713	17064.19
479.918	16617.73
480.122	16064.78
480.326	16181.51
480.531	16548.1
480.735	16146.7
480.94	15827.21
481.144	16595.2
481.348	15452.44
481.553	15741.2
481.757	15044.89
481.961	15347.99
482.166	15225.11
482.37	15329.56
482.574	15051.03
482.778	14850.33
482.983	15194.39
483.187	14729.5
483.391	14573.86
483.595	14276.9
483.8	14194.98
484.004	14147.88
484.208	14133.54
484.412	13787.44
484.616	13920.56
484.821	13652.27
485.025	13123.9
485.229	13451.57
485.433	13123.9
485.637	13293.88
485.841	12714.3
486.045	12611.9
486.249	12773.69
486.453	12024.14
486.657	12218.69
486.861	12020.04
487.065	11778.38
487.269	11557.2
487.473	11325.78
487.677	11452.75
487.881	11268.44
488.085	11077.97
488.289	10901.85
488.493	10441.06
488.697	10377.57
488.901	10316.13
489.105	9791.85
489.309	10045.8
489.512	9836.91
489.716	9380.21
489.92	9462.13
490.124	9091.45
490.328	9279.86
490.531	8829.31
490.735	8931.7
490.939	8800.63
491.143	8587.64
491.346	8126.85
491.55	8296.83
491.754	8087.94
491.958	8079.75
492.161	7866.76
492.365	7782.79
492.569	7420.3
492.772	7424.4
492.976	7475.6
493.18	7426.45
493.383	7219.6
493.587	7039.38
493.79	7092.63
493.994	6703.51
494.197	6922.65
494.401	6762.9
494.605	6769.05
494.808	6785.43
495.012	6728.09
495.215	6621.59
495.419	6756.76
495.622	6384.03
495.825	6416.8
496.029	6480.29
496.232	6375.84
496.436	6228.38
496.639	6492.57
496.843	6312.35
497.046	6435.23
497.249	6230.43
497.453	6556.06
497.656	6197.67
497.859	6359.45
498.063	6283.68
498.266	6457.76
498.469	6117.79
498.673	6412.7
498.876	6631.83
499.079	6531.48
499.282	6369.69
499.485	6746.52
499.689	6502.81
499.892	6791.58
500.095	6660.51
500.298	6625.69
500.501	6631.83
500.705	6842.78
500.908	6799.77
501.111	6863.26
501.314	7121.3
501.517	6932.89
501.72	7074.2
501.923	6984.09
502.126	7276.94
502.329	7383.44
502.532	7362.96
502.735	7383.44
502.938	7506.32
503.141	7743.88
503.344	7621
503.547	7823.75
503.75	7784.84
503.953	7928.2
504.156	8116.61
504.359	8028.55
504.562	8339.84
504.765	8223.11
504.968	8663.42
505.17	8835.45
505.373	8753.53
505.576	9179.51
505.779	9107.83
505.982	9230.71
506.185	9431.41
506.387	9415.02
506.59	9634.16
506.793	10072.42
506.996	10135.91
507.198	10561.89
507.401	10461.54
507.604	10940.76
507.807	10897.75
508.009	11047.26
508.212	11362.64
508.415	11489.62
508.617	11766.09
508.82	11653.45
509.022	12071.24
509.225	12407.11
509.428	12630.34
509.63	12869.95
509.833	13099.32
510.035	13771.05
510.238	13664.56
510.44	13934.89
510.643	14434.6
510.845	14807.33
511.048	14946.59
511.25	15421.72
511.453	15489.3
511.655	16156.94
511.858	16580.87
512.06	17056
512.262	17201.4
512.465	17336.57
512.667	17645.81
512.87	18112.75
513.072	18485.48
513.274	19251.42
513.477	19439.83
513.679	19927.25
513.881	20531.4
514.084	20623.56
514.286	21258.43
514.488	21749.94
514.69	22825.12
514.893	22743.2
515.095	23382.17
515.297	23568.54
515.499	24123.54
515.701	24887.43
515.904	25153.66
516.106	25798.77
516.308	26472.56
516.51	26812.52
516.712	27523.16
516.914	28055.64
517.116	28753.99
517.318	29122.63
517.52	29616.19
517.722	30240.82
517.925	30402.61
518.127	31377.44
518.329	31686.68
518.531	31961.11
518.733	32991.24
518.935	33247.24
519.136	33816.57
519.338	34617.33
519.54	35135.46
519.742	35422.18
519.944	36247.51
520.146	36792.27
520.348	37167.05
520.55	37650.37
520.752	37691.33
520.954	39106.48
521.155	38741.94
521.357	39509.93
521.559	40177.56
521.761	40918.93
521.963	41056.14
522.164	41176.97
522.366	41357.19
522.568	41877.38
522.77	42135.42
522.971	42760.05
523.173	42844.02
523.375	43579.24
523.576	43093.87
523.778	43417.45
523.98	44031.84
524.181	44394.33
524.383	44425.05
524.584	45215.57
524.786	44609.37
524.988	44711.77
525.189	44789.59
525.391	45412.17
525.592	45184.85
525.794	45131.6
525.995	44916.56
526.197	44982.1
526.398	45043.54
526.6	45059.92
526.801	45125.46
527.003	45299.53
527.204	44691.29
527.406	45295.44
527.607	44433.24
527.808	44883.8
528.01	43841.38
528.211	44048.22
528.412	44633.94
528.614	43997.02
528.815	43501.42
529.016	43970.4
529.218	42469.24
529.419	42463.1
529.62	42196.86
529.822	41721.73
530.023	41684.87
530.224	41129.87
530.425	40554.39
530.626	39995.29
530.828	39888.8
531.029	40030.11
531.23	39081.9
531.431	38596.53
531.632	38393.78
531.833	37859.26
532.035	37740.48
532.236	37187.53
532.437	37150.67
532.638	35774.43
532.839	36143.06
533.04	35721.18
533.241	34600.94
533.442	35106.79
533.643	34164.73
533.844	33861.63
534.045	33423.36
534.246	32745.48
534.447	32772.11
534.648	31856.67
534.849	31641.63
535.05	30648.36
535.251	30580.78
535.451	30115.89
535.652	30091.32
535.853	29337.66
536.054	29063.24
536.255	28614.73
536.456	27957.33
536.657	28233.81
536.857	27660.38
537.058	26935.4
537.259	27156.58
537.46	26859.62
537.66	26622.06
537.861	25761.91
538.062	25448.57
538.263	25213.06
538.463	25077.89
538.664	24924.29
538.865	24359.05
539.065	24127.63
539.266	23771.29
539.466	23822.48
539.667	23034.02
539.868	23021.73
540.068	22601.9
540.269	22423.72
540.469	22356.14
540.67	22065.33
540.87	21547.19
541.071	21115.07
541.271	21223.61
541.472	20897.99
541.672	20740.29
541.873	20158.67
542.073	19833.04
542.274	20277.45
542.474	19734.74
542.675	19538.13
542.875	19413.21
543.075	19083.48
543.276	18847.97
543.476	18782.43
543.676	18381.03
543.877	18168.04
544.077	18084.08
544.277	17637.62
544.478	17580.28
544.678	17336.57
544.878	17244.41
545.078	17178.87
545.279	16851.2
545.479	16548.1
545.679	16408.84
545.879	16007.44
546.079	15976.72
546.28	15939.85
546.48	15794.45
546.68	15530.26
546.88	15307.03
547.08	15221.02
547.28	15094.04
547.48	14555.43
547.68	14795.04
547.88	14215.46
548.081	14498.08
548.281	13852.97
548.481	13773.1
548.681	13863.21
548.881	13693.23
549.081	13365.56
549.28	13015.35
549.48	12970.3
549.68	12958.01
549.88	12898.62
550.08	12527.94
550.28	12632.38
550.48	12407.11
550.68	12101.96
550.88	11661.65
551.08	11673.93
551.279	11395.41
551.479	11284.82
551.679	11061.59
551.879	10873.18
552.079	11006.3
552.278	10678.62
552.478	10809.69
552.678	10443.1
552.878	10396
553.077	10164.58
553.277	9789.8
553.477	9828.71
553.676	9496.94
553.876	9527.66
554.076	9357.68
554.275	9298.29
554.475	8878.46
554.674	8931.7
554.874	8694.14
555.074	8571.26
555.273	8454.53
555.473	8458.62
555.672	8286.59
555.872	8077.7
556.071	7979.4
556.271	8010.12
556.47	7643.53
556.67	7596.43
556.869	7508.37
557.068	7332.24
557.268	7307.66
557.467	7106.96
557.667	6965.65
557.866	6840.73
558.065	6576.54
558.265	6662.55
558.464	6498.72
558.663	6556.06
558.863	6234.53
559.062	6269.34
559.261	6031.78
559.461	6070.69
559.66	5796.26
559.859	5790.12
560.058	5806.5
560.258	5593.51
560.457	5597.61
560.656	5667.24
560.855	5269.94
561.054	5323.18
561.253	5151.15
561.453	5183.92
561.652	5001.65
561.851	5104.05
562.05	4803
562.249	4786.61
562.448	4751.8
562.647	4630.97
562.846	4526.52
563.045	4651.45
563.244	4450.75
563.443	4514.24
563.642	4329.92
563.841	4360.64
564.04	4192.7
564.239	4221.38
564.438	3949
564.637	3873.22
564.836	3975.62
565.035	3946.95
565.234	3836.36
565.432	3867.08
565.631	3795.4
565.83	3660.23
566.029	3576.27
566.228	3465.68
566.427	3588.55
566.625	3283.41
566.824	3496.39
567.023	3394
567.222	3348.94
567.42	3279.31
567.619	3199.44
567.818	3123.66
568.016	3140.05
568.215	3033.55
568.414	3039.7
568.612	2976.21
568.811	3041.75
569.01	2968.02
569.208	2798.04
569.407	2890.2
569.605	2707.93
569.804	2687.45
570.002	2621.91
570.201	2628.06
570.4	2587.1
570.598	2517.47
570.797	2384.35
570.995	2415.07
571.193	2423.26
571.392	2400.73
571.59	2314.72
571.789	2279.9
571.987	2427.35
572.186	2263.52
572.384	2281.95
572.582	2247.13
572.781	2220.51
572.979	1954.27
573.177	2107.87
573.376	2073.06
573.574	2150.88
573.772	1941.99
573.971	1849.83
574.169	1763.81
574.367	1882.6
574.565	1821.16
574.763	1808.87
574.962	1817.06
575.16	1823.2
575.358	1653.22
575.556	1714.66
575.754	1690.09
575.952	1632.74
576.151	1659.37
576.349	1751.53
576.547	1546.73
576.745	1567.21
576.943	1468.91
577.141	1544.68
577.339	1421.8
577.537	1393.13
577.735	1483.24
577.933	1442.28
578.131	1327.6
578.329	1493.48
578.527	1327.6
578.725	1292.78
578.923	1237.49
579.121	1350.12
579.319	1178.09
579.516	1343.98
579.714	1393.13
579.912	1241.58
580.11	1104.37
580.308	1124.85
580.506	1198.57
580.704	1047.02
580.901	1094.13
581.099	1257.96
581.297	1126.89
581.495	1122.8
581.692	1018.35
581.89	1157.61
582.088	979.44
582.285	1024.5
582.483	868.85
582.681	866.8
582.878	877.04
583.076	1006.06
583.274	911.86
583.471	1130.99
583.669	901.62
583.866	842.23
584.064	862.71
584.262	872.95
584.459	745.97
584.657	932.34
584.854	819.7
585.052	766.45
585.249	803.32
585.447	788.98
585.644	664.05
585.841	801.27
586.039	825.84
586.236	838.13
586.434	717.3
586.631	733.68
586.828	705.01
587.026	678.39
587.223	582.14
587.42	643.57
587.618	715.25
587.815	684.53
588.012	631.29
588.21	764.4
588.407	666.1
588.604	575.99
588.801	580.09
588.999	602.61
589.196	727.54
589.393	674.29
589.59	582.14
589.787	645.62
589.984	715.25
590.182	639.48
590.379	532.98
590.576	541.18
590.773	608.76
590.97	559.61
591.167	608.76
591.364	657.91
591.561	518.65
591.758	625.14
591.955	528.89
592.152	473.59
592.349	457.21
592.546	537.08
592.743	543.22
592.94	481.78
593.137	608.76
593.334	584.18
593.531	641.53
593.727	598.52
593.924	575.99
594.121	606.71
594.318	563.7
594.515	559.61
594.712	655.86
594.908	705.01
595.105	563.7
595.302	645.62
595.499	592.37
595.696	709.11
595.892	557.56
596.089	702.97
596.286	686.58
596.482	748.02
596.679	705.01
596.876	641.53
597.072	772.6
597.269	752.12
597.466	780.79
597.662	727.54
597.859	702.97
598.055	793.08
598.252	854.51
598.448	918
598.645	885.23
598.841	979.44
599.038	1059.31
599.234	1018.35
599.431	1075.7
599.627	1047.02
599.824	1092.08
600.02	1090.03
600.217	1153.52
600.413	1280.49
600.609	1346.03
600.806	1378.79
601.002	1448.43
601.198	1341.93
601.395	1622.5
601.591	1624.55
601.787	1532.39
601.984	1655.27
602.18	1690.09
602.376	1735.14
602.572	1827.3
602.769	1937.89
602.965	1960.42
603.161	2056.67
603.357	2099.68
603.553	2226.65
603.75	2202.08
603.946	2288.09
604.142	2406.88
604.338	2558.42
604.534	2429.4
604.73	2709.97
604.926	2730.45
605.122	2904.53
605.318	2832.85
605.514	3031.51
605.71	3023.31
605.906	3164.62
606.102	3203.54
606.298	3355.08
606.494	3545.55
606.69	3609.03
606.886	3574.22
607.082	3693
607.278	3862.98
607.474	3996.1
607.67	4053.44
607.866	4024.77
608.062	4336.06
608.257	4391.36
608.453	4532.67
608.649	4694.46
608.845	4811.19
609.041	4901.3
609.236	5165.49
609.432	5192.11
609.628	5329.33
609.824	5587.37
610.019	5593.51
610.215	5826.98
610.411	6048.16
610.606	5994.92
610.802	6232.48
610.998	6429.09
611.193	6642.07
611.389	6781.34
611.584	6959.51
611.78	6889.88
611.976	7170.45
612.171	7534.99
612.367	7774.6
612.562	7889.29
612.758	8081.8
612.953	8046.98
613.149	8460.67
613.344	8509.82
613.539	8966.52
613.735	9167.22
613.93	9378.16
614.126	9599.34
614.321	9910.63
614.517	10289.51
614.712	10543.46
614.907	10500.45
615.103	10981.72
615.298	11073.88
615.493	11413.84
615.688	11604.3
615.884	12239.17
616.079	12171.59
616.274	12736.83
616.47	13033.79
616.665	13228.34
616.86	13580.59
617.055	13732.14
617.25	14119.21
617.445	14625.06
617.641	14944.54
617.836	15393.05
618.031	15448.34
618.226	16154.89
618.421	16390.41
618.616	16861.44
618.811	16830.72
619.006	17899.76
619.201	17934.57
619.396	18469.09
619.591	18428.13
619.786	19282.14
619.981	19151.07
620.176	20093.13
620.371	20203.72
620.566	20678.85
620.761	21115.07
620.956	21729.46
621.151	21883.06
621.346	22366.38
621.541	22546.6
621.735	23513.24
621.93	23519.39
622.125	24113.3
622.32	24359.05
622.515	25161.86
622.709	25428.09
622.904	25800.82
623.099	26046.58
623.294	26927.21
623.488	26828.9
623.683	27783.26
623.878	27904.09
624.072	28528.72
624.267	29100.1
624.462	29364.29
624.656	29405.25
624.851	30568.49
625.046	30953.51
625.24	31363.11
625.435	31397.92
625.629	32049.17
625.824	32428.05
626.018	33177.61
626.213	32837.64
626.407	33603.58
626.602	33546.24
626.796	34351.09
626.991	34459.63
627.185	34684.91
627.38	35155.94
627.574	35401.7
627.768	35112.94
627.963	35799.01
628.157	35500
628.352	36069.34
628.546	35782.62
628.74	36474.84
628.935	35762.14
629.129	36229.08
629.323	35631.07
629.517	35581.92
629.712	35518.43
629.906	35366.88
630.1	34514.93
630.294	34822.12
630.489	33748.99
630.683	33972.22
630.877	33363.97
631.071	32759.82
631.265	32342.03
631.459	31440.93
631.653	30945.32
631.848	30560.3
632.042	29599.8
632.236	29026.37
632.43	28176.47
632.624	27912.28
632.818	26744.94
633.012	26251.38
633.206	25032.83
633.4	24582.28
633.594	23492.76
633.788	23130.27
633.982	22190.25
634.176	21389.5
634.369	20486.34
634.563	19800.27
634.757	18854.11
634.951	18303.21
635.145	17682.67
635.339	17090.81
635.533	16167.18
635.726	15755.54
635.92	14989.6
636.114	14328.1
636.308	13834.54
636.501	13291.83
636.695	12898.62
636.889	12003.66
637.083	11872.59
637.276	11362.64
637.47	10750.3
637.664	10404.19
637.857	9922.92
638.051	9392.5
638.244	9042.29
638.438	8890.74
638.632	8524.16
638.825	7973.25
639.019	7936.39
639.212	7352.72
639.406	7352.72
639.599	6908.31
639.793	6625.69
639.986	6326.69
640.18	6048.16
640.373	5872.04
640.567	5663.15
640.76	5396.91
640.954	5280.18
641.147	5118.39
641.34	4860.34
641.534	4770.23
641.727	4547
641.92	4338.11
642.114	4131.26
642.307	4000.19
642.5	3928.52
642.694	3557.83
642.887	3527.11
643.08	3559.88
643.273	3303.89
643.467	3078.61
643.66	3062.23
643.853	2879.96
644.046	2875.86
644.239	2896.34
644.432	2558.42
644.626	2441.69
644.819	2374.11
645.012	2367.96
645.205	2228.7
645.398	2204.13
645.591	2032.1
645.784	2009.57
645.977	1898.98
646.17	1817.06
646.363	1714.66
646.556	1606.12
646.749	1571.3
646.942	1634.79
647.135	1577.45
647.328	1497.58
647.521	1485.29
647.714	1386.99
647.907	1260.01
648.099	1165.81
648.292	1272.3
648.485	1194.48
648.678	1075.7
648.871	1010.16
649.064	1090.03
649.256	885.23
649.449	985.58
649.642	887.28
649.835	854.51
650.027	770.55
650.22	913.91
650.413	805.36
650.605	821.75
650.798	774.64
650.991	674.29
651.183	735.73
651.376	715.25
651.568	725.49
651.761	596.47
651.954	629.24
652.146	539.13
652.339	602.61
652.531	731.64
652.724	539.13
652.916	559.61
653.109	295.42
653.301	510.46
653.494	565.75
653.686	465.4
653.879	520.7
654.071	465.4
654.263	395.77
654.456	408.06
654.648	475.64
654.84	401.91
655.033	401.91
655.225	459.26
655.417	272.89
655.61	399.87
655.802	483.83
655.994	516.6
656.186	225.79
656.379	403.96
656.571	328.19
656.763	334.33
656.955	236.03
657.148	328.19
657.34	348.67
657.532	264.7
657.724	279.04
657.916	299.52
658.108	303.61
658.3	266.75
658.492	272.89
658.684	227.84
658.876	227.84
659.068	168.45
659.26	203.26
659.452	158.21
659.644	242.17
659.836	340.47
660.028	215.55
660.22	190.97
660.412	244.22
660.604	147.97
660.796	248.32
660.988	254.46
661.18	199.16
661.372	260.6
661.563	133.63
661.755	182.78
661.947	178.69
662.139	125.44
662.331	172.54
662.522	186.88
662.714	109.05
662.906	166.4
663.097	188.93
663.289	111.1
663.481	39.42
663.673	182.78
663.864	141.82
664.056	111.1
664.247	82.43
664.439	188.93
664.631	125.44
664.822	164.35
665.014	156.16
665.205	51.71
665.397	117.25
665.588	143.87
665.78	174.59
665.971	201.21
666.163	100.86
666.354	211.45
666.546	92.67
666.737	88.57
666.929	123.39
667.12	-11.78
667.311	184.83
667.503	104.96
667.694	150.01
667.885	141.82
668.077	147.97
668.268	41.47
668.459	141.82
668.651	182.78
668.842	125.44
669.033	80.38
669.224	-65.02
669.416	207.36
669.607	92.67
669.798	92.67
669.989	236.03
670.18	137.73
670.371	156.16
670.563	31.23
670.754	188.93
670.945	240.12
671.136	137.73
671.327	41.47
671.518	170.49
671.709	174.59
671.9	156.16
672.091	225.79
672.282	152.06
672.473	203.26
672.664	45.57
672.855	59.9
673.046	186.88
673.237	184.83
673.428	141.82
673.619	172.54
673.809	166.4
674	123.39
674.191	156.16
674.382	143.87
674.573	127.49
674.764	133.63
674.954	162.3
675.145	121.34
675.336	64
675.527	61.95
675.717	98.81
675.908	98.81
676.099	57.86
676.289	156.16
676.48	-1.54
676.671	174.59
676.861	98.81
677.052	174.59
677.243	145.92
677.433	25.09
677.624	197.12
677.814	154.11
678.005	117.25
678.195	215.55
678.386	100.86
678.576	150.01
678.767	121.34
678.957	133.63
679.148	229.88
679.338	186.88
679.529	213.5
679.719	66.05
679.909	227.84
680.1	236.03
680.29	182.78
680.481	117.25
680.671	250.36
680.861	190.97
681.052	203.26
681.242	127.49
681.432	246.27
681.622	219.64
681.813	59.9
682.003	137.73
682.193	244.22
682.383	174.59
682.573	199.16
682.764	156.16
682.954	229.88
683.144	297.47
683.334	109.05
683.524	160.25
683.714	190.97
683.904	266.75
684.094	203.26
684.284	188.93
684.474	254.46
684.664	248.32
684.854	195.07
685.044	256.51
685.234	258.56
685.424	338.43
685.614	176.64
685.804	313.85
685.994	295.42
686.184	223.74
686.374	223.74
686.564	207.36
686.753	201.21
686.943	121.34
687.133	152.06
687.323	178.69
687.513	219.64
687.702	229.88
687.892	238.08
688.082	236.03
688.272	297.47
688.461	266.75
688.651	350.71
688.841	246.27
689.03	231.93
689.22	227.84
689.41	211.45
689.599	207.36
689.789	125.44
689.979	360.95
690.168	252.41
690.358	295.42
690.547	244.22
690.737	219.64
690.926	215.55
691.116	152.06
691.305	264.7
691.495	260.6
691.684	160.25
691.874	150.01
692.063	145.92
692.252	238.08
692.442	209.4
692.631	236.03
692.82	281.08
693.01	207.36
693.199	182.78
693.388	301.56
693.578	160.25
693.767	313.85
693.956	293.37
694.146	143.87
694.335	260.6
694.524	190.97
694.713	225.79
694.902	176.64
695.092	109.05
695.281	248.32
695.47	172.54
695.659	137.73
695.848	121.34
696.037	190.97
696.226	231.93
696.415	184.83
696.604	270.84
696.793	281.08
696.982	205.31
697.171	283.13
697.36	182.78
697.549	274.94
697.738	-9.73
697.927	141.82
698.116	215.55
698.305	221.69
698.494	162.3
698.683	139.77
698.872	328.19
699.061	170.49
699.25	172.54
699.438	260.6
699.627	158.21
699.816	254.46
700.005	131.58
700.193	92.67
700.382	215.55
700.571	190.97
700.76	203.26
700.948	305.66
701.137	236.03
701.326	279.04
701.514	119.29
701.703	197.12
701.892	256.51
702.08	358.91
702.269	107.01
702.457	135.68
702.646	203.26
702.834	213.5
703.023	223.74
703.212	264.7
703.4	211.45
703.589	162.3
703.777	143.87
703.965	152.06
704.154	156.16
704.342	166.4
704.531	94.72
704.719	229.88
704.907	207.36
705.096	147.97
705.284	166.4
705.472	252.41
705.661	203.26
705.849	240.12
706.037	227.84
706.226	170.49
706.414	211.45
706.602	82.43
706.79	264.7
706.979	195.07
707.167	162.3
707.355	127.49
707.543	238.08
707.731	260.6
707.919	211.45
708.107	199.16
708.296	76.29
708.484	139.77
708.672	313.85
708.86	207.36
709.048	207.36
709.236	74.24
709.424	217.6
709.612	219.64
709.8	64
709.988	174.59
710.176	238.08
710.364	236.03
710.551	190.97
710.739	145.92
710.927	137.73
711.115	137.73
711.303	233.98
711.491	281.08
711.679	137.73
711.866	240.12
712.054	145.92
712.242	168.45
712.43	229.88
712.617	186.88
712.805	311.8
712.993	178.69
713.181	94.72
713.368	156.16
713.556	143.87
713.744	127.49
713.931	403.96
714.119	358.91
714.306	229.88
714.494	186.88
714.682	287.23
714.869	135.68
715.057	279.04
715.244	104.96
715.432	131.58
715.619	64
715.807	229.88
715.994	199.16
716.182	238.08
716.369	264.7
716.556	205.31
716.744	180.73
716.931	125.44
717.119	211.45
717.306	236.03
717.493	272.89
717.681	150.01
717.868	186.88
718.055	246.27
718.242	207.36
718.43	229.88
718.617	297.47
718.804	195.07
718.991	213.5
719.179	238.08
719.366	336.38
719.553	330.23
719.74	203.26
719.927	225.79
720.114	231.93
720.301	240.12
720.488	133.63
720.676	158.21
720.863	293.37
721.05	334.33
721.237	190.97
721.424	223.74
721.611	213.5
721.798	180.73
721.985	219.64
722.172	252.41
722.358	252.41
722.545	293.37
722.732	299.52
722.919	291.32
723.106	379.39
723.293	227.84
723.48	209.4
723.667	231.93
723.853	254.46
724.04	195.07
724.227	320
724.414	195.07
724.6	295.42
724.787	311.8
724.974	330.23
725.161	240.12
725.347	201.21
725.534	219.64
725.72	270.84
725.907	301.56
726.094	258.56
726.28	217.6
726.467	258.56
726.653	207.36
726.84	311.8
727.027	346.62
727.213	248.32
727.4	317.95
727.586	266.75
727.773	227.84
727.959	307.71
728.145	328.19
728.332	295.42
728.518	166.4
728.705	356.86
728.891	285.18
729.077	229.88
729.264	207.36
729.45	227.84
729.636	231.93
729.823	223.74
730.009	342.52
730.195	285.18
730.382	313.85
730.568	285.18
730.754	377.34
730.94	246.27
731.126	305.66
731.313	324.09
731.499	276.99
731.685	367.1
731.871	274.94
732.057	338.43
732.243	317.95
732.429	297.47
732.615	403.96
732.801	352.76
732.987	260.6
733.173	268.8
733.359	258.56
733.545	365.05
733.731	279.04
733.917	408.06
734.103	307.71
734.289	338.43
734.475	211.45
734.661	434.68
734.847	287.23
735.033	272.89
735.219	313.85
735.404	244.22
735.59	262.65
735.776	297.47
735.962	324.09
736.148	387.58
736.333	375.29
736.519	283.13
736.705	287.23
736.89	346.62
737.076	336.38
737.262	229.88
737.447	207.36
737.633	276.99
737.819	387.58
738.004	301.56
738.19	387.58
738.375	262.65
738.561	371.19
738.747	250.36
738.932	252.41
739.118	451.07
739.303	313.85
739.489	346.62
739.674	270.84
739.859	299.52
740.045	350.71
740.23	389.63
740.416	158.21
740.601	246.27
740.786	262.65
740.972	246.27
741.157	301.56
741.342	266.75
741.528	301.56
741.713	412.15
741.898	240.12
742.084	334.33
742.269	246.27
742.454	363
742.639	444.92
742.824	268.8
743.01	344.57
743.195	469.5
743.38	320
743.565	352.76
743.75	340.47
743.935	309.76
744.12	442.87
744.305	285.18
744.49	307.71
744.675	297.47
744.86	322.04
745.045	219.64
745.23	369.15
745.415	295.42
745.6	311.8
745.785	262.65
745.97	317.95
746.155	334.33
746.34	371.19
746.525	264.7
746.71	340.47
746.895	137.73
747.079	207.36
747.264	215.55
747.449	281.08
747.634	399.87
747.819	305.66
748.003	299.52
748.188	223.74
748.373	371.19
748.557	199.16
748.742	287.23
748.927	315.9
749.111	213.5
749.296	264.7
749.481	287.23
749.665	262.65
749.85	188.93
750.034	309.76
750.219	264.7
750.404	174.59
750.588	276.99
750.773	207.36
750.957	244.22
751.141	279.04
751.326	264.7
751.51	195.07
751.695	229.88
751.879	252.41
752.064	326.14
752.248	203.26
752.432	297.47
752.617	315.9
752.801	311.8
752.985	190.97
753.17	293.37
753.354	289.28
753.538	250.36
753.722	170.49
753.907	219.64
754.091	168.45
754.275	264.7
754.459	154.11
754.643	131.58
754.828	260.6
755.012	188.93
755.196	174.59
755.38	285.18
755.564	172.54
755.748	150.01
755.932	227.84
756.116	266.75
756.3	225.79
756.484	215.55
756.668	297.47
756.852	160.25
757.036	125.44
757.22	276.99
757.404	109.05
757.588	160.25
757.772	229.88
757.956	94.72
758.14	336.38
758.323	145.92
758.507	219.64
758.691	211.45
758.875	197.12
759.059	223.74
759.242	141.82
759.426	150.01
759.61	174.59
759.794	182.78
759.977	252.41
760.161	315.9
760.345	172.54
760.528	203.26
760.712	190.97
760.895	125.44
761.079	215.55
761.263	113.15
761.446	90.62
761.63	170.49
761.813	270.84
761.997	156.16
762.18	156.16
762.364	215.55
762.547	51.71
762.731	80.38
762.914	107.01
763.098	125.44
763.281	178.69
763.464	100.86
763.648	199.16
763.831	98.81
764.015	154.11
764.198	229.88
764.381	107.01
764.564	150.01
764.748	219.64
764.931	168.45
765.114	133.63
765.297	199.16
765.481	66.05
765.664	117.25
765.847	57.86
766.03	276.99
766.213	59.9
766.397	115.2
766.58	25.09
766.763	197.12
766.946	64
767.129	111.1
767.312	88.57
767.495	100.86
767.678	68.09
767.861	74.24
768.044	80.38
768.227	152.06
768.41	84.48
768.593	186.88
768.776	195.07
768.959	51.71
769.142	223.74
769.324	94.72
769.507	154.11
769.69	68.09
769.873	133.63
770.056	256.51
770.239	121.34
770.421	213.5
770.604	107.01
770.787	107.01
770.97	137.73
771.152	164.35
771.335	174.59
771.518	72.19
771.7	186.88
771.883	219.64
772.066	141.82
772.248	64
772.431	190.97
772.613	164.35
772.796	84.48
772.978	129.53
773.161	166.4
773.343	68.09
773.526	147.97
773.708	-17.92
773.891	72.19
774.073	68.09
774.256	131.58
774.438	219.64
774.621	43.52
774.803	137.73
774.985	133.63
775.168	205.31
775.35	117.25
775.532	133.63
775.715	2.56
775.897	115.2
776.079	109.05
776.261	74.24
776.444	76.29
776.626	88.57
776.808	18.94
776.99	31.23
777.173	88.57
777.355	59.9
777.537	86.53
777.719	141.82
777.901	18.94
778.083	-36.35
778.265	-36.35
778.447	152.06
778.629	-24.06
778.811	68.09
778.993	100.86
779.175	84.48
779.357	141.82
779.539	-56.83
779.721	94.72
779.903	102.91
780.085	41.47
780.267	131.58
780.449	57.86
780.631	162.3
780.812	180.73
780.994	47.62
781.176	92.67
781.358	61.95
781.54	43.52
781.721	10.75
781.903	45.57
782.085	18.94
782.267	102.91
782.448	-38.4
782.63	47.62
782.812	96.77
782.993	88.57
783.175	107.01
783.357	100.86
783.538	18.94
783.72	107.01
783.901	27.14
784.083	109.05
784.264	135.68
784.446	23.04
784.627	-30.21
784.809	121.34
784.99	2.56
785.172	70.14
785.353	72.19
785.535	2.56
785.716	-13.82
785.897	76.29
786.079	102.91
786.26	76.29
786.441	96.77
786.623	-118.27
786.804	-9.73
786.985	45.57
787.167	55.81
787.348	41.47
787.529	39.42
787.71	207.36
787.891	121.34
788.073	-17.92
788.254	-38.4
788.435	74.24
788.616	70.14
788.797	6.66
788.978	14.85
789.159	35.33
789.34	125.44
789.522	59.9
789.703	-40.45
789.884	4.61
790.065	20.99
790.246	215.55
790.427	59.9
790.607	127.49
790.788	61.95
790.969	-9.73
791.15	20.99
791.331	6.66
791.512	-44.54
791.693	-38.4
791.874	-17.92
792.054	133.63
792.235	90.62
792.416	-54.78
792.597	49.66
792.778	115.2
792.958	41.47
793.139	104.96
793.32	64
793.5	18.94
793.681	78.33
793.862	45.57
794.042	41.47
794.223	-95.74
794.404	27.14
794.584	-120.32
794.765	6.66
794.945	35.33
795.126	51.71
795.306	119.29
795.487	2.56
795.667	27.14
795.848	64
796.028	109.05
796.209	27.14
796.389	45.57
796.57	74.24
796.75	-65.02
796.93	61.95
797.111	-1.54
797.291	23.04
797.471	84.48
797.652	-32.26
797.832	-19.97
798.012	74.24
798.192	-54.78
798.373	-101.89
798.553	-7.68
798.733	143.87
798.913	-58.88
799.093	51.71
799.274	61.95
799.454	45.57
799.634	29.18
799.814	109.05
799.994	84.48
800.174	23.04
800.354	18.94
800.534	-71.17
800.714	70.14
800.894	-42.5
801.074	6.66
801.254	-34.3
801.434	166.4
801.614	-5.63
801.794	-126.46
801.974	1743.33
802.154	25.09
802.334	51.71
802.514	-44.54
802.693	8.7
802.873	27.14
803.053	86.53
803.233	20.99
803.413	-7.68
803.592	-60.93
803.772	33.28
803.952	-36.35
804.131	-50.69
804.311	55.81
804.491	137.73
804.67	2.56
804.85	-28.16
805.03	96.77
805.209	123.39
805.389	-58.88
805.568	-5.63
805.748	-11.78
805.928	-30.21
806.107	41.47
806.287	39.42
806.466	35.33
806.646	-54.78
806.825	-73.21
807.004	-7.68
807.184	25.09
807.363	41.47
807.543	-13.82
807.722	-3.58
807.901	-9.73
808.081	10.75
808.26	-128.51
808.439	-1.54
808.619	74.24
808.798	-50.69
808.977	27.14
809.156	35.33
809.336	78.33
809.515	33.28
809.694	-46.59
809.873	-77.31
810.052	64
810.231	98.81
810.411	16.9
810.59	123.39
810.769	51.71
810.948	109.05
811.127	-128.51
811.306	-30.21
811.485	4.61
811.664	33.28
811.843	29.18
812.022	-71.17
812.201	-34.3
812.38	-36.35
812.559	-32.26
812.737	94.72
812.916	8.7
813.095	-65.02
813.274	96.77
813.453	8.7
813.632	6.66
813.811	10.75
813.989	-95.74
814.168	-19.97
814.347	-32.26
814.526	-69.12
814.704	162.3
814.883	94.72
815.062	-24.06
815.24	86.53
815.419	-101.89
815.598	92.67
815.776	-95.74
815.955	-75.26
816.133	-97.79
816.312	-24.06
816.49	10.75
816.669	-22.02
816.847	43.52
817.026	-34.3
817.204	6.66
817.383	-13.82
817.561	-1.54
817.74	88.57
817.918	33.28
818.097	-42.5
818.275	27.14
818.453	59.9
818.632	-11.78
818.81	-22.02
818.988	-26.11
819.167	-26.11
819.345	18.94
819.523	-79.36
819.701	47.62
819.879	-5.63
820.058	-5.63
820.236	41.47
820.414	-17.92
820.592	-32.26
820.77	6.66
820.948	-46.59
821.127	-46.59
821.305	35.33
821.483	-48.64
821.661	76.29
821.839	41.47
822.017	-99.84
822.195	25.09
822.373	61.95
822.551	80.38
822.729	55.81
822.907	-9.73
823.085	88.57
823.262	-24.06
823.44	-30.21
823.618	-24.06
823.796	-30.21
823.974	2.56
824.152	-3.58
824.329	-15.87
824.507	35.33
824.685	109.05
824.863	51.71
825.04	-52.74
825.218	86.53
825.396	121.34
825.574	-69.12
825.751	2.56
825.929	39.42
826.107	-69.12
826.284	80.38
826.462	125.44
826.639	-46.59
826.817	14.85
826.994	37.38
827.172	-40.45
827.349	107.01
827.527	12.8
827.704	-79.36
827.882	96.77
828.059	-46.59
828.237	-7.68
828.414	100.86
828.591	-30.21
828.769	18.94
828.946	6.66
829.124	80.38
829.301	125.44
829.478	-48.64
829.655	23.04
829.833	-30.21
830.01	-171.52
830.187	27.14
830.364	-30.21
830.542	-50.69
830.719	59.9
830.896	-22.02
831.073	43.52
831.25	41.47
831.427	80.38
831.604	10.75
831.782	-128.51
831.959	10.75
832.136	-34.3
832.313	35.33
832.49	-34.3
832.667	2.56
832.844	-38.4
833.021	86.53
833.198	6.66
833.374	-24.06
833.551	14.85
833.728	25.09
833.905	39.42
834.082	-81.41
834.259	4.61
834.436	57.86
834.612	-46.59
834.789	43.52
834.966	-22.02
835.143	68.09
835.319	-87.55
835.496	16.9
835.673	72.19
835.85	55.81
836.026	-36.35
836.203	74.24
836.38	78.33
836.556	-56.83
836.733	-38.4
836.909	84.48
837.086	-15.87
837.262	-87.55
837.439	-22.02
837.616	4.61
837.792	-73.21
837.968	-1.54
838.145	-134.65
838.321	55.81
838.498	53.76
838.674	82.43
838.851	-3.58
839.027	-30.21
839.203	-56.83
839.38	72.19
839.556	-9.73
839.732	141.82
839.909	-22.02
840.085	92.67
840.261	-38.4
840.437	-30.21
840.614	-5.63
840.79	6.66
840.966	82.43
841.142	18.94
841.318	-42.5
841.494	10.75
841.671	29.18
841.847	-62.98
842.023	-22.02
842.199	41.47
842.375	74.24
842.551	-69.12
842.727	-32.26
842.903	84.48
843.079	-62.98
843.255	76.29
843.431	-48.64
843.607	-7.68
843.783	-144.89
843.959	82.43
844.134	-13.82
844.31	49.66
844.486	-26.11
844.662	-101.89
844.838	31.23
845.013	86.53
845.189	88.57
845.365	2.56
845.541	-42.5
845.716	-56.83
845.892	139.77
846.068	-65.02
846.244	-48.64
846.419	-54.78
846.595	-101.89
846.77	-38.4
846.946	64
847.122	41.47
847.297	-7.68
847.473	162.3
847.648	-54.78
847.824	72.19
847.999	-67.07
848.175	12.8
848.35	51.71
848.526	96.77
848.701	76.29
848.876	25.09
849.052	25.09
849.227	-38.4
849.403	-13.82
849.578	55.81
849.753	68.09
849.929	76.29
850.104	-87.55
850.279	-26.11
850.454	14.85
850.63	70.14
850.805	10.75
850.98	-42.5
851.155	0.51
851.33	43.52
851.505	-87.55
851.681	147.97
851.856	-89.6
852.031	33.28
852.206	-26.11
852.381	-50.69
852.556	-60.93
852.731	14.85
852.906	68.09
853.081	-62.98
853.256	25.09
853.431	-32.26
853.606	-15.87
853.781	-65.02
853.956	-103.93
854.131	-11.78
854.305	-120.32
854.48	-5.63
854.655	-77.31
854.83	-50.69
855.005	-56.83
855.18	43.52
855.354	-112.13
855.529	-9.73
855.704	-50.69
855.879	88.57
856.053	-54.78
856.228	35.33
856.403	-40.45
856.577	16.9
856.752	-67.07
856.926	-13.82
857.101	-38.4
857.276	-85.5
857.45	43.52
857.625	86.53
857.799	-42.5
857.974	-36.35
858.148	-93.69
858.323	-15.87
858.497	12.8
858.672	-48.64
858.846	-65.02
859.02	4.61
859.195	-52.74
859.369	-48.64
859.543	33.28
859.718	43.52
859.892	23.04
860.066	51.71
860.241	-38.4
860.415	-62.98
860.589	-46.59
860.763	-83.45
860.938	-67.07
861.112	8.7
861.286	-42.5
861.46	0.51
861.634	-36.35
861.808	27.14
861.982	-40.45
862.157	-134.65
862.331	-24.06
862.505	-60.93
862.679	-71.17
862.853	-5.63
863.027	-81.41
863.201	117.25
863.375	-15.87
863.549	20.99
863.722	18.94
863.896	115.2
864.07	-1.54
864.244	35.33
864.418	-19.97
864.592	-17.92
864.766	25.09
864.939	-34.3
865.113	-54.78
865.287	43.52
865.461	-116.22
865.634	80.38
865.808	-13.82
865.982	-3.58
866.156	-67.07
866.329	-48.64
866.503	18.94
866.676	78.33
866.85	43.52
867.024	-9.73
867.197	6.66
867.371	2.56
867.544	-5.63
867.718	-5.63
867.891	115.2
868.065	-58.88
868.238	-50.69
868.412	72.19
868.585	33.28
868.759	-75.26
868.932	-91.65
869.105	-79.36
869.279	-38.4
869.452	-58.88
869.625	27.14
869.799	27.14
869.972	-46.59
870.145	-50.69
870.319	25.09
870.492	51.71
870.665	-101.89
870.838	-79.36
871.011	-144.89
871.185	-44.54
871.358	-73.21
871.531	0.51
871.704	-97.79
871.877	-22.02
872.05	-56.83
872.223	-50.69
872.396	25.09
872.569	31.23
872.742	-114.17
872.915	-3.58
873.088	-95.74
873.261	-62.98
873.434	35.33
873.607	-46.59
873.78	92.67
873.953	-67.07
874.126	-83.45
874.299	66.05
874.471	-50.69
874.644	-58.88
874.817	-5.63
874.99	76.29
875.163	-38.4
875.335	35.33
875.508	14.85
875.681	76.29
875.853	35.33
876.026	-3.58
876.199	55.81
876.371	-44.54
876.544	18.94
876.717	27.14
876.889	-50.69
877.062	23.04
877.234	-32.26
877.407	-22.02
877.579	-42.5
877.752	4.61
877.924	-30.21
878.097	-24.06
878.269	45.57
878.442	23.04
878.614	88.57
878.786	-5.63
878.959	-69.12
879.131	35.33
879.303	-71.17
879.476	6.66
879.648	70.14
879.82	-3.58
879.993	-71.17
880.165	-13.82
880.337	-87.55
880.509	-15.87
880.681	-48.64
880.854	-58.88
881.026	25.09
881.198	33.28
881.37	0.51
881.542	-30.21
881.714	18.94
881.886	-22.02
882.058	-15.87
882.23	23.04
882.402	-30.21
882.574	33.28
882.746	-58.88
882.918	111.1
883.09	49.66
883.262	-40.45
883.434	-65.02
883.606	-112.13
883.778	0.51
883.95	133.63
884.122	-34.3
884.293	-17.92
884.465	33.28
884.637	59.9
884.809	-73.21
884.98	29.18
885.152	23.04
885.324	10.75
885.496	-85.5
885.667	-54.78
885.839	-79.36
886.011	18.94
886.182	23.04
886.354	25.09
886.525	23.04
886.697	-62.98
886.869	-148.99
887.04	-38.4
887.212	109.05
887.383	117.25
887.555	-67.07
887.726	-136.7
887.897	-54.78
888.069	-46.59
888.24	25.09
888.412	-28.16
888.583	-17.92
888.754	-50.69
888.926	-118.27
889.097	-60.93
889.268	-69.12
889.44	57.86
889.611	-105.98
889.782	-91.65
889.953	-67.07
890.125	10.75
890.296	-48.64
890.467	-9.73
890.638	-77.31
890.809	-22.02
890.98	-79.36
891.151	29.18
891.323	115.2
891.494	6.66
891.665	-46.59
891.836	-36.35
892.007	-54.78
892.178	51.71
892.349	10.75
892.52	18.94
892.691	-22.02
892.862	-46.59
893.032	-83.45
893.203	-91.65
893.374	-34.3
893.545	53.76
893.716	-97.79
893.887	61.95
894.057	-50.69
894.228	-48.64
894.399	-73.21
894.57	59.9
894.74	-9.73
894.911	-30.21
895.082	-95.74
895.253	-22.02
895.423	-26.11
895.594	10.75
895.764	-26.11
895.935	-103.93
896.106	4.61
896.276	-26.11
896.447	23.04
896.617	-99.84
896.788	-148.99
896.958	-93.69
897.129	16.9
897.299	-101.89
897.47	127.49
897.64	20.99
897.81	-38.4
897.981	-5.63
898.151	-56.83
898.322	31.23
898.492	-38.4
898.662	-15.87
898.832	-38.4
899.003	-62.98
899.173	10.75
899.343	-89.6
899.513	-128.51
