Data from USB4F104151__85__10-34-29-535.txt Node

Date: Wed Feb 26 10:34:29 EST 2025
User: louis
Spectrometer: USB4F10415
Trigger mode: 4
Integration Time (sec): 1.000000E-1
Scans to average: 1
Electric dark correction enabled: true
Nonlinearity correction enabled: false
Boxcar width: 0
XAxis mode: Wavelengths
Number of Pixels in Spectrum: 3648
>>>>>Begin Spectral Data<<<<<
178.204	-422.91
178.424	-422.91
178.644	-422.91
178.864	-467.96
179.084	-484.34
179.304	19.46
179.524	-46.08
179.744	17.41
179.964	9.22
180.184	-17.41
180.404	-64.51
180.624	19.46
180.844	58.37
181.064	-23.55
181.283	11.26
181.503	-23.55
181.723	39.94
181.943	-123.9
182.163	119.81
182.383	-130.05
182.602	82.94
182.822	146.43
183.042	-15.36
183.262	17.41
183.482	-46.08
183.701	7.17
183.921	44.03
184.141	-91.13
184.361	39.94
184.58	62.46
184.8	13.31
185.02	-44.03
185.239	64.51
185.459	74.75
185.679	173.05
185.898	-80.89
186.118	99.33
186.338	91.13
186.557	5.12
186.777	-64.51
186.997	-3.07
187.216	-5.12
187.436	103.42
187.655	64.51
187.875	60.42
188.095	-29.7
188.314	80.89
188.534	89.09
188.753	-134.14
188.973	60.42
189.192	185.34
189.412	33.79
189.631	-7.17
189.851	7.17
190.07	128
190.29	-105.47
190.509	-54.27
190.729	13.31
190.948	58.37
191.168	185.34
191.387	64.51
191.607	-9.22
191.826	134.14
192.045	7.17
192.265	19.46
192.484	121.85
192.704	62.46
192.923	-99.33
193.142	119.81
193.362	146.43
193.581	97.28
193.8	-5.12
194.02	76.8
194.239	5.12
194.458	37.89
194.678	-15.36
194.897	48.13
195.116	66.56
195.335	17.41
195.555	41.98
195.774	-31.74
195.993	91.13
196.212	19.46
196.432	-21.5
196.651	-15.36
196.87	-25.6
197.089	164.86
197.308	23.55
197.528	78.85
197.747	-35.84
197.966	33.79
198.185	93.18
198.404	-7.17
198.623	56.32
198.842	117.76
199.062	95.23
199.281	74.75
199.5	89.09
199.719	103.42
199.938	62.46
200.157	111.61
200.376	173.05
200.595	105.47
200.814	1.02
201.033	-35.84
201.252	97.28
201.471	80.89
201.69	19.46
201.909	-33.79
202.128	70.65
202.347	50.18
202.566	29.7
202.785	-15.36
203.004	-11.26
203.223	244.73
203.442	48.13
203.661	-66.56
203.879	39.94
204.098	82.94
204.317	-41.98
204.536	87.04
204.755	35.84
204.974	125.95
205.193	-27.65
205.411	152.57
205.63	52.22
205.849	70.65
206.068	13.31
206.287	15.36
206.505	125.95
206.724	97.28
206.943	-27.65
207.162	-31.74
207.381	44.03
207.599	54.27
207.818	97.28
208.037	-17.41
208.255	99.33
208.474	52.22
208.693	5.12
208.911	54.27
209.13	150.53
209.349	-5.12
209.567	89.09
209.786	80.89
210.005	46.08
210.223	19.46
210.442	-101.37
210.661	23.55
210.879	-19.46
211.098	60.42
211.316	48.13
211.535	5.12
211.753	62.46
211.972	-29.7
212.191	-54.27
212.409	27.65
212.628	109.57
212.846	35.84
213.065	-3.07
213.283	128
213.502	46.08
213.72	80.89
213.938	-19.46
214.157	-11.26
214.375	107.52
214.594	29.7
214.812	107.52
215.031	-5.12
215.249	33.79
215.467	3.07
215.686	25.6
215.904	132.09
216.122	54.27
216.341	115.71
216.559	23.55
216.778	91.13
216.996	111.61
217.214	84.99
217.432	13.31
217.651	-64.51
217.869	46.08
218.087	76.8
218.306	11.26
218.524	-13.31
218.742	11.26
218.96	-56.32
219.179	58.37
219.397	29.7
219.615	197.63
219.833	56.32
220.051	-9.22
220.27	46.08
220.488	121.85
220.706	35.84
220.924	-56.32
221.142	-64.51
221.36	31.74
221.578	46.08
221.796	-29.7
222.015	17.41
222.233	103.42
222.451	158.72
222.669	-46.08
222.887	107.52
223.105	29.7
223.323	-3.07
223.541	-7.17
223.759	46.08
223.977	-35.84
224.195	177.15
224.413	11.26
224.631	19.46
224.849	-9.22
225.067	220.16
225.285	3.07
225.503	-9.22
225.721	-136.19
225.939	-11.26
226.157	64.51
226.375	183.29
226.592	-39.94
226.81	3.07
227.028	101.37
227.246	97.28
227.464	70.65
227.682	103.42
227.9	91.13
228.117	62.46
228.335	66.56
228.553	46.08
228.771	64.51
228.989	39.94
229.206	52.22
229.424	-48.13
229.642	-1.02
229.86	-37.89
230.077	31.74
230.295	-3.07
230.513	162.81
230.731	54.27
230.948	164.86
231.166	154.62
231.384	-13.31
231.601	-1.02
231.819	166.91
232.037	39.94
232.254	-13.31
232.472	31.74
232.689	1.02
232.907	105.47
233.125	3.07
233.342	7.17
233.56	64.51
233.777	-1.02
233.995	1.02
234.213	80.89
234.43	113.66
234.648	99.33
234.865	-1.02
235.083	60.42
235.3	-37.89
235.518	72.7
235.735	107.52
235.953	70.65
236.17	3.07
236.388	15.36
236.605	-52.22
236.822	52.22
237.04	119.81
237.257	5.12
237.475	-111.61
237.692	62.46
237.909	56.32
238.127	-29.7
238.344	-23.55
238.562	48.13
238.779	-56.32
238.996	-3.07
239.214	7.17
239.431	74.75
239.648	25.6
239.865	76.8
240.083	58.37
240.3	-5.12
240.517	-9.22
240.735	-11.26
240.952	95.23
241.169	70.65
241.386	19.46
241.603	19.46
241.821	-3.07
242.038	80.89
242.255	115.71
242.472	-13.31
242.689	21.5
242.907	113.66
243.124	97.28
243.341	1.02
243.558	-5.12
243.775	-70.65
243.992	-138.24
244.209	89.09
244.426	250.88
244.643	91.13
244.86	31.74
245.078	123.9
245.295	93.18
245.512	15.36
245.729	-25.6
245.946	-29.7
246.163	48.13
246.38	33.79
246.597	-9.22
246.814	115.71
247.031	1.02
247.248	15.36
247.464	-21.5
247.681	46.08
247.898	31.74
248.115	-21.5
248.332	-17.41
248.549	93.18
248.766	132.09
248.983	29.7
249.2	25.6
249.417	158.72
249.633	-23.55
249.85	37.89
250.067	-39.94
250.284	19.46
250.501	15.36
250.717	123.9
250.934	-66.56
251.151	-7.17
251.368	44.03
251.585	66.56
251.801	48.13
252.018	-3.07
252.235	68.61
252.451	-74.75
252.668	27.65
252.885	76.8
253.102	33.79
253.318	-21.5
253.535	-33.79
253.752	62.46
253.968	-62.46
254.185	-17.41
254.401	44.03
254.618	-19.46
254.835	-1.02
255.051	91.13
255.268	82.94
255.484	-7.17
255.701	37.89
255.917	-23.55
256.134	-50.18
256.351	-3.07
256.567	-74.75
256.784	56.32
257	-35.84
257.217	134.14
257.433	82.94
257.65	-7.17
257.866	78.85
258.082	-84.99
258.299	-21.5
258.515	-9.22
258.732	-7.17
258.948	-70.65
259.165	58.37
259.381	-48.13
259.597	54.27
259.814	7.17
260.03	52.22
260.246	-25.6
260.463	87.04
260.679	76.8
260.895	125.95
261.112	101.37
261.328	-9.22
261.544	-91.13
261.761	134.14
261.977	9.22
262.193	-46.08
262.409	89.09
262.626	-44.03
262.842	52.22
263.058	31.74
263.274	103.42
263.49	15.36
263.707	62.46
263.923	109.57
264.139	-50.18
264.355	89.09
264.571	82.94
264.787	21.5
265.004	72.7
265.22	21.5
265.436	-91.13
265.652	-23.55
265.868	35.84
266.084	-66.56
266.3	3.07
266.516	-7.17
266.732	44.03
266.948	-15.36
267.164	13.31
267.38	68.61
267.596	33.79
267.812	113.66
268.028	-58.37
268.244	-46.08
268.46	9.22
268.676	-9.22
268.892	97.28
269.108	-23.55
269.324	-13.31
269.54	-11.26
269.756	154.62
269.972	-62.46
270.188	-41.98
270.403	-13.31
270.619	25.6
270.835	-64.51
271.051	-35.84
271.267	5.12
271.483	-41.98
271.698	91.13
271.914	58.37
272.13	72.7
272.346	27.65
272.562	23.55
272.777	152.57
272.993	19.46
273.209	1.02
273.425	11.26
273.64	-91.13
273.856	39.94
274.072	19.46
274.287	-13.31
274.503	35.84
274.719	107.52
274.934	-46.08
275.15	-70.65
275.366	21.5
275.581	-39.94
275.797	50.18
276.012	-3.07
276.228	-50.18
276.444	39.94
276.659	154.62
276.875	-21.5
277.09	70.65
277.306	19.46
277.521	-17.41
277.737	29.7
277.952	72.7
278.168	31.74
278.383	-25.6
278.599	66.56
278.814	11.26
279.03	11.26
279.245	150.53
279.461	31.74
279.676	76.8
279.892	-56.32
280.107	-7.17
280.322	-11.26
280.538	76.8
280.753	-80.89
280.969	-58.37
281.184	-33.79
281.399	152.57
281.615	-11.26
281.83	56.32
282.045	-103.42
282.26	-15.36
282.476	29.7
282.691	166.91
282.906	44.03
283.122	3.07
283.337	-54.27
283.552	78.85
283.767	-23.55
283.983	46.08
284.198	-21.5
284.413	136.19
284.628	-37.89
284.843	19.46
285.058	60.42
285.274	29.7
285.489	-46.08
285.704	78.85
285.919	11.26
286.134	-29.7
286.349	109.57
286.564	15.36
286.779	48.13
286.995	-52.22
287.21	-62.46
287.425	115.71
287.64	-7.17
287.855	19.46
288.07	-80.89
288.285	31.74
288.5	103.42
288.715	93.18
288.93	27.65
289.145	-84.99
289.36	89.09
289.575	-1.02
289.79	140.29
290.004	54.27
290.219	93.18
290.434	-17.41
290.649	19.46
290.864	-9.22
291.079	27.65
291.294	56.32
291.509	64.51
291.724	107.52
291.938	37.89
292.153	35.84
292.368	-39.94
292.583	35.84
292.798	31.74
293.012	82.94
293.227	41.98
293.442	-25.6
293.657	64.51
293.871	99.33
294.086	-50.18
294.301	152.57
294.516	134.14
294.73	-39.94
294.945	-37.89
295.16	13.31
295.374	119.81
295.589	60.42
295.804	29.7
296.018	82.94
296.233	185.34
296.447	152.57
296.662	17.41
296.877	109.57
297.091	58.37
297.306	39.94
297.52	11.26
297.735	23.55
297.949	-31.74
298.164	21.5
298.378	7.17
298.593	-72.7
298.807	-33.79
299.022	37.89
299.236	117.76
299.451	23.55
299.665	35.84
299.88	-27.65
300.094	132.09
300.309	-58.37
300.523	56.32
300.737	35.84
300.952	95.23
301.166	66.56
301.381	-62.46
301.595	-17.41
301.809	39.94
302.024	5.12
302.238	-70.65
302.452	64.51
302.667	-9.22
302.881	105.47
303.095	68.61
303.309	-33.79
303.524	-78.85
303.738	15.36
303.952	15.36
304.166	91.13
304.381	-162.81
304.595	132.09
304.809	-33.79
305.023	44.03
305.237	-62.46
305.452	-41.98
305.666	144.38
305.88	87.04
306.094	80.89
306.308	27.65
306.522	66.56
306.736	41.98
306.95	48.13
307.164	35.84
307.379	-54.27
307.593	132.09
307.807	76.8
308.021	37.89
308.235	56.32
308.449	-76.8
308.663	-109.57
308.877	195.58
309.091	35.84
309.305	25.6
309.519	-41.98
309.733	72.7
309.947	-39.94
310.161	95.23
310.374	13.31
310.588	93.18
310.802	-41.98
311.016	-58.37
311.23	66.56
311.444	-56.32
311.658	15.36
311.872	50.18
312.085	119.81
312.299	115.71
312.513	111.61
312.727	15.36
312.941	-64.51
313.154	13.31
313.368	-11.26
313.582	35.84
313.796	13.31
314.009	80.89
314.223	66.56
314.437	48.13
314.651	35.84
314.864	-1.02
315.078	29.7
315.292	-74.75
315.505	19.46
315.719	80.89
315.933	44.03
316.146	25.6
316.36	25.6
316.573	109.57
316.787	46.08
317.001	84.99
317.214	-113.66
317.428	37.89
317.641	-109.57
317.855	-29.7
318.068	9.22
318.282	48.13
318.495	185.34
318.709	46.08
318.922	-5.12
319.136	144.38
319.349	52.22
319.563	-25.6
319.776	93.18
319.99	-64.51
320.203	111.61
320.417	-9.22
320.63	105.47
320.843	168.96
321.057	50.18
321.27	29.7
321.483	60.42
321.697	146.43
321.91	-5.12
322.124	25.6
322.337	97.28
322.55	-54.27
322.763	44.03
322.977	-44.03
323.19	-99.33
323.403	23.55
323.617	44.03
323.83	33.79
324.043	89.09
324.256	95.23
324.469	54.27
324.683	171.01
324.896	119.81
325.109	-27.65
325.322	-91.13
325.535	115.71
325.748	68.61
325.962	5.12
326.175	19.46
326.388	72.7
326.601	105.47
326.814	-15.36
327.027	107.52
327.24	91.13
327.453	-97.28
327.666	23.55
327.879	78.85
328.092	91.13
328.305	37.89
328.518	-66.56
328.731	-9.22
328.944	3.07
329.157	9.22
329.37	-11.26
329.583	203.77
329.796	162.81
330.009	-35.84
330.222	109.57
330.435	80.89
330.648	-25.6
330.861	27.65
331.073	-17.41
331.286	56.32
331.499	9.22
331.712	-44.03
331.925	-74.75
332.138	-25.6
332.35	74.75
332.563	-103.42
332.776	138.24
332.989	-80.89
333.202	-9.22
333.414	19.46
333.627	113.66
333.84	-3.07
334.053	15.36
334.265	35.84
334.478	-87.04
334.691	3.07
334.903	15.36
335.116	-7.17
335.329	33.79
335.541	103.42
335.754	111.61
335.966	39.94
336.179	113.66
336.392	-50.18
336.604	33.79
336.817	82.94
337.029	58.37
337.242	13.31
337.454	95.23
337.667	13.31
337.88	171.01
338.092	15.36
338.305	78.85
338.517	-87.04
338.729	54.27
338.942	115.71
339.154	-60.42
339.367	-39.94
339.579	62.46
339.792	-17.41
340.004	35.84
340.217	3.07
340.429	87.04
340.641	-31.74
340.854	-19.46
341.066	35.84
341.278	62.46
341.491	168.96
341.703	9.22
341.915	-11.26
342.128	64.51
342.34	1.02
342.552	9.22
342.764	66.56
342.977	29.7
343.189	7.17
343.401	19.46
343.613	-52.22
343.826	27.65
344.038	-72.7
344.25	58.37
344.462	-111.61
344.674	84.99
344.886	5.12
345.099	76.8
345.311	74.75
345.523	-35.84
345.735	-48.13
345.947	19.46
346.159	54.27
346.371	5.12
346.583	-52.22
346.795	115.71
347.007	1.02
347.219	31.74
347.431	64.51
347.643	121.85
347.855	15.36
348.067	138.24
348.279	13.31
348.491	78.85
348.703	89.09
348.915	-25.6
349.127	-1.02
349.339	-9.22
349.551	-23.55
349.763	58.37
349.975	-66.56
350.187	113.66
350.399	162.81
350.61	46.08
350.822	-58.37
351.034	-31.74
351.246	87.04
351.458	37.89
351.669	68.61
351.881	130.05
352.093	121.85
352.305	113.66
352.517	25.6
352.728	117.76
352.94	-13.31
353.152	103.42
353.363	-29.7
353.575	76.8
353.787	144.38
353.999	60.42
354.21	166.91
354.422	23.55
354.633	-15.36
354.845	-17.41
355.057	7.17
355.268	-39.94
355.48	128
355.692	-82.94
355.903	-56.32
356.115	-7.17
356.326	-154.62
356.538	64.51
356.749	93.18
356.961	128
357.172	25.6
357.384	-5.12
357.595	166.91
357.807	-9.22
358.018	-68.61
358.23	64.51
358.441	121.85
358.653	-9.22
358.864	3.07
359.075	-117.76
359.287	13.31
359.498	109.57
359.709	107.52
359.921	31.74
360.132	52.22
360.344	11.26
360.555	-17.41
360.766	-15.36
360.977	5.12
361.189	74.75
361.4	-33.79
361.611	52.22
361.823	121.85
362.034	35.84
362.245	-64.51
362.456	-19.46
362.667	44.03
362.879	-15.36
363.09	35.84
363.301	56.32
363.512	44.03
363.723	-41.98
363.935	11.26
364.146	60.42
364.357	-23.55
364.568	70.65
364.779	19.46
364.99	119.81
365.201	23.55
365.412	162.81
365.623	-58.37
365.834	56.32
366.045	48.13
366.256	130.05
366.467	37.89
366.678	-68.61
366.889	39.94
367.1	-11.26
367.311	56.32
367.522	19.46
367.733	25.6
367.944	44.03
368.155	1.02
368.366	60.42
368.577	66.56
368.788	76.8
368.999	-99.33
369.209	1.02
369.42	195.58
369.631	199.68
369.842	109.57
370.053	-21.5
370.264	130.05
370.474	-21.5
370.685	72.7
370.896	33.79
371.107	64.51
371.317	1.02
371.528	-58.37
371.739	62.46
371.95	72.7
372.16	60.42
372.371	-87.04
372.582	21.5
372.792	39.94
373.003	66.56
373.214	1.02
373.424	99.33
373.635	-15.36
373.846	150.53
374.056	-29.7
374.267	50.18
374.477	48.13
374.688	-84.99
374.898	27.65
375.109	15.36
375.319	-5.12
375.53	7.17
375.74	70.65
375.951	3.07
376.161	46.08
376.372	101.37
376.582	-70.65
376.793	35.84
377.003	3.07
377.214	-21.5
377.424	154.62
377.635	-64.51
377.845	-13.31
378.055	121.85
378.266	-31.74
378.476	19.46
378.686	-17.41
378.897	56.32
379.107	185.34
379.317	56.32
379.528	39.94
379.738	54.27
379.948	-72.7
380.158	128
380.369	3.07
380.579	95.23
380.789	23.55
380.999	13.31
381.21	5.12
381.42	252.92
381.63	84.99
381.84	95.23
382.05	44.03
382.261	107.52
382.471	66.56
382.681	11.26
382.891	117.76
383.101	97.28
383.311	-29.7
383.521	-11.26
383.731	80.89
383.941	89.09
384.151	68.61
384.361	-44.03
384.571	25.6
384.781	50.18
384.991	265.21
385.201	199.68
385.411	19.46
385.621	117.76
385.831	109.57
386.041	80.89
386.251	-60.42
386.461	44.03
386.671	-1.02
386.881	33.79
387.091	-29.7
387.301	54.27
387.511	29.7
387.72	91.13
387.93	105.47
388.14	-44.03
388.35	107.52
388.56	80.89
388.769	-15.36
388.979	-68.61
389.189	-56.32
389.399	56.32
389.609	76.8
389.818	72.7
390.028	72.7
390.238	62.46
390.447	-78.85
390.657	46.08
390.867	-113.66
391.076	-89.09
391.286	91.13
391.496	35.84
391.705	52.22
391.915	35.84
392.125	50.18
392.334	35.84
392.544	173.05
392.753	23.55
392.963	-7.17
393.172	-3.07
393.382	-5.12
393.591	201.72
393.801	-52.22
394.01	56.32
394.22	154.62
394.429	50.18
394.639	-11.26
394.848	15.36
395.058	62.46
395.267	33.79
395.477	48.13
395.686	41.98
395.895	195.58
396.105	291.84
396.314	93.18
396.524	-11.26
396.733	-35.84
396.942	93.18
397.152	103.42
397.361	113.66
397.57	37.89
397.78	128
397.989	31.74
398.198	218.11
398.407	27.65
398.617	41.98
398.826	87.04
399.035	9.22
399.244	82.94
399.453	13.31
399.663	62.46
399.872	52.22
400.081	-39.94
400.29	115.71
400.499	-29.7
400.708	89.09
400.917	27.65
401.127	41.98
401.336	-35.84
401.545	197.63
401.754	89.09
401.963	82.94
402.172	21.5
402.381	-1.02
402.59	13.31
402.799	-5.12
403.008	13.31
403.217	52.22
403.426	113.66
403.635	-54.27
403.844	-15.36
404.053	80.89
404.262	46.08
404.471	128
404.68	117.76
404.888	89.09
405.097	58.37
405.306	23.55
405.515	56.32
405.724	33.79
405.933	89.09
406.142	-7.17
406.35	150.53
406.559	-7.17
406.768	17.41
406.977	195.58
407.185	37.89
407.394	125.95
407.603	-99.33
407.812	27.65
408.02	62.46
408.229	62.46
408.438	15.36
408.646	-11.26
408.855	1.02
409.064	29.7
409.272	80.89
409.481	60.42
409.69	-5.12
409.898	-50.18
410.107	-9.22
410.315	80.89
410.524	1.02
410.733	64.51
410.941	44.03
411.15	74.75
411.358	130.05
411.567	166.91
411.775	23.55
411.984	21.5
412.192	35.84
412.401	33.79
412.609	263.16
412.818	72.7
413.026	107.52
413.234	-31.74
413.443	-1.02
413.651	-44.03
413.86	33.79
414.068	121.85
414.276	185.34
414.485	-23.55
414.693	183.29
414.901	171.01
415.11	84.99
415.318	27.65
415.526	17.41
415.734	144.38
415.943	-25.6
416.151	91.13
416.359	-9.22
416.567	80.89
416.776	56.32
416.984	52.22
417.192	156.67
417.4	35.84
417.608	9.22
417.817	-68.61
418.025	93.18
418.233	152.57
418.441	-52.22
418.649	29.7
418.857	80.89
419.065	97.28
419.273	-80.89
419.481	78.85
419.689	-13.31
419.897	-25.6
420.105	-46.08
420.313	84.99
420.521	183.29
420.729	113.66
420.937	-7.17
421.145	-19.46
421.353	58.37
421.561	72.7
421.769	9.22
421.977	50.18
422.185	146.43
422.393	41.98
422.601	125.95
422.809	48.13
423.017	-27.65
423.224	103.42
423.432	54.27
423.64	5.12
423.848	144.38
424.056	-52.22
424.263	35.84
424.471	60.42
424.679	46.08
424.887	-25.6
425.094	166.91
425.302	60.42
425.51	78.85
425.718	48.13
425.925	33.79
426.133	37.89
426.341	199.68
426.548	78.85
426.756	-1.02
426.964	132.09
427.171	37.89
427.379	64.51
427.586	50.18
427.794	130.05
428.001	166.91
428.209	74.75
428.417	156.67
428.624	58.37
428.832	50.18
429.039	80.89
429.247	107.52
429.454	93.18
429.662	209.92
429.869	158.72
430.076	99.33
430.284	164.86
430.491	183.29
430.699	140.29
430.906	224.25
431.114	119.81
431.321	68.61
431.528	74.75
431.736	89.09
431.943	162.81
432.15	152.57
432.358	162.81
432.565	271.36
432.772	41.98
432.979	156.67
433.187	72.7
433.394	146.43
433.601	99.33
433.808	203.77
434.016	168.96
434.223	183.29
434.43	177.15
434.637	242.68
434.844	277.5
435.052	228.35
435.259	209.92
435.466	209.92
435.673	261.12
435.88	334.84
436.087	263.16
436.294	306.17
436.501	306.17
436.708	162.81
436.915	285.69
437.122	314.36
437.329	269.31
437.537	252.92
437.743	240.64
437.95	406.52
438.157	394.23
438.364	340.99
438.571	359.42
438.778	330.75
438.985	396.28
439.192	412.67
439.399	390.14
439.606	345.08
439.813	396.28
440.02	498.68
440.227	578.55
440.433	527.35
440.64	396.28
440.847	424.95
441.054	558.07
441.261	652.28
441.467	525.3
441.674	492.54
441.881	609.27
442.088	572.41
442.294	642.04
442.501	738.29
442.708	744.44
442.914	615.41
443.121	779.25
443.328	779.25
443.534	766.96
443.741	773.11
443.948	646.13
444.154	838.64
444.361	1106.93
444.568	879.6
444.774	906.23
444.981	893.94
445.187	1104.88
445.394	1063.92
445.6	951.28
445.807	1199.09
446.013	1178.61
446.22	1035.25
446.426	1211.37
446.633	1438.7
446.839	1516.52
447.046	1299.44
447.252	1508.33
447.459	1479.66
447.665	1588.2
447.871	1653.73
448.078	1774.56
448.284	1674.21
448.491	1919.97
448.697	1749.99
448.903	1942.5
449.11	2096.1
449.316	1977.31
449.522	2026.47
449.728	2196.45
449.935	2315.23
450.141	2186.21
450.347	2556.89
450.553	2307.04
450.76	2524.12
450.966	2528.22
451.172	2706.39
451.378	2937.81
451.584	2905.04
451.791	3177.42
451.997	3320.78
452.203	3468.24
452.409	3361.74
452.615	3584.97
452.821	3449.8
453.027	3443.66
453.233	4056
453.44	3750.85
453.646	4115.39
453.852	4221.89
454.058	4240.32
454.264	4479.93
454.47	4848.57
454.676	4832.18
454.882	5358.51
455.088	5129.14
455.294	5325.74
455.5	5505.96
455.705	5856.17
455.911	5874.6
456.117	6210.47
456.323	6394.78
456.529	6470.56
456.735	7039.89
456.941	7205.78
457.147	7310.22
457.352	7560.08
457.558	7715.72
457.764	8344.45
457.97	8618.88
458.176	9106.29
458.381	9458.54
458.587	9548.65
458.793	9808.75
458.999	9898.86
459.204	11203.41
459.41	11539.28
459.616	11322.2
459.821	12155.72
460.027	12249.93
460.233	13288.25
460.438	13112.12
460.644	14232.36
460.85	14052.14
461.055	14811.93
461.261	15373.08
461.466	15055.64
461.672	15317.78
461.878	17150.71
462.083	17122.04
462.289	17361.66
462.494	18019.05
462.7	18031.34
462.905	18307.82
463.111	20060.88
463.316	20822.72
463.522	21095.1
463.727	21684.92
463.932	22530.73
464.138	23642.78
464.343	24380.04
464.549	24193.68
464.754	26323.57
464.959	26972.77
465.165	27247.2
465.37	27198.05
465.575	27513.44
465.781	29039.17
465.986	30183.99
466.191	29319.74
466.397	29702.71
466.602	29166.15
466.807	30693.93
467.012	31502.88
467.218	31754.78
467.423	31752.73
467.628	32875.02
467.833	34267.64
468.038	33757.69
468.244	33057.29
468.449	34922.99
468.654	34128.38
468.859	34071.03
469.064	34243.06
469.269	33272.32
469.474	33960.44
469.679	34716.14
469.885	33378.82
470.09	34095.61
470.295	34093.56
470.5	33178.12
470.705	33743.36
470.91	32834.06
471.115	32408.08
471.32	32563.73
471.525	32528.91
471.73	31881.75
471.935	31586.85
472.139	30390.83
472.344	30710.32
472.549	30337.59
472.754	29706.81
472.959	28615.24
473.164	28076.63
473.369	27458.14
473.574	28115.54
473.778	27736.66
473.983	27232.86
474.188	26733.16
474.393	25338.49
474.598	25358.97
474.802	25137.79
475.007	24439.44
475.212	24427.15
475.417	23483.03
475.621	23257.76
475.826	22901.41
476.031	22370.99
476.235	21820.08
476.44	22024.88
476.645	21455.54
476.849	21390.01
477.054	20611.78
477.259	20173.52
477.463	20042.45
477.668	19821.27
477.872	19950.29
478.077	19086.04
478.282	18662.12
478.486	18572
478.691	18422.5
478.895	18320.1
479.1	18189.03
479.304	18004.72
479.509	17167.1
479.713	17668.85
479.918	17175.29
480.122	16751.36
480.326	17064.7
480.531	16866.05
480.735	16565
480.94	16442.12
481.144	17013.5
481.348	15909.65
481.553	16028.43
481.757	15938.32
481.961	15860.49
482.166	15813.39
482.37	15725.33
482.574	15250.2
482.778	15342.36
482.983	15317.78
483.187	14971.68
483.391	15131.42
483.595	14691.1
483.8	14488.35
484.004	14740.26
484.208	14539.55
484.412	14525.22
484.616	14328.61
484.821	13837.1
485.025	13660.98
485.229	13912.88
485.433	13423.41
485.637	13404.98
485.841	13189.94
486.045	13073.21
486.249	13095.74
486.453	12698.43
486.657	12530.5
486.861	12262.21
487.065	11764.56
487.269	12032.84
487.473	11576.14
487.677	11627.34
487.881	11742.03
488.085	11291.48
488.289	11160.41
488.493	10584.93
488.697	10873.69
488.901	10500.96
489.105	10433.38
489.309	10134.37
489.512	10204
489.716	9728.88
489.92	9513.84
490.124	9436.02
490.328	9448.3
490.531	9085.81
490.735	9124.72
490.939	8772.47
491.143	8686.46
491.346	8362.88
491.55	8592.25
491.754	8242.05
491.958	8098.69
492.161	8141.7
492.365	8088.45
492.569	7854.98
492.772	7648.14
492.976	7601.04
493.18	7388.05
493.383	7390.1
493.587	7369.62
493.79	7418.77
493.994	6962.07
494.197	7017.36
494.401	7138.2
494.605	6921.11
494.808	6908.82
495.012	6734.75
495.215	6749.08
495.419	6742.94
495.622	6425.5
495.825	6566.81
496.029	6601.63
496.232	6681.5
496.436	6556.57
496.639	6575
496.843	6425.5
497.046	6486.94
497.249	6486.94
497.453	6609.82
497.656	6343.58
497.859	6364.06
498.063	6347.68
498.266	6431.65
498.469	6327.2
498.673	6521.76
498.876	6681.5
499.079	6675.35
499.282	6585.24
499.485	6857.62
499.689	6744.99
499.892	6808.47
500.095	6654.87
500.298	6996.89
500.501	6687.64
500.705	6960.02
500.908	6912.92
501.111	7048.08
501.314	7119.76
501.517	7082.9
501.72	7060.37
501.923	7183.25
502.126	7342.99
502.329	7443.34
502.532	7170.96
502.735	7533.45
502.938	7771.02
503.141	7734.15
503.344	7678.86
503.547	7979.91
503.75	8002.44
503.953	8027.01
504.156	8276.87
504.359	8313.73
504.562	8528.77
504.765	8330.11
504.968	8700.8
505.17	8631.16
505.373	8878.97
505.576	9003.89
505.779	9227.12
505.982	9102.2
506.185	9603.95
506.387	9618.29
506.59	9687.92
506.793	9935.72
506.996	9894.76
507.198	10736.48
507.401	10443.62
507.604	10787.68
507.807	11012.95
508.009	11289.43
508.212	11449.17
508.415	11361.11
508.617	11748.17
508.82	12032.84
509.022	11860.81
509.225	12569.41
509.428	12696.38
509.63	12958.52
509.833	13280.05
510.035	14000.94
510.238	14164.78
510.44	14345
510.643	14631.71
510.845	15199
511.048	15112.99
511.25	15643.41
511.453	15790.86
511.655	16431.88
511.858	16767.74
512.06	17158.91
512.262	17283.83
512.465	17654.51
512.667	18068.2
512.87	18266.86
513.072	18850.53
513.274	19575.51
513.477	20200.14
513.679	20394.7
513.881	20976.32
514.084	21191.36
514.286	21777.08
514.488	22182.57
514.69	22827.68
514.893	23394.97
515.095	23542.42
515.297	24179.34
515.499	24373.9
515.701	25178.75
515.904	25942.64
516.106	26227.31
516.308	26987.11
516.51	27624.03
516.712	27748.95
516.914	28580.43
517.116	29293.12
517.318	29880.89
517.52	30288.43
517.722	30614.06
517.925	31148.58
518.127	31971.86
518.329	32592.4
518.531	32641.55
518.733	33786.36
518.935	34296.31
519.136	34687.47
519.338	35492.32
519.54	35580.39
519.742	36520.4
519.944	36903.37
520.146	37515.72
520.348	38103.48
520.55	38189.5
520.752	38871.47
520.954	39719.33
521.155	39745.95
521.357	40405.4
521.559	41202.06
521.761	41863.55
521.963	41933.18
522.164	42389.88
522.366	42484.09
522.568	43290.99
522.77	43446.63
522.971	44257.63
523.173	43874.66
523.375	44575.06
523.576	44433.75
523.778	44634.45
523.98	45549.9
524.181	46045.51
524.383	45379.92
524.584	46106.94
524.786	45697.35
524.988	45680.97
525.189	45941.06
525.391	46332.22
525.592	46950.71
525.794	46494.01
525.995	46700.86
526.197	46367.04
526.398	46319.93
526.6	46856.5
526.801	46268.73
527.003	46305.6
527.204	46364.99
527.406	46190.91
527.607	45787.46
527.808	46027.07
528.01	44654.93
528.211	45439.31
528.412	45869.38
528.614	45277.52
528.815	44347.74
529.016	44118.37
529.218	44075.36
529.419	43948.39
529.62	43102.57
529.822	43051.38
530.023	42664.31
530.224	42457.46
530.425	42117.5
530.626	40989.07
530.828	40784.27
531.029	41550.21
531.23	39874.98
531.431	39346.6
531.632	40153.5
531.833	38842.8
532.035	38302.14
532.236	38007.23
532.437	37505.48
532.638	37147.08
532.839	37036.49
533.04	36946.38
533.241	35996.12
533.442	36037.08
533.643	35064.3
533.844	34497.01
534.045	34554.35
534.246	33489.41
534.447	33427.97
534.648	33079.82
534.849	32338.45
535.05	31719.96
535.251	31597.09
535.451	30937.64
535.652	30886.44
535.853	30401.07
536.054	29809.21
536.255	29336.13
536.456	29078.08
536.657	28951.11
536.857	28310.1
537.058	27955.8
537.259	27839.06
537.46	27363.93
537.66	26983.01
537.861	26780.26
538.062	26333.81
538.263	26088.05
538.463	25641.59
538.664	25424.51
538.865	24930.95
539.065	24926.85
539.266	24234.64
539.466	24261.26
539.667	23665.3
539.868	23700.12
540.068	23192.22
540.269	22985.38
540.469	22637.22
540.67	22710.95
540.87	22227.63
541.071	21832.37
541.271	21568.18
541.472	21574.33
541.672	21289.66
541.873	20816.58
542.073	20730.56
542.274	20812.48
542.474	20161.23
542.675	20007.63
542.875	19901.14
543.075	19579.61
543.276	19012.32
543.476	19383
543.676	18825.95
543.877	18664.16
544.077	18596.58
544.277	18334.44
544.478	18344.68
544.678	17951.47
544.878	17605.36
545.078	17666.8
545.279	17173.24
545.479	17031.93
545.679	16968.45
545.879	16489.22
546.079	16634.63
546.28	16403.21
546.48	15989.52
546.68	16038.67
546.88	15860.49
547.08	15692.56
547.28	15407.89
547.48	15072.03
547.68	15016.73
547.88	14701.34
548.081	14791.45
548.281	14117.67
548.481	14070.57
548.681	14148.39
548.881	13927.21
549.081	13726.51
549.28	13411.12
549.48	13292.34
549.68	13421.36
549.88	13220.66
550.08	12837.69
550.28	12612.42
550.48	12589.89
550.68	12417.86
550.88	12231.49
551.08	11830.09
551.279	12073.8
551.479	11604.81
551.679	11631.44
551.879	11209.56
552.079	11420.5
552.278	10820.44
552.478	10863.45
552.678	10744.67
552.878	10738.52
553.077	10376.03
553.277	10177.38
553.477	10034.02
553.676	9831.27
553.876	9759.6
554.076	9517.93
554.275	9595.76
554.475	9390.96
554.674	9409.39
554.874	9134.96
555.074	8844.15
555.273	8936.31
555.473	8614.78
555.672	8366.98
555.872	8301.44
556.071	8168.32
556.271	8276.87
556.47	8029.06
556.67	7797.64
556.869	7648.14
557.068	7441.29
557.268	7467.92
557.467	7435.15
557.667	7345.04
557.866	7017.36
558.065	6929.3
558.265	6724.51
558.464	6706.07
558.663	6755.22
558.863	6503.32
559.062	6413.21
559.261	6300.58
559.461	6319.01
559.66	5964.71
559.859	5995.43
560.058	5913.51
560.258	5856.17
560.457	5729.19
560.656	5637.03
560.855	5473.2
561.054	5557.16
561.253	5491.63
561.453	5424.05
561.652	5376.94
561.851	5166
562.05	5077.94
562.249	4910.01
562.448	4950.96
562.647	4746.17
562.846	4723.64
563.045	4793.27
563.244	4547.51
563.443	4553.66
563.642	4457.4
563.841	4404.16
564.04	4283.33
564.239	4258.75
564.438	4152.26
564.637	4109.25
564.836	4129.73
565.035	4010.95
565.234	3976.13
565.432	3795.91
565.631	3902.4
565.83	3877.83
566.029	3709.9
566.228	3662.79
566.427	3863.49
566.625	3425.23
566.824	3535.82
567.023	3494.86
567.222	3355.6
567.42	3333.07
567.619	3462.09
567.818	3300.3
568.016	3371.98
568.215	3210.19
568.414	3251.15
568.612	3179.47
568.811	3036.11
569.01	2931.67
569.208	2882.52
569.407	2931.67
569.605	2907.09
569.804	2745.3
570.002	2751.45
570.201	2614.23
570.4	2714.58
570.598	2628.57
570.797	2583.51
570.995	2436.06
571.193	2563.03
571.392	2427.87
571.59	2309.08
571.789	2509.79
571.987	2444.25
572.186	2366.43
572.384	2233.31
572.582	2302.94
572.781	2401.24
572.979	2077.66
573.177	2143.2
573.376	2147.3
573.574	2190.3
573.772	2075.62
573.971	1917.92
574.169	1913.83
574.367	1897.44
574.565	1922.02
574.763	1975.27
574.962	1977.31
575.16	1801.19
575.358	1741.8
575.556	1782.76
575.754	1752.04
575.952	1756.13
576.151	1778.66
576.349	1711.08
576.547	1504.23
576.745	1704.93
576.943	1577.96
577.141	1580.01
577.339	1412.07
577.537	1586.15
577.735	1561.58
577.933	1457.13
578.131	1371.12
578.329	1557.48
578.527	1405.93
578.725	1424.36
578.923	1219.57
579.121	1401.83
579.319	1203.18
579.516	1233.9
579.714	1526.76
579.912	1293.29
580.11	1068.02
580.308	1117.17
580.506	1215.47
580.704	1143.79
580.901	1125.36
581.099	1330.16
581.297	1035.25
581.495	1084.4
581.692	1057.78
581.89	1186.8
582.088	1184.75
582.285	1006.58
582.483	1045.49
582.681	1004.53
582.878	1025.01
583.076	1037.3
583.274	934.9
583.471	1108.98
583.669	1078.26
583.866	838.64
584.064	902.13
584.262	850.93
584.459	840.69
584.657	898.03
584.854	977.91
585.052	1002.48
585.249	805.88
585.447	848.88
585.644	738.29
585.841	857.07
586.039	889.84
586.236	947.19
586.434	764.92
586.631	730.1
586.828	652.28
587.026	656.37
587.223	623.61
587.42	715.77
587.618	711.67
587.815	738.29
588.012	719.86
588.21	599.03
588.407	705.53
588.604	809.97
588.801	574.46
588.999	558.07
589.196	728.05
589.393	639.99
589.59	697.33
589.787	605.17
589.984	691.19
590.182	672.76
590.379	539.64
590.576	623.61
590.773	549.88
590.97	629.75
591.167	687.09
591.364	625.65
591.561	656.37
591.758	723.96
591.955	605.17
592.152	570.36
592.349	564.22
592.546	576.5
592.743	539.64
592.94	547.83
593.137	623.61
593.334	644.09
593.531	617.46
593.727	572.41
593.924	662.52
594.121	586.74
594.318	570.36
594.515	625.65
594.712	691.19
594.908	785.4
595.105	435.19
595.302	680.95
595.499	637.94
595.696	809.97
595.892	580.6
596.089	709.62
596.286	664.57
596.482	828.4
596.679	721.91
596.876	662.52
597.072	713.72
597.269	797.68
597.466	832.5
597.662	746.48
597.859	756.72
598.055	826.36
598.252	846.84
598.448	916.47
598.645	973.81
598.841	957.43
599.038	1139.69
599.234	1068.02
599.431	1096.69
599.627	1207.28
599.824	1121.26
600.02	1184.75
600.217	1160.17
600.413	1301.48
600.609	1389.55
600.806	1604.58
601.002	1502.19
601.198	1389.55
601.395	1491.95
601.591	1604.58
601.787	1537
601.984	1776.61
602.18	1723.37
602.376	1909.73
602.572	1950.69
602.769	2167.77
602.965	1991.65
603.161	2247.65
603.357	2261.98
603.553	2440.15
603.75	2409.44
603.946	2477.02
604.142	2661.34
604.338	2724.82
604.534	2681.82
604.73	2687.96
604.926	2864.08
605.122	3103.7
605.318	3085.26
605.514	3222.48
605.71	3353.55
605.906	3357.64
606.102	3396.56
606.298	3591.11
606.494	3634.12
606.69	3820.49
606.886	3810.25
607.082	3972.04
607.278	4074.43
607.474	4217.79
607.67	4314.05
607.866	4393.92
608.062	4717.5
608.257	4703.16
608.453	4731.83
608.649	4918.2
608.845	4901.81
609.041	5094.32
609.236	5448.62
609.432	5354.41
609.628	5639.08
609.824	5782.44
610.019	6056.87
610.215	6077.35
610.411	6386.59
610.606	6554.52
610.802	6607.77
610.998	6863.77
611.193	7046.04
611.389	7216.02
611.584	7320.46
611.78	7451.53
611.976	7605.13
612.171	7947.14
612.367	8076.16
612.562	8342.4
612.758	8469.37
612.953	8729.47
613.149	9005.94
613.344	9323.38
613.539	9632.62
613.735	9853.8
613.93	9915.24
614.126	10070.89
614.321	10414.95
614.517	10859.35
614.712	11070.3
614.907	11271
615.103	11561.81
615.298	11893.58
615.493	12034.89
615.688	12204.87
615.884	12907.32
616.079	12663.61
616.274	13312.82
616.47	13689.65
616.665	14076.71
616.86	14646.05
617.055	14428.96
617.25	15186.71
617.445	15651.6
617.641	15883.02
617.836	16091.91
618.031	16581.38
618.226	17144.57
618.421	17310.46
618.616	17836.78
618.811	17926.89
619.006	18875.1
619.201	18963.17
619.396	19430.1
619.591	19538.65
619.786	20562.63
619.981	20576.97
620.176	21353.15
620.371	21605.05
620.566	22201.01
620.761	22395.56
620.956	22784.68
621.151	23165.6
621.346	23558.81
621.541	23972.5
621.735	25057.92
621.93	25096.83
622.125	25746.04
622.32	25842.29
622.515	26442.35
622.709	26962.53
622.904	27628.12
623.099	28039.76
623.294	28680.78
623.488	28478.03
623.683	29407.81
623.878	29508.16
624.072	29905.46
624.267	30792.23
624.462	31623.71
624.656	31066.66
624.851	32352.79
625.046	32610.83
625.24	33063.43
625.435	33559.04
625.629	33751.55
625.824	34241.01
626.018	34814.44
626.213	34675.18
626.407	35387.88
626.602	35316.2
626.796	36225.5
626.991	36295.13
627.185	37190.09
627.38	37112.27
627.574	37362.12
627.768	37052.87
627.963	37497.28
628.157	37394.89
628.352	38355.38
628.546	37204.42
628.74	37773.76
628.935	37478.85
629.129	37978.56
629.323	37364.17
629.517	37243.34
629.712	37366.21
629.906	36966.86
630.1	36213.21
630.294	36356.57
630.489	35676.64
630.683	35725.79
630.877	34634.22
631.071	33976.83
631.265	33769.98
631.459	33059.34
631.653	32184.85
631.848	31609.37
632.042	30724.65
632.236	30351.92
632.43	29284.93
632.624	28572.24
632.818	27322.98
633.012	26735.21
633.206	25672.31
633.4	25219.71
633.594	24054.42
633.788	23485.08
633.982	22657.7
634.176	21949.11
634.369	20976.32
634.563	20449.99
634.757	19317.47
634.951	18842.34
635.145	18225.9
635.339	17554.16
635.533	16825.09
635.726	16261.9
635.92	15160.09
636.114	14951.2
636.308	14154.54
636.501	13724.46
636.695	13208.37
636.889	12557.12
637.083	11803.47
637.276	11567.95
637.47	10869.59
637.664	10382.18
637.857	10212.2
638.051	9757.55
638.244	9261.94
638.438	9040.76
638.632	8643.45
638.825	8082.31
639.019	8022.92
639.212	7713.67
639.406	7390.1
639.599	6972.31
639.793	6781.85
639.986	6398.88
640.18	6331.3
640.373	6067.11
640.567	5698.47
640.76	5460.91
640.954	5260.21
641.147	5034.93
641.34	4930.48
641.534	4611
641.727	4682.68
641.92	4252.61
642.114	4303.81
642.307	4062.15
642.5	3863.49
642.694	3562.44
642.887	3498.95
643.08	3607.5
643.273	3439.56
643.467	3271.63
643.66	2999.25
643.853	2991.06
644.046	2923.48
644.239	2833.36
644.432	2708.44
644.626	2524.12
644.819	2532.31
645.012	2296.8
645.205	2358.24
645.398	2196.45
645.591	2063.33
645.784	2040.8
645.977	1815.52
646.17	1793
646.363	1795.04
646.556	1786.85
646.749	1530.86
646.942	1668.07
647.135	1514.47
647.328	1444.84
647.521	1438.7
647.714	1414.12
647.907	1305.58
648.099	1238
648.292	1278.96
648.485	1205.23
648.678	1092.59
648.871	959.47
649.064	1088.5
649.256	945.14
649.449	912.37
649.642	809.97
649.835	914.42
650.027	871.41
650.22	850.93
650.413	818.16
650.605	822.26
650.798	605.17
650.991	691.19
651.183	695.29
651.376	691.19
651.568	740.34
651.761	605.17
651.954	611.32
652.146	578.55
652.339	670.71
652.531	613.37
652.724	457.72
652.916	474.1
653.109	398.33
653.301	617.46
653.494	486.39
653.686	529.4
653.879	506.87
654.071	451.58
654.263	437.24
654.456	437.24
654.648	504.82
654.84	465.91
655.033	408.57
655.225	422.91
655.417	234.49
655.61	402.43
655.802	390.14
655.994	535.54
656.186	275.45
656.379	492.54
656.571	246.78
656.763	271.36
656.955	246.78
657.148	248.83
657.34	408.57
657.532	312.32
657.724	383.99
657.916	273.4
658.108	379.9
658.3	349.18
658.492	285.69
658.684	226.3
658.876	244.73
659.068	107.52
659.26	183.29
659.452	93.18
659.644	224.25
659.836	291.84
660.028	275.45
660.22	220.16
660.412	267.26
660.604	205.82
660.796	156.67
660.988	224.25
661.18	265.21
661.372	273.4
661.563	252.92
661.755	252.92
661.947	175.1
662.139	74.75
662.331	107.52
662.522	125.95
662.714	123.9
662.906	62.46
663.097	179.2
663.289	123.9
663.481	-21.5
663.673	113.66
663.864	97.28
664.056	185.34
664.247	136.19
664.439	302.08
664.631	236.54
664.822	228.35
665.014	154.62
665.205	50.18
665.397	91.13
665.588	173.05
665.78	123.9
665.971	191.49
666.163	195.58
666.354	181.25
666.546	50.18
666.737	15.36
666.929	117.76
667.12	103.42
667.311	119.81
667.503	156.67
667.694	154.62
667.885	121.85
668.077	89.09
668.268	44.03
668.459	121.85
668.651	121.85
668.842	158.72
669.033	31.74
669.224	52.22
669.416	353.27
669.607	117.76
669.798	-1.02
669.989	177.15
670.18	125.95
670.371	193.53
670.563	62.46
670.754	195.58
670.945	201.72
671.136	144.38
671.327	101.37
671.518	158.72
671.709	295.93
671.9	220.16
672.091	228.35
672.282	103.42
672.473	125.95
672.664	78.85
672.855	162.81
673.046	142.33
673.237	119.81
673.428	66.56
673.619	146.43
673.809	62.46
674	140.29
674.191	199.68
674.382	80.89
674.573	121.85
674.764	146.43
674.954	273.4
675.145	154.62
675.336	9.22
675.527	154.62
675.717	25.6
675.908	123.9
676.099	68.61
676.289	209.92
676.48	72.7
676.671	152.57
676.861	99.33
677.052	138.24
677.243	152.57
677.433	23.55
677.624	187.39
677.814	111.61
678.005	27.65
678.195	236.54
678.386	95.23
678.576	160.77
678.767	19.46
678.957	148.48
679.148	207.87
679.338	261.12
679.529	148.48
679.719	82.94
679.909	279.55
680.1	209.92
680.29	156.67
680.481	136.19
680.671	267.26
680.861	134.14
681.052	191.49
681.242	107.52
681.432	240.64
681.622	154.62
681.813	89.09
682.003	185.34
682.193	140.29
682.383	248.83
682.573	109.57
682.764	152.57
682.954	199.68
683.144	203.77
683.334	107.52
683.524	175.1
683.714	236.54
683.904	164.86
684.094	156.67
684.284	203.77
684.474	269.31
684.664	297.98
684.854	171.01
685.044	238.59
685.234	173.05
685.424	261.12
685.614	162.81
685.804	390.14
685.994	383.99
686.184	154.62
686.374	209.92
686.564	332.79
686.753	193.53
686.943	158.72
687.133	148.48
687.323	226.3
687.513	257.02
687.702	246.78
687.892	134.14
688.082	271.36
688.272	236.54
688.461	244.73
688.651	265.21
688.841	246.78
689.03	197.63
689.22	117.76
689.41	269.31
689.599	130.05
689.789	148.48
689.979	293.88
690.168	173.05
690.358	254.97
690.547	230.4
690.737	248.83
690.926	187.39
691.116	283.64
691.305	293.88
691.495	244.73
691.684	140.29
691.874	144.38
692.063	201.72
692.252	265.21
692.442	242.68
692.631	175.1
692.82	207.87
693.01	211.96
693.199	179.2
693.388	314.36
693.578	175.1
693.767	205.82
693.956	236.54
694.146	128
694.335	187.39
694.524	244.73
694.713	259.07
694.902	109.57
695.092	156.67
695.281	261.12
695.47	203.77
695.659	132.09
695.848	248.83
696.037	128
696.226	189.44
696.415	187.39
696.604	238.59
696.793	248.83
696.982	146.43
697.171	261.12
697.36	109.57
697.549	82.94
697.738	35.84
697.927	113.66
698.116	56.32
698.305	263.16
698.494	265.21
698.683	80.89
698.872	238.59
699.061	197.63
699.25	76.8
699.438	115.71
699.627	125.95
699.816	353.27
700.005	41.98
700.193	179.2
700.382	205.82
700.571	216.06
700.76	234.49
700.948	297.98
701.137	183.29
701.326	193.53
701.514	101.37
701.703	205.82
701.892	242.68
702.08	388.09
702.269	179.2
702.457	134.14
702.646	150.53
702.834	216.06
703.023	209.92
703.212	269.31
703.4	103.42
703.589	136.19
703.777	140.29
703.965	70.65
704.154	162.81
704.342	-7.17
704.531	93.18
704.719	211.96
704.907	220.16
705.096	13.31
705.284	164.86
705.472	287.74
705.661	238.59
705.849	173.05
706.037	281.6
706.226	138.24
706.414	171.01
706.602	128
706.79	207.87
706.979	95.23
707.167	121.85
707.355	89.09
707.543	148.48
707.731	232.44
707.919	144.38
708.107	132.09
708.296	89.09
708.484	93.18
708.672	234.49
708.86	187.39
709.048	148.48
709.236	142.33
709.424	216.06
709.612	228.35
709.8	68.61
709.988	179.2
710.176	220.16
710.364	271.36
710.551	156.67
710.739	130.05
710.927	121.85
711.115	209.92
711.303	197.63
711.491	244.73
711.679	39.94
711.866	136.19
712.054	154.62
712.242	238.59
712.43	224.25
712.617	123.9
712.805	197.63
712.993	160.77
713.181	56.32
713.368	254.97
713.556	162.81
713.744	156.67
713.931	306.17
714.119	267.26
714.306	138.24
714.494	74.75
714.682	164.86
714.869	56.32
715.057	158.72
715.244	101.37
715.432	193.53
715.619	142.33
715.807	230.4
715.994	154.62
716.182	189.44
716.369	246.78
716.556	207.87
716.744	93.18
716.931	97.28
717.119	216.06
717.306	232.44
717.493	195.58
717.681	201.72
717.868	58.37
718.055	209.92
718.242	189.44
718.43	236.54
718.617	248.83
718.804	121.85
718.991	287.74
719.179	273.4
719.366	189.44
719.553	265.21
719.74	222.2
719.927	115.71
720.114	144.38
720.301	152.57
720.488	138.24
720.676	125.95
720.863	332.79
721.05	328.7
721.237	173.05
721.424	289.79
721.611	279.55
721.798	99.33
721.985	136.19
722.172	181.25
722.358	138.24
722.545	224.25
722.732	168.96
722.919	308.22
723.106	203.77
723.293	203.77
723.48	246.78
723.667	166.91
723.853	324.6
724.04	185.34
724.227	345.08
724.414	183.29
724.6	216.06
724.787	295.93
724.974	349.18
725.161	236.54
725.347	173.05
725.534	136.19
725.72	269.31
725.907	320.51
726.094	228.35
726.28	177.15
726.467	175.1
726.653	140.29
726.84	388.09
727.027	357.37
727.213	205.82
727.4	244.73
727.586	191.49
727.773	259.07
727.959	277.5
728.145	214.01
728.332	263.16
728.518	230.4
728.705	216.06
728.891	246.78
729.077	316.41
729.264	175.1
729.45	246.78
729.636	248.83
729.823	254.97
730.009	318.46
730.195	320.51
730.382	232.44
730.568	162.81
730.754	257.02
730.94	183.29
731.126	285.69
731.313	246.78
731.499	259.07
731.685	390.14
731.871	269.31
732.057	306.17
732.243	318.46
732.429	302.08
732.615	236.54
732.801	316.41
732.987	242.68
733.173	254.97
733.359	220.16
733.545	254.97
733.731	330.75
733.917	314.36
734.103	334.84
734.289	293.88
734.475	201.72
734.661	359.42
734.847	273.4
735.033	308.22
735.219	316.41
735.404	265.21
735.59	177.15
735.776	279.55
735.962	328.7
736.148	283.64
736.333	349.18
736.519	293.88
736.705	275.45
736.89	187.39
737.076	306.17
737.262	187.39
737.447	224.25
737.633	259.07
737.819	400.38
738.004	254.97
738.19	269.31
738.375	324.6
738.561	310.27
738.747	330.75
738.932	128
739.118	461.82
739.303	302.08
739.489	326.65
739.674	242.68
739.859	230.4
740.045	328.7
740.23	252.92
740.416	199.68
740.601	316.41
740.786	281.6
740.972	236.54
741.157	175.1
741.342	289.79
741.528	158.72
741.713	359.42
741.898	207.87
742.084	218.11
742.269	216.06
742.454	289.79
742.639	277.5
742.824	238.59
743.01	340.99
743.195	316.41
743.38	232.44
743.565	242.68
743.75	269.31
743.935	281.6
744.12	355.32
744.305	193.53
744.49	203.77
744.675	197.63
744.86	269.31
745.045	273.4
745.23	295.93
745.415	259.07
745.6	310.27
745.785	252.92
745.97	363.51
746.155	216.06
746.34	297.98
746.525	189.44
746.71	312.32
746.895	248.83
747.079	214.01
747.264	168.96
747.449	316.41
747.634	353.27
747.819	297.98
748.003	144.38
748.188	189.44
748.373	275.45
748.557	336.89
748.742	205.82
748.927	312.32
749.111	162.81
749.296	238.59
749.481	314.36
749.665	183.29
749.85	99.33
750.034	359.42
750.219	193.53
750.404	185.34
750.588	269.31
750.773	119.81
750.957	209.92
751.141	166.91
751.326	203.77
751.51	191.49
751.695	218.11
751.879	148.48
752.064	334.84
752.248	130.05
752.432	289.79
752.617	263.16
752.801	246.78
752.985	240.64
753.17	269.31
753.354	207.87
753.538	277.5
753.722	99.33
753.907	119.81
754.091	148.48
754.275	263.16
754.459	148.48
754.643	173.05
754.828	203.77
755.012	168.96
755.196	134.14
755.38	234.49
755.564	113.66
755.748	203.77
755.932	203.77
756.116	142.33
756.3	154.62
756.484	60.42
756.668	195.58
756.852	54.27
757.036	205.82
757.22	154.62
757.404	74.75
757.588	105.47
757.772	168.96
757.956	191.49
758.14	265.21
758.323	95.23
758.507	187.39
758.691	99.33
758.875	164.86
759.059	257.02
759.242	70.65
759.426	117.76
759.61	246.78
759.794	13.31
759.977	195.58
760.161	357.37
760.345	252.92
760.528	205.82
760.712	136.19
760.895	179.2
761.079	50.18
761.263	76.8
761.446	132.09
761.63	70.65
761.813	183.29
761.997	35.84
762.18	101.37
762.364	171.01
762.547	76.8
762.731	115.71
762.914	140.29
763.098	87.04
763.281	93.18
763.464	138.24
763.648	140.29
763.831	91.13
764.015	-37.89
764.198	146.43
764.381	125.95
764.564	91.13
764.748	125.95
764.931	146.43
765.114	58.37
765.297	158.72
765.481	39.94
765.664	97.28
765.847	95.23
766.03	220.16
766.213	41.98
766.397	119.81
766.58	35.84
766.763	150.53
766.946	132.09
767.129	27.65
767.312	-50.18
767.495	146.43
767.678	101.37
767.861	113.66
768.044	54.27
768.227	44.03
768.41	136.19
768.593	91.13
768.776	78.85
768.959	138.24
769.142	109.57
769.324	13.31
769.507	62.46
769.69	111.61
769.873	60.42
770.056	283.64
770.239	66.56
770.421	179.2
770.604	46.08
770.787	105.47
770.97	113.66
771.152	31.74
771.335	162.81
771.518	-3.07
771.7	189.44
771.883	187.39
772.066	66.56
772.248	105.47
772.431	171.01
772.613	107.52
772.796	87.04
772.978	128
773.161	160.77
773.343	54.27
773.526	3.07
773.708	-21.5
773.891	-33.79
774.073	48.13
774.256	9.22
774.438	160.77
774.621	3.07
774.803	80.89
774.985	-1.02
775.168	58.37
775.35	111.61
775.532	56.32
775.715	-13.31
775.897	138.24
776.079	48.13
776.261	103.42
776.444	66.56
776.626	138.24
776.808	3.07
776.99	-7.17
777.173	115.71
777.355	72.7
777.537	58.37
777.719	121.85
777.901	66.56
778.083	64.51
778.265	-11.26
778.447	128
778.629	-31.74
778.811	54.27
778.993	103.42
779.175	166.91
779.357	27.65
779.539	-62.46
779.721	33.79
779.903	68.61
780.085	1.02
780.267	80.89
780.449	87.04
780.631	62.46
780.812	105.47
780.994	70.65
781.176	44.03
781.358	109.57
781.54	105.47
781.721	91.13
781.903	41.98
782.085	-17.41
782.267	168.96
782.448	-56.32
782.63	-52.22
782.812	66.56
782.993	39.94
783.175	115.71
783.357	13.31
783.538	23.55
783.72	-3.07
783.901	-41.98
784.083	50.18
784.264	44.03
784.446	-115.71
784.627	-78.85
784.809	152.57
784.99	9.22
785.172	76.8
785.353	72.7
785.535	3.07
785.716	-31.74
785.897	-29.7
786.079	17.41
786.26	76.8
786.441	41.98
786.623	-95.23
786.804	13.31
786.985	113.66
787.167	15.36
787.348	-1.02
787.529	9.22
787.71	193.53
787.891	54.27
788.073	-31.74
788.254	-37.89
788.435	101.37
788.616	46.08
788.797	-11.26
788.978	-3.07
789.159	-7.17
789.34	39.94
789.522	35.84
789.703	15.36
789.884	3.07
790.065	76.8
790.246	199.68
790.427	3.07
790.607	105.47
790.788	25.6
790.969	-39.94
791.15	48.13
791.331	-19.46
791.512	21.5
791.693	-119.81
791.874	-41.98
792.054	179.2
792.235	87.04
792.416	17.41
792.597	-35.84
792.778	82.94
792.958	17.41
793.139	52.22
793.32	21.5
793.5	9.22
793.681	111.61
793.862	93.18
794.042	91.13
794.223	-99.33
794.404	-7.17
794.584	-74.75
794.765	-29.7
794.945	19.46
795.126	97.28
795.306	78.85
795.487	19.46
795.667	-23.55
795.848	52.22
796.028	-13.31
796.209	35.84
796.389	70.65
796.57	35.84
796.75	-54.27
796.93	3.07
797.111	-115.71
797.291	-44.03
797.471	99.33
797.652	-17.41
797.832	-21.5
798.012	15.36
798.192	-62.46
798.373	-68.61
798.553	-3.07
798.733	62.46
798.913	-52.22
799.093	3.07
799.274	-25.6
799.454	82.94
799.634	117.76
799.814	58.37
799.994	29.7
800.174	27.65
800.354	31.74
800.534	-89.09
800.714	19.46
800.894	-78.85
801.074	-87.04
801.254	-54.27
801.434	44.03
801.614	-21.5
801.794	-62.46
801.974	1807.33
802.154	3.07
802.334	52.22
802.514	-87.04
802.693	11.26
802.873	37.89
803.053	89.09
803.233	29.7
803.413	-70.65
803.592	27.65
803.772	-142.33
803.952	3.07
804.131	-70.65
804.311	66.56
804.491	60.42
804.67	-68.61
804.85	-84.99
805.03	3.07
805.209	105.47
805.389	-9.22
805.568	-41.98
805.748	-58.37
805.928	-72.7
806.107	29.7
806.287	11.26
806.466	60.42
806.646	19.46
806.825	35.84
807.004	-27.65
807.184	123.9
807.363	-37.89
807.543	-1.02
807.722	-105.47
807.901	117.76
808.081	27.65
808.26	-117.76
808.439	-3.07
808.619	-44.03
808.798	44.03
808.977	3.07
809.156	33.79
809.336	-64.51
809.515	89.09
809.694	23.55
809.873	39.94
810.052	13.31
810.231	17.41
810.411	-21.5
810.59	107.52
810.769	35.84
810.948	25.6
811.127	-146.43
811.306	-1.02
811.485	-23.55
811.664	76.8
811.843	9.22
812.022	23.55
812.201	-31.74
812.38	19.46
812.559	-9.22
812.737	46.08
812.916	-97.28
813.095	-27.65
813.274	-37.89
813.453	-37.89
813.632	-3.07
813.811	5.12
813.989	-91.13
814.168	-7.17
814.347	-5.12
814.526	-25.6
814.704	60.42
814.883	76.8
815.062	-66.56
815.24	15.36
815.419	-62.46
815.598	62.46
815.776	-48.13
815.955	-41.98
816.133	-103.42
816.312	52.22
816.49	-89.09
816.669	-29.7
816.847	9.22
817.026	29.7
817.204	-3.07
817.383	-44.03
817.561	48.13
817.74	-11.26
817.918	72.7
818.097	-58.37
818.275	-56.32
818.453	-27.65
818.632	-3.07
818.81	15.36
818.988	-87.04
819.167	-41.98
819.345	37.89
819.523	-68.61
819.701	-66.56
819.879	33.79
820.058	50.18
820.236	9.22
820.414	-44.03
820.592	35.84
820.77	17.41
820.948	-17.41
821.127	-19.46
821.305	-17.41
821.483	-87.04
821.661	56.32
821.839	-1.02
822.017	-103.42
822.195	-107.52
822.373	-5.12
822.551	-64.51
822.729	91.13
822.907	-60.42
823.085	74.75
823.262	-1.02
823.44	-58.37
823.618	-9.22
823.796	62.46
823.974	-87.04
824.152	-142.33
824.329	37.89
824.507	82.94
824.685	15.36
824.863	9.22
825.04	-103.42
825.218	58.37
825.396	9.22
825.574	-11.26
825.751	-39.94
825.929	31.74
826.107	-101.37
826.284	-3.07
826.462	-44.03
826.639	9.22
826.817	-50.18
826.994	-66.56
827.172	-103.42
827.349	64.51
827.527	23.55
827.704	52.22
827.882	7.17
828.059	-23.55
828.237	46.08
828.414	35.84
828.591	-150.53
828.769	-13.31
828.946	-56.32
829.124	87.04
829.301	150.53
829.478	-25.6
829.655	-19.46
829.833	-33.79
830.01	-91.13
830.187	31.74
830.364	50.18
830.542	-27.65
830.719	107.52
830.896	46.08
831.073	-3.07
831.25	44.03
831.427	99.33
831.604	-33.79
831.782	-33.79
831.959	-44.03
832.136	-52.22
832.313	17.41
832.49	-25.6
832.667	103.42
832.844	-33.79
833.021	25.6
833.198	-23.55
833.374	37.89
833.551	9.22
833.728	-9.22
833.905	35.84
834.082	-125.95
834.259	5.12
834.436	17.41
834.612	-1.02
834.789	5.12
834.966	3.07
835.143	9.22
835.319	-74.75
835.496	46.08
835.673	44.03
835.85	60.42
836.026	-17.41
836.203	113.66
836.38	-19.46
836.556	-87.04
836.733	-58.37
836.909	66.56
837.086	-19.46
837.262	-128
837.439	-3.07
837.616	7.17
837.792	-1.02
837.968	-27.65
838.145	-103.42
838.321	-58.37
838.498	27.65
838.674	107.52
838.851	15.36
839.027	-89.09
839.203	-21.5
839.38	35.84
839.556	-41.98
839.732	-15.36
839.909	11.26
840.085	23.55
840.261	-113.66
840.437	46.08
840.614	-72.7
840.79	29.7
840.966	7.17
841.142	-31.74
841.318	-60.42
841.494	13.31
841.671	58.37
841.847	-97.28
842.023	-111.61
842.199	56.32
842.375	111.61
842.551	-123.9
842.727	-74.75
842.903	99.33
843.079	-130.05
843.255	93.18
843.431	17.41
843.607	7.17
843.783	-142.33
843.959	54.27
844.134	-58.37
844.31	117.76
844.486	44.03
844.662	-48.13
844.838	-9.22
845.013	21.5
845.189	1.02
845.365	66.56
845.541	41.98
845.716	44.03
845.892	80.89
846.068	-41.98
846.244	-78.85
846.419	15.36
846.595	-27.65
846.77	-70.65
846.946	3.07
847.122	-70.65
847.297	-21.5
847.473	134.14
847.648	-123.9
847.824	-52.22
847.999	-214.01
848.175	33.79
848.35	19.46
848.526	89.09
848.701	44.03
848.876	60.42
849.052	1.02
849.227	-9.22
849.403	-7.17
849.578	-21.5
849.753	25.6
849.929	37.89
850.104	-84.99
850.279	11.26
850.454	27.65
850.63	48.13
850.805	29.7
850.98	23.55
851.155	-3.07
851.33	19.46
851.505	-84.99
851.681	164.86
851.856	21.5
852.031	9.22
852.206	54.27
852.381	-78.85
852.556	-37.89
852.731	-5.12
852.906	48.13
853.081	35.84
853.256	50.18
853.431	-48.13
853.606	-115.71
853.781	-25.6
853.956	-82.94
854.131	23.55
854.305	-37.89
854.48	-3.07
854.655	-27.65
854.83	-21.5
855.005	-3.07
855.18	-52.22
855.354	13.31
855.529	-58.37
855.704	-11.26
855.879	82.94
856.053	-99.33
856.228	9.22
856.403	-1.02
856.577	52.22
856.752	-101.37
856.926	60.42
857.101	-11.26
857.276	-82.94
857.45	33.79
857.625	9.22
857.799	-29.7
857.974	-29.7
858.148	-109.57
858.323	35.84
858.497	-54.27
858.672	-66.56
858.846	-68.61
859.02	-21.5
859.195	-183.29
859.369	21.5
859.543	15.36
859.718	-19.46
859.892	-50.18
860.066	-11.26
860.241	-97.28
860.415	-95.23
860.589	39.94
860.763	31.74
860.938	-80.89
861.112	29.7
861.286	-72.7
861.46	-3.07
861.634	-13.31
861.808	23.55
861.982	-82.94
862.157	-109.57
862.331	-44.03
862.505	-185.34
862.679	-132.09
862.853	3.07
863.027	-29.7
863.201	185.34
863.375	-113.66
863.549	-15.36
863.722	11.26
863.896	87.04
864.07	-99.33
864.244	-33.79
864.418	91.13
864.592	33.79
864.766	-25.6
864.939	54.27
865.113	-46.08
865.287	111.61
865.461	-39.94
865.634	-7.17
865.808	13.31
865.982	7.17
866.156	-7.17
866.329	-115.71
866.503	52.22
866.676	3.07
866.85	-39.94
867.024	-11.26
867.197	105.47
867.371	11.26
867.544	17.41
867.718	-128
867.891	44.03
868.065	-91.13
868.238	27.65
868.412	27.65
868.585	-48.13
868.759	-56.32
868.932	-41.98
869.105	-82.94
869.279	1.02
869.452	-68.61
869.625	-70.65
869.799	-41.98
869.972	-27.65
870.145	15.36
870.319	-17.41
870.492	-17.41
870.665	-80.89
870.838	-54.27
871.011	-111.61
871.185	-46.08
871.358	5.12
871.531	-11.26
871.704	-109.57
871.877	-74.75
872.05	21.5
872.223	-70.65
872.396	74.75
872.569	33.79
872.742	-123.9
872.915	-21.5
873.088	-17.41
873.261	-89.09
873.434	-1.02
873.607	-41.98
873.78	68.61
873.953	-82.94
874.126	-64.51
874.299	56.32
874.471	-101.37
874.644	-74.75
874.817	-29.7
874.99	99.33
875.163	-164.86
875.335	21.5
875.508	17.41
875.681	-5.12
875.853	-15.36
876.026	-48.13
876.199	41.98
876.371	-17.41
876.544	50.18
876.717	-27.65
876.889	-101.37
877.062	72.7
877.234	-84.99
877.407	-109.57
877.579	-11.26
877.752	-31.74
877.924	-37.89
878.097	72.7
878.269	-54.27
878.442	15.36
878.614	-3.07
878.786	23.55
878.959	23.55
879.131	1.02
879.303	-150.53
879.476	-41.98
879.648	7.17
879.82	-13.31
879.993	-87.04
880.165	-44.03
880.337	-76.8
880.509	39.94
880.681	-111.61
880.854	-11.26
881.026	82.94
881.198	156.67
881.37	-58.37
881.542	-31.74
881.714	-82.94
881.886	-109.57
882.058	9.22
882.23	-46.08
882.402	-27.65
882.574	-50.18
882.746	101.37
882.918	44.03
883.09	-19.46
883.262	-1.02
883.434	70.65
883.606	-160.77
883.778	-64.51
883.95	84.99
884.122	-56.32
884.293	-11.26
884.465	15.36
884.637	54.27
884.809	-23.55
884.98	19.46
885.152	-33.79
885.324	1.02
885.496	-70.65
885.667	-78.85
885.839	9.22
886.011	27.65
886.182	-46.08
886.354	-23.55
886.525	54.27
886.697	68.61
886.869	-93.18
887.04	-39.94
887.212	78.85
887.383	209.92
887.555	-37.89
887.726	-15.36
887.897	-66.56
888.069	-41.98
888.24	-7.17
888.412	-97.28
888.583	-78.85
888.754	-21.5
888.926	-132.09
889.097	-54.27
889.268	-50.18
889.44	-66.56
889.611	-95.23
889.782	-66.56
889.953	-107.52
890.125	64.51
890.296	-101.37
890.467	-72.7
890.638	-25.6
890.809	-48.13
890.98	-150.53
891.151	-13.31
891.323	52.22
891.494	-17.41
891.665	-31.74
891.836	11.26
892.007	-62.46
892.178	5.12
892.349	-66.56
892.52	-119.81
892.691	-111.61
892.862	-60.42
893.032	-128
893.203	-15.36
893.374	29.7
893.545	82.94
893.716	-39.94
893.887	31.74
894.057	-72.7
894.228	-93.18
894.399	5.12
894.57	74.75
894.74	9.22
894.911	-35.84
895.082	-56.32
895.253	-111.61
895.423	62.46
895.594	33.79
895.764	-48.13
895.935	-19.46
896.106	-17.41
896.276	-148.48
896.447	-1.02
896.617	-74.75
896.788	-56.32
896.958	-54.27
897.129	-41.98
897.299	-50.18
897.47	154.62
897.64	9.22
897.81	29.7
897.981	-35.84
898.151	-68.61
898.322	9.22
898.492	13.31
898.662	-105.47
898.832	-74.75
899.003	-44.03
899.173	-46.08
899.343	-80.89
899.513	-33.79
