Data from USB4F104151__5__10-22-19-654.txt Node

Date: Wed Feb 26 10:22:19 EST 2025
User: louis
Spectrometer: USB4F10415
Trigger mode: 4
Integration Time (sec): 1.000000E-1
Scans to average: 1
Electric dark correction enabled: true
Nonlinearity correction enabled: false
Boxcar width: 0
XAxis mode: Wavelengths
Number of Pixels in Spectrum: 3648
>>>>>Begin Spectral Data<<<<<
178.204	-411.47
178.424	-411.47
178.644	-411.47
178.864	-388.94
179.084	-474.96
179.304	16.55
179.524	-81.75
179.744	-1.88
179.964	55.47
180.184	84.14
180.404	-30.55
180.624	2.22
180.844	-46.93
181.064	-65.36
181.283	22.7
181.503	-32.6
181.723	77.99
181.943	-73.56
182.163	190.63
182.383	-94.04
182.602	47.27
182.822	131.24
183.042	73.9
183.262	-63.32
183.482	-75.6
183.701	63.66
183.921	47.27
184.141	-65.36
184.361	49.32
184.58	47.27
184.8	-87.89
185.02	-32.6
185.239	51.37
185.459	16.55
185.679	184.49
185.898	-61.27
186.118	20.65
186.338	6.31
186.557	53.42
186.777	-30.55
186.997	-20.31
187.216	10.41
187.436	258.21
187.655	84.14
187.875	-3.93
188.095	34.99
188.314	168.1
188.534	125.1
188.753	-34.64
188.973	67.75
189.192	102.57
189.412	55.47
189.631	-124.76
189.851	69.8
190.07	98.47
190.29	-22.36
190.509	-26.45
190.729	-16.21
190.948	84.14
191.168	229.54
191.387	59.56
191.607	14.51
191.826	47.27
192.045	-10.07
192.265	65.71
192.484	92.33
192.704	4.27
192.923	-32.6
193.142	137.38
193.362	131.24
193.581	182.44
193.8	39.08
194.02	143.53
194.239	69.8
194.458	55.47
194.678	0.17
194.897	8.36
195.116	88.23
195.335	75.95
195.555	59.56
195.774	12.46
195.993	139.43
196.212	-3.93
196.432	-24.4
196.651	10.41
196.87	22.7
197.089	233.64
197.308	39.08
197.528	65.71
197.747	-59.22
197.966	32.94
198.185	110.76
198.404	-3.93
198.623	51.37
198.842	106.67
199.062	116.9
199.281	65.71
199.5	69.8
199.719	161.96
199.938	121
200.157	57.51
200.376	106.67
200.595	137.38
200.814	-34.64
201.033	4.27
201.252	131.24
201.471	43.18
201.69	90.28
201.909	37.03
202.128	34.99
202.347	159.91
202.566	82.09
202.785	-38.74
203.004	-32.6
203.223	184.49
203.442	12.46
203.661	-14.17
203.879	53.42
204.098	139.43
204.317	-100.18
204.536	92.33
204.755	39.08
204.974	155.82
205.193	10.41
205.411	108.71
205.63	75.95
205.849	43.18
206.068	75.95
206.287	-61.27
206.505	49.32
206.724	2.22
206.943	-38.74
207.162	-14.17
207.381	59.56
207.599	-8.02
207.818	51.37
208.037	-1.88
208.255	16.55
208.474	92.33
208.693	51.37
208.911	-22.36
209.13	135.34
209.349	114.86
209.567	92.33
209.786	43.18
210.005	106.67
210.223	-36.69
210.442	-85.84
210.661	-5.97
210.879	51.37
211.098	53.42
211.316	73.9
211.535	12.46
211.753	69.8
211.972	24.75
212.191	-30.55
212.409	86.19
212.628	188.58
212.846	8.36
213.065	73.9
213.283	149.67
213.502	-10.07
213.72	8.36
213.938	53.42
214.157	75.95
214.375	34.99
214.594	-12.12
214.812	71.85
215.031	-71.51
215.249	10.41
215.467	51.37
215.686	-51.03
215.904	108.71
216.122	94.38
216.341	73.9
216.559	2.22
216.778	34.99
216.996	147.62
217.214	-3.93
217.432	-26.45
217.651	-71.51
217.869	65.71
218.087	53.42
218.306	14.51
218.524	88.23
218.742	-20.31
218.96	129.19
219.179	-16.21
219.397	30.89
219.615	295.08
219.833	12.46
220.051	-51.03
220.27	63.66
220.488	84.14
220.706	34.99
220.924	8.36
221.142	22.7
221.36	63.66
221.578	59.56
221.796	34.99
222.015	41.13
222.233	-3.93
222.451	86.19
222.669	-57.17
222.887	53.42
223.105	-55.12
223.323	-10.07
223.541	20.65
223.759	28.84
223.977	102.57
224.195	194.73
224.413	53.42
224.631	14.51
224.849	80.04
225.067	202.92
225.285	-22.36
225.503	16.55
225.721	-81.75
225.939	26.79
226.157	59.56
226.375	223.4
226.592	-22.36
226.81	45.23
227.028	24.75
227.246	116.9
227.464	57.51
227.682	71.85
227.9	10.41
228.117	43.18
228.335	47.27
228.553	84.14
228.771	16.55
228.989	55.47
229.206	28.84
229.424	20.65
229.642	-5.97
229.86	-75.6
230.077	168.1
230.295	20.65
230.513	129.19
230.731	28.84
230.948	184.49
231.166	188.58
231.384	-20.31
231.601	-83.8
231.819	129.19
232.037	-20.31
232.254	-51.03
232.472	22.7
232.689	-61.27
232.907	133.29
233.125	8.36
233.342	45.23
233.56	-87.89
233.777	12.46
233.995	63.66
234.213	116.9
234.43	108.71
234.648	61.61
234.865	80.04
235.083	63.66
235.3	28.84
235.518	127.14
235.735	110.76
235.953	59.56
236.17	8.36
236.388	6.31
236.605	14.51
236.822	86.19
237.04	82.09
237.257	10.41
237.475	-85.84
237.692	94.38
237.909	20.65
238.127	-63.32
238.344	106.67
238.562	26.79
238.779	22.7
238.996	-40.79
239.214	57.51
239.431	61.61
239.648	-3.93
239.865	143.53
240.083	63.66
240.3	-10.07
240.517	26.79
240.735	51.37
240.952	110.76
241.169	110.76
241.386	69.8
241.603	-18.26
241.821	67.75
242.038	57.51
242.255	106.67
242.472	-12.12
242.689	14.51
242.907	45.23
243.124	88.23
243.341	75.95
243.558	-36.69
243.775	-22.36
243.992	-63.32
244.209	24.75
244.426	217.26
244.643	153.77
244.86	32.94
245.078	125.1
245.295	80.04
245.512	-24.4
245.729	-10.07
245.946	65.71
246.163	67.75
246.38	-34.64
246.597	49.32
246.814	16.55
247.031	14.51
247.248	16.55
247.464	141.48
247.681	53.42
247.898	12.46
248.115	161.96
248.332	-79.7
248.549	180.39
248.766	139.43
248.983	71.85
249.2	37.03
249.417	24.75
249.633	-44.88
249.85	28.84
250.067	65.71
250.284	69.8
250.501	22.7
250.717	34.99
250.934	-24.4
251.151	-40.79
251.368	-24.4
251.585	88.23
251.801	18.6
252.018	-69.46
252.235	112.81
252.451	-36.69
252.668	61.61
252.885	166.06
253.102	90.28
253.318	-18.26
253.535	22.7
253.752	0.17
253.968	53.42
254.185	-44.88
254.401	41.13
254.618	8.36
254.835	-32.6
255.051	157.86
255.268	32.94
255.484	2.22
255.701	22.7
255.917	77.99
256.134	-71.51
256.351	4.27
256.567	-10.07
256.784	14.51
257	-51.03
257.217	137.38
257.433	114.86
257.65	53.42
257.866	69.8
258.082	-44.88
258.299	-22.36
258.515	41.13
258.732	-59.22
258.948	-22.36
259.165	86.19
259.381	4.27
259.597	-63.32
259.814	-22.36
260.03	-20.31
260.246	96.43
260.463	53.42
260.679	94.38
260.895	82.09
261.112	77.99
261.328	-34.64
261.544	-36.69
261.761	153.77
261.977	-22.36
262.193	-32.6
262.409	112.81
262.626	26.79
262.842	45.23
263.058	-32.6
263.274	88.23
263.49	59.56
263.707	114.86
263.923	82.09
264.139	-124.76
264.355	20.65
264.571	86.19
264.787	41.13
265.004	51.37
265.22	8.36
265.436	-16.21
265.652	-87.89
265.868	112.81
266.084	-24.4
266.3	-38.74
266.516	-14.17
266.732	-10.07
266.948	41.13
267.164	8.36
267.38	32.94
267.596	102.57
267.812	176.3
268.028	39.08
268.244	-59.22
268.46	164.01
268.676	-10.07
268.892	80.04
269.108	-12.12
269.324	-18.26
269.54	-89.94
269.756	86.19
269.972	-24.4
270.188	-1.88
270.403	4.27
270.619	-48.98
270.835	112.81
271.051	63.66
271.267	-61.27
271.483	24.75
271.698	73.9
271.914	137.38
272.13	28.84
272.346	-14.17
272.562	-36.69
272.777	51.37
272.993	-32.6
273.209	-61.27
273.425	112.81
273.64	57.51
273.856	127.14
274.072	-48.98
274.287	-46.93
274.503	65.71
274.719	22.7
274.934	-51.03
275.15	-42.84
275.366	6.31
275.581	-26.45
275.797	41.13
276.012	10.41
276.228	-59.22
276.444	-69.46
276.659	129.19
276.875	-34.64
277.09	-22.36
277.306	30.89
277.521	75.95
277.737	16.55
277.952	20.65
278.168	80.04
278.383	96.43
278.599	-8.02
278.814	63.66
279.03	61.61
279.245	118.95
279.461	0.17
279.676	143.53
279.892	-106.32
280.107	-42.84
280.322	-59.22
280.538	80.04
280.753	43.18
280.969	51.37
281.184	65.71
281.399	116.9
281.615	-16.21
281.83	39.08
282.045	-65.36
282.26	0.17
282.476	55.47
282.691	92.33
282.906	41.13
283.122	67.75
283.337	2.22
283.552	108.71
283.767	67.75
283.983	43.18
284.198	41.13
284.413	135.34
284.628	-8.02
284.843	-34.64
285.058	94.38
285.274	16.55
285.489	-65.36
285.704	123.05
285.919	-38.74
286.134	-38.74
286.349	10.41
286.564	0.17
286.779	51.37
286.995	10.41
287.21	-89.94
287.425	71.85
287.64	-20.31
287.855	22.7
288.07	20.65
288.285	166.06
288.5	90.28
288.715	75.95
288.93	59.56
289.145	30.89
289.36	149.67
289.575	-14.17
289.79	80.04
290.004	4.27
290.219	-1.88
290.434	-53.08
290.649	-5.97
290.864	10.41
291.079	-1.88
291.294	39.08
291.509	20.65
291.724	47.27
291.938	-30.55
292.153	45.23
292.368	0.17
292.583	116.9
292.798	41.13
293.012	0.17
293.227	82.09
293.442	-42.84
293.657	49.32
293.871	110.76
294.086	53.42
294.301	196.78
294.516	32.94
294.73	26.79
294.945	-85.84
295.16	49.32
295.374	170.15
295.589	143.53
295.804	14.51
296.018	53.42
296.233	77.99
296.447	51.37
296.662	-38.74
296.877	149.67
297.091	30.89
297.306	-16.21
297.52	61.61
297.735	139.43
297.949	53.42
298.164	20.65
298.378	-3.93
298.593	55.47
298.807	-73.56
299.022	88.23
299.236	157.86
299.451	45.23
299.665	-10.07
299.88	0.17
300.094	6.31
300.309	41.13
300.523	49.32
300.737	-30.55
300.952	39.08
301.166	51.37
301.381	-57.17
301.595	14.51
301.809	-40.79
302.024	92.33
302.238	-22.36
302.452	69.8
302.667	-18.26
302.881	102.57
303.095	108.71
303.309	-12.12
303.524	32.94
303.738	41.13
303.952	20.65
304.166	77.99
304.381	-98.13
304.595	192.68
304.809	10.41
305.023	14.51
305.237	20.65
305.452	100.52
305.666	100.52
305.88	71.85
306.094	153.77
306.308	14.51
306.522	182.44
306.736	110.76
306.95	100.52
307.164	-14.17
307.379	43.18
307.593	153.77
307.807	112.81
308.021	80.04
308.235	106.67
308.449	-100.18
308.663	28.84
308.877	200.87
309.091	80.04
309.305	39.08
309.519	-75.6
309.733	75.95
309.947	-53.08
310.161	14.51
310.374	45.23
310.588	233.64
310.802	-12.12
311.016	6.31
311.23	94.38
311.444	22.7
311.658	94.38
311.872	176.3
312.085	147.62
312.299	112.81
312.513	139.43
312.727	65.71
312.941	-104.28
313.154	77.99
313.368	34.99
313.582	16.55
313.796	18.6
314.009	10.41
314.223	86.19
314.437	26.79
314.651	151.72
314.864	-12.12
315.078	-8.02
315.292	-22.36
315.505	-18.26
315.719	30.89
315.933	100.52
316.146	-30.55
316.36	-83.8
316.573	114.86
316.787	28.84
317.001	57.51
317.214	-55.12
317.428	102.57
317.641	-51.03
317.855	6.31
318.068	-38.74
318.282	63.66
318.495	118.95
318.709	102.57
318.922	32.94
319.136	110.76
319.349	37.03
319.563	34.99
319.776	143.53
319.99	-65.36
320.203	84.14
320.417	51.37
320.63	90.28
320.843	135.34
321.057	71.85
321.27	-12.12
321.483	143.53
321.697	106.67
321.91	34.99
322.124	-34.64
322.337	24.75
322.55	-108.37
322.763	47.27
322.977	18.6
323.19	12.46
323.403	34.99
323.617	106.67
323.83	204.97
324.043	45.23
324.256	73.9
324.469	-32.6
324.683	147.62
324.896	28.84
325.109	37.03
325.322	-51.03
325.535	34.99
325.748	12.46
325.962	-20.31
326.175	8.36
326.388	110.76
326.601	57.51
326.814	45.23
327.027	98.47
327.24	118.95
327.453	-108.37
327.666	14.51
327.879	151.72
328.092	63.66
328.305	-40.79
328.518	4.27
328.731	26.79
328.944	28.84
329.157	73.9
329.37	-10.07
329.583	258.21
329.796	192.68
330.009	-44.88
330.222	43.18
330.435	69.8
330.648	45.23
330.861	53.42
331.073	98.47
331.286	104.62
331.499	63.66
331.712	-28.5
331.925	59.56
332.138	-3.93
332.35	69.8
332.563	43.18
332.776	164.01
332.989	-59.22
333.202	30.89
333.414	-18.26
333.627	53.42
333.84	-38.74
334.053	88.23
334.265	61.61
334.478	57.51
334.691	-8.02
334.903	-20.31
335.116	-22.36
335.329	80.04
335.541	-16.21
335.754	157.86
335.966	6.31
336.179	-1.88
336.392	71.85
336.604	96.43
336.817	129.19
337.029	47.27
337.242	-5.97
337.454	135.34
337.667	88.23
337.88	137.38
338.092	43.18
338.305	112.81
338.517	51.37
338.729	98.47
338.942	141.48
339.154	-34.64
339.367	-34.64
339.579	43.18
339.792	-124.76
340.004	86.19
340.217	20.65
340.429	84.14
340.641	-67.41
340.854	-63.32
341.066	-1.88
341.278	112.81
341.491	157.86
341.703	112.81
341.915	0.17
342.128	127.14
342.34	88.23
342.552	2.22
342.764	8.36
342.977	24.75
343.189	49.32
343.401	57.51
343.613	-69.46
343.826	98.47
344.038	-87.89
344.25	69.8
344.462	-1.88
344.674	26.79
344.886	-67.41
345.099	4.27
345.311	-8.02
345.523	8.36
345.735	-69.46
345.947	6.31
346.159	-14.17
346.371	-3.93
346.583	53.42
346.795	200.87
347.007	-1.88
347.219	108.71
347.431	8.36
347.643	63.66
347.855	49.32
348.067	61.61
348.279	-63.32
348.491	61.61
348.703	133.29
348.915	14.51
349.127	-98.13
349.339	67.75
349.551	6.31
349.763	166.06
349.975	80.04
350.187	51.37
350.399	168.1
350.61	41.13
350.822	41.13
351.034	-3.93
351.246	84.14
351.458	-5.97
351.669	-20.31
351.881	96.43
352.093	75.95
352.305	133.29
352.517	4.27
352.728	159.91
352.94	43.18
353.152	116.9
353.363	-112.47
353.575	71.85
353.787	149.67
353.999	-20.31
354.21	237.74
354.422	-5.97
354.633	-3.93
354.845	-14.17
355.057	123.05
355.268	80.04
355.48	-5.97
355.692	-1.88
355.903	69.8
356.115	-32.6
356.326	-63.32
356.538	153.77
356.749	84.14
356.961	65.71
357.172	-36.69
357.384	-73.56
357.595	254.12
357.807	-48.98
358.018	22.7
358.23	-38.74
358.441	108.71
358.653	80.04
358.864	57.51
359.075	8.36
359.287	106.67
359.498	102.57
359.709	34.99
359.921	10.41
360.132	49.32
360.344	30.89
360.555	2.22
360.766	112.81
360.977	0.17
361.189	123.05
361.4	24.75
361.611	63.66
361.823	57.51
362.034	116.9
362.245	-51.03
362.456	-48.98
362.667	92.33
362.879	-28.5
363.09	88.23
363.301	18.6
363.512	-28.5
363.723	-26.45
363.935	-40.79
364.146	112.81
364.357	59.56
364.568	20.65
364.779	-51.03
364.99	192.68
365.201	-69.46
365.412	155.82
365.623	-75.6
365.834	63.66
366.045	18.6
366.256	96.43
366.467	90.28
366.678	14.51
366.889	18.6
367.1	-46.93
367.311	90.28
367.522	-18.26
367.733	12.46
367.944	106.67
368.155	41.13
368.366	110.76
368.577	118.95
368.788	86.19
368.999	-63.32
369.209	20.65
369.42	174.25
369.631	207.02
369.842	77.99
370.053	43.18
370.264	71.85
370.474	-42.84
370.685	49.32
370.896	51.37
371.107	131.24
371.317	-18.26
371.528	18.6
371.739	139.43
371.95	30.89
372.16	6.31
372.371	-91.99
372.582	2.22
372.792	73.9
373.003	53.42
373.214	12.46
373.424	94.38
373.635	-44.88
373.846	80.04
374.056	43.18
374.267	71.85
374.477	-10.07
374.688	4.27
374.898	137.38
375.109	12.46
375.319	125.1
375.53	153.77
375.74	159.91
375.951	18.6
376.161	90.28
376.372	98.47
376.582	-40.79
376.793	69.8
377.003	-30.55
377.214	30.89
377.424	41.13
377.635	49.32
377.845	2.22
378.055	123.05
378.266	-61.27
378.476	69.8
378.686	75.95
378.897	-28.5
379.107	123.05
379.317	22.7
379.528	-61.27
379.738	30.89
379.948	-40.79
380.158	71.85
380.369	47.27
380.579	43.18
380.789	73.9
380.999	32.94
381.21	-38.74
381.42	106.67
381.63	24.75
381.84	37.03
382.05	71.85
382.261	151.72
382.471	69.8
382.681	18.6
382.891	123.05
383.101	26.79
383.311	69.8
383.521	28.84
383.731	39.08
383.941	30.89
384.151	-16.21
384.361	63.66
384.571	49.32
384.781	32.94
384.991	196.78
385.201	166.06
385.411	139.43
385.621	18.6
385.831	59.56
386.041	69.8
386.251	-1.88
386.461	47.27
386.671	-30.55
386.881	96.43
387.091	92.33
387.301	-59.22
387.511	92.33
387.72	24.75
387.93	88.23
388.14	-51.03
388.35	61.61
388.56	65.71
388.769	141.48
388.979	94.38
389.189	-59.22
389.399	47.27
389.609	75.95
389.818	34.99
390.028	30.89
390.238	94.38
390.447	-63.32
390.657	55.47
390.867	-34.64
391.076	-85.84
391.286	59.56
391.496	143.53
391.705	-59.22
391.915	82.09
392.125	121
392.334	-16.21
392.544	143.53
392.753	47.27
392.963	-18.26
393.172	59.56
393.382	-59.22
393.591	184.49
393.801	30.89
394.01	151.72
394.22	135.34
394.429	14.51
394.639	22.7
394.848	24.75
395.058	18.6
395.267	61.61
395.477	73.9
395.686	6.31
395.895	180.39
396.105	235.69
396.314	71.85
396.524	16.55
396.733	-18.26
396.942	77.99
397.152	57.51
397.361	102.57
397.57	30.89
397.78	-8.02
397.989	51.37
398.198	129.19
398.407	26.79
398.617	-34.64
398.826	-30.55
399.035	30.89
399.244	114.86
399.453	47.27
399.663	37.03
399.872	49.32
400.081	-57.17
400.29	186.54
400.499	34.99
400.708	73.9
400.917	80.04
401.127	90.28
401.336	82.09
401.545	178.34
401.754	155.82
401.963	125.1
402.172	-12.12
402.381	-89.94
402.59	49.32
402.799	80.04
403.008	80.04
403.217	39.08
403.426	0.17
403.635	-3.93
403.844	57.51
404.053	14.51
404.262	43.18
404.471	151.72
404.68	-1.88
404.888	59.56
405.097	-18.26
405.306	49.32
405.515	88.23
405.724	14.51
405.933	98.47
406.142	34.99
406.35	110.76
406.559	22.7
406.768	10.41
406.977	84.14
407.185	47.27
407.394	14.51
407.603	-12.12
407.812	90.28
408.02	159.91
408.229	41.13
408.438	28.84
408.646	-5.97
408.855	69.8
409.064	69.8
409.272	49.32
409.481	41.13
409.69	-46.93
409.898	6.31
410.107	108.71
410.315	92.33
410.524	22.7
410.733	2.22
410.941	-10.07
411.15	63.66
411.358	77.99
411.567	139.43
411.775	71.85
411.984	16.55
412.192	215.21
412.401	-20.31
412.609	219.3
412.818	149.67
413.026	96.43
413.234	55.47
413.443	-48.98
413.651	45.23
413.86	6.31
414.068	98.47
414.276	129.19
414.485	28.84
414.693	182.44
414.901	188.58
415.11	90.28
415.318	16.55
415.526	-14.17
415.734	108.71
415.943	39.08
416.151	49.32
416.359	82.09
416.567	51.37
416.776	98.47
416.984	59.56
417.192	166.06
417.4	4.27
417.608	24.75
417.817	18.6
418.025	110.76
418.233	170.15
418.441	32.94
418.649	6.31
418.857	53.42
419.065	96.43
419.273	24.75
419.481	104.62
419.689	94.38
419.897	-12.12
420.105	-10.07
420.313	135.34
420.521	51.37
420.729	164.01
420.937	-1.88
421.145	-51.03
421.353	121
421.561	129.19
421.769	82.09
421.977	45.23
422.185	100.52
422.393	61.61
422.601	80.04
422.809	80.04
423.017	59.56
423.224	0.17
423.432	143.53
423.64	43.18
423.848	108.71
424.056	-57.17
424.263	104.62
424.471	47.27
424.679	145.58
424.887	12.46
425.094	131.24
425.302	108.71
425.51	-42.84
425.718	129.19
425.925	86.19
426.133	53.42
426.341	233.64
426.548	8.36
426.756	39.08
426.964	73.9
427.171	32.94
427.379	110.76
427.586	84.14
427.794	123.05
428.001	145.58
428.209	71.85
428.417	178.34
428.624	149.67
428.832	90.28
429.039	104.62
429.247	143.53
429.454	110.76
429.662	164.01
429.869	53.42
430.076	34.99
430.284	188.58
430.491	188.58
430.699	63.66
430.906	231.59
431.114	114.86
431.321	135.34
431.528	63.66
431.736	198.82
431.943	139.43
432.15	186.54
432.358	164.01
432.565	278.69
432.772	28.84
432.979	186.54
433.187	159.91
433.394	235.69
433.601	166.06
433.808	180.39
434.016	299.17
434.223	239.78
434.43	225.45
434.637	247.97
434.844	284.84
435.052	170.15
435.259	305.32
435.466	313.51
435.673	221.35
435.88	262.31
436.087	344.23
436.294	331.94
436.501	299.17
436.708	239.78
436.915	293.03
437.122	434.34
437.329	213.16
437.537	250.02
437.743	360.61
437.95	422.05
438.157	356.52
438.364	358.57
438.571	288.93
438.778	342.18
438.985	456.87
439.192	532.64
439.399	499.88
439.606	481.44
439.813	530.59
440.02	598.18
440.227	583.84
440.433	544.93
440.64	587.94
440.847	555.17
441.054	567.46
441.261	678.05
441.467	624.8
441.674	514.21
441.881	747.68
442.088	684.19
442.294	714.91
442.501	723.1
442.708	821.41
442.914	811.17
443.121	837.79
443.328	872.61
443.534	989.34
443.741	839.84
443.948	780.45
444.154	936.09
444.361	1136.79
444.568	1003.68
444.774	1040.54
444.981	948.38
445.187	1192.09
445.394	1130.65
445.6	1210.52
445.807	1355.93
446.013	1296.53
446.22	1271.96
446.426	1331.35
446.633	1534.1
446.839	1634.45
447.046	1405.08
447.252	1699.98
447.459	1552.53
447.665	1525.91
447.871	1757.33
448.078	2101.39
448.284	1927.31
448.491	2019.47
448.697	2138.25
448.903	2150.54
449.11	2214.02
449.316	2205.83
449.522	2347.14
449.728	2502.79
449.935	2427.01
450.141	2488.45
450.347	2746.5
450.553	2640
450.76	2840.7
450.966	2979.97
451.172	3053.69
451.378	3276.92
451.584	3205.24
451.791	3426.42
451.997	3457.14
452.203	3586.16
452.409	3700.85
452.615	3919.98
452.821	3739.76
453.027	3852.4
453.233	4280.43
453.44	4210.79
453.646	4384.87
453.852	4634.72
454.058	4712.55
454.264	4943.97
454.47	5328.99
454.676	5294.17
454.882	5740.63
455.088	5519.45
455.294	5767.25
455.5	6248.52
455.705	6617.16
455.911	6658.12
456.117	6828.1
456.323	6858.82
456.529	6957.12
456.735	7436.35
456.941	7886.9
457.147	8237.1
457.352	8253.48
457.558	8591.4
457.764	9142.3
457.97	9254.94
458.176	9809.94
458.381	10213.39
458.587	10389.52
458.793	11046.91
458.999	10778.63
459.204	12283.89
459.41	12539.88
459.616	12371.95
459.821	13150.18
460.027	13903.83
460.233	14157.78
460.438	14591.95
460.644	15251.39
460.85	15310.79
461.055	15898.55
461.261	16601.01
461.466	16441.26
461.672	16797.61
461.878	18620.3
462.083	18403.22
462.289	18890.63
462.494	19611.52
462.7	19748.73
462.905	19720.06
463.111	21983.07
463.316	22884.17
463.522	23158.6
463.727	23846.72
463.932	25003.82
464.138	25476.9
464.343	26830.61
464.549	26726.16
464.754	28770.04
464.959	29478.63
465.165	29857.51
465.37	29404.91
465.575	29775.59
465.781	31792.84
465.986	32845.49
466.191	32440
466.397	32452.28
466.602	31659.72
466.807	33527.47
467.012	33857.19
467.218	34848.41
467.423	34682.52
467.628	35032.72
467.833	37183.09
468.038	36451.97
468.244	35952.26
468.449	37615.21
468.654	37125.75
468.859	37068.41
469.064	37205.62
469.269	36249.22
469.474	36566.65
469.679	37541.49
469.885	36572.8
470.09	36927.1
470.295	37486.19
470.5	36355.71
470.705	36431.49
470.91	35575.44
471.115	35106.45
471.32	35450.51
471.525	35862.15
471.73	34406.05
471.935	34375.33
472.139	32923.32
472.344	33046.19
472.549	32995
472.754	32050.88
472.959	31258.32
473.164	30418.65
473.369	30078.69
473.574	30736.09
473.778	30015.2
473.983	29742.82
474.188	28874.48
474.393	27916.03
474.598	27936.51
474.802	26933.01
475.007	27006.73
475.212	26930.96
475.417	25489.19
475.621	25218.86
475.826	25018.16
476.031	24207.16
476.235	23641.92
476.44	23748.42
476.645	23105.35
476.849	23254.86
477.054	22660.94
477.259	21999.45
477.463	22099.8
477.668	21612.38
477.872	21397.35
478.077	20922.22
478.282	20131.7
478.486	19787.64
478.691	19560.32
478.895	19517.31
479.1	19849.08
479.304	19447.68
479.509	18816.91
479.713	19144.58
479.918	18720.65
480.122	18311.06
480.326	18442.13
480.531	18593.68
480.735	18112.41
480.94	17452.96
481.144	18405.27
481.348	17438.62
481.553	17508.26
481.757	16641.96
481.961	17285.03
482.166	17305.51
482.37	16990.12
482.574	16758.7
482.778	16859.05
482.983	16918.44
483.187	16338.87
483.391	16564.14
483.595	16150.45
483.8	15855.54
484.004	16127.92
484.208	15947.7
484.412	15697.85
484.616	15452.09
484.821	15404.99
485.025	15011.78
485.229	15132.61
485.433	14798.79
485.637	14440.4
485.841	14342.1
486.045	14172.11
486.249	14387.15
486.453	13897.69
486.657	13762.52
486.861	13576.16
487.065	12986.34
487.269	13201.38
487.473	12359.66
487.677	12795.88
487.881	12763.11
488.085	12322.8
488.289	12062.71
488.493	11806.71
488.697	11913.2
488.901	11603.96
489.105	11431.93
489.309	11245.57
489.512	10973.19
489.716	10496.01
489.92	10332.17
490.124	10285.07
490.328	10260.49
490.531	10078.22
490.735	9877.52
490.939	9717.78
491.143	9639.96
491.346	9297.95
491.55	9316.38
491.754	9242.65
491.958	9035.81
492.161	8796.2
492.365	8667.17
492.569	8421.42
492.772	8445.99
492.976	8400.94
493.18	8063.02
493.383	8140.85
493.587	8108.08
493.79	8028.21
493.994	7745.59
494.197	7778.36
494.401	7723.06
494.605	7495.74
494.808	7485.5
495.012	7456.82
495.215	7596.09
495.419	7512.12
495.622	7391.29
495.825	7346.23
496.029	7276.6
496.232	7338.04
496.436	7172.16
496.639	7235.64
496.843	7112.77
497.046	7098.43
497.249	7125.05
497.453	7108.67
497.656	7106.62
497.859	6993.98
498.063	7188.54
498.266	7227.45
498.469	7141.44
498.673	7147.58
498.876	7262.27
499.079	7133.25
499.282	7268.41
499.485	7626.81
499.689	7280.7
499.892	7512.12
500.095	7301.18
500.298	7804.98
500.501	7540.79
500.705	7602.23
500.908	7807.03
501.111	7811.12
501.314	7864.37
501.517	8085.55
501.72	8005.68
501.923	7972.91
502.126	8230.96
502.329	8243.24
502.532	8460.33
502.735	8572.97
502.938	8577.06
503.141	8747.05
503.344	8527.91
503.547	8771.62
503.75	8730.66
503.953	8843.3
504.156	9013.28
504.359	9136.16
504.562	9308.19
504.765	9599
504.968	9639.96
505.17	9783.32
505.373	9648.15
505.576	10151.95
505.779	10278.93
505.982	10383.37
506.185	10412.04
506.387	10719.24
506.59	10864.64
506.793	11196.42
506.996	11173.89
507.198	11696.12
507.401	11675.64
507.604	11862.01
507.807	12134.39
508.009	12308.46
508.212	12439.53
508.415	12517.36
508.617	13096.93
508.82	13273.06
509.022	13342.69
509.225	13559.77
509.428	14270.42
509.63	14387.15
509.833	14569.42
510.035	15189.95
510.238	15181.76
510.44	15503.29
510.643	15998.9
510.845	15996.85
511.048	16084.92
511.25	16963.5
511.453	17276.84
511.655	17897.37
511.858	17860.51
512.06	18767.76
512.262	18868.11
512.465	19197.83
512.667	19687.29
512.87	19941.24
513.072	20492.15
513.274	21041
513.477	21010.28
513.679	21940.06
513.881	22359.89
514.084	22851.41
514.286	23623.49
514.488	23826.24
514.69	24514.36
514.893	24735.54
515.095	24964.91
515.297	25751.33
515.499	26152.73
515.701	27096.85
515.904	27299.59
516.106	27883.27
516.308	28860.15
516.51	29069.04
516.712	29726.44
516.914	29734.63
517.116	30488.28
517.318	31182.54
517.52	31536.84
517.722	32059.07
517.925	33001.14
518.127	33156.78
518.329	33887.91
518.531	33849
518.733	35217.04
518.935	35405.45
519.136	35884.68
519.338	36443.77
519.54	37004.92
519.742	37625.45
519.944	37846.63
520.146	38882.91
520.348	39116.37
520.55	39493.2
520.752	39771.72
520.954	40627.77
521.155	40904.25
521.357	41553.46
521.559	41672.24
521.761	42186.28
521.963	42294.82
522.164	42966.56
522.366	43038.23
522.568	43410.96
522.77	43775.5
522.971	44312.07
523.173	44154.38
523.375	44748.29
523.576	44625.41
523.778	44582.4
523.98	45485.56
524.181	45413.88
524.383	45340.15
524.584	46341.61
524.786	45837.81
524.988	45708.79
525.189	46149.1
525.391	46034.41
525.592	46104.04
525.794	45919.73
525.995	45708.79
526.197	45813.23
526.398	45501.94
526.6	45751.79
526.801	45778.42
527.003	45135.35
527.204	45172.22
527.406	45403.64
527.607	44965.37
527.808	45067.77
528.01	43693.58
528.211	44117.51
528.412	44580.35
528.614	44025.35
528.815	43867.66
529.016	43965.96
529.218	42337.83
529.419	42612.26
529.62	42100.26
529.822	41510.45
530.023	41301.56
530.224	41197.11
530.425	40457.79
530.626	39779.92
530.828	39515.73
531.029	39603.79
531.23	39030.36
531.431	38268.51
531.632	38112.87
531.833	37766.76
532.035	37185.14
532.236	36929.14
532.437	36298.37
532.638	35778.18
532.839	35425.93
533.04	35073.68
533.241	34223.78
533.442	34498.2
533.643	33832.61
533.844	33234.61
534.045	32722.62
534.246	32091.84
534.447	31985.35
534.648	31395.53
534.849	31151.82
535.05	30541.53
535.251	30246.62
535.451	29816.55
535.652	29652.71
535.853	29052.66
536.054	28966.64
536.255	28258.04
536.456	27952.9
536.657	27993.86
536.857	26898.19
537.058	26529.56
537.259	26482.45
537.46	26029.85
537.66	25904.93
537.861	25372.46
538.062	24745.78
538.263	24692.53
538.463	24072
538.664	23985.98
538.865	23844.67
539.065	23758.66
539.266	22863.69
539.466	22853.45
539.667	22503.25
539.868	22353.75
540.068	21944.16
540.269	22069.08
540.469	21909.34
540.67	21313.38
540.87	21016.43
541.071	20789.1
541.271	20533.11
541.472	20238.2
541.672	20209.53
541.873	19861.37
542.073	19482.5
542.274	19447.68
542.474	19064.71
542.675	18935.69
542.875	18884.49
543.075	18597.77
543.276	18073.49
543.476	18309.01
543.676	17905.56
543.877	17631.13
544.077	17717.15
544.277	17348.51
544.478	17074.09
544.678	17110.95
544.878	16957.35
545.078	16736.17
545.279	16351.15
545.479	16142.26
545.679	15939.51
545.879	15671.23
546.079	15652.8
546.28	15435.71
546.48	15036.36
546.68	15652.8
546.88	14946.25
547.08	14749.64
547.28	14497.74
547.48	14129.11
547.68	14282.7
547.88	14055.38
548.081	14039
548.281	13660.12
548.481	13463.52
548.681	13432.8
548.881	13111.27
549.081	13273.06
549.28	12740.58
549.48	12597.23
549.68	12347.37
549.88	12392.43
550.08	12134.39
550.28	11921.4
550.48	11798.52
550.68	11767.8
550.88	11567.1
551.08	11304.96
551.279	11288.57
551.479	10969.09
551.679	10911.75
551.879	10582.03
552.079	10645.51
552.278	10485.77
552.478	10383.37
552.678	10115.09
552.878	10022.93
553.077	9904.15
553.277	9439.26
553.477	9566.23
553.676	9472.03
553.876	9404.44
554.076	8990.75
554.275	9017.38
554.475	8626.22
554.674	8783.91
554.874	8583.21
555.074	8333.36
555.273	8177.71
555.473	8245.29
555.672	7981.1
555.872	7772.21
556.071	7708.73
556.271	7721.01
556.47	7481.4
556.67	7469.11
556.869	7219.26
557.068	7178.3
557.268	6989.89
557.467	6914.11
557.667	6875.2
557.866	6654.02
558.065	6619.21
558.265	6580.29
558.464	6266.96
558.663	6180.94
558.863	6137.93
559.062	6205.52
559.261	5765.2
559.461	6170.7
559.66	5685.33
559.859	5578.84
560.058	5513.3
560.258	5421.14
560.457	5279.83
560.656	5535.83
560.855	5105.76
561.054	5324.89
561.253	5292.12
561.453	5120.09
561.652	4933.73
561.851	4962.4
562.05	4687.97
562.249	4739.17
562.448	4915.3
562.647	4544.61
562.846	4507.75
563.045	4614.24
563.244	4515.94
563.443	4407.4
563.642	4223.08
563.841	4249.71
564.04	4192.36
564.239	4130.92
564.438	4020.33
564.637	3858.54
564.836	3913.84
565.035	3883.12
565.234	3790.96
565.432	3817.58
565.631	3917.93
565.83	3614.84
566.029	3475.57
566.228	3473.53
566.427	3473.53
566.625	3305.59
566.824	3496.05
567.023	3426.42
567.222	3358.84
567.42	3285.11
567.619	3133.56
567.818	3164.28
568.016	3231.87
568.215	3057.79
568.414	3014.78
568.612	3041.4
568.811	2824.32
569.01	3059.84
569.208	2748.54
569.407	2906.24
569.605	2826.37
569.804	2760.83
570.002	2728.07
570.201	2615.43
570.4	2646.15
570.598	2601.09
570.797	2562.18
570.995	2449.54
571.193	2500.74
571.392	2416.77
571.59	2373.77
571.789	2500.74
571.987	2351.24
572.186	2386.05
572.384	2304.14
572.582	2326.66
572.781	2230.41
572.979	2162.83
573.177	2130.06
573.376	2115.72
573.574	2136.2
573.772	1984.65
573.971	2009.23
574.169	1882.25
574.367	1886.35
574.565	1892.49
574.763	1824.91
574.962	1841.29
575.16	1728.66
575.358	1810.58
575.556	1806.48
575.754	1802.38
575.952	1573.01
576.151	1786
576.349	1693.84
576.547	1646.74
576.745	1661.07
576.943	1640.59
577.141	1511.57
577.339	1532.05
577.537	1542.29
577.735	1681.55
577.933	1503.38
578.131	1415.32
578.329	1476.76
578.527	1435.8
578.725	1353.88
578.923	1212.57
579.121	1392.79
579.319	1276.06
579.516	1263.77
579.714	1556.63
579.912	1292.44
580.11	1177.75
580.308	1333.4
580.506	1157.27
580.704	1036.44
580.901	1149.08
581.099	1261.72
581.297	1108.12
581.495	1101.98
581.692	1097.88
581.89	1130.65
582.088	1132.7
582.285	987.29
582.483	1036.44
582.681	1110.17
582.878	981.15
583.076	1013.92
583.274	1069.21
583.471	1050.78
583.669	999.58
583.866	876.7
584.064	999.58
584.262	829.6
584.459	895.13
584.657	927.9
584.854	899.23
585.052	880.8
585.249	915.61
585.447	938.14
585.644	809.12
585.841	921.76
586.039	839.84
586.236	784.54
586.434	780.45
586.631	700.58
586.828	796.83
587.026	780.45
587.223	706.72
587.42	741.54
587.618	731.3
587.815	805.02
588.012	678.05
588.21	721.06
588.407	805.02
588.604	747.68
588.801	661.66
588.999	596.13
589.196	786.59
589.393	592.03
589.59	587.94
589.787	747.68
589.984	692.38
590.182	678.05
590.379	559.27
590.576	626.85
590.773	608.42
590.97	575.65
591.167	678.05
591.364	626.85
591.561	555.17
591.758	751.78
591.955	686.24
592.152	596.13
592.349	585.89
592.546	534.69
592.743	538.79
592.94	630.95
593.137	671.9
593.334	659.62
593.531	690.34
593.727	630.95
593.924	692.38
594.121	616.61
594.318	606.37
594.515	714.91
594.712	714.91
594.908	680.1
595.105	573.6
595.302	655.52
595.499	698.53
595.696	737.44
595.892	528.55
596.089	753.82
596.286	639.14
596.482	753.82
596.679	745.63
596.876	678.05
597.072	815.26
597.269	788.64
597.466	845.98
597.662	747.68
597.859	768.16
598.055	862.37
598.252	905.37
598.448	907.42
598.645	1034.39
598.841	991.39
599.038	1151.13
599.234	1134.75
599.431	1120.41
599.627	1247.38
599.824	1212.57
600.02	1218.71
600.217	1167.51
600.413	1345.69
600.609	1464.47
600.806	1687.7
601.002	1419.41
601.198	1495.19
601.395	1597.59
601.591	1673.36
601.787	1767.57
601.984	1724.56
602.18	1925.26
602.376	1880.21
602.572	2009.23
602.769	2072.72
602.965	2060.43
603.161	2189.45
603.357	2283.66
603.553	2363.53
603.75	2373.77
603.946	2371.72
604.142	2580.61
604.338	2914.43
604.534	2832.51
604.73	2994.3
604.926	2791.55
605.122	3076.22
605.318	3113.08
605.514	3272.82
605.71	3272.82
605.906	3508.34
606.102	3541.11
606.298	3668.08
606.494	3762.29
606.69	3879.02
606.886	4014.19
607.082	3967.09
607.278	4171.88
607.474	4272.23
607.67	4610.15
607.866	4468.84
608.062	4855.9
608.257	4771.94
608.453	4907.1
608.649	5095.52
608.845	5058.65
609.041	5265.5
609.236	5367.9
609.432	5490.77
609.628	5779.54
609.824	5900.37
610.019	6013.01
610.215	6187.08
610.411	6506.57
610.606	6656.07
610.802	6875.2
610.998	6811.71
611.193	7194.68
611.389	7196.73
611.584	7514.17
611.78	7583.8
611.976	8151.09
612.171	8372.27
612.367	8476.71
612.562	8546.34
612.758	8454.19
612.953	8923.17
613.149	9289.76
613.344	9449.5
613.539	9719.83
613.735	10119.18
613.93	10205.2
614.126	10328.08
614.321	10778.63
614.517	11046.91
614.712	11057.15
614.907	11476.99
615.103	11843.57
615.298	12052.47
615.493	12589.03
615.688	12500.97
615.884	13281.25
616.079	13455.33
616.274	13787.1
616.47	14106.58
616.665	14544.84
616.86	14839.75
617.055	15298.5
617.25	15310.79
617.445	16091.06
617.641	16152.5
617.836	16848.81
618.031	16603.05
618.226	17663.9
618.421	18184.09
618.616	18509.71
618.811	18648.97
619.006	19328.9
619.201	19486.59
619.396	19949.43
619.591	20453.23
619.786	21049.19
619.981	21120.87
620.176	22075.23
620.371	22081.37
620.566	22667.09
620.761	23199.56
620.956	24090.43
621.151	23994.17
621.346	24696.63
621.541	25018.16
621.735	25513.77
621.93	25866.02
622.125	26775.31
622.32	26662.68
622.515	27264.78
622.709	27905.79
622.904	28350.2
623.099	28987.12
623.294	29507.3
623.488	29796.07
623.683	30414.55
623.878	30557.91
624.072	31061.71
624.267	31825.61
624.462	32607.93
624.656	32540.35
624.851	33339.05
625.046	33451.69
625.24	34156.19
625.435	34203.3
625.629	35200.66
625.824	35651.21
626.018	36132.48
626.213	36069
626.407	36748.92
626.602	36718.2
626.796	37623.4
626.991	37871.21
627.185	38049.38
627.38	38295.14
627.574	38452.83
627.768	38583.9
627.963	39145.05
628.157	39003.74
628.352	39218.77
628.546	39186
628.74	39886.41
628.935	39343.7
629.129	39355.99
629.323	38962.78
629.517	38303.33
629.712	38518.37
629.906	38268.51
630.1	37666.41
630.294	37897.83
630.489	37080.69
630.683	37009.01
630.877	35942.02
631.071	35442.32
631.265	35184.27
631.459	34315.94
631.653	33296.05
631.848	33115.83
632.042	31798.98
632.236	31459.02
632.43	30562.01
632.624	29783.78
632.818	28974.83
633.012	28053.25
633.206	27285.26
633.4	26619.67
633.594	25714.47
633.788	24813.36
633.982	23727.94
634.176	23261
634.369	22243.16
634.563	21366.63
634.757	20430.71
634.951	19722.11
635.145	18947.98
635.339	18210.71
635.533	17565.6
635.726	16912.3
635.92	15919.03
636.114	15398.85
636.308	14815.18
636.501	14315.47
636.695	13711.32
636.889	12863.46
637.083	12632.04
637.276	12136.43
637.47	11515.9
637.664	11251.71
637.857	10862.6
638.051	10358.8
638.244	9902.1
638.438	9504.79
638.632	9195.55
638.825	8722.47
639.019	8747.05
639.212	7956.53
639.406	7864.37
639.599	7538.74
639.793	7174.21
639.986	6768.71
640.18	6697.03
640.373	6357.07
640.567	6170.7
640.76	5943.38
640.954	5832.79
641.147	5333.08
641.34	5247.07
641.534	5058.65
641.727	5021.79
641.92	4954.21
642.114	4472.93
642.307	4413.54
642.5	4286.57
642.694	3948.65
642.887	3782.77
643.08	3823.73
643.273	3663.99
643.467	3393.65
643.66	3125.37
643.853	3149.95
644.046	3004.54
644.239	2832.51
644.432	2830.46
644.626	2625.67
644.819	2613.38
645.012	2564.23
645.205	2472.07
645.398	2422.92
645.591	2230.41
645.784	2132.11
645.977	1966.22
646.17	1917.07
646.363	1892.49
646.556	1757.33
646.749	1792.14
646.942	1781.9
647.135	1628.31
647.328	1523.86
647.521	1585.3
647.714	1439.89
647.907	1491.09
648.099	1310.87
648.292	1296.53
648.485	1276.06
648.678	1249.43
648.871	1181.85
649.064	1140.89
649.256	1069.21
649.449	987.29
649.642	905.37
649.835	901.28
650.027	909.47
650.22	1052.83
650.413	823.45
650.605	854.17
650.798	729.25
650.991	823.45
651.183	813.21
651.376	794.78
651.568	835.74
651.761	655.52
651.954	678.05
652.146	608.42
652.339	645.28
652.531	698.53
652.724	551.07
652.916	551.07
653.109	510.11
653.301	561.31
653.494	721.06
653.686	489.64
653.879	536.74
654.071	534.69
654.263	391.33
654.456	370.85
654.648	551.07
654.84	446.63
655.033	370.85
655.225	497.83
655.417	327.85
655.61	532.64
655.802	372.9
655.994	475.3
656.186	305.32
656.379	403.62
656.571	233.64
656.763	282.79
656.955	336.04
657.148	336.04
657.34	338.09
657.532	342.18
657.724	317.61
657.916	293.03
658.108	336.04
658.3	342.18
658.492	352.42
658.684	247.97
658.876	370.85
659.068	161.96
659.26	178.34
659.452	141.48
659.644	204.97
659.836	260.26
660.028	227.5
660.22	217.26
660.412	262.31
660.604	215.21
660.796	227.5
660.988	276.65
661.18	164.01
661.372	223.4
661.563	198.82
661.755	125.1
661.947	106.67
662.139	202.92
662.331	149.67
662.522	168.1
662.714	141.48
662.906	145.58
663.097	168.1
663.289	104.62
663.481	98.47
663.673	170.15
663.864	135.34
664.056	229.54
664.247	96.43
664.439	229.54
664.631	198.82
664.822	153.77
665.014	116.9
665.205	53.42
665.397	178.34
665.588	102.57
665.78	116.9
665.971	172.2
666.163	116.9
666.354	166.06
666.546	121
666.737	129.19
666.929	98.47
667.12	65.71
667.311	239.78
667.503	118.95
667.694	176.3
667.885	164.01
668.077	213.16
668.268	53.42
668.459	182.44
668.651	102.57
668.842	139.43
669.033	59.56
669.224	63.66
669.416	207.02
669.607	61.61
669.798	73.9
669.989	264.36
670.18	123.05
670.371	164.01
670.563	10.41
670.754	153.77
670.945	108.71
671.136	174.25
671.327	49.32
671.518	196.78
671.709	215.21
671.9	155.82
672.091	211.11
672.282	82.09
672.473	114.86
672.664	84.14
672.855	100.52
673.046	112.81
673.237	182.44
673.428	145.58
673.619	82.09
673.809	153.77
674	221.35
674.191	161.96
674.382	135.34
674.573	104.62
674.764	96.43
674.954	223.4
675.145	59.56
675.336	39.08
675.527	145.58
675.717	77.99
675.908	108.71
676.099	114.86
676.289	98.47
676.48	80.04
676.671	143.53
676.861	59.56
677.052	161.96
677.243	98.47
677.433	65.71
677.624	231.59
677.814	149.67
678.005	34.99
678.195	174.25
678.386	-12.12
678.576	143.53
678.767	82.09
678.957	137.38
679.148	108.71
679.338	202.92
679.529	151.72
679.719	98.47
679.909	221.35
680.1	145.58
680.29	182.44
680.481	30.89
680.671	227.5
680.861	274.6
681.052	145.58
681.242	67.75
681.432	243.88
681.622	131.24
681.813	-1.88
682.003	112.81
682.193	86.19
682.383	174.25
682.573	100.52
682.764	145.58
682.954	196.78
683.144	274.6
683.334	96.43
683.524	92.33
683.714	131.24
683.904	186.54
684.094	172.2
684.284	178.34
684.474	256.17
684.664	168.1
684.854	237.74
685.044	112.81
685.234	149.67
685.424	159.91
685.614	82.09
685.804	266.41
685.994	204.97
686.184	145.58
686.374	143.53
686.564	225.45
686.753	114.86
686.943	90.28
687.133	135.34
687.323	174.25
687.513	157.86
687.702	221.35
687.892	180.39
688.082	237.74
688.272	198.82
688.461	133.29
688.651	247.97
688.841	182.44
689.03	37.03
689.22	98.47
689.41	170.15
689.599	116.9
689.789	139.43
689.979	264.36
690.168	147.62
690.358	221.35
690.547	34.99
690.737	157.86
690.926	157.86
691.116	190.63
691.305	178.34
691.495	274.6
691.684	69.8
691.874	112.81
692.063	231.59
692.252	223.4
692.442	135.34
692.631	75.95
692.82	104.62
693.01	209.06
693.199	209.06
693.388	227.5
693.578	233.64
693.767	157.86
693.956	225.45
694.146	215.21
694.335	200.87
694.524	174.25
694.713	192.68
694.902	98.47
695.092	98.47
695.281	176.3
695.47	65.71
695.659	125.1
695.848	77.99
696.037	123.05
696.226	258.21
696.415	174.25
696.604	184.49
696.793	229.54
696.982	139.43
697.171	258.21
697.36	123.05
697.549	157.86
697.738	24.75
697.927	121
698.116	57.51
698.305	159.91
698.494	174.25
698.683	141.48
698.872	319.65
699.061	151.72
699.25	157.86
699.438	123.05
699.627	123.05
699.816	252.07
700.005	90.28
700.193	63.66
700.382	143.53
700.571	127.14
700.76	188.58
700.948	250.02
701.137	204.97
701.326	106.67
701.514	100.52
701.703	143.53
701.892	104.62
702.08	381.09
702.269	90.28
702.457	110.76
702.646	213.16
702.834	188.58
703.023	188.58
703.212	178.34
703.4	155.82
703.589	82.09
703.777	92.33
703.965	8.36
704.154	92.33
704.342	86.19
704.531	110.76
704.719	157.86
704.907	198.82
705.096	82.09
705.284	55.47
705.472	198.82
705.661	235.69
705.849	247.97
706.037	221.35
706.226	129.19
706.414	166.06
706.602	133.29
706.79	168.1
706.979	114.86
707.167	127.14
707.355	114.86
707.543	215.21
707.731	135.34
707.919	176.3
708.107	151.72
708.296	75.95
708.484	43.18
708.672	123.05
708.86	182.44
709.048	133.29
709.236	131.24
709.424	131.24
709.612	159.91
709.8	98.47
709.988	80.04
710.176	237.74
710.364	217.26
710.551	96.43
710.739	133.29
710.927	133.29
711.115	190.63
711.303	245.93
711.491	202.92
711.679	75.95
711.866	274.6
712.054	192.68
712.242	129.19
712.43	278.69
712.617	135.34
712.805	209.06
712.993	151.72
713.181	24.75
713.368	200.87
713.556	223.4
713.744	149.67
713.931	379.04
714.119	270.5
714.306	114.86
714.494	112.81
714.682	108.71
714.869	22.7
715.057	133.29
715.244	90.28
715.432	237.74
715.619	71.85
715.807	143.53
715.994	80.04
716.182	200.87
716.369	166.06
716.556	215.21
716.744	-22.36
716.931	104.62
717.119	174.25
717.306	178.34
717.493	297.13
717.681	149.67
717.868	108.71
718.055	295.08
718.242	192.68
718.43	143.53
718.617	333.99
718.804	161.96
718.991	282.79
719.179	161.96
719.366	223.4
719.553	202.92
719.74	151.72
719.927	166.06
720.114	221.35
720.301	125.1
720.488	194.73
720.676	110.76
720.863	241.83
721.05	274.6
721.237	211.11
721.424	164.01
721.611	166.06
721.798	123.05
721.985	59.56
722.172	129.19
722.358	209.06
722.545	256.17
722.732	237.74
722.919	290.98
723.106	159.91
723.293	168.1
723.48	239.78
723.667	196.78
723.853	315.56
724.04	225.45
724.227	254.12
724.414	200.87
724.6	204.97
724.787	340.13
724.974	299.17
725.161	202.92
725.347	114.86
725.534	270.5
725.72	245.93
725.907	250.02
726.094	333.99
726.28	141.48
726.467	164.01
726.653	227.5
726.84	393.38
727.027	372.9
727.213	225.45
727.4	284.84
727.586	211.11
727.773	215.21
727.959	174.25
728.145	217.26
728.332	227.5
728.518	268.45
728.705	252.07
728.891	196.78
729.077	194.73
729.264	145.58
729.45	204.97
729.636	262.31
729.823	217.26
730.009	338.09
730.195	268.45
730.382	336.04
730.568	129.19
730.754	333.99
730.94	198.82
731.126	221.35
731.313	280.74
731.499	192.68
731.685	290.98
731.871	338.09
732.057	186.54
732.243	313.51
732.429	272.55
732.615	333.99
732.801	327.85
732.987	221.35
733.173	282.79
733.359	190.63
733.545	327.85
733.731	307.37
733.917	342.18
734.103	303.27
734.289	256.17
734.475	196.78
734.661	374.95
734.847	278.69
735.033	211.11
735.219	366.76
735.404	252.07
735.59	176.3
735.776	254.12
735.962	284.84
736.148	319.65
736.333	325.8
736.519	274.6
736.705	286.89
736.89	213.16
737.076	221.35
737.262	202.92
737.447	247.97
737.633	227.5
737.819	389.28
738.004	286.89
738.19	209.06
738.375	303.27
738.561	358.57
738.747	278.69
738.932	266.41
739.118	413.86
739.303	309.41
739.489	333.99
739.674	250.02
739.859	256.17
740.045	288.93
740.23	243.88
740.416	198.82
740.601	338.09
740.786	235.69
740.972	243.88
741.157	301.22
741.342	223.4
741.528	174.25
741.713	319.65
741.898	266.41
742.084	305.32
742.269	280.74
742.454	241.83
742.639	409.76
742.824	280.74
743.01	368.81
743.195	405.67
743.38	235.69
743.565	346.28
743.75	282.79
743.935	405.67
744.12	338.09
744.305	282.79
744.49	305.32
744.675	297.13
744.86	307.37
745.045	348.33
745.23	237.74
745.415	256.17
745.6	329.89
745.785	243.88
745.97	401.57
746.155	336.04
746.34	358.57
746.525	219.3
746.71	370.85
746.895	237.74
747.079	227.5
747.264	219.3
747.449	262.31
747.634	333.99
747.819	290.98
748.003	284.84
748.188	268.45
748.373	370.85
748.557	276.65
748.742	338.09
748.927	344.23
749.111	225.45
749.296	245.93
749.481	282.79
749.665	321.7
749.85	194.73
750.034	266.41
750.219	299.17
750.404	194.73
750.588	245.93
750.773	174.25
750.957	207.02
751.141	319.65
751.326	258.21
751.51	88.23
751.695	268.45
751.879	252.07
752.064	364.71
752.248	211.11
752.432	317.61
752.617	272.55
752.801	313.51
752.985	252.07
753.17	301.22
753.354	219.3
753.538	219.3
753.722	174.25
753.907	198.82
754.091	153.77
754.275	286.89
754.459	137.38
754.643	176.3
754.828	217.26
755.012	299.17
755.196	198.82
755.38	202.92
755.564	161.96
755.748	209.06
755.932	219.3
756.116	290.98
756.3	254.12
756.484	141.48
756.668	180.39
756.852	100.52
757.036	174.25
757.22	278.69
757.404	116.9
757.588	166.06
757.772	170.15
757.956	145.58
758.14	307.37
758.323	-34.64
758.507	274.6
758.691	182.44
758.875	305.32
759.059	258.21
759.242	198.82
759.426	221.35
759.61	215.21
759.794	161.96
759.977	178.34
760.161	424.1
760.345	288.93
760.528	217.26
760.712	227.5
760.895	166.06
761.079	153.77
761.263	37.03
761.446	155.82
761.63	180.39
761.813	151.72
761.997	10.41
762.18	123.05
762.364	207.02
762.547	92.33
762.731	198.82
762.914	202.92
763.098	141.48
763.281	137.38
763.464	143.53
763.648	114.86
763.831	100.52
764.015	45.23
764.198	184.49
764.381	73.9
764.564	106.67
764.748	180.39
764.931	176.3
765.114	135.34
765.297	102.57
765.481	18.6
765.664	225.45
765.847	118.95
766.03	139.43
766.213	73.9
766.397	184.49
766.58	108.71
766.763	223.4
766.946	131.24
767.129	112.81
767.312	84.14
767.495	125.1
767.678	14.51
767.861	157.86
768.044	65.71
768.227	116.9
768.41	157.86
768.593	141.48
768.776	112.81
768.959	-12.12
769.142	200.87
769.324	139.43
769.507	96.43
769.69	96.43
769.873	139.43
770.056	250.02
770.239	151.72
770.421	155.82
770.604	114.86
770.787	135.34
770.97	139.43
771.152	34.99
771.335	55.47
771.518	43.18
771.7	170.15
771.883	198.82
772.066	92.33
772.248	178.34
772.431	200.87
772.613	190.63
772.796	116.9
772.978	223.4
773.161	186.54
773.343	118.95
773.526	88.23
773.708	4.27
773.891	43.18
774.073	32.94
774.256	30.89
774.438	209.06
774.621	108.71
774.803	137.38
774.985	82.09
775.168	125.1
775.35	57.51
775.532	88.23
775.715	47.27
775.897	186.54
776.079	98.47
776.261	121
776.444	90.28
776.626	88.23
776.808	63.66
776.99	-28.5
777.173	67.75
777.355	75.95
777.537	141.48
777.719	108.71
777.901	45.23
778.083	28.84
778.265	4.27
778.447	92.33
778.629	69.8
778.811	92.33
778.993	192.68
779.175	123.05
779.357	108.71
779.539	104.62
779.721	129.19
779.903	77.99
780.085	43.18
780.267	110.76
780.449	57.51
780.631	65.71
780.812	229.54
780.994	20.65
781.176	98.47
781.358	-36.69
781.54	51.37
781.721	127.14
781.903	123.05
782.085	12.46
782.267	55.47
782.448	-83.8
782.63	114.86
782.812	63.66
782.993	106.67
783.175	139.43
783.357	121
783.538	-5.97
783.72	8.36
783.901	59.56
784.083	118.95
784.264	63.66
784.446	-40.79
784.627	-24.4
784.809	123.05
784.99	-30.55
785.172	49.32
785.353	14.51
785.535	118.95
785.716	-46.93
785.897	47.27
786.079	112.81
786.26	149.67
786.441	170.15
786.623	-24.4
786.804	59.56
786.985	51.37
787.167	106.67
787.348	-46.93
787.529	-26.45
787.71	108.71
787.891	90.28
788.073	-32.6
788.254	-8.02
788.435	141.48
788.616	161.96
788.797	10.41
788.978	-3.93
789.159	-22.36
789.34	137.38
789.522	61.61
789.703	-12.12
789.884	77.99
790.065	2.22
790.246	149.67
790.427	-61.27
790.607	53.42
790.788	133.29
790.969	-67.41
791.15	112.81
791.331	18.6
791.512	32.94
791.693	37.03
791.874	4.27
792.054	186.54
792.235	0.17
792.416	-85.84
792.597	-48.98
792.778	73.9
792.958	16.55
793.139	-8.02
793.32	118.95
793.5	-48.98
793.681	104.62
793.862	61.61
794.042	-16.21
794.223	-116.56
794.404	-59.22
794.584	-108.37
794.765	34.99
794.945	-8.02
795.126	88.23
795.306	71.85
795.487	24.75
795.667	-18.26
795.848	65.71
796.028	63.66
796.209	6.31
796.389	65.71
796.57	30.89
796.75	-42.84
796.93	2.22
797.111	8.36
797.291	-10.07
797.471	67.75
797.652	6.31
797.832	-16.21
798.012	135.34
798.192	0.17
798.373	-112.47
798.553	6.31
798.733	26.79
798.913	-48.98
799.093	-5.97
799.274	0.17
799.454	-16.21
799.634	90.28
799.814	114.86
799.994	-26.45
800.174	49.32
800.354	22.7
800.534	-53.08
800.714	8.36
800.894	-81.75
801.074	-57.17
801.254	-34.64
801.434	170.15
801.614	-3.93
801.794	-18.26
801.974	1947.79
802.154	8.36
802.334	139.43
802.514	-46.93
802.693	26.79
802.873	-75.6
803.053	161.96
803.233	32.94
803.413	65.71
803.592	18.6
803.772	2.22
803.952	12.46
804.131	6.31
804.311	71.85
804.491	135.34
804.67	-40.79
804.85	-65.36
805.03	57.51
805.209	61.61
805.389	59.56
805.568	-38.74
805.748	24.75
805.928	30.89
806.107	34.99
806.287	14.51
806.466	-51.03
806.646	20.65
806.825	49.32
807.004	-30.55
807.184	73.9
807.363	6.31
807.543	-10.07
807.722	20.65
807.901	161.96
808.081	26.79
808.26	-71.51
808.439	84.14
808.619	28.84
808.798	12.46
808.977	-20.31
809.156	131.24
809.336	20.65
809.515	108.71
809.694	-73.56
809.873	-1.88
810.052	59.56
810.231	125.1
810.411	57.51
810.59	118.95
810.769	-5.97
810.948	49.32
811.127	-77.65
811.306	-83.8
811.485	-20.31
811.664	137.38
811.843	71.85
812.022	-91.99
812.201	-94.04
812.38	-24.4
812.559	16.55
812.737	8.36
812.916	-75.6
813.095	-81.75
813.274	-10.07
813.453	41.13
813.632	0.17
813.811	37.03
813.989	-83.8
814.168	0.17
814.347	-51.03
814.526	65.71
814.704	49.32
814.883	108.71
815.062	-98.13
815.24	96.43
815.419	-81.75
815.598	-26.45
815.776	-81.75
815.955	-22.36
816.133	-120.66
816.312	32.94
816.49	-61.27
816.669	-40.79
816.847	-16.21
817.026	61.61
817.204	41.13
817.383	4.27
817.561	-91.99
817.74	14.51
817.918	73.9
818.097	-51.03
818.275	18.6
818.453	28.84
818.632	71.85
818.81	-46.93
818.988	-57.17
819.167	-98.13
819.345	-34.64
819.523	-24.4
819.701	-73.56
819.879	-8.02
820.058	39.08
820.236	61.61
820.414	26.79
820.592	39.08
820.77	71.85
820.948	-77.65
821.127	-42.84
821.305	-36.69
821.483	-46.93
821.661	82.09
821.839	-28.5
822.017	-34.64
822.195	-34.64
822.373	75.95
822.551	24.75
822.729	49.32
822.907	30.89
823.085	28.84
823.262	-57.17
823.44	-46.93
823.618	-16.21
823.796	-3.93
823.974	-3.93
824.152	-12.12
824.329	77.99
824.507	-22.36
824.685	30.89
824.863	-57.17
825.04	-34.64
825.218	45.23
825.396	-59.22
825.574	65.71
825.751	71.85
825.929	112.81
826.107	14.51
826.284	2.22
826.462	51.37
826.639	-26.45
826.817	-75.6
826.994	-22.36
827.172	-71.51
827.349	96.43
827.527	43.18
827.704	82.09
827.882	41.13
828.059	-24.4
828.237	-18.26
828.414	30.89
828.591	-83.8
828.769	-69.46
828.946	16.55
829.124	-10.07
829.301	108.71
829.478	-1.88
829.655	47.27
829.833	10.41
830.01	-42.84
830.187	-14.17
830.364	28.84
830.542	-14.17
830.719	65.71
830.896	96.43
831.073	16.55
831.25	-14.17
831.427	71.85
831.604	-69.46
831.782	-46.93
831.959	34.99
832.136	-20.31
832.313	12.46
832.49	-8.02
832.667	-18.26
832.844	-30.55
833.021	88.23
833.198	20.65
833.374	51.37
833.551	-3.93
833.728	-40.79
833.905	57.51
834.082	-122.71
834.259	43.18
834.436	96.43
834.612	-100.18
834.789	22.7
834.966	-8.02
835.143	-5.97
835.319	-94.04
835.496	-20.31
835.673	-30.55
835.85	20.65
836.026	123.05
836.203	51.37
836.38	-59.22
836.556	-26.45
836.733	-30.55
836.909	159.91
837.086	-46.93
837.262	-55.12
837.439	20.65
837.616	-79.7
837.792	28.84
837.968	-30.55
838.145	-126.8
838.321	12.46
838.498	-46.93
838.674	73.9
838.851	-16.21
839.027	-69.46
839.203	-16.21
839.38	59.56
839.556	-51.03
839.732	59.56
839.909	-14.17
840.085	14.51
840.261	-94.04
840.437	-1.88
840.614	-59.22
840.79	-26.45
840.966	51.37
841.142	22.7
841.318	24.75
841.494	14.51
841.671	67.75
841.847	-3.93
842.023	-69.46
842.199	16.55
842.375	104.62
842.551	-67.41
842.727	-87.89
842.903	100.52
843.079	-147.28
843.255	121
843.431	100.52
843.607	12.46
843.783	-151.38
843.959	43.18
844.134	-38.74
844.31	49.32
844.486	-12.12
844.662	-91.99
844.838	43.18
845.013	41.13
845.189	112.81
845.365	71.85
845.541	-71.51
845.716	-34.64
845.892	10.41
846.068	-18.26
846.244	-30.55
846.419	51.37
846.595	0.17
846.77	-57.17
846.946	73.9
847.122	-71.51
847.297	-18.26
847.473	164.01
847.648	-112.47
847.824	20.65
847.999	-104.28
848.175	-91.99
848.35	2.22
848.526	63.66
848.701	82.09
848.876	84.14
849.052	41.13
849.227	-69.46
849.403	-55.12
849.578	-116.56
849.753	0.17
849.929	-20.31
850.104	-46.93
850.279	51.37
850.454	2.22
850.63	65.71
850.805	20.65
850.98	53.42
851.155	4.27
851.33	-20.31
851.505	-126.8
851.681	80.04
851.856	-89.94
852.031	24.75
852.206	6.31
852.381	-34.64
852.556	-61.27
852.731	8.36
852.906	18.6
853.081	125.1
853.256	63.66
853.431	-36.69
853.606	0.17
853.781	-65.36
853.956	-120.66
854.131	63.66
854.305	-61.27
854.48	-124.76
854.655	-1.88
854.83	-75.6
855.005	-69.46
855.18	-36.69
855.354	-10.07
855.529	80.04
855.704	45.23
855.879	86.19
856.053	-59.22
856.228	18.6
856.403	-30.55
856.577	77.99
856.752	-132.95
856.926	-5.97
857.101	-28.5
857.276	-81.75
857.45	-59.22
857.625	-22.36
857.799	-20.31
857.974	18.6
858.148	-42.84
858.323	-8.02
858.497	-28.5
858.672	-81.75
858.846	-91.99
859.02	34.99
859.195	-114.52
859.369	-36.69
859.543	-5.97
859.718	-12.12
859.892	43.18
860.066	-12.12
860.241	-5.97
860.415	-141.14
860.589	-40.79
860.763	-34.64
860.938	26.79
861.112	121
861.286	-116.56
861.46	22.7
861.634	-10.07
861.808	77.99
861.982	-75.6
862.157	-73.56
862.331	-89.94
862.505	-30.55
862.679	-124.76
862.853	-69.46
863.027	-34.64
863.201	22.7
863.375	-16.21
863.549	2.22
863.722	-8.02
863.896	118.95
864.07	-67.41
864.244	-36.69
864.418	30.89
864.592	69.8
864.766	-14.17
864.939	-20.31
865.113	-40.79
865.287	45.23
865.461	-94.04
865.634	-51.03
865.808	-40.79
865.982	-118.61
866.156	-141.14
866.329	-124.76
866.503	6.31
866.676	96.43
866.85	8.36
867.024	-26.45
867.197	10.41
867.371	30.89
867.544	2.22
867.718	-147.28
867.891	106.67
868.065	-75.6
868.238	-51.03
868.412	30.89
868.585	55.47
868.759	14.51
868.932	-8.02
869.105	-55.12
869.279	-1.88
869.452	-85.84
869.625	77.99
869.799	-30.55
869.972	-67.41
870.145	47.27
870.319	8.36
870.492	-75.6
870.665	-8.02
870.838	-48.98
871.011	-149.33
871.185	53.42
871.358	10.41
871.531	53.42
871.704	-40.79
871.877	47.27
872.05	-69.46
872.223	-73.56
872.396	69.8
872.569	-14.17
872.742	-51.03
872.915	-28.5
873.088	-24.4
873.261	-10.07
873.434	34.99
873.607	82.09
873.78	34.99
873.953	-143.19
874.126	75.95
874.299	30.89
874.471	-81.75
874.644	-89.94
874.817	77.99
874.99	127.14
875.163	-16.21
875.335	-8.02
875.508	30.89
875.681	116.9
875.853	-30.55
876.026	-8.02
876.199	34.99
876.371	26.79
876.544	24.75
876.717	57.51
876.889	-38.74
877.062	32.94
877.234	-69.46
877.407	-42.84
877.579	24.75
877.752	22.7
877.924	-10.07
878.097	32.94
878.269	24.75
878.442	14.51
878.614	14.51
878.786	-16.21
878.959	-24.4
879.131	22.7
879.303	-161.62
879.476	-34.64
879.648	26.79
879.82	-79.7
879.993	-44.88
880.165	-67.41
880.337	-128.85
880.509	-120.66
880.681	-124.76
880.854	-30.55
881.026	20.65
881.198	141.48
881.37	-1.88
881.542	-40.79
881.714	-51.03
881.886	-71.51
882.058	-71.51
882.23	14.51
882.402	-69.46
882.574	28.84
882.746	82.09
882.918	-22.36
883.09	41.13
883.262	-98.13
883.434	-67.41
883.606	-124.76
883.778	-22.36
883.95	77.99
884.122	-12.12
884.293	37.03
884.465	30.89
884.637	37.03
884.809	-98.13
884.98	20.65
885.152	22.7
885.324	63.66
885.496	-55.12
885.667	-94.04
885.839	-40.79
886.011	45.23
886.182	121
886.354	69.8
886.525	0.17
886.697	55.47
886.869	-32.6
887.04	-42.84
887.212	26.79
887.383	135.34
887.555	24.75
887.726	-83.8
887.897	-24.4
888.069	8.36
888.24	-8.02
888.412	28.84
888.583	-3.93
888.754	-32.6
888.926	-112.47
889.097	-40.79
889.268	-141.14
889.44	-24.4
889.611	-24.4
889.782	-36.69
889.953	-96.08
890.125	92.33
890.296	-87.89
890.467	-5.97
890.638	-8.02
890.809	49.32
890.98	-1.88
891.151	-18.26
891.323	110.76
891.494	-18.26
891.665	69.8
891.836	-10.07
892.007	-73.56
892.178	-38.74
892.349	18.6
892.52	-122.71
892.691	-8.02
892.862	-16.21
893.032	-118.61
893.203	-26.45
893.374	-69.46
893.545	2.22
893.716	-8.02
893.887	10.41
894.057	-135
894.228	-38.74
894.399	-87.89
894.57	67.75
894.74	22.7
894.911	-40.79
895.082	-69.46
895.253	-26.45
895.423	6.31
895.594	88.23
895.764	67.75
895.935	-83.8
896.106	14.51
896.276	-28.5
896.447	14.51
896.617	-26.45
896.788	-40.79
896.958	18.6
897.129	-20.31
897.299	-51.03
897.47	61.61
897.64	4.27
897.81	14.51
897.981	51.37
898.151	-120.66
898.322	22.7
898.492	0.17
898.662	-67.41
898.832	-22.36
899.003	2.22
899.173	12.46
899.343	-44.88
899.513	-91.99
