Data from USB4F104151__87__10-34-38-333.txt Node

Date: Wed Feb 26 10:34:38 EST 2025
User: louis
Spectrometer: USB4F10415
Trigger mode: 4
Integration Time (sec): 1.000000E-1
Scans to average: 1
Electric dark correction enabled: true
Nonlinearity correction enabled: false
Boxcar width: 0
XAxis mode: Wavelengths
Number of Pixels in Spectrum: 3648
>>>>>Begin Spectral Data<<<<<
178.204	-355.15
178.424	-355.15
178.644	-355.15
178.864	-394.06
179.084	-371.54
179.304	7.34
179.524	-56.15
179.744	-13.14
179.964	25.77
180.184	36.01
180.404	-0.85
180.624	-25.43
180.844	-7
181.064	-15.19
181.283	38.06
181.503	-33.62
181.723	44.2
181.943	-70.48
182.163	146.6
182.383	-66.39
182.602	38.06
182.822	171.18
183.042	7.34
183.262	-60.24
183.482	-0.85
183.701	50.35
183.921	36.01
184.141	15.53
184.361	76.97
184.58	64.68
184.8	119.98
185.02	25.77
185.239	74.92
185.459	91.31
185.679	109.74
185.898	-39.76
186.118	42.15
186.338	27.82
186.557	140.46
186.777	29.87
186.997	1.19
187.216	66.73
187.436	128.17
187.655	58.54
187.875	113.83
188.095	64.68
188.314	177.32
188.534	99.5
188.753	-37.72
188.973	54.44
189.192	175.27
189.412	-39.76
189.631	38.06
189.851	66.73
190.07	140.46
190.29	58.54
190.509	3.24
190.729	23.72
190.948	210.09
191.168	197.8
191.387	68.78
191.607	-35.67
191.826	95.4
192.045	74.92
192.265	52.39
192.484	60.59
192.704	58.54
192.923	36.01
193.142	183.46
193.362	11.43
193.581	181.42
193.8	58.54
194.02	74.92
194.239	-11.09
194.458	115.88
194.678	-21.33
194.897	-17.24
195.116	29.87
195.335	52.39
195.555	56.49
195.774	-50
195.993	11.43
196.212	42.15
196.432	-0.85
196.651	5.29
196.87	52.39
197.089	142.5
197.308	70.83
197.528	83.11
197.747	-113.49
197.966	40.11
198.185	126.12
198.404	-58.2
198.623	70.83
198.842	203.94
199.062	109.74
199.281	29.87
199.5	91.31
199.719	70.83
199.938	81.07
200.157	58.54
200.376	173.22
200.595	126.12
200.814	23.72
201.033	-33.62
201.252	203.94
201.471	19.63
201.69	111.78
201.909	46.25
202.128	128.17
202.347	111.78
202.566	66.73
202.785	-86.87
203.004	-29.52
203.223	263.33
203.442	-33.62
203.661	-15.19
203.879	-0.85
204.098	119.98
204.317	-7
204.536	46.25
204.755	134.31
204.974	138.41
205.193	-31.57
205.411	91.31
205.63	136.36
205.849	105.64
206.068	7.34
206.287	-25.43
206.505	95.4
206.724	48.3
206.943	21.67
207.162	13.48
207.381	46.25
207.599	-21.33
207.818	7.34
208.037	-35.67
208.255	81.07
208.474	128.17
208.693	-11.09
208.911	31.91
209.13	117.93
209.349	148.65
209.567	31.91
209.786	58.54
210.005	79.02
210.223	62.63
210.442	-84.82
210.661	-9.05
210.879	44.2
211.098	-0.85
211.316	93.35
211.535	21.67
211.753	7.34
211.972	113.83
212.191	3.24
212.409	66.73
212.628	91.31
212.846	54.44
213.065	50.35
213.283	119.98
213.502	-11.09
213.72	44.2
213.938	68.78
214.157	1.19
214.375	142.5
214.594	33.96
214.812	124.07
215.031	52.39
215.249	107.69
215.467	132.26
215.686	13.48
215.904	36.01
216.122	68.78
216.341	132.26
216.559	3.24
216.778	117.93
216.996	210.09
217.214	-11.09
217.432	-4.95
217.651	-37.72
217.869	-9.05
218.087	42.15
218.306	23.72
218.524	99.5
218.742	87.21
218.96	140.46
219.179	13.48
219.397	87.21
219.615	212.14
219.833	76.97
220.051	-25.43
220.27	124.07
220.488	132.26
220.706	95.4
220.924	85.16
221.142	83.11
221.36	50.35
221.578	56.49
221.796	50.35
222.015	-27.48
222.233	89.26
222.451	124.07
222.669	-25.43
222.887	50.35
223.105	-70.48
223.323	13.48
223.541	3.24
223.759	97.45
223.977	23.72
224.195	224.42
224.413	107.69
224.631	21.67
224.849	60.59
225.067	136.36
225.285	-17.24
225.503	48.3
225.721	-80.72
225.939	58.54
226.157	91.31
226.375	242.85
226.592	-23.38
226.81	-17.24
227.028	150.7
227.246	197.8
227.464	124.07
227.682	76.97
227.9	122.02
228.117	136.36
228.335	74.92
228.553	38.06
228.771	58.54
228.989	50.35
229.206	89.26
229.424	-27.48
229.642	50.35
229.86	-103.25
230.077	179.37
230.295	31.91
230.513	44.2
230.731	58.54
230.948	173.22
231.166	193.7
231.384	64.68
231.601	-39.76
231.819	148.65
232.037	-56.15
232.254	9.39
232.472	31.91
232.689	23.72
232.907	122.02
233.125	-15.19
233.342	46.25
233.56	-23.38
233.777	19.63
233.995	-25.43
234.213	105.64
234.43	115.88
234.648	17.58
234.865	1.19
235.083	46.25
235.3	9.39
235.518	68.78
235.735	74.92
235.953	36.01
236.17	25.77
236.388	-54.1
236.605	87.21
236.822	152.74
237.04	146.6
237.257	158.89
237.475	1.19
237.692	9.39
237.909	60.59
238.127	-7
238.344	36.01
238.562	17.58
238.779	-13.14
238.996	-70.48
239.214	17.58
239.431	21.67
239.648	-21.33
239.865	95.4
240.083	27.82
240.3	17.58
240.517	33.96
240.735	42.15
240.952	109.74
241.169	44.2
241.386	95.4
241.603	44.2
241.821	-95.06
242.038	109.74
242.255	68.78
242.472	-17.24
242.689	38.06
242.907	109.74
243.124	38.06
243.341	87.21
243.558	-2.9
243.775	-103.25
243.992	-50
244.209	109.74
244.426	181.42
244.643	7.34
244.86	-15.19
245.078	117.93
245.295	50.35
245.512	7.34
245.729	54.44
245.946	56.49
246.163	99.5
246.38	-2.9
246.597	62.63
246.814	36.01
247.031	83.11
247.248	-43.86
247.464	109.74
247.681	-11.09
247.898	52.39
248.115	111.78
248.332	-33.62
248.549	101.55
248.766	189.61
248.983	56.49
249.2	70.83
249.417	134.31
249.633	-43.86
249.85	66.73
250.067	-45.91
250.284	64.68
250.501	38.06
250.717	72.87
250.934	-62.29
251.151	52.39
251.368	33.96
251.585	36.01
251.801	21.67
252.018	5.29
252.235	95.4
252.451	-45.91
252.668	107.69
252.885	101.55
253.102	70.83
253.318	11.43
253.535	-39.76
253.752	-13.14
253.968	-23.38
254.185	-23.38
254.401	56.49
254.618	40.11
254.835	21.67
255.051	42.15
255.268	126.12
255.484	-27.48
255.701	25.77
255.917	74.92
256.134	23.72
256.351	83.11
256.567	5.29
256.784	-29.52
257	-86.87
257.217	130.22
257.433	95.4
257.65	-15.19
257.866	115.88
258.082	-54.1
258.299	-74.58
258.515	48.3
258.732	21.67
258.948	-39.76
259.165	70.83
259.381	-66.39
259.597	15.53
259.814	-31.57
260.03	-35.67
260.246	-15.19
260.463	134.31
260.679	152.74
260.895	38.06
261.112	44.2
261.328	48.3
261.544	-25.43
261.761	142.5
261.977	11.43
262.193	31.91
262.409	138.41
262.626	76.97
262.842	19.63
263.058	11.43
263.274	150.7
263.49	27.82
263.707	72.87
263.923	72.87
264.139	-45.91
264.355	40.11
264.571	107.69
264.787	13.48
265.004	103.59
265.22	85.16
265.436	-7
265.652	38.06
265.868	11.43
266.084	-142.16
266.3	17.58
266.516	-37.72
266.732	64.68
266.948	46.25
267.164	13.48
267.38	97.45
267.596	89.26
267.812	85.16
268.028	58.54
268.244	25.77
268.46	44.2
268.676	-4.95
268.892	15.53
269.108	21.67
269.324	-72.53
269.54	-21.33
269.756	81.07
269.972	-95.06
270.188	-19.29
270.403	33.96
270.619	68.78
270.835	21.67
271.051	50.35
271.267	13.48
271.483	-29.52
271.698	83.11
271.914	31.91
272.13	68.78
272.346	-37.72
272.562	70.83
272.777	132.26
272.993	-19.29
273.209	-27.48
273.425	91.31
273.64	-58.2
273.856	115.88
274.072	-19.29
274.287	-7
274.503	167.08
274.719	70.83
274.934	44.2
275.15	-93.01
275.366	-0.85
275.581	27.82
275.797	-39.76
276.012	-15.19
276.228	-52.05
276.444	11.43
276.659	111.78
276.875	11.43
277.09	76.97
277.306	1.19
277.521	23.72
277.737	48.3
277.952	109.74
278.168	31.91
278.383	64.68
278.599	83.11
278.814	91.31
279.03	29.87
279.245	232.62
279.461	17.58
279.676	62.63
279.892	-82.77
280.107	-78.68
280.322	64.68
280.538	5.29
280.753	-7
280.969	97.45
281.184	-19.29
281.399	132.26
281.615	-33.62
281.83	11.43
282.045	5.29
282.26	40.11
282.476	5.29
282.691	146.6
282.906	109.74
283.122	-35.67
283.337	17.58
283.552	97.45
283.767	-15.19
283.983	128.17
284.198	58.54
284.413	115.88
284.628	-136.02
284.843	40.11
285.058	93.35
285.274	-29.52
285.489	-43.86
285.704	167.08
285.919	66.73
286.134	11.43
286.349	81.07
286.564	21.67
286.779	70.83
286.995	25.77
287.21	-27.48
287.425	9.39
287.64	-45.91
287.855	54.44
288.07	-80.72
288.285	158.89
288.5	128.17
288.715	97.45
288.93	122.02
289.145	-2.9
289.36	117.93
289.575	-31.57
289.79	40.11
290.004	27.82
290.219	134.31
290.434	-56.15
290.649	21.67
290.864	70.83
291.079	70.83
291.294	107.69
291.509	21.67
291.724	89.26
291.938	-23.38
292.153	42.15
292.368	74.92
292.583	89.26
292.798	17.58
293.012	117.93
293.227	66.73
293.442	13.48
293.657	58.54
293.871	146.6
294.086	42.15
294.301	203.94
294.516	150.7
294.73	91.31
294.945	21.67
295.16	-0.85
295.374	105.64
295.589	83.11
295.804	-15.19
296.018	56.49
296.233	124.07
296.447	-0.85
296.662	46.25
296.877	156.84
297.091	42.15
297.306	13.48
297.52	40.11
297.735	113.83
297.949	17.58
298.164	81.07
298.378	85.16
298.593	-68.44
298.807	-15.19
299.022	15.53
299.236	140.46
299.451	-35.67
299.665	-4.95
299.88	74.92
300.094	105.64
300.309	-27.48
300.523	-7
300.737	66.73
300.952	62.63
301.166	44.2
301.381	-9.05
301.595	13.48
301.809	70.83
302.024	-7
302.238	-15.19
302.452	117.93
302.667	76.97
302.881	38.06
303.095	89.26
303.309	46.25
303.524	13.48
303.738	-23.38
303.952	33.96
304.166	146.6
304.381	-74.58
304.595	142.5
304.809	-60.24
305.023	36.01
305.237	-37.72
305.452	95.4
305.666	74.92
305.88	97.45
306.094	81.07
306.308	38.06
306.522	76.97
306.736	91.31
306.95	119.98
307.164	-19.29
307.379	38.06
307.593	130.22
307.807	113.83
308.021	160.94
308.235	74.92
308.449	-47.96
308.663	-60.24
308.877	195.75
309.091	76.97
309.305	74.92
309.519	-50
309.733	154.79
309.947	-88.92
310.161	19.63
310.374	60.59
310.588	89.26
310.802	1.19
311.016	50.35
311.23	142.5
311.444	-0.85
311.658	-31.57
311.872	148.65
312.085	134.31
312.299	107.69
312.513	187.56
312.727	-13.14
312.941	-7
313.154	81.07
313.368	21.67
313.582	64.68
313.796	-47.96
314.009	81.07
314.223	181.42
314.437	-23.38
314.651	113.83
314.864	-47.96
315.078	36.01
315.292	-33.62
315.505	23.72
315.719	15.53
315.933	62.63
316.146	-56.15
316.36	40.11
316.573	130.22
316.787	134.31
317.001	103.59
317.214	-11.09
317.428	46.25
317.641	31.91
317.855	36.01
318.068	109.74
318.282	48.3
318.495	87.21
318.709	54.44
318.922	48.3
319.136	113.83
319.349	91.31
319.563	9.39
319.776	33.96
319.99	-101.2
320.203	48.3
320.417	9.39
320.63	132.26
320.843	103.59
321.057	13.48
321.27	9.39
321.483	93.35
321.697	124.07
321.91	58.54
322.124	-23.38
322.337	103.59
322.55	-27.48
322.763	44.2
322.977	56.49
323.19	23.72
323.403	72.87
323.617	189.61
323.83	128.17
324.043	-27.48
324.256	21.67
324.469	-45.91
324.683	74.92
324.896	31.91
325.109	15.53
325.322	-133.97
325.535	117.93
325.748	113.83
325.962	-25.43
326.175	76.97
326.388	21.67
326.601	150.7
326.814	64.68
327.027	23.72
327.24	197.8
327.453	-41.81
327.666	48.3
327.879	105.64
328.092	64.68
328.305	95.4
328.518	-29.52
328.731	46.25
328.944	70.83
329.157	103.59
329.37	-27.48
329.583	62.63
329.796	199.85
330.009	-88.92
330.222	87.21
330.435	165.03
330.648	44.2
330.861	79.02
331.073	119.98
331.286	83.11
331.499	31.91
331.712	44.2
331.925	27.82
332.138	54.44
332.35	130.22
332.563	-15.19
332.776	138.41
332.989	-60.24
333.202	-64.34
333.414	144.55
333.627	31.91
333.84	76.97
334.053	3.24
334.265	13.48
334.478	-9.05
334.691	56.49
334.903	97.45
335.116	-25.43
335.329	-13.14
335.541	91.31
335.754	134.31
335.966	-29.52
336.179	29.87
336.392	9.39
336.604	36.01
336.817	128.17
337.029	62.63
337.242	3.24
337.454	140.46
337.667	46.25
337.88	101.55
338.092	70.83
338.305	103.59
338.517	5.29
338.729	72.87
338.942	68.78
339.154	-95.06
339.367	11.43
339.579	95.4
339.792	-27.48
340.004	56.49
340.217	46.25
340.429	130.22
340.641	-45.91
340.854	-72.53
341.066	-58.2
341.278	68.78
341.491	148.65
341.703	48.3
341.915	36.01
342.128	148.65
342.34	40.11
342.552	-74.58
342.764	29.87
342.977	52.39
343.189	111.78
343.401	107.69
343.613	-127.83
343.826	11.43
344.038	7.34
344.25	87.21
344.462	21.67
344.674	46.25
344.886	-31.57
345.099	74.92
345.311	99.5
345.523	-13.14
345.735	-35.67
345.947	25.77
346.159	81.07
346.371	29.87
346.583	15.53
346.795	257.19
347.007	-50
347.219	62.63
347.431	11.43
347.643	105.64
347.855	17.58
348.067	126.12
348.279	-7
348.491	19.63
348.703	64.68
348.915	89.26
349.127	-47.96
349.339	25.77
349.551	38.06
349.763	36.01
349.975	-39.76
350.187	122.02
350.399	160.94
350.61	107.69
350.822	38.06
351.034	42.15
351.246	23.72
351.458	148.65
351.669	54.44
351.881	93.35
352.093	97.45
352.305	142.5
352.517	130.22
352.728	150.7
352.94	124.07
353.152	81.07
353.363	-76.63
353.575	95.4
353.787	93.35
353.999	11.43
354.21	179.37
354.422	-50
354.633	36.01
354.845	66.73
355.057	17.58
355.268	117.93
355.48	79.02
355.692	-70.48
355.903	-19.29
356.115	5.29
356.326	-62.29
356.538	29.87
356.749	136.36
356.961	181.42
357.172	-31.57
357.384	-41.81
357.595	212.14
357.807	40.11
358.018	-19.29
358.23	31.91
358.441	175.27
358.653	119.98
358.864	95.4
359.075	-47.96
359.287	46.25
359.498	87.21
359.709	97.45
359.921	58.54
360.132	68.78
360.344	33.96
360.555	-25.43
360.766	48.3
360.977	46.25
361.189	91.31
361.4	13.48
361.611	109.74
361.823	72.87
362.034	48.3
362.245	-43.86
362.456	25.77
362.667	91.31
362.879	-43.86
363.09	74.92
363.301	72.87
363.512	103.59
363.723	19.63
363.935	-25.43
364.146	79.02
364.357	-25.43
364.568	150.7
364.779	-29.52
364.99	111.78
365.201	-7
365.412	124.07
365.623	-41.81
365.834	60.59
366.045	1.19
366.256	72.87
366.467	44.2
366.678	-13.14
366.889	31.91
367.1	-23.38
367.311	91.31
367.522	-74.58
367.733	74.92
367.944	54.44
368.155	58.54
368.366	111.78
368.577	171.18
368.788	122.02
368.999	25.77
369.209	95.4
369.42	167.08
369.631	208.04
369.842	95.4
370.053	-4.95
370.264	31.91
370.474	31.91
370.685	70.83
370.896	31.91
371.107	79.02
371.317	23.72
371.528	-45.91
371.739	97.45
371.95	42.15
372.16	140.46
372.371	17.58
372.582	-60.24
372.792	115.88
373.003	3.24
373.214	74.92
373.424	29.87
373.635	-19.29
373.846	140.46
374.056	134.31
374.267	85.16
374.477	62.63
374.688	38.06
374.898	56.49
375.109	36.01
375.319	70.83
375.53	136.36
375.74	144.55
375.951	19.63
376.161	54.44
376.372	68.78
376.582	31.91
376.793	68.78
377.003	29.87
377.214	-52.05
377.424	-21.33
377.635	62.63
377.845	11.43
378.055	111.78
378.266	-64.34
378.476	72.87
378.686	13.48
378.897	83.11
379.107	195.75
379.317	52.39
379.528	-29.52
379.738	95.4
379.948	-62.29
380.158	79.02
380.369	50.35
380.579	72.87
380.789	54.44
380.999	33.96
381.21	101.55
381.42	134.31
381.63	48.3
381.84	17.58
382.05	74.92
382.261	154.79
382.471	138.41
382.681	-80.72
382.891	105.64
383.101	33.96
383.311	-97.11
383.521	-56.15
383.731	72.87
383.941	113.83
384.151	48.3
384.361	-29.52
384.571	27.82
384.781	64.68
384.991	261.29
385.201	132.26
385.411	130.22
385.621	56.49
385.831	27.82
386.041	44.2
386.251	29.87
386.461	95.4
386.671	3.24
386.881	58.54
387.091	21.67
387.301	140.46
387.511	-52.05
387.72	-9.05
387.93	21.67
388.14	-113.49
388.35	126.12
388.56	79.02
388.769	142.5
388.979	-58.2
389.189	-27.48
389.399	54.44
389.609	117.93
389.818	36.01
390.028	62.63
390.238	64.68
390.447	-39.76
390.657	68.78
390.867	44.2
391.076	27.82
391.286	87.21
391.496	48.3
391.705	29.87
391.915	177.32
392.125	115.88
392.334	36.01
392.544	66.73
392.753	17.58
392.963	-127.83
393.172	33.96
393.382	-62.29
393.591	292.01
393.801	25.77
394.01	154.79
394.22	54.44
394.429	1.19
394.639	-0.85
394.848	68.78
395.058	144.55
395.267	-15.19
395.477	64.68
395.686	33.96
395.895	146.6
396.105	238.76
396.314	62.63
396.524	-60.24
396.733	13.48
396.942	101.55
397.152	91.31
397.361	107.69
397.57	103.59
397.78	66.73
397.989	11.43
398.198	208.04
398.407	134.31
398.617	105.64
398.826	62.63
399.035	42.15
399.244	150.7
399.453	68.78
399.663	52.39
399.872	46.25
400.081	-58.2
400.29	101.55
400.499	-66.39
400.708	79.02
400.917	23.72
401.127	36.01
401.336	-31.57
401.545	128.17
401.754	154.79
401.963	74.92
402.172	21.67
402.381	-60.24
402.59	27.82
402.799	29.87
403.008	136.36
403.217	42.15
403.426	72.87
403.635	-41.81
403.844	31.91
404.053	54.44
404.262	46.25
404.471	122.02
404.68	81.07
404.888	27.82
405.097	40.11
405.306	70.83
405.515	40.11
405.724	-62.29
405.933	113.83
406.142	68.78
406.35	113.83
406.559	95.4
406.768	119.98
406.977	183.46
407.185	29.87
407.394	91.31
407.603	7.34
407.812	36.01
408.02	109.74
408.229	23.72
408.438	74.92
408.646	1.19
408.855	64.68
409.064	105.64
409.272	19.63
409.481	103.59
409.69	-21.33
409.898	-9.05
410.107	115.88
410.315	109.74
410.524	-2.9
410.733	111.78
410.941	36.01
411.15	117.93
411.358	76.97
411.567	97.45
411.775	11.43
411.984	56.49
412.192	140.46
412.401	-21.33
412.609	58.54
412.818	99.5
413.026	130.22
413.234	-7
413.443	74.92
413.651	-58.2
413.86	54.44
414.068	130.22
414.276	160.94
414.485	-76.63
414.693	212.14
414.901	101.55
415.11	109.74
415.318	93.35
415.526	17.58
415.734	64.68
415.943	11.43
416.151	160.94
416.359	83.11
416.567	38.06
416.776	99.5
416.984	68.78
417.192	177.32
417.4	23.72
417.608	-11.09
417.817	-2.9
418.025	62.63
418.233	173.22
418.441	-19.29
418.649	-74.58
418.857	15.53
419.065	85.16
419.273	-93.01
419.481	-25.43
419.689	38.06
419.897	-15.19
420.105	-86.87
420.313	140.46
420.521	76.97
420.729	111.78
420.937	25.77
421.145	-41.81
421.353	130.22
421.561	140.46
421.769	50.35
421.977	56.49
422.185	134.31
422.393	25.77
422.601	70.83
422.809	62.63
423.017	42.15
423.224	17.58
423.432	85.16
423.64	-45.91
423.848	93.35
424.056	25.77
424.263	167.08
424.471	9.39
424.679	50.35
424.887	-84.82
425.094	72.87
425.302	81.07
425.51	64.68
425.718	105.64
425.925	27.82
426.133	-50
426.341	134.31
426.548	38.06
426.756	62.63
426.964	150.7
427.171	-54.1
427.379	50.35
427.586	64.68
427.794	50.35
428.001	72.87
428.209	81.07
428.417	122.02
428.624	115.88
428.832	74.92
429.039	1.19
429.247	54.44
429.454	103.59
429.662	148.65
429.869	115.88
430.076	62.63
430.284	48.3
430.491	171.18
430.699	62.63
430.906	103.59
431.114	74.92
431.321	83.11
431.528	91.31
431.736	95.4
431.943	105.64
432.15	138.41
432.358	201.9
432.565	185.51
432.772	-121.68
432.979	111.78
433.187	38.06
433.394	62.63
433.601	29.87
433.808	173.22
434.016	136.36
434.223	76.97
434.43	99.5
434.637	154.79
434.844	169.13
435.052	117.93
435.259	105.64
435.466	165.03
435.673	160.94
435.88	140.46
436.087	189.61
436.294	158.89
436.501	126.12
436.708	205.99
436.915	101.55
437.122	185.51
437.329	109.74
437.537	115.88
437.743	158.89
437.95	148.65
438.157	111.78
438.364	140.46
438.571	124.07
438.778	169.13
438.985	232.62
439.192	199.85
439.399	140.46
439.606	165.03
439.813	171.18
440.02	251.05
440.227	351.4
440.433	191.66
440.64	230.57
440.847	193.7
441.054	324.77
441.261	349.35
441.467	320.68
441.674	259.24
441.881	322.73
442.088	306.34
442.294	339.11
442.501	390.31
442.708	396.45
442.914	259.24
443.121	341.16
443.328	339.11
443.534	398.5
443.741	361.64
443.948	294.05
444.154	384.16
444.361	482.47
444.568	421.03
444.774	367.78
444.981	357.54
445.187	539.81
445.394	480.42
445.6	515.23
445.807	580.77
446.013	492.71
446.22	445.6
446.426	584.87
446.633	584.87
446.839	722.08
447.046	486.56
447.252	709.79
447.459	648.35
447.665	650.4
447.871	760.99
448.078	804
448.284	804
448.491	830.62
448.697	801.95
448.903	906.4
449.11	926.88
449.316	844.96
449.522	1006.75
449.728	971.93
449.935	967.84
450.141	990.36
450.347	1170.58
450.553	1064.09
450.76	1164.44
450.966	1121.43
451.172	1166.49
451.378	1270.94
451.584	1287.32
451.791	1438.87
451.997	1402.01
452.203	1539.22
452.409	1539.22
452.615	1645.71
452.821	1518.74
453.027	1549.46
453.233	1838.22
453.44	1614.99
453.646	1729.68
453.852	1887.37
454.058	1883.28
454.264	1883.28
454.47	2227.34
454.676	2178.19
454.882	2256.01
455.088	2227.34
455.294	2229.38
455.5	2475.14
455.705	2659.46
455.911	2688.13
456.117	2501.76
456.323	2694.27
456.529	2792.58
456.735	2976.89
456.941	3056.76
457.147	3366.01
457.352	3327.1
457.558	3329.14
457.764	3679.35
457.97	3767.41
458.176	3826.8
458.381	4115.56
458.587	4361.32
458.793	4351.08
458.999	4355.18
459.204	4840.54
459.41	4942.94
459.616	5006.43
459.821	5119.07
460.027	5454.94
460.233	5686.36
460.438	5672.02
460.644	6130.77
460.85	6077.52
461.055	6339.66
461.261	6644.81
461.466	6634.57
461.672	6523.98
461.878	7423.03
462.083	7420.99
462.289	7251
462.494	7719.99
462.7	7808.05
462.905	7869.49
463.111	8422.44
463.316	9075.74
463.522	9174.05
463.727	9427.99
463.932	9714.71
464.138	10050.58
464.343	10320.91
464.549	10533.9
464.754	11359.23
464.959	11672.57
465.165	11672.57
465.37	11740.15
465.575	11629.56
465.781	12415.98
465.986	12839.91
466.191	12737.51
466.397	12628.97
466.602	12755.94
466.807	13112.29
467.012	13468.64
467.218	13849.56
467.423	13687.77
467.628	14134.23
467.833	14640.08
468.038	14498.77
468.244	14025.68
468.449	14961.61
468.654	14783.43
468.859	14906.31
469.064	14783.43
469.269	14369.74
469.474	14459.85
469.679	14803.91
469.885	14558.16
470.09	14693.32
470.295	14726.09
470.5	14228.43
470.705	14398.41
470.91	14150.61
471.115	13941.72
471.32	14293.97
471.525	14242.77
471.73	13372.38
471.935	13579.23
472.139	12927.97
472.344	13261.79
472.549	12897.25
472.754	12680.17
472.959	12569.58
473.164	11887.61
473.369	11533.31
473.574	12051.44
473.778	11727.86
473.983	11598.84
474.188	11500.54
474.393	10974.21
474.598	11047.94
474.802	10490.89
475.007	10564.62
475.212	10513.42
475.417	9862.16
475.621	10083.34
475.826	9704.47
476.031	9503.77
476.235	9659.42
476.44	9233.44
476.645	9301.02
476.849	8889.38
477.054	8815.65
477.259	8688.68
477.463	8780.84
477.668	8436.78
477.872	8713.25
478.077	8064.05
478.282	7861.3
478.486	7975.98
478.691	7939.12
478.895	7623.73
479.1	7623.73
479.304	7666.74
479.509	7398.46
479.713	7629.88
479.918	7332.92
480.122	7189.56
480.326	7251
480.531	7277.63
480.735	7169.09
480.94	6962.24
481.144	7259.2
481.348	6825.03
481.553	7021.63
481.757	6861.89
481.961	6847.55
482.166	6765.64
482.37	6597.7
482.574	6523.98
482.778	6480.97
482.983	6665.28
483.187	6425.67
483.391	6573.13
483.595	6440.01
483.8	6407.24
484.004	6317.13
484.208	6308.94
484.412	6095.95
484.616	6282.31
484.821	6093.9
485.025	5983.31
485.229	5823.57
485.433	5930.06
485.637	5932.11
485.841	5583.96
486.045	5639.25
486.249	5508.18
486.453	5504.09
486.657	5360.73
486.861	5241.95
487.065	5153.88
487.269	5162.08
487.473	5033.05
487.677	5026.91
487.881	5139.55
488.085	4770.91
488.289	4707.43
488.493	4557.93
488.697	4750.43
488.901	4709.47
489.105	4424.81
489.309	4412.52
489.512	4310.12
489.716	4250.73
489.92	4367.46
490.124	4002.93
490.328	4260.97
490.531	4021.36
490.735	4062.32
490.939	3724.4
491.143	3761.27
491.346	3593.33
491.55	3689.59
491.754	3615.86
491.958	3587.19
492.161	3554.42
492.365	3476.6
492.569	3349.62
492.772	3351.67
492.976	3400.82
493.18	3232.89
493.383	3269.75
493.587	3296.38
493.79	3261.56
493.994	2997.37
494.197	3040.38
494.401	3001.47
494.605	2995.32
494.808	2948.22
495.012	2931.84
495.215	3058.81
495.419	3013.76
495.622	2923.65
495.825	2880.64
496.029	2761.86
496.232	2899.07
496.436	2958.46
496.639	3067
496.843	2837.63
497.046	2843.78
497.249	2944.13
497.453	2878.59
497.656	2901.12
497.859	2839.68
498.063	2991.23
498.266	2931.84
498.469	2890.88
498.673	2815.1
498.876	2935.93
499.079	2886.78
499.282	2903.17
499.485	3196.03
499.689	3021.95
499.892	3081.34
500.095	2948.22
500.298	2987.13
500.501	2983.04
500.705	3071.1
500.908	3234.94
501.111	3105.92
501.314	3230.84
501.517	3302.52
501.72	3236.99
501.923	3261.56
502.126	3337.34
502.329	3429.49
502.532	3386.49
502.735	3531.89
502.938	3556.47
503.141	3529.84
503.344	3497.08
503.547	3712.11
503.75	3542.13
503.953	3609.72
504.156	3789.94
504.359	3671.15
504.562	3867.76
504.765	3927.15
504.968	3968.11
505.17	4201.58
505.373	4115.56
505.576	4064.36
505.779	4244.59
505.982	4172.91
506.185	4490.34
506.387	4392.04
506.59	4598.88
506.793	4605.03
506.996	4533.35
507.198	4795.49
507.401	5037.15
507.604	5016.67
507.807	5047.39
508.009	5301.34
508.212	5284.95
508.415	5305.43
508.617	5461.08
508.82	5592.15
509.022	5553.24
509.225	5909.58
509.428	5833.81
509.63	6022.22
509.833	6065.23
510.035	6722.63
510.238	6478.92
510.44	6591.56
510.643	6661.19
510.845	6896.71
511.048	6982.72
511.25	7255.1
511.453	7418.94
511.655	7789.62
511.858	7951.41
512.06	7922.74
512.262	7957.55
512.465	8057.9
512.667	8477.74
512.87	8705.06
513.072	8660.01
513.274	8999.97
513.477	9151.52
513.679	9401.37
513.881	9663.51
514.084	9788.44
514.286	10142.74
514.488	10300.43
514.69	10552.33
514.893	10722.31
515.095	11121.66
515.297	11201.54
515.499	11404.28
515.701	11672.57
515.904	12059.63
516.106	12215.28
516.308	12694.5
516.51	13001.7
516.712	13177.83
516.914	13413.34
517.116	13528.03
517.318	13761.5
517.52	14101.46
517.722	14199.76
517.925	14736.33
518.127	15057.86
518.329	15207.36
518.531	15250.37
518.733	15856.57
518.935	16153.52
519.136	15999.93
519.338	16688.04
519.54	17054.63
519.742	17470.37
519.944	17367.97
520.146	17779.61
520.348	18117.53
520.55	18189.21
520.752	18408.34
520.954	19018.63
521.155	18840.46
521.357	19450.75
521.559	19594.11
521.761	19856.25
521.963	19989.37
522.164	20267.89
522.366	20421.49
522.568	20673.39
522.77	20757.36
522.971	21279.59
523.173	21021.55
523.375	21476.19
523.576	21519.2
523.778	21416.8
523.98	21707.62
524.181	21816.16
524.383	22066.01
524.584	22195.03
524.786	22315.86
524.988	21871.45
525.189	22346.58
525.391	22489.94
525.592	22502.23
525.794	22522.71
525.995	22283.09
526.197	22250.33
526.398	22590.29
526.6	22518.61
526.801	22532.95
527.003	22293.33
527.204	22219.61
527.406	22461.27
527.607	22334.29
527.808	22223.7
528.01	21670.75
528.211	21881.69
528.412	22231.9
528.614	21834.59
528.815	21863.26
529.016	21818.21
529.218	21156.71
529.419	21158.76
529.62	21154.66
529.822	20917.1
530.023	20726.64
530.224	20689.77
530.425	20583.28
530.626	20093.82
530.828	19884.92
531.029	19915.64
531.23	19585.92
531.431	19491.71
531.632	19297.16
531.833	19059.59
532.035	19196.81
532.236	18615.18
532.437	18680.72
532.638	17972.12
532.839	17877.91
533.04	17836.95
533.241	17595.29
533.442	17527.71
533.643	17046.44
533.844	16952.23
534.045	16944.04
534.246	16571.31
534.447	16237.49
534.648	16073.65
534.849	15918.01
535.05	15328.19
535.251	15254.47
535.451	15279.04
535.652	14973.89
535.853	14767.05
536.054	14791.62
536.255	14474.19
536.456	14107.6
536.657	14175.19
536.857	13833.18
537.058	13650.91
537.259	13579.23
537.46	13456.35
537.66	13200.35
537.861	13016.04
538.062	12796.9
538.263	12794.86
538.463	12450.8
538.664	12448.75
538.865	12223.47
539.065	12268.53
539.266	11942.9
539.466	12127.22
539.667	11678.71
539.868	11682.81
540.068	11398.14
540.269	11377.66
540.469	11183.1
540.67	11092.99
540.87	10959.88
541.071	10484.75
541.271	10787.85
541.472	10583.05
541.672	10347.53
541.873	10245.13
542.073	10087.44
542.274	10136.59
542.474	9909.27
542.675	9825.3
542.875	9739.29
543.075	9411.61
543.276	9425.95
543.476	9600.02
543.676	9063.46
543.877	9370.65
544.077	9020.45
544.277	8885.28
544.478	8836.13
544.678	8901.67
544.878	8803.36
545.078	8557.61
545.279	8623.14
545.479	8279.08
545.679	8500.26
545.879	8229.93
546.079	8186.93
546.28	7998.51
546.48	7840.82
546.68	8043.57
546.88	7889.97
547.08	7863.35
547.28	7703.61
547.48	7423.03
547.68	7400.51
547.88	7310.4
548.081	7300.16
548.281	7150.65
548.481	6872.13
548.681	7027.78
548.881	7058.49
549.081	6845.51
549.28	6722.63
549.48	6614.09
549.68	6777.92
549.88	6544.45
550.08	6083.66
550.28	6251.6
550.48	6276.17
550.68	6095.95
550.88	5952.59
551.08	5837.91
551.279	5825.62
551.479	5844.05
551.679	5856.34
551.879	5626.96
552.079	5420.12
552.278	5399.64
552.478	5444.7
552.678	5248.09
552.878	5174.36
553.077	5106.78
553.277	4922.46
553.477	4852.83
553.676	4838.5
553.876	4719.71
554.076	4680.8
554.275	4744.29
554.475	4613.22
554.674	4555.88
554.874	4334.7
555.074	4285.55
555.273	4248.68
555.473	4131.95
555.672	4080.75
555.872	4113.52
556.071	4043.88
556.271	4101.23
556.47	3908.72
556.67	3908.72
556.869	3775.6
557.068	3572.85
557.268	3794.03
557.467	3585.14
557.667	3650.67
557.866	3519.6
558.065	3425.4
558.265	3273.85
558.464	3124.35
558.663	3329.14
558.863	3157.11
559.062	3191.93
559.261	2995.32
559.461	3179.64
559.66	2970.75
559.859	2794.62
560.058	2841.73
560.258	2772.1
560.457	2872.45
560.656	2954.37
560.855	2636.93
561.054	2794.62
561.253	2659.46
561.453	2679.94
561.652	2675.84
561.851	2485.38
562.05	2405.51
562.249	2286.73
562.448	2552.96
562.647	2301.06
562.846	2284.68
563.045	2319.5
563.244	2251.91
563.443	2350.21
563.642	2243.72
563.841	2157.71
564.04	2157.71
564.239	1971.34
564.438	1997.96
564.637	1885.33
564.836	1934.48
565.035	1926.29
565.234	1897.61
565.432	1854.61
565.631	1895.57
565.83	1868.94
566.029	1893.52
566.228	1799.31
566.427	1885.33
566.625	1658
566.824	1721.49
567.023	1658
567.222	1658
567.42	1660.05
567.619	1711.25
567.818	1567.89
568.016	1721.49
568.215	1504.4
568.414	1553.55
568.612	1467.54
568.811	1418.39
569.01	1498.26
569.208	1352.85
569.407	1373.33
569.605	1352.85
569.804	1301.65
570.002	1377.43
570.201	1248.41
570.4	1268.89
570.598	1270.94
570.797	1217.69
570.995	1129.63
571.193	1211.54
571.392	1117.34
571.59	1180.82
571.789	1180.82
571.987	1168.54
572.186	1168.54
572.384	1086.62
572.582	1043.61
572.781	1139.87
572.979	1053.85
573.177	971.93
573.376	1092.76
573.574	1041.56
573.772	871.58
573.971	890.01
574.169	826.53
574.367	982.17
574.565	879.77
574.763	920.73
574.962	914.59
575.16	814.24
575.358	857.25
575.556	885.92
575.754	853.15
575.952	885.92
576.151	777.37
576.349	806.05
576.547	763.04
576.745	767.13
576.943	781.47
577.141	773.28
577.339	638.11
577.537	779.42
577.735	689.31
577.933	777.37
578.131	578.72
578.329	763.04
578.527	564.39
578.725	687.26
578.923	494.76
579.121	656.54
579.319	494.76
579.516	597.15
579.714	773.28
579.912	568.48
580.11	418.98
580.308	588.96
580.506	595.11
580.704	502.95
580.901	459.94
581.099	605.35
581.297	556.19
581.495	529.57
581.692	459.94
581.89	658.59
582.088	548
582.285	599.2
582.483	478.37
582.681	421.03
582.878	492.71
583.076	412.84
583.274	474.28
583.471	513.19
583.669	496.8
583.866	304.29
584.064	353.45
584.262	322.73
584.459	406.69
584.657	496.8
584.854	429.22
585.052	371.88
585.249	427.17
585.447	404.64
585.644	318.63
585.841	441.51
586.039	410.79
586.236	410.79
586.434	347.3
586.631	249
586.828	232.62
587.026	330.92
587.223	222.38
587.42	300.2
587.618	357.54
587.815	404.64
588.012	351.4
588.21	341.16
588.407	320.68
588.604	326.82
588.801	228.52
588.999	300.2
589.196	345.25
589.393	251.05
589.59	269.48
589.787	271.53
589.984	285.86
590.182	386.21
590.379	263.33
590.576	308.39
590.773	232.62
590.97	294.05
591.167	265.38
591.364	359.59
591.561	232.62
591.758	408.74
591.955	371.88
592.152	261.29
592.349	287.91
592.546	316.58
592.743	281.77
592.94	255.14
593.137	224.42
593.334	287.91
593.531	244.9
593.727	349.35
593.924	320.68
594.121	255.14
594.318	187.56
594.515	287.91
594.712	341.16
594.908	275.62
595.105	169.13
595.302	253.09
595.499	289.96
595.696	418.98
595.892	228.52
596.089	353.45
596.286	304.29
596.482	480.42
596.679	294.05
596.876	287.91
597.072	414.88
597.269	273.57
597.466	437.41
597.662	300.2
597.859	337.06
598.055	369.83
598.252	398.5
598.448	459.94
598.645	478.37
598.841	472.23
599.038	574.63
599.234	535.71
599.431	488.61
599.627	525.47
599.824	584.87
600.02	652.45
600.217	580.77
600.413	650.4
600.609	597.15
600.806	830.62
601.002	740.51
601.198	558.24
601.395	787.61
601.591	666.78
601.787	748.7
601.984	748.7
602.18	781.47
602.376	668.83
602.572	914.59
602.769	928.92
602.965	930.97
603.161	992.41
603.357	973.98
603.553	1035.42
603.75	1033.37
603.946	1199.26
604.142	1152.15
604.338	1315.99
604.534	1137.82
604.73	1205.4
604.926	1193.11
605.122	1315.99
605.318	1205.4
605.514	1500.31
605.71	1342.61
605.906	1522.84
606.102	1465.49
606.298	1778.83
606.494	1698.96
606.69	1721.49
606.886	1789.07
607.082	1840.27
607.278	1848.46
607.474	1959.05
607.67	1940.62
607.866	1850.51
608.062	2004.11
608.257	2112.65
608.453	2145.42
608.649	2157.71
608.845	2135.18
609.041	2188.43
609.236	2378.89
609.432	2481.28
609.628	2593.92
609.824	2645.12
610.019	2616.45
610.215	2647.17
610.411	2782.34
610.606	2878.59
610.802	2888.83
610.998	3071.1
611.193	3015.8
611.389	3103.87
611.584	3318.9
611.78	3185.79
611.976	3318.9
612.171	3654.77
612.367	3576.95
612.562	3523.7
612.758	3724.4
612.953	3665.01
613.149	3961.97
613.344	4029.55
613.539	4099.18
613.735	4318.31
613.93	4482.15
614.126	4381.8
614.321	4615.27
614.517	4703.33
614.712	4748.39
614.907	4965.47
615.103	5098.59
615.298	5057.63
615.493	5250.14
615.688	5379.16
615.884	5516.37
616.079	5530.71
616.274	5831.76
616.47	6007.89
616.665	6042.7
616.86	6251.6
617.055	6265.93
617.25	6562.89
617.445	6655.05
617.641	6790.21
617.836	7105.6
618.031	6927.42
618.226	7343.16
618.421	7660.6
618.616	7902.26
618.811	7826.48
619.006	8131.63
619.201	8133.68
619.396	8662.05
619.591	8473.64
619.786	8737.83
619.981	8905.76
620.176	9391.13
620.371	9231.39
620.566	9749.53
620.761	9702.42
620.956	9966.61
621.151	10069.01
621.346	10318.86
621.541	10302.48
621.735	11019.27
621.93	10707.98
622.125	10867.72
622.32	10898.44
622.515	11404.28
622.709	11645.94
622.904	11852.79
623.099	11961.33
623.294	12354.54
623.488	12583.91
623.683	12776.42
623.878	12631.02
624.072	13024.23
624.267	13183.97
624.462	13423.58
624.656	13677.53
624.851	13806.55
625.046	13921.24
625.24	14132.18
625.435	14146.51
625.629	14490.57
625.824	15027.14
626.018	15268.8
626.213	15117.25
626.407	15348.67
626.602	15410.11
626.796	15780.79
626.991	15737.79
627.185	15762.36
627.38	15756.22
627.574	16159.67
627.768	16083.89
627.963	16135.09
628.157	16243.63
628.352	16243.63
628.546	16108.47
628.74	16636.84
628.935	16384.94
629.129	16436.14
629.323	16167.86
629.517	16090.04
629.712	16051.13
629.906	15920.06
630.1	15553.47
630.294	15776.7
630.489	15080.39
630.683	15539.13
630.877	14793.67
631.071	14672.84
631.265	14435.28
631.459	14293.97
631.653	13814.74
631.848	13822.94
632.042	13366.24
632.236	13110.24
632.43	12671.98
632.624	12360.69
632.818	11766.78
633.012	11658.23
633.206	11256.83
633.4	10994.69
633.594	10527.75
633.788	10245.13
633.982	9962.51
634.176	9446.43
634.369	9120.8
634.563	8795.17
634.757	8211.5
634.951	8283.18
635.145	7898.16
635.339	7474.23
635.533	7185.47
635.726	7031.87
635.92	6726.72
636.114	6523.98
636.308	6100.05
636.501	6026.32
636.695	5692.5
636.889	5409.88
637.083	5327.96
637.276	4875.36
637.47	4617.32
637.664	4627.56
637.857	4508.77
638.051	4207.72
638.244	4127.85
638.438	3929.2
638.632	3796.08
638.825	3472.5
639.019	3470.45
639.212	3210.36
639.406	3241.08
639.599	2933.89
639.793	2999.42
639.986	2901.12
640.18	2735.23
640.373	2577.54
640.567	2647.17
640.76	2462.85
640.954	2315.4
641.147	2110.6
641.34	2145.42
641.534	2192.52
641.727	2190.47
641.92	2004.11
642.114	1801.36
642.307	1854.61
642.5	1776.78
642.694	1678.48
642.887	1582.23
643.08	1563.79
643.273	1582.23
643.467	1451.16
643.66	1299.61
643.853	1311.89
644.046	1279.13
644.239	1322.13
644.432	1115.29
644.626	996.51
644.819	1086.62
645.012	1096.86
645.205	1012.89
645.398	969.88
645.591	978.08
645.784	806.05
645.977	789.66
646.17	828.57
646.363	756.9
646.556	707.74
646.749	701.6
646.942	717.98
647.135	634.02
647.328	687.26
647.521	707.74
647.714	548
647.907	670.88
648.099	541.86
648.292	599.2
648.485	556.19
648.678	441.51
648.871	533.67
649.064	523.43
649.256	322.73
649.449	382.12
649.642	359.59
649.835	355.49
650.027	320.68
650.22	390.31
650.413	357.54
650.605	398.5
650.798	322.73
650.991	304.29
651.183	267.43
651.376	326.82
651.568	369.83
651.761	328.87
651.954	357.54
652.146	279.72
652.339	271.53
652.531	390.31
652.724	224.42
652.916	195.75
653.109	103.59
653.301	222.38
653.494	298.15
653.686	249
653.879	279.72
654.071	285.86
654.263	144.55
654.456	124.07
654.648	261.29
654.84	212.14
655.033	132.26
655.225	267.43
655.417	83.11
655.61	361.64
655.802	152.74
655.994	205.99
656.186	111.78
656.379	201.9
656.571	93.35
656.763	111.78
656.955	89.26
657.148	134.31
657.34	187.56
657.532	156.84
657.724	132.26
657.916	140.46
658.108	277.67
658.3	171.18
658.492	179.37
658.684	132.26
658.876	195.75
659.068	42.15
659.26	9.39
659.452	-27.48
659.644	113.83
659.836	240.81
660.028	152.74
660.22	93.35
660.412	109.74
660.604	169.13
660.796	154.79
660.988	193.7
661.18	109.74
661.372	173.22
661.563	146.6
661.755	72.87
661.947	-15.19
662.139	15.53
662.331	126.12
662.522	148.65
662.714	74.92
662.906	-0.85
663.097	134.31
663.289	52.39
663.481	11.43
663.673	130.22
663.864	54.44
664.056	115.88
664.247	54.44
664.439	144.55
664.631	50.35
664.822	187.56
665.014	40.11
665.205	11.43
665.397	97.45
665.588	177.32
665.78	111.78
665.971	132.26
666.163	56.49
666.354	81.07
666.546	91.31
666.737	29.87
666.929	33.96
667.12	79.02
667.311	117.93
667.503	74.92
667.694	44.2
667.885	128.17
668.077	158.89
668.268	-27.48
668.459	152.74
668.651	117.93
668.842	91.31
669.033	58.54
669.224	-66.39
669.416	269.48
669.607	50.35
669.798	74.92
669.989	115.88
670.18	122.02
670.371	181.42
670.563	-15.19
670.754	224.42
670.945	126.12
671.136	169.13
671.327	109.74
671.518	117.93
671.709	226.47
671.9	115.88
672.091	181.42
672.282	87.21
672.473	44.2
672.664	5.29
672.855	89.26
673.046	154.79
673.237	146.6
673.428	107.69
673.619	91.31
673.809	74.92
674	228.52
674.191	124.07
674.382	122.02
674.573	25.77
674.764	130.22
674.954	87.21
675.145	-21.33
675.336	107.69
675.527	134.31
675.717	50.35
675.908	48.3
676.099	83.11
676.289	132.26
676.48	-45.91
676.671	113.83
676.861	87.21
677.052	154.79
677.243	-27.48
677.433	46.25
677.624	177.32
677.814	140.46
678.005	64.68
678.195	160.94
678.386	48.3
678.576	48.3
678.767	-35.67
678.957	146.6
679.148	122.02
679.338	306.34
679.529	146.6
679.719	38.06
679.909	195.75
680.1	144.55
680.29	154.79
680.481	81.07
680.671	103.59
680.861	183.46
681.052	109.74
681.242	79.02
681.432	199.85
681.622	109.74
681.813	52.39
682.003	117.93
682.193	52.39
682.383	140.46
682.573	117.93
682.764	128.17
682.954	160.94
683.144	210.09
683.334	91.31
683.524	81.07
683.714	154.79
683.904	162.98
684.094	83.11
684.284	134.31
684.474	162.98
684.664	193.7
684.854	148.65
685.044	160.94
685.234	152.74
685.424	146.6
685.614	132.26
685.804	304.29
685.994	189.61
686.184	181.42
686.374	175.27
686.564	144.55
686.753	224.42
686.943	44.2
687.133	156.84
687.323	68.78
687.513	154.79
687.702	128.17
687.892	107.69
688.082	255.14
688.272	226.47
688.461	183.46
688.651	365.73
688.841	361.64
689.03	162.98
689.22	113.83
689.41	218.28
689.599	171.18
689.789	119.98
689.979	216.23
690.168	158.89
690.358	249
690.547	185.51
690.737	193.7
690.926	210.09
691.116	150.7
691.305	119.98
691.495	220.33
691.684	179.37
691.874	162.98
692.063	124.07
692.252	189.61
692.442	187.56
692.631	79.02
692.82	97.45
693.01	152.74
693.199	128.17
693.388	173.22
693.578	134.31
693.767	154.79
693.956	124.07
694.146	144.55
694.335	158.89
694.524	228.52
694.713	185.51
694.902	60.59
695.092	95.4
695.281	183.46
695.47	148.65
695.659	160.94
695.848	103.59
696.037	124.07
696.226	236.71
696.415	136.36
696.604	234.66
696.793	101.55
696.982	99.5
697.171	312.49
697.36	144.55
697.549	218.28
697.738	46.25
697.927	81.07
698.116	48.3
698.305	195.75
698.494	87.21
698.683	72.87
698.872	230.57
699.061	244.9
699.25	148.65
699.438	228.52
699.627	107.69
699.816	244.9
700.005	19.63
700.193	79.02
700.382	169.13
700.571	165.03
700.76	136.36
700.948	107.69
701.137	175.27
701.326	212.14
701.514	140.46
701.703	197.8
701.892	148.65
702.08	328.87
702.269	97.45
702.457	76.97
702.646	201.9
702.834	179.37
703.023	205.99
703.212	189.61
703.4	173.22
703.589	68.78
703.777	83.11
703.965	76.97
704.154	167.08
704.342	58.54
704.531	105.64
704.719	195.75
704.907	230.57
705.096	42.15
705.284	72.87
705.472	128.17
705.661	179.37
705.849	195.75
706.037	214.18
706.226	201.9
706.414	177.32
706.602	91.31
706.79	173.22
706.979	111.78
707.167	107.69
707.355	29.87
707.543	97.45
707.731	216.23
707.919	210.09
708.107	113.83
708.296	113.83
708.484	70.83
708.672	103.59
708.86	181.42
709.048	126.12
709.236	117.93
709.424	156.84
709.612	79.02
709.8	105.64
709.988	140.46
710.176	220.33
710.364	222.38
710.551	205.99
710.739	150.7
710.927	208.04
711.115	191.66
711.303	181.42
711.491	273.57
711.679	158.89
711.866	132.26
712.054	89.26
712.242	199.85
712.43	232.62
712.617	99.5
712.805	158.89
712.993	146.6
713.181	74.92
713.368	193.7
713.556	81.07
713.744	140.46
713.931	367.78
714.119	181.42
714.306	56.49
714.494	113.83
714.682	165.03
714.869	48.3
715.057	132.26
715.244	44.2
715.432	203.94
715.619	181.42
715.807	46.25
715.994	91.31
716.182	193.7
716.369	267.43
716.556	224.42
716.744	40.11
716.931	48.3
717.119	189.61
717.306	103.59
717.493	240.81
717.681	236.71
717.868	158.89
718.055	107.69
718.242	105.64
718.43	165.03
718.617	169.13
718.804	165.03
718.991	279.72
719.179	132.26
719.366	130.22
719.553	162.98
719.74	156.84
719.927	183.46
720.114	95.4
720.301	187.56
720.488	97.45
720.676	50.35
720.863	251.05
721.05	324.77
721.237	218.28
721.424	189.61
721.611	205.99
721.798	-13.14
721.985	189.61
722.172	181.42
722.358	87.21
722.545	273.57
722.732	160.94
722.919	269.48
723.106	201.9
723.293	150.7
723.48	197.8
723.667	107.69
723.853	265.38
724.04	203.94
724.227	279.72
724.414	144.55
724.6	220.33
724.787	289.96
724.974	335.01
725.161	130.22
725.347	115.88
725.534	193.7
725.72	236.71
725.907	320.68
726.094	277.67
726.28	124.07
726.467	193.7
726.653	142.5
726.84	238.76
727.027	375.97
727.213	122.02
727.4	244.9
727.586	150.7
727.773	187.56
727.959	146.6
728.145	210.09
728.332	230.57
728.518	185.51
728.705	203.94
728.891	253.09
729.077	203.94
729.264	124.07
729.45	197.8
729.636	238.76
729.823	208.04
730.009	226.47
730.195	224.42
730.382	345.25
730.568	124.07
730.754	234.66
730.94	232.62
731.126	224.42
731.313	275.62
731.499	279.72
731.685	292.01
731.871	224.42
732.057	283.81
732.243	279.72
732.429	218.28
732.615	343.21
732.801	212.14
732.987	242.85
733.173	249
733.359	156.84
733.545	191.66
733.731	216.23
733.917	294.05
734.103	236.71
734.289	312.49
734.475	212.14
734.661	392.36
734.847	257.19
735.033	222.38
735.219	279.72
735.404	189.61
735.59	148.65
735.776	224.42
735.962	201.9
736.148	304.29
736.333	326.82
736.519	242.85
736.705	314.53
736.89	216.23
737.076	220.33
737.262	138.41
737.447	171.18
737.633	287.91
737.819	351.4
738.004	249
738.19	238.76
738.375	191.66
738.561	240.81
738.747	287.91
738.932	126.12
739.118	435.36
739.303	236.71
739.489	294.05
739.674	210.09
739.859	117.93
740.045	222.38
740.23	255.14
740.416	105.64
740.601	210.09
740.786	275.62
740.972	203.94
741.157	246.95
741.342	68.78
741.528	187.56
741.713	267.43
741.898	257.19
742.084	312.49
742.269	228.52
742.454	257.19
742.639	283.81
742.824	277.67
743.01	312.49
743.195	382.12
743.38	302.25
743.565	251.05
743.75	246.95
743.935	230.57
744.12	386.21
744.305	208.04
744.49	240.81
744.675	224.42
744.86	255.14
745.045	279.72
745.23	261.29
745.415	212.14
745.6	351.4
745.785	222.38
745.97	326.82
746.155	201.9
746.34	343.21
746.525	251.05
746.71	314.53
746.895	119.98
747.079	165.03
747.264	249
747.449	308.39
747.634	236.71
747.819	257.19
748.003	224.42
748.188	87.21
748.373	224.42
748.557	283.81
748.742	197.8
748.927	148.65
749.111	156.84
749.296	179.37
749.481	302.25
749.665	224.42
749.85	224.42
750.034	173.22
750.219	228.52
750.404	212.14
750.588	199.85
750.773	146.6
750.957	150.7
751.141	187.56
751.326	269.48
751.51	171.18
751.695	95.4
751.879	187.56
752.064	320.68
752.248	109.74
752.432	326.82
752.617	263.33
752.801	359.59
752.985	99.5
753.17	216.23
753.354	195.75
753.538	287.91
753.722	165.03
753.907	119.98
754.091	173.22
754.275	185.51
754.459	83.11
754.643	97.45
754.828	195.75
755.012	236.71
755.196	89.26
755.38	238.76
755.564	113.83
755.748	210.09
755.932	160.94
756.116	199.85
756.3	205.99
756.484	91.31
756.668	152.74
756.852	83.11
757.036	115.88
757.22	105.64
757.404	66.73
757.588	156.84
757.772	160.94
757.956	124.07
758.14	222.38
758.323	154.79
758.507	259.24
758.691	91.31
758.875	183.46
759.059	242.85
759.242	128.17
759.426	181.42
759.61	185.51
759.794	60.59
759.977	269.48
760.161	230.57
760.345	271.53
760.528	234.66
760.712	154.79
760.895	162.98
761.079	175.27
761.263	36.01
761.446	54.44
761.63	99.5
761.813	218.28
761.997	74.92
762.18	74.92
762.364	216.23
762.547	5.29
762.731	95.4
762.914	167.08
763.098	91.31
763.281	136.36
763.464	109.74
763.648	52.39
763.831	107.69
764.015	36.01
764.198	214.18
764.381	81.07
764.564	81.07
764.748	187.56
764.931	144.55
765.114	15.53
765.297	197.8
765.481	79.02
765.664	103.59
765.847	60.59
766.03	187.56
766.213	33.96
766.397	220.33
766.58	-35.67
766.763	191.66
766.946	40.11
767.129	21.67
767.312	70.83
767.495	134.31
767.678	66.73
767.861	142.5
768.044	46.25
768.227	87.21
768.41	152.74
768.593	126.12
768.776	115.88
768.959	31.91
769.142	134.31
769.324	93.35
769.507	136.36
769.69	101.55
769.873	74.92
770.056	259.24
770.239	74.92
770.421	195.75
770.604	134.31
770.787	126.12
770.97	134.31
771.152	42.15
771.335	81.07
771.518	9.39
771.7	126.12
771.883	210.09
772.066	83.11
772.248	99.5
772.431	242.85
772.613	122.02
772.796	72.87
772.978	122.02
773.161	181.42
773.343	81.07
773.526	70.83
773.708	46.25
773.891	-15.19
774.073	66.73
774.256	13.48
774.438	197.8
774.621	70.83
774.803	31.91
774.985	31.91
775.168	138.41
775.35	95.4
775.532	148.65
775.715	40.11
775.897	185.51
776.079	50.35
776.261	111.78
776.444	7.34
776.626	-29.52
776.808	48.3
776.99	-0.85
777.173	83.11
777.355	66.73
777.537	105.64
777.719	54.44
777.901	52.39
778.083	58.54
778.265	27.82
778.447	38.06
778.629	38.06
778.811	103.59
778.993	66.73
779.175	169.13
779.357	87.21
779.539	-50
779.721	54.44
779.903	148.65
780.085	-41.81
780.267	162.98
780.449	60.59
780.631	81.07
780.812	119.98
780.994	19.63
781.176	81.07
781.358	58.54
781.54	64.68
781.721	124.07
781.903	31.91
782.085	31.91
782.267	95.4
782.448	-19.29
782.63	101.55
782.812	-19.29
782.993	146.6
783.175	81.07
783.357	107.69
783.538	115.88
783.72	21.67
783.901	83.11
784.083	74.92
784.264	3.24
784.446	-9.05
784.627	-70.48
784.809	134.31
784.99	-7
785.172	56.49
785.353	-25.43
785.535	50.35
785.716	5.29
785.897	-66.39
786.079	122.02
786.26	50.35
786.441	113.83
786.623	-107.35
786.804	-11.09
786.985	-50
787.167	50.35
787.348	-7
787.529	-13.14
787.71	167.08
787.891	85.16
788.073	48.3
788.254	9.39
788.435	214.18
788.616	74.92
788.797	-9.05
788.978	76.97
789.159	13.48
789.34	146.6
789.522	91.31
789.703	-27.48
789.884	97.45
790.065	93.35
790.246	171.18
790.427	48.3
790.607	66.73
790.788	93.35
790.969	29.87
791.15	15.53
791.331	7.34
791.512	48.3
791.693	-39.76
791.874	-2.9
792.054	142.5
792.235	138.41
792.416	-50
792.597	-9.05
792.778	70.83
792.958	101.55
793.139	68.78
793.32	85.16
793.5	19.63
793.681	97.45
793.862	99.5
794.042	3.24
794.223	-62.29
794.404	38.06
794.584	-58.2
794.765	-41.81
794.945	-9.05
795.126	87.21
795.306	52.39
795.487	21.67
795.667	-31.57
795.848	29.87
796.028	58.54
796.209	36.01
796.389	105.64
796.57	5.29
796.75	-15.19
796.93	-27.48
797.111	7.34
797.291	25.77
797.471	101.55
797.652	44.2
797.832	9.39
798.012	109.74
798.192	-47.96
798.373	15.53
798.553	-43.86
798.733	50.35
798.913	-62.29
799.093	-25.43
799.274	44.2
799.454	76.97
799.634	48.3
799.814	124.07
799.994	40.11
800.174	48.3
800.354	58.54
800.534	-119.64
800.714	146.6
800.894	-25.43
801.074	-45.91
801.254	-19.29
801.434	58.54
801.614	-23.38
801.794	-27.48
801.974	1952.91
802.154	42.15
802.334	76.97
802.514	-27.48
802.693	21.67
802.873	-25.43
803.053	87.21
803.233	79.02
803.413	54.44
803.592	-15.19
803.772	-2.9
803.952	29.87
804.131	-68.44
804.311	44.2
804.491	79.02
804.67	-35.67
804.85	11.43
805.03	-23.38
805.209	144.55
805.389	-15.19
805.568	5.29
805.748	-66.39
805.928	46.25
806.107	101.55
806.287	40.11
806.466	-19.29
806.646	-37.72
806.825	27.82
807.004	-9.05
807.184	44.2
807.363	44.2
807.543	99.5
807.722	-35.67
807.901	9.39
808.081	60.59
808.26	-113.49
808.439	-33.62
808.619	44.2
808.798	52.39
808.977	7.34
809.156	124.07
809.336	52.39
809.515	97.45
809.694	-50
809.873	11.43
810.052	5.29
810.231	154.79
810.411	46.25
810.59	113.83
810.769	36.01
810.948	54.44
811.127	-64.34
811.306	-45.91
811.485	-15.19
811.664	13.48
811.843	5.29
812.022	31.91
812.201	-23.38
812.38	9.39
812.559	48.3
812.737	-27.48
812.916	-68.44
813.095	-45.91
813.274	79.02
813.453	31.91
813.632	11.43
813.811	85.16
813.989	-93.01
814.168	42.15
814.347	33.96
814.526	21.67
814.704	50.35
814.883	44.2
815.062	-39.76
815.24	70.83
815.419	-41.81
815.598	64.68
815.776	-121.68
815.955	-45.91
816.133	-129.88
816.312	101.55
816.49	17.58
816.669	-25.43
816.847	-33.62
817.026	54.44
817.204	-2.9
817.383	52.39
817.561	9.39
817.74	17.58
817.918	72.87
818.097	-37.72
818.275	13.48
818.453	97.45
818.632	42.15
818.81	-13.14
818.988	-56.15
819.167	-58.2
819.345	76.97
819.523	-82.77
819.701	21.67
819.879	99.5
820.058	91.31
820.236	23.72
820.414	36.01
820.592	-25.43
820.77	-27.48
820.948	-103.25
821.127	-45.91
821.305	44.2
821.483	-39.76
821.661	146.6
821.839	38.06
822.017	-45.91
822.195	-9.05
822.373	72.87
822.551	-43.86
822.729	79.02
822.907	-21.33
823.085	-66.39
823.262	54.44
823.44	-50
823.618	-21.33
823.796	-54.1
823.974	-9.05
824.152	-56.15
824.329	-68.44
824.507	-0.85
824.685	72.87
824.863	-148.31
825.04	11.43
825.218	79.02
825.396	21.67
825.574	66.73
825.751	19.63
825.929	56.49
826.107	-80.72
826.284	-52.05
826.462	13.48
826.639	-60.24
826.817	-35.67
826.994	-11.09
827.172	-78.68
827.349	132.26
827.527	3.24
827.704	25.77
827.882	70.83
828.059	7.34
828.237	11.43
828.414	56.49
828.591	-123.73
828.769	38.06
828.946	-43.86
829.124	70.83
829.301	58.54
829.478	-15.19
829.655	17.58
829.833	117.93
830.01	-78.68
830.187	48.3
830.364	-76.63
830.542	-27.48
830.719	195.75
830.896	23.72
831.073	-41.81
831.25	-4.95
831.427	64.68
831.604	-7
831.782	-17.24
831.959	64.68
832.136	60.59
832.313	23.72
832.49	-39.76
832.667	66.73
832.844	-21.33
833.021	122.02
833.198	3.24
833.374	5.29
833.551	-2.9
833.728	-13.14
833.905	36.01
834.082	-62.29
834.259	107.69
834.436	9.39
834.612	-68.44
834.789	40.11
834.966	-41.81
835.143	44.2
835.319	-82.77
835.496	15.53
835.673	85.16
835.85	99.5
836.026	7.34
836.203	1.19
836.38	-72.53
836.556	56.49
836.733	48.3
836.909	85.16
837.086	1.19
837.262	-80.72
837.439	42.15
837.616	-11.09
837.792	81.07
837.968	87.21
838.145	-47.96
838.321	-7
838.498	-29.52
838.674	-0.85
838.851	23.72
839.027	-45.91
839.203	79.02
839.38	15.53
839.556	-27.48
839.732	25.77
839.909	62.63
840.085	60.59
840.261	-45.91
840.437	48.3
840.614	-47.96
840.79	38.06
840.966	58.54
841.142	-33.62
841.318	-86.87
841.494	9.39
841.671	81.07
841.847	-80.72
842.023	-84.82
842.199	-11.09
842.375	97.45
842.551	-121.68
842.727	-39.76
842.903	64.68
843.079	-115.54
843.255	138.41
843.431	-52.05
843.607	13.48
843.783	-95.06
843.959	91.31
844.134	-29.52
844.31	187.56
844.486	-90.96
844.662	-56.15
844.838	-29.52
845.013	38.06
845.189	15.53
845.365	103.59
845.541	-17.24
845.716	58.54
845.892	105.64
846.068	52.39
846.244	40.11
846.419	74.92
846.595	-97.11
846.77	-47.96
846.946	109.74
847.122	25.77
847.297	13.48
847.473	105.64
847.648	-35.67
847.824	-27.48
847.999	-99.16
848.175	-15.19
848.35	48.3
848.526	105.64
848.701	33.96
848.876	74.92
849.052	62.63
849.227	21.67
849.403	-54.1
849.578	62.63
849.753	19.63
849.929	54.44
850.104	-41.81
850.279	50.35
850.454	-11.09
850.63	138.41
850.805	19.63
850.98	54.44
851.155	-2.9
851.33	103.59
851.505	-35.67
851.681	134.31
851.856	-15.19
852.031	87.21
852.206	50.35
852.381	-15.19
852.556	-47.96
852.731	68.78
852.906	17.58
853.081	-29.52
853.256	13.48
853.431	11.43
853.606	-39.76
853.781	-31.57
853.956	-88.92
854.131	25.77
854.305	-76.63
854.48	-11.09
854.655	-31.57
854.83	-31.57
855.005	-31.57
855.18	38.06
855.354	11.43
855.529	70.83
855.704	5.29
855.879	-43.86
856.053	-74.58
856.228	46.25
856.403	-133.97
856.577	11.43
856.752	-84.82
856.926	9.39
857.101	-60.24
857.276	-72.53
857.45	-58.2
857.625	46.25
857.799	-47.96
857.974	-19.29
858.148	-60.24
858.323	5.29
858.497	15.53
858.672	-62.29
858.846	-113.49
859.02	11.43
859.195	-31.57
859.369	-39.76
859.543	-43.86
859.718	-7
859.892	60.59
860.066	38.06
860.241	-70.48
860.415	-2.9
860.589	42.15
860.763	-47.96
860.938	-25.43
861.112	23.72
861.286	1.19
861.46	66.73
861.634	3.24
861.808	136.36
861.982	-70.48
862.157	-103.25
862.331	-39.76
862.505	-140.12
862.679	-88.92
862.853	1.19
863.027	-90.96
863.201	87.21
863.375	-54.1
863.549	68.78
863.722	-45.91
863.896	74.92
864.07	-17.24
864.244	-19.29
864.418	42.15
864.592	52.39
864.766	7.34
864.939	-50
865.113	-142.16
865.287	99.5
865.461	33.96
865.634	-52.05
865.808	40.11
865.982	-19.29
866.156	-17.24
866.329	-82.77
866.503	42.15
866.676	60.59
866.85	66.73
867.024	-129.88
867.197	15.53
867.371	56.49
867.544	-23.38
867.718	-107.35
867.891	64.68
868.065	-17.24
868.238	48.3
868.412	87.21
868.585	29.87
868.759	13.48
868.932	-95.06
869.105	-142.16
869.279	-56.15
869.452	-66.39
869.625	46.25
869.799	-39.76
869.972	-68.44
870.145	19.63
870.319	113.83
870.492	-15.19
870.665	-35.67
870.838	-19.29
871.011	-123.73
871.185	62.63
871.358	23.72
871.531	-7
871.704	-70.48
871.877	15.53
872.05	-31.57
872.223	-78.68
872.396	62.63
872.569	-37.72
872.742	19.63
872.915	-27.48
873.088	-45.91
873.261	-27.48
873.434	134.31
873.607	17.58
873.78	107.69
873.953	-97.11
874.126	13.48
874.299	-9.05
874.471	-62.29
874.644	5.29
874.817	58.54
874.99	179.37
875.163	-7
875.335	52.39
875.508	-21.33
875.681	42.15
875.853	-35.67
876.026	44.2
876.199	87.21
876.371	-11.09
876.544	-17.24
876.717	46.25
876.889	-4.95
877.062	52.39
877.234	-70.48
877.407	-29.52
877.579	-11.09
877.752	-15.19
877.924	54.44
878.097	46.25
878.269	-21.33
878.442	52.39
878.614	23.72
878.786	-19.29
878.959	36.01
879.131	7.34
879.303	-93.01
879.476	38.06
879.648	54.44
879.82	17.58
879.993	-90.96
880.165	-50
880.337	-142.16
880.509	-17.24
880.681	-103.25
880.854	-72.53
881.026	91.31
881.198	150.7
881.37	79.02
881.542	-33.62
881.714	1.19
881.886	-56.15
882.058	11.43
882.23	79.02
882.402	76.97
882.574	-23.38
882.746	54.44
882.918	46.25
883.09	107.69
883.262	19.63
883.434	19.63
883.606	-50
883.778	-52.05
883.95	113.83
884.122	9.39
884.293	130.22
884.465	-35.67
884.637	66.73
884.809	-35.67
884.98	1.19
885.152	36.01
885.324	1.19
885.496	-56.15
885.667	-113.49
885.839	15.53
886.011	132.26
886.182	9.39
886.354	81.07
886.525	31.91
886.697	-13.14
886.869	21.67
887.04	17.58
887.212	113.83
887.383	148.65
887.555	79.02
887.726	-74.58
887.897	-0.85
888.069	-11.09
888.24	62.63
888.412	-19.29
888.583	-29.52
888.754	1.19
888.926	-80.72
889.097	-13.14
889.268	-117.59
889.44	31.91
889.611	-70.48
889.782	-119.64
889.953	-15.19
890.125	72.87
890.296	-19.29
890.467	19.63
890.638	-56.15
890.809	-2.9
890.98	-35.67
891.151	5.29
891.323	70.83
891.494	-15.19
891.665	21.67
891.836	-11.09
892.007	-7
892.178	93.35
892.349	-21.33
892.52	-50
892.691	-60.24
892.862	13.48
893.032	-123.73
893.203	-41.81
893.374	-105.3
893.545	99.5
893.716	-60.24
893.887	113.83
894.057	-13.14
894.228	9.39
894.399	-70.48
894.57	130.22
894.74	25.77
894.911	64.68
895.082	-13.14
895.253	1.19
895.423	-9.05
895.594	74.92
895.764	3.24
895.935	-47.96
896.106	5.29
896.276	-39.76
896.447	-9.05
896.617	-50
896.788	-39.76
896.958	-45.91
897.129	-29.52
897.299	9.39
897.47	81.07
897.64	44.2
897.81	-2.9
897.981	36.01
898.151	-2.9
898.322	33.96
898.492	17.58
898.662	-7
898.832	-0.85
899.003	7.34
899.173	62.63
899.343	-70.48
899.513	-29.52
