Data from USB4F104151__54__11-30-45-765.txt Node

Date: Wed Feb 26 11:30:45 EST 2025
User: louis
Spectrometer: USB4F10415
Trigger mode: 4
Integration Time (sec): 1.000000E-1
Scans to average: 1
Electric dark correction enabled: true
Nonlinearity correction enabled: false
Boxcar width: 0
XAxis mode: Wavelengths
Number of Pixels in Spectrum: 3648
>>>>>Begin Spectral Data<<<<<
178.204	-367.78
178.424	-367.78
178.644	-367.78
178.864	-351.4
179.084	-414.88
179.304	-50.35
179.524	-5.29
179.744	19.29
179.964	105.3
180.184	93.01
180.404	0.85
180.624	-36.01
180.844	-7.34
181.064	-58.54
181.283	-19.63
181.503	-140.46
181.723	99.16
181.943	-97.45
182.163	170.83
182.383	-50.35
182.602	23.38
182.822	131.92
183.042	72.53
183.262	2.9
183.482	-40.11
183.701	7
183.921	41.81
184.141	-50.35
184.361	70.48
184.58	50
184.8	62.29
185.02	-11.43
185.239	115.54
185.459	131.92
185.679	123.73
185.898	-58.54
186.118	129.88
186.338	58.2
186.557	66.39
186.777	-70.83
186.997	27.48
187.216	45.91
187.436	176.98
187.655	2.9
187.875	78.68
188.095	17.24
188.314	152.4
188.534	136.02
188.753	21.33
188.973	123.73
189.192	185.17
189.412	68.44
189.631	15.19
189.851	84.82
190.07	164.69
190.29	9.05
190.509	-56.49
190.729	13.14
190.948	129.88
191.168	269.14
191.387	60.24
191.607	45.91
191.826	78.68
192.045	-33.96
192.265	-1.19
192.484	99.16
192.704	-17.58
192.923	-40.11
193.142	187.22
193.362	50
193.581	64.34
193.8	72.53
194.02	64.34
194.239	21.33
194.458	129.88
194.678	9.05
194.897	15.19
195.116	47.96
195.335	123.73
195.555	76.63
195.774	23.38
195.993	144.21
196.212	80.72
196.432	31.57
196.651	-27.82
196.87	19.29
197.089	217.94
197.308	121.68
197.528	76.63
197.747	-31.91
197.966	105.3
198.185	179.03
198.404	0.85
198.623	127.83
198.842	144.21
199.062	111.44
199.281	88.92
199.5	-7.34
199.719	72.53
199.938	72.53
200.157	45.91
200.376	90.96
200.595	78.68
200.814	31.57
201.033	-3.24
201.252	203.6
201.471	62.29
201.69	131.92
201.909	-5.29
202.128	72.53
202.347	105.3
202.566	31.57
202.785	-29.87
203.004	47.96
203.223	215.89
203.442	74.58
203.661	62.29
203.879	-46.25
204.098	136.02
204.317	13.14
204.536	99.16
204.755	101.2
204.974	56.15
205.193	-48.3
205.411	129.88
205.63	158.55
205.849	97.11
206.068	-36.01
206.287	33.62
206.505	68.44
206.724	41.81
206.943	23.38
207.162	29.52
207.381	66.39
207.599	41.81
207.818	82.77
208.037	9.05
208.255	43.86
208.474	19.29
208.693	45.91
208.911	31.57
209.13	121.68
209.349	52.05
209.567	111.44
209.786	138.07
210.005	101.2
210.223	80.72
210.442	-99.5
210.661	70.48
210.879	90.96
211.098	-3.24
211.316	117.59
211.535	43.86
211.753	74.58
211.972	58.2
212.191	50
212.409	17.24
212.628	158.55
212.846	47.96
213.065	0.85
213.283	162.64
213.502	50
213.72	88.92
213.938	-21.67
214.157	56.15
214.375	117.59
214.594	-15.53
214.812	58.2
215.031	166.74
215.249	68.44
215.467	41.81
215.686	90.96
215.904	43.86
216.122	72.53
216.341	131.92
216.559	39.76
216.778	-9.39
216.996	152.4
217.214	13.14
217.432	-25.77
217.651	-46.25
217.869	60.24
218.087	56.15
218.306	-36.01
218.524	43.86
218.742	-40.11
218.96	103.25
219.179	-11.43
219.397	37.72
219.615	187.22
219.833	144.21
220.051	33.62
220.27	41.81
220.488	82.77
220.706	37.72
220.924	-54.44
221.142	88.92
221.36	82.77
221.578	33.62
221.796	9.05
222.015	60.24
222.233	74.58
222.451	127.83
222.669	-13.48
222.887	105.3
223.105	-54.44
223.323	107.35
223.541	-40.11
223.759	66.39
223.977	103.25
224.195	193.36
224.413	138.07
224.631	52.05
224.849	78.68
225.067	142.16
225.285	-17.58
225.503	-52.39
225.721	-91.31
225.939	76.63
226.157	29.52
226.375	201.55
226.592	-13.48
226.81	123.73
227.028	80.72
227.246	158.55
227.464	117.59
227.682	136.02
227.9	66.39
228.117	47.96
228.335	76.63
228.553	82.77
228.771	99.16
228.989	72.53
229.206	64.34
229.424	21.33
229.642	47.96
229.86	-87.21
230.077	148.31
230.295	99.16
230.513	95.06
230.731	31.57
230.948	219.99
231.166	129.88
231.384	-33.96
231.601	15.19
231.819	230.23
232.037	9.05
232.254	-40.11
232.472	-27.82
232.689	107.35
232.907	187.22
233.125	21.33
233.342	-15.53
233.56	19.29
233.777	-50.35
233.995	17.24
234.213	113.49
234.43	136.02
234.648	35.67
234.865	-33.96
235.083	125.78
235.3	84.82
235.518	127.83
235.735	146.26
235.953	33.62
236.17	7
236.388	37.72
236.605	56.15
236.822	138.07
237.04	136.02
237.257	-19.63
237.475	33.62
237.692	205.65
237.909	45.91
238.127	-9.39
238.344	43.86
238.562	86.87
238.779	-17.58
238.996	-9.39
239.214	99.16
239.431	45.91
239.648	31.57
239.865	117.59
240.083	84.82
240.3	90.96
240.517	25.43
240.735	-7.34
240.952	119.64
241.169	97.11
241.386	72.53
241.603	-25.77
241.821	19.29
242.038	39.76
242.255	154.45
242.472	-52.39
242.689	82.77
242.907	84.82
243.124	131.92
243.341	-7.34
243.558	-23.72
243.775	-52.39
243.992	-70.83
244.209	99.16
244.426	211.79
244.643	37.72
244.86	76.63
245.078	119.64
245.295	107.35
245.512	72.53
245.729	-9.39
245.946	136.02
246.163	60.24
246.38	-25.77
246.597	127.83
246.814	140.12
247.031	47.96
247.248	15.19
247.464	133.97
247.681	54.1
247.898	58.2
248.115	58.2
248.332	-36.01
248.549	179.03
248.766	172.88
248.983	113.49
249.2	-3.24
249.417	117.59
249.633	33.62
249.85	47.96
250.067	-7.34
250.284	78.68
250.501	41.81
250.717	54.1
250.934	11.09
251.151	74.58
251.368	72.53
251.585	82.77
251.801	50
252.018	-79.02
252.235	164.69
252.451	-101.55
252.668	-23.72
252.885	222.03
253.102	68.44
253.318	-74.92
253.535	70.48
253.752	-21.67
253.968	37.72
254.185	-95.4
254.401	78.68
254.618	103.25
254.835	29.52
255.051	164.69
255.268	62.29
255.484	86.87
255.701	45.91
255.917	52.05
256.134	-15.53
256.351	80.72
256.567	52.05
256.784	-13.48
257	-21.67
257.217	125.78
257.433	129.88
257.65	185.17
257.866	133.97
258.082	-76.97
258.299	25.43
258.515	80.72
258.732	-15.53
258.948	-1.19
259.165	50
259.381	-115.88
259.597	78.68
259.814	19.29
260.03	43.86
260.246	50
260.463	90.96
260.679	90.96
260.895	99.16
261.112	105.3
261.328	33.62
261.544	31.57
261.761	127.83
261.977	-11.43
262.193	-27.82
262.409	68.44
262.626	72.53
262.842	-23.72
263.058	-33.96
263.274	119.64
263.49	19.29
263.707	39.76
263.923	138.07
264.139	-44.2
264.355	58.2
264.571	117.59
264.787	50
265.004	125.78
265.22	-23.72
265.436	0.85
265.652	23.38
265.868	90.96
266.084	-91.31
266.3	60.24
266.516	-15.53
266.732	72.53
266.948	45.91
267.164	99.16
267.38	84.82
267.596	93.01
267.812	181.07
268.028	39.76
268.244	64.34
268.46	105.3
268.676	-9.39
268.892	125.78
269.108	-68.78
269.324	-56.49
269.54	52.05
269.756	88.92
269.972	54.1
270.188	68.44
270.403	-31.91
270.619	25.43
270.835	90.96
271.051	78.68
271.267	-13.48
271.483	33.62
271.698	119.64
271.914	117.59
272.13	-15.53
272.346	29.52
272.562	62.29
272.777	129.88
272.993	80.72
273.209	23.38
273.425	160.59
273.64	-76.97
273.856	64.34
274.072	15.19
274.287	-60.59
274.503	103.25
274.719	150.36
274.934	-38.06
275.15	-38.06
275.366	-15.53
275.581	11.09
275.797	47.96
276.012	-87.21
276.228	4.95
276.444	52.05
276.659	170.83
276.875	27.48
277.09	97.11
277.306	-38.06
277.521	88.92
277.737	52.05
277.952	78.68
278.168	2.9
278.383	35.67
278.599	-1.19
278.814	13.14
279.03	47.96
279.245	62.29
279.461	60.24
279.676	146.26
279.892	-93.35
280.107	31.57
280.322	-31.91
280.538	168.79
280.753	86.87
280.969	43.86
281.184	60.24
281.399	176.98
281.615	45.91
281.83	86.87
282.045	-27.82
282.26	43.86
282.476	74.58
282.691	119.64
282.906	66.39
283.122	70.48
283.337	0.85
283.552	123.73
283.767	29.52
283.983	31.57
284.198	2.9
284.413	68.44
284.628	-70.83
284.843	76.63
285.058	80.72
285.274	-15.53
285.489	0.85
285.704	27.48
285.919	-33.96
286.134	2.9
286.349	25.43
286.564	29.52
286.779	181.07
286.995	47.96
287.21	-27.82
287.425	56.15
287.64	11.09
287.855	107.35
288.07	-64.68
288.285	66.39
288.5	119.64
288.715	103.25
288.93	4.95
289.145	-66.73
289.36	66.39
289.575	70.48
289.79	105.3
290.004	45.91
290.219	123.73
290.434	88.92
290.649	-81.07
290.864	45.91
291.079	39.76
291.294	25.43
291.509	99.16
291.724	72.53
291.938	27.48
292.153	158.55
292.368	35.67
292.583	70.48
292.798	52.05
293.012	72.53
293.227	47.96
293.442	41.81
293.657	113.49
293.871	121.68
294.086	52.05
294.301	201.55
294.516	80.72
294.73	115.54
294.945	-25.77
295.16	47.96
295.374	58.2
295.589	101.2
295.804	-46.25
296.018	11.09
296.233	105.3
296.447	107.35
296.662	13.14
296.877	82.77
297.091	66.39
297.306	4.95
297.52	29.52
297.735	117.59
297.949	93.01
298.164	66.39
298.378	78.68
298.593	-19.63
298.807	39.76
299.022	52.05
299.236	174.93
299.451	54.1
299.665	31.57
299.88	-17.58
300.094	88.92
300.309	4.95
300.523	17.24
300.737	74.58
300.952	80.72
301.166	29.52
301.381	-19.63
301.595	43.86
301.809	56.15
302.024	25.43
302.238	-38.06
302.452	95.06
302.667	62.29
302.881	99.16
303.095	35.67
303.309	15.19
303.524	43.86
303.738	39.76
303.952	4.95
304.166	64.34
304.381	-103.59
304.595	148.31
304.809	-23.72
305.023	88.92
305.237	-46.25
305.452	7
305.666	80.72
305.88	88.92
306.094	88.92
306.308	119.64
306.522	146.26
306.736	68.44
306.95	97.11
307.164	121.68
307.379	84.82
307.593	113.49
307.807	181.07
308.021	60.24
308.235	66.39
308.449	-23.72
308.663	47.96
308.877	222.03
309.091	154.45
309.305	146.26
309.519	-44.2
309.733	88.92
309.947	-58.54
310.161	33.62
310.374	121.68
310.588	140.12
310.802	-44.2
311.016	31.57
311.23	105.3
311.444	31.57
311.658	90.96
311.872	213.84
312.085	131.92
312.299	121.68
312.513	158.55
312.727	15.19
312.941	2.9
313.154	29.52
313.368	72.53
313.582	50
313.796	97.11
314.009	74.58
314.223	127.83
314.437	74.58
314.651	109.4
314.864	15.19
315.078	23.38
315.292	-38.06
315.505	33.62
315.719	179.03
315.933	54.1
316.146	17.24
316.36	31.57
316.573	117.59
316.787	129.88
317.001	7
317.214	56.15
317.428	113.49
317.641	-19.63
317.855	-3.24
318.068	29.52
318.282	86.87
318.495	148.31
318.709	43.86
318.922	62.29
319.136	125.78
319.349	41.81
319.563	13.14
319.776	11.09
319.99	-33.96
320.203	68.44
320.417	93.01
320.63	119.64
320.843	181.07
321.057	50
321.27	72.53
321.483	86.87
321.697	95.06
321.91	107.35
322.124	29.52
322.337	72.53
322.55	78.68
322.763	31.57
322.977	-5.29
323.19	45.91
323.403	95.06
323.617	54.1
323.83	158.55
324.043	-29.87
324.256	105.3
324.469	-54.44
324.683	136.02
324.896	88.92
325.109	58.2
325.322	25.43
325.535	115.54
325.748	123.73
325.962	70.48
326.175	62.29
326.388	76.63
326.601	99.16
326.814	31.57
327.027	31.57
327.24	127.83
327.453	-38.06
327.666	90.96
327.879	82.77
328.092	105.3
328.305	111.44
328.518	11.09
328.731	0.85
328.944	-33.96
329.157	-13.48
329.37	88.92
329.583	254.8
329.796	150.36
330.009	-36.01
330.222	54.1
330.435	148.31
330.648	19.29
330.861	45.91
331.073	56.15
331.286	136.02
331.499	41.81
331.712	47.96
331.925	31.57
332.138	78.68
332.35	125.78
332.563	13.14
332.776	99.16
332.989	-17.58
333.202	-1.19
333.414	-1.19
333.627	68.44
333.84	2.9
334.053	70.48
334.265	76.63
334.478	62.29
334.691	15.19
334.903	58.2
335.116	-46.25
335.329	31.57
335.541	111.44
335.754	195.41
335.966	19.29
336.179	123.73
336.392	47.96
336.604	54.1
336.817	148.31
337.029	31.57
337.242	2.9
337.454	97.11
337.667	47.96
337.88	111.44
338.092	76.63
338.305	37.72
338.517	-25.77
338.729	86.87
338.942	101.2
339.154	-42.15
339.367	-11.43
339.579	41.81
339.792	86.87
340.004	93.01
340.217	99.16
340.429	72.53
340.641	52.05
340.854	-72.87
341.066	0.85
341.278	156.5
341.491	93.01
341.703	4.95
341.915	-5.29
342.128	50
342.34	-3.24
342.552	-19.63
342.764	105.3
342.977	31.57
343.189	35.67
343.401	45.91
343.613	-31.91
343.826	140.12
344.038	2.9
344.25	140.12
344.462	17.24
344.674	62.29
344.886	13.14
345.099	43.86
345.311	33.62
345.523	7
345.735	-46.25
345.947	33.62
346.159	27.48
346.371	95.06
346.583	-66.73
346.795	234.32
347.007	-38.06
347.219	68.44
347.431	56.15
347.643	193.36
347.855	-79.02
348.067	107.35
348.279	-87.21
348.491	39.76
348.703	45.91
348.915	9.05
349.127	50
349.339	99.16
349.551	62.29
349.763	84.82
349.975	80.72
350.187	45.91
350.399	211.79
350.61	95.06
350.822	64.34
351.034	33.62
351.246	-19.63
351.458	117.59
351.669	103.25
351.881	152.4
352.093	78.68
352.305	127.83
352.517	13.14
352.728	76.63
352.94	17.24
353.152	133.97
353.363	-44.2
353.575	39.76
353.787	187.22
353.999	76.63
354.21	168.79
354.422	11.09
354.633	-23.72
354.845	74.58
355.057	11.09
355.268	7
355.48	127.83
355.692	-99.5
355.903	80.72
356.115	-19.63
356.326	-25.77
356.538	195.41
356.749	88.92
356.961	99.16
357.172	56.15
357.384	-72.87
357.595	166.74
357.807	103.25
358.018	-9.39
358.23	37.72
358.441	150.36
358.653	52.05
358.864	52.05
359.075	-56.49
359.287	-29.87
359.498	136.02
359.709	-3.24
359.921	31.57
360.132	43.86
360.344	-11.43
360.555	-46.25
360.766	29.52
360.977	37.72
361.189	78.68
361.4	50
361.611	199.51
361.823	146.26
362.034	86.87
362.245	-60.59
362.456	27.48
362.667	84.82
362.879	2.9
363.09	107.35
363.301	43.86
363.512	47.96
363.723	39.76
363.935	47.96
364.146	217.94
364.357	74.58
364.568	158.55
364.779	-5.29
364.99	179.03
365.201	47.96
365.412	78.68
365.623	-105.64
365.834	-7.34
366.045	76.63
366.256	90.96
366.467	150.36
366.678	-48.3
366.889	-27.82
367.1	-25.77
367.311	219.99
367.522	-33.96
367.733	82.77
367.944	93.01
368.155	17.24
368.366	117.59
368.577	181.07
368.788	121.68
368.999	-50.35
369.209	74.58
369.42	236.37
369.631	224.08
369.842	101.2
370.053	21.33
370.264	111.44
370.474	-62.63
370.685	68.44
370.896	90.96
371.107	66.39
371.317	37.72
371.528	-11.43
371.739	131.92
371.95	115.54
372.16	74.58
372.371	-1.19
372.582	23.38
372.792	82.77
373.003	82.77
373.214	109.4
373.424	107.35
373.635	-1.19
373.846	125.78
374.056	11.09
374.267	95.06
374.477	50
374.688	13.14
374.898	103.25
375.109	17.24
375.319	60.24
375.53	211.79
375.74	125.78
375.951	50
376.161	136.02
376.372	121.68
376.582	43.86
376.793	90.96
377.003	15.19
377.214	-54.44
377.424	123.73
377.635	54.1
377.845	2.9
378.055	133.97
378.266	11.09
378.476	52.05
378.686	33.62
378.897	13.14
379.107	129.88
379.317	66.39
379.528	15.19
379.738	105.3
379.948	0.85
380.158	140.12
380.369	103.25
380.579	174.93
380.789	68.44
380.999	56.15
381.21	62.29
381.42	160.59
381.63	107.35
381.84	121.68
382.05	109.4
382.261	47.96
382.471	84.82
382.681	-1.19
382.891	172.88
383.101	97.11
383.311	-15.53
383.521	56.15
383.731	35.67
383.941	93.01
384.151	80.72
384.361	56.15
384.571	95.06
384.781	109.4
384.991	189.27
385.201	158.55
385.411	144.21
385.621	50
385.831	50
386.041	68.44
386.251	25.43
386.461	203.6
386.671	109.4
386.881	58.2
387.091	78.68
387.301	154.45
387.511	103.25
387.72	62.29
387.93	156.5
388.14	-36.01
388.35	15.19
388.56	123.73
388.769	127.83
388.979	90.96
389.189	99.16
389.399	86.87
389.609	117.59
389.818	103.25
390.028	58.2
390.238	136.02
390.447	-68.78
390.657	136.02
390.867	39.76
391.076	-79.02
391.286	60.24
391.496	144.21
391.705	21.33
391.915	136.02
392.125	125.78
392.334	0.85
392.544	209.75
392.753	50
392.963	11.09
393.172	19.29
393.382	17.24
393.591	193.36
393.801	-46.25
394.01	84.82
394.22	140.12
394.429	52.05
394.639	0.85
394.848	80.72
395.058	64.34
395.267	103.25
395.477	84.82
395.686	97.11
395.895	238.42
396.105	172.88
396.314	66.39
396.524	23.38
396.733	-25.77
396.942	103.25
397.152	90.96
397.361	119.64
397.57	117.59
397.78	23.38
397.989	66.39
398.198	224.08
398.407	17.24
398.617	23.38
398.826	84.82
399.035	29.52
399.244	101.2
399.453	97.11
399.663	123.73
399.872	150.36
400.081	-56.49
400.29	185.17
400.499	15.19
400.708	121.68
400.917	-1.19
401.127	52.05
401.336	58.2
401.545	199.51
401.754	191.31
401.963	140.12
402.172	15.19
402.381	-58.54
402.59	29.52
402.799	25.43
403.008	101.2
403.217	9.05
403.426	54.1
403.635	-40.11
403.844	62.29
404.053	105.3
404.262	41.81
404.471	203.6
404.68	103.25
404.888	11.09
405.097	76.63
405.306	60.24
405.515	78.68
405.724	37.72
405.933	181.07
406.142	107.35
406.35	160.59
406.559	21.33
406.768	50
406.977	211.79
407.185	41.81
407.394	105.3
407.603	19.29
407.812	115.54
408.02	146.26
408.229	17.24
408.438	80.72
408.646	-1.19
408.855	31.57
409.064	29.52
409.272	-1.19
409.481	101.2
409.69	-29.87
409.898	-15.53
410.107	66.39
410.315	170.83
410.524	2.9
410.733	95.06
410.941	119.64
411.15	105.3
411.358	119.64
411.567	193.36
411.775	58.2
411.984	-40.11
412.192	37.72
412.401	93.01
412.609	176.98
412.818	82.77
413.026	117.59
413.234	13.14
413.443	121.68
413.651	19.29
413.86	64.34
414.068	142.16
414.276	179.03
414.485	15.19
414.693	193.36
414.901	248.66
415.11	156.5
415.318	47.96
415.526	54.1
415.734	215.89
415.943	127.83
416.151	160.59
416.359	43.86
416.567	41.81
416.776	152.4
416.984	99.16
417.192	242.51
417.4	-19.63
417.608	25.43
417.817	-38.06
418.025	111.44
418.233	189.27
418.441	11.09
418.649	-29.87
418.857	58.2
419.065	176.98
419.273	-15.53
419.481	93.01
419.689	95.06
419.897	-7.34
420.105	-23.72
420.313	142.16
420.521	234.32
420.729	109.4
420.937	109.4
421.145	4.95
421.353	127.83
421.561	131.92
421.769	119.64
421.977	2.9
422.185	93.01
422.393	31.57
422.601	176.98
422.809	95.06
423.017	88.92
423.224	50
423.432	90.96
423.64	88.92
423.848	248.66
424.056	142.16
424.263	119.64
424.471	39.76
424.679	185.17
424.887	58.2
425.094	111.44
425.302	60.24
425.51	70.48
425.718	107.35
425.925	113.49
426.133	86.87
426.341	209.75
426.548	37.72
426.756	72.53
426.964	-3.24
427.171	39.76
427.379	64.34
427.586	105.3
427.794	136.02
428.001	203.6
428.209	95.06
428.417	199.51
428.624	191.31
428.832	174.93
429.039	101.2
429.247	84.82
429.454	203.6
429.662	260.95
429.869	136.02
430.076	93.01
430.284	156.5
430.491	183.12
430.699	111.44
430.906	170.83
431.114	158.55
431.321	217.94
431.528	95.06
431.736	105.3
431.943	193.36
432.15	170.83
432.358	232.27
432.565	217.94
432.772	66.39
432.979	234.32
433.187	129.88
433.394	322.38
433.601	93.01
433.808	279.38
434.016	228.18
434.223	246.61
434.43	207.7
434.637	219.99
434.844	322.38
435.052	281.43
435.259	285.52
435.466	215.89
435.673	295.76
435.88	260.95
436.087	324.43
436.294	265.04
436.501	353.1
436.708	228.18
436.915	281.43
437.122	324.43
437.329	228.18
437.537	330.58
437.743	303.95
437.95	422.73
438.157	385.87
438.364	365.39
438.571	340.82
438.778	381.78
438.985	447.31
439.192	502.61
439.399	432.97
439.606	471.89
439.813	478.03
440.02	584.52
440.227	602.96
440.433	631.63
440.64	570.19
440.847	473.93
441.054	521.04
441.261	795.47
441.467	555.85
441.674	621.39
441.881	635.72
442.088	641.87
442.294	719.69
442.501	817.99
442.708	779.08
442.914	803.66
443.121	856.9
443.328	838.47
443.534	918.34
443.741	809.8
443.948	772.94
444.154	959.3
444.361	1057.61
444.568	940.87
444.774	918.34
444.981	973.64
445.187	1250.11
445.394	1088.32
445.6	1182.53
445.807	1278.79
446.013	1143.62
446.22	1219.39
446.426	1315.65
446.633	1459.01
446.839	1649.47
447.046	1344.32
447.252	1669.95
447.459	1661.76
447.665	1624.89
447.871	1801.02
448.078	1798.97
448.284	1848.12
448.491	1876.79
448.697	2001.72
448.903	2120.5
449.11	2263.86
449.316	2079.54
449.522	2272.05
449.728	2382.64
449.935	2478.9
450.141	2437.94
450.347	2677.55
450.553	2566.96
450.76	2638.64
450.966	2831.15
451.172	2845.48
451.378	2970.41
451.584	3195.68
451.791	3367.71
451.997	3455.78
452.203	3509.02
452.409	3654.43
452.615	3746.59
452.821	3777.31
453.027	3775.26
453.233	4215.57
453.44	4121.37
453.646	4414.23
453.852	4512.53
454.058	4709.13
454.264	4807.44
454.47	5274.37
454.676	5247.75
454.882	5591.81
455.088	5327.62
455.294	5647.1
455.5	6013.69
455.705	6249.21
455.911	6290.17
456.117	6724.33
456.323	7068.39
456.529	6632.18
456.735	7488.23
456.941	7641.82
457.147	8164.06
457.352	8176.34
457.558	8196.82
457.764	9022.16
457.97	9222.86
458.176	9829.06
458.381	9925.31
458.587	10105.53
458.793	11008.69
458.999	10799.79
459.204	11971.23
459.41	12485.27
459.616	12243.61
459.821	12911.25
460.027	13769.35
460.233	13972.1
460.438	14074.49
460.644	14996.08
460.85	15100.53
461.055	15565.42
461.261	16540.25
461.466	16284.25
461.672	16441.95
461.878	18424.38
462.083	18401.85
462.289	18612.79
462.494	19325.49
462.7	19896.87
462.905	19765.8
463.111	21344.78
463.316	22348.29
463.522	22866.42
463.727	23677.42
463.932	24871.39
464.138	25272.79
464.343	26384.83
464.549	26270.15
464.754	28479.91
464.959	29227.42
465.165	29692.3
465.37	29524.37
465.575	29651.34
465.781	31379.83
465.986	32207.21
466.191	32055.66
466.397	32434.53
466.602	31289.72
466.807	32987.49
467.012	33638.74
467.218	34228.56
467.423	34242.89
467.628	35377.47
467.833	37069.09
468.038	36249.9
468.244	35692.85
468.449	37347.61
468.654	36886.82
468.859	36679.97
469.064	36784.42
469.269	35909.94
469.474	36583.72
469.679	37280.03
469.885	36073.77
470.09	36800.8
470.295	36835.62
470.5	35780.92
470.705	36303.15
470.91	35127.61
471.115	35168.57
471.32	35111.23
471.525	35406.14
471.73	34287.95
471.935	33468.76
472.139	32459.11
472.344	32833.89
472.549	32237.93
472.754	32033.13
472.959	31314.3
473.164	29997.45
473.369	29737.36
473.574	30189.96
473.778	29598.1
473.983	29284.76
474.188	28694.94
474.393	27449.78
474.598	27154.87
474.802	26755.52
475.007	26380.74
475.212	26374.59
475.417	24979.93
475.621	24871.39
475.826	24924.63
476.031	23990.76
476.235	23630.32
476.44	23257.59
476.645	22895.1
476.849	22456.83
477.054	22313.47
477.259	21760.52
477.463	21715.47
477.668	21039.64
477.872	21092.88
478.077	20433.44
478.282	20007.46
478.486	19898.92
478.691	19704.36
478.895	19186.22
479.1	19112.5
479.304	19243.57
479.509	18520.63
479.713	18948.66
479.918	18655.8
480.122	18057.79
480.326	18094.66
480.531	18068.03
480.735	17523.27
480.94	17746.5
481.144	18166.34
481.348	17037.91
481.553	17455.69
481.757	16847.44
481.961	17148.5
482.166	17226.32
482.37	16792.15
482.574	16353.88
482.778	16810.58
482.983	16495.19
483.187	16308.83
483.391	16376.41
483.595	15964.77
483.8	15807.08
484.004	15671.91
484.208	15684.2
484.412	15589.99
484.616	15407.72
484.821	15272.56
485.025	14785.14
485.229	14768.76
485.433	14486.14
485.637	14545.53
485.841	14340.73
486.045	13949.57
486.249	13974.14
486.453	13578.89
486.657	13709.96
486.861	13222.54
487.065	13019.79
487.269	12984.98
487.473	12370.58
487.677	12454.55
487.881	12386.97
488.085	12159.64
488.289	11958.94
488.493	11834.02
488.697	11788.96
488.901	11518.63
489.105	10973.87
489.309	10994.35
489.512	10799.79
489.716	10652.34
489.92	10447.54
490.124	10232.51
490.328	10328.76
490.531	9945.79
490.735	9816.77
490.939	9542.34
491.143	9437.89
491.346	9390.79
491.55	9169.61
491.754	8958.67
491.958	8958.67
492.161	8608.47
492.365	8639.19
492.569	8469.2
492.772	8223.45
492.976	8356.57
493.18	7957.21
493.383	8014.56
493.587	7899.87
493.79	7903.96
493.994	7709.41
494.197	7600.87
494.401	7523.04
494.605	7275.24
494.808	7273.19
495.012	7510.75
495.215	7258.85
495.419	7512.8
495.622	7265
495.825	7035.63
496.029	6896.36
496.232	7152.36
496.436	7072.49
496.639	7295.72
496.843	7158.5
497.046	7109.35
497.249	7285.48
497.453	6984.43
497.656	6972.14
497.859	7111.4
498.063	7168.74
498.266	7195.37
498.469	7088.87
498.673	7115.5
498.876	7246.57
499.079	7357.16
499.282	7152.36
499.485	7432.93
499.689	7453.41
499.892	7555.81
500.095	7627.49
500.298	7539.43
500.501	7486.18
500.705	7580.39
500.908	7650.02
501.111	7772.89
501.314	7797.47
501.517	7949.02
501.72	7883.49
501.923	7971.55
502.126	8110.81
502.329	8293.08
502.532	8325.85
502.735	8336.09
502.938	8663.76
503.141	8737.49
503.344	8731.34
503.547	8825.55
503.75	8901.33
503.953	8968.91
504.156	9247.43
504.359	9292.49
504.562	9472.71
504.765	9702.08
504.968	9716.42
505.17	9851.58
505.373	10136.25
505.576	10427.06
505.779	10418.87
505.982	10375.86
506.185	10953.39
506.387	10918.57
506.59	11174.57
506.793	11561.64
506.996	11545.25
507.198	11834.02
507.401	12071.58
507.604	12266.14
507.807	12565.14
508.009	12628.63
508.212	13062.8
508.415	13337.23
508.617	13322.89
508.82	13763.2
509.022	13800.07
509.225	14391.93
509.428	14629.49
509.63	15121.01
509.833	15243.88
510.035	15989.35
510.238	15657.57
510.44	16448.09
510.643	16673.37
510.845	17175.12
511.048	17459.79
511.25	17715.78
511.453	18199.1
511.655	19145.27
511.858	19059.25
512.06	19468.84
512.262	19728.94
512.465	20068.9
512.667	20892.18
512.87	21062.16
513.072	21549.58
513.274	22321.66
513.477	22821.37
513.679	23669.23
513.881	23845.35
514.084	24349.15
514.286	24771.04
514.488	25145.81
514.69	26155.46
514.893	26474.95
515.095	27136.44
515.297	27828.65
515.499	27914.67
515.701	28940.7
515.904	29657.49
516.106	30214.54
516.308	30542.21
516.51	31883.63
516.712	32231.79
516.914	32545.12
517.116	33661.27
517.318	33943.89
517.52	34447.69
517.722	35230.01
517.925	35807.54
518.127	36780.32
518.329	37339.42
518.531	37695.77
518.733	38553.87
518.935	39121.15
519.136	39733.5
519.338	40638.7
519.54	40880.36
519.742	41603.29
519.944	42086.61
520.146	43120.84
520.348	43450.56
520.55	43802.81
520.752	44898.47
520.954	45191.33
521.155	45123.75
521.357	46516.37
521.559	46792.84
521.761	47433.86
521.963	47673.47
522.164	48396.4
522.366	48328.82
522.568	49199.21
522.77	49094.76
522.971	50085.98
523.173	50186.33
523.375	50384.98
523.576	50514
523.778	50888.78
523.98	51501.12
524.181	51613.76
524.383	51793.98
524.584	52297.78
524.786	51580.99
524.988	52017.21
525.189	52719.66
525.391	52254.78
525.592	52922.41
525.794	52850.73
525.995	52674.61
526.197	52334.65
526.398	52561.97
526.6	52619.31
526.801	52668.47
527.003	52322.36
527.204	52052.03
527.406	52475.96
527.607	51951.68
527.808	51710.02
528.01	50786.38
528.211	50845.77
528.412	51220.55
528.614	50679.89
528.815	50251.86
529.016	50491.47
529.218	49375.33
529.419	49541.22
529.62	48928.87
529.822	48408.69
530.023	48169.08
530.224	47747.2
530.425	47394.95
530.626	46444.69
530.828	46219.41
531.029	46463.12
531.23	45430.94
531.431	45035.69
531.632	44581.04
531.833	44128.44
532.035	43641.02
532.236	43122.88
532.437	42713.29
532.638	42381.52
532.839	41859.29
533.04	41271.52
533.241	40138.99
533.442	40497.39
533.643	40069.36
533.844	38957.31
534.045	38627.59
534.246	37998.87
534.447	37646.61
534.648	37181.73
534.849	36927.78
535.05	36290.86
535.251	35842.35
535.451	35105.09
535.652	35162.43
535.853	34093.39
536.054	33982.8
536.255	33675.6
536.456	32842.08
536.657	33180
536.857	32325.99
537.058	31947.12
537.259	31254.9
537.46	31240.57
537.66	30372.23
537.861	30263.69
538.062	29720.98
538.263	29460.88
538.463	29393.3
538.664	28899.74
538.865	28752.29
539.065	28062.12
539.266	27638.19
539.466	27644.34
539.667	26923.45
539.868	26810.81
540.068	26591.68
540.269	26059.21
540.469	26157.51
540.67	25610.7
540.87	25430.48
541.071	24967.64
541.271	24605.15
541.472	24599.01
541.672	24132.07
541.873	23646.7
542.073	23527.92
542.274	23734.76
542.474	23097.84
542.675	22751.74
542.875	22581.76
543.075	22471.17
543.276	21998.09
543.476	21846.54
543.676	21414.41
543.877	21455.37
544.077	20970.01
544.277	20959.77
544.478	20787.74
544.678	20447.77
544.878	20294.18
545.078	20232.74
545.279	19835.43
545.479	19454.51
545.679	19407.41
545.879	19128.88
546.079	19159.6
546.28	18612.79
546.48	18309.69
546.68	18537.02
546.88	17963.59
547.08	17863.24
547.28	17930.82
547.48	17482.31
547.68	17220.17
547.88	16689.75
548.081	16898.64
548.281	16853.59
548.481	16310.88
548.681	16415.32
548.881	16241.25
549.081	15923.81
549.28	15485.55
549.48	15411.82
549.68	15377
549.88	15170.16
550.08	14602.87
550.28	14586.49
550.48	14416.51
550.68	14416.51
550.88	13990.53
551.08	13828.74
551.279	13814.4
551.479	13261.45
551.679	13408.9
551.879	12966.54
552.079	13181.58
552.278	12571.29
552.478	12645.01
552.678	12407.45
552.878	12298.91
553.077	12090.01
553.277	11670.18
553.477	11614.88
553.676	11487.91
553.876	11434.66
554.076	11016.88
554.275	11092.65
554.475	10527.41
554.674	10668.72
554.874	10232.51
555.074	9902.78
555.273	10164.92
555.473	10035.9
555.672	9904.83
555.872	9681.6
556.071	9534.15
556.271	9122.51
556.47	9196.23
556.67	8995.53
556.869	8907.47
557.068	8727.25
557.268	8430.29
557.467	8393.43
557.667	8366.81
557.866	8159.96
558.065	8022.75
558.265	7920.35
558.464	7746.27
558.663	7895.77
558.863	7322.34
559.062	7516.9
559.261	7240.42
559.461	7185.13
559.66	7021.29
559.859	6970.09
560.058	6654.7
560.258	6544.11
560.457	6638.32
560.656	6855.4
560.855	6462.19
561.054	6570.74
561.253	6312.69
561.453	6193.91
561.652	6083.32
561.851	6120.18
562.05	5804.8
562.249	5780.22
562.448	5698.3
562.647	5493.51
562.846	5493.51
563.045	5604.1
563.244	5237.51
563.443	5249.8
563.642	5145.35
563.841	5032.71
564.04	5141.25
564.239	5075.72
564.438	4934.41
564.637	4672.27
564.836	4651.79
565.035	4766.48
565.234	4643.6
565.432	4508.43
565.631	4530.96
565.83	4506.38
566.029	4270.87
566.228	4332.31
566.427	4363.03
566.625	4125.46
566.824	4111.13
567.023	4078.36
567.222	3834.65
567.42	3967.77
567.619	3894.04
567.818	3842.84
568.016	4004.63
568.215	3851.03
568.414	3832.6
568.612	3537.7
568.811	3466.02
569.01	3500.83
569.208	3429.15
569.407	3484.45
569.605	3367.71
569.804	3287.84
570.002	3238.69
570.201	3087.14
570.4	3253.03
570.598	3005.22
570.797	3085.09
570.995	2956.07
571.193	2935.59
571.392	2982.7
571.59	2716.46
571.789	3003.18
571.987	2837.29
572.186	2790.19
572.384	2685.74
572.582	2667.31
572.781	2818.86
572.979	2489.14
573.177	2495.28
573.376	2573.1
573.574	2532.14
573.772	2478.9
573.971	2370.35
574.169	2306.87
574.367	2472.75
574.565	2255.67
574.763	2263.86
574.962	2143.03
575.16	2245.43
575.358	2026.29
575.556	2085.69
575.754	2114.36
575.952	1995.57
576.151	2106.17
576.349	1921.85
576.547	1897.27
576.745	1973.05
576.943	1844.03
577.141	1884.98
577.339	1815.35
577.537	1805.11
577.735	1872.7
577.933	1708.86
578.131	1739.58
578.329	1854.27
578.527	1581.89
578.725	1727.29
578.923	1579.84
579.121	1620.8
579.319	1467.2
579.516	1504.06
579.714	1708.86
579.912	1561.41
580.11	1418.05
580.308	1475.39
580.506	1321.79
580.704	1217.35
580.901	1338.18
581.099	1375.04
581.297	1401.66
581.495	1360.7
581.692	1297.22
581.89	1360.7
582.088	1235.78
582.285	1223.49
582.483	1350.46
582.681	1186.63
582.878	1135.43
583.076	1192.77
583.274	1170.24
583.471	1258.31
583.669	1123.14
583.866	1041.22
584.064	1080.13
584.262	1037.13
584.459	1012.55
584.657	1166.15
584.854	1069.89
585.052	1059.65
585.249	1084.23
585.447	969.54
585.644	893.77
585.841	1012.55
586.039	893.77
586.236	1071.94
586.434	951.11
586.631	871.24
586.828	916.3
587.026	959.3
587.223	783.18
587.42	746.31
587.618	881.48
587.815	891.72
588.012	912.2
588.21	781.13
588.407	906.06
588.604	936.78
588.801	807.75
588.999	807.75
589.196	774.99
589.393	713.55
589.59	916.3
589.787	824.14
589.984	856.9
590.182	840.52
590.379	676.68
590.576	785.23
590.773	676.68
590.97	666.44
591.167	844.62
591.364	797.51
591.561	719.69
591.758	820.04
591.955	789.32
592.152	691.02
592.349	746.31
592.546	674.64
592.743	674.64
592.94	701.26
593.137	742.22
593.334	809.8
593.531	779.08
593.727	750.41
593.924	840.52
594.121	637.77
594.318	750.41
594.515	752.46
594.712	856.9
594.908	813.9
595.105	672.59
595.302	834.38
595.499	815.94
595.696	801.61
595.892	701.26
596.089	922.44
596.286	809.8
596.482	963.4
596.679	965.45
596.876	879.43
597.072	985.93
597.269	867.14
597.466	1020.74
597.662	959.3
597.859	934.73
598.055	1004.36
598.252	1073.99
598.448	1137.48
598.645	1264.45
598.841	1170.24
599.038	1231.68
599.234	1424.19
599.431	1297.22
599.627	1317.7
599.824	1463.1
600.02	1504.06
600.217	1553.21
600.413	1604.41
600.609	1606.46
600.806	1909.56
601.002	1788.73
601.198	1792.83
601.395	1948.47
601.591	2022.2
601.787	2018.1
601.984	2100.02
602.18	2159.41
602.376	2161.46
602.572	2472.75
602.769	2577.2
602.965	2573.1
603.161	2634.54
603.357	2722.6
603.553	2833.19
603.75	2702.12
603.946	2892.59
604.142	3109.67
604.338	3285.8
604.534	3212.07
604.73	3322.66
604.926	3506.98
605.122	3607.33
605.318	3709.72
605.514	3848.99
605.71	3877.66
605.906	3930.91
606.102	4174.61
606.298	4240.15
606.494	4332.31
606.69	4584.21
606.886	4557.58
607.082	4825.87
607.278	4801.29
607.474	5053.19
607.67	5102.34
607.866	5296.9
608.062	5425.92
608.257	5757.69
608.453	5616.38
608.649	5823.23
608.845	6050.55
609.041	6028.03
609.236	6365.94
609.432	6449.91
609.628	6718.19
609.824	6996.71
610.019	6966
610.215	7109.35
610.411	7549.67
610.606	7629.54
610.802	7852.77
610.998	8260.31
611.193	8223.45
611.389	8256.22
611.584	8762.06
611.78	8739.54
611.976	8999.63
612.171	9372.36
612.367	9534.15
612.562	9886.4
612.758	9964.22
612.953	10390.2
613.149	10826.42
613.344	10707.63
613.539	11358.89
613.735	11680.42
613.93	11743.91
614.126	12094.11
614.321	12497.56
614.517	12628.63
614.712	12919.44
614.907	13283.98
615.103	13695.62
615.298	13988.48
615.493	14310.01
615.688	14447.22
615.884	15045.23
616.079	15227.5
616.274	16036.45
616.47	16120.42
616.665	16501.34
616.86	17072.72
617.055	17472.07
617.25	17683.02
617.445	18297.41
617.641	18786.87
617.836	19515.95
618.031	19452.46
618.226	20355.61
618.421	20304.42
618.616	21375.5
618.811	21316.11
619.006	21996.04
619.201	22391.3
619.396	23134.71
619.591	23103.99
619.786	24060.39
619.981	24066.53
620.176	25106.9
620.371	25129.43
620.566	26458.56
620.761	26290.63
620.956	27128.25
621.151	27363.76
621.346	28111.27
621.541	28455.33
621.735	29219.22
621.93	29456.79
622.125	29960.59
622.32	30015.88
622.515	31699.31
622.709	31979.89
622.904	32450.92
623.099	32825.7
623.294	33476.95
623.488	34031.95
623.683	34871.62
623.878	34636.1
624.072	35672.37
624.267	36266.28
624.462	36544.81
624.656	37161.25
624.851	38005.01
625.046	37875.99
625.24	38727.94
625.435	39373.05
625.629	39940.34
625.824	40132.85
626.018	40849.64
626.213	40671.46
626.407	41185.5
626.602	41537.76
626.796	42449.1
626.991	42879.18
627.185	42770.63
627.38	43086.02
627.574	43385.02
627.768	43323.58
627.963	43796.67
628.157	43559.1
628.352	43991.22
628.546	43309.25
628.74	44304.56
628.935	43409.6
629.129	43952.31
629.323	43059.4
629.517	43120.84
629.712	42561.74
629.906	42522.83
630.1	41638.11
630.294	41132.26
630.489	40655.08
630.683	40489.2
630.877	39684.34
631.071	38465.8
631.265	38414.6
631.459	37409.05
631.653	36204.84
631.848	35830.07
632.042	34619.72
632.236	34224.46
632.43	32723.3
632.624	31914.35
632.818	30779.78
633.012	29933.96
633.206	28729.76
633.4	28012.97
633.594	26845.63
633.788	26124.74
633.982	25266.64
634.176	24424.93
634.369	22995.45
634.563	22520.32
634.757	21340.69
634.951	21109.27
635.145	20318.75
635.339	19216.94
635.533	18295.36
635.726	17760.84
635.92	16437.85
636.114	16046.69
636.308	15379.05
636.501	15041.14
636.695	14357.11
636.889	13671.04
637.083	13068.94
637.276	12561.05
637.47	11827.87
637.664	11500.2
637.857	11178.67
638.051	10617.52
638.244	10304.18
638.438	9743.04
638.632	9560.77
638.825	8985.29
639.019	8846.03
639.212	8176.34
639.406	8112.86
639.599	7633.63
639.793	7500.51
639.986	7361.25
640.18	7095.02
640.373	6695.66
640.567	6271.73
640.76	6220.53
640.954	5837.56
641.147	5575.42
641.34	5360.39
641.534	5384.96
641.727	5053.19
641.92	4926.22
642.114	4840.2
642.307	4627.21
642.5	4320.02
642.694	4125.46
642.887	4072.22
643.08	4012.82
643.273	3642.14
643.467	3513.12
643.66	3269.41
643.853	3203.88
644.046	3146.53
644.239	2951.98
644.432	2857.77
644.626	2716.46
644.819	2726.7
645.012	2585.39
645.205	2618.16
645.398	2468.66
645.591	2255.67
645.784	2235.19
645.977	2069.3
646.17	2075.45
646.363	1995.57
646.556	1876.79
646.749	1708.86
646.942	1698.62
647.135	1651.52
647.328	1624.89
647.521	1649.47
647.714	1442.62
647.907	1569.6
648.099	1313.6
648.292	1422.14
648.485	1352.51
648.678	1272.64
648.871	1223.49
649.064	1180.48
649.256	1117
649.449	1067.85
649.642	965.45
649.835	910.15
650.027	891.72
650.22	973.64
650.413	838.47
650.605	924.49
650.798	869.19
650.991	711.5
651.183	723.79
651.376	760.65
651.568	729.93
651.761	736.07
651.954	736.07
652.146	576.33
652.339	686.92
652.531	672.59
652.724	674.64
652.916	486.22
653.109	508.75
653.301	658.25
653.494	555.85
653.686	590.67
653.879	664.4
654.071	480.08
654.263	445.26
654.456	441.17
654.648	502.61
654.84	504.65
655.033	428.88
655.225	555.85
655.417	383.82
655.61	521.04
655.802	457.55
655.994	461.65
656.186	301.9
656.379	484.17
656.571	334.67
656.763	379.73
656.955	320.34
657.148	273.23
657.34	361.3
657.532	402.26
657.724	363.34
657.916	361.3
658.108	445.26
658.3	269.14
658.492	371.54
658.684	170.83
658.876	363.34
659.068	281.43
659.26	170.83
659.452	250.71
659.644	271.19
659.836	412.5
660.028	271.19
660.22	228.18
660.412	211.79
660.604	265.04
660.796	222.03
660.988	299.86
661.18	172.88
661.372	310.1
661.563	226.13
661.755	242.51
661.947	226.13
662.139	201.55
662.331	211.79
662.522	138.07
662.714	267.09
662.906	70.48
663.097	162.64
663.289	138.07
663.481	146.26
663.673	185.17
663.864	193.36
664.056	160.59
664.247	172.88
664.439	314.19
664.631	213.84
664.822	240.47
665.014	125.78
665.205	123.73
665.397	144.21
665.588	129.88
665.78	142.16
665.971	179.03
666.163	84.82
666.354	109.4
666.546	99.16
666.737	146.26
666.929	80.72
667.12	125.78
667.311	201.55
667.503	195.41
667.694	187.22
667.885	191.31
668.077	146.26
668.268	52.05
668.459	64.34
668.651	232.27
668.842	148.31
669.033	31.57
669.224	70.48
669.416	258.9
669.607	138.07
669.798	58.2
669.989	240.47
670.18	76.63
670.371	187.22
670.563	47.96
670.754	207.7
670.945	144.21
671.136	181.07
671.327	43.86
671.518	54.1
671.709	217.94
671.9	123.73
672.091	150.36
672.282	105.3
672.473	125.78
672.664	99.16
672.855	74.58
673.046	195.41
673.237	275.28
673.428	97.11
673.619	211.79
673.809	140.12
674	228.18
674.191	158.55
674.382	90.96
674.573	205.65
674.764	123.73
674.954	146.26
675.145	64.34
675.336	127.83
675.527	160.59
675.717	113.49
675.908	52.05
676.099	66.39
676.289	179.03
676.48	0.85
676.671	222.03
676.861	82.77
677.052	142.16
677.243	95.06
677.433	82.77
677.624	256.85
677.814	162.64
678.005	64.34
678.195	219.99
678.386	66.39
678.576	125.78
678.767	78.68
678.957	197.46
679.148	254.8
679.338	314.19
679.529	199.51
679.719	93.01
679.909	174.93
680.1	254.8
680.29	164.69
680.481	47.96
680.671	168.79
680.861	168.79
681.052	150.36
681.242	148.31
681.432	236.37
681.622	222.03
681.813	125.78
682.003	138.07
682.193	125.78
682.383	129.88
682.573	191.31
682.764	123.73
682.954	230.23
683.144	244.56
683.334	162.64
683.524	95.06
683.714	219.99
683.904	236.37
684.094	199.51
684.284	213.84
684.474	344.91
684.664	246.61
684.854	209.75
685.044	250.71
685.234	162.64
685.424	164.69
685.614	189.27
685.804	394.06
685.994	240.47
686.184	219.99
686.374	181.07
686.564	203.6
686.753	197.46
686.943	105.3
687.133	183.12
687.323	119.64
687.513	213.84
687.702	209.75
687.892	97.11
688.082	285.52
688.272	334.67
688.461	254.8
688.651	277.33
688.841	228.18
689.03	90.96
689.22	172.88
689.41	230.23
689.599	269.14
689.789	123.73
689.979	269.14
690.168	181.07
690.358	262.99
690.547	170.83
690.737	193.36
690.926	228.18
691.116	244.56
691.305	338.77
691.495	244.56
691.684	193.36
691.874	211.79
692.063	140.12
692.252	248.66
692.442	316.24
692.631	189.27
692.82	183.12
693.01	219.99
693.199	174.93
693.388	260.95
693.578	232.27
693.767	244.56
693.956	293.71
694.146	203.6
694.335	332.62
694.524	191.31
694.713	297.81
694.902	119.64
695.092	123.73
695.281	211.79
695.47	207.7
695.659	181.07
695.848	242.51
696.037	183.12
696.226	238.42
696.415	197.46
696.604	340.82
696.793	256.85
696.982	162.64
697.171	308.05
697.36	217.94
697.549	297.81
697.738	183.12
697.927	148.31
698.116	197.46
698.305	191.31
698.494	199.51
698.683	160.59
698.872	355.15
699.061	254.8
699.25	205.65
699.438	234.32
699.627	213.84
699.816	289.62
700.005	123.73
700.193	144.21
700.382	281.43
700.571	181.07
700.76	363.34
700.948	201.55
701.137	267.09
701.326	262.99
701.514	179.03
701.703	256.85
701.892	242.51
702.08	314.19
702.269	211.79
702.457	234.32
702.646	250.71
702.834	201.55
703.023	281.43
703.212	256.85
703.4	291.66
703.589	199.51
703.777	115.54
703.965	152.4
704.154	125.78
704.342	160.59
704.531	213.84
704.719	254.8
704.907	332.62
705.096	179.03
705.284	168.79
705.472	258.9
705.661	185.17
705.849	250.71
706.037	289.62
706.226	215.89
706.414	217.94
706.602	170.83
706.79	271.19
706.979	183.12
707.167	234.32
707.355	99.16
707.543	281.43
707.731	148.31
707.919	209.75
708.107	150.36
708.296	185.17
708.484	125.78
708.672	244.56
708.86	256.85
709.048	228.18
709.236	170.83
709.424	215.89
709.612	99.16
709.8	164.69
709.988	258.9
710.176	346.96
710.364	283.47
710.551	166.74
710.739	170.83
710.927	133.97
711.115	275.28
711.303	262.99
711.491	312.14
711.679	113.49
711.866	322.38
712.054	168.79
712.242	275.28
712.43	254.8
712.617	193.36
712.805	373.58
712.993	316.24
713.181	162.64
713.368	183.12
713.556	183.12
713.744	117.59
713.931	349.01
714.119	273.23
714.306	250.71
714.494	166.74
714.682	201.55
714.869	144.21
715.057	211.79
715.244	72.53
715.432	228.18
715.619	131.92
715.807	299.86
715.994	248.66
716.182	213.84
716.369	287.57
716.556	318.29
716.744	181.07
716.931	148.31
717.119	254.8
717.306	133.97
717.493	267.09
717.681	230.23
717.868	164.69
718.055	250.71
718.242	133.97
718.43	248.66
718.617	289.62
718.804	224.08
718.991	285.52
719.179	236.37
719.366	285.52
719.553	144.21
719.74	252.75
719.927	181.07
720.114	230.23
720.301	156.5
720.488	258.9
720.676	205.65
720.863	273.23
721.05	357.2
721.237	285.52
721.424	351.06
721.611	279.38
721.798	127.83
721.985	150.36
722.172	207.7
722.358	236.37
722.545	269.14
722.732	260.95
722.919	334.67
723.106	297.81
723.293	189.27
723.48	269.14
723.667	129.88
723.853	275.28
724.04	306
724.227	299.86
724.414	238.42
724.6	205.65
724.787	326.48
724.974	404.3
725.161	197.46
725.347	129.88
725.534	228.18
725.72	279.38
725.907	289.62
726.094	279.38
726.28	250.71
726.467	293.71
726.653	219.99
726.84	383.82
727.027	312.14
727.213	330.58
727.4	316.24
727.586	258.9
727.773	224.08
727.959	228.18
728.145	234.32
728.332	238.42
728.518	209.75
728.705	240.47
728.891	281.43
729.077	283.47
729.264	211.79
729.45	265.04
729.636	357.2
729.823	207.7
730.009	246.61
730.195	260.95
730.382	375.63
730.568	219.99
730.754	293.71
730.94	252.75
731.126	295.76
731.313	275.28
731.499	287.57
731.685	398.16
731.871	346.96
732.057	279.38
732.243	334.67
732.429	291.66
732.615	326.48
732.801	250.71
732.987	222.03
733.173	258.9
733.359	248.66
733.545	416.59
733.731	215.89
733.917	312.14
734.103	310.1
734.289	285.52
734.475	222.03
734.661	498.51
734.847	349.01
735.033	291.66
735.219	340.82
735.404	181.07
735.59	279.38
735.776	252.75
735.962	297.81
736.148	394.06
736.333	385.87
736.519	271.19
736.705	299.86
736.89	234.32
737.076	217.94
737.262	213.84
737.447	289.62
737.633	199.51
737.819	441.17
738.004	314.19
738.19	301.9
738.375	256.85
738.561	406.35
738.747	322.38
738.932	217.94
739.118	473.93
739.303	381.78
739.489	367.44
739.674	291.66
739.859	265.04
740.045	246.61
740.23	357.2
740.416	193.36
740.601	256.85
740.786	258.9
740.972	271.19
741.157	250.71
741.342	246.61
741.528	240.47
741.713	357.2
741.898	207.7
742.084	289.62
742.269	277.33
742.454	437.07
742.639	385.87
742.824	236.37
743.01	349.01
743.195	351.06
743.38	338.77
743.565	306
743.75	328.53
743.935	344.91
744.12	346.96
744.305	215.89
744.49	215.89
744.675	293.71
744.86	293.71
745.045	283.47
745.23	281.43
745.415	222.03
745.6	453.45
745.785	252.75
745.97	367.44
746.155	306
746.34	326.48
746.525	275.28
746.71	408.4
746.895	197.46
747.079	213.84
747.264	236.37
747.449	291.66
747.634	326.48
747.819	349.01
748.003	219.99
748.188	242.51
748.373	324.43
748.557	258.9
748.742	244.56
748.927	209.75
749.111	205.65
749.296	162.64
749.481	250.71
749.665	275.28
749.85	228.18
750.034	265.04
750.219	260.95
750.404	240.47
750.588	260.95
750.773	238.42
750.957	256.85
751.141	260.95
751.326	289.62
751.51	47.96
751.695	232.27
751.879	258.9
752.064	357.2
752.248	246.61
752.432	303.95
752.617	279.38
752.801	209.75
752.985	179.03
753.17	340.82
753.354	260.95
753.538	256.85
753.722	142.16
753.907	219.99
754.091	179.03
754.275	185.17
754.459	152.4
754.643	191.31
754.828	346.96
755.012	195.41
755.196	72.53
755.38	213.84
755.564	201.55
755.748	224.08
755.932	289.62
756.116	242.51
756.3	240.47
756.484	201.55
756.668	273.23
756.852	105.3
757.036	138.07
757.22	217.94
757.404	185.17
757.588	213.84
757.772	205.65
757.956	156.5
758.14	254.8
758.323	64.34
758.507	191.31
758.691	105.3
758.875	262.99
759.059	265.04
759.242	148.31
759.426	142.16
759.61	236.37
759.794	117.59
759.977	258.9
760.161	353.1
760.345	234.32
760.528	283.47
760.712	271.19
760.895	154.45
761.079	191.31
761.263	121.68
761.446	115.54
761.63	203.6
761.813	246.61
761.997	148.31
762.18	60.24
762.364	172.88
762.547	54.1
762.731	144.21
762.914	95.06
763.098	47.96
763.281	107.35
763.464	136.02
763.648	111.44
763.831	82.77
764.015	82.77
764.198	248.66
764.381	117.59
764.564	88.92
764.748	187.22
764.931	133.97
765.114	68.44
765.297	185.17
765.481	68.44
765.664	183.12
765.847	138.07
766.03	279.38
766.213	43.86
766.397	117.59
766.58	101.2
766.763	189.27
766.946	154.45
767.129	152.4
767.312	74.58
767.495	144.21
767.678	84.82
767.861	121.68
768.044	121.68
768.227	95.06
768.41	66.39
768.593	131.92
768.776	183.12
768.959	97.11
769.142	211.79
769.324	52.05
769.507	64.34
769.69	95.06
769.873	76.63
770.056	291.66
770.239	113.49
770.421	254.8
770.604	125.78
770.787	33.62
770.97	123.73
771.152	37.72
771.335	107.35
771.518	76.63
771.7	187.22
771.883	252.75
772.066	60.24
772.248	82.77
772.431	176.98
772.613	150.36
772.796	164.69
772.978	111.44
773.161	226.13
773.343	15.19
773.526	35.67
773.708	47.96
773.891	-25.77
774.073	29.52
774.256	52.05
774.438	262.99
774.621	144.21
774.803	115.54
774.985	60.24
775.168	127.83
775.35	115.54
775.532	58.2
775.715	64.34
775.897	138.07
776.079	7
776.261	78.68
776.444	25.43
776.626	64.34
776.808	50
776.99	80.72
777.173	9.05
777.355	43.86
777.537	82.77
777.719	62.29
777.901	123.73
778.083	140.12
778.265	13.14
778.447	101.2
778.629	45.91
778.811	154.45
778.993	140.12
779.175	115.54
779.357	47.96
779.539	-3.24
779.721	125.78
779.903	115.54
780.085	97.11
780.267	88.92
780.449	45.91
780.631	111.44
780.812	162.64
780.994	-1.19
781.176	88.92
781.358	19.29
781.54	64.34
781.721	88.92
781.903	138.07
782.085	-64.68
782.267	131.92
782.448	23.38
782.63	72.53
782.812	74.58
782.993	76.63
783.175	99.16
783.357	45.91
783.538	54.1
783.72	15.19
783.901	121.68
784.083	103.25
784.264	107.35
784.446	4.95
784.627	-46.25
784.809	60.24
784.99	25.43
785.172	183.12
785.353	103.25
785.535	54.1
785.716	-42.15
785.897	66.39
786.079	99.16
786.26	80.72
786.441	86.87
786.623	-103.59
786.804	54.1
786.985	7
787.167	174.93
787.348	123.73
787.529	60.24
787.71	133.97
787.891	43.86
788.073	27.48
788.254	41.81
788.435	172.88
788.616	76.63
788.797	41.81
788.978	41.81
789.159	78.68
789.34	97.11
789.522	9.05
789.703	4.95
789.884	88.92
790.065	103.25
790.246	197.46
790.427	4.95
790.607	113.49
790.788	160.59
790.969	-25.77
791.15	82.77
791.331	9.05
791.512	39.76
791.693	-33.96
791.874	-54.44
792.054	254.8
792.235	86.87
792.416	60.24
792.597	-17.58
792.778	84.82
792.958	70.48
793.139	39.76
793.32	95.06
793.5	82.77
793.681	133.97
793.862	47.96
794.042	25.43
794.223	-56.49
794.404	-42.15
794.584	-83.11
794.765	-15.53
794.945	29.52
795.126	152.4
795.306	115.54
795.487	-40.11
795.667	-3.24
795.848	62.29
796.028	31.57
796.209	58.2
796.389	181.07
796.57	66.39
796.75	-33.96
796.93	90.96
797.111	-19.63
797.291	64.34
797.471	39.76
797.652	2.9
797.832	-42.15
798.012	107.35
798.192	-31.91
798.373	-89.26
798.553	-5.29
798.733	15.19
798.913	-60.59
799.093	-29.87
799.274	0.85
799.454	31.57
799.634	76.63
799.814	103.25
799.994	35.67
800.174	-3.24
800.354	29.52
800.534	-50.35
800.714	80.72
800.894	31.57
801.074	-48.3
801.254	0.85
801.434	97.11
801.614	39.76
801.794	-60.59
801.974	1813.31
802.154	-31.91
802.334	29.52
802.514	-5.29
802.693	50
802.873	-11.43
803.053	172.88
803.233	47.96
803.413	-9.39
803.592	43.86
803.772	-15.53
803.952	62.29
804.131	-38.06
804.311	60.24
804.491	121.68
804.67	-44.2
804.85	-44.2
805.03	82.77
805.209	76.63
805.389	-7.34
805.568	-68.78
805.748	13.14
805.928	-38.06
806.107	93.01
806.287	43.86
806.466	41.81
806.646	19.29
806.825	-17.58
807.004	-3.24
807.184	66.39
807.363	43.86
807.543	76.63
807.722	-85.16
807.901	37.72
808.081	97.11
808.26	-117.93
808.439	62.29
808.619	31.57
808.798	41.81
808.977	58.2
809.156	113.49
809.336	27.48
809.515	117.59
809.694	-13.48
809.873	9.05
810.052	45.91
810.231	103.25
810.411	-17.58
810.59	86.87
810.769	39.76
810.948	68.44
811.127	-150.7
811.306	19.29
811.485	37.72
811.664	101.2
811.843	37.72
812.022	52.05
812.201	68.44
812.38	-17.58
812.559	-48.3
812.737	0.85
812.916	-83.11
813.095	-13.48
813.274	31.57
813.453	-50.35
813.632	39.76
813.811	133.97
813.989	-74.92
814.168	64.34
814.347	-23.72
814.526	-38.06
814.704	103.25
814.883	78.68
815.062	-89.26
815.24	72.53
815.419	-52.39
815.598	7
815.776	-126.12
815.955	-13.48
816.133	-124.07
816.312	-54.44
816.49	-33.96
816.669	17.24
816.847	15.19
817.026	58.2
817.204	9.05
817.383	31.57
817.561	-103.59
817.74	109.4
817.918	-42.15
818.097	-23.72
818.275	-72.87
818.453	45.91
818.632	115.54
818.81	70.48
818.988	35.67
819.167	-21.67
819.345	113.49
819.523	19.29
819.701	9.05
819.879	64.34
820.058	84.82
820.236	-42.15
820.414	13.14
820.592	-54.44
820.77	56.15
820.948	-146.6
821.127	-60.59
821.305	80.72
821.483	-44.2
821.661	103.25
821.839	64.34
822.017	-15.53
822.195	-1.19
822.373	31.57
822.551	72.53
822.729	121.68
822.907	-3.24
823.085	29.52
823.262	-15.53
823.44	-25.77
823.618	-38.06
823.796	-5.29
823.974	39.76
824.152	17.24
824.329	62.29
824.507	-17.58
824.685	56.15
824.863	9.05
825.04	-5.29
825.218	-19.63
825.396	17.24
825.574	58.2
825.751	9.05
825.929	19.29
826.107	-21.67
826.284	-36.01
826.462	45.91
826.639	-3.24
826.817	-93.35
826.994	-3.24
827.172	-76.97
827.349	105.3
827.527	7
827.704	29.52
827.882	97.11
828.059	-40.11
828.237	-72.87
828.414	45.91
828.591	-87.21
828.769	17.24
828.946	-62.63
829.124	70.48
829.301	170.83
829.478	29.52
829.655	15.19
829.833	68.44
830.01	-175.27
830.187	31.57
830.364	-17.58
830.542	9.05
830.719	138.07
830.896	76.63
831.073	4.95
831.25	41.81
831.427	29.52
831.604	15.19
831.782	-60.59
831.959	41.81
832.136	27.48
832.313	11.09
832.49	-1.19
832.667	56.15
832.844	-1.19
833.021	133.97
833.198	-72.87
833.374	31.57
833.551	66.39
833.728	-21.67
833.905	66.39
834.082	-7.34
834.259	56.15
834.436	140.12
834.612	-56.49
834.789	25.43
834.966	64.34
835.143	23.38
835.319	-46.25
835.496	50
835.673	2.9
835.85	50
836.026	-21.67
836.203	121.68
836.38	52.05
836.556	-46.25
836.733	-11.43
836.909	181.07
837.086	66.39
837.262	-60.59
837.439	9.05
837.616	-33.96
837.792	27.48
837.968	-54.44
838.145	-56.49
838.321	11.09
838.498	86.87
838.674	-13.48
838.851	35.67
839.027	-70.83
839.203	23.38
839.38	70.48
839.556	-29.87
839.732	13.14
839.909	11.09
840.085	33.62
840.261	-91.31
840.437	-1.19
840.614	-91.31
840.79	170.83
840.966	37.72
841.142	76.63
841.318	-21.67
841.494	27.48
841.671	56.15
841.847	-38.06
842.023	-58.54
842.199	60.24
842.375	35.67
842.551	-152.74
842.727	-13.48
842.903	179.03
843.079	-87.21
843.255	99.16
843.431	23.38
843.607	47.96
843.783	-81.07
843.959	35.67
844.134	-54.44
844.31	107.35
844.486	-19.63
844.662	-44.2
844.838	4.95
845.013	41.81
845.189	84.82
845.365	86.87
845.541	-7.34
845.716	43.86
845.892	80.72
846.068	-31.91
846.244	-52.39
846.419	19.29
846.595	-74.92
846.77	-91.31
846.946	84.82
847.122	-46.25
847.297	-1.19
847.473	74.58
847.648	-122.02
847.824	-7.34
847.999	-126.12
848.175	11.09
848.35	66.39
848.526	99.16
848.701	60.24
848.876	146.26
849.052	109.4
849.227	-25.77
849.403	4.95
849.578	70.48
849.753	19.29
849.929	50
850.104	-138.41
850.279	70.48
850.454	13.14
850.63	11.09
850.805	17.24
850.98	43.86
851.155	-21.67
851.33	-9.39
851.505	-31.91
851.681	138.07
851.856	-117.93
852.031	54.1
852.206	35.67
852.381	-103.59
852.556	-29.87
852.731	29.52
852.906	88.92
853.081	56.15
853.256	107.35
853.431	-1.19
853.606	-9.39
853.781	52.05
853.956	-105.64
854.131	17.24
854.305	37.72
854.48	15.19
854.655	-95.4
854.83	-29.87
855.005	-1.19
855.18	-13.48
855.354	27.48
855.529	0.85
855.704	2.9
855.879	62.29
856.053	-40.11
856.228	-3.24
856.403	-99.5
856.577	15.19
856.752	4.95
856.926	-3.24
857.101	-27.82
857.276	-46.25
857.45	47.96
857.625	84.82
857.799	60.24
857.974	37.72
858.148	-115.88
858.323	19.29
858.497	-64.68
858.672	-23.72
858.846	-62.63
859.02	84.82
859.195	-21.67
859.369	54.1
859.543	-58.54
859.718	19.29
859.892	31.57
860.066	-13.48
860.241	-66.73
860.415	-64.68
860.589	-89.26
860.763	9.05
860.938	-3.24
861.112	68.44
861.286	4.95
861.46	7
861.634	-23.72
861.808	64.34
861.982	-23.72
862.157	-99.5
862.331	-36.01
862.505	-91.31
862.679	-76.97
862.853	21.33
863.027	9.05
863.201	144.21
863.375	-38.06
863.549	-25.77
863.722	88.92
863.896	0.85
864.07	-58.54
864.244	-7.34
864.418	15.19
864.592	-60.59
864.766	4.95
864.939	0.85
865.113	23.38
865.287	125.78
865.461	-17.58
865.634	41.81
865.808	-17.58
865.982	-13.48
866.156	-66.73
866.329	-33.96
866.503	-13.48
866.676	115.54
866.85	-3.24
867.024	-66.73
867.197	68.44
867.371	37.72
867.544	-1.19
867.718	-58.54
867.891	103.25
868.065	-109.74
868.238	33.62
868.412	123.73
868.585	9.05
868.759	-52.39
868.932	-103.59
869.105	-95.4
869.279	86.87
869.452	-89.26
869.625	70.48
869.799	33.62
869.972	-46.25
870.145	0.85
870.319	43.86
870.492	-9.39
870.665	-38.06
870.838	-89.26
871.011	-132.26
871.185	-7.34
871.358	33.62
871.531	35.67
871.704	-38.06
871.877	-23.72
872.05	-29.87
872.223	-60.59
872.396	127.83
872.569	25.43
872.742	-56.49
872.915	-13.48
873.088	-64.68
873.261	-50.35
873.434	105.3
873.607	37.72
873.78	138.07
873.953	-152.74
874.126	19.29
874.299	93.01
874.471	-3.24
874.644	-11.43
874.817	43.86
874.99	115.54
875.163	-74.92
875.335	27.48
875.508	-66.73
875.681	29.52
875.853	-89.26
876.026	2.9
876.199	52.05
876.371	23.38
876.544	-5.29
876.717	-9.39
876.889	-1.19
877.062	31.57
877.234	-97.45
877.407	-17.58
877.579	-54.44
877.752	-3.24
877.924	101.2
878.097	2.9
878.269	-21.67
878.442	41.81
878.614	21.33
878.786	25.43
878.959	-11.43
879.131	17.24
879.303	-103.59
879.476	31.57
879.648	76.63
879.82	-1.19
879.993	-62.63
880.165	105.3
880.337	-140.46
880.509	13.14
880.681	-70.83
880.854	-13.48
881.026	37.72
881.198	138.07
881.37	-83.11
881.542	-46.25
881.714	29.52
881.886	-33.96
882.058	2.9
882.23	35.67
882.402	-15.53
882.574	-15.53
882.746	19.29
882.918	127.83
883.09	121.68
883.262	31.57
883.434	37.72
883.606	-117.93
883.778	11.09
883.95	133.97
884.122	-85.16
884.293	72.53
884.465	37.72
884.637	72.53
884.809	-138.41
884.98	39.76
885.152	-5.29
885.324	125.78
885.496	-62.63
885.667	-46.25
885.839	-3.24
886.011	156.5
886.182	52.05
886.354	103.25
886.525	-27.82
886.697	41.81
886.869	-91.31
887.04	-54.44
887.212	115.54
887.383	123.73
887.555	7
887.726	-101.55
887.897	-36.01
888.069	-15.53
888.24	4.95
888.412	4.95
888.583	7
888.754	-21.67
888.926	-21.67
889.097	-70.83
889.268	-130.22
889.44	-15.53
889.611	-119.98
889.782	-107.69
889.953	31.57
890.125	78.68
890.296	-54.44
890.467	-48.3
890.638	-27.82
890.809	-42.15
890.98	-113.83
891.151	2.9
891.323	35.67
891.494	17.24
891.665	58.2
891.836	-17.58
892.007	82.77
892.178	13.14
892.349	7
892.52	-66.73
892.691	88.92
892.862	-60.59
893.032	-97.45
893.203	-31.91
893.374	11.09
893.545	97.11
893.716	-105.64
893.887	33.62
894.057	27.48
894.228	-3.24
894.399	-19.63
894.57	58.2
894.74	21.33
894.911	39.76
895.082	0.85
895.253	-101.55
895.423	-23.72
895.594	41.81
895.764	-17.58
895.935	-74.92
896.106	50
896.276	-17.58
896.447	60.24
896.617	-101.55
896.788	-70.83
896.958	-25.77
897.129	-44.2
897.299	-76.97
897.47	133.97
897.64	47.96
897.81	25.43
897.981	-11.43
898.151	-95.4
898.322	50
898.492	0.85
898.662	-85.16
898.832	-60.59
899.003	-44.2
899.173	33.62
899.343	7
899.513	-66.73
