Data from USB4F104151__92__11-31-41-760.txt Node

Date: Wed Feb 26 11:31:41 EST 2025
User: louis
Spectrometer: USB4F10415
Trigger mode: 4
Integration Time (sec): 1.000000E-1
Scans to average: 1
Electric dark correction enabled: true
Nonlinearity correction enabled: false
Boxcar width: 0
XAxis mode: Wavelengths
Number of Pixels in Spectrum: 3648
>>>>>Begin Spectral Data<<<<<
178.204	-358.74
178.424	-358.74
178.644	-358.74
178.864	-420.17
179.084	-395.6
179.304	-20.82
179.524	-88.4
179.744	-74.07
179.964	67.24
180.184	52.91
180.404	69.29
180.624	-55.64
180.844	28.33
181.064	-31.06
181.283	57
181.503	-24.92
181.723	20.14
181.943	-125.27
182.163	151.21
182.383	24.23
182.602	-0.34
182.822	134.82
183.042	130.73
183.262	-45.4
183.482	16.04
183.701	28.33
183.921	9.9
184.141	-2.39
184.361	73.39
184.58	112.3
184.8	75.43
185.02	-18.77
185.239	63.15
185.459	32.43
185.679	118.44
185.898	-149.84
186.118	61.1
186.338	13.99
186.557	159.4
186.777	-6.49
186.997	-22.87
187.216	5.8
187.436	124.58
187.655	132.78
187.875	147.11
188.095	-16.73
188.314	167.59
188.534	200.36
188.753	-94.55
188.973	102.06
189.192	179.88
189.412	-45.4
189.631	22.19
189.851	106.15
190.07	118.44
190.29	-82.26
190.509	7.85
190.729	54.95
190.948	163.5
191.168	235.18
191.387	159.4
191.607	-10.58
191.826	57
192.045	34.47
192.265	-6.49
192.484	202.41
192.704	48.81
192.923	-74.07
193.142	181.93
193.362	38.57
193.581	30.38
193.8	83.63
194.02	100.01
194.239	13.99
194.458	65.19
194.678	50.86
194.897	-10.58
195.116	26.28
195.335	48.81
195.555	28.33
195.774	40.62
195.993	75.43
196.212	42.67
196.432	18.09
196.651	-59.73
196.87	67.24
197.089	229.03
197.308	-12.63
197.528	95.91
197.747	-10.58
197.966	91.82
198.185	149.16
198.404	30.38
198.623	38.57
198.842	120.49
199.062	120.49
199.281	157.35
199.5	16.04
199.719	116.39
199.938	91.82
200.157	79.53
200.376	83.63
200.595	183.98
200.814	118.44
201.033	42.67
201.252	163.5
201.471	67.24
201.69	126.63
201.909	38.57
202.128	106.15
202.347	61.1
202.566	132.78
202.785	-22.87
203.004	7.85
203.223	298.66
203.442	3.75
203.661	-18.77
203.879	77.48
204.098	177.83
204.317	46.76
204.536	108.2
204.755	122.54
204.974	177.83
205.193	-26.96
205.411	118.44
205.63	171.69
205.849	28.33
206.068	52.91
206.287	-88.4
206.505	114.34
206.724	67.24
206.943	-67.92
207.162	-33.11
207.381	97.96
207.599	20.14
207.818	85.67
208.037	-8.53
208.255	34.47
208.474	93.87
208.693	-8.53
208.911	-33.11
209.13	91.82
209.349	130.73
209.567	161.45
209.786	16.04
210.005	85.67
210.223	114.34
210.442	-78.16
210.661	57
210.879	81.58
211.098	-26.96
211.316	112.3
211.535	46.76
211.753	26.28
211.972	3.75
212.191	36.52
212.409	22.19
212.628	83.63
212.846	-14.68
213.065	-16.73
213.283	112.3
213.502	3.75
213.72	83.63
213.938	-16.73
214.157	63.15
214.375	89.77
214.594	46.76
214.812	102.06
215.031	34.47
215.249	71.34
215.467	91.82
215.686	85.67
215.904	77.48
216.122	-31.06
216.341	124.58
216.559	32.43
216.778	106.15
216.996	100.01
217.214	57
217.432	-2.39
217.651	-61.78
217.869	61.1
218.087	38.57
218.306	-2.39
218.524	-0.34
218.742	36.52
218.96	61.1
219.179	-29.01
219.397	18.09
219.615	259.75
219.833	54.95
220.051	67.24
220.27	134.82
220.488	136.87
220.706	-0.34
220.924	-18.77
221.142	38.57
221.36	63.15
221.578	48.81
221.796	18.09
222.015	42.67
222.233	11.95
222.451	190.12
222.669	-22.87
222.887	73.39
223.105	-55.64
223.323	67.24
223.541	-53.59
223.759	61.1
223.977	26.28
224.195	163.5
224.413	126.63
224.631	100.01
224.849	75.43
225.067	208.55
225.285	-59.73
225.503	-41.3
225.721	-67.92
225.939	36.52
226.157	77.48
226.375	280.23
226.592	3.75
226.81	34.47
227.028	91.82
227.246	159.4
227.464	44.71
227.682	110.25
227.9	-18.77
228.117	75.43
228.335	114.34
228.553	61.1
228.771	34.47
228.989	38.57
229.206	81.58
229.424	-16.73
229.642	13.99
229.86	3.75
230.077	116.39
230.295	40.62
230.513	112.3
230.731	79.53
230.948	179.88
231.166	177.83
231.384	42.67
231.601	-37.2
231.819	163.5
232.037	-43.35
232.254	-24.92
232.472	-24.92
232.689	59.05
232.907	108.2
233.125	-20.82
233.342	11.95
233.56	5.8
233.777	-12.63
233.995	-14.68
234.213	97.96
234.43	118.44
234.648	-0.34
234.865	20.14
235.083	77.48
235.3	7.85
235.518	108.2
235.735	114.34
235.953	57
236.17	28.33
236.388	44.71
236.605	77.48
236.822	149.16
237.04	106.15
237.257	77.48
237.475	-55.64
237.692	-14.68
237.909	9.9
238.127	-6.49
238.344	153.26
238.562	73.39
238.779	42.67
238.996	65.19
239.214	18.09
239.431	79.53
239.648	18.09
239.865	132.78
240.083	61.1
240.3	1.71
240.517	36.52
240.735	-31.06
240.952	134.82
241.169	114.34
241.386	24.23
241.603	-33.11
241.821	-29.01
242.038	57
242.255	57
242.472	7.85
242.689	91.82
242.907	122.54
243.124	48.81
243.341	59.05
243.558	30.38
243.775	-41.3
243.992	22.19
244.209	-22.87
244.426	171.69
244.643	69.29
244.86	16.04
245.078	112.3
245.295	102.06
245.512	-0.34
245.729	32.43
245.946	83.63
246.163	16.04
246.38	1.71
246.597	120.49
246.814	-4.44
247.031	59.05
247.248	44.71
247.464	73.39
247.681	20.14
247.898	57
248.115	40.62
248.332	-53.59
248.549	132.78
248.766	165.54
248.983	100.01
249.2	136.87
249.417	179.88
249.633	9.9
249.85	67.24
250.067	11.95
250.284	18.09
250.501	50.86
250.717	75.43
250.934	-45.4
251.151	28.33
251.368	-6.49
251.585	89.77
251.801	24.23
252.018	-82.26
252.235	173.74
252.451	-18.77
252.668	67.24
252.885	140.97
253.102	69.29
253.318	-4.44
253.535	3.75
253.752	-33.11
253.968	-22.87
254.185	-104.79
254.401	11.95
254.618	42.67
254.835	7.85
255.051	163.5
255.268	83.63
255.484	50.86
255.701	48.81
255.917	69.29
256.134	11.95
256.351	132.78
256.567	-14.68
256.784	-65.88
257	34.47
257.217	65.19
257.433	79.53
257.65	59.05
257.866	122.54
258.082	3.75
258.299	-90.45
258.515	87.72
258.732	61.1
258.948	-51.54
259.165	57
259.381	-43.35
259.597	108.2
259.814	34.47
260.03	42.67
260.246	-24.92
260.463	122.54
260.679	91.82
260.895	13.99
261.112	83.63
261.328	69.29
261.544	16.04
261.761	155.3
261.977	65.19
262.193	-6.49
262.409	143.02
262.626	36.52
262.842	57
263.058	-18.77
263.274	116.39
263.49	9.9
263.707	136.87
263.923	61.1
264.139	-67.92
264.355	34.47
264.571	136.87
264.787	22.19
265.004	130.73
265.22	44.71
265.436	-26.96
265.652	108.2
265.868	52.91
266.084	-12.63
266.3	81.58
266.516	-45.4
266.732	38.57
266.948	69.29
267.164	18.09
267.38	100.01
267.596	44.71
267.812	171.69
268.028	-22.87
268.244	28.33
268.46	69.29
268.676	38.57
268.892	65.19
269.108	-22.87
269.324	32.43
269.54	13.99
269.756	124.58
269.972	-24.92
270.188	-14.68
270.403	-155.99
270.619	-57.68
270.835	65.19
271.051	40.62
271.267	-22.87
271.483	16.04
271.698	120.49
271.914	63.15
272.13	126.63
272.346	-2.39
272.562	5.8
272.777	190.12
272.993	-57.68
273.209	-10.58
273.425	54.95
273.64	-0.34
273.856	69.29
274.072	5.8
274.287	-22.87
274.503	75.43
274.719	91.82
274.934	-12.63
275.15	-35.16
275.366	22.19
275.581	5.8
275.797	83.63
276.012	100.01
276.228	-20.82
276.444	24.23
276.659	151.21
276.875	-4.44
277.09	18.09
277.306	-6.49
277.521	104.11
277.737	30.38
277.952	11.95
278.168	112.3
278.383	52.91
278.599	18.09
278.814	85.67
279.03	5.8
279.245	85.67
279.461	-2.39
279.676	145.06
279.892	-80.21
280.107	18.09
280.322	44.71
280.538	16.04
280.753	30.38
280.969	79.53
281.184	9.9
281.399	177.83
281.615	138.92
281.83	65.19
282.045	-39.25
282.26	52.91
282.476	116.39
282.691	118.44
282.906	136.87
283.122	46.76
283.337	-35.16
283.552	130.73
283.767	22.19
283.983	75.43
284.198	11.95
284.413	44.71
284.628	-37.2
284.843	83.63
285.058	85.67
285.274	28.33
285.489	-20.82
285.704	128.68
285.919	-43.35
286.134	52.91
286.349	69.29
286.564	-14.68
286.779	95.91
286.995	54.95
287.21	-14.68
287.425	91.82
287.64	-24.92
287.855	85.67
288.07	13.99
288.285	100.01
288.5	112.3
288.715	108.2
288.93	38.57
289.145	32.43
289.36	159.4
289.575	46.76
289.79	136.87
290.004	3.75
290.219	136.87
290.434	-10.58
290.649	1.71
290.864	-6.49
291.079	42.67
291.294	46.76
291.509	59.05
291.724	-14.68
291.938	11.95
292.153	108.2
292.368	63.15
292.583	46.76
292.798	104.11
293.012	120.49
293.227	30.38
293.442	-22.87
293.657	114.34
293.871	126.63
294.086	71.34
294.301	212.65
294.516	87.72
294.73	59.05
294.945	-63.83
295.16	-51.54
295.374	77.48
295.589	122.54
295.804	24.23
296.018	9.9
296.233	167.59
296.447	73.39
296.662	-55.64
296.877	192.17
297.091	118.44
297.306	40.62
297.52	85.67
297.735	65.19
297.949	57
298.164	65.19
298.378	136.87
298.593	-76.12
298.807	-0.34
299.022	22.19
299.236	165.54
299.451	34.47
299.665	-4.44
299.88	57
300.094	91.82
300.309	-12.63
300.523	87.72
300.737	28.33
300.952	108.2
301.166	81.58
301.381	-76.12
301.595	50.86
301.809	-6.49
302.024	24.23
302.238	20.14
302.452	149.16
302.667	71.34
302.881	110.25
303.095	83.63
303.309	50.86
303.524	46.76
303.738	13.99
303.952	52.91
304.166	3.75
304.381	-96.6
304.595	153.26
304.809	26.28
305.023	32.43
305.237	16.04
305.452	73.39
305.666	118.44
305.88	67.24
306.094	122.54
306.308	100.01
306.522	75.43
306.736	104.11
306.95	173.74
307.164	18.09
307.379	-20.82
307.593	196.26
307.807	118.44
308.021	108.2
308.235	40.62
308.449	-22.87
308.663	32.43
308.877	272.04
309.091	91.82
309.305	75.43
309.519	-18.77
309.733	118.44
309.947	-8.53
310.161	67.24
310.374	44.71
310.588	222.89
310.802	32.43
311.016	-8.53
311.23	138.92
311.444	-8.53
311.658	89.77
311.872	124.58
312.085	95.91
312.299	124.58
312.513	157.35
312.727	63.15
312.941	-33.11
313.154	48.81
313.368	24.23
313.582	40.62
313.796	24.23
314.009	71.34
314.223	104.11
314.437	104.11
314.651	57
314.864	-31.06
315.078	42.67
315.292	-43.35
315.505	-10.58
315.719	171.69
315.933	132.78
316.146	7.85
316.36	-76.12
316.573	38.57
316.787	175.78
317.001	91.82
317.214	-37.2
317.428	120.49
317.641	-10.58
317.855	-51.54
318.068	28.33
318.282	79.53
318.495	163.5
318.709	73.39
318.922	42.67
319.136	108.2
319.349	100.01
319.563	7.85
319.776	69.29
319.99	-22.87
320.203	28.33
320.417	36.52
320.63	153.26
320.843	181.93
321.057	5.8
321.27	30.38
321.483	89.77
321.697	81.58
321.91	54.95
322.124	85.67
322.337	93.87
322.55	-41.3
322.763	52.91
322.977	-33.11
323.19	83.63
323.403	30.38
323.617	75.43
323.83	126.63
324.043	89.77
324.256	48.81
324.469	-8.53
324.683	183.98
324.896	59.05
325.109	118.44
325.322	-29.01
325.535	159.4
325.748	100.01
325.962	16.04
326.175	97.96
326.388	48.81
326.601	177.83
326.814	9.9
327.027	38.57
327.24	161.45
327.453	-72.02
327.666	126.63
327.879	147.11
328.092	102.06
328.305	44.71
328.518	13.99
328.731	85.67
328.944	40.62
329.157	102.06
329.37	54.95
329.583	204.46
329.796	147.11
330.009	46.76
330.222	108.2
330.435	120.49
330.648	83.63
330.861	52.91
331.073	67.24
331.286	71.34
331.499	114.34
331.712	-20.82
331.925	24.23
332.138	67.24
332.35	65.19
332.563	-59.73
332.776	91.82
332.989	26.28
333.202	13.99
333.414	11.95
333.627	16.04
333.84	52.91
334.053	22.19
334.265	102.06
334.478	9.9
334.691	42.67
334.903	145.06
335.116	73.39
335.329	118.44
335.541	75.43
335.754	87.72
335.966	-57.68
336.179	69.29
336.392	-37.2
336.604	-22.87
336.817	136.87
337.029	71.34
337.242	36.52
337.454	93.87
337.667	38.57
337.88	171.69
338.092	69.29
338.305	71.34
338.517	-0.34
338.729	112.3
338.942	177.83
339.154	-43.35
339.367	-63.83
339.579	118.44
339.792	44.71
340.004	188.07
340.217	40.62
340.429	30.38
340.641	-10.58
340.854	-57.68
341.066	59.05
341.278	190.12
341.491	163.5
341.703	42.67
341.915	-8.53
342.128	11.95
342.34	-29.01
342.552	16.04
342.764	-2.39
342.977	28.33
343.189	83.63
343.401	-16.73
343.613	-10.58
343.826	71.34
344.038	-82.26
344.25	30.38
344.462	22.19
344.674	145.06
344.886	112.3
345.099	34.47
345.311	79.53
345.523	79.53
345.735	-96.6
345.947	122.54
346.159	32.43
346.371	67.24
346.583	34.47
346.795	194.22
347.007	42.67
347.219	89.77
347.431	-45.4
347.643	87.72
347.855	1.71
348.067	177.83
348.279	-57.68
348.491	5.8
348.703	71.34
348.915	11.95
349.127	-53.59
349.339	112.3
349.551	24.23
349.763	81.58
349.975	52.91
350.187	30.38
350.399	128.68
350.61	61.1
350.822	1.71
351.034	42.67
351.246	11.95
351.458	136.87
351.669	57
351.881	67.24
352.093	204.46
352.305	138.92
352.517	11.95
352.728	179.88
352.94	61.1
353.152	75.43
353.363	-76.12
353.575	-6.49
353.787	73.39
353.999	93.87
354.21	210.6
354.422	-8.53
354.633	46.76
354.845	100.01
355.057	61.1
355.268	24.23
355.48	118.44
355.692	-86.36
355.903	32.43
356.115	-94.55
356.326	-82.26
356.538	165.54
356.749	155.3
356.961	71.34
357.172	-51.54
357.384	-37.2
357.595	263.85
357.807	-29.01
358.018	24.23
358.23	5.8
358.441	183.98
358.653	118.44
358.864	44.71
359.075	-16.73
359.287	54.95
359.498	112.3
359.709	149.16
359.921	28.33
360.132	91.82
360.344	1.71
360.555	42.67
360.766	59.05
360.977	87.72
361.189	167.59
361.4	71.34
361.611	108.2
361.823	169.64
362.034	106.15
362.245	-74.07
362.456	30.38
362.667	73.39
362.879	-82.26
363.09	52.91
363.301	81.58
363.512	-4.44
363.723	-86.36
363.935	20.14
364.146	114.34
364.357	18.09
364.568	-10.58
364.779	-72.02
364.99	212.65
365.201	-29.01
365.412	79.53
365.623	-59.73
365.834	91.82
366.045	54.95
366.256	100.01
366.467	81.58
366.678	18.09
366.889	30.38
367.1	52.91
367.311	102.06
367.522	-24.92
367.733	83.63
367.944	110.25
368.155	9.9
368.366	112.3
368.577	108.2
368.788	190.12
368.999	61.1
369.209	26.28
369.42	188.07
369.631	159.4
369.842	85.67
370.053	89.77
370.264	106.15
370.474	34.47
370.685	63.15
370.896	28.33
371.107	147.11
371.317	57
371.528	18.09
371.739	157.35
371.95	114.34
372.16	65.19
372.371	-49.49
372.582	40.62
372.792	75.43
373.003	63.15
373.214	11.95
373.424	91.82
373.635	-22.87
373.846	163.5
374.056	79.53
374.267	95.91
374.477	-33.11
374.688	50.86
374.898	30.38
375.109	28.33
375.319	26.28
375.53	77.48
375.74	85.67
375.951	104.11
376.161	32.43
376.372	52.91
376.582	40.62
376.793	67.24
377.003	59.05
377.214	22.19
377.424	93.87
377.635	130.73
377.845	59.05
378.055	97.96
378.266	-35.16
378.476	44.71
378.686	65.19
378.897	118.44
379.107	138.92
379.317	83.63
379.528	7.85
379.738	73.39
379.948	-76.12
380.158	65.19
380.369	26.28
380.579	136.87
380.789	54.95
380.999	112.3
381.21	75.43
381.42	216.74
381.63	20.14
381.84	147.11
382.05	85.67
382.261	151.21
382.471	102.06
382.681	30.38
382.891	157.35
383.101	130.73
383.311	-41.3
383.521	-6.49
383.731	118.44
383.941	179.88
384.151	46.76
384.361	67.24
384.571	36.52
384.781	140.97
384.991	267.94
385.201	134.82
385.411	136.87
385.621	140.97
385.831	83.63
386.041	100.01
386.251	48.81
386.461	97.96
386.671	-69.97
386.881	79.53
387.091	-29.01
387.301	83.63
387.511	44.71
387.72	95.91
387.93	77.48
388.14	-33.11
388.35	102.06
388.56	93.87
388.769	153.26
388.979	48.81
389.189	-108.88
389.399	40.62
389.609	44.71
389.818	71.34
390.028	81.58
390.238	16.04
390.447	-18.77
390.657	75.43
390.867	-35.16
391.076	22.19
391.286	75.43
391.496	-16.73
391.705	38.57
391.915	116.39
392.125	112.3
392.334	108.2
392.544	132.78
392.753	44.71
392.963	-8.53
393.172	89.77
393.382	22.19
393.591	173.74
393.801	7.85
394.01	196.26
394.22	175.78
394.429	30.38
394.639	-24.92
394.848	89.77
395.058	28.33
395.267	42.67
395.477	81.58
395.686	83.63
395.895	177.83
396.105	239.27
396.314	89.77
396.524	79.53
396.733	46.76
396.942	124.58
397.152	138.92
397.361	104.11
397.57	130.73
397.78	-6.49
397.989	13.99
398.198	177.83
398.407	54.95
398.617	-0.34
398.826	54.95
399.035	28.33
399.244	140.97
399.453	143.02
399.663	46.76
399.872	83.63
400.081	-0.34
400.29	190.12
400.499	38.57
400.708	153.26
400.917	-22.87
401.127	22.19
401.336	57
401.545	229.03
401.754	136.87
401.963	69.29
402.172	-8.53
402.381	44.71
402.59	9.9
402.799	91.82
403.008	85.67
403.217	-8.53
403.426	48.81
403.635	-67.92
403.844	5.8
404.053	7.85
404.262	42.67
404.471	161.45
404.68	24.23
404.888	81.58
405.097	38.57
405.306	128.68
405.515	32.43
405.724	65.19
405.933	20.14
406.142	108.2
406.35	104.11
406.559	65.19
406.768	85.67
406.977	181.93
407.185	134.82
407.394	163.5
407.603	-49.49
407.812	124.58
408.02	161.45
408.229	85.67
408.438	65.19
408.646	-69.97
408.855	44.71
409.064	59.05
409.272	-2.39
409.481	89.77
409.69	1.71
409.898	-37.2
410.107	100.01
410.315	198.31
410.524	13.99
410.733	30.38
410.941	65.19
411.15	151.21
411.358	153.26
411.567	157.35
411.775	69.29
411.984	40.62
412.192	67.24
412.401	7.85
412.609	200.36
412.818	153.26
413.026	100.01
413.234	-8.53
413.443	13.99
413.651	-16.73
413.86	120.49
414.068	124.58
414.276	222.89
414.485	48.81
414.693	118.44
414.901	218.79
415.11	95.91
415.318	42.67
415.526	40.62
415.734	116.39
415.943	91.82
416.151	196.26
416.359	100.01
416.567	173.74
416.776	155.3
416.984	155.3
417.192	202.41
417.4	128.68
417.608	-2.39
417.817	89.77
418.025	122.54
418.233	173.74
418.441	-29.01
418.649	-0.34
418.857	57
419.065	186.02
419.273	36.52
419.481	40.62
419.689	149.16
419.897	59.05
420.105	-22.87
420.313	128.68
420.521	179.88
420.729	208.55
420.937	-0.34
421.145	-20.82
421.353	118.44
421.561	136.87
421.769	93.87
421.977	16.04
422.185	93.87
422.393	147.11
422.601	243.37
422.809	167.59
423.017	-53.59
423.224	112.3
423.432	83.63
423.64	89.77
423.848	212.65
424.056	40.62
424.263	132.78
424.471	57
424.679	134.82
424.887	26.28
425.094	208.55
425.302	147.11
425.51	42.67
425.718	165.54
425.925	100.01
426.133	-65.88
426.341	220.84
426.548	95.91
426.756	57
426.964	38.57
427.171	69.29
427.379	93.87
427.586	138.92
427.794	116.39
428.001	173.74
428.209	67.24
428.417	198.31
428.624	173.74
428.832	69.29
429.039	102.06
429.247	167.59
429.454	157.35
429.662	231.08
429.869	118.44
430.076	102.06
430.284	183.98
430.491	171.69
430.699	91.82
430.906	210.6
431.114	153.26
431.321	200.36
431.528	136.87
431.736	132.78
431.943	186.02
432.15	263.85
432.358	329.38
432.565	306.85
432.772	11.95
432.979	196.26
433.187	143.02
433.394	308.9
433.601	153.26
433.808	265.89
434.016	276.13
434.223	288.42
434.43	226.98
434.637	233.13
434.844	292.52
435.052	276.13
435.259	396.96
435.466	337.57
435.673	280.23
435.88	376.48
436.087	315.05
436.294	267.94
436.501	323.24
436.708	286.37
436.915	462.5
437.122	376.48
437.329	300.71
437.537	358.05
437.743	315.05
437.95	460.45
438.157	489.12
438.364	448.16
438.571	405.16
438.778	386.72
438.985	474.79
439.192	620.19
439.399	560.8
439.606	538.27
439.813	589.47
440.02	734.88
440.227	655.01
440.433	636.58
440.64	540.32
440.847	472.74
441.054	700.06
441.261	822.94
441.467	743.07
441.674	706.21
441.881	861.85
442.088	681.63
442.294	824.99
442.501	884.38
442.708	960.16
442.914	810.65
443.121	947.87
443.328	1056.41
443.534	1003.16
443.741	1068.7
443.948	913.05
444.154	1183.38
444.361	1197.72
444.568	1091.23
444.774	1177.24
444.981	1138.33
445.187	1339.03
445.394	1369.75
445.6	1396.37
445.807	1621.65
446.013	1541.78
446.22	1404.57
446.426	1615.51
446.633	1779.34
446.839	1914.51
447.046	1693.33
447.252	1887.89
447.459	1828.49
447.665	1906.32
447.871	2074.25
448.078	2209.42
448.284	2139.79
448.491	2320.01
448.697	2465.41
448.903	2459.27
449.11	2483.84
449.316	2576
449.522	2809.47
449.728	2756.22
449.935	2979.45
450.141	2995.84
450.347	3184.25
450.553	3094.14
450.76	3186.3
450.966	3434.1
451.172	3360.38
451.378	3565.17
451.584	3663.47
451.791	3898.99
451.997	4060.78
452.203	4075.12
452.409	4163.18
452.615	4470.37
452.821	4404.84
453.027	4515.43
453.233	5125.72
453.44	4873.82
453.646	5170.78
453.852	5234.27
454.058	5570.13
454.264	5799.51
454.47	6067.79
454.676	6129.23
454.882	6671.94
455.088	6383.18
455.294	6903.36
455.5	7102.01
455.705	7609.91
455.911	7513.66
456.117	7865.91
456.323	8150.57
456.529	8011.31
456.735	8744.49
456.941	9076.26
457.147	9330.2
457.352	9446.94
457.558	9934.36
457.764	10497.55
457.97	10866.18
458.176	11140.61
458.381	11664.89
458.587	12207.6
458.793	12799.46
458.999	12467.69
459.204	14104.02
459.41	14564.81
459.616	14540.24
459.821	15238.59
460.027	15809.98
460.233	16551.34
460.438	16559.53
460.644	17681.82
460.85	17757.6
461.055	18392.47
461.261	19283.33
461.466	19078.54
461.672	19443.07
461.878	21566.82
462.083	21288.29
462.289	21878.11
462.494	22687.06
462.7	22781.26
462.905	23315.78
463.111	25138.48
463.316	26541.33
463.522	26553.62
463.727	27688.2
463.932	28869.87
464.138	29367.53
464.343	30942.42
464.549	31136.98
464.754	33197.23
464.959	34239.65
465.165	34860.18
465.37	34315.42
465.575	34716.82
465.781	36652.16
465.986	37682.28
466.191	37289.07
466.397	37842.03
466.602	36611.2
466.807	38890.59
467.012	39216.21
467.218	39930.95
467.423	40283.2
467.628	40987.71
467.833	43475.99
468.038	42490.91
468.244	41724.97
468.449	43949.07
468.654	43213.85
468.859	42851.36
469.064	43148.31
469.269	42101.8
469.474	42347.56
469.679	43820.05
469.885	42228.77
470.09	42955.8
470.295	42808.35
470.5	41907.24
470.705	42667.04
470.91	41163.83
471.115	40598.59
471.32	41315.38
471.525	40971.32
471.73	40336.45
471.935	39756.88
472.139	37971.05
472.344	38736.99
472.549	37753.96
472.754	37184.63
472.959	36736.12
473.164	35671.18
473.369	34772.12
473.574	36086.92
473.778	35357.84
473.983	34280.61
474.188	33991.84
474.393	32429.24
474.598	31898.82
474.802	31483.08
475.007	31065.3
475.212	30735.57
475.417	29719.78
475.621	29369.58
475.826	28777.72
476.031	28114.17
476.235	27653.38
476.44	27946.24
476.645	27000.08
476.849	26785.04
477.054	26565.91
477.259	25425.19
477.463	25742.63
477.668	25017.64
477.872	25130.28
478.077	24358.2
478.282	23424.33
478.486	23465.28
478.691	22854.99
478.895	23375.17
479.1	22631.76
479.304	23051.59
479.509	22039.9
479.713	22207.83
479.918	21656.93
480.122	21341.54
480.326	21437.8
480.531	21335.4
480.735	20970.86
480.94	20796.78
481.144	21556.58
481.348	20276.6
481.553	20516.21
481.757	19680.64
481.961	20213.11
482.166	20069.75
482.37	20067.7
482.574	19006.86
482.778	19416.45
482.983	19883.39
483.187	19295.62
483.391	19295.62
483.595	18814.35
483.8	18378.13
484.004	18388.37
484.208	18546.06
484.412	18202
484.616	18167.19
484.821	18245.01
485.025	17511.84
485.229	17538.46
485.433	17182.12
485.637	17321.38
485.841	16860.59
486.045	16543.15
486.249	16584.11
486.453	16352.69
486.657	16029.11
486.861	15732.15
487.065	15171.01
487.269	15269.31
487.473	14693.83
487.677	15166.92
487.881	14710.22
488.085	14300.62
488.289	14171.6
488.493	13585.88
488.697	13903.32
488.901	13520.35
489.105	13139.43
489.309	12975.59
489.512	12846.57
489.716	12328.43
489.92	12117.49
490.124	12004.85
490.328	11726.33
490.531	11410.94
490.735	11525.63
490.939	11228.67
491.143	11017.73
491.346	10935.81
491.55	10784.26
491.754	10495.5
491.958	10366.48
492.161	10133.01
492.365	10051.09
492.569	9897.49
492.772	9715.22
492.976	9502.23
493.18	9279.01
493.383	9311.77
493.587	9190.94
493.79	9192.99
493.994	8990.24
494.197	8953.38
494.401	8777.25
494.605	8681
494.808	8590.89
495.012	8703.53
495.215	8459.82
495.419	8500.78
495.622	8322.6
495.825	8232.49
496.029	8158.77
496.232	8185.39
496.436	8183.34
496.639	8353.32
496.843	8234.54
497.046	8230.45
497.249	8330.8
497.453	8195.63
497.656	7974.45
497.859	8074.8
498.063	8187.44
498.266	8072.75
498.469	7804.47
498.673	8136.24
498.876	8046.13
499.079	8285.74
499.282	7960.11
499.485	8625.7
499.689	8406.57
499.892	8455.72
500.095	8541.74
500.298	8547.88
500.501	8306.22
500.705	8572.46
500.908	8750.63
501.111	8717.86
501.314	8936.99
501.517	9072.16
501.72	9043.49
501.923	8879.65
502.126	8961.57
502.329	9225.76
502.532	9379.36
502.735	9213.47
502.938	9569.82
503.141	9440.79
503.344	9541.15
503.547	9682.45
503.75	9977.36
503.953	9834
504.156	10343.95
504.359	10145.3
504.562	10264.08
504.765	10485.26
504.968	10733.06
505.17	10915.33
505.373	11107.84
505.576	11159.04
505.779	11279.87
505.982	11251.2
506.185	11828.73
506.387	11841.01
506.59	12228.08
506.793	12369.39
506.996	12510.7
507.198	13006.31
507.401	12934.63
507.604	13100.51
507.807	13632.99
508.009	13931.99
508.212	13950.42
508.415	14151.12
508.617	14677.45
508.82	14790.09
509.022	14882.25
509.225	15404.48
509.428	15699.39
509.63	15871.42
509.833	16111.03
510.035	16905.64
510.238	16887.21
510.44	17235.36
510.643	17833.37
510.845	17831.32
511.048	18273.68
511.25	18664.85
511.453	18961.8
511.655	20252.02
511.858	20215.16
512.06	20886.89
512.262	21013.87
512.465	21384.55
512.667	21867.87
512.87	22541.65
513.072	22846.8
513.274	23645.51
513.477	23907.65
513.679	24489.27
513.881	25244.97
514.084	25681.19
514.286	26117.4
514.488	26418.46
514.69	27727.11
514.893	27888.9
515.095	28427.51
515.297	28804.34
515.499	29582.57
515.701	30397.66
515.904	31206.61
516.106	31474.89
516.308	32187.58
516.51	32769.21
516.712	32974
516.914	34317.47
517.116	35032.21
517.318	35509.39
517.52	35939.46
517.722	36516.99
517.925	37319.79
518.127	38233.19
518.329	38798.43
518.531	38761.56
518.733	39816.27
518.935	40797.24
519.136	41198.65
519.338	41813.04
519.54	42482.72
519.742	43164.7
519.944	43602.96
520.146	44647.43
520.348	45331.45
520.55	45358.07
520.752	45992.94
520.954	47084.51
521.155	46783.46
521.357	47868.88
521.559	48305.1
521.761	49025.98
521.963	49122.24
522.164	49656.76
522.366	50062.25
522.568	51059.62
522.77	51076
522.971	51870.61
523.173	51268.51
523.375	52128.66
523.576	52501.39
523.778	52423.56
523.98	53044.1
524.181	53347.2
524.383	52994.95
524.584	54205.3
524.786	54008.69
524.988	53648.25
525.189	54287.21
525.391	54154.1
525.592	53932.92
525.794	54227.82
525.995	54393.71
526.197	54115.18
526.398	54250.35
526.6	54127.47
526.801	54152.05
527.003	54045.55
527.204	54350.7
527.406	54291.31
527.607	53478.27
527.808	53181.31
528.01	52476.81
528.211	52935.55
528.412	52806.53
528.614	52675.46
528.815	52255.63
529.016	51997.59
529.218	51153.82
529.419	50994.08
529.62	50467.75
529.822	49980.34
530.023	49683.38
530.224	49353.66
530.425	48913.34
530.626	47643.6
530.828	47760.34
531.029	47780.82
531.23	47244.25
531.431	46380.01
531.632	46429.16
531.833	45812.72
532.035	45032.44
532.236	44710.91
532.437	44481.54
532.638	43236.37
532.839	43236.37
533.04	42441.76
533.241	41432.11
533.442	42236.97
533.643	40801.34
533.844	40502.34
534.045	40186.95
534.246	39302.23
534.447	39064.66
534.648	38587.49
534.849	38116.45
535.05	37108.85
535.251	36848.76
535.451	36545.66
535.652	35984.52
535.853	35536.01
536.054	35150.99
536.255	34690.2
536.456	33780.9
536.657	33688.74
536.857	33172.66
537.058	32619.7
537.259	32931
537.46	32238.78
537.66	31696.07
537.861	31337.68
538.062	30858.45
538.263	30067.94
538.463	29701.35
538.664	29445.35
538.865	28980.46
539.065	29461.74
539.266	28468.47
539.466	28585.21
539.667	27788.55
539.868	27774.21
540.068	27409.67
540.269	26793.23
540.469	26463.51
540.67	26676.5
540.87	26148.12
541.071	25748.77
541.271	25654.56
541.472	25193.77
541.672	24796.46
541.873	24421.69
542.073	24048.96
542.274	24008
542.474	23717.18
542.675	23582.02
542.875	23389.51
543.075	22883.66
543.276	22455.64
543.476	22635.86
543.676	22338.9
543.877	21906.78
544.077	21790.05
544.277	21679.46
544.478	21417.32
544.678	21144.94
544.878	20815.21
545.078	20616.56
545.279	20405.62
545.479	20286.84
545.679	19832.19
545.879	19654.01
546.079	19529.09
546.28	19170.69
546.48	18849.16
546.68	19080.58
546.88	18328.98
547.08	18363.79
547.28	18136.47
547.48	17702.3
547.68	17943.96
547.88	17161.64
548.081	17272.23
548.281	16911.78
548.481	16643.5
548.681	16721.32
548.881	16475.57
549.081	16313.78
549.28	15959.48
549.48	15625.66
549.68	15668.67
549.88	15754.68
550.08	15209.92
550.28	15168.96
550.48	14681.55
550.68	14661.07
550.88	14319.06
551.08	14114.26
551.279	14245.33
551.479	13790.68
551.679	13690.33
551.879	13444.57
552.079	13360.61
552.278	13037.03
552.478	12885.48
552.678	12656.11
552.878	12606.95
553.077	12170.74
553.277	11892.21
553.477	12307.95
553.676	11546.11
553.876	11580.92
554.076	11214.34
554.275	11255.29
554.475	10927.62
554.674	11030.02
554.874	10614.28
555.074	10341.9
555.273	10495.5
555.473	10255.89
555.672	10001.94
555.872	9815.57
556.071	9993.75
556.271	9801.24
556.47	9313.82
556.67	9252.38
556.869	9037.34
557.068	9063.97
557.268	8717.86
557.467	8480.3
557.667	8502.82
557.866	8431.15
558.065	8238.64
558.265	8117.81
558.464	7972.4
558.663	7931.44
558.863	7759.41
559.062	7540.28
559.261	7376.44
559.461	7499.32
559.66	7190.08
559.859	7016
560.058	7130.69
560.258	6747.72
560.457	6712.9
560.656	6850.11
560.855	6368.84
561.054	6438.47
561.253	6426.18
561.453	6368.84
561.652	6243.92
561.851	6123.09
562.05	5994.06
562.249	5897.81
562.448	5914.19
562.647	5520.98
562.846	5525.08
563.045	5520.98
563.244	5486.17
563.443	5473.88
563.642	5283.42
563.841	5293.66
564.04	5256.79
564.239	5105.24
564.438	4943.46
564.637	4836.96
564.836	4873.82
565.035	4662.88
565.234	4693.6
565.432	4742.75
565.631	4580.96
565.83	4740.71
566.029	4521.57
566.228	4388.46
566.427	4302.44
566.625	4150.89
566.824	4212.33
567.023	4071.02
567.222	3935.85
567.42	4122.22
567.619	3898.99
567.818	3948.14
568.016	4071.02
568.215	3761.78
568.414	3806.83
568.612	3618.42
568.811	3632.76
569.01	3585.65
569.208	3477.11
569.407	3593.84
569.605	3403.38
569.804	3348.09
570.002	3268.22
570.201	3186.3
570.4	3411.57
570.598	3290.74
570.797	3196.54
570.995	3028.6
571.193	3061.37
571.392	3059.32
571.59	2832
571.789	3004.03
571.987	2889.34
572.186	2899.58
572.384	2653.83
572.582	2899.58
572.781	2788.99
572.979	2637.44
573.177	2655.87
573.376	2573.96
573.574	2672.26
573.772	2563.72
573.971	2524.8
574.169	2363.01
574.367	2436.74
574.565	2412.17
574.763	2293.38
574.962	2295.43
575.16	2213.51
575.358	2133.64
575.556	2205.32
575.754	2068.11
575.952	2016.91
576.151	2061.96
576.349	2057.87
576.547	1869.45
576.745	2059.92
576.943	2074.25
577.141	1939.09
577.339	1846.93
577.537	1889.93
577.735	1924.75
577.933	1894.03
578.131	1762.96
578.329	1828.49
578.527	1722
578.725	1717.9
578.923	1547.92
579.121	1758.86
579.319	1511.06
579.516	1601.17
579.714	1814.16
579.912	1488.53
580.11	1451.67
580.308	1537.68
580.506	1443.48
580.704	1351.32
580.901	1281.69
581.099	1554.07
581.297	1404.57
581.495	1400.47
581.692	1400.47
581.89	1457.81
582.088	1296.02
582.285	1310.36
582.483	1171.1
582.681	1259.16
582.878	1269.4
583.076	1263.26
583.274	1203.86
583.471	1287.83
583.669	1222.3
583.866	1042.07
584.064	1095.32
584.262	1017.5
584.459	1076.89
584.657	1064.6
584.854	1167
585.052	1066.65
585.249	1195.67
585.447	1085.08
585.644	890.53
585.841	1089.18
586.039	1050.27
586.236	1068.7
586.434	992.92
586.631	970.4
586.828	888.48
587.026	913.05
587.223	771.74
587.42	837.28
587.618	861.85
587.815	1025.69
588.012	859.81
588.21	833.18
588.407	954.01
588.604	876.19
588.801	781.98
588.999	937.63
589.196	853.66
589.393	812.7
589.59	878.24
589.787	816.8
589.984	816.8
590.182	786.08
590.379	765.6
590.576	802.46
590.773	749.22
590.97	769.69
591.167	808.61
591.364	755.36
591.561	763.55
591.758	827.04
591.955	898.72
592.152	786.08
592.349	779.93
592.546	677.54
592.743	640.67
592.94	753.31
593.137	777.89
593.334	851.61
593.531	800.41
593.727	788.13
593.924	710.3
594.121	806.56
594.318	796.32
594.515	808.61
594.712	992.92
594.908	966.3
595.105	773.79
595.302	874.14
595.499	857.76
595.696	958.11
595.892	767.65
596.089	956.06
596.286	859.81
596.482	1072.79
596.679	997.02
596.876	1019.55
597.072	999.07
597.269	999.07
597.466	1021.6
597.662	1009.31
597.859	1003.16
598.055	1101.47
598.252	1150.62
598.448	1304.21
598.645	1248.92
598.841	1267.35
599.038	1382.04
599.234	1490.58
599.431	1470.1
599.627	1595.03
599.824	1562.26
600.02	1609.36
600.217	1607.31
600.413	1738.38
600.609	1742.48
600.806	2045.58
601.002	1902.22
601.198	1988.24
601.395	2086.54
601.591	2195.08
601.787	2193.03
601.984	2303.62
602.18	2360.97
602.376	2453.13
602.572	2653.83
602.769	2717.31
602.965	2705.03
603.161	2885.25
603.357	3069.56
603.553	3053.18
603.75	3090.04
603.946	3317.37
604.142	3343.99
604.338	3450.49
604.534	3643
604.73	3710.58
604.926	3831.41
605.122	3997.29
605.318	4091.5
605.514	4126.32
605.71	4390.5
605.906	4480.61
606.102	4585.06
606.298	4755.04
606.494	4888.16
606.69	5154.4
606.886	5127.77
607.082	5117.53
607.278	5346.91
607.474	5563.99
607.67	5811.79
607.866	5744.21
608.062	6157.9
608.257	6336.07
608.453	6547.01
608.649	6573.64
608.845	6755.91
609.041	6864.45
609.236	7044.67
609.432	7321.15
609.628	7710.26
609.824	7792.18
610.019	7806.52
610.215	8216.11
610.411	8412.71
610.606	8445.48
610.802	8705.57
610.998	8941.09
611.193	9250.33
611.389	9328.16
611.584	9848.34
611.78	9909.78
611.976	10389
612.171	10565.13
612.367	10802.69
612.562	11079.17
612.758	11021.83
612.953	11535.87
613.149	11951.6
613.344	12393.97
613.539	12733.93
613.735	12879.33
613.93	13426.14
614.126	13471.2
614.321	13622.75
614.517	14392.78
614.712	14603.72
614.907	14949.83
615.103	15439.3
615.298	15746.49
615.493	16160.18
615.688	16106.93
615.884	17239.46
616.079	17259.94
616.274	18048.41
616.47	18240.92
616.665	18554.26
616.86	18990.47
617.055	19506.56
617.25	19891.58
617.445	20678
617.641	20966.76
617.836	21718.37
618.031	21861.73
618.226	22793.55
618.421	23008.59
618.616	23780.67
618.811	24143.16
619.006	25083.18
619.201	25111.85
619.396	26002.72
619.591	25947.42
619.786	26737.94
619.981	27137.29
620.176	28142.85
620.371	28407.03
620.566	29029.62
620.761	29807.84
620.956	30831.83
621.151	30731.48
621.346	31982.79
621.541	31909.06
621.735	32965.81
621.93	33033.39
622.125	34184.35
622.32	34012.32
622.515	35331.22
622.709	35755.15
622.904	36383.87
623.099	36971.64
623.294	37973.1
623.488	37784.68
623.683	39232.6
623.878	39271.51
624.072	40367.17
624.267	40989.75
624.462	41313.33
624.656	41495.6
624.851	42773.53
625.046	43013.15
625.24	43934.73
625.435	44035.08
625.629	44973.05
625.824	45349.88
626.018	45878.25
626.213	45726.7
626.407	47107.04
626.602	47406.04
626.796	47911.89
626.991	48319.43
627.185	48686.02
627.38	48864.19
627.574	49406.9
627.768	49486.78
627.963	49245.12
628.157	49183.68
628.352	50273.2
628.546	49632.18
628.74	50049.97
628.935	49245.12
629.129	50238.38
629.323	49152.96
629.517	49019.84
629.712	49095.61
629.906	48733.12
630.1	47907.79
630.294	47891.41
630.489	46783.46
630.683	46965.73
630.877	45329.4
631.071	44805.12
631.265	44293.13
631.459	43344.92
631.653	42558.5
631.848	41684.01
632.042	40242.24
632.236	40070.22
632.43	38591.58
632.624	37532.78
632.818	36412.54
633.012	35249.3
633.206	34325.66
633.4	33303.73
633.594	32074.95
633.788	31145.17
633.982	30112.99
634.176	28925.17
634.369	27845.89
634.563	26721.55
634.757	25711.91
634.951	24620.34
635.145	23964.99
635.339	22775.12
635.533	21753.18
635.726	21292.39
635.92	20252.02
636.114	19058.06
636.308	18648.46
636.501	17917.34
636.695	17143.21
636.889	16213.43
637.083	15848.89
637.276	15031.75
637.47	14450.13
637.664	13868.5
637.857	13442.53
638.051	12912.1
638.244	12291.57
638.438	11822.58
638.632	11470.33
638.825	11050.5
639.019	10722.82
639.212	9971.22
639.406	9727.51
639.599	9258.53
639.793	8928.8
639.986	8564.26
640.18	8336.94
640.373	7863.86
640.567	7595.57
640.76	7368.25
640.954	7231.04
641.147	6657.61
641.34	6411.85
641.534	6327.88
641.727	6237.77
641.92	5805.65
642.114	5572.18
642.307	5361.24
642.5	5273.18
642.694	4898.4
642.887	4759.14
643.08	4806.24
643.273	4591.2
643.467	4191.85
643.66	4071.02
643.853	3925.61
644.046	3821.17
644.239	3610.23
644.432	3440.25
644.626	3325.56
644.819	3106.43
645.012	3235.45
645.205	3128.95
645.398	3020.41
645.591	2834.05
645.784	2623.11
645.977	2494.08
646.17	2455.17
646.363	2399.88
646.556	2248.33
646.749	2186.89
646.942	2068.11
647.135	2111.11
647.328	1932.94
647.521	1887.89
647.714	1801.87
647.907	1722
648.099	1533.59
648.292	1617.55
648.485	1574.55
648.678	1412.76
648.871	1402.52
649.064	1412.76
649.256	1255.06
649.449	1253.02
649.642	1171.1
649.835	1103.51
650.027	1091.23
650.22	1109.66
650.413	1150.62
650.605	1054.36
650.798	1003.16
650.991	939.68
651.183	960.16
651.376	1083.03
651.568	951.96
651.761	843.42
651.954	874.14
652.146	812.7
652.339	861.85
652.531	863.9
652.724	741.02
652.916	757.41
653.109	605.86
653.301	679.58
653.494	771.74
653.686	702.11
653.879	720.54
654.071	657.06
654.263	536.23
654.456	491.17
654.648	622.24
654.84	663.2
655.033	480.93
655.225	595.62
655.417	435.88
655.61	478.88
655.802	554.66
655.994	495.27
656.186	423.59
656.379	452.26
656.571	413.35
656.763	417.44
656.955	356.01
657.148	407.2
657.34	423.59
657.532	394.92
657.724	370.34
657.916	362.15
658.108	452.26
658.3	427.68
658.492	446.12
658.684	323.24
658.876	474.79
659.068	276.13
659.26	218.79
659.452	298.66
659.644	327.33
659.836	509.6
660.028	347.81
660.22	288.42
660.412	306.85
660.604	298.66
660.796	296.61
660.988	390.82
661.18	243.37
661.372	292.52
661.563	235.18
661.755	272.04
661.947	161.45
662.139	233.13
662.331	278.18
662.522	214.7
662.714	163.5
662.906	140.97
663.097	181.93
663.289	226.98
663.481	126.63
663.673	325.29
663.864	231.08
664.056	327.33
664.247	202.41
664.439	310.95
664.631	226.98
664.822	231.08
665.014	220.84
665.205	122.54
665.397	169.64
665.588	208.55
665.78	233.13
665.971	298.66
666.163	183.98
666.354	171.69
666.546	194.22
666.737	220.84
666.929	177.83
667.12	208.55
667.311	259.75
667.503	138.92
667.694	218.79
667.885	206.5
668.077	253.61
668.268	13.99
668.459	124.58
668.651	247.46
668.842	272.04
669.033	143.02
669.224	79.53
669.416	390.82
669.607	210.6
669.798	124.58
669.989	347.81
670.18	188.07
670.371	349.86
670.563	126.63
670.754	288.42
670.945	198.31
671.136	294.57
671.327	237.22
671.518	313
671.709	339.62
671.9	325.29
672.091	382.63
672.282	313
672.473	259.75
672.664	179.88
672.855	235.18
673.046	302.76
673.237	286.37
673.428	294.57
673.619	276.13
673.809	257.7
674	321.19
674.191	224.94
674.382	206.5
674.573	173.74
674.764	257.7
674.954	333.48
675.145	224.94
675.336	194.22
675.527	212.65
675.717	265.89
675.908	200.36
676.099	280.23
676.289	304.81
676.48	138.92
676.671	251.56
676.861	237.22
677.052	304.81
677.243	339.62
677.433	222.89
677.624	319.14
677.814	366.25
678.005	220.84
678.195	337.57
678.386	251.56
678.576	362.15
678.767	233.13
678.957	282.28
679.148	372.39
679.338	396.96
679.529	405.16
679.719	235.18
679.909	333.48
680.1	319.14
680.29	356.01
680.481	327.33
680.671	390.82
680.861	435.88
681.052	347.81
681.242	263.85
681.432	372.39
681.622	360.1
681.813	224.94
682.003	370.34
682.193	284.33
682.383	337.57
682.573	362.15
682.764	284.33
682.954	331.43
683.144	427.68
683.334	382.63
683.524	442.02
683.714	386.72
683.904	405.16
684.094	417.44
684.284	419.49
684.474	466.6
684.664	413.35
684.854	362.15
685.044	388.77
685.234	392.87
685.424	505.51
685.614	304.81
685.804	544.42
685.994	515.75
686.184	388.77
686.374	392.87
686.564	417.44
686.753	390.82
686.943	399.01
687.133	396.96
687.323	442.02
687.513	519.84
687.702	407.2
687.892	358.05
688.082	452.26
688.272	507.55
688.461	460.45
688.651	536.23
688.841	448.16
689.03	358.05
689.22	378.53
689.41	509.6
689.599	407.2
689.789	310.95
689.979	548.51
690.168	360.1
690.358	509.6
690.547	444.07
690.737	366.25
690.926	427.68
691.116	360.1
691.305	464.55
691.495	491.17
691.684	325.29
691.874	317.09
692.063	353.96
692.252	482.98
692.442	415.4
692.631	448.16
692.82	403.11
693.01	407.2
693.199	392.87
693.388	525.99
693.578	489.12
693.767	452.26
693.956	423.59
694.146	345.77
694.335	351.91
694.524	403.11
694.713	382.63
694.902	290.47
695.092	407.2
695.281	466.6
695.47	349.86
695.659	405.16
695.848	425.64
696.037	403.11
696.226	480.93
696.415	421.54
696.604	474.79
696.793	411.3
696.982	345.77
697.171	515.75
697.36	345.77
697.549	407.2
697.738	335.53
697.927	444.07
698.116	300.71
698.305	462.5
698.494	444.07
698.683	468.64
698.872	489.12
699.061	429.73
699.25	310.95
699.438	411.3
699.627	347.81
699.816	554.66
700.005	341.67
700.193	343.72
700.382	433.83
700.571	399.01
700.76	419.49
700.948	405.16
701.137	448.16
701.326	394.92
701.514	415.4
701.703	452.26
701.892	390.82
702.08	577.19
702.269	341.67
702.457	356.01
702.646	435.88
702.834	329.38
703.023	407.2
703.212	378.53
703.4	423.59
703.589	306.85
703.777	343.72
703.965	276.13
704.154	386.72
704.342	341.67
704.531	298.66
704.719	284.33
704.907	517.79
705.096	272.04
705.284	229.03
705.472	396.96
705.661	538.27
705.849	335.53
706.037	458.4
706.226	435.88
706.414	368.29
706.602	360.1
706.79	458.4
706.979	390.82
707.167	288.42
707.355	278.18
707.543	437.92
707.731	456.36
707.919	280.23
708.107	403.11
708.296	313
708.484	280.23
708.672	421.54
708.86	278.18
709.048	403.11
709.236	206.5
709.424	380.58
709.612	259.75
709.8	339.62
709.988	409.25
710.176	378.53
710.364	554.66
710.551	325.29
710.739	263.85
710.927	265.89
711.115	343.72
711.303	435.88
711.491	368.29
711.679	329.38
711.866	450.21
712.054	329.38
712.242	360.1
712.43	425.64
712.617	366.25
712.805	462.5
712.993	337.57
713.181	286.37
713.368	390.82
713.556	333.48
713.744	263.85
713.931	550.56
714.119	415.4
714.306	325.29
714.494	294.57
714.682	513.7
714.869	198.31
715.057	407.2
715.244	286.37
715.432	444.07
715.619	335.53
715.807	353.96
715.994	327.33
716.182	360.1
716.369	401.06
716.556	431.78
716.744	278.18
716.931	220.84
717.119	386.72
717.306	388.77
717.493	386.72
717.681	349.86
717.868	280.23
718.055	364.2
718.242	405.16
718.43	421.54
718.617	501.41
718.804	374.44
718.991	513.7
719.179	386.72
719.366	474.79
719.553	423.59
719.74	300.71
719.927	382.63
720.114	333.48
720.301	356.01
720.488	327.33
720.676	327.33
720.863	429.73
721.05	603.81
721.237	448.16
721.424	470.69
721.611	401.06
721.798	349.86
721.985	339.62
722.172	337.57
722.358	378.53
722.545	470.69
722.732	452.26
722.919	495.27
723.106	489.12
723.293	509.6
723.48	499.36
723.667	386.72
723.853	517.79
724.04	540.32
724.227	530.08
724.414	396.96
724.6	419.49
724.787	511.65
724.974	603.81
725.161	390.82
725.347	321.19
725.534	437.92
725.72	446.12
725.907	480.93
726.094	503.46
726.28	386.72
726.467	378.53
726.653	380.58
726.84	495.27
727.027	583.33
727.213	485.03
727.4	505.51
727.586	452.26
727.773	534.18
727.959	411.3
728.145	431.78
728.332	454.31
728.518	415.4
728.705	523.94
728.891	470.69
729.077	497.32
729.264	308.9
729.45	464.55
729.636	474.79
729.823	450.21
730.009	603.81
730.195	462.5
730.382	620.19
730.568	358.05
730.754	474.79
730.94	433.83
731.126	439.97
731.313	595.62
731.499	485.03
731.685	489.12
731.871	497.32
732.057	480.93
732.243	558.75
732.429	480.93
732.615	640.67
732.801	558.75
732.987	521.89
733.173	528.03
733.359	343.72
733.545	501.41
733.731	427.68
733.917	511.65
734.103	493.22
734.289	579.23
734.475	419.49
734.661	655.01
734.847	521.89
735.033	530.08
735.219	642.72
735.404	523.94
735.59	472.74
735.776	456.36
735.962	519.84
736.148	517.79
736.333	607.91
736.519	485.03
736.705	472.74
736.89	536.23
737.076	530.08
737.262	374.44
737.447	495.27
737.633	478.88
737.819	695.97
738.004	497.32
738.19	573.09
738.375	568.99
738.561	577.19
738.747	501.41
738.932	456.36
739.118	708.26
739.303	544.42
739.489	476.84
739.674	466.6
739.859	409.25
740.045	599.71
740.23	423.59
740.416	413.35
740.601	538.27
740.786	493.22
740.972	528.03
741.157	523.94
741.342	407.2
741.528	372.39
741.713	585.38
741.898	458.4
742.084	425.64
742.269	505.51
742.454	538.27
742.639	544.42
742.824	491.17
743.01	624.29
743.195	587.43
743.38	495.27
743.565	462.5
743.75	417.44
743.935	396.96
744.12	577.19
744.305	390.82
744.49	421.54
744.675	474.79
744.86	413.35
745.045	429.73
745.23	478.88
745.415	482.98
745.6	581.28
745.785	413.35
745.97	536.23
746.155	489.12
746.34	431.78
746.525	503.46
746.71	556.71
746.895	341.67
747.079	425.64
747.264	528.03
747.449	556.71
747.634	554.66
747.819	464.55
748.003	343.72
748.188	356.01
748.373	517.79
748.557	433.83
748.742	442.02
748.927	448.16
749.111	421.54
749.296	394.92
749.481	507.55
749.665	448.16
749.85	378.53
750.034	437.92
750.219	470.69
750.404	358.05
750.588	419.49
750.773	364.2
750.957	392.87
751.141	376.48
751.326	458.4
751.51	392.87
751.695	337.57
751.879	317.09
752.064	528.03
752.248	399.01
752.432	497.32
752.617	394.92
752.801	415.4
752.985	392.87
753.17	517.79
753.354	429.73
753.538	405.16
753.722	321.19
753.907	399.01
754.091	323.24
754.275	376.48
754.459	251.56
754.643	306.85
754.828	442.02
755.012	362.15
755.196	306.85
755.38	368.29
755.564	255.65
755.748	325.29
755.932	339.62
756.116	313
756.3	366.25
756.484	290.47
756.668	403.11
756.852	190.12
757.036	286.37
757.22	259.75
757.404	249.51
757.588	261.8
757.772	368.29
757.956	186.02
758.14	419.49
758.323	259.75
758.507	351.91
758.691	265.89
758.875	327.33
759.059	409.25
759.242	224.94
759.426	274.09
759.61	313
759.794	151.21
759.977	280.23
760.161	568.99
760.345	413.35
760.528	419.49
760.712	231.08
760.895	347.81
761.079	247.46
761.263	210.6
761.446	284.33
761.63	304.81
761.813	331.43
761.997	222.89
762.18	267.94
762.364	231.08
762.547	179.88
762.731	214.7
762.914	241.32
763.098	173.74
763.281	186.02
763.464	237.22
763.648	202.41
763.831	239.27
764.015	226.98
764.198	257.7
764.381	175.78
764.564	186.02
764.748	198.31
764.931	224.94
765.114	165.54
765.297	304.81
765.481	145.06
765.664	233.13
765.847	204.46
766.03	315.05
766.213	235.18
766.397	198.31
766.58	155.3
766.763	269.99
766.946	165.54
767.129	190.12
767.312	181.93
767.495	222.89
767.678	194.22
767.861	145.06
768.044	231.08
768.227	134.82
768.41	179.88
768.593	286.37
768.776	216.74
768.959	194.22
769.142	306.85
769.324	177.83
769.507	196.26
769.69	235.18
769.873	206.5
770.056	313
770.239	165.54
770.421	298.66
770.604	257.7
770.787	153.26
770.97	210.6
771.152	202.41
771.335	157.35
771.518	79.53
771.7	171.69
771.883	257.7
772.066	161.45
772.248	175.78
772.431	253.61
772.613	145.06
772.796	126.63
772.978	214.7
773.161	282.28
773.343	118.44
773.526	130.73
773.708	16.04
773.891	-6.49
774.073	169.64
774.256	63.15
774.438	239.27
774.621	104.11
774.803	200.36
774.985	183.98
775.168	147.11
775.35	95.91
775.532	143.02
775.715	69.29
775.897	151.21
776.079	112.3
776.261	243.37
776.444	149.16
776.626	190.12
776.808	167.59
776.99	16.04
777.173	116.39
777.355	44.71
777.537	167.59
777.719	183.98
777.901	263.85
778.083	106.15
778.265	157.35
778.447	222.89
778.629	104.11
778.811	147.11
778.993	237.22
779.175	269.99
779.357	192.17
779.539	-0.34
779.721	91.82
779.903	204.46
780.085	79.53
780.267	169.64
780.449	22.19
780.631	132.78
780.812	282.28
780.994	100.01
781.176	102.06
781.358	54.95
781.54	157.35
781.721	155.3
781.903	210.6
782.085	59.05
782.267	138.92
782.448	38.57
782.63	95.91
782.812	69.29
782.993	226.98
783.175	157.35
783.357	-6.49
783.538	87.72
783.72	38.57
783.901	48.81
784.083	143.02
784.264	126.63
784.446	-10.58
784.627	153.26
784.809	177.83
784.99	67.24
785.172	132.78
785.353	61.1
785.535	104.11
785.716	-12.63
785.897	3.75
786.079	54.95
786.26	57
786.441	175.78
786.623	18.09
786.804	-35.16
786.985	100.01
787.167	143.02
787.348	112.3
787.529	95.91
787.71	214.7
787.891	173.74
788.073	38.57
788.254	-41.3
788.435	126.63
788.616	108.2
788.797	11.95
788.978	65.19
789.159	22.19
789.34	69.29
789.522	79.53
789.703	-10.58
789.884	140.97
790.065	87.72
790.246	54.95
790.427	73.39
790.607	171.69
790.788	136.87
790.969	-4.44
791.15	106.15
791.331	67.24
791.512	34.47
791.693	-47.44
791.874	-20.82
792.054	226.98
792.235	116.39
792.416	5.8
792.597	5.8
792.778	122.54
792.958	97.96
793.139	46.76
793.32	63.15
793.5	-55.64
793.681	165.54
793.862	30.38
794.042	73.39
794.223	48.81
794.404	63.15
794.584	-82.26
794.765	79.53
794.945	9.9
795.126	145.06
795.306	188.07
795.487	46.76
795.667	54.95
795.848	38.57
796.028	-0.34
796.209	30.38
796.389	54.95
796.57	46.76
796.75	-65.88
796.93	38.57
797.111	-12.63
797.291	59.05
797.471	65.19
797.652	91.82
797.832	-31.06
798.012	145.06
798.192	65.19
798.373	-61.78
798.553	-6.49
798.733	95.91
798.913	-37.2
799.093	-41.3
799.274	48.81
799.454	167.59
799.634	165.54
799.814	54.95
799.994	75.43
800.174	108.2
800.354	50.86
800.534	-16.73
800.714	91.82
800.894	-49.49
801.074	-2.39
801.254	50.86
801.434	147.11
801.614	5.8
801.794	-6.49
801.974	1683.09
802.154	54.95
802.334	134.82
802.514	24.23
802.693	50.86
802.873	50.86
803.053	128.68
803.233	81.58
803.413	54.95
803.592	-63.83
803.772	5.8
803.952	57
804.131	-104.79
804.311	69.29
804.491	140.97
804.67	-8.53
804.85	-18.77
805.03	102.06
805.209	145.06
805.389	69.29
805.568	-39.25
805.748	-74.07
805.928	30.38
806.107	120.49
806.287	61.1
806.466	130.73
806.646	120.49
806.825	-33.11
807.004	-2.39
807.184	130.73
807.363	36.52
807.543	26.28
807.722	110.25
807.901	116.39
808.081	149.16
808.26	-104.79
808.439	42.67
808.619	67.24
808.798	-10.58
808.977	28.33
809.156	87.72
809.336	16.04
809.515	91.82
809.694	-108.88
809.873	22.19
810.052	91.82
810.231	75.43
810.411	18.09
810.59	97.96
810.769	48.81
810.948	122.54
811.127	-119.12
811.306	3.75
811.485	-29.01
811.664	126.63
811.843	3.75
812.022	63.15
812.201	42.67
812.38	73.39
812.559	-49.49
812.737	120.49
812.916	-104.79
813.095	-31.06
813.274	13.99
813.453	-31.06
813.632	-22.87
813.811	130.73
813.989	-57.68
814.168	122.54
814.347	-41.3
814.526	-0.34
814.704	100.01
814.883	155.3
815.062	-76.12
815.24	71.34
815.419	-6.49
815.598	100.01
815.776	-51.54
815.955	-45.4
816.133	-104.79
816.312	-22.87
816.49	-35.16
816.669	85.67
816.847	-10.58
817.026	71.34
817.204	22.19
817.383	44.71
817.561	-14.68
817.74	91.82
817.918	36.52
818.097	28.33
818.275	-37.2
818.453	73.39
818.632	46.76
818.81	-16.73
818.988	-0.34
819.167	-74.07
819.345	5.8
819.523	-6.49
819.701	59.05
819.879	77.48
820.058	89.77
820.236	-29.01
820.414	30.38
820.592	18.09
820.77	38.57
820.948	28.33
821.127	-29.01
821.305	91.82
821.483	1.71
821.661	89.77
821.839	108.2
822.017	-24.92
822.195	-61.78
822.373	87.72
822.551	36.52
822.729	126.63
822.907	-39.25
823.085	26.28
823.262	118.44
823.44	42.67
823.618	-92.5
823.796	16.04
823.974	-0.34
824.152	-4.44
824.329	1.71
824.507	85.67
824.685	73.39
824.863	63.15
825.04	24.23
825.218	81.58
825.396	30.38
825.574	20.14
825.751	-6.49
825.929	65.19
826.107	-168.27
826.284	-10.58
826.462	48.81
826.639	-76.12
826.817	-31.06
826.994	7.85
827.172	-100.69
827.349	97.96
827.527	48.81
827.704	36.52
827.882	48.81
828.059	48.81
828.237	63.15
828.414	95.91
828.591	-100.69
828.769	100.01
828.946	50.86
829.124	140.97
829.301	106.15
829.478	-57.68
829.655	-39.25
829.833	-14.68
830.01	-102.74
830.187	28.33
830.364	-18.77
830.542	18.09
830.719	87.72
830.896	18.09
831.073	40.62
831.25	104.11
831.427	95.91
831.604	110.25
831.782	-51.54
831.959	-4.44
832.136	-20.82
832.313	30.38
832.49	87.72
832.667	71.34
832.844	5.8
833.021	157.35
833.198	-6.49
833.374	-12.63
833.551	38.57
833.728	9.9
833.905	77.48
834.082	-24.92
834.259	1.71
834.436	165.54
834.612	48.81
834.789	46.76
834.966	1.71
835.143	102.06
835.319	-80.21
835.496	-18.77
835.673	97.96
835.85	67.24
836.026	24.23
836.203	83.63
836.38	24.23
836.556	-76.12
836.733	-110.93
836.909	165.54
837.086	-24.92
837.262	-80.21
837.439	-45.4
837.616	-22.87
837.792	38.57
837.968	44.71
838.145	-115.03
838.321	44.71
838.498	87.72
838.674	42.67
838.851	79.53
839.027	1.71
839.203	36.52
839.38	67.24
839.556	46.76
839.732	48.81
839.909	-16.73
840.085	52.91
840.261	-20.82
840.437	-0.34
840.614	-31.06
840.79	71.34
840.966	48.81
841.142	13.99
841.318	-100.69
841.494	59.05
841.671	132.78
841.847	-78.16
842.023	-121.17
842.199	-26.96
842.375	48.81
842.551	-117.08
842.727	-72.02
842.903	147.11
843.079	-61.78
843.255	128.68
843.431	-84.31
843.607	38.57
843.783	-166.23
843.959	114.34
844.134	-37.2
844.31	73.39
844.486	-37.2
844.662	-45.4
844.838	26.28
845.013	42.67
845.189	13.99
845.365	63.15
845.541	-39.25
845.716	71.34
845.892	-4.44
846.068	42.67
846.244	-92.5
846.419	-0.34
846.595	-55.64
846.77	-29.01
846.946	128.68
847.122	-53.59
847.297	-72.02
847.473	91.82
847.648	-4.44
847.824	28.33
847.999	-155.99
848.175	-14.68
848.35	54.95
848.526	-2.39
848.701	22.19
848.876	42.67
849.052	65.19
849.227	1.71
849.403	18.09
849.578	-24.92
849.753	1.71
849.929	-26.96
850.104	-39.25
850.279	-20.82
850.454	32.43
850.63	118.44
850.805	46.76
850.98	1.71
851.155	-26.96
851.33	-0.34
851.505	9.9
851.681	38.57
851.856	-39.25
852.031	40.62
852.206	30.38
852.381	-41.3
852.556	36.52
852.731	38.57
852.906	16.04
853.081	-31.06
853.256	136.87
853.431	13.99
853.606	-16.73
853.781	-65.88
853.956	-110.93
854.131	50.86
854.305	-14.68
854.48	-22.87
854.655	-53.59
854.83	-57.68
855.005	22.19
855.18	-8.53
855.354	-53.59
855.529	-41.3
855.704	-14.68
855.879	95.91
856.053	-65.88
856.228	20.14
856.403	-94.55
856.577	100.01
856.752	-29.01
856.926	-59.73
857.101	13.99
857.276	-78.16
857.45	-53.59
857.625	-4.44
857.799	-8.53
857.974	18.09
858.148	-29.01
858.323	-0.34
858.497	-41.3
858.672	-49.49
858.846	57
859.02	42.67
859.195	-186.71
859.369	16.04
859.543	54.95
859.718	13.99
859.892	-4.44
860.066	102.06
860.241	-26.96
860.415	1.71
860.589	-63.83
860.763	-14.68
860.938	-31.06
861.112	3.75
861.286	-10.58
861.46	46.76
861.634	46.76
861.808	54.95
861.982	5.8
862.157	-88.4
862.331	11.95
862.505	-78.16
862.679	-108.88
862.853	-24.92
863.027	1.71
863.201	102.06
863.375	-82.26
863.549	-10.58
863.722	26.28
863.896	83.63
864.07	-26.96
864.244	22.19
864.418	-10.58
864.592	46.76
864.766	52.91
864.939	-6.49
865.113	-12.63
865.287	54.95
865.461	-102.74
865.634	83.63
865.808	-29.01
865.982	22.19
866.156	-59.73
866.329	-143.7
866.503	-26.96
866.676	42.67
866.85	-6.49
867.024	-57.68
867.197	16.04
867.371	28.33
867.544	40.62
867.718	-151.89
867.891	124.58
868.065	-57.68
868.238	3.75
868.412	85.67
868.585	46.76
868.759	-14.68
868.932	13.99
869.105	-33.11
869.279	24.23
869.452	-153.94
869.625	46.76
869.799	36.52
869.972	-37.2
870.145	-61.78
870.319	91.82
870.492	-57.68
870.665	-82.26
870.838	-39.25
871.011	-47.44
871.185	-67.92
871.358	-57.68
871.531	54.95
871.704	-37.2
871.877	18.09
872.05	-57.68
872.223	-49.49
872.396	54.95
872.569	-33.11
872.742	1.71
872.915	16.04
873.088	-59.73
873.261	-94.55
873.434	18.09
873.607	-35.16
873.78	120.49
873.953	-63.83
874.126	20.14
874.299	-4.44
874.471	-63.83
874.644	-43.35
874.817	67.24
874.99	42.67
875.163	-100.69
875.335	67.24
875.508	-16.73
875.681	44.71
875.853	-22.87
876.026	-22.87
876.199	-16.73
876.371	9.9
876.544	-59.73
876.717	54.95
876.889	16.04
877.062	63.15
877.234	-104.79
877.407	-45.4
877.579	32.43
877.752	18.09
877.924	-49.49
878.097	44.71
878.269	42.67
878.442	44.71
878.614	-18.77
878.786	71.34
878.959	-10.58
879.131	-20.82
879.303	-24.92
879.476	-10.58
879.648	97.96
879.82	-33.11
879.993	-67.92
880.165	-18.77
880.337	-141.65
880.509	-12.63
880.681	-51.54
880.854	-72.02
881.026	9.9
881.198	167.59
881.37	11.95
881.542	-55.64
881.714	-53.59
881.886	-57.68
882.058	-10.58
882.23	34.47
882.402	-61.78
882.574	-33.11
882.746	85.67
882.918	140.97
883.09	36.52
883.262	-72.02
883.434	30.38
883.606	-106.84
883.778	7.85
883.95	120.49
884.122	-39.25
884.293	65.19
884.465	3.75
884.637	57
884.809	7.85
884.98	89.77
885.152	30.38
885.324	36.52
885.496	-31.06
885.667	-12.63
885.839	28.33
886.011	104.11
886.182	59.05
886.354	79.53
886.525	61.1
886.697	-4.44
886.869	-59.73
887.04	-76.12
887.212	67.24
887.383	46.76
887.555	20.14
887.726	16.04
887.897	-69.97
888.069	-12.63
888.24	-35.16
888.412	1.71
888.583	-82.26
888.754	38.57
888.926	-78.16
889.097	-24.92
889.268	-102.74
889.44	24.23
889.611	-72.02
889.782	18.09
889.953	-67.92
890.125	18.09
890.296	-41.3
890.467	-88.4
890.638	-14.68
890.809	-12.63
890.98	-102.74
891.151	-2.39
891.323	120.49
891.494	-22.87
891.665	-18.77
891.836	-43.35
892.007	13.99
892.178	20.14
892.349	-0.34
892.52	-117.08
892.691	-61.78
892.862	-74.07
893.032	-139.6
893.203	42.67
893.374	-39.25
893.545	65.19
893.716	5.8
893.887	120.49
894.057	-45.4
894.228	-0.34
894.399	28.33
894.57	97.96
894.74	3.75
894.911	59.05
895.082	-20.82
895.253	-65.88
895.423	-35.16
895.594	100.01
895.764	73.39
895.935	-112.98
896.106	38.57
896.276	-65.88
896.447	28.33
896.617	-6.49
896.788	-90.45
896.958	-33.11
897.129	-35.16
897.299	-20.82
897.47	134.82
897.64	83.63
897.81	-31.06
897.981	30.38
898.151	-61.78
898.322	-26.96
898.492	69.29
898.662	-26.96
898.832	-78.16
899.003	-16.73
899.173	-12.63
899.343	-41.3
899.513	-20.82
