Data from USB4F104151__53__09-28-21-203.txt Node

Date: Wed Feb 26 09:28:21 EST 2025
User: louis
Spectrometer: USB4F10415
Trigger mode: 4
Integration Time (sec): 1.000000E-1
Scans to average: 1
Electric dark correction enabled: true
Nonlinearity correction enabled: false
Boxcar width: 0
XAxis mode: Wavelengths
Number of Pixels in Spectrum: 3648
>>>>>Begin Spectral Data<<<<<
178.204	-334.33
178.424	-334.33
178.644	-334.33
178.864	-348.67
179.084	-307.71
179.304	-10.75
179.524	-84.48
179.744	-6.66
179.964	62.98
180.184	11.78
180.404	22.02
180.624	-43.52
180.844	50.69
181.064	-88.57
181.283	77.31
181.503	-37.38
181.723	46.59
181.943	-92.67
182.163	128.51
182.383	7.68
182.602	54.78
182.822	130.56
183.042	103.93
183.262	-0.51
183.482	17.92
183.701	-37.38
183.921	95.74
184.141	-98.81
184.361	75.26
184.58	77.31
184.8	9.73
185.02	-31.23
185.239	95.74
185.459	60.93
185.679	122.37
185.898	-86.53
186.118	67.07
186.338	-10.75
186.557	38.4
186.777	-23.04
186.997	-6.66
187.216	17.92
187.436	97.79
187.655	83.45
187.875	112.13
188.095	30.21
188.314	142.85
188.534	83.45
188.753	-31.23
188.973	58.88
189.192	144.89
189.412	50.69
189.631	17.92
189.851	52.74
190.07	126.46
190.29	-53.76
190.509	-72.19
190.729	40.45
190.948	116.22
191.168	271.87
191.387	148.99
191.607	-16.9
191.826	54.78
192.045	-23.04
192.265	-14.85
192.484	95.74
192.704	28.16
192.923	-14.85
193.142	165.37
193.362	54.78
193.581	93.69
193.8	103.93
194.02	62.98
194.239	28.16
194.458	36.35
194.678	-27.14
194.897	-18.94
195.116	50.69
195.335	75.26
195.555	13.82
195.774	-27.14
195.993	69.12
196.212	-6.66
196.432	-57.86
196.651	13.82
196.87	5.63
197.089	228.86
197.308	79.36
197.528	87.55
197.747	11.78
197.966	52.74
198.185	202.24
198.404	22.02
198.623	120.32
198.842	108.03
199.062	54.78
199.281	54.78
199.5	15.87
199.719	69.12
199.938	97.79
200.157	91.65
200.376	122.37
200.595	99.84
200.814	34.3
201.033	-16.9
201.252	130.56
201.471	116.22
201.69	79.36
201.909	58.88
202.128	118.27
202.347	62.98
202.566	-6.66
202.785	-4.61
203.004	30.21
203.223	206.33
203.442	11.78
203.661	-53.76
203.879	99.84
204.098	118.27
204.317	54.78
204.536	71.17
204.755	71.17
204.974	144.89
205.193	24.06
205.411	220.67
205.63	148.99
205.849	26.11
206.068	-43.52
206.287	-31.23
206.505	142.85
206.724	17.92
206.943	32.26
207.162	30.21
207.381	132.61
207.599	24.06
207.818	-27.14
208.037	-23.04
208.255	-84.48
208.474	11.78
208.693	50.69
208.911	30.21
209.13	52.74
209.349	85.5
209.567	116.22
209.786	71.17
210.005	85.5
210.223	67.07
210.442	-88.57
210.661	46.59
210.879	97.79
211.098	58.88
211.316	54.78
211.535	67.07
211.753	-2.56
211.972	108.03
212.191	42.5
212.409	34.3
212.628	60.93
212.846	-18.94
213.065	42.5
213.283	132.61
213.502	-0.51
213.72	97.79
213.938	46.59
214.157	-31.23
214.375	71.17
214.594	26.11
214.812	85.5
215.031	15.87
215.249	38.4
215.467	22.02
215.686	77.31
215.904	114.17
216.122	79.36
216.341	112.13
216.559	122.37
216.778	38.4
216.996	69.12
217.214	42.5
217.432	9.73
217.651	-10.75
217.869	93.69
218.087	7.68
218.306	9.73
218.524	5.63
218.742	3.58
218.96	165.37
219.179	-16.9
219.397	32.26
219.615	251.39
219.833	130.56
220.051	24.06
220.27	169.47
220.488	-27.14
220.706	22.02
220.924	5.63
221.142	69.12
221.36	44.54
221.578	126.46
221.796	-8.7
222.015	71.17
222.233	95.74
222.451	140.8
222.669	-76.29
222.887	50.69
223.105	58.88
223.323	17.92
223.541	-10.75
223.759	87.55
223.977	73.21
224.195	169.47
224.413	118.27
224.631	110.08
224.849	87.55
225.067	108.03
225.285	3.58
225.503	-23.04
225.721	-0.51
225.939	99.84
226.157	38.4
226.375	192
226.592	7.68
226.81	15.87
227.028	114.17
227.246	200.19
227.464	42.5
227.682	128.51
227.9	17.92
228.117	83.45
228.335	140.8
228.553	44.54
228.771	-2.56
228.989	110.08
229.206	93.69
229.424	-4.61
229.642	48.64
229.86	30.21
230.077	69.12
230.295	22.02
230.513	50.69
230.731	146.94
230.948	101.89
231.166	95.74
231.384	-68.09
231.601	30.21
231.819	183.81
232.037	-18.94
232.254	22.02
232.472	-8.7
232.689	-70.14
232.907	103.93
233.125	32.26
233.342	-27.14
233.56	36.35
233.777	-0.51
233.995	-59.9
234.213	101.89
234.43	93.69
234.648	69.12
234.865	69.12
235.083	99.84
235.3	42.5
235.518	42.5
235.735	157.18
235.953	93.69
236.17	9.73
236.388	5.63
236.605	48.64
236.822	163.33
237.04	132.61
237.257	32.26
237.475	-53.76
237.692	118.27
237.909	22.02
238.127	3.58
238.344	1.54
238.562	56.83
238.779	89.6
238.996	-49.66
239.214	50.69
239.431	103.93
239.648	19.97
239.865	58.88
240.083	50.69
240.3	79.36
240.517	5.63
240.735	13.82
240.952	77.31
241.169	89.6
241.386	103.93
241.603	28.16
241.821	30.21
242.038	112.13
242.255	161.28
242.472	9.73
242.689	17.92
242.907	91.65
243.124	124.41
243.341	71.17
243.558	-59.9
243.775	13.82
243.992	-80.38
244.209	93.69
244.426	181.76
244.643	140.8
244.86	-20.99
245.078	15.87
245.295	91.65
245.512	26.11
245.729	-18.94
245.946	54.78
246.163	75.26
246.38	62.98
246.597	-39.42
246.814	36.35
247.031	54.78
247.248	62.98
247.464	114.17
247.681	54.78
247.898	118.27
248.115	99.84
248.332	38.4
248.549	85.5
248.766	142.85
248.983	108.03
249.2	-23.04
249.417	50.69
249.633	85.5
249.85	71.17
250.067	26.11
250.284	30.21
250.501	36.35
250.717	161.28
250.934	-68.09
251.151	69.12
251.368	91.65
251.585	19.97
251.801	38.4
252.018	-80.38
252.235	108.03
252.451	-47.62
252.668	-10.75
252.885	50.69
253.102	62.98
253.318	71.17
253.535	15.87
253.752	19.97
253.968	44.54
254.185	-4.61
254.401	-4.61
254.618	42.5
254.835	-80.38
255.051	136.7
255.268	151.04
255.484	26.11
255.701	114.17
255.917	69.12
256.134	1.54
256.351	-25.09
256.567	-53.76
256.784	132.61
257	-35.33
257.217	30.21
257.433	69.12
257.65	79.36
257.866	65.02
258.082	-94.72
258.299	22.02
258.515	-4.61
258.732	67.07
258.948	15.87
259.165	95.74
259.381	56.83
259.597	48.64
259.814	11.78
260.03	34.3
260.246	120.32
260.463	103.93
260.679	62.98
260.895	101.89
261.112	91.65
261.328	-10.75
261.544	-31.23
261.761	169.47
261.977	-49.66
262.193	-29.18
262.409	95.74
262.626	58.88
262.842	7.68
263.058	44.54
263.274	83.45
263.49	138.75
263.707	46.59
263.923	60.93
264.139	-61.95
264.355	34.3
264.571	83.45
264.787	138.75
265.004	202.24
265.22	-33.28
265.436	-31.23
265.652	-12.8
265.868	118.27
266.084	-37.38
266.3	-10.75
266.516	-18.94
266.732	-14.85
266.948	17.92
267.164	-35.33
267.38	132.61
267.596	132.61
267.812	93.69
268.028	69.12
268.244	58.88
268.46	22.02
268.676	54.78
268.892	112.13
269.108	34.3
269.324	-88.57
269.54	-27.14
269.756	91.65
269.972	54.78
270.188	24.06
270.403	22.02
270.619	67.07
270.835	112.13
271.051	75.26
271.267	75.26
271.483	50.69
271.698	30.21
271.914	62.98
272.13	108.03
272.346	75.26
272.562	87.55
272.777	95.74
272.993	46.59
273.209	38.4
273.425	128.51
273.64	-35.33
273.856	46.59
274.072	-39.42
274.287	-29.18
274.503	50.69
274.719	30.21
274.934	-88.57
275.15	-49.66
275.366	58.88
275.581	-59.9
275.797	13.82
276.012	34.3
276.228	5.63
276.444	22.02
276.659	114.17
276.875	42.5
277.09	5.63
277.306	34.3
277.521	91.65
277.737	40.45
277.952	126.46
278.168	11.78
278.383	36.35
278.599	-4.61
278.814	46.59
279.03	34.3
279.245	110.08
279.461	-16.9
279.676	146.94
279.892	5.63
280.107	15.87
280.322	-25.09
280.538	62.98
280.753	17.92
280.969	101.89
281.184	7.68
281.399	167.42
281.615	62.98
281.83	56.83
282.045	-18.94
282.26	-55.81
282.476	81.41
282.691	101.89
282.906	50.69
283.122	62.98
283.337	-20.99
283.552	116.22
283.767	-0.51
283.983	116.22
284.198	58.88
284.413	91.65
284.628	3.58
284.843	91.65
285.058	83.45
285.274	54.78
285.489	-131.58
285.704	58.88
285.919	-8.7
286.134	28.16
286.349	-18.94
286.564	15.87
286.779	132.61
286.995	58.88
287.21	-39.42
287.425	58.88
287.64	22.02
287.855	69.12
288.07	-61.95
288.285	120.32
288.5	144.89
288.715	-29.18
288.93	-18.94
289.145	26.11
289.36	114.17
289.575	91.65
289.79	161.28
290.004	-35.33
290.219	9.73
290.434	22.02
290.649	-27.14
290.864	38.4
291.079	79.36
291.294	38.4
291.509	34.3
291.724	-2.56
291.938	-35.33
292.153	85.5
292.368	-14.85
292.583	40.45
292.798	38.4
293.012	22.02
293.227	56.83
293.442	-4.61
293.657	67.07
293.871	69.12
294.086	73.21
294.301	239.1
294.516	103.93
294.73	38.4
294.945	-23.04
295.16	46.59
295.374	38.4
295.589	116.22
295.804	13.82
296.018	-27.14
296.233	118.27
296.447	52.74
296.662	-37.38
296.877	130.56
297.091	97.79
297.306	1.54
297.52	9.73
297.735	108.03
297.949	108.03
298.164	15.87
298.378	85.5
298.593	1.54
298.807	5.63
299.022	50.69
299.236	93.69
299.451	5.63
299.665	34.3
299.88	95.74
300.094	1.54
300.309	60.93
300.523	91.65
300.737	58.88
300.952	38.4
301.166	48.64
301.381	-6.66
301.595	-16.9
301.809	9.73
302.024	-6.66
302.238	-51.71
302.452	81.41
302.667	52.74
302.881	79.36
303.095	144.89
303.309	95.74
303.524	-4.61
303.738	46.59
303.952	-78.33
304.166	9.73
304.381	-145.92
304.595	175.61
304.809	28.16
305.023	46.59
305.237	24.06
305.452	-59.9
305.666	151.04
305.88	44.54
306.094	62.98
306.308	69.12
306.522	183.81
306.736	75.26
306.95	142.85
307.164	77.31
307.379	48.64
307.593	130.56
307.807	132.61
308.021	101.89
308.235	124.41
308.449	-41.47
308.663	73.21
308.877	183.81
309.091	116.22
309.305	77.31
309.519	-96.77
309.733	95.74
309.947	-16.9
310.161	93.69
310.374	5.63
310.588	95.74
310.802	-49.66
311.016	46.59
311.23	22.02
311.444	54.78
311.658	-12.8
311.872	85.5
312.085	148.99
312.299	40.45
312.513	165.37
312.727	85.5
312.941	62.98
313.154	56.83
313.368	40.45
313.582	87.55
313.796	28.16
314.009	24.06
314.223	124.41
314.437	120.32
314.651	87.55
314.864	11.78
315.078	69.12
315.292	-55.81
315.505	-70.14
315.719	30.21
315.933	95.74
316.146	3.58
316.36	-29.18
316.573	181.76
316.787	69.12
317.001	97.79
317.214	-16.9
317.428	34.3
317.641	-70.14
317.855	65.02
318.068	13.82
318.282	101.89
318.495	146.94
318.709	-6.66
318.922	22.02
319.136	194.05
319.349	67.07
319.563	50.69
319.776	105.98
319.99	-72.19
320.203	120.32
320.417	11.78
320.63	26.11
320.843	128.51
321.057	77.31
321.27	-18.94
321.483	157.18
321.697	192
321.91	28.16
322.124	124.41
322.337	54.78
322.55	-8.7
322.763	103.93
322.977	-2.56
323.19	22.02
323.403	95.74
323.617	11.78
323.83	89.6
324.043	9.73
324.256	95.74
324.469	-70.14
324.683	124.41
324.896	-49.66
325.109	24.06
325.322	-47.62
325.535	83.45
325.748	36.35
325.962	15.87
326.175	60.93
326.388	81.41
326.601	62.98
326.814	5.63
327.027	-4.61
327.24	99.84
327.453	-45.57
327.666	44.54
327.879	120.32
328.092	79.36
328.305	46.59
328.518	-31.23
328.731	3.58
328.944	54.78
329.157	58.88
329.37	28.16
329.583	163.33
329.796	112.13
330.009	-23.04
330.222	69.12
330.435	87.55
330.648	67.07
330.861	62.98
331.073	15.87
331.286	19.97
331.499	77.31
331.712	9.73
331.925	85.5
332.138	-0.51
332.35	95.74
332.563	-4.61
332.776	93.69
332.989	-72.19
333.202	-12.8
333.414	87.55
333.627	54.78
333.84	38.4
334.053	97.79
334.265	-12.8
334.478	79.36
334.691	32.26
334.903	62.98
335.116	5.63
335.329	-6.66
335.541	134.65
335.754	136.7
335.966	-20.99
336.179	-29.18
336.392	3.58
336.604	36.35
336.817	151.04
337.029	67.07
337.242	58.88
337.454	116.22
337.667	7.68
337.88	116.22
338.092	-4.61
338.305	44.54
338.517	1.54
338.729	5.63
338.942	71.17
339.154	48.64
339.367	-51.71
339.579	46.59
339.792	11.78
340.004	13.82
340.217	38.4
340.429	62.98
340.641	-0.51
340.854	-35.33
341.066	62.98
341.278	89.6
341.491	75.26
341.703	-37.38
341.915	-16.9
342.128	112.13
342.34	97.79
342.552	40.45
342.764	101.89
342.977	52.74
343.189	34.3
343.401	50.69
343.613	3.58
343.826	-57.86
344.038	-12.8
344.25	38.4
344.462	5.63
344.674	83.45
344.886	-4.61
345.099	40.45
345.311	95.74
345.523	-33.28
345.735	-104.96
345.947	-2.56
346.159	60.93
346.371	54.78
346.583	13.82
346.795	230.91
347.007	-0.51
347.219	19.97
347.431	38.4
347.643	71.17
347.855	93.69
348.067	112.13
348.279	-43.52
348.491	62.98
348.703	108.03
348.915	-59.9
349.127	24.06
349.339	-4.61
349.551	34.3
349.763	32.26
349.975	13.82
350.187	173.57
350.399	142.85
350.61	-31.23
350.822	67.07
351.034	15.87
351.246	85.5
351.458	85.5
351.669	87.55
351.881	83.45
352.093	114.17
352.305	71.17
352.517	58.88
352.728	146.94
352.94	11.78
353.152	118.27
353.363	-39.42
353.575	67.07
353.787	69.12
353.999	87.55
354.21	112.13
354.422	44.54
354.633	-35.33
354.845	44.54
355.057	13.82
355.268	19.97
355.48	110.08
355.692	-76.29
355.903	-4.61
356.115	-20.99
356.326	-33.28
356.538	116.22
356.749	38.4
356.961	126.46
357.172	116.22
357.384	-119.29
357.595	245.24
357.807	-2.56
358.018	-18.94
358.23	50.69
358.441	126.46
358.653	146.94
358.864	42.5
359.075	42.5
359.287	112.13
359.498	112.13
359.709	60.93
359.921	-20.99
360.132	15.87
360.344	58.88
360.555	22.02
360.766	1.54
360.977	-4.61
361.189	42.5
361.4	-68.09
361.611	101.89
361.823	87.55
362.034	17.92
362.245	-41.47
362.456	-72.19
362.667	42.5
362.879	9.73
363.09	105.98
363.301	11.78
363.512	75.26
363.723	5.63
363.935	-55.81
364.146	58.88
364.357	3.58
364.568	26.11
364.779	-104.96
364.99	136.7
365.201	-72.19
365.412	58.88
365.623	-92.67
365.834	42.5
366.045	58.88
366.256	13.82
366.467	46.59
366.678	54.78
366.889	95.74
367.1	19.97
367.311	108.03
367.522	13.82
367.733	62.98
367.944	60.93
368.155	-6.66
368.366	153.09
368.577	67.07
368.788	120.32
368.999	32.26
369.209	-27.14
369.42	142.85
369.631	253.44
369.842	87.55
370.053	71.17
370.264	120.32
370.474	11.78
370.685	73.21
370.896	69.12
371.107	126.46
371.317	32.26
371.528	67.07
371.739	153.09
371.95	58.88
372.16	93.69
372.371	-31.23
372.582	71.17
372.792	54.78
373.003	95.74
373.214	22.02
373.424	36.35
373.635	32.26
373.846	128.51
374.056	5.63
374.267	-27.14
374.477	50.69
374.688	-14.85
374.898	77.31
375.109	54.78
375.319	103.93
375.53	114.17
375.74	58.88
375.951	5.63
376.161	30.21
376.372	81.41
376.582	-16.9
376.793	105.98
377.003	-18.94
377.214	32.26
377.424	87.55
377.635	-23.04
377.845	26.11
378.055	167.42
378.266	-92.67
378.476	42.5
378.686	-31.23
378.897	-27.14
379.107	62.98
379.317	26.11
379.528	36.35
379.738	54.78
379.948	-90.62
380.158	87.55
380.369	19.97
380.579	54.78
380.789	15.87
380.999	65.02
381.21	110.08
381.42	224.76
381.63	85.5
381.84	116.22
382.05	22.02
382.261	153.09
382.471	7.68
382.681	3.58
382.891	157.18
383.101	126.46
383.311	19.97
383.521	-4.61
383.731	136.7
383.941	-6.66
384.151	65.02
384.361	44.54
384.571	110.08
384.781	75.26
384.991	110.08
385.201	62.98
385.411	54.78
385.621	81.41
385.831	93.69
386.041	79.36
386.251	71.17
386.461	128.51
386.671	13.82
386.881	17.92
387.091	-29.18
387.301	95.74
387.511	62.98
387.72	116.22
387.93	112.13
388.14	-41.47
388.35	46.59
388.56	73.21
388.769	44.54
388.979	-18.94
389.189	-10.75
389.399	-12.8
389.609	1.54
389.818	103.93
390.028	62.98
390.238	52.74
390.447	-43.52
390.657	103.93
390.867	-12.8
391.076	-43.52
391.286	69.12
391.496	11.78
391.705	-53.76
391.915	87.55
392.125	38.4
392.334	50.69
392.544	128.51
392.753	81.41
392.963	13.82
393.172	69.12
393.382	44.54
393.591	183.81
393.801	-16.9
394.01	128.51
394.22	151.04
394.429	-14.85
394.639	17.92
394.848	93.69
395.058	46.59
395.267	17.92
395.477	140.8
395.686	-18.94
395.895	253.44
396.105	167.42
396.314	-2.56
396.524	-10.75
396.733	-2.56
396.942	40.45
397.152	77.31
397.361	101.89
397.57	85.5
397.78	77.31
397.989	-0.51
398.198	185.85
398.407	54.78
398.617	46.59
398.826	5.63
399.035	-2.56
399.244	110.08
399.453	38.4
399.663	60.93
399.872	50.69
400.081	3.58
400.29	73.21
400.499	22.02
400.708	177.66
400.917	46.59
401.127	22.02
401.336	-4.61
401.545	163.33
401.754	144.89
401.963	46.59
402.172	-18.94
402.381	-68.09
402.59	-18.94
402.799	46.59
403.008	157.18
403.217	36.35
403.426	103.93
403.635	-70.14
403.844	17.92
404.053	15.87
404.262	42.5
404.471	103.93
404.68	62.98
404.888	-55.81
405.097	99.84
405.306	13.82
405.515	153.09
405.724	97.79
405.933	118.27
406.142	85.5
406.35	95.74
406.559	17.92
406.768	38.4
406.977	171.52
407.185	138.75
407.394	46.59
407.603	19.97
407.812	-4.61
408.02	101.89
408.229	46.59
408.438	1.54
408.646	-6.66
408.855	5.63
409.064	81.41
409.272	38.4
409.481	54.78
409.69	17.92
409.898	-0.51
410.107	67.07
410.315	110.08
410.524	-31.23
410.733	114.17
410.941	28.16
411.15	54.78
411.358	142.85
411.567	132.61
411.775	126.46
411.984	58.88
412.192	42.5
412.401	-18.94
412.609	85.5
412.818	161.28
413.026	79.36
413.234	7.68
413.443	11.78
413.651	-14.85
413.86	38.4
414.068	136.7
414.276	134.65
414.485	-6.66
414.693	130.56
414.901	114.17
415.11	85.5
415.318	103.93
415.526	24.06
415.734	40.45
415.943	3.58
416.151	146.94
416.359	-0.51
416.567	48.64
416.776	120.32
416.984	114.17
417.192	110.08
417.4	5.63
417.608	101.89
417.817	22.02
418.025	177.66
418.233	103.93
418.441	38.4
418.649	3.58
418.857	124.41
419.065	153.09
419.273	87.55
419.481	71.17
419.689	9.73
419.897	54.78
420.105	-2.56
420.313	116.22
420.521	126.46
420.729	148.99
420.937	-39.42
421.145	-14.85
421.353	7.68
421.561	179.71
421.769	24.06
421.977	-10.75
422.185	153.09
422.393	17.92
422.601	189.95
422.809	9.73
423.017	71.17
423.224	-12.8
423.432	101.89
423.64	134.65
423.848	124.41
424.056	-2.56
424.263	126.46
424.471	60.93
424.679	130.56
424.887	-10.75
425.094	126.46
425.302	9.73
425.51	-35.33
425.718	114.17
425.925	87.55
426.133	13.82
426.341	116.22
426.548	-29.18
426.756	52.74
426.964	155.13
427.171	30.21
427.379	50.69
427.586	62.98
427.794	130.56
428.001	122.37
428.209	110.08
428.417	183.81
428.624	58.88
428.832	126.46
429.039	73.21
429.247	81.41
429.454	77.31
429.662	175.61
429.869	142.85
430.076	103.93
430.284	93.69
430.491	130.56
430.699	136.7
430.906	126.46
431.114	198.14
431.321	71.17
431.528	95.74
431.736	54.78
431.943	130.56
432.15	169.47
432.358	126.46
432.565	220.67
432.772	60.93
432.979	136.7
433.187	185.85
433.394	103.93
433.601	93.69
433.808	214.52
434.016	218.62
434.223	198.14
434.43	202.24
434.637	218.62
434.844	171.52
435.052	159.23
435.259	140.8
435.466	171.52
435.673	173.57
435.88	286.2
436.087	364.03
436.294	337.4
436.501	249.34
436.708	224.76
436.915	241.15
437.122	239.1
437.329	267.77
437.537	308.73
437.743	302.59
437.95	361.98
438.157	310.78
438.364	226.81
438.571	327.16
438.778	394.75
438.985	339.45
439.192	468.47
439.399	398.84
439.606	456.19
439.813	443.9
440.02	478.71
440.227	607.73
440.433	421.37
440.64	458.23
440.847	402.94
441.054	513.53
441.261	548.34
441.467	394.75
441.674	429.56
441.881	634.36
442.088	554.49
442.294	568.82
442.501	628.21
442.708	624.12
442.914	589.3
443.121	691.7
443.328	675.32
443.534	751.09
443.741	822.77
443.948	617.97
444.154	794.1
444.361	939.51
444.568	892.4
444.774	820.72
444.981	781.81
445.187	1037.81
445.394	986.61
445.6	896.5
445.807	1086.96
446.013	1025.52
446.22	1019.38
446.426	1201.65
446.633	1283.56
446.839	1357.29
447.046	1197.55
447.252	1426.92
447.459	1261.04
447.665	1299.95
447.871	1545.7
448.078	1557.99
448.284	1555.94
448.491	1611.24
448.697	1730.02
448.903	1789.41
449.11	1893.86
449.316	1828.32
449.522	2029.03
449.728	1969.63
449.935	2100.7
450.141	2041.31
450.347	2315.74
450.553	2246.11
450.76	2272.73
450.966	2403.8
451.172	2450.91
451.378	2528.73
451.584	2624.98
451.791	2846.16
451.997	2895.32
452.203	2899.41
452.409	3108.3
452.615	3278.29
452.821	3204.56
453.027	3028.43
453.233	3478.99
453.44	3335.63
453.646	3743.17
453.852	3679.69
454.058	4076.99
454.264	4105.67
454.47	4378.05
454.676	4281.79
454.882	4789.69
455.088	4611.51
455.294	4830.65
455.5	5070.26
455.705	5350.83
455.911	5424.56
456.117	5598.63
456.323	5817.77
456.529	5764.52
456.735	6272.42
456.941	6288.8
457.147	6593.95
457.352	6745.5
457.558	7173.52
457.764	7359.89
457.97	7493.01
458.176	8041.86
458.381	8363.39
458.587	8541.57
458.793	8940.92
458.999	8967.54
459.204	9995.62
459.41	10452.32
459.616	10286.44
459.821	10554.72
460.027	11355.47
460.233	11607.37
460.438	11662.67
460.644	12551.49
460.85	12447.04
461.055	13153.59
461.261	13464.88
461.466	13475.12
461.672	13800.75
461.878	15439.12
462.083	14984.48
462.289	15506.71
462.494	16119.05
462.7	16229.64
462.905	16491.78
463.111	17702.13
463.316	18629.86
463.522	18992.35
463.727	19533.01
463.932	20364.49
464.138	21148.86
464.343	22086.83
464.549	22242.48
464.754	23577.75
464.959	23852.18
465.165	24636.55
465.37	24437.9
465.575	24343.69
465.781	26098.8
465.986	26748.01
466.191	26260.59
466.397	26516.59
466.602	25996.4
466.807	27571.29
467.012	28023.89
467.218	28499.02
467.423	28646.47
467.628	29396.03
467.833	30702.64
468.038	30229.55
468.244	29762.62
468.449	31417.38
468.654	30657.58
468.859	30835.75
469.064	30794.79
469.269	29991.99
469.474	30227.51
469.679	31243.3
469.885	30168.12
470.09	30768.17
470.295	31054.89
470.5	30041.14
470.705	30053.43
470.91	29285.44
471.115	28935.24
471.32	29269.06
471.525	29252.67
471.73	28460.11
471.935	28214.35
472.139	27442.27
472.344	27382.88
472.549	26893.41
472.754	26750.06
472.959	25908.34
473.164	25564.28
473.369	24720.52
473.574	25310.33
473.778	25068.67
473.983	24622.22
474.188	24077.46
474.393	22813.86
474.598	23088.29
474.802	22250.67
475.007	22256.81
475.212	21939.38
475.417	20894.91
475.621	21099.71
475.826	20649.16
476.031	19946.7
476.235	19674.32
476.44	19592.41
476.645	19113.18
476.849	19037.41
477.054	18810.08
477.259	18285.8
477.463	18124.01
477.668	17700.08
477.872	17777.9
478.077	17243.38
478.282	16602.37
478.486	16694.53
478.691	16317.7
478.895	16338.18
479.1	16270.6
479.304	16026.89
479.509	15645.97
479.713	15787.28
479.918	15443.22
480.122	15183.13
480.326	15275.29
480.531	15103.26
480.735	14972.19
480.94	14482.72
481.144	15097.11
481.348	14402.85
481.553	14363.94
481.757	14034.22
481.961	14241.06
482.166	14196.01
482.37	14284.07
482.574	13993.26
482.778	13993.26
482.983	13815.09
483.187	13833.52
483.391	13698.35
483.595	13215.03
483.8	13079.86
484.004	13337.91
484.208	13290.81
484.412	13002.04
484.616	12821.82
484.821	12594.5
485.025	12164.42
485.229	12330.31
485.433	12135.75
485.637	12143.94
485.841	11785.55
486.045	11609.42
486.249	11691.34
486.453	11459.92
486.657	11183.45
486.861	11117.91
487.065	10569.05
487.269	10861.91
487.473	10399.07
487.677	10728.8
487.881	10538.34
488.085	10120.55
488.289	10153.32
488.493	9471.34
488.697	9688.43
488.901	9614.7
489.105	9287.03
489.309	9112.95
489.512	8981.88
489.716	8832.38
489.92	8646.01
490.124	8557.95
490.328	8387.97
490.531	8215.94
490.735	8017.29
490.939	8074.63
491.143	8056.2
491.346	7656.84
491.55	7533.97
491.754	7353.74
491.958	7370.13
492.161	7148.95
492.365	7333.26
492.569	6935.96
492.772	6892.95
492.976	6739.35
493.18	6823.32
493.383	6813.08
493.587	6608.28
493.79	6739.35
493.994	6464.93
494.197	6370.72
494.401	6333.86
494.605	6321.57
494.808	6286.75
495.012	6122.91
495.215	6186.4
495.419	6090.15
495.622	5940.65
495.825	6018.47
496.029	5918.12
496.232	5889.45
496.436	5758.38
496.639	6002.08
496.843	5748.14
497.046	5809.58
497.249	5836.2
497.453	5862.82
497.656	5823.91
497.859	5807.53
498.063	5866.92
498.266	5928.36
498.469	5764.52
498.673	5979.56
498.876	5965.22
499.079	5889.45
499.282	6008.23
499.485	6239.65
499.689	6024.61
499.892	6151.59
500.095	5920.17
500.298	6120.87
500.501	5954.98
500.705	6241.7
500.908	6294.94
501.111	6346.14
501.314	6542.75
501.517	6575.52
501.72	6561.18
501.923	6491.55
502.126	6620.57
502.329	6813.08
502.532	6718.87
502.735	6804.89
502.938	6960.53
503.141	7048.6
503.344	7005.59
503.547	7103.89
503.75	7175.57
503.953	7245.2
504.156	7490.96
504.359	7546.25
504.562	7486.86
504.765	7714.19
504.968	7804.3
505.17	7980.42
505.373	8017.29
505.576	8293.76
505.779	8492.41
505.982	8525.18
506.185	8795.51
506.387	8711.55
506.59	8916.34
506.793	8949.11
506.996	9082.23
507.198	9575.79
507.401	9569.65
507.604	9868.65
507.807	9893.23
508.009	10079.59
508.212	10235.24
508.415	10442.08
508.617	10931.55
508.82	10866.01
509.022	11177.3
509.225	11474.26
509.428	11404.63
509.63	11740.49
509.833	12145.99
510.035	12551.49
510.238	12461.38
510.44	13077.82
510.643	13251.89
510.845	13548.85
511.048	13581.62
511.25	13929.77
511.453	14257.45
511.655	14986.52
511.858	14961.95
512.06	15435.03
512.262	15705.36
512.465	15858.96
512.667	16305.42
512.87	16712.96
513.072	16999.68
513.274	17552.63
513.477	17951.98
513.679	18435.3
513.881	18525.41
514.084	19229.91
514.286	19377.37
514.488	19758.29
514.69	20546.76
514.893	20925.63
515.095	21544.12
515.297	21513.4
515.499	21896.37
515.701	22584.49
515.904	22946.98
516.106	23456.92
516.308	24329.36
516.51	24419.47
516.712	24743.05
516.914	25691.26
517.116	26061.94
517.318	26330.22
517.52	26887.27
517.722	27192.42
517.925	28060.76
518.127	28388.43
518.329	29328.45
518.531	29160.52
518.733	30293.04
518.935	30551.09
519.136	31097.89
519.338	31542.3
519.54	32218.13
519.742	32627.73
519.944	33209.35
520.146	33672.19
520.348	34378.74
520.55	34608.11
520.752	35144.68
520.954	35453.92
521.155	35765.21
521.357	36363.22
521.559	36895.69
521.761	37641.15
521.963	37694.4
522.164	37938.11
522.366	38452.15
522.568	38575.03
522.77	38933.42
522.971	39592.87
523.173	39510.95
523.375	39822.24
523.576	39838.62
523.778	39990.17
523.98	40739.73
524.181	40680.34
524.383	41554.82
524.584	41442.18
524.786	41001.87
524.988	41343.88
525.189	41503.62
525.391	41507.72
525.592	41683.84
525.794	41587.59
525.995	41819.01
526.197	41896.83
526.398	41728.9
526.6	41653.12
526.801	41589.64
527.003	41440.14
527.204	41313.16
527.406	41847.68
527.607	41067.41
527.808	41268.11
528.01	40295.32
528.211	40489.88
528.412	41155.47
528.614	40242.07
528.815	39857.06
529.016	40467.35
529.218	39590.82
529.419	39111.6
529.62	39302.06
529.822	38542.26
530.023	38742.96
530.224	37866.43
530.425	37417.93
530.626	36721.62
530.828	36613.07
531.029	36621.27
531.23	36084.7
531.431	35539.94
531.632	35642.34
531.833	35349.48
532.035	34487.28
532.236	34456.56
532.437	34360.31
532.638	33072.14
532.839	33227.78
533.04	32803.85
533.241	32062.49
533.442	32443.41
533.643	31665.18
533.844	30874.66
534.045	30514.22
534.246	29873.21
534.447	30405.68
534.648	29613.12
534.849	29371.46
535.05	28691.53
535.251	28370
535.451	27864.15
535.652	27612.25
535.853	27274.34
536.054	27008.1
536.255	26575.98
536.456	25734.26
536.657	25963.64
536.857	25414.78
537.058	25146.5
537.259	24999.04
537.46	24831.11
537.66	24036.5
537.861	23997.59
538.062	23411.87
538.263	23311.52
538.463	23172.25
538.664	22932.64
538.865	22506.66
539.065	22308.01
539.266	21691.57
539.466	21812.4
539.667	21400.76
539.868	21312.7
540.068	20837.57
540.269	20745.41
540.469	20720.84
540.67	20333.77
540.87	19895.5
541.071	19838.16
541.271	19703
541.472	19111.13
541.672	18881.76
541.873	18803.94
542.073	18337
542.274	18529.51
542.474	18216.17
542.675	17652.98
542.875	17992.94
543.075	17439.99
543.276	17388.79
543.476	17347.83
543.676	17048.83
543.877	16858.37
544.077	16487.68
544.277	16301.32
544.478	16401.67
544.678	16094.47
544.878	15944.97
545.078	15826.19
545.279	15482.13
545.479	15340.82
545.679	15213.85
545.879	15168.79
546.079	14861.6
546.28	14636.32
546.48	14540.07
546.68	14445.86
546.88	14361.89
547.08	14177.58
547.28	13571.38
547.48	13591.86
547.68	13608.24
547.88	13436.21
548.081	13141.3
548.281	12999.99
548.481	12703.04
548.681	12684.61
548.881	12700.99
549.081	12213.57
549.28	12084.55
549.48	12203.33
549.68	11918.67
549.88	11926.86
550.08	11451.73
550.28	11527.5
550.48	11244.88
550.68	11263.32
550.88	10909.02
551.08	10986.84
551.279	10698.08
551.479	10437.98
551.679	10431.84
551.879	10206.56
552.079	10085.73
552.278	9932.14
552.478	9925.99
552.678	9583.98
552.878	9629.04
553.077	9510.25
553.277	9117.04
553.477	9350.51
553.676	8969.59
553.876	8916.34
554.076	8777.08
554.275	8445.31
554.475	8347.01
554.674	8215.94
554.874	8050.05
555.074	7957.89
555.273	7703.95
555.473	7720.33
555.672	7718.28
555.872	7490.96
556.071	7253.39
556.271	7277.97
556.47	7200.15
556.67	6827.42
556.869	6806.94
557.068	6790.55
557.268	6630.81
557.467	6518.17
557.667	6581.66
557.866	6253.98
558.065	6301.09
558.265	6235.55
558.464	6022.56
558.663	5952.93
558.863	5879.21
559.062	5799.34
559.261	5461.42
559.461	5643.69
559.66	5524.91
559.859	5356.97
560.058	5252.53
560.258	5094.83
560.457	5143.99
560.656	5221.81
560.855	4844.98
561.054	4908.47
561.253	4701.62
561.453	4777.4
561.652	4715.96
561.851	4634.04
562.05	4529.59
562.249	4255.17
562.448	4324.8
562.647	4206.02
562.846	4310.46
563.045	4246.98
563.244	4021.7
563.443	4154.82
563.642	4027.84
563.841	3929.54
564.04	3798.47
564.239	3765.7
564.438	3716.55
564.637	3534.28
564.836	3694.02
565.035	3427.79
565.234	3610.06
565.432	3507.66
565.631	3341.77
565.83	3380.68
566.029	3384.78
566.228	3149.26
566.427	3343.82
566.625	3098.06
566.824	3153.36
567.023	2985.43
567.222	3122.64
567.42	3024.34
567.619	2870.74
567.818	2938.32
568.016	2928.08
568.215	2897.36
568.414	2776.53
568.612	2864.6
568.811	2723.29
569.01	2678.23
569.208	2649.56
569.407	2637.27
569.605	2594.26
569.804	2528.73
570.002	2401.76
570.201	2317.79
570.4	2401.76
570.598	2332.12
570.797	2342.36
570.995	2213.34
571.193	2221.53
571.392	2258.4
571.59	2010.59
571.789	2090.46
571.987	2127.33
572.186	2092.51
572.384	2016.74
572.582	2055.65
572.781	2094.56
572.979	1781.22
573.177	1926.63
573.376	1848.8
573.574	1936.87
573.772	1900
573.971	1781.22
574.169	1676.77
574.367	1773.03
574.565	1641.96
574.763	1754.6
574.962	1648.1
575.16	1557.99
575.358	1504.75
575.556	1572.33
575.754	1568.23
575.952	1668.58
576.151	1521.13
576.349	1514.98
576.547	1271.28
576.745	1369.58
576.943	1416.68
577.141	1363.44
577.339	1334.76
577.537	1320.43
577.735	1340.91
577.933	1293.8
578.131	1310.19
578.329	1345
578.527	1168.88
578.725	1394.15
578.923	1162.73
579.121	1222.13
579.319	1054.19
579.516	1160.69
579.714	1363.44
579.912	1222.13
580.11	1052.14
580.308	1080.82
580.506	978.42
580.704	929.27
580.901	992.75
581.099	1127.92
581.297	1093.1
581.495	1107.44
581.692	906.74
581.89	1127.92
582.088	984.56
582.285	898.55
582.483	867.83
582.681	927.22
582.878	841.2
583.076	923.12
583.274	894.45
583.471	939.51
583.669	873.97
583.866	837.11
584.064	765.43
584.262	734.71
584.459	753.14
584.657	828.92
584.854	859.63
585.052	773.62
585.249	738.8
585.447	779.76
585.644	652.79
585.841	779.76
586.039	708.09
586.236	773.62
586.434	734.71
586.631	634.36
586.828	697.85
587.026	601.59
587.223	542.2
587.42	603.64
587.618	640.5
587.815	622.07
588.012	660.98
588.21	626.17
588.407	611.83
588.604	693.75
588.801	544.25
588.999	534.01
589.196	597.49
589.393	488.95
589.59	607.73
589.787	615.93
589.984	579.06
590.182	554.49
590.379	466.42
590.576	544.25
590.773	558.58
590.97	554.49
591.167	638.45
591.364	570.87
591.561	546.3
591.758	724.47
591.955	552.44
592.152	593.4
592.349	517.62
592.546	540.15
592.743	456.19
592.94	527.86
593.137	589.3
593.334	550.39
593.531	556.54
593.727	523.77
593.924	554.49
594.121	519.67
594.318	476.66
594.515	515.58
594.712	693.75
594.908	636.41
595.105	484.86
595.302	574.97
595.499	581.11
595.696	683.51
595.892	562.68
596.089	697.85
596.286	620.02
596.482	755.19
596.679	613.88
596.876	544.25
597.072	759.28
597.269	622.07
597.466	620.02
597.662	722.42
597.859	673.27
598.055	699.89
598.252	767.48
598.448	880.11
598.645	925.17
598.841	847.35
599.038	931.31
599.234	959.99
599.431	916.98
599.627	947.7
599.824	1009.14
600.02	1068.53
600.217	990.7
600.413	1041.9
600.609	1172.97
600.806	1447.4
601.002	1406.44
601.198	1275.37
601.395	1289.71
601.591	1363.44
601.787	1414.63
601.984	1486.31
602.18	1551.85
602.376	1539.56
602.572	1644.01
602.769	1768.93
602.965	1717.73
603.161	1998.31
603.357	1781.22
603.553	2049.5
603.75	1924.58
603.946	2045.41
604.142	2270.69
604.338	2428.38
604.534	2264.54
604.73	2375.13
604.926	2371.04
605.122	2622.94
605.318	2604.5
605.514	2641.37
605.71	2729.43
605.906	2966.99
606.102	2805.21
606.298	3114.45
606.494	3075.54
606.69	3388.88
606.886	3333.58
607.082	3306.96
607.278	3409.36
607.474	3663.3
607.67	3806.66
607.866	3712.46
608.062	3904.96
608.257	4017.6
608.453	3966.4
608.649	4181.44
608.845	4265.41
609.041	4347.33
609.236	4453.82
609.432	4648.38
609.628	4838.84
609.824	4980.15
610.019	4814.26
610.215	5051.83
610.411	5361.07
610.606	5377.45
610.802	5543.34
610.998	5703.08
611.193	5895.59
611.389	6002.08
611.584	6124.96
611.78	6225.31
611.976	6378.91
612.171	6741.4
612.367	6755.74
612.562	6981.01
612.758	7200.15
612.953	7198.1
613.149	7611.79
613.344	7781.77
613.539	7994.76
613.735	8209.79
613.93	8332.67
614.126	8613.24
614.321	8820.09
614.517	9090.42
614.712	9065.85
614.907	9530.73
615.103	9925.99
615.298	9932.14
615.493	10145.13
615.688	10343.78
615.884	10929.5
616.079	10933.59
616.274	11539.79
616.47	11623.76
616.665	11869.51
616.86	12002.63
617.055	12383.56
617.25	12766.53
617.445	13061.43
617.641	12932.41
617.836	13790.51
618.031	13690.16
618.226	14284.07
618.421	14441.76
618.616	15000.86
618.811	15271.19
619.006	15680.78
619.201	15799.57
619.396	16317.7
619.591	16708.87
619.786	17286.39
619.981	16997.63
620.176	18042.09
620.371	17876.21
620.566	18566.37
620.761	19012.83
620.956	19348.7
621.151	19371.22
621.346	20030.67
621.541	20096.21
621.735	20720.84
621.93	21048.51
622.125	21513.4
622.32	21468.34
622.515	22217.9
622.709	22467.75
622.904	23188.64
623.099	23405.72
623.294	23532.7
623.488	23764.12
623.683	24898.69
623.878	24691.85
624.072	25400.44
624.267	25603.19
624.462	25947.25
624.656	26502.25
624.851	27044.96
625.046	27196.51
625.24	27593.82
625.435	28023.89
625.629	28298.32
625.824	29006.92
626.018	29346.88
626.213	28904.52
626.407	29815.87
626.602	29826.1
626.796	30364.72
626.991	30524.46
627.185	31194.15
627.38	31091.75
627.574	31355.94
627.768	31444
627.963	31702.04
628.157	31390.75
628.352	32242.71
628.546	31595.55
628.74	32373.78
628.935	31902.75
629.129	32154.65
629.323	31446.05
629.517	31935.51
629.712	31450.14
629.906	31312.93
630.1	30983.21
630.294	30700.59
630.489	30526.51
630.683	30391.34
630.877	29469.76
631.071	28785.74
631.265	28869.7
631.459	28062.8
631.653	27374.69
631.848	26799.21
632.042	26098.8
632.236	25889.91
632.43	24786.05
632.624	24691.85
632.818	23436.44
633.012	22871.2
633.206	21875.89
633.4	21742.77
633.594	20856
633.788	20235.47
633.982	19791.06
634.176	18824.42
634.369	18083.05
634.563	17239.29
634.757	16925.95
634.951	16305.42
635.145	15576.34
635.339	15013.15
635.533	14220.58
635.726	13917.48
635.92	13110.58
636.114	12690.75
636.308	12238.15
636.501	11885.9
636.695	11423.06
636.889	10835.29
637.083	10341.73
637.276	9913.7
637.47	9284.98
637.664	9022.84
637.857	8799.61
638.051	8355.2
638.244	8011.14
638.438	7814.54
638.632	7495.05
638.825	7120.28
639.019	6958.49
639.212	6540.7
639.406	6518.17
639.599	6014.37
639.793	5698.99
639.986	5705.13
640.18	5555.63
640.373	5191.09
640.567	4998.58
640.76	4894.13
640.954	4738.49
641.147	4439.48
641.34	4355.52
641.534	4126.15
641.727	4031.94
641.92	3794.37
642.114	3712.46
642.307	3483.08
642.5	3296.72
642.694	3255.76
642.887	3024.34
643.08	3007.95
643.273	2911.7
643.467	2747.86
643.66	2778.58
643.853	2502.11
644.046	2555.35
644.239	2428.38
644.432	2110.94
644.626	2069.98
644.819	2119.14
645.012	2110.94
645.205	2067.94
645.398	1865.19
645.591	1842.66
645.784	1617.38
645.977	1605.1
646.17	1656.29
646.363	1535.46
646.556	1469.93
646.749	1390.06
646.942	1373.68
647.135	1416.68
647.328	1240.56
647.521	1340.91
647.714	1191.41
647.907	1156.59
648.099	1086.96
648.292	1048.05
648.485	984.56
648.678	914.93
648.871	984.56
649.064	972.27
649.256	835.06
649.449	763.38
649.642	755.19
649.835	767.48
650.027	783.86
650.22	806.39
650.413	656.89
650.605	890.35
650.798	671.22
650.991	677.37
651.183	585.21
651.376	634.36
651.568	603.64
651.761	519.67
651.954	609.78
652.146	515.58
652.339	648.69
652.531	554.49
652.724	445.95
652.916	476.66
653.109	288.25
653.301	443.9
653.494	495.1
653.686	349.69
653.879	550.39
654.071	472.57
654.263	398.84
654.456	368.12
654.648	468.47
654.84	409.08
655.033	255.48
655.225	378.36
655.417	271.87
655.61	435.71
655.802	357.88
655.994	374.27
656.186	302.59
656.379	413.18
656.571	282.11
656.763	280.06
656.955	216.57
657.148	284.16
657.34	335.35
657.532	271.87
657.724	235
657.916	341.5
658.108	323.07
658.3	290.3
658.492	165.37
658.684	218.62
658.876	325.12
659.068	153.09
659.26	118.27
659.452	159.23
659.644	243.2
659.836	284.16
660.028	269.82
660.22	175.61
660.412	183.81
660.604	165.37
660.796	175.61
660.988	271.87
661.18	202.24
661.372	181.76
661.563	132.61
661.755	148.99
661.947	13.82
662.139	124.41
662.331	71.17
662.522	142.85
662.714	91.65
662.906	142.85
663.097	91.65
663.289	204.28
663.481	-23.04
663.673	189.95
663.864	103.93
664.056	202.24
664.247	71.17
664.439	165.37
664.631	230.91
664.822	144.89
665.014	108.03
665.205	50.69
665.397	46.59
665.588	210.43
665.78	214.52
665.971	206.33
666.163	-0.51
666.354	50.69
666.546	52.74
666.737	91.65
666.929	95.74
667.12	132.61
667.311	140.8
667.503	93.69
667.694	169.47
667.885	142.85
668.077	206.33
668.268	22.02
668.459	122.37
668.651	89.6
668.842	167.42
669.033	26.11
669.224	120.32
669.416	255.48
669.607	81.41
669.798	124.41
669.989	257.53
670.18	142.85
670.371	224.76
670.563	24.06
670.754	173.57
670.945	200.19
671.136	167.42
671.327	83.45
671.518	218.62
671.709	206.33
671.9	112.13
672.091	167.42
672.282	134.65
672.473	124.41
672.664	65.02
672.855	146.94
673.046	163.33
673.237	161.28
673.428	19.97
673.619	148.99
673.809	136.7
674	241.15
674.191	130.56
674.382	169.47
674.573	126.46
674.764	165.37
674.954	267.77
675.145	-12.8
675.336	108.03
675.527	85.5
675.717	56.83
675.908	19.97
676.099	124.41
676.289	138.75
676.48	112.13
676.671	196.09
676.861	136.7
677.052	169.47
677.243	108.03
677.433	99.84
677.624	218.62
677.814	116.22
678.005	157.18
678.195	237.05
678.386	144.89
678.576	165.37
678.767	85.5
678.957	116.22
679.148	208.38
679.338	189.95
679.529	208.38
679.719	181.76
679.909	263.68
680.1	290.3
680.29	132.61
680.481	95.74
680.671	241.15
680.861	226.81
681.052	230.91
681.242	216.57
681.432	247.29
681.622	185.85
681.813	144.89
682.003	189.95
682.193	198.14
682.383	245.24
682.573	175.61
682.764	142.85
682.954	261.63
683.144	265.72
683.334	173.57
683.524	155.13
683.714	251.39
683.904	216.57
684.094	169.47
684.284	241.15
684.474	312.83
684.664	257.53
684.854	263.68
685.044	226.81
685.234	230.91
685.424	179.71
685.614	212.48
685.804	308.73
685.994	255.48
686.184	230.91
686.374	255.48
686.564	214.52
686.753	218.62
686.943	85.5
687.133	155.13
687.323	239.1
687.513	275.96
687.702	216.57
687.892	194.05
688.082	312.83
688.272	275.96
688.461	198.14
688.651	327.16
688.841	296.44
689.03	239.1
689.22	151.04
689.41	177.66
689.599	192
689.789	138.75
689.979	255.48
690.168	169.47
690.358	253.44
690.547	198.14
690.737	237.05
690.926	249.34
691.116	267.77
691.305	247.29
691.495	202.24
691.684	204.28
691.874	83.45
692.063	210.43
692.252	286.2
692.442	300.54
692.631	218.62
692.82	173.57
693.01	134.65
693.199	202.24
693.388	212.48
693.578	144.89
693.767	196.09
693.956	243.2
694.146	177.66
694.335	175.61
694.524	179.71
694.713	241.15
694.902	222.72
695.092	140.8
695.281	218.62
695.47	157.18
695.659	75.26
695.848	120.32
696.037	134.65
696.226	183.81
696.415	185.85
696.604	222.72
696.793	290.3
696.982	132.61
697.171	288.25
697.36	169.47
697.549	173.57
697.738	87.55
697.927	103.93
698.116	161.28
698.305	202.24
698.494	169.47
698.683	71.17
698.872	308.73
699.061	140.8
699.25	181.76
699.438	306.68
699.627	159.23
699.816	312.83
700.005	54.78
700.193	65.02
700.382	214.52
700.571	157.18
700.76	259.58
700.948	243.2
701.137	224.76
701.326	261.63
701.514	146.94
701.703	224.76
701.892	165.37
702.08	271.87
702.269	189.95
702.457	124.41
702.646	202.24
702.834	134.65
703.023	226.81
703.212	224.76
703.4	177.66
703.589	177.66
703.777	249.34
703.965	77.31
704.154	273.92
704.342	120.32
704.531	183.81
704.719	177.66
704.907	257.53
705.096	148.99
705.284	87.55
705.472	255.48
705.661	161.28
705.849	278.01
706.037	245.24
706.226	128.51
706.414	271.87
706.602	153.09
706.79	232.96
706.979	134.65
707.167	159.23
707.355	128.51
707.543	202.24
707.731	239.1
707.919	161.28
708.107	157.18
708.296	112.13
708.484	136.7
708.672	284.16
708.86	159.23
709.048	198.14
709.236	130.56
709.424	169.47
709.612	226.81
709.8	155.13
709.988	146.94
710.176	192
710.364	314.88
710.551	181.76
710.739	161.28
710.927	120.32
711.115	175.61
711.303	292.35
711.491	235
711.679	157.18
711.866	273.92
712.054	101.89
712.242	235
712.43	255.48
712.617	167.42
712.805	243.2
712.993	185.85
713.181	77.31
713.368	216.57
713.556	218.62
713.744	177.66
713.931	341.5
714.119	251.39
714.306	185.85
714.494	122.37
714.682	187.9
714.869	95.74
715.057	216.57
715.244	136.7
715.432	247.29
715.619	110.08
715.807	206.33
715.994	185.85
716.182	161.28
716.369	298.49
716.556	286.2
716.744	50.69
716.931	196.09
717.119	224.76
717.306	173.57
717.493	280.06
717.681	169.47
717.868	116.22
718.055	253.44
718.242	216.57
718.43	243.2
718.617	249.34
718.804	167.42
718.991	314.88
719.179	189.95
719.366	181.76
719.553	202.24
719.74	237.05
719.927	95.74
720.114	183.81
720.301	177.66
720.488	247.29
720.676	151.04
720.863	280.06
721.05	355.83
721.237	243.2
721.424	263.68
721.611	243.2
721.798	148.99
721.985	216.57
722.172	194.05
722.358	196.09
722.545	290.3
722.732	306.68
722.919	337.4
723.106	226.81
723.293	151.04
723.48	269.82
723.667	218.62
723.853	304.64
724.04	259.58
724.227	251.39
724.414	200.19
724.6	261.63
724.787	316.92
724.974	382.46
725.161	251.39
725.347	187.9
725.534	278.01
725.72	255.48
725.907	251.39
726.094	249.34
726.28	187.9
726.467	239.1
726.653	232.96
726.84	249.34
727.027	308.73
727.213	243.2
727.4	271.87
727.586	257.53
727.773	267.77
727.959	212.48
728.145	269.82
728.332	206.33
728.518	194.05
728.705	212.48
728.891	308.73
729.077	261.63
729.264	269.82
729.45	187.9
729.636	275.96
729.823	310.78
730.009	374.27
730.195	241.15
730.382	284.16
730.568	286.2
730.754	286.2
730.94	228.86
731.126	349.69
731.313	304.64
731.499	261.63
731.685	323.07
731.871	325.12
732.057	290.3
732.243	259.58
732.429	337.4
732.615	390.65
732.801	304.64
732.987	214.52
733.173	247.29
733.359	120.32
733.545	271.87
733.731	214.52
733.917	384.51
734.103	310.78
734.289	273.92
734.475	286.2
734.661	325.12
734.847	312.83
735.033	298.49
735.219	312.83
735.404	183.81
735.59	173.57
735.776	267.77
735.962	275.96
736.148	314.88
736.333	282.11
736.519	257.53
736.705	251.39
736.89	224.76
737.076	306.68
737.262	185.85
737.447	251.39
737.633	232.96
737.819	271.87
738.004	361.98
738.19	249.34
738.375	306.68
738.561	366.07
738.747	226.81
738.932	241.15
739.118	452.09
739.303	278.01
739.489	333.31
739.674	280.06
739.859	146.94
740.045	310.78
740.23	366.07
740.416	167.42
740.601	345.59
740.786	251.39
740.972	224.76
741.157	235
741.342	255.48
741.528	235
741.713	400.89
741.898	284.16
742.084	282.11
742.269	321.02
742.454	347.64
742.639	341.5
742.824	292.35
743.01	425.47
743.195	378.36
743.38	296.44
743.565	202.24
743.75	202.24
743.935	339.45
744.12	435.71
744.305	183.81
744.49	269.82
744.675	316.92
744.86	243.2
745.045	392.7
745.23	298.49
745.415	226.81
745.6	347.64
745.785	310.78
745.97	355.83
746.155	267.77
746.34	357.88
746.525	339.45
746.71	331.26
746.895	130.56
747.079	249.34
747.264	263.68
747.449	331.26
747.634	290.3
747.819	194.05
748.003	310.78
748.188	118.27
748.373	316.92
748.557	275.96
748.742	257.53
748.927	253.44
749.111	271.87
749.296	222.72
749.481	321.02
749.665	224.76
749.85	173.57
750.034	185.85
750.219	183.81
750.404	185.85
750.588	310.78
750.773	247.29
750.957	251.39
751.141	243.2
751.326	300.54
751.51	189.95
751.695	241.15
751.879	210.43
752.064	261.63
752.248	243.2
752.432	323.07
752.617	282.11
752.801	259.58
752.985	241.15
753.17	269.82
753.354	265.72
753.538	294.4
753.722	134.65
753.907	208.38
754.091	185.85
754.275	204.28
754.459	161.28
754.643	167.42
754.828	189.95
755.012	210.43
755.196	153.09
755.38	128.51
755.564	144.89
755.748	187.9
755.932	153.09
756.116	251.39
756.3	208.38
756.484	173.57
756.668	183.81
756.852	34.3
757.036	118.27
757.22	218.62
757.404	194.05
757.588	87.55
757.772	189.95
757.956	120.32
758.14	263.68
758.323	214.52
758.507	239.1
758.691	144.89
758.875	222.72
759.059	306.68
759.242	157.18
759.426	161.28
759.61	144.89
759.794	95.74
759.977	245.24
760.161	351.74
760.345	208.38
760.528	232.96
760.712	161.28
760.895	163.33
761.079	120.32
761.263	122.37
761.446	148.99
761.63	126.46
761.813	187.9
761.997	44.54
762.18	146.94
762.364	157.18
762.547	30.21
762.731	153.09
762.914	101.89
763.098	42.5
763.281	177.66
763.464	58.88
763.648	87.55
763.831	93.69
764.015	87.55
764.198	181.76
764.381	206.33
764.564	126.46
764.748	142.85
764.931	140.8
765.114	103.93
765.297	220.67
765.481	32.26
765.664	177.66
765.847	58.88
766.03	208.38
766.213	128.51
766.397	124.41
766.58	79.36
766.763	136.7
766.946	85.5
767.129	105.98
767.312	105.98
767.495	120.32
767.678	112.13
767.861	124.41
768.044	81.41
768.227	218.62
768.41	91.65
768.593	44.54
768.776	128.51
768.959	136.7
769.142	132.61
769.324	36.35
769.507	26.11
769.69	153.09
769.873	132.61
770.056	204.28
770.239	93.69
770.421	261.63
770.604	85.5
770.787	95.74
770.97	134.65
771.152	120.32
771.335	241.15
771.518	71.17
771.7	151.04
771.883	110.08
772.066	165.37
772.248	153.09
772.431	171.52
772.613	144.89
772.796	85.5
772.978	87.55
773.161	228.86
773.343	101.89
773.526	128.51
773.708	-39.42
773.891	67.07
774.073	101.89
774.256	13.82
774.438	118.27
774.621	40.45
774.803	46.59
774.985	85.5
775.168	134.65
775.35	17.92
775.532	89.6
775.715	89.6
775.897	124.41
776.079	103.93
776.261	136.7
776.444	13.82
776.626	120.32
776.808	46.59
776.99	40.45
777.173	114.17
777.355	110.08
777.537	54.78
777.719	87.55
777.901	-4.61
778.083	-6.66
778.265	99.84
778.447	146.94
778.629	95.74
778.811	15.87
778.993	93.69
779.175	116.22
779.357	95.74
779.539	-35.33
779.721	54.78
779.903	89.6
780.085	7.68
780.267	95.74
780.449	62.98
780.631	122.37
780.812	151.04
780.994	101.89
781.176	26.11
781.358	52.74
781.54	1.54
781.721	101.89
781.903	130.56
782.085	52.74
782.267	93.69
782.448	-61.95
782.63	79.36
782.812	95.74
782.993	118.27
783.175	46.59
783.357	36.35
783.538	114.17
783.72	11.78
783.901	48.64
784.083	48.64
784.264	87.55
784.446	-16.9
784.627	11.78
784.809	122.37
784.99	52.74
785.172	-4.61
785.353	-10.75
785.535	54.78
785.716	-10.75
785.897	54.78
786.079	50.69
786.26	62.98
786.441	93.69
786.623	-41.47
786.804	-18.94
786.985	38.4
787.167	99.84
787.348	65.02
787.529	3.58
787.71	124.41
787.891	130.56
788.073	15.87
788.254	-27.14
788.435	132.61
788.616	46.59
788.797	-4.61
788.978	120.32
789.159	17.92
789.34	26.11
789.522	-41.47
789.703	15.87
789.884	91.65
790.065	36.35
790.246	226.81
790.427	69.12
790.607	110.08
790.788	38.4
790.969	-100.86
791.15	1.54
791.331	22.02
791.512	42.5
791.693	40.45
791.874	-6.66
792.054	187.9
792.235	126.46
792.416	19.97
792.597	-47.62
792.778	85.5
792.958	103.93
793.139	85.5
793.32	62.98
793.5	-18.94
793.681	89.6
793.862	97.79
794.042	-55.81
794.223	-43.52
794.404	-18.94
794.584	-4.61
794.765	13.82
794.945	-8.7
795.126	128.51
795.306	40.45
795.487	69.12
795.667	24.06
795.848	93.69
796.028	58.88
796.209	-27.14
796.389	97.79
796.57	46.59
796.75	-31.23
796.93	103.93
797.111	-37.38
797.291	50.69
797.471	3.58
797.652	15.87
797.832	-2.56
798.012	108.03
798.192	5.63
798.373	-47.62
798.553	3.58
798.733	24.06
798.913	-43.52
799.093	44.54
799.274	91.65
799.454	99.84
799.634	60.93
799.814	54.78
799.994	38.4
800.174	112.13
800.354	13.82
800.534	-39.42
800.714	108.03
800.894	1.54
801.074	-55.81
801.254	-43.52
801.434	142.85
801.614	17.92
801.794	-45.57
801.974	1709.54
802.154	71.17
802.334	101.89
802.514	-8.7
802.693	62.98
802.873	22.02
803.053	179.71
803.233	22.02
803.413	58.88
803.592	-12.8
803.772	-10.75
803.952	28.16
804.131	-41.47
804.311	36.35
804.491	161.28
804.67	5.63
804.85	-84.48
805.03	73.21
805.209	138.75
805.389	-45.57
805.568	-18.94
805.748	-23.04
805.928	22.02
806.107	103.93
806.287	69.12
806.466	-16.9
806.646	-41.47
806.825	38.4
807.004	-10.75
807.184	97.79
807.363	101.89
807.543	9.73
807.722	-23.04
807.901	62.98
808.081	155.13
808.26	-129.53
808.439	67.07
808.619	7.68
808.798	54.78
808.977	69.12
809.156	32.26
809.336	28.16
809.515	132.61
809.694	-57.86
809.873	-20.99
810.052	153.09
810.231	38.4
810.411	22.02
810.59	-0.51
810.769	24.06
810.948	118.27
811.127	1.54
811.306	-37.38
811.485	-31.23
811.664	79.36
811.843	13.82
812.022	-43.52
812.201	-4.61
812.38	-8.7
812.559	9.73
812.737	50.69
812.916	-18.94
813.095	-20.99
813.274	9.73
813.453	19.97
813.632	75.26
813.811	36.35
813.989	-25.09
814.168	13.82
814.347	-123.39
814.526	52.74
814.704	34.3
814.883	-0.51
815.062	-49.66
815.24	44.54
815.419	-76.29
815.598	62.98
815.776	-55.81
815.955	13.82
816.133	-70.14
816.312	-72.19
816.49	-18.94
816.669	-2.56
816.847	-76.29
817.026	-33.28
817.204	26.11
817.383	26.11
817.561	44.54
817.74	-0.51
817.918	28.16
818.097	50.69
818.275	42.5
818.453	32.26
818.632	62.98
818.81	-68.09
818.988	3.58
819.167	-12.8
819.345	-6.66
819.523	-31.23
819.701	24.06
819.879	-18.94
820.058	46.59
820.236	1.54
820.414	75.26
820.592	11.78
820.77	-55.81
820.948	-90.62
821.127	-51.71
821.305	-37.38
821.483	-59.9
821.661	60.93
821.839	26.11
822.017	-88.57
822.195	-18.94
822.373	134.65
822.551	46.59
822.729	126.46
822.907	-94.72
823.085	62.98
823.262	-18.94
823.44	-127.49
823.618	-47.62
823.796	15.87
823.974	-45.57
824.152	67.07
824.329	-31.23
824.507	60.93
824.685	1.54
824.863	-14.85
825.04	22.02
825.218	134.65
825.396	13.82
825.574	46.59
825.751	42.5
825.929	28.16
826.107	-39.42
826.284	-23.04
826.462	38.4
826.639	-94.72
826.817	-20.99
826.994	-2.56
827.172	-51.71
827.349	54.78
827.527	36.35
827.704	9.73
827.882	67.07
828.059	-16.9
828.237	54.78
828.414	48.64
828.591	-59.9
828.769	-12.8
828.946	-92.67
829.124	50.69
829.301	58.88
829.478	-51.71
829.655	1.54
829.833	-35.33
830.01	30.21
830.187	58.88
830.364	46.59
830.542	5.63
830.719	183.81
830.896	28.16
831.073	52.74
831.25	22.02
831.427	54.78
831.604	-12.8
831.782	-80.38
831.959	50.69
832.136	36.35
832.313	9.73
832.49	-45.57
832.667	65.02
832.844	-2.56
833.021	42.5
833.198	81.41
833.374	-59.9
833.551	58.88
833.728	-10.75
833.905	87.55
834.082	-111.1
834.259	62.98
834.436	120.32
834.612	-80.38
834.789	71.17
834.966	-8.7
835.143	36.35
835.319	-113.15
835.496	97.79
835.673	-12.8
835.85	42.5
836.026	30.21
836.203	54.78
836.38	-18.94
836.556	-20.99
836.733	-35.33
836.909	28.16
837.086	-8.7
837.262	-92.67
837.439	65.02
837.616	-96.77
837.792	3.58
837.968	17.92
838.145	-113.15
838.321	-31.23
838.498	22.02
838.674	50.69
838.851	52.74
839.027	-12.8
839.203	19.97
839.38	54.78
839.556	-14.85
839.732	54.78
839.909	-72.19
840.085	52.74
840.261	-74.24
840.437	65.02
840.614	-2.56
840.79	60.93
840.966	71.17
841.142	60.93
841.318	-84.48
841.494	-6.66
841.671	24.06
841.847	-86.53
842.023	-100.86
842.199	-14.85
842.375	93.69
842.551	-25.09
842.727	-59.9
842.903	110.08
843.079	-111.1
843.255	46.59
843.431	-35.33
843.607	46.59
843.783	-107.01
843.959	-27.14
844.134	-47.62
844.31	62.98
844.486	-68.09
844.662	-88.57
844.838	-18.94
845.013	30.21
845.189	81.41
845.365	24.06
845.541	-8.7
845.716	-18.94
845.892	-31.23
846.068	-82.43
846.244	-33.28
846.419	15.87
846.595	-43.52
846.77	-4.61
846.946	112.13
847.122	-16.9
847.297	30.21
847.473	7.68
847.648	13.82
847.824	-6.66
847.999	-82.43
848.175	81.41
848.35	42.5
848.526	122.37
848.701	69.12
848.876	62.98
849.052	40.45
849.227	-74.24
849.403	9.73
849.578	3.58
849.753	103.93
849.929	-14.85
850.104	-76.29
850.279	36.35
850.454	103.93
850.63	46.59
850.805	-27.14
850.98	22.02
851.155	-35.33
851.33	36.35
851.505	-72.19
851.681	153.09
851.856	-6.66
852.031	28.16
852.206	38.4
852.381	13.82
852.556	-47.62
852.731	40.45
852.906	62.98
853.081	30.21
853.256	44.54
853.431	-27.14
853.606	-43.52
853.781	-25.09
853.956	-115.2
854.131	17.92
854.305	-27.14
854.48	13.82
854.655	19.97
854.83	-14.85
855.005	-8.7
855.18	52.74
855.354	22.02
855.529	1.54
855.704	-41.47
855.879	48.64
856.053	-96.77
856.228	32.26
856.403	-31.23
856.577	75.26
856.752	-47.62
856.926	9.73
857.101	38.4
857.276	-121.34
857.45	-49.66
857.625	105.98
857.799	-6.66
857.974	-6.66
858.148	-84.48
858.323	19.97
858.497	38.4
858.672	-20.99
858.846	-27.14
859.02	56.83
859.195	-68.09
859.369	-8.7
859.543	28.16
859.718	-27.14
859.892	24.06
860.066	32.26
860.241	-25.09
860.415	-4.61
860.589	-27.14
860.763	-18.94
860.938	-18.94
861.112	-41.47
861.286	-35.33
861.46	-2.56
861.634	15.87
861.808	148.99
861.982	-61.95
862.157	-74.24
862.331	24.06
862.505	-41.47
862.679	-92.67
862.853	-8.7
863.027	22.02
863.201	134.65
863.375	-55.81
863.549	58.88
863.722	13.82
863.896	36.35
864.07	-119.29
864.244	17.92
864.418	17.92
864.592	13.82
864.766	-0.51
864.939	-39.42
865.113	5.63
865.287	-0.51
865.461	-2.56
865.634	-2.56
865.808	-29.18
865.982	-23.04
866.156	-47.62
866.329	-117.25
866.503	15.87
866.676	26.11
866.85	3.58
867.024	1.54
867.197	62.98
867.371	44.54
867.544	34.3
867.718	-98.81
867.891	67.07
868.065	-66.05
868.238	-18.94
868.412	44.54
868.585	50.69
868.759	69.12
868.932	89.6
869.105	-107.01
869.279	62.98
869.452	-98.81
869.625	-55.81
869.799	9.73
869.972	-27.14
870.145	32.26
870.319	75.26
870.492	-27.14
870.665	-43.52
870.838	-72.19
871.011	-100.86
871.185	-68.09
871.358	34.3
871.531	46.59
871.704	1.54
871.877	34.3
872.05	-8.7
872.223	-37.38
872.396	144.89
872.569	77.31
872.742	-88.57
872.915	-39.42
873.088	-43.52
873.261	-0.51
873.434	73.21
873.607	54.78
873.78	30.21
873.953	-53.76
874.126	-0.51
874.299	38.4
874.471	-41.47
874.644	28.16
874.817	-2.56
874.99	112.13
875.163	-55.81
875.335	3.58
875.508	-33.28
875.681	93.69
875.853	-111.1
876.026	56.83
876.199	99.84
876.371	-31.23
876.544	40.45
876.717	28.16
876.889	-18.94
877.062	46.59
877.234	-14.85
877.407	-66.05
877.579	-53.76
877.752	-39.42
877.924	54.78
878.097	44.54
878.269	56.83
878.442	11.78
878.614	15.87
878.786	-27.14
878.959	87.55
879.131	36.35
879.303	-72.19
879.476	-20.99
879.648	48.64
879.82	44.54
879.993	9.73
880.165	22.02
880.337	-80.38
880.509	-35.33
880.681	-90.62
880.854	-29.18
881.026	19.97
881.198	118.27
881.37	-20.99
881.542	36.35
881.714	-16.9
881.886	-8.7
882.058	3.58
882.23	-16.9
882.402	9.73
882.574	-59.9
882.746	38.4
882.918	69.12
883.09	87.55
883.262	-12.8
883.434	32.26
883.606	-57.86
883.778	5.63
883.95	120.32
884.122	19.97
884.293	34.3
884.465	-29.18
884.637	73.21
884.809	36.35
884.98	-14.85
885.152	54.78
885.324	7.68
885.496	22.02
885.667	-53.76
885.839	9.73
886.011	75.26
886.182	67.07
886.354	38.4
886.525	44.54
886.697	-23.04
886.869	-84.48
887.04	-23.04
887.212	50.69
887.383	138.75
887.555	11.78
887.726	65.02
887.897	11.78
888.069	7.68
888.24	48.64
888.412	40.45
888.583	11.78
888.754	-14.85
888.926	-90.62
889.097	-23.04
889.268	-113.15
889.44	85.5
889.611	-104.96
889.782	-51.71
889.953	-102.91
890.125	122.37
890.296	-35.33
890.467	-94.72
890.638	-39.42
890.809	42.5
890.98	-37.38
891.151	-20.99
891.323	85.5
891.494	-47.62
891.665	-70.14
891.836	-33.28
892.007	38.4
892.178	-20.99
892.349	22.02
892.52	-84.48
892.691	-49.66
892.862	-6.66
893.032	-152.06
893.203	-43.52
893.374	-45.57
893.545	108.03
893.716	-35.33
893.887	9.73
894.057	-14.85
894.228	30.21
894.399	-37.38
894.57	7.68
894.74	-8.7
894.911	85.5
895.082	9.73
895.253	-35.33
895.423	50.69
895.594	69.12
895.764	69.12
895.935	-80.38
896.106	34.3
896.276	-33.28
896.447	28.16
896.617	34.3
896.788	-23.04
896.958	-72.19
897.129	-80.38
897.299	-64
897.47	9.73
897.64	-74.24
897.81	9.73
897.981	1.54
898.151	22.02
898.322	-31.23
898.492	30.21
898.662	-16.9
898.832	-90.62
899.003	22.02
899.173	75.26
899.343	11.78
899.513	-31.23
