Data from USB4F104151__46__11-26-44-292.txt Node

Date: Wed Feb 26 11:26:44 EST 2025
User: louis
Spectrometer: USB4F10415
Trigger mode: 4
Integration Time (sec): 1.000000E-1
Scans to average: 1
Electric dark correction enabled: true
Nonlinearity correction enabled: false
Boxcar width: 0
XAxis mode: Wavelengths
Number of Pixels in Spectrum: 3648
>>>>>Begin Spectral Data<<<<<
178.204	-373.41
178.424	-373.41
178.644	-373.41
178.864	-420.52
179.084	-369.32
179.304	17.75
179.524	-51.88
179.744	-19.11
179.964	60.76
180.184	48.47
180.404	38.23
180.624	-55.98
180.844	111.96
181.064	-21.16
181.283	-4.78
181.503	-125.61
181.723	1.37
181.943	-43.69
182.163	167.25
182.383	-47.79
182.602	62.8
182.822	154.96
183.042	62.8
183.262	3.41
183.482	15.7
183.701	25.94
183.921	66.9
184.141	-78.51
184.361	48.47
184.58	109.91
184.8	-12.97
185.02	-8.87
185.239	150.87
185.459	42.32
185.679	48.47
185.898	-58.03
186.118	-2.73
186.338	126.29
186.557	128.34
186.777	-27.31
186.997	-119.46
187.216	73.04
187.436	228.69
187.655	142.68
187.875	95.57
188.095	30.04
188.314	120.15
188.534	130.39
188.753	-41.64
188.973	114
189.192	132.44
189.412	13.65
189.631	66.9
189.851	34.13
190.07	228.69
190.29	-84.65
190.509	-39.59
190.729	116.05
190.948	97.62
191.168	300.37
191.387	126.29
191.607	17.75
191.826	64.85
192.045	52.56
192.265	11.61
192.484	58.71
192.704	50.52
192.923	-12.97
193.142	238.93
193.362	130.39
193.581	130.39
193.8	54.61
194.02	95.57
194.239	105.81
194.458	75.09
194.678	-0.68
194.897	68.95
195.116	68.95
195.335	5.46
195.555	68.95
195.774	1.37
195.993	124.24
196.212	-4.78
196.432	-10.92
196.651	23.89
196.87	44.37
197.089	261.46
197.308	107.86
197.528	46.42
197.747	-84.65
197.966	-2.73
198.185	130.39
198.404	40.28
198.623	48.47
198.842	150.87
199.062	81.24
199.281	71
199.5	60.76
199.719	159.06
199.938	54.61
200.157	71
200.376	111.96
200.595	132.44
200.814	77.14
201.033	-23.21
201.252	204.11
201.471	105.81
201.69	-0.68
201.909	66.9
202.128	56.66
202.347	97.62
202.566	-12.97
202.785	-35.5
203.004	-47.79
203.223	271.7
203.442	36.18
203.661	9.56
203.879	101.72
204.098	30.04
204.317	-45.74
204.536	183.63
204.755	56.66
204.974	124.24
205.193	-33.45
205.411	200.02
205.63	146.77
205.849	46.42
206.068	-21.16
206.287	-35.5
206.505	159.06
206.724	25.94
206.943	9.56
207.162	-10.92
207.381	122.2
207.599	5.46
207.818	36.18
208.037	-15.02
208.255	64.85
208.474	101.72
208.693	58.71
208.911	-21.16
209.13	107.86
209.349	75.09
209.567	93.52
209.786	120.15
210.005	179.54
210.223	27.99
210.442	-105.13
210.661	54.61
210.879	48.47
211.098	48.47
211.316	73.04
211.535	97.62
211.753	17.75
211.972	48.47
212.191	-8.87
212.409	62.8
212.628	56.66
212.846	-41.64
213.065	79.19
213.283	107.86
213.502	60.76
213.72	62.8
213.938	25.94
214.157	15.7
214.375	124.24
214.594	-2.73
214.812	60.76
215.031	111.96
215.249	38.23
215.467	81.24
215.686	38.23
215.904	-2.73
216.122	44.37
216.341	185.68
216.559	130.39
216.778	202.07
216.996	159.06
217.214	-70.31
217.432	-19.11
217.651	-62.12
217.869	48.47
218.087	68.95
218.306	9.56
218.524	68.95
218.742	-23.21
218.96	146.77
219.179	7.51
219.397	60.76
219.615	214.35
219.833	101.72
220.051	40.28
220.27	-4.78
220.488	107.86
220.706	64.85
220.924	-19.11
221.142	-21.16
221.36	136.53
221.578	3.41
221.796	73.04
222.015	21.85
222.233	60.76
222.451	212.31
222.669	-76.46
222.887	107.86
223.105	23.89
223.323	-0.68
223.541	-31.4
223.759	-4.78
223.977	-60.07
224.195	128.34
224.413	75.09
224.631	99.67
224.849	1.37
225.067	267.6
225.285	5.46
225.503	-41.64
225.721	-80.55
225.939	138.58
226.157	68.95
226.375	247.12
226.592	32.08
226.81	38.23
227.028	128.34
227.246	146.77
227.464	101.72
227.682	111.96
227.9	52.56
228.117	183.63
228.335	91.48
228.553	-25.26
228.771	13.65
228.989	138.58
229.206	128.34
229.424	66.9
229.642	60.76
229.86	56.66
230.077	122.2
230.295	44.37
230.513	126.29
230.731	89.43
230.948	77.14
231.166	144.72
231.384	54.61
231.601	5.46
231.819	99.67
232.037	-8.87
232.254	-60.07
232.472	21.85
232.689	11.61
232.907	93.52
233.125	103.76
233.342	13.65
233.56	-21.16
233.777	-27.31
233.995	15.7
234.213	144.72
234.43	93.52
234.648	25.94
234.865	30.04
235.083	64.85
235.3	40.28
235.518	81.24
235.735	118.1
235.953	208.21
236.17	62.8
236.388	13.65
236.605	34.13
236.822	120.15
237.04	134.48
237.257	3.41
237.475	-55.98
237.692	89.43
237.909	50.52
238.127	-6.83
238.344	71
238.562	-68.27
238.779	-31.4
238.996	-94.89
239.214	-12.97
239.431	95.57
239.648	-33.45
239.865	116.05
240.083	25.94
240.3	75.09
240.517	-60.07
240.735	-6.83
240.952	173.39
241.169	71
241.386	85.33
241.603	132.44
241.821	-31.4
242.038	75.09
242.255	214.35
242.472	-49.83
242.689	150.87
242.907	144.72
243.124	81.24
243.341	-21.16
243.558	-4.78
243.775	-131.75
243.992	-41.64
244.209	114
244.426	224.59
244.643	13.65
244.86	36.18
245.078	134.48
245.295	60.76
245.512	54.61
245.729	13.65
245.946	118.1
246.163	15.7
246.38	87.38
246.597	89.43
246.814	91.48
247.031	-39.59
247.248	62.8
247.464	75.09
247.681	46.42
247.898	101.72
248.115	36.18
248.332	-78.51
248.549	193.87
248.766	195.92
248.983	50.52
249.2	93.52
249.417	99.67
249.633	50.52
249.85	93.52
250.067	34.13
250.284	42.32
250.501	97.62
250.717	62.8
250.934	-6.83
251.151	85.33
251.368	93.52
251.585	40.28
251.801	36.18
252.018	-62.12
252.235	126.29
252.451	-72.36
252.668	13.65
252.885	120.15
253.102	107.86
253.318	34.13
253.535	68.95
253.752	27.99
253.968	30.04
254.185	-15.02
254.401	-60.07
254.618	87.38
254.835	62.8
255.051	154.96
255.268	62.8
255.484	1.37
255.701	25.94
255.917	48.47
256.134	-6.83
256.351	32.08
256.567	-39.59
256.784	1.37
257	-19.11
257.217	89.43
257.433	136.53
257.65	126.29
257.866	144.72
258.082	-37.55
258.299	17.75
258.515	52.56
258.732	-25.26
258.948	-19.11
259.165	85.33
259.381	7.51
259.597	122.2
259.814	99.67
260.03	15.7
260.246	23.89
260.463	101.72
260.679	183.63
260.895	60.76
261.112	52.56
261.328	32.08
261.544	-29.35
261.761	240.98
261.977	7.51
262.193	-21.16
262.409	36.18
262.626	73.04
262.842	30.04
263.058	-8.87
263.274	152.91
263.49	103.76
263.707	85.33
263.923	75.09
264.139	19.8
264.355	81.24
264.571	97.62
264.787	81.24
265.004	161.11
265.22	23.89
265.436	-17.07
265.652	-4.78
265.868	60.76
266.084	-6.83
266.3	-6.83
266.516	-17.07
266.732	38.23
266.948	-12.97
267.164	103.76
267.38	118.1
267.596	124.24
267.812	195.92
268.028	66.9
268.244	11.61
268.46	71
268.676	73.04
268.892	36.18
269.108	-6.83
269.324	-55.98
269.54	32.08
269.756	48.47
269.972	-29.35
270.188	97.62
270.403	-90.79
270.619	89.43
270.835	101.72
271.051	54.61
271.267	-33.45
271.483	7.51
271.698	58.71
271.914	97.62
272.13	27.99
272.346	75.09
272.562	128.34
272.777	163.15
272.993	64.85
273.209	-60.07
273.425	157.01
273.64	-33.45
273.856	79.19
274.072	27.99
274.287	9.56
274.503	165.2
274.719	13.65
274.934	25.94
275.15	-33.45
275.366	30.04
275.581	-15.02
275.797	21.85
276.012	93.52
276.228	46.42
276.444	75.09
276.659	148.82
276.875	-2.73
277.09	66.9
277.306	40.28
277.521	13.65
277.737	27.99
277.952	111.96
278.168	46.42
278.383	68.95
278.599	44.37
278.814	68.95
279.03	25.94
279.245	202.07
279.461	75.09
279.676	9.56
279.892	-8.87
280.107	-45.74
280.322	19.8
280.538	71
280.753	54.61
280.969	64.85
281.184	107.86
281.399	120.15
281.615	79.19
281.83	52.56
282.045	-10.92
282.26	19.8
282.476	23.89
282.691	50.52
282.906	62.8
283.122	42.32
283.337	-53.93
283.552	21.85
283.767	27.99
283.983	97.62
284.198	-25.26
284.413	46.42
284.628	-39.59
284.843	66.9
285.058	97.62
285.274	-27.31
285.489	17.75
285.704	73.04
285.919	13.65
286.134	11.61
286.349	97.62
286.564	-23.21
286.779	159.06
286.995	5.46
287.21	-111.27
287.425	116.05
287.64	50.52
287.855	56.66
288.07	-111.27
288.285	83.28
288.5	109.91
288.715	99.67
288.93	25.94
289.145	27.99
289.36	48.47
289.575	9.56
289.79	79.19
290.004	-39.59
290.219	91.48
290.434	7.51
290.649	13.65
290.864	56.66
291.079	71
291.294	128.34
291.509	91.48
291.724	-2.73
291.938	81.24
292.153	5.46
292.368	66.9
292.583	44.37
292.798	38.23
293.012	66.9
293.227	56.66
293.442	19.8
293.657	97.62
293.871	157.01
294.086	52.56
294.301	169.3
294.516	85.33
294.73	30.04
294.945	-8.87
295.16	71
295.374	179.54
295.589	114
295.804	-74.41
296.018	87.38
296.233	48.47
296.447	124.24
296.662	23.89
296.877	111.96
297.091	97.62
297.306	71
297.52	73.04
297.735	42.32
297.949	54.61
298.164	27.99
298.378	64.85
298.593	-27.31
298.807	38.23
299.022	-21.16
299.236	185.68
299.451	19.8
299.665	19.8
299.88	79.19
300.094	122.2
300.309	118.1
300.523	71
300.737	7.51
300.952	11.61
301.166	118.1
301.381	-49.83
301.595	27.99
301.809	56.66
302.024	60.76
302.238	13.65
302.452	138.58
302.667	-17.07
302.881	165.2
303.095	85.33
303.309	52.56
303.524	-0.68
303.738	48.47
303.952	64.85
304.166	-0.68
304.381	-68.27
304.595	167.25
304.809	48.47
305.023	68.95
305.237	-23.21
305.452	44.37
305.666	134.48
305.88	132.44
306.094	93.52
306.308	107.86
306.522	77.14
306.736	140.63
306.95	154.96
307.164	21.85
307.379	56.66
307.593	181.59
307.807	122.2
308.021	128.34
308.235	85.33
308.449	-68.27
308.663	-0.68
308.877	144.72
309.091	64.85
309.305	95.57
309.519	-113.32
309.733	175.44
309.947	-66.22
310.161	103.76
310.374	124.24
310.588	128.34
310.802	48.47
311.016	27.99
311.23	48.47
311.444	-19.11
311.658	3.41
311.872	103.76
312.085	103.76
312.299	15.7
312.513	138.58
312.727	124.24
312.941	-2.73
313.154	132.44
313.368	75.09
313.582	58.71
313.796	30.04
314.009	52.56
314.223	134.48
314.437	48.47
314.651	83.28
314.864	-58.03
315.078	-29.35
315.292	-49.83
315.505	40.28
315.719	101.72
315.933	142.68
316.146	-2.73
316.36	-19.11
316.573	247.12
316.787	114
317.001	42.32
317.214	-0.68
317.428	64.85
317.641	-29.35
317.855	-15.02
318.068	-25.26
318.282	9.56
318.495	150.87
318.709	103.76
318.922	-2.73
319.136	142.68
319.349	75.09
319.563	32.08
319.776	60.76
319.99	-49.83
320.203	99.67
320.417	-12.97
320.63	58.71
320.843	210.26
321.057	19.8
321.27	73.04
321.483	130.39
321.697	189.78
321.91	87.38
322.124	23.89
322.337	40.28
322.55	5.46
322.763	32.08
322.977	50.52
323.19	27.99
323.403	73.04
323.617	120.15
323.83	111.96
324.043	-47.79
324.256	124.24
324.469	15.7
324.683	40.28
324.896	62.8
325.109	48.47
325.322	-23.21
325.535	152.91
325.748	75.09
325.962	-41.64
326.175	114
326.388	87.38
326.601	159.06
326.814	40.28
327.027	36.18
327.24	163.15
327.453	-125.61
327.666	83.28
327.879	142.68
328.092	83.28
328.305	68.95
328.518	36.18
328.731	-33.45
328.944	38.23
329.157	48.47
329.37	23.89
329.583	152.91
329.796	89.43
330.009	-62.12
330.222	152.91
330.435	161.11
330.648	52.56
330.861	99.67
331.073	114
331.286	132.44
331.499	120.15
331.712	-27.31
331.925	97.62
332.138	50.52
332.35	154.96
332.563	-23.21
332.776	130.39
332.989	34.13
333.202	27.99
333.414	105.81
333.627	36.18
333.84	-8.87
334.053	91.48
334.265	-23.21
334.478	17.75
334.691	44.37
334.903	15.7
335.116	-23.21
335.329	-8.87
335.541	95.57
335.754	73.04
335.966	30.04
336.179	19.8
336.392	36.18
336.604	118.1
336.817	202.07
337.029	66.9
337.242	48.47
337.454	64.85
337.667	-12.97
337.88	107.86
338.092	54.61
338.305	118.1
338.517	1.37
338.729	109.91
338.942	185.68
339.154	-8.87
339.367	-8.87
339.579	103.76
339.792	-45.74
340.004	130.39
340.217	25.94
340.429	71
340.641	-66.22
340.854	21.85
341.066	-8.87
341.278	107.86
341.491	290.13
341.703	54.61
341.915	-31.4
342.128	79.19
342.34	15.7
342.552	32.08
342.764	-0.68
342.977	46.42
343.189	50.52
343.401	89.43
343.613	-41.64
343.826	42.32
344.038	-8.87
344.25	111.96
344.462	13.65
344.674	54.61
344.886	-41.64
345.099	107.86
345.311	97.62
345.523	15.7
345.735	-21.16
345.947	-10.92
346.159	93.52
346.371	71
346.583	27.99
346.795	142.68
347.007	124.24
347.219	116.05
347.431	54.61
347.643	97.62
347.855	-37.55
348.067	73.04
348.279	23.89
348.491	34.13
348.703	169.3
348.915	-8.87
349.127	75.09
349.339	23.89
349.551	25.94
349.763	99.67
349.975	11.61
350.187	38.23
350.399	134.48
350.61	48.47
350.822	1.37
351.034	114
351.246	64.85
351.458	71
351.669	87.38
351.881	146.77
352.093	44.37
352.305	116.05
352.517	99.67
352.728	118.1
352.94	-23.21
353.152	95.57
353.363	-0.68
353.575	11.61
353.787	247.12
353.999	36.18
354.21	181.59
354.422	87.38
354.633	25.94
354.845	40.28
355.057	34.13
355.268	87.38
355.48	146.77
355.692	-103.08
355.903	136.53
356.115	-8.87
356.326	-119.46
356.538	163.15
356.749	107.86
356.961	87.38
357.172	62.8
357.384	-127.66
357.595	240.98
357.807	1.37
358.018	1.37
358.23	13.65
358.441	152.91
358.653	85.33
358.864	5.46
359.075	11.61
359.287	13.65
359.498	118.1
359.709	107.86
359.921	54.61
360.132	109.91
360.344	5.46
360.555	44.37
360.766	54.61
360.977	54.61
361.189	165.2
361.4	103.76
361.611	126.29
361.823	140.63
362.034	124.24
362.245	-21.16
362.456	66.9
362.667	189.78
362.879	19.8
363.09	64.85
363.301	118.1
363.512	11.61
363.723	32.08
363.935	32.08
364.146	66.9
364.357	19.8
364.568	17.75
364.779	-4.78
364.99	150.87
365.201	-66.22
365.412	107.86
365.623	30.04
365.834	103.76
366.045	34.13
366.256	48.47
366.467	97.62
366.678	34.13
366.889	66.9
367.1	-12.97
367.311	111.96
367.522	75.09
367.733	193.87
367.944	66.9
368.155	71
368.366	56.66
368.577	58.71
368.788	95.57
368.999	25.94
369.209	73.04
369.42	226.64
369.631	263.51
369.842	124.24
370.053	-19.11
370.264	34.13
370.474	-6.83
370.685	114
370.896	66.9
371.107	157.01
371.317	11.61
371.528	46.42
371.739	177.49
371.95	68.95
372.16	173.39
372.371	-60.07
372.582	107.86
372.792	75.09
373.003	52.56
373.214	13.65
373.424	40.28
373.635	1.37
373.846	230.74
374.056	101.72
374.267	13.65
374.477	75.09
374.688	21.85
374.898	73.04
375.109	99.67
375.319	107.86
375.53	54.61
375.74	97.62
375.951	15.7
376.161	56.66
376.372	148.82
376.582	68.95
376.793	25.94
377.003	23.89
377.214	5.46
377.424	58.71
377.635	42.32
377.845	38.23
378.055	157.01
378.266	40.28
378.476	38.23
378.686	38.23
378.897	89.43
379.107	93.52
379.317	66.9
379.528	23.89
379.738	32.08
379.948	-25.26
380.158	89.43
380.369	75.09
380.579	163.15
380.789	-25.26
380.999	140.63
381.21	105.81
381.42	230.74
381.63	64.85
381.84	146.77
382.05	85.33
382.261	122.2
382.471	159.06
382.681	19.8
382.891	191.83
383.101	91.48
383.311	-21.16
383.521	77.14
383.731	93.52
383.941	89.43
384.151	40.28
384.361	44.37
384.571	54.61
384.781	48.47
384.991	142.68
385.201	210.26
385.411	122.2
385.621	52.56
385.831	68.95
386.041	46.42
386.251	-21.16
386.461	97.62
386.671	15.7
386.881	120.15
387.091	36.18
387.301	161.11
387.511	58.71
387.72	134.48
387.93	93.52
388.14	-33.45
388.35	91.48
388.56	79.19
388.769	148.82
388.979	21.85
389.189	17.75
389.399	15.7
389.609	105.81
389.818	134.48
390.028	124.24
390.238	48.47
390.447	48.47
390.657	36.18
390.867	-27.31
391.076	-4.78
391.286	32.08
391.496	62.8
391.705	107.86
391.915	103.76
392.125	93.52
392.334	-35.5
392.544	99.67
392.753	27.99
392.963	15.7
393.172	27.99
393.382	-23.21
393.591	120.15
393.801	48.47
394.01	138.58
394.22	87.38
394.429	46.42
394.639	-6.83
394.848	60.76
395.058	52.56
395.267	79.19
395.477	81.24
395.686	73.04
395.895	214.35
396.105	200.02
396.314	54.61
396.524	66.9
396.733	27.99
396.942	95.57
397.152	64.85
397.361	75.09
397.57	83.28
397.78	54.61
397.989	103.76
398.198	214.35
398.407	75.09
398.617	-0.68
398.826	21.85
399.035	93.52
399.244	81.24
399.453	79.19
399.663	109.91
399.872	85.33
400.081	-17.07
400.29	208.21
400.499	23.89
400.708	195.92
400.917	107.86
401.127	40.28
401.336	64.85
401.545	179.54
401.754	193.87
401.963	68.95
402.172	38.23
402.381	-0.68
402.59	-90.79
402.799	120.15
403.008	114
403.217	52.56
403.426	54.61
403.635	-66.22
403.844	66.9
404.053	-29.35
404.262	30.04
404.471	99.67
404.68	81.24
404.888	64.85
405.097	58.71
405.306	97.62
405.515	97.62
405.724	48.47
405.933	124.24
406.142	25.94
406.35	154.96
406.559	52.56
406.768	87.38
406.977	87.38
407.185	56.66
407.394	60.76
407.603	44.37
407.812	44.37
408.02	152.91
408.229	54.61
408.438	52.56
408.646	-29.35
408.855	48.47
409.064	79.19
409.272	73.04
409.481	40.28
409.69	-2.73
409.898	-29.35
410.107	56.66
410.315	101.72
410.524	15.7
410.733	40.28
410.941	11.61
411.15	17.75
411.358	142.68
411.567	122.2
411.775	56.66
411.984	9.56
412.192	85.33
412.401	111.96
412.609	206.16
412.818	157.01
413.026	105.81
413.234	34.13
413.443	97.62
413.651	46.42
413.86	38.23
414.068	64.85
414.276	255.31
414.485	-76.46
414.693	267.6
414.901	243.03
415.11	48.47
415.318	68.95
415.526	-12.97
415.734	144.72
415.943	109.91
416.151	122.2
416.359	97.62
416.567	36.18
416.776	140.63
416.984	95.57
417.192	171.35
417.4	-45.74
417.608	7.51
417.817	-19.11
418.025	91.48
418.233	165.2
418.441	23.89
418.649	11.61
418.857	103.76
419.065	200.02
419.273	34.13
419.481	79.19
419.689	54.61
419.897	-74.41
420.105	-58.03
420.313	167.25
420.521	173.39
420.729	234.83
420.937	34.13
421.145	-27.31
421.353	103.76
421.561	171.35
421.769	175.44
421.977	23.89
422.185	91.48
422.393	79.19
422.601	185.68
422.809	152.91
423.017	42.32
423.224	21.85
423.432	120.15
423.64	89.43
423.848	154.96
424.056	32.08
424.263	183.63
424.471	21.85
424.679	214.35
424.887	19.8
425.094	126.29
425.302	87.38
425.51	21.85
425.718	171.35
425.925	132.44
426.133	79.19
426.341	212.31
426.548	7.51
426.756	3.41
426.964	93.52
427.171	17.75
427.379	109.91
427.586	81.24
427.794	204.11
428.001	120.15
428.209	238.93
428.417	173.39
428.624	195.92
428.832	171.35
429.039	111.96
429.247	34.13
429.454	128.34
429.662	249.17
429.869	171.35
430.076	154.96
430.284	161.11
430.491	240.98
430.699	157.01
430.906	265.55
431.114	126.29
431.321	173.39
431.528	177.49
431.736	120.15
431.943	193.87
432.15	214.35
432.358	181.59
432.565	288.08
432.772	23.89
432.979	171.35
433.187	222.55
433.394	197.97
433.601	152.91
433.808	298.32
434.016	245.07
434.223	228.69
434.43	232.79
434.637	337.23
434.844	306.51
435.052	251.22
435.259	277.84
435.466	322.9
435.673	236.88
435.88	331.09
436.087	337.23
436.294	376.14
436.501	257.36
436.708	326.99
436.915	333.14
437.122	304.46
437.329	206.16
437.537	326.99
437.743	326.99
437.95	410.96
438.157	400.72
438.364	324.94
438.571	425.29
438.778	435.53
438.985	548.17
439.192	460.11
439.399	501.07
439.606	437.58
439.813	542.03
440.02	535.89
440.227	709.96
440.433	546.13
440.64	566.6
440.847	488.78
441.054	585.04
441.261	795.98
441.467	630.09
441.674	603.47
441.881	748.87
442.088	656.72
442.294	798.03
442.501	871.75
442.708	904.52
442.914	757.07
443.121	775.5
443.328	855.37
443.534	959.81
443.741	925
443.948	894.28
444.154	929.1
444.361	1121.6
444.568	1015.11
444.774	1060.17
444.981	1066.31
445.187	1240.39
445.394	1205.57
445.6	1051.97
445.807	1338.69
446.013	1318.21
446.22	1238.34
446.426	1350.98
446.633	1547.58
446.839	1742.14
447.046	1477.95
447.252	1619.26
447.459	1600.83
447.665	1686.84
447.871	1799.48
448.078	1867.06
448.284	1928.5
448.491	2157.88
448.697	1963.32
448.903	2151.73
449.11	2252.08
449.316	2270.51
449.522	2415.92
449.728	2522.41
449.935	2540.85
450.141	2596.14
450.347	2735.4
450.553	2821.42
450.76	2809.13
450.966	2923.82
451.172	3065.13
451.378	3075.37
451.584	3091.75
451.791	3548.45
451.997	3507.49
452.203	3521.82
452.409	3716.38
452.615	3933.47
452.821	3812.64
453.027	3951.9
453.233	4474.13
453.44	4248.85
453.646	4410.64
453.852	4664.59
454.058	4807.95
454.264	4945.16
454.47	5395.72
454.676	5358.85
454.882	5924.09
455.088	5444.87
455.294	5956.86
455.5	6190.33
455.705	6571.25
455.911	6434.04
456.117	6890.73
456.323	7023.85
456.529	6855.92
456.735	7765.21
456.941	7834.85
457.147	7980.25
457.352	8406.23
457.558	8580.31
457.764	9202.89
457.97	9325.77
458.176	9618.63
458.381	10357.94
458.587	10396.85
458.793	10902.7
458.999	10685.62
459.204	12274.84
459.41	12635.28
459.616	12461.21
459.821	13159.56
460.027	13632.65
460.233	14617.72
460.438	14382.2
460.644	15342.7
460.85	15344.75
461.055	15854.69
461.261	16727.13
461.466	16307.29
461.672	16706.65
461.878	18508.86
462.083	18594.87
462.289	18787.38
462.494	19719.21
462.7	19799.08
462.905	20001.83
463.111	21605.39
463.316	22842.36
463.522	23378.93
463.727	24161.25
463.932	24882.14
464.138	25695.18
464.343	26723.26
464.549	26717.12
464.754	28613.54
464.959	29397.91
465.165	29832.08
465.37	29621.14
465.575	29774.74
465.781	31898.48
465.986	32953.18
466.191	32342.89
466.397	32355.18
466.602	31705.97
466.807	33487.7
467.012	34126.67
467.218	34964.29
467.423	35191.61
467.628	35814.19
467.833	37847.83
468.038	37176.09
468.244	36143.92
468.449	38183.69
468.654	37731.09
468.859	37331.74
469.064	37651.22
469.269	36639.53
469.474	36967.2
469.679	38173.45
469.885	36789.03
470.09	37591.83
470.295	37919.51
470.5	36911.91
470.705	37217.05
470.91	36074.29
471.115	35566.39
471.32	36295.47
471.525	35871.54
471.73	35359.55
471.935	35044.16
472.139	33760.08
472.344	33690.45
472.549	33698.64
472.754	33117.02
472.959	32299.88
473.164	31064.96
473.369	31001.47
473.574	31519.6
473.778	30755.71
473.983	30516.1
474.188	29926.28
474.393	28664.74
474.598	28429.22
474.802	27759.53
475.007	27399.09
475.212	27235.25
475.417	25938.89
475.621	26014.66
475.826	25770.96
476.031	24703.96
476.235	24017.89
476.44	24544.22
476.645	23649.26
476.849	23585.77
477.054	22989.81
477.259	22400
477.463	22612.99
477.668	21898.25
477.872	22123.52
478.077	21492.75
478.282	21005.33
478.486	20534.3
478.691	20288.54
478.895	20155.43
479.1	20018.21
479.304	20079.65
479.509	19067.95
479.713	19635.24
479.918	19082.29
480.122	18885.69
480.326	18830.39
480.531	18850.87
480.735	18211.9
480.94	18123.84
481.144	18859.06
481.348	17806.41
481.553	17824.84
481.757	17394.76
481.961	17556.55
482.166	17775.69
482.37	17216.59
482.574	17079.38
482.778	16929.88
482.983	17243.21
483.187	16723.03
483.391	16884.82
483.595	16845.91
483.8	16233.57
484.004	16616.54
484.208	16495.71
484.412	16297.05
484.616	15948.9
484.821	15803.49
485.025	15281.26
485.229	15494.25
485.433	15006.83
485.637	15131.76
485.841	14781.56
486.045	14580.85
486.249	14605.43
486.453	14230.65
486.657	14187.64
486.861	14171.26
487.065	13358.22
487.269	13620.36
487.473	12995.73
487.677	13116.56
487.881	13104.27
488.085	12653.72
488.289	12795.03
488.493	12127.39
488.697	12446.87
488.901	12096.67
489.105	11760.8
489.309	11396.26
489.512	11445.41
489.716	11244.71
489.92	10949.81
490.124	10675.38
490.328	10904.75
490.531	10259.64
490.735	10462.39
490.939	10126.52
491.143	9966.78
491.346	9897.15
491.55	9749.7
491.754	9372.87
491.958	9397.45
492.161	9329.86
492.365	8989.9
492.569	8805.58
492.772	8840.4
492.976	8862.93
493.18	8621.27
493.383	8627.41
493.587	8469.72
493.79	8412.37
493.994	8146.14
494.197	8094.94
494.401	8195.29
494.605	8008.92
494.808	8043.74
495.012	7951.58
495.215	7951.58
495.419	7861.47
495.622	7638.24
495.825	7793.89
496.029	7476.45
496.232	7881.95
496.436	7595.23
496.639	7814.37
496.843	7525.6
497.046	7638.24
497.249	7736.54
497.453	7777.5
497.656	7679.2
497.859	7769.31
498.063	7802.08
498.266	7959.77
498.469	7703.78
498.673	7914.72
498.876	7810.27
499.079	7720.16
499.282	7892.19
499.485	8185.05
499.689	8031.45
499.892	8262.87
500.095	7949.53
500.298	8316.12
500.501	7927
500.705	8348.89
500.908	8496.34
501.111	8537.3
501.314	8563.92
501.517	8731.86
501.72	8887.5
501.923	8885.45
502.126	8776.91
502.329	9145.55
502.532	9327.81
502.735	9163.98
502.938	9483.46
503.141	9518.28
503.344	9663.68
503.547	9856.19
503.75	9620.67
503.953	9972.93
504.156	10286.26
504.359	10237.11
504.562	10325.18
504.765	10734.77
504.968	10837.17
505.17	10910.89
505.373	11252.91
505.576	11441.32
505.779	11539.62
505.982	11588.77
506.185	12031.13
506.387	11922.59
506.59	12455.06
506.793	12569.75
506.996	12653.72
507.198	13159.56
507.401	13100.17
507.604	13513.86
507.807	13995.14
508.009	13948.03
508.212	14568.57
508.415	14763.12
508.617	15088.75
508.82	15129.71
509.022	15258.73
509.225	16036.96
509.428	16141.41
509.63	16684.12
509.833	16731.22
510.035	17464.39
510.238	17445.96
510.44	17939.52
510.643	18453.56
510.845	18891.83
511.048	19364.91
511.25	19459.12
511.453	19778.6
511.655	21044.24
511.858	21105.68
512.06	21550.09
512.262	21922.82
512.465	22180.87
512.667	23106.55
512.87	23413.74
513.072	23688.17
513.274	24773.6
513.477	25031.64
513.679	25723.85
513.881	26260.42
514.084	26979.26
514.286	27077.56
514.488	28029.87
514.69	28799.9
514.893	29262.74
515.095	29766.54
515.297	30483.33
515.499	31110.01
515.701	31916.91
515.904	32756.58
516.106	33323.86
516.308	33788.75
516.51	35058.49
516.712	35011.39
516.914	35752.76
517.116	36721.44
517.318	37174.05
517.52	37948.18
517.722	38230.8
517.925	39154.43
518.127	40641.26
518.329	41065.19
518.531	41177.82
518.733	41931.48
518.935	43006.66
519.136	43610.81
519.338	44372.66
519.54	45415.07
519.742	46291.6
519.944	45914.78
520.146	47325.83
520.348	47534.72
520.55	48046.71
520.752	48855.66
520.954	49730.14
521.155	49918.56
521.357	50979.4
521.559	51315.27
521.761	52187.7
521.963	52214.33
522.164	52476.47
522.366	52884.01
522.568	53678.63
522.77	53969.44
522.971	54649.36
523.173	54827.54
523.375	55570.95
523.576	55261.71
523.778	55527.94
523.98	56644.08
524.181	56523.25
524.383	56545.78
524.584	57203.18
524.786	56807.92
524.988	57176.56
525.189	57217.52
525.391	57620.97
525.592	57737.7
525.794	57432.55
525.995	57354.73
526.197	57303.53
526.398	57684.45
526.6	57315.82
526.801	57522.66
527.003	57696.74
527.204	56998.38
527.406	57076.21
527.607	57213.42
527.808	56398.33
528.01	55990.78
528.211	56041.98
528.412	56492.54
528.614	55509.51
528.815	55124.49
529.016	55243.27
529.218	54467.09
529.419	54506.01
529.62	54049.31
529.822	53299.75
530.023	52888.11
530.224	52249.14
530.425	51794.49
530.626	51372.61
530.828	50479.7
531.029	50922.06
531.23	49848.92
531.431	49033.83
531.632	49158.76
531.833	48687.73
532.035	48228.98
532.236	47694.46
532.437	46989.96
532.638	46307.99
532.839	46267.03
533.04	45267.62
533.241	44358.32
533.442	44796.59
533.643	43813.56
533.844	43129.54
534.045	42738.38
534.246	41788.12
534.447	41427.68
534.648	40755.94
534.849	40467.18
535.05	39541.5
535.251	39271.17
535.451	38714.12
535.652	38257.42
535.853	37503.77
536.054	37315.36
536.255	36610.85
536.456	35932.98
536.657	36256.56
536.857	35507
537.058	34822.98
537.259	34739.01
537.46	33958.74
537.66	33203.03
537.861	33272.67
538.062	32498.53
538.263	32332.65
538.463	31421.3
538.664	31505.27
538.865	31142.78
539.065	31021.95
539.266	30028.68
539.466	29985.68
539.667	29039.51
539.868	29524.88
540.068	28928.92
540.269	28867.48
540.469	28449.7
540.67	27827.12
540.87	27567.02
541.071	27077.56
541.271	27098.04
541.472	26614.72
541.672	26420.16
541.873	25924.55
542.073	25451.47
542.274	25267.16
542.474	25367.51
542.675	24714.2
542.875	24802.27
543.075	24128.49
543.276	23593.97
543.476	24046.57
543.676	23397.36
543.877	22948.86
544.077	23041.01
544.277	22836.22
544.478	22393.86
544.678	22180.87
544.878	21986.31
545.078	21845
545.279	21251.09
545.479	20976.66
545.679	20923.41
545.879	20911.13
546.079	20407.33
546.28	20354.08
546.48	19799.08
546.68	20003.88
546.88	19831.85
547.08	19381.29
547.28	19303.47
547.48	18408.51
547.68	18644.02
547.88	18549.82
548.081	18181.18
548.281	17882.18
548.481	17747.01
548.681	17316.94
548.881	17300.56
549.081	17019.99
549.28	16583.77
549.48	16817.24
549.68	16497.75
549.88	16335.96
550.08	15844.45
550.28	15699.05
550.48	15596.65
550.68	15539.3
550.88	14865.52
551.08	14875.76
551.279	14869.62
551.479	14400.63
551.679	14199.93
551.879	14126.21
552.079	13806.72
552.278	13489.29
552.478	13540.49
552.678	13413.51
552.878	13227.15
553.077	12854.42
553.277	12465.3
553.477	12721.3
553.676	12385.43
553.876	12033.18
554.076	11959.45
554.275	11656.36
554.475	11351.21
554.674	11486.37
554.874	11150.51
555.074	10863.79
555.273	10828.98
555.473	10812.59
555.672	10636.47
555.872	10501.3
556.071	10233.02
556.271	10106.04
556.47	9979.07
556.67	9571.52
556.869	9483.46
557.068	9401.54
557.268	9346.25
557.467	9043.15
557.667	9145.55
557.866	8852.69
558.065	8496.34
558.265	8561.87
558.464	8039.64
558.663	8398.04
558.863	8119.51
559.062	8146.14
559.261	7617.76
559.461	7832.8
559.66	7584.99
559.859	7363.81
560.058	7257.32
560.258	7230.7
560.457	7146.73
560.656	7199.98
560.855	6866.16
561.054	6825.2
561.253	6712.56
561.453	6573.3
561.652	6425.84
561.851	6546.67
562.05	6196.47
562.249	6012.15
562.448	6233.33
562.647	6022.39
562.846	5930.23
563.045	5778.69
563.244	5653.76
563.443	5752.06
563.642	5434.63
563.841	5473.54
564.04	5397.76
564.239	5315.84
564.438	5139.72
564.637	5170.44
564.836	5129.48
565.035	4996.36
565.234	4984.07
565.432	4912.39
565.631	4863.24
565.83	4834.57
566.029	4678.93
566.228	4547.86
566.427	4621.58
566.625	4291.86
566.824	4406.55
567.023	4357.39
567.222	4267.28
567.42	4113.69
567.619	4072.73
567.818	4021.53
568.016	4195.61
568.215	3927.32
568.414	4029.72
568.612	3820.83
568.811	3722.52
569.01	3650.85
569.208	3677.47
569.407	3644.7
569.605	3556.64
569.804	3628.32
570.002	3538.21
570.201	3257.64
570.4	3552.54
570.598	3310.88
570.797	3194.15
570.995	3304.74
571.193	3214.63
571.392	3067.17
571.59	3005.74
571.789	2983.21
571.987	2960.68
572.186	3126.57
572.384	2860.33
572.582	2848.04
572.781	2897.19
572.979	2637.1
573.177	2653.48
573.376	2796.84
573.574	2643.24
573.772	2503.98
573.971	2606.38
574.169	2383.15
574.367	2460.98
574.565	2495.79
574.763	2506.03
574.962	2356.53
575.16	2364.72
575.358	2192.69
575.556	2299.19
575.754	2180.4
575.952	2174.26
576.151	2252.08
576.349	2286.9
576.547	2030.9
576.745	2131.25
576.943	2098.49
577.141	1865.02
577.339	1916.22
577.537	1977.66
577.735	1977.66
577.933	1865.02
578.131	1758.52
578.329	1785.15
578.527	1746.23
578.725	1942.84
578.923	1609.02
579.121	1846.59
579.319	1623.36
579.516	1611.07
579.714	1901.88
579.912	1549.63
580.11	1527.1
580.308	1574.21
580.506	1606.97
580.704	1348.93
580.901	1393.98
581.099	1539.39
581.297	1385.79
581.495	1373.5
581.692	1424.7
581.89	1482.05
582.088	1322.31
582.285	1342.78
582.483	1283.39
582.681	1346.88
582.878	1281.35
583.076	1297.73
583.274	1191.24
583.471	1301.83
583.669	1140.04
583.866	1135.94
584.064	1051.97
584.262	1086.79
584.459	1099.08
584.657	1099.08
584.854	1133.89
585.052	1090.88
585.249	1172.8
585.447	1101.12
585.644	922.95
585.841	1078.6
586.039	1006.92
586.236	1058.12
586.434	947.53
586.631	957.77
586.828	941.38
587.026	992.58
587.223	863.56
587.42	863.56
587.618	953.67
587.815	978.25
588.012	816.46
588.21	869.7
588.407	1015.11
588.604	890.18
588.801	701.77
588.999	826.7
589.196	810.31
589.393	789.83
589.59	800.07
589.787	744.78
589.984	748.87
590.182	744.78
590.379	693.58
590.576	748.87
590.773	779.59
590.97	730.44
591.167	781.64
591.364	859.46
591.561	683.34
591.758	941.38
591.955	826.7
592.152	740.68
592.349	666.96
592.546	728.39
592.743	640.33
592.94	773.45
593.137	855.37
593.334	798.03
593.531	742.73
593.727	806.22
593.924	773.45
594.121	779.59
594.318	802.12
594.515	773.45
594.712	859.46
594.908	857.42
595.105	652.62
595.302	773.45
595.499	779.59
595.696	939.33
595.892	744.78
596.089	832.84
596.286	873.8
596.482	910.66
596.679	900.42
596.876	822.6
597.072	941.38
597.269	916.81
597.466	892.23
597.662	927.05
597.859	992.58
598.055	1045.83
598.252	1123.65
598.448	1062.21
598.645	1140.04
598.841	1156.42
599.038	1242.43
599.234	1377.6
599.431	1283.39
599.627	1418.56
599.824	1457.47
600.02	1457.47
600.217	1408.32
600.413	1600.83
600.609	1531.2
600.806	1758.52
601.002	1785.15
601.198	1766.71
601.395	1942.84
601.591	1991.99
601.787	1922.36
601.984	2082.1
602.18	2082.1
602.376	2166.07
602.572	2385.2
602.769	2424.11
602.965	2524.46
603.161	2487.6
603.357	2626.86
603.553	2784.55
603.75	2790.7
603.946	2864.43
604.142	2979.11
604.338	3130.66
604.534	3079.46
604.73	3306.79
604.926	3302.69
605.122	3550.5
605.318	3638.56
605.514	3695.9
605.71	3960.09
605.906	3783.96
606.102	4214.04
606.298	4367.63
606.494	4562.19
606.69	4549.9
606.886	4513.04
607.082	4848.91
607.278	4754.7
607.474	5008.65
607.67	5172.49
607.866	5190.92
608.062	5565.7
608.257	5590.27
608.453	5731.58
608.649	5823.74
608.845	5948.67
609.041	6167.8
609.236	6247.67
609.432	6522.1
609.628	6608.11
609.824	6968.55
610.019	6804.72
610.215	7097.58
610.411	7415.01
610.606	7781.6
610.802	7722.21
610.998	7974.11
611.193	8457.43
611.389	8338.65
611.584	8565.97
611.78	8600.79
611.976	8965.32
612.171	9444.55
612.367	9792.7
612.562	9700.55
612.758	10097.85
612.953	10112.19
613.149	10493.11
613.344	10988.72
613.539	11132.08
613.735	11400.36
613.93	11639.97
614.126	11971.74
614.321	12371.1
614.517	12795.03
614.712	12844.18
614.907	13321.35
615.103	13548.68
615.298	14070.91
615.493	14410.87
615.688	14478.46
615.884	15109.23
616.079	15203.44
616.274	16084.06
616.47	15991.91
616.665	16397.4
616.86	16905.3
617.055	17237.07
617.25	17904.71
617.445	18422.84
617.641	18416.7
617.836	19010.61
618.031	19395.63
618.226	20194.34
618.421	20454.43
618.616	21218.32
618.811	21468.17
619.006	22158.34
619.201	22172.67
619.396	22850.55
619.591	22805.5
619.786	23866.35
619.981	24204.26
620.176	25076.69
620.371	25146.33
620.566	26160.07
620.761	26485.7
620.956	27241.4
621.151	27364.28
621.346	28273.57
621.541	28550.05
621.735	29264.79
621.93	29336.47
622.125	30059.4
622.32	30194.57
622.515	31126.39
622.709	31558.52
622.904	32703.33
623.099	32633.7
623.294	33639.25
623.488	33844.05
623.683	34538.31
623.878	34755.39
624.072	35289.91
624.267	36057.9
624.462	36862.75
624.656	36770.6
624.851	37847.83
625.046	38271.76
625.24	39047.94
625.435	39199.49
625.629	39717.62
625.824	40151.79
626.018	40739.56
626.213	40686.31
626.407	42140.37
626.602	41485.02
626.796	42734.28
626.991	43127.49
627.185	43324.1
627.38	43580.09
627.574	44057.27
627.768	44069.56
627.963	44141.24
628.157	44460.72
628.352	44919.46
628.546	44516.01
628.74	45128.36
628.935	44712.62
629.129	45111.97
629.323	44274.35
629.517	44343.98
629.712	44655.28
629.906	43987.64
630.1	43043.52
630.294	43463.36
630.489	42791.62
630.683	42451.66
630.877	40987.36
631.071	40823.53
631.265	40540.91
631.459	39359.23
631.653	38746.89
631.848	38181.65
632.042	36975.39
632.236	36594.47
632.43	35287.87
632.624	34628.42
632.818	33305.43
633.012	32324.46
633.206	31421.3
633.4	30815.1
633.594	29543.31
633.788	28963.74
633.982	27667.38
634.176	26598.34
634.369	25586.64
634.563	24630.24
634.757	23841.77
634.951	23247.86
635.145	22281.22
635.339	21431.31
635.533	20321.31
635.726	19729.45
635.92	18840.63
636.114	18003.01
636.308	17167.44
636.501	16446.55
636.695	15987.81
636.889	15092.85
637.083	14582.9
637.276	14056.57
637.47	13352.07
637.664	13091.98
637.857	12459.16
638.051	12000.41
638.244	11809.95
638.438	11027.63
638.632	10658.99
638.825	10130.62
639.019	9972.93
639.212	9309.38
639.406	9057.48
639.599	8690.9
639.793	8340.69
639.986	7804.13
640.18	7822.56
640.373	7472.36
640.567	6907.12
640.76	6628.59
640.954	6655.22
641.147	6286.58
641.34	6114.55
641.534	5913.85
641.727	5674.24
641.92	5522.69
642.114	5367.04
642.307	4949.26
642.5	5008.65
642.694	4613.39
642.887	4488.46
643.08	4334.87
643.273	4228.37
643.467	3888.41
643.66	3796.25
643.853	3743
644.046	3616.03
644.239	3472.67
644.432	3292.45
644.626	3138.85
644.819	2895.15
645.012	2889
645.205	2882.86
645.398	2831.66
645.591	2604.33
645.784	2432.3
645.977	2288.95
646.17	2305.33
646.363	2276.66
646.556	2133.3
646.749	1955.13
646.942	2014.52
647.135	2024.76
647.328	1715.52
647.521	1813.82
647.714	1594.69
647.907	1613.12
648.099	1606.97
648.292	1576.25
648.485	1461.57
648.678	1365.31
648.871	1332.54
649.064	1314.11
649.256	1185.09
649.449	1215.81
649.642	1033.54
649.835	1170.76
650.027	998.73
650.22	1117.51
650.413	1056.07
650.605	1047.88
650.798	875.85
650.991	804.17
651.183	914.76
651.376	879.94
651.568	896.33
651.761	806.22
651.954	859.46
652.146	730.44
652.339	767.31
652.531	767.31
652.724	601.42
652.916	587.08
653.109	539.98
653.301	632.14
653.494	609.61
653.686	601.42
653.879	673.1
654.071	597.32
654.263	550.22
654.456	511.31
654.648	609.61
654.84	552.27
655.033	499.02
655.225	496.97
655.417	400.72
655.61	591.18
655.802	570.7
655.994	527.69
656.186	349.52
656.379	501.07
656.571	359.76
656.763	398.67
656.955	316.75
657.148	349.52
657.34	443.73
657.532	304.46
657.724	343.38
657.916	367.95
658.108	404.82
658.3	367.95
658.492	335.18
658.684	232.79
658.876	400.72
659.068	224.59
659.26	228.69
659.452	226.64
659.644	331.09
659.836	413.01
660.028	255.31
660.22	269.65
660.412	253.27
660.604	206.16
660.796	187.73
660.988	365.9
661.18	265.55
661.372	378.19
661.563	255.31
661.755	187.73
661.947	204.11
662.139	165.2
662.331	193.87
662.522	257.36
662.714	179.54
662.906	154.96
663.097	212.31
663.289	193.87
663.481	101.72
663.673	269.65
663.864	257.36
664.056	200.02
664.247	210.26
664.439	253.27
664.631	150.87
664.822	185.68
665.014	230.74
665.205	212.31
665.397	152.91
665.588	206.16
665.78	157.01
665.971	210.26
666.163	261.46
666.354	177.49
666.546	111.96
666.737	208.21
666.929	23.89
667.12	148.82
667.311	185.68
667.503	234.83
667.694	183.63
667.885	157.01
668.077	200.02
668.268	101.72
668.459	144.72
668.651	279.89
668.842	222.55
669.033	152.91
669.224	77.14
669.416	290.13
669.607	171.35
669.798	128.34
669.989	257.36
670.18	114
670.371	191.83
670.563	142.68
670.754	265.55
670.945	243.03
671.136	218.45
671.327	89.43
671.518	240.98
671.709	261.46
671.9	230.74
672.091	288.08
672.282	232.79
672.473	146.77
672.664	130.39
672.855	159.06
673.046	202.07
673.237	195.92
673.428	165.2
673.619	232.79
673.809	107.86
674	238.93
674.191	283.98
674.382	169.3
674.573	210.26
674.764	218.45
674.954	281.94
675.145	204.11
675.336	159.06
675.527	103.76
675.717	134.48
675.908	243.03
676.099	136.53
676.289	122.2
676.48	87.38
676.671	134.48
676.861	124.24
677.052	212.31
677.243	247.12
677.433	169.3
677.624	277.84
677.814	197.97
678.005	228.69
678.195	382.29
678.386	140.63
678.576	245.07
678.767	146.77
678.957	267.6
679.148	316.75
679.338	296.27
679.529	206.16
679.719	230.74
679.909	341.33
680.1	281.94
680.29	216.4
680.481	169.3
680.671	324.94
680.861	281.94
681.052	132.44
681.242	191.83
681.432	206.16
681.622	290.13
681.813	142.68
682.003	228.69
682.193	206.16
682.383	240.98
682.573	236.88
682.764	183.63
682.954	273.75
683.144	326.99
683.334	230.74
683.524	214.35
683.714	367.95
683.904	283.98
684.094	259.41
684.284	210.26
684.474	374.1
684.664	367.95
684.854	210.26
685.044	253.27
685.234	271.7
685.424	247.12
685.614	202.07
685.804	425.29
685.994	292.18
686.184	193.87
686.374	281.94
686.564	355.66
686.753	294.22
686.943	273.75
687.133	259.41
687.323	228.69
687.513	269.65
687.702	265.55
687.892	216.4
688.082	298.32
688.272	343.38
688.461	298.32
688.651	476.49
688.841	329.04
689.03	257.36
689.22	281.94
689.41	361.81
689.599	349.52
689.789	171.35
689.979	392.53
690.168	267.6
690.358	384.34
690.547	296.27
690.737	247.12
690.926	318.8
691.116	378.19
691.305	288.08
691.495	277.84
691.684	281.94
691.874	263.51
692.063	331.09
692.252	316.75
692.442	265.55
692.631	175.44
692.82	243.03
693.01	243.03
693.199	226.64
693.388	228.69
693.578	279.89
693.767	261.46
693.956	324.94
694.146	202.07
694.335	249.17
694.524	210.26
694.713	359.76
694.902	275.79
695.092	183.63
695.281	357.71
695.47	245.07
695.659	214.35
695.848	255.31
696.037	259.41
696.226	292.18
696.415	302.42
696.604	339.28
696.793	322.9
696.982	320.85
697.171	376.14
697.36	267.6
697.549	234.83
697.738	116.05
697.927	300.37
698.116	140.63
698.305	341.33
698.494	220.5
698.683	236.88
698.872	343.38
699.061	226.64
699.25	210.26
699.438	294.22
699.627	230.74
699.816	374.1
700.005	181.59
700.193	226.64
700.382	380.24
700.571	283.98
700.76	232.79
700.948	404.82
701.137	236.88
701.326	273.75
701.514	150.87
701.703	279.89
701.892	226.64
702.08	435.53
702.269	193.87
702.457	206.16
702.646	288.08
702.834	240.98
703.023	263.51
703.212	335.18
703.4	224.59
703.589	286.03
703.777	128.34
703.965	222.55
704.154	224.59
704.342	159.06
704.531	169.3
704.719	238.93
704.907	374.1
705.096	195.92
705.284	226.64
705.472	257.36
705.661	214.35
705.849	257.36
706.037	261.46
706.226	281.94
706.414	302.42
706.602	138.58
706.79	279.89
706.979	204.11
707.167	308.56
707.355	159.06
707.543	341.33
707.731	195.92
707.919	208.21
708.107	269.65
708.296	154.96
708.484	230.74
708.672	257.36
708.86	294.22
709.048	161.11
709.236	118.1
709.424	271.7
709.612	265.55
709.8	146.77
709.988	240.98
710.176	343.38
710.364	320.85
710.551	240.98
710.739	261.46
710.927	228.69
711.115	257.36
711.303	298.32
711.491	380.24
711.679	167.25
711.866	329.04
712.054	185.68
712.242	277.84
712.43	365.9
712.617	267.6
712.805	343.38
712.993	263.51
713.181	126.29
713.368	312.66
713.556	195.92
713.744	159.06
713.931	388.43
714.119	378.19
714.306	214.35
714.494	232.79
714.682	277.84
714.869	224.59
715.057	240.98
715.244	81.24
715.432	261.46
715.619	208.21
715.807	173.39
715.994	224.59
716.182	296.27
716.369	374.1
716.556	269.65
716.744	130.39
716.931	187.73
717.119	257.36
717.306	257.36
717.493	335.18
717.681	259.41
717.868	238.93
718.055	288.08
718.242	218.45
718.43	347.47
718.617	318.8
718.804	298.32
718.991	269.65
719.179	234.83
719.366	300.37
719.553	286.03
719.74	228.69
719.927	261.46
720.114	288.08
720.301	212.31
720.488	195.92
720.676	226.64
720.863	406.86
721.05	433.49
721.237	296.27
721.424	320.85
721.611	269.65
721.798	259.41
721.985	263.51
722.172	296.27
722.358	304.46
722.545	355.66
722.732	318.8
722.919	453.97
723.106	335.18
723.293	329.04
723.48	253.27
723.667	300.37
723.853	419.15
724.04	408.91
724.227	404.82
724.414	243.03
724.6	374.1
724.787	333.14
724.974	423.25
725.161	306.51
725.347	220.5
725.534	322.9
725.72	361.81
725.907	482.64
726.094	357.71
726.28	240.98
726.467	267.6
726.653	318.8
726.84	376.14
727.027	499.02
727.213	283.98
727.4	402.77
727.586	392.53
727.773	363.86
727.959	236.88
728.145	318.8
728.332	265.55
728.518	306.51
728.705	408.91
728.891	320.85
729.077	333.14
729.264	269.65
729.45	249.17
729.636	318.8
729.823	326.99
730.009	447.82
730.195	265.55
730.382	390.48
730.568	191.83
730.754	349.52
730.94	306.51
731.126	372.05
731.313	464.21
731.499	324.94
731.685	365.9
731.871	290.13
732.057	318.8
732.243	386.38
732.429	376.14
732.615	482.64
732.801	310.61
732.987	337.23
733.173	363.86
733.359	240.98
733.545	384.34
733.731	333.14
733.917	421.2
734.103	361.81
734.289	367.95
734.475	320.85
734.661	519.5
734.847	290.13
735.033	349.52
735.219	392.53
735.404	298.32
735.59	353.62
735.776	277.84
735.962	400.72
736.148	310.61
736.333	494.93
736.519	419.15
736.705	402.77
736.89	378.19
737.076	275.79
737.262	314.7
737.447	333.14
737.633	247.12
737.819	400.72
738.004	374.1
738.19	333.14
738.375	423.25
738.561	372.05
738.747	392.53
738.932	296.27
739.118	580.94
739.303	441.68
739.489	449.87
739.674	322.9
739.859	204.11
740.045	404.82
740.23	314.7
740.416	257.36
740.601	376.14
740.786	380.24
740.972	279.89
741.157	275.79
741.342	302.42
741.528	333.14
741.713	445.77
741.898	275.79
742.084	341.33
742.269	378.19
742.454	380.24
742.639	535.89
742.824	476.49
743.01	484.69
743.195	499.02
743.38	335.18
743.565	370
743.75	265.55
743.935	472.4
744.12	484.69
744.305	347.47
744.49	304.46
744.675	382.29
744.86	300.37
745.045	312.66
745.23	349.52
745.415	361.81
745.6	376.14
745.785	326.99
745.97	421.2
746.155	308.56
746.34	404.82
746.525	335.18
746.71	392.53
746.895	304.46
747.079	183.63
747.264	324.94
747.449	392.53
747.634	421.2
747.819	380.24
748.003	376.14
748.188	247.12
748.373	312.66
748.557	390.48
748.742	339.28
748.927	232.79
749.111	306.51
749.296	353.62
749.481	378.19
749.665	259.41
749.85	283.98
750.034	331.09
750.219	277.84
750.404	283.98
750.588	290.13
750.773	251.22
750.957	355.66
751.141	240.98
751.326	316.75
751.51	154.96
751.695	286.03
751.879	214.35
752.064	384.34
752.248	347.47
752.432	429.39
752.617	355.66
752.801	326.99
752.985	249.17
753.17	273.75
753.354	294.22
753.538	269.65
753.722	277.84
753.907	228.69
754.091	200.02
754.275	333.14
754.459	152.91
754.643	161.11
754.828	222.55
755.012	204.11
755.196	214.35
755.38	238.93
755.564	167.25
755.748	277.84
755.932	197.97
756.116	281.94
756.3	224.59
756.484	212.31
756.668	372.05
756.852	148.82
757.036	132.44
757.22	228.69
757.404	146.77
757.588	193.87
757.772	279.89
757.956	109.91
758.14	322.9
758.323	132.44
758.507	261.46
758.691	146.77
758.875	341.33
759.059	275.79
759.242	191.83
759.426	183.63
759.61	240.98
759.794	93.52
759.977	259.41
760.161	417.1
760.345	361.81
760.528	267.6
760.712	173.39
760.895	255.31
761.079	251.22
761.263	146.77
761.446	187.73
761.63	195.92
761.813	216.4
761.997	81.24
762.18	138.58
762.364	253.27
762.547	114
762.731	191.83
762.914	200.02
763.098	128.34
763.281	165.2
763.464	109.91
763.648	216.4
763.831	214.35
764.015	114
764.198	271.7
764.381	111.96
764.564	130.39
764.748	240.98
764.931	216.4
765.114	124.24
765.297	251.22
765.481	101.72
765.664	122.2
765.847	105.81
766.03	230.74
766.213	101.72
766.397	169.3
766.58	120.15
766.763	253.27
766.946	114
767.129	118.1
767.312	81.24
767.495	185.68
767.678	126.29
767.861	167.25
768.044	93.52
768.227	122.2
768.41	157.01
768.593	195.92
768.776	103.76
768.959	99.67
769.142	187.73
769.324	193.87
769.507	150.87
769.69	71
769.873	105.81
770.056	173.39
770.239	159.06
770.421	243.03
770.604	175.44
770.787	93.52
770.97	132.44
771.152	103.76
771.335	265.55
771.518	56.66
771.7	238.93
771.883	296.27
772.066	71
772.248	134.48
772.431	208.21
772.613	157.01
772.796	202.07
772.978	163.15
773.161	314.7
773.343	159.06
773.526	52.56
773.708	5.46
773.891	9.56
774.073	85.33
774.256	27.99
774.438	292.18
774.621	142.68
774.803	118.1
774.985	140.63
775.168	146.77
775.35	173.39
775.532	101.72
775.715	71
775.897	236.88
776.079	136.53
776.261	109.91
776.444	124.24
776.626	124.24
776.808	27.99
776.99	-88.75
777.173	114
777.355	-2.73
777.537	134.48
777.719	73.04
777.901	9.56
778.083	34.13
778.265	54.61
778.447	212.31
778.629	89.43
778.811	130.39
778.993	175.44
779.175	159.06
779.357	89.43
779.539	15.7
779.721	89.43
779.903	189.78
780.085	44.37
780.267	95.57
780.449	118.1
780.631	85.33
780.812	240.98
780.994	77.14
781.176	85.33
781.358	1.37
781.54	50.52
781.721	107.86
781.903	183.63
782.085	-0.68
782.267	126.29
782.448	64.85
782.63	27.99
782.812	83.28
782.993	81.24
783.175	138.58
783.357	-2.73
783.538	95.57
783.72	81.24
783.901	79.19
784.083	95.57
784.264	114
784.446	-0.68
784.627	1.37
784.809	144.72
784.99	64.85
785.172	42.32
785.353	132.44
785.535	91.48
785.716	23.89
785.897	-39.59
786.079	17.75
786.26	95.57
786.441	109.91
786.623	-23.21
786.804	138.58
786.985	91.48
787.167	120.15
787.348	95.57
787.529	-8.87
787.71	165.2
787.891	85.33
788.073	85.33
788.254	-25.26
788.435	126.29
788.616	120.15
788.797	-62.12
788.978	9.56
789.159	25.94
789.34	111.96
789.522	13.65
789.703	64.85
789.884	54.61
790.065	5.46
790.246	222.55
790.427	50.52
790.607	222.55
790.788	91.48
790.969	103.76
791.15	146.77
791.331	-23.21
791.512	-15.02
791.693	-96.94
791.874	-37.55
792.054	216.4
792.235	169.3
792.416	-60.07
792.597	40.28
792.778	126.29
792.958	81.24
793.139	56.66
793.32	-4.78
793.5	-60.07
793.681	122.2
793.862	97.62
794.042	36.18
794.223	-101.03
794.404	3.41
794.584	-88.75
794.765	21.85
794.945	23.89
795.126	68.95
795.306	118.1
795.487	-33.45
795.667	46.42
795.848	50.52
796.028	85.33
796.209	40.28
796.389	161.11
796.57	50.52
796.75	-72.36
796.93	73.04
797.111	-25.26
797.291	21.85
797.471	130.39
797.652	-60.07
797.832	-23.21
798.012	93.52
798.192	58.71
798.373	-82.6
798.553	58.71
798.733	32.08
798.913	-51.88
799.093	-23.21
799.274	23.89
799.454	56.66
799.634	71
799.814	136.53
799.994	120.15
800.174	89.43
800.354	15.7
800.534	-47.79
800.714	85.33
800.894	3.41
801.074	-31.4
801.254	-8.87
801.434	157.01
801.614	21.85
801.794	7.51
801.974	1639.74
802.154	46.42
802.334	95.57
802.514	-49.83
802.693	-41.64
802.873	-23.21
803.053	150.87
803.233	48.47
803.413	-4.78
803.592	46.42
803.772	11.61
803.952	89.43
804.131	11.61
804.311	73.04
804.491	38.23
804.67	-29.35
804.85	-31.4
805.03	38.23
805.209	124.24
805.389	44.37
805.568	32.08
805.748	-27.31
805.928	54.61
806.107	19.8
806.287	101.72
806.466	77.14
806.646	-37.55
806.825	62.8
807.004	-45.74
807.184	58.71
807.363	64.85
807.543	-4.78
807.722	54.61
807.901	146.77
808.081	93.52
808.26	-84.65
808.439	42.32
808.619	25.94
808.798	-43.69
808.977	1.37
809.156	99.67
809.336	83.28
809.515	169.3
809.694	-78.51
809.873	-45.74
810.052	50.52
810.231	150.87
810.411	77.14
810.59	97.62
810.769	9.56
810.948	21.85
811.127	-113.32
811.306	-37.55
811.485	-58.03
811.664	99.67
811.843	-17.07
812.022	-35.5
812.201	-10.92
812.38	75.09
812.559	48.47
812.737	111.96
812.916	-88.75
813.095	-15.02
813.274	83.28
813.453	62.8
813.632	66.9
813.811	32.08
813.989	-55.98
814.168	15.7
814.347	-74.41
814.526	25.94
814.704	150.87
814.883	101.72
815.062	-2.73
815.24	157.01
815.419	-12.97
815.598	-12.97
815.776	-39.59
815.955	-47.79
816.133	-127.66
816.312	64.85
816.49	-49.83
816.669	3.41
816.847	-37.55
817.026	54.61
817.204	-15.02
817.383	25.94
817.561	-58.03
817.74	3.41
817.918	81.24
818.097	-76.46
818.275	-86.7
818.453	19.8
818.632	3.41
818.81	-21.16
818.988	-0.68
819.167	-49.83
819.345	-8.87
819.523	-17.07
819.701	-29.35
819.879	-4.78
820.058	-4.78
820.236	87.38
820.414	11.61
820.592	36.18
820.77	7.51
820.948	11.61
821.127	-21.16
821.305	71
821.483	-15.02
821.661	68.95
821.839	71
822.017	-12.97
822.195	21.85
822.373	93.52
822.551	75.09
822.729	89.43
822.907	-6.83
823.085	64.85
823.262	34.13
823.44	-0.68
823.618	36.18
823.796	25.94
823.974	-62.12
824.152	-35.5
824.329	-17.07
824.507	93.52
824.685	60.76
824.863	52.56
825.04	-0.68
825.218	120.15
825.396	19.8
825.574	23.89
825.751	-8.87
825.929	81.24
826.107	3.41
826.284	95.57
826.462	9.56
826.639	-17.07
826.817	-113.32
826.994	-31.4
827.172	-64.17
827.349	109.91
827.527	68.95
827.704	-45.74
827.882	120.15
828.059	-23.21
828.237	40.28
828.414	111.96
828.591	-49.83
828.769	-6.83
828.946	-39.59
829.124	68.95
829.301	173.39
829.478	-0.68
829.655	52.56
829.833	-53.93
830.01	-137.9
830.187	25.94
830.364	71
830.542	-68.27
830.719	124.24
830.896	-41.64
831.073	-17.07
831.25	64.85
831.427	71
831.604	-45.74
831.782	15.7
831.959	66.9
832.136	1.37
832.313	-6.83
832.49	-8.87
832.667	71
832.844	-29.35
833.021	79.19
833.198	38.23
833.374	21.85
833.551	19.8
833.728	-23.21
833.905	93.52
834.082	-60.07
834.259	-8.87
834.436	34.13
834.612	-29.35
834.789	5.46
834.966	1.37
835.143	107.86
835.319	-27.31
835.496	66.9
835.673	32.08
835.85	111.96
836.026	48.47
836.203	83.28
836.38	-103.08
836.556	-45.74
836.733	-76.46
836.909	200.02
837.086	-51.88
837.262	-94.89
837.439	-4.78
837.616	34.13
837.792	36.18
837.968	-21.16
838.145	-45.74
838.321	-41.64
838.498	-0.68
838.674	17.75
838.851	36.18
839.027	-43.69
839.203	-12.97
839.38	44.37
839.556	-35.5
839.732	62.8
839.909	-19.11
840.085	30.04
840.261	-39.59
840.437	48.47
840.614	-39.59
840.79	38.23
840.966	-2.73
841.142	23.89
841.318	-80.55
841.494	1.37
841.671	126.29
841.847	-21.16
842.023	-55.98
842.199	-2.73
842.375	48.47
842.551	-98.99
842.727	-35.5
842.903	66.9
843.079	-166.57
843.255	27.99
843.431	25.94
843.607	-0.68
843.783	-129.7
843.959	-6.83
844.134	1.37
844.31	130.39
844.486	-6.83
844.662	44.37
844.838	-29.35
845.013	52.56
845.189	173.39
845.365	-25.26
845.541	-43.69
845.716	36.18
845.892	54.61
846.068	-72.36
846.244	-43.69
846.419	58.71
846.595	-68.27
846.77	-47.79
846.946	79.19
847.122	-55.98
847.297	-6.83
847.473	124.24
847.648	-119.46
847.824	-55.98
847.999	1.37
848.175	30.04
848.35	27.99
848.526	114
848.701	118.1
848.876	62.8
849.052	9.56
849.227	-55.98
849.403	44.37
849.578	-49.83
849.753	52.56
849.929	54.61
850.104	-80.55
850.279	15.7
850.454	89.43
850.63	32.08
850.805	7.51
850.98	138.58
851.155	17.75
851.33	-8.87
851.505	-101.03
851.681	111.96
851.856	-72.36
852.031	-41.64
852.206	1.37
852.381	-35.5
852.556	-27.31
852.731	30.04
852.906	19.8
853.081	81.24
853.256	144.72
853.431	64.85
853.606	15.7
853.781	-80.55
853.956	-133.8
854.131	81.24
854.305	-60.07
854.48	-105.13
854.655	-74.41
854.83	-6.83
855.005	-49.83
855.18	23.89
855.354	-31.4
855.529	21.85
855.704	-74.41
855.879	30.04
856.053	-84.65
856.228	9.56
856.403	-115.37
856.577	11.61
856.752	-127.66
856.926	15.7
857.101	-15.02
857.276	-94.89
857.45	71
857.625	89.43
857.799	-31.4
857.974	21.85
858.148	-121.51
858.323	-21.16
858.497	7.51
858.672	-70.31
858.846	-45.74
859.02	13.65
859.195	-115.37
859.369	-66.22
859.543	58.71
859.718	-37.55
859.892	27.99
860.066	1.37
860.241	-35.5
860.415	-31.4
860.589	-62.12
860.763	-4.78
860.938	-27.31
861.112	87.38
861.286	-25.26
861.46	38.23
861.634	-60.07
861.808	5.46
861.982	-76.46
862.157	-103.08
862.331	-68.27
862.505	-123.56
862.679	-72.36
862.853	-47.79
863.027	-15.02
863.201	101.72
863.375	-31.4
863.549	56.66
863.722	-49.83
863.896	120.15
864.07	-66.22
864.244	19.8
864.418	134.48
864.592	-47.79
864.766	15.7
864.939	46.42
865.113	-58.03
865.287	44.37
865.461	-64.17
865.634	-31.4
865.808	-15.02
865.982	-39.59
866.156	-109.22
866.329	-19.11
866.503	9.56
866.676	42.32
866.85	34.13
867.024	7.51
867.197	71
867.371	-19.11
867.544	-27.31
867.718	-47.79
867.891	3.41
868.065	-33.45
868.238	-0.68
868.412	50.52
868.585	9.56
868.759	-41.64
868.932	-37.55
869.105	-62.12
869.279	-2.73
869.452	-41.64
869.625	-17.07
869.799	-43.69
869.972	-86.7
870.145	-49.83
870.319	159.06
870.492	-64.17
870.665	-45.74
870.838	-105.13
871.011	-135.85
871.185	-39.59
871.358	-62.12
871.531	52.56
871.704	-23.21
871.877	66.9
872.05	-25.26
872.223	-70.31
872.396	107.86
872.569	50.52
872.742	-84.65
872.915	81.24
873.088	-12.97
873.261	-25.26
873.434	101.72
873.607	64.85
873.78	95.57
873.953	-123.56
874.126	7.51
874.299	1.37
874.471	-84.65
874.644	34.13
874.817	56.66
874.99	114
875.163	-76.46
875.335	5.46
875.508	-0.68
875.681	60.76
875.853	-23.21
876.026	21.85
876.199	46.42
876.371	-49.83
876.544	32.08
876.717	13.65
876.889	-37.55
877.062	48.47
877.234	-39.59
877.407	-53.93
877.579	-31.4
877.752	27.99
877.924	40.28
878.097	3.41
878.269	19.8
878.442	73.04
878.614	38.23
878.786	5.46
878.959	15.7
879.131	3.41
879.303	-84.65
879.476	-70.31
879.648	81.24
879.82	-47.79
879.993	-64.17
880.165	-37.55
880.337	-72.36
880.509	19.8
880.681	-86.7
880.854	-66.22
881.026	23.89
881.198	148.82
881.37	3.41
881.542	34.13
881.714	36.18
881.886	1.37
882.058	1.37
882.23	34.13
882.402	-51.88
882.574	79.19
882.746	109.91
882.918	75.09
883.09	103.76
883.262	3.41
883.434	-21.16
883.606	-90.79
883.778	-53.93
883.95	189.78
884.122	-33.45
884.293	152.91
884.465	36.18
884.637	32.08
884.809	-10.92
884.98	11.61
885.152	-15.02
885.324	36.18
885.496	-82.6
885.667	-33.45
885.839	-21.16
886.011	15.7
886.182	-0.68
886.354	-15.02
886.525	89.43
886.697	30.04
886.869	-109.22
887.04	-70.31
887.212	97.62
887.383	161.11
887.555	-33.45
887.726	-150.18
887.897	-117.42
888.069	21.85
888.24	-2.73
888.412	-21.16
888.583	11.61
888.754	-43.69
888.926	-111.27
889.097	-37.55
889.268	-90.79
889.44	44.37
889.611	-37.55
889.782	-86.7
889.953	-60.07
890.125	64.85
890.296	-53.93
890.467	-49.83
890.638	11.61
890.809	-23.21
890.98	-88.75
891.151	68.95
891.323	161.11
891.494	21.85
891.665	-74.41
891.836	9.56
892.007	60.76
892.178	1.37
892.349	-2.73
892.52	-2.73
892.691	-55.98
892.862	-17.07
893.032	-68.27
893.203	-33.45
893.374	54.61
893.545	58.71
893.716	-6.83
893.887	50.52
894.057	21.85
894.228	34.13
894.399	-68.27
894.57	167.25
894.74	21.85
894.911	-0.68
895.082	-60.07
895.253	-49.83
895.423	-21.16
895.594	91.48
895.764	19.8
895.935	-55.98
896.106	73.04
896.276	38.23
896.447	21.85
896.617	-82.6
896.788	-45.74
896.958	7.51
897.129	3.41
897.299	1.37
897.47	118.1
897.64	73.04
897.81	3.41
897.981	64.85
898.151	25.94
898.322	19.8
898.492	25.94
898.662	-37.55
898.832	-80.55
899.003	-0.68
899.173	3.41
899.343	-94.89
899.513	-58.03
