Data from USB4F104151__19__10-23-34-747.txt Node

Date: Wed Feb 26 10:23:34 EST 2025
User: louis
Spectrometer: USB4F10415
Trigger mode: 4
Integration Time (sec): 1.000000E-1
Scans to average: 1
Electric dark correction enabled: true
Nonlinearity correction enabled: false
Boxcar width: 0
XAxis mode: Wavelengths
Number of Pixels in Spectrum: 3648
>>>>>Begin Spectral Data<<<<<
178.204	-313.51
178.424	-313.51
178.644	-313.51
178.864	-411.81
179.084	-391.33
179.304	26.45
179.524	1.88
179.744	24.4
179.964	3.93
180.184	36.69
180.404	22.36
180.624	16.21
180.844	32.6
181.064	-71.85
181.283	-39.08
181.503	-104.62
181.723	51.03
181.943	-104.62
182.163	206.67
182.383	-63.66
182.602	132.95
182.822	192.34
183.042	20.31
183.262	-96.43
183.482	8.02
183.701	87.89
183.921	71.51
184.141	-26.79
184.361	165.71
184.58	87.89
184.8	38.74
185.02	-43.18
185.239	77.65
185.459	108.37
185.679	206.67
185.898	-61.61
186.118	34.64
186.338	98.13
186.557	106.32
186.777	-59.56
186.997	32.6
187.216	59.22
187.436	218.96
187.655	3.93
187.875	57.17
188.095	-6.31
188.314	132.95
188.534	153.43
188.753	-41.13
188.973	196.43
189.192	110.42
189.412	10.07
189.631	3.93
189.851	40.79
190.07	161.62
190.29	-22.7
190.509	18.26
190.729	53.08
190.948	77.65
191.168	192.34
191.387	87.89
191.607	57.17
191.826	83.8
192.045	57.17
192.265	61.27
192.484	75.6
192.704	73.56
192.923	5.97
193.142	145.24
193.362	57.17
193.581	122.71
193.8	73.56
194.02	100.18
194.239	63.32
194.458	8.02
194.678	57.17
194.897	-10.41
195.116	118.61
195.335	-53.42
195.555	57.17
195.774	-47.27
195.993	96.08
196.212	42.84
196.432	77.65
196.651	-16.55
196.87	75.6
197.089	180.05
197.308	5.97
197.528	128.85
197.747	-71.85
197.966	53.08
198.185	108.37
198.404	55.12
198.623	212.82
198.842	188.24
199.062	36.69
199.281	128.85
199.5	91.99
199.719	91.99
199.938	135
200.157	108.37
200.376	202.58
200.595	169.81
200.814	59.22
201.033	34.64
201.252	186.19
201.471	38.74
201.69	38.74
201.909	63.32
202.128	36.69
202.347	130.9
202.566	-69.8
202.785	-82.09
203.004	-8.36
203.223	229.2
203.442	-2.22
203.661	-20.65
203.879	63.32
204.098	89.94
204.317	-28.84
204.536	116.56
204.755	83.8
204.974	137.04
205.193	-45.23
205.411	81.75
205.63	132.95
205.849	85.84
206.068	18.26
206.287	-45.23
206.505	135
206.724	94.04
206.943	12.12
207.162	-73.9
207.381	135
207.599	53.08
207.818	87.89
208.037	-61.61
208.255	-57.51
208.474	126.8
208.693	94.04
208.911	-34.99
209.13	118.61
209.349	10.07
209.567	75.6
209.786	96.08
210.005	71.51
210.223	71.51
210.442	-82.09
210.661	-22.7
210.879	83.8
211.098	91.99
211.316	112.47
211.535	85.84
211.753	85.84
211.972	98.13
212.191	16.21
212.409	-61.61
212.628	46.93
212.846	-22.7
213.065	48.98
213.283	85.84
213.502	-20.65
213.72	46.93
213.938	110.42
214.157	22.36
214.375	67.41
214.594	-2.22
214.812	98.13
215.031	14.17
215.249	94.04
215.467	26.45
215.686	57.17
215.904	110.42
216.122	-6.31
216.341	137.04
216.559	-14.51
216.778	114.52
216.996	151.38
217.214	34.64
217.432	-0.17
217.651	-75.95
217.869	12.12
218.087	-2.22
218.306	44.88
218.524	10.07
218.742	-14.51
218.96	106.32
219.179	-30.89
219.397	14.17
219.615	175.95
219.833	63.32
220.051	-57.51
220.27	69.46
220.488	57.17
220.706	53.08
220.924	1.88
221.142	-18.6
221.36	73.56
221.578	44.88
221.796	12.12
222.015	53.08
222.233	14.17
222.451	171.86
222.669	-100.52
222.887	18.26
223.105	20.31
223.323	67.41
223.541	-12.46
223.759	98.13
223.977	-22.7
224.195	79.7
224.413	149.33
224.631	48.98
224.849	98.13
225.067	171.86
225.285	-28.84
225.503	73.56
225.721	-53.42
225.939	24.4
226.157	34.64
226.375	233.3
226.592	75.6
226.81	42.84
227.028	85.84
227.246	171.86
227.464	46.93
227.682	55.12
227.9	85.84
228.117	46.93
228.335	34.64
228.553	79.7
228.771	-59.56
228.989	108.37
229.206	18.26
229.424	118.61
229.642	34.64
229.86	-37.03
230.077	153.43
230.295	14.17
230.513	98.13
230.731	100.18
230.948	102.23
231.166	110.42
231.384	42.84
231.601	-14.51
231.819	163.67
232.037	-71.85
232.254	-47.27
232.472	14.17
232.689	-86.19
232.907	102.23
233.125	-53.42
233.342	32.6
233.56	22.36
233.777	63.32
233.995	57.17
234.213	96.08
234.43	124.76
234.648	-32.94
234.865	32.6
235.083	10.07
235.3	73.56
235.518	159.57
235.735	122.71
235.953	98.13
236.17	1.88
236.388	53.08
236.605	94.04
236.822	94.04
237.04	65.36
237.257	24.4
237.475	53.08
237.692	20.31
237.909	69.46
238.127	42.84
238.344	18.26
238.562	32.6
238.779	12.12
238.996	-12.46
239.214	40.79
239.431	79.7
239.648	8.02
239.865	96.08
240.083	48.98
240.3	-43.18
240.517	32.6
240.735	1.88
240.952	135
241.169	42.84
241.386	104.28
241.603	104.28
241.821	-34.99
242.038	16.21
242.255	81.75
242.472	-80.04
242.689	36.69
242.907	67.41
243.124	59.22
243.341	59.22
243.558	-110.76
243.775	-112.81
243.992	-53.42
244.209	110.42
244.426	241.49
244.643	10.07
244.86	-47.27
245.078	89.94
245.295	40.79
245.512	57.17
245.729	53.08
245.946	24.4
246.163	8.02
246.38	-73.9
246.597	151.38
246.814	79.7
247.031	59.22
247.248	57.17
247.464	96.08
247.681	10.07
247.898	120.66
248.115	151.38
248.332	63.32
248.549	178
248.766	161.62
248.983	48.98
249.2	44.88
249.417	77.65
249.633	24.4
249.85	91.99
250.067	-20.65
250.284	71.51
250.501	114.52
250.717	63.32
250.934	-80.04
251.151	-6.31
251.368	81.75
251.585	28.5
251.801	53.08
252.018	-24.75
252.235	69.46
252.451	-37.03
252.668	30.55
252.885	118.61
253.102	61.27
253.318	-20.65
253.535	48.98
253.752	-41.13
253.968	-84.14
254.185	-51.37
254.401	36.69
254.618	48.98
254.835	18.26
255.051	218.96
255.268	118.61
255.484	36.69
255.701	24.4
255.917	26.45
256.134	-39.08
256.351	44.88
256.567	-34.99
256.784	42.84
257	-61.61
257.217	91.99
257.433	163.67
257.65	36.69
257.866	173.91
258.082	-67.75
258.299	28.5
258.515	79.7
258.732	44.88
258.948	-16.55
259.165	79.7
259.381	-12.46
259.597	75.6
259.814	34.64
260.03	-39.08
260.246	-39.08
260.463	34.64
260.679	186.19
260.895	40.79
261.112	-8.36
261.328	69.46
261.544	48.98
261.761	147.28
261.977	12.12
262.193	-37.03
262.409	137.04
262.626	30.55
262.842	51.03
263.058	1.88
263.274	28.5
263.49	71.51
263.707	1.88
263.923	104.28
264.139	-104.62
264.355	-67.75
264.571	135
264.787	141.14
265.004	102.23
265.22	-0.17
265.436	-37.03
265.652	18.26
265.868	71.51
266.084	-16.55
266.3	48.98
266.516	-65.71
266.732	89.94
266.948	85.84
267.164	-45.23
267.38	71.51
267.596	81.75
267.812	225.11
268.028	-20.65
268.244	32.6
268.46	112.47
268.676	30.55
268.892	48.98
269.108	12.12
269.324	-6.31
269.54	-14.51
269.756	116.56
269.972	1.88
270.188	100.18
270.403	-57.51
270.619	40.79
270.835	145.24
271.051	81.75
271.267	5.97
271.483	69.46
271.698	79.7
271.914	81.75
272.13	-49.32
272.346	-8.36
272.562	20.31
272.777	-14.51
272.993	-20.65
273.209	10.07
273.425	73.56
273.64	-14.51
273.856	44.88
274.072	-45.23
274.287	-41.13
274.503	120.66
274.719	67.41
274.934	65.36
275.15	-47.27
275.366	-10.41
275.581	-12.46
275.797	67.41
276.012	87.89
276.228	14.17
276.444	83.8
276.659	77.65
276.875	-49.32
277.09	-10.41
277.306	-47.27
277.521	38.74
277.737	18.26
277.952	67.41
278.168	1.88
278.383	81.75
278.599	153.43
278.814	145.24
279.03	85.84
279.245	112.47
279.461	55.12
279.676	22.36
279.892	69.46
280.107	-98.47
280.322	36.69
280.538	32.6
280.753	-10.41
280.969	83.8
281.184	53.08
281.399	114.52
281.615	75.6
281.83	61.27
282.045	-59.56
282.26	-12.46
282.476	65.36
282.691	128.85
282.906	106.32
283.122	34.64
283.337	65.36
283.552	85.84
283.767	51.03
283.983	79.7
284.198	24.4
284.413	85.84
284.628	-65.71
284.843	-4.27
285.058	120.66
285.274	102.23
285.489	3.93
285.704	32.6
285.919	18.26
286.134	24.4
286.349	14.17
286.564	16.21
286.779	153.43
286.995	59.22
287.21	-20.65
287.425	53.08
287.64	-86.19
287.855	81.75
288.07	-39.08
288.285	118.61
288.5	173.91
288.715	114.52
288.93	87.89
289.145	36.69
289.36	102.23
289.575	46.93
289.79	102.23
290.004	42.84
290.219	126.8
290.434	48.98
290.649	-2.22
290.864	-30.89
291.079	73.56
291.294	67.41
291.509	116.56
291.724	-8.36
291.938	-22.7
292.153	-8.36
292.368	1.88
292.583	48.98
292.798	77.65
293.012	77.65
293.227	73.56
293.442	36.69
293.657	87.89
293.871	89.94
294.086	102.23
294.301	116.56
294.516	100.18
294.73	8.02
294.945	22.36
295.16	65.36
295.374	108.37
295.589	96.08
295.804	30.55
296.018	40.79
296.233	124.76
296.447	75.6
296.662	24.4
296.877	116.56
297.091	71.51
297.306	55.12
297.52	94.04
297.735	-20.65
297.949	14.17
298.164	85.84
298.378	48.98
298.593	-28.84
298.807	-137.38
299.022	18.26
299.236	81.75
299.451	-0.17
299.665	46.93
299.88	59.22
300.094	57.17
300.309	22.36
300.523	81.75
300.737	14.17
300.952	153.43
301.166	102.23
301.381	-41.13
301.595	20.31
301.809	85.84
302.024	53.08
302.238	-71.85
302.452	69.46
302.667	96.08
302.881	227.15
303.095	69.46
303.309	30.55
303.524	30.55
303.738	87.89
303.952	-39.08
304.166	26.45
304.381	-77.99
304.595	79.7
304.809	-6.31
305.023	94.04
305.237	-0.17
305.452	24.4
305.666	85.84
305.88	143.19
306.094	89.94
306.308	51.03
306.522	61.27
306.736	118.61
306.95	63.32
307.164	63.32
307.379	-0.17
307.593	139.09
307.807	178
308.021	75.6
308.235	79.7
308.449	-30.89
308.663	1.88
308.877	261.97
309.091	44.88
309.305	51.03
309.519	-131.24
309.733	63.32
309.947	-106.67
310.161	98.13
310.374	159.57
310.588	126.8
310.802	-28.84
311.016	20.31
311.23	57.17
311.444	-98.47
311.658	10.07
311.872	94.04
312.085	116.56
312.299	67.41
312.513	108.37
312.727	55.12
312.941	-20.65
313.154	63.32
313.368	96.08
313.582	44.88
313.796	63.32
314.009	75.6
314.223	75.6
314.437	10.07
314.651	96.08
314.864	3.93
315.078	65.36
315.292	-43.18
315.505	-14.51
315.719	16.21
315.933	59.22
316.146	-0.17
316.36	-16.55
316.573	114.52
316.787	91.99
317.001	44.88
317.214	-65.71
317.428	-37.03
317.641	-32.94
317.855	-12.46
318.068	-16.55
318.282	77.65
318.495	218.96
318.709	149.33
318.922	44.88
319.136	124.76
319.349	124.76
319.563	-16.55
319.776	75.6
319.99	-41.13
320.203	71.51
320.417	55.12
320.63	132.95
320.843	202.58
321.057	79.7
321.27	24.4
321.483	67.41
321.697	87.89
321.91	71.51
322.124	87.89
322.337	77.65
322.55	-4.27
322.763	32.6
322.977	36.69
323.19	-2.22
323.403	75.6
323.617	94.04
323.83	157.52
324.043	5.97
324.256	20.31
324.469	-59.56
324.683	126.8
324.896	-16.55
325.109	48.98
325.322	-131.24
325.535	28.5
325.748	147.28
325.962	18.26
326.175	-22.7
326.388	79.7
326.601	137.04
326.814	-8.36
327.027	38.74
327.24	83.8
327.453	-59.56
327.666	87.89
327.879	159.57
328.092	75.6
328.305	118.61
328.518	-4.27
328.731	-14.51
328.944	10.07
329.157	100.18
329.37	-47.27
329.583	128.85
329.796	135
330.009	48.98
330.222	73.56
330.435	81.75
330.648	14.17
330.861	63.32
331.073	-14.51
331.286	75.6
331.499	26.45
331.712	-57.51
331.925	24.4
332.138	36.69
332.35	100.18
332.563	1.88
332.776	124.76
332.989	-0.17
333.202	36.69
333.414	48.98
333.627	-49.32
333.84	42.84
334.053	59.22
334.265	-47.27
334.478	30.55
334.691	100.18
334.903	20.31
335.116	42.84
335.329	12.12
335.541	96.08
335.754	135
335.966	-51.37
336.179	63.32
336.392	75.6
336.604	79.7
336.817	53.08
337.029	42.84
337.242	22.36
337.454	18.26
337.667	-22.7
337.88	126.8
338.092	59.22
338.305	91.99
338.517	28.5
338.729	135
338.942	91.99
339.154	-34.99
339.367	-84.14
339.579	104.28
339.792	-53.42
340.004	71.51
340.217	75.6
340.429	10.07
340.641	1.88
340.854	1.88
341.066	32.6
341.278	85.84
341.491	65.36
341.703	57.17
341.915	24.4
342.128	100.18
342.34	120.66
342.552	5.97
342.764	42.84
342.977	83.8
343.189	85.84
343.401	65.36
343.613	-61.61
343.826	104.28
344.038	-51.37
344.25	22.36
344.462	36.69
344.674	42.84
344.886	53.08
345.099	77.65
345.311	169.81
345.523	14.17
345.735	-26.79
345.947	20.31
346.159	79.7
346.371	75.6
346.583	28.5
346.795	212.82
347.007	-18.6
347.219	28.5
347.431	-4.27
347.643	89.94
347.855	32.6
348.067	65.36
348.279	-18.6
348.491	42.84
348.703	34.64
348.915	81.75
349.127	-24.75
349.339	36.69
349.551	-24.75
349.763	67.41
349.975	30.55
350.187	79.7
350.399	98.13
350.61	69.46
350.822	77.65
351.034	48.98
351.246	106.32
351.458	10.07
351.669	139.09
351.881	34.64
352.093	167.76
352.305	143.19
352.517	87.89
352.728	161.62
352.94	12.12
353.152	69.46
353.363	14.17
353.575	51.03
353.787	110.42
353.999	51.03
354.21	223.06
354.422	-67.75
354.633	3.93
354.845	36.69
355.057	-8.36
355.268	73.56
355.48	65.36
355.692	-4.27
355.903	38.74
356.115	-6.31
356.326	-67.75
356.538	151.38
356.749	65.36
356.961	114.52
357.172	20.31
357.384	3.93
357.595	188.24
357.807	38.74
358.018	-65.71
358.23	40.79
358.441	77.65
358.653	16.21
358.864	14.17
359.075	-12.46
359.287	-16.55
359.498	85.84
359.709	34.64
359.921	44.88
360.132	32.6
360.344	32.6
360.555	-28.84
360.766	91.99
360.977	-14.51
361.189	75.6
361.4	44.88
361.611	73.56
361.823	153.43
362.034	114.52
362.245	-43.18
362.456	51.03
362.667	102.23
362.879	-4.27
363.09	96.08
363.301	120.66
363.512	8.02
363.723	36.69
363.935	63.32
364.146	91.99
364.357	20.31
364.568	32.6
364.779	-90.28
364.99	28.5
365.201	32.6
365.412	116.56
365.623	-125.1
365.834	108.37
366.045	20.31
366.256	94.04
366.467	106.32
366.678	112.47
366.889	42.84
367.1	-2.22
367.311	40.79
367.522	3.93
367.733	-39.08
367.944	143.19
368.155	51.03
368.366	63.32
368.577	46.93
368.788	126.8
368.999	-30.89
369.209	63.32
369.42	196.43
369.631	210.77
369.842	120.66
370.053	-8.36
370.264	16.21
370.474	-51.37
370.685	116.56
370.896	42.84
371.107	178
371.317	87.89
371.528	16.21
371.739	184.15
371.95	112.47
372.16	65.36
372.371	-28.84
372.582	-67.75
372.792	79.7
373.003	55.12
373.214	30.55
373.424	79.7
373.635	-96.43
373.846	104.28
374.056	28.5
374.267	55.12
374.477	57.17
374.688	-0.17
374.898	26.45
375.109	-12.46
375.319	141.14
375.53	85.84
375.74	44.88
375.951	1.88
376.161	55.12
376.372	89.94
376.582	40.79
376.793	73.56
377.003	-0.17
377.214	12.12
377.424	96.08
377.635	18.26
377.845	73.56
378.055	145.24
378.266	-77.99
378.476	-20.65
378.686	98.13
378.897	77.65
379.107	145.24
379.317	44.88
379.528	-26.79
379.738	116.56
379.948	-80.04
380.158	126.8
380.369	-32.94
380.579	22.36
380.789	51.03
380.999	65.36
381.21	96.08
381.42	208.72
381.63	32.6
381.84	186.19
382.05	40.79
382.261	124.76
382.471	96.08
382.681	-6.31
382.891	147.28
383.101	87.89
383.311	-55.47
383.521	46.93
383.731	118.61
383.941	83.8
384.151	30.55
384.361	12.12
384.571	34.64
384.781	48.98
384.991	198.48
385.201	218.96
385.411	128.85
385.621	169.81
385.831	-4.27
386.041	53.08
386.251	55.12
386.461	59.22
386.671	28.5
386.881	81.75
387.091	67.41
387.301	143.19
387.511	-4.27
387.72	24.4
387.93	81.75
388.14	-18.6
388.35	63.32
388.56	59.22
388.769	55.12
388.979	-8.36
389.189	1.88
389.399	22.36
389.609	118.61
389.818	132.95
390.028	139.09
390.238	91.99
390.447	-12.46
390.657	102.23
390.867	71.51
391.076	42.84
391.286	63.32
391.496	48.98
391.705	-4.27
391.915	122.71
392.125	32.6
392.334	73.56
392.544	110.42
392.753	59.22
392.963	1.88
393.172	81.75
393.382	44.88
393.591	155.47
393.801	-2.22
394.01	83.8
394.22	40.79
394.429	75.6
394.639	40.79
394.848	46.93
395.058	141.14
395.267	1.88
395.477	42.84
395.686	102.23
395.895	171.86
396.105	249.68
396.314	122.71
396.524	32.6
396.733	59.22
396.942	112.47
397.152	55.12
397.361	85.84
397.57	135
397.78	65.36
397.989	167.76
398.198	159.57
398.407	63.32
398.617	3.93
398.826	65.36
399.035	87.89
399.244	59.22
399.453	46.93
399.663	30.55
399.872	110.42
400.081	-53.42
400.29	145.24
400.499	10.07
400.708	126.8
400.917	-16.55
401.127	-28.84
401.336	-61.61
401.545	167.76
401.754	137.04
401.963	83.8
402.172	69.46
402.381	-12.46
402.59	59.22
402.799	-20.65
403.008	110.42
403.217	67.41
403.426	65.36
403.635	-32.94
403.844	28.5
404.053	65.36
404.262	67.41
404.471	155.47
404.68	104.28
404.888	34.64
405.097	1.88
405.306	69.46
405.515	81.75
405.724	-39.08
405.933	77.65
406.142	32.6
406.35	53.08
406.559	-8.36
406.768	28.5
406.977	128.85
407.185	46.93
407.394	24.4
407.603	-10.41
407.812	85.84
408.02	182.1
408.229	20.31
408.438	28.5
408.646	18.26
408.855	-47.27
409.064	108.37
409.272	-22.7
409.481	149.33
409.69	20.31
409.898	3.93
410.107	61.27
410.315	116.56
410.524	36.69
410.733	83.8
410.941	26.45
411.15	48.98
411.358	161.62
411.567	175.95
411.775	61.27
411.984	73.56
412.192	85.84
412.401	51.03
412.609	151.38
412.818	155.47
413.026	42.84
413.234	59.22
413.443	85.84
413.651	-49.32
413.86	30.55
414.068	87.89
414.276	173.91
414.485	-0.17
414.693	221.01
414.901	225.11
415.11	100.18
415.318	40.79
415.526	96.08
415.734	235.35
415.943	61.27
416.151	139.09
416.359	57.17
416.567	96.08
416.776	98.13
416.984	143.19
417.192	151.38
417.4	46.93
417.608	51.03
417.817	-43.18
418.025	71.51
418.233	225.11
418.441	16.21
418.649	-24.75
418.857	102.23
419.065	184.15
419.273	28.5
419.481	75.6
419.689	-2.22
419.897	42.84
420.105	-37.03
420.313	114.52
420.521	182.1
420.729	190.29
420.937	137.04
421.145	18.26
421.353	161.62
421.561	143.19
421.769	114.52
421.977	-53.42
422.185	200.53
422.393	8.02
422.601	65.36
422.809	71.51
423.017	100.18
423.224	63.32
423.432	67.41
423.64	8.02
423.848	143.19
424.056	20.31
424.263	91.99
424.471	135
424.679	171.86
424.887	36.69
425.094	149.33
425.302	53.08
425.51	89.94
425.718	182.1
425.925	91.99
426.133	77.65
426.341	210.77
426.548	116.56
426.756	128.85
426.964	98.13
427.171	77.65
427.379	94.04
427.586	87.89
427.794	184.15
428.001	112.47
428.209	57.17
428.417	161.62
428.624	118.61
428.832	106.32
429.039	81.75
429.247	135
429.454	126.8
429.662	264.02
429.869	69.46
430.076	143.19
430.284	102.23
430.491	245.59
430.699	102.23
430.906	251.73
431.114	190.29
431.321	102.23
431.528	145.24
431.736	188.24
431.943	214.87
432.15	218.96
432.358	206.67
432.565	268.11
432.772	106.32
432.979	261.97
433.187	149.33
433.394	268.11
433.601	182.1
433.808	253.78
434.016	317.26
434.223	259.92
434.43	212.82
434.637	229.2
434.844	180.05
435.052	331.6
435.259	345.94
435.466	241.49
435.673	304.98
435.88	397.14
436.087	407.38
436.294	442.19
436.501	423.76
436.708	393.04
436.915	304.98
437.122	444.24
437.329	366.42
437.537	368.46
437.743	446.29
437.95	593.74
438.157	409.42
438.364	438.09
438.571	509.77
438.778	563.02
438.985	657.23
439.192	524.11
439.399	565.07
439.606	542.54
439.813	700.23
440.02	808.78
440.227	898.89
440.433	716.62
440.64	782.15
440.847	769.87
441.054	763.72
441.261	1007.43
441.467	843.59
441.674	751.43
441.881	882.5
442.088	884.55
442.294	862.02
442.501	905.03
442.708	1011.53
442.914	954.18
443.121	1124.16
443.328	1052.49
443.534	1204.03
443.741	1189.7
443.948	1165.12
444.154	1312.58
444.361	1445.7
444.568	1511.23
444.774	1351.49
444.981	1331.01
445.187	1576.77
445.394	1625.92
445.6	1578.81
445.807	1756.99
446.013	1707.84
446.22	1703.74
446.426	1779.51
446.633	1935.16
446.839	2109.24
447.046	1957.69
447.252	2150.2
447.459	2219.83
447.665	2275.12
447.871	2375.47
448.078	2574.13
448.284	2518.83
448.491	2604.85
448.697	2768.68
448.903	2871.08
449.11	2918.18
449.316	2854.7
449.522	3286.82
449.728	3182.37
449.935	3374.88
450.141	3462.94
450.347	3647.26
450.553	3581.73
450.76	3495.71
450.966	3852.06
451.172	4052.76
451.378	4267.8
451.584	4081.43
451.791	4448.02
451.997	4708.11
452.203	4681.49
452.409	5089.03
452.615	5261.06
452.821	5103.37
453.027	5105.42
453.233	5758.72
453.44	5484.29
453.646	5992.19
453.852	6242.04
454.058	6397.68
454.264	6852.33
454.47	7007.98
454.676	7063.27
454.882	7622.37
455.088	7382.76
455.294	7812.83
455.5	8261.34
455.705	8574.67
455.911	8754.9
456.117	8785.62
456.323	9555.65
456.529	9357
456.735	10096.32
456.941	10575.54
457.147	10766
457.352	11050.67
457.558	11288.23
457.764	12240.54
457.97	12512.92
458.176	13094.54
458.381	13584.01
458.587	13983.36
458.793	14616.18
458.999	14517.88
459.204	16369.24
459.41	16834.13
459.616	16719.45
459.821	17595.98
460.027	18511.42
460.233	19385.9
460.438	19316.27
460.644	20438.56
460.85	20803.1
461.055	21104.15
461.261	22363.65
461.466	22060.55
461.672	22416.9
461.878	25001.43
462.083	24665.56
462.289	25249.24
462.494	26254.79
462.7	26406.34
462.905	27055.54
463.111	28738.97
463.316	30508.42
463.522	31161.72
463.727	31942
463.932	32863.58
464.138	34157.9
464.343	35366.2
464.549	35571
464.754	38288.65
464.959	39392.51
465.165	40170.74
465.37	39521.53
465.575	39685.37
465.781	42417.36
465.986	43336.9
466.191	43166.91
466.397	43261.12
466.602	42136.79
466.807	44608.68
467.012	45380.77
467.218	46146.71
467.423	46115.99
467.628	47357.06
467.833	49511.52
468.038	48663.66
468.244	47834.24
468.449	50586.71
468.654	49376.36
468.859	49089.64
469.064	49566.82
469.269	48092.28
469.474	48645.23
469.679	49525.86
469.885	48512.11
470.09	49013.87
470.295	49407.08
470.5	48125.05
470.705	48604.27
470.91	46793.87
471.115	46748.81
471.32	48032.89
471.525	47512.7
471.73	46187.67
471.935	46021.78
472.139	44004.53
472.344	44000.44
472.549	43551.93
472.754	42902.73
472.959	42142.93
473.164	41020.64
473.369	40578.28
473.574	41247.97
473.778	40750.31
473.983	39822.58
474.188	39277.82
474.393	37147.93
474.598	37276.96
474.802	36267.31
475.007	36138.29
475.212	35769.65
475.417	34028.88
475.621	33656.15
475.826	33412.44
476.031	32671.07
476.235	32159.08
476.44	32007.53
476.645	31266.17
476.849	30944.64
477.054	30416.26
477.259	29908.36
477.463	29539.73
477.668	28779.93
477.872	28573.09
478.077	28018.09
478.282	27268.53
478.486	27346.36
478.691	26770.88
478.895	26162.63
479.1	26176.97
479.304	26117.57
479.509	24995.29
479.713	25542.1
479.918	25005.53
480.122	24614.37
480.326	24679.9
480.531	24907.23
480.735	24217.06
480.94	24053.22
481.144	24538.59
481.348	23176.69
481.553	23340.53
481.757	22842.87
481.961	23084.53
482.166	23217.65
482.37	22996.47
482.574	22169.09
482.778	22509.05
482.983	22730.23
483.187	22165
483.391	22230.53
483.595	21802.5
483.8	21229.07
484.004	21403.15
484.208	21296.66
484.412	21169.68
484.616	20833.82
484.821	20682.27
485.025	20028.96
485.229	20239.9
485.433	19779.11
485.637	19711.53
485.841	19226.16
486.045	18908.72
486.249	18902.58
486.453	18511.42
486.657	18333.25
486.861	18136.64
487.065	17647.18
487.269	17718.85
487.473	16909.91
487.677	17202.77
487.881	16909.91
488.085	16297.56
488.289	16420.44
488.493	15699.56
488.697	15584.87
488.901	15543.91
489.105	15197.81
489.309	14880.37
489.512	14669.43
489.716	14390.91
489.92	14388.86
490.124	13840
490.328	13973.12
490.531	13387.4
490.735	13100.69
490.939	12897.94
491.143	12590.74
491.346	12514.97
491.55	12199.58
491.754	11919.01
491.958	11894.43
492.161	11701.92
492.365	11490.98
492.569	11230.89
492.772	11208.36
492.976	11024.05
493.18	10868.4
493.383	10813.1
493.587	10593.97
493.79	10593.97
493.994	10188.47
494.197	10235.58
494.401	10045.12
494.605	10030.78
494.808	10010.3
495.012	10075.84
495.215	9801.41
495.419	9836.22
495.622	9539.27
495.825	9621.19
496.029	9279.18
496.232	9352.9
496.436	9330.37
496.639	9627.33
496.843	9387.72
497.046	9264.84
497.249	9211.59
497.453	9447.11
497.656	9383.62
497.859	9273.03
498.063	9262.79
498.266	9531.08
498.469	9295.56
498.673	9291.46
498.876	9346.76
499.079	9332.42
499.282	9266.89
499.485	9473.73
499.689	9547.46
499.892	9830.08
500.095	9285.32
500.298	9739.97
500.501	9643.71
500.705	9817.79
500.908	9944.77
501.111	9815.74
501.314	10153.66
501.517	10120.89
501.72	10143.42
501.923	10100.41
502.126	10436.28
502.329	10600.12
502.532	10675.89
502.735	10688.18
502.938	11114.16
503.141	10890.93
503.344	11110.06
503.547	11214.51
503.75	11114.16
503.953	11460.26
504.156	11703.97
504.359	11757.22
504.562	11771.55
504.765	12037.79
504.968	11996.83
505.17	12607.12
505.373	12701.33
505.576	12742.29
505.779	12793.49
505.982	13166.22
506.185	13438.6
506.387	13526.66
506.59	13751.94
506.793	14052.99
506.996	14018.18
507.198	14327.42
507.401	14681.72
507.604	14751.35
507.807	15468.14
508.009	15511.14
508.212	15705.7
508.415	15963.75
508.617	16299.61
508.82	16655.96
509.022	16655.96
509.225	17401.42
509.428	17573.45
509.63	17923.65
509.833	17937.99
510.035	18927.16
510.238	19158.58
510.44	19510.83
510.643	20112.93
510.845	20209.18
511.048	20641.31
511.25	20975.13
511.453	21192.21
511.655	22199.81
511.858	22457.85
512.06	22830.58
512.262	23326.19
512.465	23604.72
512.667	24360.42
512.87	24516.06
513.072	25122.26
513.274	26076.62
513.477	26508.74
513.679	27192.76
513.881	27540.91
514.084	28153.26
514.286	28706.21
514.488	29187.48
514.69	30371.21
514.893	30797.18
515.095	31112.57
515.297	31669.62
515.499	32279.91
515.701	33344.86
515.904	33617.24
516.106	34131.28
516.308	35003.71
516.51	36064.56
516.712	36121.9
516.914	37006.62
517.116	37477.66
517.318	38163.73
517.52	38782.21
517.722	39574.78
517.925	40170.74
518.127	41016.55
518.329	41913.56
518.531	42024.15
518.733	42738.89
518.935	43390.14
519.136	44063.92
519.338	44962.98
519.54	45210.79
519.742	46032.02
519.944	46017.69
520.146	47629.44
520.348	47613.05
520.55	48417.91
520.752	48747.63
520.954	49648.74
521.155	49474.66
521.357	50453.59
521.559	50879.56
521.761	52145.21
521.963	51559.49
522.164	51995.71
522.366	52849.71
522.568	53062.7
522.77	53122.09
522.971	53613.6
523.173	53505.06
523.375	54559.76
523.576	54211.61
523.778	54451.22
523.98	54924.3
524.181	54936.59
524.383	55208.97
524.584	55714.82
524.786	55270.41
524.988	55065.61
525.189	55569.41
525.391	55686.15
525.592	55798.79
525.794	55866.37
525.995	55495.69
526.197	55577.61
526.398	55235.59
526.6	55415.82
526.801	55170.06
527.003	55219.21
527.204	54963.21
527.406	54963.21
527.607	54455.32
527.808	54537.24
528.01	52986.92
528.211	53247.02
528.412	54015.01
528.614	53044.27
528.815	52679.73
529.016	52915.25
529.218	51954.75
529.419	51653.7
529.62	51258.44
529.822	50811.98
530.023	50250.84
530.224	49945.69
530.425	49153.13
530.626	48559.22
530.828	48276.6
531.029	48149.62
531.23	47160.45
531.431	46369.94
531.632	46165.14
531.833	45866.14
532.035	45143.2
532.236	44840.11
532.437	44336.3
532.638	43648.19
532.839	42919.11
533.04	42867.91
533.241	41665.75
533.442	41755.86
533.643	41129.19
533.844	40195.31
534.045	39603.45
534.246	39300.35
534.447	38761.73
534.648	38518.03
534.849	38208.78
535.05	36576.55
535.251	36783.4
535.451	36130.09
535.652	35583.29
535.853	35185.98
536.054	34938.18
536.255	34235.72
536.456	33330.52
536.657	34213.2
536.857	32660.83
537.058	32648.55
537.259	32157.03
537.46	31630.71
537.66	31444.34
537.861	31104.38
538.062	30160.27
538.263	30233.99
538.463	29554.07
538.664	29322.65
538.865	28677.54
539.065	28773.79
539.266	28034.47
539.466	28173.74
539.667	27575.73
539.868	27428.27
540.068	26834.36
540.269	26678.72
540.469	26478.02
540.67	26015.18
540.87	25591.25
541.071	25435.6
541.271	25320.91
541.472	24966.62
541.672	24436.19
541.873	24303.07
542.073	23926.25
542.274	23907.82
542.474	23348.72
542.675	23045.62
542.875	23115.25
543.075	22478.33
543.276	21997.06
543.476	22271.49
543.676	22046.21
543.877	21661.19
544.077	21745.16
544.277	21255.7
544.478	21050.9
544.678	20846.1
544.878	20538.91
545.078	20373.02
545.279	19844.65
545.479	19613.23
545.679	19768.87
545.879	19158.58
546.079	18914.87
546.28	18869.81
546.48	18624.06
546.68	18646.58
546.88	18409.02
547.08	18003.52
547.28	17821.25
547.48	17315.41
547.68	17469
547.88	17116.75
548.081	17446.48
548.281	16825.94
548.481	16354.91
548.681	16406.11
548.881	16344.67
549.081	15900.26
549.28	15529.58
549.48	15500.9
549.68	15545.96
549.88	15343.21
550.08	14657.14
550.28	14655.09
550.48	14667.38
550.68	14399.1
550.88	13846.15
551.08	13887.11
551.279	13827.71
551.479	13342.35
551.679	13328.01
551.879	13186.7
552.079	12938.9
552.278	12760.72
552.478	12490.39
552.678	12547.73
552.878	12431
553.077	12236.44
553.277	11660.96
553.477	11792.03
553.676	11503.27
553.876	11255.47
554.076	10966.7
554.275	10925.74
554.475	10608.31
554.674	10682.03
554.874	10376.89
555.074	10223.29
555.273	10026.68
555.473	10006.2
555.672	9465.54
555.872	9500.36
556.071	9354.95
556.271	9393.86
556.47	9027.28
556.67	8935.12
556.869	8959.69
557.068	8865.49
557.268	8586.96
557.467	8519.38
557.667	8482.52
557.866	8275.67
558.065	7980.76
558.265	8183.51
558.464	7991
558.663	7628.51
558.863	7892.7
559.062	7677.66
559.261	7419.62
559.461	7489.25
559.66	7040.75
559.859	7091.95
560.058	6766.32
560.258	6760.17
560.457	6584.05
560.656	6860.52
560.855	6463.22
561.054	6551.28
561.253	6283
561.453	6162.17
561.652	6164.22
561.851	6072.06
562.05	5906.17
562.249	5773.05
562.448	5803.77
562.647	5621.5
562.846	5576.45
563.045	5715.71
563.244	5504.77
563.443	5418.75
563.642	5236.49
563.841	5277.44
564.04	5007.11
564.239	5052.17
564.438	4972.3
564.637	4833.04
564.836	4833.04
565.035	4685.58
565.234	4581.14
565.432	4747.02
565.631	4593.42
565.83	4626.19
566.029	4407.06
566.228	4300.56
566.427	4345.62
566.625	4181.78
566.824	4263.7
567.023	4144.92
567.222	4042.52
567.42	3989.27
567.619	3895.07
567.818	3931.93
568.016	4007.7
568.215	3925.79
568.414	3784.48
568.612	3565.34
568.811	3723.04
569.01	3591.97
569.208	3438.37
569.407	3389.22
569.605	3540.77
569.804	3522.34
570.002	3378.98
570.201	3254.05
570.4	3333.92
570.598	3043.11
570.797	3145.51
570.995	3051.3
571.193	3125.03
571.392	3096.36
571.59	2912.04
571.789	3071.78
571.987	2858.79
572.186	2912.04
572.384	2717.48
572.582	2862.89
572.781	2817.83
572.979	2586.41
573.177	2756.4
573.376	2596.65
573.574	2541.36
573.772	2502.45
573.971	2582.32
574.169	2455.34
574.367	2422.58
574.565	2520.88
574.763	2393.9
574.962	2406.19
575.16	2254.64
575.358	2170.68
575.556	2369.33
575.754	2164.53
575.952	2012.98
576.151	2131.76
576.349	2180.92
576.547	1851.19
576.745	2004.79
576.943	2017.08
577.141	1990.45
577.339	1974.07
577.537	1883.96
577.735	1908.54
577.933	1861.43
578.131	1675.07
578.329	1814.33
578.527	1679.16
578.725	1781.56
578.923	1621.82
579.121	1775.42
579.319	1523.52
579.516	1720.12
579.714	1769.27
579.912	1611.58
580.11	1511.23
580.308	1435.46
580.506	1500.99
580.704	1384.26
580.901	1363.78
581.099	1513.28
581.297	1449.79
581.495	1468.22
581.692	1347.39
581.89	1531.71
582.088	1421.12
582.285	1228.61
582.483	1314.63
582.681	1230.66
582.878	1251.14
583.076	1281.86
583.274	1271.62
583.471	1269.57
583.669	1064.77
583.866	1132.36
584.064	1208.13
584.262	1126.21
584.459	1060.68
584.657	1138.5
584.854	1077.06
585.052	1107.78
585.249	1099.59
585.447	1169.22
585.644	982.85
585.841	1089.35
586.039	1158.98
586.236	1138.5
586.434	956.23
586.631	960.33
586.828	1032.01
587.026	921.42
587.223	821.06
587.42	905.03
587.618	997.19
587.815	1023.81
588.012	925.51
588.21	870.22
588.407	941.89
588.604	911.18
588.801	812.87
588.999	913.22
589.196	939.85
589.393	788.3
589.59	855.88
589.787	876.36
589.984	780.11
590.182	855.88
590.379	737.1
590.576	831.3
590.773	802.63
590.97	708.43
591.167	845.64
591.364	868.17
591.561	821.06
591.758	980.81
591.955	671.56
592.152	769.87
592.349	755.53
592.546	694.09
592.743	737.1
592.94	634.7
593.137	755.53
593.334	792.39
593.531	806.73
593.727	806.73
593.924	839.5
594.121	749.39
594.318	683.85
594.515	802.63
594.712	943.94
594.908	941.89
595.105	739.15
595.302	778.06
595.499	841.54
595.696	950.09
595.892	843.59
596.089	874.31
596.286	798.54
596.482	1036.1
596.679	894.79
596.876	911.18
597.072	1021.77
597.269	962.37
597.466	1001.29
597.662	915.27
597.859	1032.01
598.055	1167.17
598.252	1148.74
598.448	1199.94
598.645	1314.63
598.841	1240.9
599.038	1455.94
599.234	1492.8
599.431	1544
599.627	1498.94
599.824	1523.52
600.02	1500.99
600.217	1513.28
600.413	1703.74
600.609	1787.71
600.806	2058.04
601.002	1931.06
601.198	1759.03
601.395	2195.25
601.591	2103.09
601.787	2236.21
601.984	2342.71
602.18	2414.38
602.376	2471.73
602.572	2580.27
602.769	2701.1
602.965	2754.35
603.161	2879.27
603.357	3065.64
603.553	3125.03
603.75	3110.69
603.946	3268.39
604.142	3344.16
604.338	3514.14
604.534	3546.91
604.73	3817.24
604.926	3817.24
605.122	3921.69
605.318	4087.57
605.514	4265.75
605.71	4366.1
605.906	4566.8
606.102	4642.57
606.298	4873.99
606.494	4992.78
606.69	5129.99
606.886	5140.23
607.082	5357.32
607.278	5615.36
607.474	5787.39
607.67	5947.13
607.866	5781.25
608.062	6125.3
608.257	6295.29
608.453	6354.68
608.649	6491.89
608.845	6684.4
609.041	6915.82
609.236	7192.3
609.432	7188.2
609.628	7505.63
609.824	7677.66
610.019	7896.8
610.215	8185.56
610.411	8470.23
610.606	8621.78
610.802	8775.38
610.998	9133.77
611.193	9379.53
611.389	9549.51
611.584	9750.21
611.78	9936.57
611.976	10319.54
612.171	10876.59
612.367	10755.76
612.562	11171.5
612.758	11380.39
612.953	11667.11
613.149	12154.52
613.344	12428.95
613.539	12654.23
613.735	13127.31
613.93	13571.72
614.126	13708.93
614.321	14171.77
614.517	14558.84
614.712	14564.98
614.907	15091.31
615.103	15638.12
615.298	15965.79
615.493	16414.3
615.688	16645.72
615.884	17446.48
616.079	17305.17
616.274	18116.16
616.47	18210.37
616.665	19058.23
616.86	19181.1
617.055	19897.89
617.25	20368.93
617.445	20964.89
617.641	21169.68
617.836	22195.71
618.031	22210.05
618.226	22918.65
618.421	23819.75
618.616	23723.5
618.811	24192.48
619.006	25273.81
619.201	25439.7
619.396	26267.08
619.591	26543.55
619.786	27463.09
619.981	27633.07
620.176	28779.93
620.371	28845.47
620.566	29828.49
620.761	30553.48
620.956	31190.39
621.151	31233.4
621.346	32161.13
621.541	32406.89
621.735	33375.58
621.93	33850.7
622.125	34501.96
622.32	34809.15
622.515	35652.92
622.709	36345.13
622.904	37127.45
623.099	37647.64
623.294	38448.39
623.488	38423.82
623.683	39779.57
623.878	39511.29
624.072	40635.63
624.267	41411.81
624.462	42245.33
624.656	42269.9
624.851	43273.41
625.046	44084.4
625.24	44344.5
625.435	44524.72
625.629	45632.67
625.824	46480.53
626.018	46816.39
626.213	46593.17
626.407	47838.33
626.602	47830.14
626.796	48673.9
626.991	49245.29
627.185	49562.72
627.38	49734.75
627.574	50070.62
627.768	50474.07
627.963	50353.24
628.157	50547.79
628.352	51225.67
628.546	50402.39
628.74	51823.68
628.935	50863.18
629.129	51457.09
629.323	50439.25
629.517	50510.93
629.712	50285.65
629.906	50005.08
630.1	49243.24
630.294	49235.05
630.489	48514.16
630.683	48542.83
630.877	46881.93
631.071	46445.71
631.265	46331.03
631.459	45040.81
631.653	44154.04
631.848	43476.16
632.042	41845.97
632.236	41411.81
632.43	40330.48
632.624	39398.65
632.818	37606.68
633.012	37041.44
633.206	35814.71
633.4	34909.5
633.594	33191.26
633.788	32400.74
633.982	31911.28
634.176	30367.11
634.369	29123.99
634.563	28071.34
634.757	26897.85
634.951	26052.04
635.145	25167.32
635.339	24255.97
635.533	23363.06
635.726	22285.83
635.92	21233.17
636.114	20366.88
636.308	19703.34
636.501	18939.44
636.695	18312.77
636.889	17149.52
637.083	16672.34
637.276	15898.21
637.47	15488.62
637.664	14780.02
637.857	14216.83
638.051	13768.32
638.244	13117.07
638.438	12545.69
638.632	12414.62
638.825	11476.65
639.019	11263.66
639.212	10526.39
639.406	10499.77
639.599	9795.26
639.793	9471.68
639.986	8896.21
640.18	8847.05
640.373	8439.51
640.567	8179.42
640.76	7841.5
640.954	7448.29
641.147	7083.75
641.34	6905.58
641.534	6895.34
641.727	6495.99
641.92	6260.47
642.114	6127.35
642.307	5869.31
642.5	5553.92
642.694	5152.52
642.887	4943.63
643.08	5179.14
643.273	4822.8
643.467	4587.28
643.66	4507.41
643.853	4153.11
644.046	4032.28
644.239	3874.59
644.432	3620.64
644.626	3493.66
644.819	3411.75
645.012	3473.18
645.205	3311.39
645.398	3252
645.591	2934.57
645.784	2821.93
645.977	2719.53
646.17	2647.85
646.363	2533.17
646.556	2398
646.749	2412.34
646.942	2264.88
647.135	2307.89
647.328	2117.43
647.521	2002.74
647.714	2012.98
647.907	1892.15
648.099	1754.94
648.292	1826.62
648.485	1664.83
648.678	1658.68
648.871	1535.81
649.064	1509.18
649.256	1408.83
649.449	1371.97
649.642	1222.47
649.835	1337.15
650.027	1197.89
650.22	1206.08
650.413	1179.46
650.605	1144.64
650.798	1042.25
650.991	1064.77
651.183	1070.92
651.376	948.04
651.568	958.28
651.761	950.09
651.954	974.66
652.146	835.4
652.339	945.99
652.531	888.65
652.724	763.72
652.916	751.43
653.109	606.03
653.301	788.3
653.494	749.39
653.686	714.57
653.879	792.39
654.071	704.33
654.263	599.88
654.456	567.12
654.648	700.23
654.84	651.08
655.033	614.22
655.225	663.37
655.417	468.81
655.61	630.6
655.802	436.05
655.994	575.31
656.186	384.85
656.379	526.16
656.571	452.43
656.763	341.84
656.955	444.24
657.148	444.24
657.34	452.43
657.532	382.8
657.724	452.43
657.916	440.14
658.108	390.99
658.3	319.31
658.492	366.42
658.684	397.14
658.876	358.22
659.068	233.3
659.26	204.63
659.452	216.91
659.644	358.22
659.836	446.29
660.028	294.74
660.22	173.91
660.412	304.98
660.604	235.35
660.796	311.12
660.988	272.21
661.18	243.54
661.372	270.16
661.563	319.31
661.755	216.91
661.947	188.24
662.139	204.63
662.331	235.35
662.522	210.77
662.714	216.91
662.906	206.67
663.097	208.72
663.289	122.71
663.481	116.56
663.673	180.05
663.864	200.53
664.056	298.83
664.247	218.96
664.439	216.91
664.631	282.45
664.822	233.3
665.014	126.8
665.205	110.42
665.397	132.95
665.588	214.87
665.78	153.43
665.971	229.2
666.163	98.13
666.354	239.44
666.546	122.71
666.737	200.53
666.929	163.67
667.12	48.98
667.311	210.77
667.503	69.46
667.694	141.14
667.885	194.39
668.077	184.15
668.268	3.93
668.459	190.29
668.651	149.33
668.842	151.38
669.033	87.89
669.224	32.6
669.416	321.36
669.607	114.52
669.798	14.17
669.989	292.69
670.18	59.22
670.371	178
670.563	75.6
670.754	206.67
670.945	206.67
671.136	204.63
671.327	106.32
671.518	135
671.709	245.59
671.9	120.66
672.091	175.95
672.282	108.37
672.473	94.04
672.664	30.55
672.855	120.66
673.046	114.52
673.237	159.57
673.428	180.05
673.619	157.52
673.809	89.94
674	223.06
674.191	190.29
674.382	108.37
674.573	194.39
674.764	141.14
674.954	239.44
675.145	130.9
675.336	83.8
675.527	96.08
675.717	85.84
675.908	96.08
676.099	87.89
676.289	100.18
676.48	16.21
676.671	122.71
676.861	116.56
677.052	112.47
677.243	55.12
677.433	75.6
677.624	221.01
677.814	116.56
678.005	130.9
678.195	294.74
678.386	106.32
678.576	81.75
678.767	53.08
678.957	83.8
679.148	235.35
679.338	208.72
679.529	141.14
679.719	118.61
679.909	257.87
680.1	218.96
680.29	143.19
680.481	77.65
680.671	288.59
680.861	221.01
681.052	139.09
681.242	-0.17
681.432	194.39
681.622	163.67
681.813	128.85
682.003	190.29
682.193	96.08
682.383	190.29
682.573	94.04
682.764	128.85
682.954	225.11
683.144	227.15
683.334	91.99
683.524	186.19
683.714	194.39
683.904	163.67
684.094	182.1
684.284	171.86
684.474	296.78
684.664	253.78
684.854	229.2
685.044	124.76
685.234	124.76
685.424	186.19
685.614	139.09
685.804	298.83
685.994	145.24
686.184	235.35
686.374	251.73
686.564	249.68
686.753	114.52
686.943	83.8
687.133	85.84
687.323	165.71
687.513	196.43
687.702	173.91
687.892	126.8
688.082	272.21
688.272	245.59
688.461	204.63
688.651	278.35
688.841	182.1
689.03	190.29
689.22	145.24
689.41	270.16
689.599	229.2
689.789	171.86
689.979	182.1
690.168	151.38
690.358	161.62
690.547	208.72
690.737	139.09
690.926	249.68
691.116	290.64
691.305	212.82
691.495	294.74
691.684	202.58
691.874	243.54
692.063	145.24
692.252	161.62
692.442	243.54
692.631	147.28
692.82	137.04
693.01	198.48
693.199	143.19
693.388	200.53
693.578	102.23
693.767	235.35
693.956	212.82
694.146	167.76
694.335	204.63
694.524	239.44
694.713	257.87
694.902	83.8
695.092	104.28
695.281	184.15
695.47	145.24
695.659	175.95
695.848	139.09
696.037	96.08
696.226	237.39
696.415	192.34
696.604	218.96
696.793	274.26
696.982	180.05
697.171	319.31
697.36	145.24
697.549	175.95
697.738	5.97
697.927	155.47
698.116	112.47
698.305	91.99
698.494	126.8
698.683	112.47
698.872	245.59
699.061	182.1
699.25	104.28
699.438	155.47
699.627	126.8
699.816	298.83
700.005	28.5
700.193	102.23
700.382	223.06
700.571	139.09
700.76	270.16
700.948	243.54
701.137	184.15
701.326	284.5
701.514	108.37
701.703	73.56
701.892	151.38
702.08	266.07
702.269	151.38
702.457	112.47
702.646	155.47
702.834	137.04
703.023	221.01
703.212	227.15
703.4	114.52
703.589	79.7
703.777	137.04
703.965	106.32
704.154	77.65
704.342	34.64
704.531	100.18
704.719	180.05
704.907	198.48
705.096	36.69
705.284	53.08
705.472	145.24
705.661	178
705.849	259.92
706.037	159.57
706.226	221.01
706.414	122.71
706.602	102.23
706.79	175.95
706.979	102.23
707.167	151.38
707.355	67.41
707.543	155.47
707.731	186.19
707.919	149.33
708.107	153.43
708.296	67.41
708.484	120.66
708.672	233.3
708.86	253.78
709.048	204.63
709.236	149.33
709.424	212.82
709.612	206.67
709.8	77.65
709.988	81.75
710.176	259.92
710.364	239.44
710.551	106.32
710.739	186.19
710.927	128.85
711.115	104.28
711.303	218.96
711.491	196.43
711.679	98.13
711.866	130.9
712.054	100.18
712.242	212.82
712.43	200.53
712.617	204.63
712.805	208.72
712.993	108.37
713.181	118.61
713.368	161.62
713.556	151.38
713.744	124.76
713.931	327.5
714.119	192.34
714.306	96.08
714.494	151.38
714.682	182.1
714.869	67.41
715.057	114.52
715.244	38.74
715.432	135
715.619	167.76
715.807	114.52
715.994	196.43
716.182	206.67
716.369	233.3
716.556	221.01
716.744	161.62
716.931	18.26
717.119	167.76
717.306	145.24
717.493	169.81
717.681	110.42
717.868	204.63
718.055	241.49
718.242	169.81
718.43	188.24
718.617	229.2
718.804	190.29
718.991	241.49
719.179	200.53
719.366	227.15
719.553	202.58
719.74	130.9
719.927	202.58
720.114	175.95
720.301	139.09
720.488	106.32
720.676	159.57
720.863	200.53
721.05	395.09
721.237	247.63
721.424	208.72
721.611	239.44
721.798	83.8
721.985	151.38
722.172	180.05
722.358	139.09
722.545	259.92
722.732	247.63
722.919	266.07
723.106	278.35
723.293	192.34
723.48	237.39
723.667	200.53
723.853	294.74
724.04	261.97
724.227	255.83
724.414	149.33
724.6	206.67
724.787	323.41
724.974	294.74
725.161	212.82
725.347	147.28
725.534	161.62
725.72	259.92
725.907	290.64
726.094	350.03
726.28	184.15
726.467	208.72
726.653	239.44
726.84	331.6
727.027	286.54
727.213	266.07
727.4	296.78
727.586	268.11
727.773	237.39
727.959	204.63
728.145	311.12
728.332	278.35
728.518	182.1
728.705	341.84
728.891	251.73
729.077	221.01
729.264	184.15
729.45	286.54
729.636	309.07
729.823	235.35
730.009	286.54
730.195	259.92
730.382	282.45
730.568	196.43
730.754	296.78
730.94	229.2
731.126	343.89
731.313	288.59
731.499	208.72
731.685	274.26
731.871	304.98
732.057	292.69
732.243	243.54
732.429	319.31
732.615	382.8
732.801	309.07
732.987	245.59
733.173	270.16
733.359	290.64
733.545	304.98
733.731	249.68
733.917	335.7
734.103	278.35
734.289	331.6
734.475	298.83
734.661	417.61
734.847	218.96
735.033	264.02
735.219	288.59
735.404	231.25
735.59	272.21
735.776	251.73
735.962	319.31
736.148	329.55
736.333	352.08
736.519	327.5
736.705	311.12
736.89	302.93
737.076	296.78
737.262	294.74
737.447	237.39
737.633	190.29
737.819	366.42
738.004	270.16
738.19	368.46
738.375	317.26
738.561	362.32
738.747	214.87
738.932	169.81
739.118	429.9
739.303	341.84
739.489	309.07
739.674	225.11
739.859	206.67
740.045	399.18
740.23	290.64
740.416	186.19
740.601	362.32
740.786	282.45
740.972	264.02
741.157	266.07
741.342	313.17
741.528	227.15
741.713	315.22
741.898	286.54
742.084	290.64
742.269	245.59
742.454	300.88
742.639	356.18
742.824	294.74
743.01	405.33
743.195	358.22
743.38	350.03
743.565	243.54
743.75	319.31
743.935	366.42
744.12	331.6
744.305	235.35
744.49	304.98
744.675	253.78
744.86	218.96
745.045	337.74
745.23	325.46
745.415	339.79
745.6	403.28
745.785	241.49
745.97	401.23
746.155	436.05
746.34	352.08
746.525	282.45
746.71	446.29
746.895	178
747.079	208.72
747.264	278.35
747.449	378.7
747.634	337.74
747.819	337.74
748.003	208.72
748.188	194.39
748.373	337.74
748.557	264.02
748.742	302.93
748.927	304.98
749.111	264.02
749.296	180.05
749.481	304.98
749.665	218.96
749.85	124.76
750.034	276.31
750.219	309.07
750.404	247.63
750.588	333.65
750.773	218.96
750.957	247.63
751.141	247.63
751.326	411.47
751.51	180.05
751.695	229.2
751.879	139.09
752.064	411.47
752.248	309.07
752.432	350.03
752.617	284.5
752.801	311.12
752.985	190.29
753.17	302.93
753.354	294.74
753.538	210.77
753.722	190.29
753.907	178
754.091	169.81
754.275	270.16
754.459	112.47
754.643	192.34
754.828	278.35
755.012	304.98
755.196	108.37
755.38	200.53
755.564	198.48
755.748	186.19
755.932	182.1
756.116	243.54
756.3	218.96
756.484	192.34
756.668	225.11
756.852	98.13
757.036	165.71
757.22	288.59
757.404	145.24
757.588	149.33
757.772	278.35
757.956	249.68
758.14	280.4
758.323	77.65
758.507	284.5
758.691	169.81
758.875	286.54
759.059	233.3
759.242	143.19
759.426	196.43
759.61	169.81
759.794	214.87
759.977	126.8
760.161	372.56
760.345	272.21
760.528	204.63
760.712	214.87
760.895	245.59
761.079	159.57
761.263	102.23
761.446	67.41
761.63	259.92
761.813	247.63
761.997	63.32
762.18	118.61
762.364	161.62
762.547	120.66
762.731	214.87
762.914	83.8
763.098	143.19
763.281	157.52
763.464	12.12
763.648	77.65
763.831	79.7
764.015	81.75
764.198	253.78
764.381	173.91
764.564	182.1
764.748	173.91
764.931	214.87
765.114	100.18
765.297	210.77
765.481	22.36
765.664	120.66
765.847	173.91
766.03	255.83
766.213	65.36
766.397	137.04
766.58	-8.36
766.763	159.57
766.946	118.61
767.129	34.64
767.312	171.86
767.495	163.67
767.678	87.89
767.861	108.37
768.044	96.08
768.227	120.66
768.41	102.23
768.593	114.52
768.776	165.71
768.959	106.32
769.142	118.61
769.324	24.4
769.507	108.37
769.69	55.12
769.873	139.09
770.056	327.5
770.239	85.84
770.421	221.01
770.604	120.66
770.787	141.14
770.97	149.33
771.152	59.22
771.335	85.84
771.518	28.5
771.7	110.42
771.883	241.49
772.066	34.64
772.248	169.81
772.431	198.48
772.613	116.56
772.796	155.47
772.978	196.43
773.161	233.3
773.343	46.93
773.526	75.6
773.708	12.12
773.891	-14.51
774.073	5.97
774.256	73.56
774.438	163.67
774.621	85.84
774.803	77.65
774.985	130.9
775.168	106.32
775.35	44.88
775.532	67.41
775.715	55.12
775.897	145.24
776.079	5.97
776.261	180.05
776.444	40.79
776.626	36.69
776.808	71.51
776.99	3.93
777.173	89.94
777.355	128.85
777.537	65.36
777.719	73.56
777.901	-6.31
778.083	124.76
778.265	71.51
778.447	110.42
778.629	48.98
778.811	81.75
778.993	196.43
779.175	153.43
779.357	-4.27
779.539	-39.08
779.721	132.95
779.903	63.32
780.085	12.12
780.267	94.04
780.449	40.79
780.631	40.79
780.812	188.24
780.994	3.93
781.176	116.56
781.358	73.56
781.54	116.56
781.721	124.76
781.903	184.15
782.085	20.31
782.267	151.38
782.448	44.88
782.63	18.26
782.812	75.6
782.993	139.09
783.175	81.75
783.357	32.6
783.538	16.21
783.72	-37.03
783.901	18.26
784.083	81.75
784.264	100.18
784.446	30.55
784.627	1.88
784.809	118.61
784.99	3.93
785.172	122.71
785.353	79.7
785.535	67.41
785.716	-39.08
785.897	-28.84
786.079	16.21
786.26	36.69
786.441	89.94
786.623	-75.95
786.804	24.4
786.985	18.26
787.167	96.08
787.348	75.6
787.529	8.02
787.71	96.08
787.891	100.18
788.073	-53.42
788.254	-22.7
788.435	132.95
788.616	155.47
788.797	-57.51
788.978	22.36
789.159	26.45
789.34	118.61
789.522	51.03
789.703	-24.75
789.884	69.46
790.065	83.8
790.246	96.08
790.427	44.88
790.607	151.38
790.788	104.28
790.969	28.5
791.15	145.24
791.331	69.46
791.512	53.08
791.693	-20.65
791.874	22.36
792.054	159.57
792.235	153.43
792.416	-77.99
792.597	40.79
792.778	143.19
792.958	98.13
793.139	51.03
793.32	87.89
793.5	-8.36
793.681	182.1
793.862	22.36
794.042	87.89
794.223	-100.52
794.404	-28.84
794.584	-112.81
794.765	10.07
794.945	51.03
795.126	18.26
795.306	104.28
795.487	28.5
795.667	67.41
795.848	114.52
796.028	40.79
796.209	53.08
796.389	98.13
796.57	18.26
796.75	-32.94
796.93	89.94
797.111	-43.18
797.291	57.17
797.471	89.94
797.652	38.74
797.832	26.45
798.012	28.5
798.192	-12.46
798.373	-86.19
798.553	16.21
798.733	24.4
798.913	44.88
799.093	40.79
799.274	-16.55
799.454	30.55
799.634	91.99
799.814	8.02
799.994	69.46
800.174	98.13
800.354	51.03
800.534	-49.32
800.714	48.98
800.894	-69.8
801.074	-22.7
801.254	51.03
801.434	155.47
801.614	-4.27
801.794	44.88
801.974	1779.51
802.154	-32.94
802.334	87.89
802.514	-37.03
802.693	-39.08
802.873	-65.71
803.053	180.05
803.233	73.56
803.413	53.08
803.592	-65.71
803.772	-51.37
803.952	44.88
804.131	-10.41
804.311	42.84
804.491	16.21
804.67	-22.7
804.85	-34.99
805.03	18.26
805.209	116.56
805.389	57.17
805.568	-0.17
805.748	-10.41
805.928	67.41
806.107	79.7
806.287	59.22
806.466	34.64
806.646	32.6
806.825	26.45
807.004	55.12
807.184	-18.6
807.363	98.13
807.543	34.64
807.722	5.97
807.901	65.36
808.081	73.56
808.26	-16.55
808.439	16.21
808.619	-20.65
808.798	-14.51
808.977	20.31
809.156	89.94
809.336	10.07
809.515	34.64
809.694	-47.27
809.873	-65.71
810.052	102.23
810.231	96.08
810.411	-28.84
810.59	108.37
810.769	69.46
810.948	112.47
811.127	-90.28
811.306	-53.42
811.485	5.97
811.664	98.13
811.843	61.27
812.022	-6.31
812.201	-65.71
812.38	-80.04
812.559	-69.8
812.737	71.51
812.916	-112.81
813.095	-84.14
813.274	63.32
813.453	-45.23
813.632	42.84
813.811	126.8
813.989	-80.04
814.168	96.08
814.347	28.5
814.526	28.5
814.704	104.28
814.883	122.71
815.062	40.79
815.24	26.45
815.419	-90.28
815.598	36.69
815.776	-176.3
815.955	34.64
816.133	-164.01
816.312	28.5
816.49	-0.17
816.669	79.7
816.847	-53.42
817.026	22.36
817.204	-22.7
817.383	-53.42
817.561	-47.27
817.74	63.32
817.918	48.98
818.097	-43.18
818.275	-22.7
818.453	-16.55
818.632	65.36
818.81	-12.46
818.988	57.17
819.167	-86.19
819.345	36.69
819.523	-53.42
819.701	10.07
819.879	94.04
820.058	71.51
820.236	108.37
820.414	1.88
820.592	-41.13
820.77	24.4
820.948	-37.03
821.127	-24.75
821.305	94.04
821.483	-0.17
821.661	32.6
821.839	85.84
822.017	-53.42
822.195	32.6
822.373	124.76
822.551	65.36
822.729	32.6
822.907	28.5
823.085	180.05
823.262	-20.65
823.44	-20.65
823.618	16.21
823.796	-18.6
823.974	32.6
824.152	-41.13
824.329	-18.6
824.507	-26.79
824.685	36.69
824.863	-53.42
825.04	14.17
825.218	91.99
825.396	-8.36
825.574	77.65
825.751	16.21
825.929	118.61
826.107	-75.95
826.284	94.04
826.462	-6.31
826.639	-43.18
826.817	-16.55
826.994	28.5
827.172	-49.32
827.349	126.8
827.527	63.32
827.704	26.45
827.882	100.18
828.059	100.18
828.237	-16.55
828.414	106.32
828.591	-116.9
828.769	18.26
828.946	-20.65
829.124	28.5
829.301	200.53
829.478	18.26
829.655	53.08
829.833	-37.03
830.01	-147.62
830.187	34.64
830.364	-0.17
830.542	-49.32
830.719	67.41
830.896	48.98
831.073	-10.41
831.25	-14.51
831.427	114.52
831.604	-30.89
831.782	-24.75
831.959	57.17
832.136	-4.27
832.313	-6.31
832.49	-61.61
832.667	79.7
832.844	-32.94
833.021	67.41
833.198	34.64
833.374	10.07
833.551	14.17
833.728	-0.17
833.905	126.8
834.082	-94.38
834.259	104.28
834.436	120.66
834.612	-53.42
834.789	12.12
834.966	-20.65
835.143	20.31
835.319	-102.57
835.496	108.37
835.673	85.84
835.85	67.41
836.026	-2.22
836.203	53.08
836.38	-88.23
836.556	40.79
836.733	5.97
836.909	51.03
837.086	-71.85
837.262	-96.43
837.439	-37.03
837.616	-73.9
837.792	-16.55
837.968	18.26
838.145	-84.14
838.321	-45.23
838.498	10.07
838.674	36.69
838.851	20.31
839.027	-84.14
839.203	-8.36
839.38	-2.22
839.556	-4.27
839.732	61.27
839.909	14.17
840.085	73.56
840.261	-24.75
840.437	46.93
840.614	-20.65
840.79	36.69
840.966	36.69
841.142	8.02
841.318	30.55
841.494	-6.31
841.671	-18.6
841.847	12.12
842.023	-49.32
842.199	-2.22
842.375	130.9
842.551	-59.56
842.727	-94.38
842.903	130.9
843.079	-102.57
843.255	122.71
843.431	3.93
843.607	16.21
843.783	-166.06
843.959	61.27
844.134	-65.71
844.31	69.46
844.486	-59.56
844.662	-53.42
844.838	16.21
845.013	71.51
845.189	30.55
845.365	3.93
845.541	-30.89
845.716	36.69
845.892	1.88
846.068	-37.03
846.244	-57.51
846.419	36.69
846.595	-57.51
846.77	-90.28
846.946	57.17
847.122	-2.22
847.297	-55.47
847.473	57.17
847.648	-129.19
847.824	8.02
847.999	-86.19
848.175	-37.03
848.35	-4.27
848.526	71.51
848.701	73.56
848.876	132.95
849.052	-6.31
849.227	36.69
849.403	1.88
849.578	63.32
849.753	-0.17
849.929	32.6
850.104	-18.6
850.279	-2.22
850.454	40.79
850.63	102.23
850.805	-37.03
850.98	-4.27
851.155	-10.41
851.33	32.6
851.505	-67.75
851.681	71.51
851.856	-82.09
852.031	-14.51
852.206	89.94
852.381	-112.81
852.556	85.84
852.731	77.65
852.906	96.08
853.081	12.12
853.256	163.67
853.431	-41.13
853.606	-67.75
853.781	-57.51
853.956	-90.28
854.131	-10.41
854.305	5.97
854.48	-6.31
854.655	3.93
854.83	-16.55
855.005	-51.37
855.18	1.88
855.354	-18.6
855.529	-47.27
855.704	10.07
855.879	30.55
856.053	-98.47
856.228	83.8
856.403	-34.99
856.577	-26.79
856.752	-92.33
856.926	46.93
857.101	46.93
857.276	-80.04
857.45	-24.75
857.625	-6.31
857.799	-10.41
857.974	69.46
858.148	-137.38
858.323	32.6
858.497	-12.46
858.672	-53.42
858.846	-53.42
859.02	55.12
859.195	-77.99
859.369	34.64
859.543	-20.65
859.718	26.45
859.892	145.24
860.066	8.02
860.241	-51.37
860.415	-12.46
860.589	85.84
860.763	-6.31
860.938	-32.94
861.112	16.21
861.286	-6.31
861.46	26.45
861.634	48.98
861.808	63.32
861.982	-55.47
862.157	-75.95
862.331	-18.6
862.505	-104.62
862.679	-96.43
862.853	-92.33
863.027	79.7
863.201	106.32
863.375	-28.84
863.549	-16.55
863.722	-18.6
863.896	118.61
864.07	-55.47
864.244	16.21
864.418	38.74
864.592	-18.6
864.766	-6.31
864.939	-0.17
865.113	-57.51
865.287	63.32
865.461	-0.17
865.634	46.93
865.808	-39.08
865.982	-73.9
866.156	-129.19
866.329	-32.94
866.503	-57.51
866.676	75.6
866.85	16.21
867.024	-59.56
867.197	53.08
867.371	-2.22
867.544	20.31
867.718	-30.89
867.891	61.27
868.065	-112.81
868.238	75.6
868.412	98.13
868.585	-20.65
868.759	-6.31
868.932	-4.27
869.105	-59.56
869.279	-4.27
869.452	-77.99
869.625	55.12
869.799	44.88
869.972	-55.47
870.145	-6.31
870.319	3.93
870.492	-67.75
870.665	14.17
870.838	-32.94
871.011	-159.91
871.185	14.17
871.358	-30.89
871.531	48.98
871.704	18.26
871.877	3.93
872.05	-41.13
872.223	-82.09
872.396	34.64
872.569	55.12
872.742	-28.84
872.915	61.27
873.088	-30.89
873.261	-149.67
873.434	16.21
873.607	3.93
873.78	71.51
873.953	-127.14
874.126	5.97
874.299	18.26
874.471	16.21
874.644	-6.31
874.817	34.64
874.99	167.76
875.163	-32.94
875.335	128.85
875.508	-37.03
875.681	102.23
875.853	8.02
876.026	-0.17
876.199	110.42
876.371	-22.7
876.544	3.93
876.717	46.93
876.889	-49.32
877.062	26.45
877.234	-41.13
877.407	-28.84
877.579	-24.75
877.752	18.26
877.924	-8.36
878.097	85.84
878.269	48.98
878.442	63.32
878.614	26.45
878.786	42.84
878.959	-2.22
879.131	18.26
879.303	-125.1
879.476	24.4
879.648	106.32
879.82	34.64
879.993	1.88
880.165	-32.94
880.337	-82.09
880.509	-41.13
880.681	-129.19
880.854	-39.08
881.026	-4.27
881.198	188.24
881.37	22.36
881.542	-37.03
881.714	-10.41
881.886	-63.66
882.058	16.21
882.23	12.12
882.402	32.6
882.574	-73.9
882.746	34.64
882.918	100.18
883.09	36.69
883.262	75.6
883.434	-0.17
883.606	-47.27
883.778	-30.89
883.95	89.94
884.122	22.36
884.293	89.94
884.465	-32.94
884.637	61.27
884.809	-71.85
884.98	10.07
885.152	-2.22
885.324	53.08
885.496	-90.28
885.667	3.93
885.839	-127.14
886.011	75.6
886.182	30.55
886.354	36.69
886.525	-14.51
886.697	51.03
886.869	-121
887.04	-55.47
887.212	34.64
887.383	167.76
887.555	59.22
887.726	-155.82
887.897	-45.23
888.069	71.51
888.24	83.8
888.412	-30.89
888.583	-22.7
888.754	42.84
888.926	-147.62
889.097	-39.08
889.268	-59.56
889.44	-20.65
889.611	-55.47
889.782	-116.9
889.953	-51.37
890.125	79.7
890.296	-139.43
890.467	-24.75
890.638	-14.51
890.809	-80.04
890.98	-57.51
891.151	46.93
891.323	40.79
891.494	20.31
891.665	-16.55
891.836	-12.46
892.007	3.93
892.178	-12.46
892.349	24.4
892.52	-96.43
892.691	-30.89
892.862	-47.27
893.032	-32.94
893.203	-12.46
893.374	69.46
893.545	-8.36
893.716	-61.61
893.887	12.12
894.057	-100.52
894.228	44.88
894.399	-22.7
894.57	124.76
894.74	14.17
894.911	-18.6
895.082	-45.23
895.253	-37.03
895.423	-49.32
895.594	96.08
895.764	81.75
895.935	-73.9
896.106	-20.65
896.276	-75.95
896.447	-37.03
896.617	-121
896.788	-18.6
896.958	-24.75
897.129	-8.36
897.299	-75.95
897.47	126.8
897.64	110.42
897.81	-43.18
897.981	12.12
898.151	-118.95
898.322	-6.31
898.492	1.88
898.662	-170.15
898.832	-41.13
899.003	-39.08
899.173	-0.17
899.343	-30.89
899.513	-49.32
