Data from USB4F104151__63__10-26-48-725.txt Node

Date: Wed Feb 26 10:26:48 EST 2025
User: louis
Spectrometer: USB4F10415
Trigger mode: 4
Integration Time (sec): 1.000000E-1
Scans to average: 1
Electric dark correction enabled: true
Nonlinearity correction enabled: false
Boxcar width: 0
XAxis mode: Wavelengths
Number of Pixels in Spectrum: 3648
>>>>>Begin Spectral Data<<<<<
178.204	-359.93
178.424	-359.93
178.644	-359.93
178.864	-370.17
179.084	-384.51
179.304	-13.82
179.524	-105.98
179.744	23.04
179.964	47.62
180.184	18.94
180.404	-19.97
180.624	14.85
180.844	-40.45
181.064	-40.45
181.283	72.19
181.503	10.75
181.723	33.28
181.943	-11.78
182.163	193.02
182.383	18.94
182.602	57.86
182.822	139.77
183.042	111.1
183.262	-60.93
183.482	2.56
183.701	66.05
183.921	-32.26
184.141	-97.79
184.361	-7.68
184.58	43.52
184.8	104.96
185.02	51.71
185.239	131.58
185.459	66.05
185.679	84.48
185.898	-40.45
186.118	8.7
186.338	119.29
186.557	86.53
186.777	-132.61
186.997	-28.16
187.216	49.66
187.436	190.97
187.655	59.9
187.875	70.14
188.095	12.8
188.314	180.73
188.534	119.29
188.753	16.9
188.973	109.05
189.192	96.77
189.412	82.43
189.631	23.04
189.851	57.86
190.07	150.01
190.29	-22.02
190.509	-36.35
190.729	25.09
190.948	94.72
191.168	205.31
191.387	102.91
191.607	-22.02
191.826	70.14
192.045	-7.68
192.265	23.04
192.484	57.86
192.704	8.7
192.923	-44.54
193.142	123.39
193.362	64
193.581	156.16
193.8	41.47
194.02	104.96
194.239	20.99
194.458	72.19
194.678	16.9
194.897	72.19
195.116	43.52
195.335	127.49
195.555	25.09
195.774	14.85
195.993	139.77
196.212	84.48
196.432	-11.78
196.651	31.23
196.87	41.47
197.089	256.51
197.308	-1.54
197.528	109.05
197.747	-75.26
197.966	68.09
198.185	160.25
198.404	-79.36
198.623	125.44
198.842	98.81
199.062	90.62
199.281	125.44
199.5	-19.97
199.719	158.21
199.938	49.66
200.157	109.05
200.376	88.57
200.595	88.57
200.814	18.94
201.033	18.94
201.252	174.59
201.471	64
201.69	102.91
201.909	41.47
202.128	84.48
202.347	150.01
202.566	78.33
202.785	-60.93
203.004	6.66
203.223	205.31
203.442	6.66
203.661	37.38
203.879	8.7
204.098	90.62
204.317	4.61
204.536	107.01
204.755	70.14
204.974	102.91
205.193	-7.68
205.411	123.39
205.63	145.92
205.849	84.48
206.068	-28.16
206.287	-112.13
206.505	160.25
206.724	4.61
206.943	8.7
207.162	-46.59
207.381	-15.87
207.599	37.38
207.818	61.95
208.037	-17.92
208.255	43.52
208.474	78.33
208.693	66.05
208.911	10.75
209.13	86.53
209.349	137.73
209.567	49.66
209.786	37.38
210.005	111.1
210.223	33.28
210.442	-103.93
210.661	-32.26
210.879	20.99
211.098	49.66
211.316	51.71
211.535	72.19
211.753	82.43
211.972	68.09
212.191	41.47
212.409	47.62
212.628	121.34
212.846	35.33
213.065	18.94
213.283	176.64
213.502	61.95
213.72	92.67
213.938	25.09
214.157	-3.58
214.375	41.47
214.594	8.7
214.812	18.94
215.031	111.1
215.249	45.57
215.467	47.62
215.686	43.52
215.904	117.25
216.122	-38.4
216.341	209.4
216.559	27.14
216.778	104.96
216.996	129.53
217.214	10.75
217.432	45.57
217.651	-99.84
217.869	51.71
218.087	80.38
218.306	-48.64
218.524	12.8
218.742	14.85
218.96	100.86
219.179	-50.69
219.397	86.53
219.615	229.88
219.833	98.81
220.051	53.76
220.27	104.96
220.488	139.77
220.706	10.75
220.924	-77.31
221.142	35.33
221.36	125.44
221.578	90.62
221.796	41.47
222.015	39.42
222.233	135.68
222.451	215.55
222.669	-22.02
222.887	37.38
223.105	-58.88
223.323	0.51
223.541	-40.45
223.759	-40.45
223.977	80.38
224.195	145.92
224.413	96.77
224.631	20.99
224.849	25.09
225.067	137.73
225.285	-95.74
225.503	57.86
225.721	-99.84
225.939	29.18
226.157	18.94
226.375	246.27
226.592	37.38
226.81	66.05
227.028	104.96
227.246	170.49
227.464	86.53
227.682	111.1
227.9	41.47
228.117	35.33
228.335	-1.54
228.553	74.24
228.771	20.99
228.989	107.01
229.206	115.2
229.424	2.56
229.642	2.56
229.86	-50.69
230.077	109.05
230.295	123.39
230.513	152.06
230.731	57.86
230.948	248.32
231.166	145.92
231.384	16.9
231.601	-24.06
231.819	152.06
232.037	14.85
232.254	37.38
232.472	-42.5
232.689	14.85
232.907	129.53
233.125	2.56
233.342	-15.87
233.56	-22.02
233.777	31.23
233.995	-3.58
234.213	96.77
234.43	-1.54
234.648	-19.97
234.865	2.56
235.083	96.77
235.3	35.33
235.518	86.53
235.735	225.79
235.953	98.81
236.17	78.33
236.388	23.04
236.605	115.2
236.822	57.86
237.04	182.78
237.257	35.33
237.475	-24.06
237.692	2.56
237.909	61.95
238.127	-36.35
238.344	68.09
238.562	86.53
238.779	-3.58
238.996	-48.64
239.214	27.14
239.431	111.1
239.648	-19.97
239.865	66.05
240.083	90.62
240.3	-17.92
240.517	45.57
240.735	-5.63
240.952	166.4
241.169	16.9
241.386	94.72
241.603	29.18
241.821	-95.74
242.038	147.97
242.255	180.73
242.472	2.56
242.689	107.01
242.907	72.19
243.124	25.09
243.341	72.19
243.558	64
243.775	-65.02
243.992	-38.4
244.209	139.77
244.426	115.2
244.643	57.86
244.86	76.29
245.078	29.18
245.295	104.96
245.512	23.04
245.729	-1.54
245.946	123.39
246.163	86.53
246.38	14.85
246.597	45.57
246.814	39.42
247.031	90.62
247.248	59.9
247.464	61.95
247.681	156.16
247.898	166.4
248.115	117.25
248.332	-44.54
248.549	102.91
248.766	125.44
248.983	133.63
249.2	-34.3
249.417	80.38
249.633	57.86
249.85	117.25
250.067	-32.26
250.284	53.76
250.501	-19.97
250.717	76.29
250.934	-7.68
251.151	61.95
251.368	39.42
251.585	57.86
251.801	27.14
252.018	4.61
252.235	90.62
252.451	25.09
252.668	-17.92
252.885	115.2
253.102	20.99
253.318	29.18
253.535	39.42
253.752	25.09
253.968	-58.88
254.185	33.28
254.401	25.09
254.618	139.77
254.835	-3.58
255.051	76.29
255.268	49.66
255.484	29.18
255.701	-26.11
255.917	39.42
256.134	-101.89
256.351	100.86
256.567	0.51
256.784	57.86
257	-38.4
257.217	145.92
257.433	53.76
257.65	35.33
257.866	186.88
258.082	8.7
258.299	39.42
258.515	61.95
258.732	33.28
258.948	-38.4
259.165	133.63
259.381	-99.84
259.597	74.24
259.814	-1.54
260.03	76.29
260.246	-24.06
260.463	199.16
260.679	82.43
260.895	59.9
261.112	20.99
261.328	25.09
261.544	-13.82
261.761	135.68
261.977	-5.63
262.193	-24.06
262.409	49.66
262.626	4.61
262.842	90.62
263.058	68.09
263.274	57.86
263.49	59.9
263.707	121.34
263.923	152.06
264.139	-118.27
264.355	35.33
264.571	135.68
264.787	-11.78
265.004	170.49
265.22	66.05
265.436	-19.97
265.652	23.04
265.868	57.86
266.084	-52.74
266.3	14.85
266.516	-58.88
266.732	8.7
266.948	37.38
267.164	45.57
267.38	74.24
267.596	82.43
267.812	199.16
268.028	-3.58
268.244	0.51
268.46	96.77
268.676	-3.58
268.892	57.86
269.108	55.81
269.324	0.51
269.54	0.51
269.756	86.53
269.972	16.9
270.188	-42.5
270.403	-89.6
270.619	51.71
270.835	57.86
271.051	84.48
271.267	14.85
271.483	-65.02
271.698	100.86
271.914	96.77
272.13	88.57
272.346	-3.58
272.562	55.81
272.777	150.01
272.993	64
273.209	4.61
273.425	100.86
273.64	-46.59
273.856	109.05
274.072	8.7
274.287	-48.64
274.503	80.38
274.719	135.68
274.934	51.71
275.15	25.09
275.366	31.23
275.581	31.23
275.797	72.19
276.012	-9.73
276.228	0.51
276.444	-69.12
276.659	121.34
276.875	6.66
277.09	-5.63
277.306	43.52
277.521	107.01
277.737	33.28
277.952	47.62
278.168	43.52
278.383	41.47
278.599	-11.78
278.814	123.39
279.03	41.47
279.245	49.66
279.461	72.19
279.676	150.01
279.892	-101.89
280.107	-79.36
280.322	-50.69
280.538	107.01
280.753	12.8
280.969	45.57
281.184	70.14
281.399	158.21
281.615	-3.58
281.83	78.33
282.045	-65.02
282.26	-13.82
282.476	53.76
282.691	123.39
282.906	100.86
283.122	37.38
283.337	-19.97
283.552	84.48
283.767	20.99
283.983	139.77
284.198	-13.82
284.413	39.42
284.628	-19.97
284.843	68.09
285.058	41.47
285.274	90.62
285.489	-7.68
285.704	133.63
285.919	-13.82
286.134	2.56
286.349	57.86
286.564	-36.35
286.779	129.53
286.995	8.7
287.21	-120.32
287.425	76.29
287.64	14.85
287.855	90.62
288.07	-36.35
288.285	150.01
288.5	129.53
288.715	147.97
288.93	98.81
289.145	41.47
289.36	94.72
289.575	0.51
289.79	41.47
290.004	37.38
290.219	25.09
290.434	-122.37
290.649	4.61
290.864	-77.31
291.079	-1.54
291.294	123.39
291.509	29.18
291.724	45.57
291.938	59.9
292.153	72.19
292.368	74.24
292.583	23.04
292.798	61.95
293.012	84.48
293.227	61.95
293.442	10.75
293.657	72.19
293.871	176.64
294.086	113.15
294.301	141.82
294.516	137.73
294.73	27.14
294.945	-75.26
295.16	-26.11
295.374	178.69
295.589	162.3
295.804	-38.4
296.018	-15.87
296.233	162.3
296.447	96.77
296.662	-11.78
296.877	41.47
297.091	131.58
297.306	53.76
297.52	41.47
297.735	70.14
297.949	47.62
298.164	82.43
298.378	-15.87
298.593	-36.35
298.807	-36.35
299.022	-9.73
299.236	111.1
299.451	-5.63
299.665	53.76
299.88	49.66
300.094	88.57
300.309	66.05
300.523	68.09
300.737	31.23
300.952	51.71
301.166	57.86
301.381	-5.63
301.595	-19.97
301.809	41.47
302.024	45.57
302.238	74.24
302.452	133.63
302.667	61.95
302.881	115.2
303.095	59.9
303.309	74.24
303.524	-54.78
303.738	27.14
303.952	29.18
304.166	82.43
304.381	-95.74
304.595	209.4
304.809	25.09
305.023	49.66
305.237	-87.55
305.452	-87.55
305.666	117.25
305.88	51.71
306.094	119.29
306.308	64
306.522	29.18
306.736	45.57
306.95	127.49
307.164	82.43
307.379	12.8
307.593	131.58
307.807	137.73
308.021	104.96
308.235	133.63
308.449	-65.02
308.663	-48.64
308.877	276.99
309.091	72.19
309.305	117.25
309.519	-101.89
309.733	248.32
309.947	-112.13
310.161	55.81
310.374	104.96
310.588	64
310.802	-17.92
311.016	4.61
311.23	88.57
311.444	-71.17
311.658	33.28
311.872	115.2
312.085	141.82
312.299	102.91
312.513	127.49
312.727	-15.87
312.941	-5.63
313.154	51.71
313.368	39.42
313.582	-26.11
313.796	68.09
314.009	74.24
314.223	166.4
314.437	131.58
314.651	86.53
314.864	55.81
315.078	14.85
315.292	-24.06
315.505	-26.11
315.719	82.43
315.933	139.77
316.146	-38.4
316.36	-67.07
316.573	125.44
316.787	53.76
317.001	-19.97
317.214	-19.97
317.428	4.61
317.641	-71.17
317.855	14.85
318.068	6.66
318.282	23.04
318.495	180.73
318.709	59.9
318.922	-5.63
319.136	158.21
319.349	133.63
319.563	16.9
319.776	68.09
319.99	33.28
320.203	147.97
320.417	16.9
320.63	102.91
320.843	172.54
321.057	107.01
321.27	57.86
321.483	31.23
321.697	156.16
321.91	107.01
322.124	57.86
322.337	96.77
322.55	-69.12
322.763	72.19
322.977	-19.97
323.19	25.09
323.403	70.14
323.617	68.09
323.83	102.91
324.043	49.66
324.256	72.19
324.469	-71.17
324.683	70.14
324.896	8.7
325.109	-26.11
325.322	-81.41
325.535	90.62
325.748	121.34
325.962	57.86
326.175	55.81
326.388	51.71
326.601	-5.63
326.814	25.09
327.027	-7.68
327.24	170.49
327.453	-44.54
327.666	82.43
327.879	166.4
328.092	147.97
328.305	111.1
328.518	29.18
328.731	39.42
328.944	-56.83
329.157	78.33
329.37	-17.92
329.583	199.16
329.796	199.16
330.009	-60.93
330.222	78.33
330.435	104.96
330.648	84.48
330.861	16.9
331.073	55.81
331.286	113.15
331.499	-13.82
331.712	41.47
331.925	107.01
332.138	66.05
332.35	111.1
332.563	-5.63
332.776	162.3
332.989	-50.69
333.202	-44.54
333.414	74.24
333.627	113.15
333.84	59.9
334.053	-7.68
334.265	10.75
334.478	49.66
334.691	-5.63
334.903	66.05
335.116	0.51
335.329	10.75
335.541	45.57
335.754	139.77
335.966	51.71
336.179	66.05
336.392	25.09
336.604	-71.17
336.817	74.24
337.029	141.82
337.242	125.44
337.454	14.85
337.667	61.95
337.88	238.08
338.092	61.95
338.305	16.9
338.517	78.33
338.729	133.63
338.942	190.97
339.154	10.75
339.367	-17.92
339.579	33.28
339.792	-19.97
340.004	66.05
340.217	35.33
340.429	-24.06
340.641	-114.17
340.854	-15.87
341.066	-5.63
341.278	64
341.491	131.58
341.703	33.28
341.915	27.14
342.128	141.82
342.34	80.38
342.552	-32.26
342.764	76.29
342.977	8.7
343.189	76.29
343.401	61.95
343.613	12.8
343.826	139.77
344.038	-71.17
344.25	0.51
344.462	20.99
344.674	141.82
344.886	115.2
345.099	84.48
345.311	25.09
345.523	8.7
345.735	-71.17
345.947	-36.35
346.159	68.09
346.371	14.85
346.583	100.86
346.795	238.08
347.007	102.91
347.219	96.77
347.431	76.29
347.643	129.53
347.855	-13.82
348.067	84.48
348.279	4.61
348.491	55.81
348.703	53.76
348.915	8.7
349.127	-32.26
349.339	23.04
349.551	-30.21
349.763	147.97
349.975	80.38
350.187	162.3
350.399	111.1
350.61	64
350.822	6.66
351.034	68.09
351.246	51.71
351.458	61.95
351.669	78.33
351.881	53.76
352.093	199.16
352.305	154.11
352.517	53.76
352.728	68.09
352.94	90.62
353.152	14.85
353.363	6.66
353.575	66.05
353.787	229.88
353.999	113.15
354.21	195.07
354.422	4.61
354.633	-75.26
354.845	70.14
355.057	10.75
355.268	12.8
355.48	78.33
355.692	33.28
355.903	80.38
356.115	14.85
356.326	-114.17
356.538	119.29
356.749	43.52
356.961	162.3
357.172	25.09
357.384	-36.35
357.595	188.93
357.807	-3.58
358.018	68.09
358.23	133.63
358.441	84.48
358.653	160.25
358.864	80.38
359.075	-36.35
359.287	64
359.498	141.82
359.709	61.95
359.921	6.66
360.132	80.38
360.344	78.33
360.555	12.8
360.766	-26.11
360.977	14.85
361.189	61.95
361.4	12.8
361.611	31.23
361.823	45.57
362.034	8.7
362.245	-26.11
362.456	16.9
362.667	33.28
362.879	23.04
363.09	66.05
363.301	135.68
363.512	82.43
363.723	57.86
363.935	53.76
364.146	80.38
364.357	-5.63
364.568	-7.68
364.779	20.99
364.99	143.87
365.201	-38.4
365.412	160.25
365.623	-52.74
365.834	90.62
366.045	78.33
366.256	123.39
366.467	127.49
366.678	61.95
366.889	59.9
367.1	-9.73
367.311	117.25
367.522	-7.68
367.733	57.86
367.944	59.9
368.155	29.18
368.366	39.42
368.577	143.87
368.788	141.82
368.999	8.7
369.209	53.76
369.42	303.61
369.631	262.65
369.842	80.38
370.053	6.66
370.264	154.11
370.474	-46.59
370.685	20.99
370.896	78.33
371.107	113.15
371.317	31.23
371.528	53.76
371.739	82.43
371.95	74.24
372.16	55.81
372.371	51.71
372.582	102.91
372.792	70.14
373.003	-11.78
373.214	86.53
373.424	115.2
373.635	-38.4
373.846	129.53
374.056	31.23
374.267	74.24
374.477	18.94
374.688	47.62
374.898	121.34
375.109	16.9
375.319	90.62
375.53	27.14
375.74	70.14
375.951	-22.02
376.161	74.24
376.372	168.45
376.582	-32.26
376.793	23.04
377.003	-44.54
377.214	-7.68
377.424	84.48
377.635	33.28
377.845	45.57
378.055	109.05
378.266	-28.16
378.476	39.42
378.686	82.43
378.897	61.95
379.107	94.72
379.317	59.9
379.528	29.18
379.738	59.9
379.948	-38.4
380.158	117.25
380.369	41.47
380.579	141.82
380.789	113.15
380.999	68.09
381.21	178.69
381.42	176.64
381.63	127.49
381.84	96.77
382.05	64
382.261	147.97
382.471	137.73
382.681	74.24
382.891	182.78
383.101	59.9
383.311	-1.54
383.521	37.38
383.731	172.54
383.941	80.38
384.151	119.29
384.361	-19.97
384.571	98.81
384.781	12.8
384.991	201.21
385.201	178.69
385.411	51.71
385.621	121.34
385.831	92.67
386.041	135.68
386.251	57.86
386.461	78.33
386.671	41.47
386.881	150.01
387.091	78.33
387.301	98.81
387.511	25.09
387.72	123.39
387.93	72.19
388.14	-60.93
388.35	90.62
388.56	109.05
388.769	186.88
388.979	-1.54
389.189	45.57
389.399	4.61
389.609	131.58
389.818	51.71
390.028	88.57
390.238	74.24
390.447	47.62
390.657	76.29
390.867	23.04
391.076	-36.35
391.286	-11.78
391.496	37.38
391.705	25.09
391.915	137.73
392.125	115.2
392.334	-19.97
392.544	164.35
392.753	41.47
392.963	-60.93
393.172	72.19
393.382	-50.69
393.591	195.07
393.801	-48.64
394.01	182.78
394.22	139.77
394.429	37.38
394.639	90.62
394.848	61.95
395.058	51.71
395.267	33.28
395.477	49.66
395.686	-19.97
395.895	150.01
396.105	145.92
396.314	113.15
396.524	33.28
396.733	-22.02
396.942	199.16
397.152	113.15
397.361	64
397.57	55.81
397.78	-28.16
397.989	6.66
398.198	170.49
398.407	27.14
398.617	-9.73
398.826	41.47
399.035	10.75
399.244	96.77
399.453	45.57
399.663	57.86
399.872	92.67
400.081	-56.83
400.29	178.69
400.499	12.8
400.708	70.14
400.917	61.95
401.127	33.28
401.336	70.14
401.545	143.87
401.754	94.72
401.963	166.4
402.172	35.33
402.381	16.9
402.59	76.29
402.799	41.47
403.008	100.86
403.217	107.01
403.426	6.66
403.635	-28.16
403.844	109.05
404.053	-3.58
404.262	70.14
404.471	190.97
404.68	20.99
404.888	90.62
405.097	152.06
405.306	68.09
405.515	68.09
405.724	59.9
405.933	125.44
406.142	41.47
406.35	180.73
406.559	78.33
406.768	25.09
406.977	180.73
407.185	96.77
407.394	137.73
407.603	-75.26
407.812	70.14
408.02	139.77
408.229	49.66
408.438	68.09
408.646	-15.87
408.855	47.62
409.064	64
409.272	86.53
409.481	115.2
409.69	-44.54
409.898	18.94
410.107	59.9
410.315	94.72
410.524	-28.16
410.733	80.38
410.941	35.33
411.15	33.28
411.358	47.62
411.567	109.05
411.775	76.29
411.984	31.23
412.192	145.92
412.401	-7.68
412.609	135.68
412.818	107.01
413.026	31.23
413.234	37.38
413.443	59.9
413.651	-65.02
413.86	59.9
414.068	104.96
414.276	156.16
414.485	27.14
414.693	133.63
414.901	141.82
415.11	45.57
415.318	-19.97
415.526	35.33
415.734	107.01
415.943	121.34
416.151	141.82
416.359	57.86
416.567	139.77
416.776	68.09
416.984	139.77
417.192	238.08
417.4	0.51
417.608	-11.78
417.817	-5.63
418.025	94.72
418.233	199.16
418.441	-13.82
418.649	-19.97
418.857	37.38
419.065	184.83
419.273	29.18
419.481	31.23
419.689	27.14
419.897	29.18
420.105	59.9
420.313	90.62
420.521	160.25
420.729	113.15
420.937	-15.87
421.145	64
421.353	174.59
421.561	131.58
421.769	68.09
421.977	80.38
422.185	94.72
422.393	31.23
422.601	154.11
422.809	84.48
423.017	129.53
423.224	68.09
423.432	133.63
423.64	66.05
423.848	147.97
424.056	33.28
424.263	162.3
424.471	35.33
424.679	182.78
424.887	20.99
425.094	64
425.302	90.62
425.51	43.52
425.718	121.34
425.925	143.87
426.133	27.14
426.341	188.93
426.548	117.25
426.756	-30.21
426.964	102.91
427.171	-5.63
427.379	94.72
427.586	74.24
427.794	96.77
428.001	129.53
428.209	90.62
428.417	123.39
428.624	184.83
428.832	43.52
429.039	109.05
429.247	80.38
429.454	178.69
429.662	184.83
429.869	133.63
430.076	107.01
430.284	131.58
430.491	197.12
430.699	168.45
430.906	213.5
431.114	111.1
431.321	125.44
431.528	115.2
431.736	143.87
431.943	238.08
432.15	127.49
432.358	246.27
432.565	213.5
432.772	57.86
432.979	244.22
433.187	98.81
433.394	170.49
433.601	139.77
433.808	213.5
434.016	219.64
434.223	217.6
434.43	143.87
434.637	262.65
434.844	272.89
435.052	213.5
435.259	211.45
435.466	293.37
435.673	231.93
435.88	209.4
436.087	344.57
436.294	336.38
436.501	188.93
436.708	207.36
436.915	315.9
437.122	311.8
437.329	231.93
437.537	403.96
437.743	328.19
437.95	346.62
438.157	414.2
438.364	346.62
438.571	358.91
438.778	379.39
438.985	430.59
439.192	473.59
439.399	373.24
439.606	461.3
439.813	465.4
440.02	608.76
440.227	522.74
440.433	602.61
440.64	489.98
440.847	504.31
441.054	524.79
441.261	664.05
441.467	483.83
441.674	535.03
441.881	715.25
442.088	502.26
442.294	692.73
442.501	737.78
442.708	764.4
442.914	698.87
443.121	831.99
443.328	713.21
443.534	911.86
443.741	797.17
443.948	782.84
444.154	905.71
444.361	1169.9
444.568	993.78
444.774	1081.84
444.981	874.99
445.187	1096.18
445.394	1124.85
445.6	997.87
445.807	1292.78
446.013	1165.81
446.22	1239.53
446.426	1315.31
446.633	1417.71
446.839	1522.15
447.046	1278.44
447.252	1550.82
447.459	1389.03
447.665	1475.05
447.871	1653.22
448.078	1837.54
448.284	1712.61
448.491	1833.44
448.697	1909.22
448.903	1999.33
449.11	2114.02
449.316	2017.76
449.522	2212.32
449.728	2226.65
449.935	2367.96
450.141	2322.91
450.347	2562.52
450.553	2456.03
450.76	2484.7
450.966	2675.16
451.172	2795.99
451.378	2886.1
451.584	2898.39
451.791	3224.01
451.997	3353.04
452.203	3310.03
452.409	3494.35
452.615	3631.56
452.821	3420.62
453.027	3514.83
453.233	3922.37
453.44	3957.19
453.646	4118.98
453.852	4325.82
454.058	4616.63
454.264	4534.71
454.47	4831.67
454.676	4874.68
454.882	5362.09
455.088	5259.7
455.294	5284.27
455.5	5628.33
455.705	5927.33
455.911	6035.88
456.117	6142.37
456.323	6386.08
456.529	6420.89
456.735	7137.68
456.941	7129.49
457.147	7383.44
457.352	7586.19
457.558	7803.27
457.764	8364.42
457.97	8501.63
458.176	8700.28
458.381	9193.84
458.587	9462.13
458.793	9933.16
458.999	9800.04
459.204	11108.69
459.41	11630.93
459.616	11528.53
459.821	11985.23
460.027	12198.21
460.233	13033.79
460.438	12923.19
460.644	13766.96
460.85	14049.58
461.055	14649.63
461.261	15233.3
461.466	14831.9
461.672	15149.34
461.878	16967.93
462.083	16845.05
462.289	17060.09
462.494	17823.98
462.7	18041.07
462.905	18432.23
463.111	19562.71
463.316	20814.02
463.522	21012.67
463.727	21510.33
463.932	22640.81
464.138	23152.8
464.343	23902.36
464.549	24137.87
464.754	26142.83
464.959	26759.27
465.165	27015.27
465.37	27203.68
465.575	26869.86
465.781	28657.74
465.986	29517.89
466.191	29538.37
466.397	29319.23
466.602	28735.56
466.807	30439.47
467.012	30947.37
467.218	31168.55
467.423	31242.28
467.628	32286.74
467.833	34260.98
468.038	33212.42
468.244	32557.07
468.449	34541.55
468.654	33630.21
468.859	33785.85
469.064	33794.04
469.269	33114.12
469.474	33415.17
469.679	34281.46
469.885	33347.59
470.09	33736.7
470.295	33845.24
470.5	32718.86
470.705	33042.44
470.91	32094.23
471.115	32182.29
471.32	32698.38
471.525	32460.82
471.73	31803.42
471.935	31164.45
472.139	30093.36
472.344	30195.76
472.549	29702.2
472.754	29292.61
472.959	28717.13
473.164	27469.92
473.369	27420.77
473.574	28020.82
473.778	27242.59
473.983	26706.02
474.188	26540.14
474.393	25301.12
474.598	25272.45
474.802	24641.67
475.007	24496.27
475.212	24092.82
475.417	23124.13
475.621	23226.53
475.826	22761.64
476.031	22210.73
476.235	21547.19
476.44	21543.1
476.645	21002.43
476.849	21084.35
477.054	20338.89
477.259	19976.4
477.463	19779.79
477.668	19362.01
477.872	19564.76
478.077	19314.91
478.282	18358.5
478.486	18346.22
478.691	18090.22
478.895	18055.4
479.1	17926.38
479.304	17846.51
479.509	17195.26
479.713	17549.56
479.918	16922.88
480.122	16451.84
480.326	16730.37
480.531	16333.06
480.735	16296.2
480.94	16175.37
481.144	16638.21
481.348	15921.42
481.553	15855.89
481.757	15323.41
481.961	15393.05
482.166	15737.1
482.37	15599.89
482.574	15005.98
482.778	15085.85
482.983	15257.88
483.187	14827.81
483.391	14745.89
483.595	14672.16
483.8	14491.94
484.004	14383.4
484.208	14536.99
484.412	14227.75
484.616	14164.26
484.821	13961.51
485.025	13760.81
485.229	13564.21
485.433	13398.32
485.637	13375.8
485.841	12980.54
486.045	12951.87
486.249	12818.75
486.453	12513.6
486.657	12278.08
486.861	11944.27
487.065	11770.19
487.269	11848.01
487.473	11364.69
487.677	11653.45
487.881	11567.44
488.085	11075.93
488.289	11123.03
488.493	10717.53
488.697	10789.21
488.901	10303.84
489.105	10279.27
489.309	10078.57
489.512	9810.28
489.716	9554.29
489.92	9353.59
490.124	9484.66
490.328	9314.67
490.531	8960.38
490.735	9111.92
490.939	8825.21
491.143	8495.49
491.346	8472.96
491.55	8462.72
491.754	8053.13
491.958	7944.58
492.161	7903.62
492.365	7752.07
492.569	7483.79
492.772	7537.04
492.976	7616.91
493.18	7299.47
493.383	7469.45
493.587	7418.25
493.79	7207.31
493.994	7125.4
494.197	6893.97
494.401	6973.85
494.605	6883.73
494.808	6828.44
495.012	6807.96
495.215	6887.83
495.419	6822.3
495.622	6439.33
495.825	6631.83
496.029	6506.91
496.232	6699.42
496.436	6435.23
496.639	6752.66
496.843	6312.35
497.046	6447.52
497.249	6588.83
497.453	6525.34
497.656	6439.33
497.859	6287.78
498.063	6644.12
498.266	6515.1
498.469	6554.01
498.673	6521.24
498.876	6359.45
499.079	6719.9
499.282	6412.7
499.485	6818.2
499.689	6521.24
499.892	6846.87
500.095	6607.26
500.298	6971.8
500.501	6764.95
500.705	6773.14
500.908	6926.74
501.111	6846.87
501.314	7096.72
501.517	7182.74
501.72	7315.86
501.923	7244.18
502.126	7307.66
502.329	7504.27
502.532	7485.84
502.735	7545.23
502.938	7752.07
503.141	7696.78
503.344	7756.17
503.547	7831.94
503.75	8057.22
503.953	8362.37
504.156	8206.72
504.359	8374.66
504.562	8386.94
504.765	8477.05
504.968	8915.32
505.17	8855.93
505.373	8880.5
505.576	9214.32
505.779	9253.23
505.982	9257.33
506.185	9476.46
506.387	9681.26
506.59	10058.09
506.793	10115.43
506.996	10172.77
507.198	10424.67
507.401	10719.58
507.604	10656.09
507.807	11018.58
508.009	11223.38
508.212	11376.98
508.415	11694.41
508.617	11837.77
508.82	12185.93
509.022	12081.48
509.225	12769.6
509.428	12984.63
509.63	12927.29
509.833	13076.79
510.035	13728.05
510.238	13795.63
510.44	14221.61
510.643	14547.23
510.845	14881.05
511.048	15067.42
511.25	15393.05
511.453	15503.64
511.655	16378.12
511.858	16412.93
512.06	16867.58
512.262	17041.66
512.465	17580.28
512.667	17703.15
512.87	18110.7
513.072	18628.84
513.274	19056.86
513.477	19581.14
513.679	19996.88
513.881	20347.08
514.084	20590.79
514.286	20807.87
514.488	21571.77
514.69	22507.69
514.893	22610.09
515.095	23103.65
515.297	23382.17
515.499	23609.5
515.701	24645.77
515.904	24635.53
516.106	25356.41
516.308	25444.48
516.51	26140.79
516.712	26843.24
516.914	27586.65
517.116	27912.28
517.318	28430.41
517.52	28799.05
517.722	29218.88
517.925	29507.65
518.127	30705.71
518.329	31320.1
518.531	30761
518.733	32290.84
518.935	32469.01
519.136	32806.92
519.338	33691.65
519.54	33982.46
519.742	34324.47
519.944	34545.65
520.146	35657.7
520.348	35182.57
520.55	36141.02
520.752	36034.52
520.954	37519.3
521.155	37496.77
521.357	37775.3
521.559	38188.99
521.761	38975.41
521.963	39124.91
522.164	39243.69
522.366	39583.65
522.568	39944.09
522.77	40290.2
522.971	41054.09
523.173	40744.85
523.375	41222.03
523.576	41396.1
523.778	41320.33
523.98	41893.76
524.181	41813.89
524.383	42016.64
524.584	42502.01
524.786	42252.16
524.988	41815.94
525.189	42520.44
525.391	42547.06
525.592	42469.24
525.794	42270.59
525.995	42532.73
526.197	42289.02
526.398	42459
526.6	42352.51
526.801	42088.32
527.003	41957.25
527.204	42280.83
527.406	42313.59
527.607	41465.74
527.808	41443.21
528.01	40417.18
528.211	40732.56
528.412	41496.45
528.614	40818.58
528.815	39946.14
529.016	40447.89
529.218	39548.84
529.419	39462.82
529.62	39145.39
529.822	38819.76
530.023	38049.72
530.224	37670.85
530.425	37550.02
530.626	36657.1
530.828	36483.03
531.029	36886.48
531.23	36026.33
531.431	35459.04
531.632	35586.02
531.833	35147.75
532.035	34484.21
532.236	34244.6
532.437	34013.18
532.638	33286.15
532.839	33234.95
533.04	32452.62
533.241	32184.34
533.442	32127
533.643	31203.36
533.844	30834.73
534.045	30611.5
534.246	29794.36
534.447	29868.09
534.648	29382.72
534.849	28842.06
535.05	28414.03
535.251	28147.79
535.451	27897.94
535.652	27273.31
535.853	27119.71
536.054	26726.5
536.255	26452.08
536.456	25720.95
536.657	25821.3
536.857	25143.42
537.058	24836.23
537.259	24750.21
537.46	24174.74
537.66	23824.53
537.861	23855.25
538.062	23150.75
538.263	23001.25
538.463	22741.16
538.664	22378.67
538.865	22223.02
539.065	22218.92
539.266	21315.77
539.466	21479.61
539.667	21045.44
539.868	20998.34
540.068	20375.75
540.269	20412.62
540.469	20207.82
540.67	19878.1
540.87	19896.53
541.071	19208.41
541.271	19351.77
541.472	18809.06
541.672	18942.17
541.873	18432.23
542.073	18090.22
542.274	18065.64
542.474	17830.13
542.675	17432.82
542.875	17713.39
543.075	17529.08
543.276	17017.08
543.476	16756.99
543.676	16785.66
543.877	16380.17
544.077	16705.79
544.277	16181.51
544.478	15999.24
544.678	16075.02
544.878	15739.15
545.078	15472.92
545.279	15169.82
545.479	15153.43
545.679	15186.2
545.879	14836
546.079	14623.01
546.28	14332.2
546.48	14215.46
546.68	14252.33
546.88	13920.56
547.08	13738.29
547.28	13828.4
547.48	13232.44
547.68	13226.29
547.88	13201.72
548.081	13230.39
548.281	12712.25
548.481	12687.68
548.681	12575.04
548.881	12255.56
549.081	12192.07
549.28	11741.52
549.48	11944.27
549.68	11886.92
549.88	11686.22
550.08	11374.93
550.28	11233.62
550.48	11125.08
550.68	11184.47
550.88	10647.9
551.08	10764.64
551.279	10682.72
551.479	10203.49
551.679	10320.23
551.879	10092.9
552.079	9867.63
552.278	9783.66
552.478	9826.67
552.678	9482.61
552.878	9474.42
553.077	9273.71
553.277	8894.84
553.477	8878.46
553.676	8837.5
553.876	8630.65
554.076	8368.51
554.275	8286.59
554.475	8081.8
554.674	8114.56
554.874	7905.67
555.074	7702.92
555.273	7790.99
555.473	7844.23
555.672	7512.46
555.872	7514.51
556.071	7260.56
556.271	7141.78
556.47	7149.97
556.67	6779.29
556.869	6644.12
557.068	6795.67
557.268	6715.8
557.467	6539.68
557.667	6562.2
557.866	6240.67
558.065	6168.99
558.265	6025.64
558.464	6113.7
558.663	5816.74
558.863	5910.95
559.062	5704.1
559.261	5601.71
559.461	5640.62
559.66	5421.49
559.859	5190.06
560.058	5218.74
560.258	5138.87
560.457	4975.03
560.656	5271.98
560.855	4983.22
561.054	4874.68
561.253	4764.09
561.453	4755.9
561.652	4811.19
561.851	4694.46
562.05	4366.78
562.249	4409.79
562.448	4473.28
562.647	4235.71
562.846	4213.18
563.045	4209.09
563.244	4190.66
563.443	4207.04
563.642	4067.78
563.841	3992
564.04	3871.17
564.239	3836.36
564.438	3826.12
564.637	3643.85
564.836	3510.73
565.035	3537.35
565.234	3453.39
565.432	3477.96
565.631	3418.57
565.83	3353.04
566.029	3248.59
566.228	3207.63
566.427	3297.74
566.625	3135.95
566.824	3269.07
567.023	3156.43
567.222	2998.74
567.42	3090.9
567.619	3066.32
567.818	2972.11
568.016	3054.03
568.215	2927.06
568.414	2896.34
568.612	2867.67
568.811	2593.24
569.01	2691.54
569.208	2664.92
569.407	2791.89
569.605	2632.15
569.804	2675.16
570.002	2568.66
570.201	2433.5
570.4	2466.27
570.598	2415.07
570.797	2413.02
570.995	2288.09
571.193	2329.05
571.392	2286.05
571.59	2185.69
571.789	2228.7
571.987	2200.03
572.186	2136.54
572.384	2130.4
572.582	2130.4
572.781	2204.13
572.979	1890.79
573.177	1868.26
573.376	1866.21
573.574	1946.08
573.772	1917.41
573.971	1880.55
574.169	1708.52
574.367	1870.31
574.565	1851.88
574.763	1718.76
574.962	1702.37
575.16	1745.38
575.358	1630.7
575.556	1634.79
575.754	1692.13
575.952	1554.92
576.151	1671.65
576.349	1661.41
576.547	1520.1
576.745	1608.17
576.943	1587.69
577.141	1483.24
577.339	1409.51
577.537	1466.86
577.735	1440.23
577.933	1491.43
578.131	1243.63
578.329	1438.19
578.527	1346.03
578.725	1370.6
578.923	1077.74
579.121	1280.49
579.319	1065.46
579.516	1137.13
579.714	1442.28
579.912	1212.91
580.11	1116.65
580.308	1069.55
580.506	1130.99
580.704	1036.78
580.901	1063.41
581.099	1161.71
581.297	1090.03
581.495	1094.13
581.692	1032.69
581.89	1137.13
582.088	983.54
582.285	993.78
582.483	879.09
582.681	950.77
582.878	872.95
583.076	930.29
583.274	844.28
583.471	1008.11
583.669	848.37
583.866	819.7
584.064	854.51
584.262	709.11
584.459	772.6
584.657	961.01
584.854	950.77
585.052	858.61
585.249	842.23
585.447	801.27
585.644	629.24
585.841	944.63
586.039	778.74
586.236	774.64
586.434	725.49
586.631	690.68
586.828	643.57
587.026	655.86
587.223	635.38
587.42	750.07
587.618	602.61
587.815	733.68
588.012	723.44
588.21	686.58
588.407	657.91
588.604	688.63
588.801	590.33
588.999	610.81
589.196	668.15
589.393	571.9
589.59	651.77
589.787	606.71
589.984	616.95
590.182	678.39
590.379	578.04
590.576	571.9
590.773	551.42
590.97	557.56
591.167	559.61
591.364	551.42
591.561	537.08
591.758	610.81
591.955	631.29
592.152	586.23
592.349	500.22
592.546	504.31
592.743	502.26
592.94	551.42
593.137	590.33
593.334	602.61
593.531	653.81
593.727	582.14
593.924	553.46
594.121	635.38
594.318	569.85
594.515	700.92
594.712	705.01
594.908	682.49
595.105	547.32
595.302	567.8
595.499	664.05
595.696	662.01
595.892	537.08
596.089	707.06
596.286	614.9
596.482	655.86
596.679	797.17
596.876	555.51
597.072	731.64
597.269	657.91
597.466	731.64
597.662	745.97
597.859	737.78
598.055	721.4
598.252	772.6
598.448	930.29
598.645	868.85
598.841	958.96
599.038	1055.22
599.234	1042.93
599.431	1006.06
599.627	1145.33
599.824	1102.32
600.02	1141.23
600.217	1139.18
600.413	1284.59
600.609	1341.93
600.806	1473
601.002	1292.78
601.198	1325.55
601.395	1440.23
601.591	1542.63
601.787	1657.32
601.984	1626.6
602.18	1708.52
602.376	1839.59
602.572	1747.43
602.769	1956.32
602.965	1849.83
603.161	2054.62
603.357	1993.19
603.553	2138.59
603.75	2206.17
603.946	2286.05
604.142	2468.31
604.338	2439.64
604.534	2406.88
604.73	2515.42
604.926	2693.59
605.122	2798.04
605.318	2728.41
605.514	2972.11
605.71	3039.7
605.906	3138
606.102	3080.66
606.298	3385.8
606.494	3437
606.69	3697.1
606.886	3631.56
607.082	3656.14
607.278	3744.2
607.474	3975.62
607.67	4002.24
607.866	4000.19
608.062	4295.1
608.257	4209.09
608.453	4434.36
608.649	4663.74
608.845	4555.19
609.041	4813.24
609.236	4970.93
609.432	5028.28
609.628	5353.9
609.824	5452.2
610.019	5476.78
610.215	5501.36
610.411	5908.9
610.606	5921.19
610.802	6056.36
610.998	6312.35
611.193	6549.92
611.389	6508.96
611.584	6783.38
611.78	6764.95
611.976	7260.56
612.171	7252.37
612.367	7248.27
612.562	7704.97
612.758	7813.51
612.953	8008.07
613.149	8237.44
613.344	8399.23
613.539	8690.04
613.735	8911.22
613.93	9179.51
614.126	9173.36
614.321	9498.99
614.517	10029.41
614.712	9894.25
614.907	10144.1
615.103	10660.19
615.298	10662.24
615.493	11192.66
615.688	11477.33
615.884	11950.41
616.079	11845.96
616.274	12568.9
616.47	12437.83
616.665	12927.29
616.86	13297.97
617.055	13496.63
617.25	13769.01
617.445	14256.42
617.641	14309.67
617.836	15313.17
618.031	15065.37
618.226	15603.99
618.421	16032.01
618.616	16292.1
618.811	16793.86
619.006	17256.7
619.201	17332.47
619.396	18067.69
619.591	17846.51
619.786	18723.04
619.981	19138.78
620.176	19405.02
620.371	19775.7
620.566	20408.52
620.761	20361.42
620.956	21178.56
621.151	21160.13
621.346	21950.64
621.541	22024.37
621.735	23206.05
621.93	23023.78
622.125	23410.84
622.32	23580.82
622.515	24518.79
622.709	24608.9
622.904	25368.7
623.099	25540.73
623.294	26671.21
623.488	26392.69
623.683	26818.66
623.878	27256.93
624.072	27578.46
624.267	28500.05
624.462	28633.16
624.656	29036.61
624.851	29423.68
625.046	30138.42
625.24	30529.58
625.435	30834.73
625.629	31459.36
625.824	31899.67
626.018	32423.95
626.213	32094.23
626.407	32315.41
626.602	32798.73
626.796	33554.43
626.991	33812.48
627.185	34158.58
627.38	34469.87
627.574	34398.2
627.768	34787.31
627.963	34433.01
628.157	34922.48
628.352	35416.04
628.546	34916.33
628.74	35108.84
628.935	34953.19
629.129	35102.7
629.323	34646
629.517	34836.46
629.712	34555.89
629.906	34449.39
630.1	33742.85
630.294	33654.78
630.489	33519.62
630.683	33054.73
630.877	32114.71
631.071	32172.05
631.265	31758.36
631.459	30810.15
631.653	30210.1
631.848	29777.98
632.042	28975.17
632.236	28477.52
632.43	27547.74
632.624	26849.38
632.818	25913.46
633.012	25430.14
633.206	24631.43
633.4	23746.71
633.594	22605.99
633.788	22360.23
633.982	21524.66
634.176	20717.76
634.369	19855.57
634.563	19138.78
634.757	18522.34
634.951	18190.57
635.145	17010.94
635.339	16556.29
635.533	15898.89
635.726	15225.11
635.92	14672.16
636.114	14020.91
636.308	13381.94
636.501	12992.83
636.695	12362.05
636.889	11848.01
637.083	11432.27
637.276	10881.37
637.47	10424.67
637.664	9935.21
637.857	9976.17
638.051	9329.01
638.244	8839.55
638.438	8558.97
638.632	8282.5
638.825	7850.38
639.019	7537.04
639.212	7235.99
639.406	6932.89
639.599	6642.07
639.793	6410.65
639.986	6173.09
640.18	6099.36
640.373	5812.65
640.567	5425.58
640.76	5349.81
640.954	5331.37
641.147	4958.64
641.34	4807.09
641.534	4598.2
641.727	4555.19
641.92	4366.78
642.114	4143.55
642.307	4008.39
642.5	3764.68
642.694	3686.86
642.887	3520.97
643.08	3604.94
643.273	3455.44
643.467	3168.72
643.66	3035.6
643.853	2906.58
644.046	2863.57
644.239	2693.59
644.432	2531.8
644.626	2335.2
644.819	2460.12
645.012	2265.57
645.205	2390.49
645.398	2216.41
645.591	2030.05
645.784	2028
645.977	1835.49
646.17	1839.59
646.363	1802.72
646.556	1673.7
646.749	1540.58
646.942	1577.45
647.135	1536.49
647.328	1325.55
647.521	1376.75
647.714	1247.72
647.907	1401.32
648.099	1282.54
648.292	1264.11
648.485	1106.42
648.678	1159.66
648.871	989.68
649.064	1014.26
649.256	874.99
649.449	913.91
649.642	797.17
649.835	825.84
650.027	870.9
650.22	850.42
650.413	764.4
650.605	827.89
650.798	748.02
650.991	743.92
651.183	674.29
651.376	721.4
651.568	713.21
651.761	629.24
651.954	735.73
652.146	629.24
652.339	610.81
652.531	606.71
652.724	524.79
652.916	412.15
653.109	434.68
653.301	561.66
653.494	545.27
653.686	518.65
653.879	659.96
654.071	520.7
654.263	430.59
654.456	479.74
654.648	541.18
654.84	438.78
655.033	418.3
655.225	543.22
655.417	250.36
655.61	424.44
655.802	422.39
655.994	520.7
656.186	299.52
656.379	442.87
656.571	260.6
656.763	360.95
656.955	274.94
657.148	262.65
657.34	328.19
657.532	276.99
657.724	217.6
657.916	311.8
658.108	324.09
658.3	389.63
658.492	330.23
658.684	262.65
658.876	272.89
659.068	170.49
659.26	242.17
659.452	197.12
659.644	135.68
659.836	301.56
660.028	328.19
660.22	215.55
660.412	279.04
660.604	201.21
660.796	217.6
660.988	328.19
661.18	250.36
661.372	102.91
661.563	158.21
661.755	217.6
661.947	115.2
662.139	178.69
662.331	141.82
662.522	164.35
662.714	70.14
662.906	123.39
663.097	225.79
663.289	131.58
663.481	102.91
663.673	223.74
663.864	164.35
664.056	154.11
664.247	141.82
664.439	256.51
664.631	188.93
664.822	168.45
665.014	104.96
665.205	119.29
665.397	84.48
665.588	152.06
665.78	143.87
665.971	256.51
666.163	127.49
666.354	229.88
666.546	113.15
666.737	70.14
666.929	166.4
667.12	119.29
667.311	233.98
667.503	176.64
667.694	160.25
667.885	184.83
668.077	162.3
668.268	86.53
668.459	162.3
668.651	127.49
668.842	141.82
669.033	137.73
669.224	61.95
669.416	338.43
669.607	256.51
669.798	78.33
669.989	258.56
670.18	119.29
670.371	162.3
670.563	41.47
670.754	221.69
670.945	309.76
671.136	156.16
671.327	102.91
671.518	240.12
671.709	293.37
671.9	250.36
672.091	301.56
672.282	266.75
672.473	145.92
672.664	72.19
672.855	150.01
673.046	188.93
673.237	201.21
673.428	258.56
673.619	217.6
673.809	145.92
674	309.76
674.191	217.6
674.382	174.59
674.573	225.79
674.764	150.01
674.954	264.7
675.145	156.16
675.336	193.02
675.527	145.92
675.717	139.77
675.908	102.91
676.099	207.36
676.289	297.47
676.48	135.68
676.671	201.21
676.861	109.05
677.052	219.64
677.243	264.7
677.433	113.15
677.624	254.46
677.814	291.32
678.005	115.2
678.195	375.29
678.386	252.41
678.576	250.36
678.767	160.25
678.957	254.46
679.148	262.65
679.338	315.9
679.529	317.95
679.719	217.6
679.909	250.36
680.1	264.7
680.29	334.33
680.481	137.73
680.671	305.66
680.861	315.9
681.052	236.03
681.242	154.11
681.432	338.43
681.622	215.55
681.813	125.44
682.003	315.9
682.193	164.35
682.383	225.79
682.573	336.38
682.764	197.12
682.954	270.84
683.144	408.06
683.334	262.65
683.524	270.84
683.714	328.19
683.904	281.08
684.094	264.7
684.284	289.28
684.474	324.09
684.664	340.47
684.854	315.9
685.044	225.79
685.234	330.23
685.424	303.61
685.614	274.94
685.804	393.72
685.994	266.75
686.184	383.48
686.374	293.37
686.564	301.56
686.753	281.08
686.943	254.46
687.133	264.7
687.323	217.6
687.513	227.84
687.702	274.94
687.892	279.04
688.082	246.27
688.272	367.1
688.461	266.75
688.651	434.68
688.841	320
689.03	250.36
689.22	274.94
689.41	399.87
689.599	365.05
689.789	225.79
689.979	342.52
690.168	201.21
690.358	389.63
690.547	260.6
690.737	285.18
690.926	320
691.116	248.32
691.305	272.89
691.495	356.86
691.684	199.16
691.874	182.78
692.063	238.08
692.252	340.47
692.442	233.98
692.631	201.21
692.82	260.6
693.01	244.22
693.199	244.22
693.388	274.94
693.578	260.6
693.767	309.76
693.956	377.34
694.146	289.28
694.335	350.71
694.524	283.13
694.713	346.62
694.902	250.36
695.092	299.52
695.281	295.42
695.47	291.32
695.659	158.21
695.848	315.9
696.037	195.07
696.226	377.34
696.415	201.21
696.604	344.57
696.793	324.09
696.982	186.88
697.171	348.67
697.36	256.51
697.549	231.93
697.738	139.77
697.927	238.08
698.116	209.4
698.305	287.23
698.494	217.6
698.683	164.35
698.872	440.83
699.061	252.41
699.25	270.84
699.438	262.65
699.627	219.64
699.816	385.53
700.005	131.58
700.193	186.88
700.382	242.17
700.571	274.94
700.76	352.76
700.948	301.56
701.137	287.23
701.326	260.6
701.514	172.54
701.703	340.47
701.892	205.31
702.08	354.81
702.269	203.26
702.457	184.83
702.646	238.08
702.834	213.5
703.023	268.8
703.212	307.71
703.4	219.64
703.589	227.84
703.777	219.64
703.965	170.49
704.154	195.07
704.342	139.77
704.531	102.91
704.719	217.6
704.907	365.05
705.096	111.1
705.284	176.64
705.472	305.66
705.661	260.6
705.849	287.23
706.037	287.23
706.226	193.02
706.414	297.47
706.602	209.4
706.79	264.7
706.979	145.92
707.167	307.71
707.355	125.44
707.543	285.18
707.731	258.56
707.919	240.12
708.107	215.55
708.296	119.29
708.484	135.68
708.672	225.79
708.86	274.94
709.048	276.99
709.236	162.3
709.424	346.62
709.612	223.74
709.8	233.98
709.988	227.84
710.176	334.33
710.364	311.8
710.551	219.64
710.739	266.75
710.927	188.93
711.115	221.69
711.303	244.22
711.491	281.08
711.679	176.64
711.866	336.38
712.054	209.4
712.242	238.08
712.43	295.42
712.617	205.31
712.805	346.62
712.993	264.7
713.181	160.25
713.368	270.84
713.556	274.94
713.744	125.44
713.931	453.11
714.119	236.03
714.306	193.02
714.494	174.59
714.682	256.51
714.869	166.4
715.057	227.84
715.244	170.49
715.432	285.18
715.619	219.64
715.807	248.32
715.994	326.14
716.182	248.32
716.369	311.8
716.556	276.99
716.744	197.12
716.931	215.55
717.119	303.61
717.306	283.13
717.493	272.89
717.681	197.12
717.868	197.12
718.055	244.22
718.242	180.73
718.43	324.09
718.617	414.2
718.804	227.84
718.991	328.19
719.179	291.32
719.366	291.32
719.553	287.23
719.74	229.88
719.927	270.84
720.114	303.61
720.301	168.45
720.488	223.74
720.676	225.79
720.863	307.71
721.05	434.68
721.237	340.47
721.424	309.76
721.611	279.04
721.798	223.74
721.985	221.69
722.172	215.55
722.358	297.47
722.545	285.18
722.732	391.67
722.919	344.57
723.106	301.56
723.293	274.94
723.48	371.19
723.667	260.6
723.853	346.62
724.04	346.62
724.227	315.9
724.414	166.4
724.6	293.37
724.787	379.39
724.974	399.87
725.161	309.76
725.347	207.36
725.534	262.65
725.72	328.19
725.907	365.05
726.094	332.28
726.28	283.13
726.467	360.95
726.653	291.32
726.84	395.77
727.027	477.69
727.213	291.32
727.4	360.95
727.586	317.95
727.773	326.14
727.959	360.95
728.145	303.61
728.332	369.15
728.518	256.51
728.705	487.93
728.891	381.43
729.077	385.53
729.264	283.13
729.45	283.13
729.636	403.96
729.823	360.95
730.009	432.63
730.195	397.82
730.382	412.15
730.568	299.52
730.754	438.78
730.94	373.24
731.126	399.87
731.313	360.95
731.499	369.15
731.685	336.38
731.871	434.68
732.057	401.91
732.243	485.88
732.429	434.68
732.615	545.27
732.801	477.69
732.987	363
733.173	408.06
733.359	272.89
733.545	387.58
733.731	317.95
733.917	393.72
734.103	395.77
734.289	481.78
734.475	293.37
734.661	426.49
734.847	414.2
735.033	336.38
735.219	397.82
735.404	365.05
735.59	453.11
735.776	375.29
735.962	455.16
736.148	369.15
736.333	492.02
736.519	377.34
736.705	406.01
736.89	354.81
737.076	422.39
737.262	248.32
737.447	307.71
737.633	399.87
737.819	360.95
738.004	363
738.19	541.18
738.375	385.53
738.561	500.22
738.747	403.96
738.932	336.38
739.118	598.52
739.303	467.45
739.489	446.97
739.674	352.76
739.859	356.86
740.045	444.92
740.23	342.52
740.416	158.21
740.601	377.34
740.786	418.3
740.972	342.52
741.157	309.76
741.342	274.94
741.528	363
741.713	524.79
741.898	369.15
742.084	381.43
742.269	363
742.454	455.16
742.639	459.26
742.824	424.44
743.01	494.07
743.195	463.35
743.38	385.53
743.565	375.29
743.75	406.01
743.935	457.21
744.12	496.12
744.305	311.8
744.49	334.33
744.675	385.53
744.86	356.86
745.045	475.64
745.23	375.29
745.415	358.91
745.6	473.59
745.785	346.62
745.97	442.87
746.155	434.68
746.34	489.98
746.525	418.3
746.71	463.35
746.895	367.1
747.079	264.7
747.264	401.91
747.449	395.77
747.634	422.39
747.819	395.77
748.003	340.47
748.188	313.85
748.373	410.11
748.557	352.76
748.742	358.91
748.927	401.91
749.111	334.33
749.296	367.1
749.481	406.01
749.665	397.82
749.85	252.41
750.034	385.53
750.219	403.96
750.404	299.52
750.588	385.53
750.773	279.04
750.957	328.19
751.141	217.6
751.326	356.86
751.51	254.46
751.695	334.33
751.879	346.62
752.064	461.3
752.248	297.47
752.432	410.11
752.617	389.63
752.801	438.78
752.985	170.49
753.17	379.39
753.354	317.95
753.538	301.56
753.722	215.55
753.907	250.36
754.091	213.5
754.275	387.58
754.459	176.64
754.643	246.27
754.828	320
755.012	389.63
755.196	188.93
755.38	238.08
755.564	283.13
755.748	238.08
755.932	363
756.116	360.95
756.3	268.8
756.484	193.02
756.668	291.32
756.852	233.98
757.036	201.21
757.22	252.41
757.404	227.84
757.588	231.93
757.772	360.95
757.956	231.93
758.14	356.86
758.323	211.45
758.507	250.36
758.691	184.83
758.875	256.51
759.059	385.53
759.242	180.73
759.426	201.21
759.61	297.47
759.794	147.97
759.977	324.09
760.161	457.21
760.345	377.34
760.528	338.43
760.712	238.08
760.895	371.19
761.079	231.93
761.263	176.64
761.446	203.26
761.63	205.31
761.813	297.47
761.997	174.59
762.18	217.6
762.364	270.84
762.547	166.4
762.731	262.65
762.914	188.93
763.098	193.02
763.281	227.84
763.464	209.4
763.648	209.4
763.831	176.64
764.015	250.36
764.198	266.75
764.381	229.88
764.564	139.77
764.748	229.88
764.931	266.75
765.114	242.17
765.297	223.74
765.481	190.97
765.664	164.35
765.847	127.49
766.03	326.14
766.213	111.1
766.397	84.48
766.58	25.09
766.763	223.74
766.946	168.45
767.129	207.36
767.312	160.25
767.495	195.07
767.678	152.06
767.861	92.67
768.044	207.36
768.227	188.93
768.41	115.2
768.593	242.17
768.776	190.97
768.959	100.86
769.142	203.26
769.324	199.16
769.507	111.1
769.69	111.1
769.873	207.36
770.056	322.04
770.239	225.79
770.421	244.22
770.604	221.69
770.787	98.81
770.97	176.64
771.152	137.73
771.335	158.21
771.518	10.75
771.7	264.7
771.883	250.36
772.066	68.09
772.248	86.53
772.431	186.88
772.613	217.6
772.796	166.4
772.978	164.35
773.161	272.89
773.343	74.24
773.526	25.09
773.708	57.86
773.891	23.04
774.073	80.38
774.256	70.14
774.438	213.5
774.621	143.87
774.803	147.97
774.985	96.77
775.168	223.74
775.35	125.44
775.532	150.01
775.715	64
775.897	160.25
776.079	117.25
776.261	164.35
776.444	162.3
776.626	156.16
776.808	82.43
776.99	37.38
777.173	133.63
777.355	76.29
777.537	172.54
777.719	92.67
777.901	78.33
778.083	57.86
778.265	-62.98
778.447	86.53
778.629	59.9
778.811	119.29
778.993	176.64
779.175	135.68
779.357	98.81
779.539	27.14
779.721	102.91
779.903	174.59
780.085	176.64
780.267	96.77
780.449	74.24
780.631	139.77
780.812	107.01
780.994	66.05
781.176	117.25
781.358	102.91
781.54	94.72
781.721	98.81
781.903	129.53
782.085	82.43
782.267	201.21
782.448	-13.82
782.63	92.67
782.812	92.67
782.993	123.39
783.175	145.92
783.357	0.51
783.538	84.48
783.72	41.47
783.901	4.61
784.083	76.29
784.264	74.24
784.446	-30.21
784.627	-50.69
784.809	55.81
784.99	20.99
785.172	107.01
785.353	66.05
785.535	176.64
785.716	-3.58
785.897	-17.92
786.079	-13.82
786.26	78.33
786.441	127.49
786.623	-85.5
786.804	53.76
786.985	37.38
787.167	115.2
787.348	39.42
787.529	107.01
787.71	209.4
787.891	70.14
788.073	37.38
788.254	-13.82
788.435	221.69
788.616	115.2
788.797	-3.58
788.978	68.09
789.159	6.66
789.34	84.48
789.522	45.57
789.703	6.66
789.884	88.57
790.065	49.66
790.246	236.03
790.427	12.8
790.607	143.87
790.788	127.49
790.969	-36.35
791.15	2.56
791.331	18.94
791.512	0.51
791.693	-42.5
791.874	88.57
792.054	221.69
792.235	180.73
792.416	41.47
792.597	4.61
792.778	111.1
792.958	84.48
793.139	113.15
793.32	47.62
793.5	-26.11
793.681	154.11
793.862	111.1
794.042	29.18
794.223	12.8
794.404	-22.02
794.584	-58.88
794.765	64
794.945	53.76
795.126	78.33
795.306	84.48
795.487	90.62
795.667	47.62
795.848	59.9
796.028	111.1
796.209	-1.54
796.389	96.77
796.57	-40.45
796.75	-101.89
796.93	96.77
797.111	-62.98
797.291	-11.78
797.471	158.21
797.652	2.56
797.832	-44.54
798.012	53.76
798.192	-34.3
798.373	-50.69
798.553	-50.69
798.733	94.72
798.913	-7.68
799.093	14.85
799.274	100.86
799.454	49.66
799.634	45.57
799.814	55.81
799.994	84.48
800.174	49.66
800.354	143.87
800.534	-77.31
800.714	100.86
800.894	-69.12
801.074	-91.65
801.254	-38.4
801.434	33.28
801.614	55.81
801.794	-36.35
801.974	1677.8
802.154	-5.63
802.334	47.62
802.514	29.18
802.693	41.47
802.873	31.23
803.053	123.39
803.233	49.66
803.413	23.04
803.592	25.09
803.772	-54.78
803.952	20.99
804.131	-9.73
804.311	35.33
804.491	113.15
804.67	-17.92
804.85	-91.65
805.03	25.09
805.209	4.61
805.389	25.09
805.568	72.19
805.748	31.23
805.928	20.99
806.107	6.66
806.287	104.96
806.466	104.96
806.646	14.85
806.825	4.61
807.004	49.66
807.184	147.97
807.363	139.77
807.543	-1.54
807.722	18.94
807.901	90.62
808.081	92.67
808.26	-77.31
808.439	-1.54
808.619	125.44
808.798	-83.45
808.977	86.53
809.156	117.25
809.336	127.49
809.515	90.62
809.694	-65.02
809.873	18.94
810.052	33.28
810.231	176.64
810.411	96.77
810.59	113.15
810.769	104.96
810.948	84.48
811.127	-87.55
811.306	6.66
811.485	115.2
811.664	43.52
811.843	47.62
812.022	-73.21
812.201	-30.21
812.38	41.47
812.559	-15.87
812.737	76.29
812.916	-87.55
813.095	8.7
813.274	74.24
813.453	37.38
813.632	70.14
813.811	6.66
813.989	-118.27
814.168	33.28
814.347	-62.98
814.526	-48.64
814.704	131.58
814.883	51.71
815.062	-65.02
815.24	25.09
815.419	-28.16
815.598	59.9
815.776	-58.88
815.955	80.38
816.133	-87.55
816.312	59.9
816.49	41.47
816.669	49.66
816.847	-1.54
817.026	64
817.204	-13.82
817.383	-58.88
817.561	-93.69
817.74	107.01
817.918	84.48
818.097	-22.02
818.275	-9.73
818.453	80.38
818.632	12.8
818.81	12.8
818.988	-5.63
819.167	-32.26
819.345	35.33
819.523	-38.4
819.701	111.1
819.879	90.62
820.058	-9.73
820.236	64
820.414	41.47
820.592	-32.26
820.77	33.28
820.948	-71.17
821.127	18.94
821.305	4.61
821.483	-58.88
821.661	158.21
821.839	-38.4
822.017	78.33
822.195	25.09
822.373	86.53
822.551	14.85
822.729	113.15
822.907	6.66
823.085	88.57
823.262	84.48
823.44	16.9
823.618	-60.93
823.796	29.18
823.974	76.29
824.152	18.94
824.329	2.56
824.507	57.86
824.685	47.62
824.863	-40.45
825.04	-3.58
825.218	29.18
825.396	25.09
825.574	39.42
825.751	8.7
825.929	94.72
826.107	-146.94
826.284	-5.63
826.462	37.38
826.639	-40.45
826.817	-7.68
826.994	64
827.172	-79.36
827.349	133.63
827.527	29.18
827.704	20.99
827.882	-7.68
828.059	12.8
828.237	-83.45
828.414	147.97
828.591	-134.65
828.769	41.47
828.946	23.04
829.124	35.33
829.301	82.43
829.478	-32.26
829.655	8.7
829.833	-46.59
830.01	-85.5
830.187	88.57
830.364	39.42
830.542	20.99
830.719	174.59
830.896	86.53
831.073	88.57
831.25	49.66
831.427	-11.78
831.604	37.38
831.782	-71.17
831.959	61.95
832.136	-48.64
832.313	33.28
832.49	-56.83
832.667	35.33
832.844	-69.12
833.021	129.53
833.198	12.8
833.374	-56.83
833.551	133.63
833.728	-9.73
833.905	72.19
834.082	-36.35
834.259	74.24
834.436	86.53
834.612	-79.36
834.789	92.67
834.966	-3.58
835.143	4.61
835.319	-17.92
835.496	49.66
835.673	80.38
835.85	88.57
836.026	35.33
836.203	45.57
836.38	74.24
836.556	20.99
836.733	-40.45
836.909	119.29
837.086	6.66
837.262	-15.87
837.439	-1.54
837.616	-60.93
837.792	-19.97
837.968	59.9
838.145	-83.45
838.321	23.04
838.498	45.57
838.674	68.09
838.851	-15.87
839.027	-9.73
839.203	-7.68
839.38	43.52
839.556	-36.35
839.732	70.14
839.909	-9.73
840.085	76.29
840.261	-105.98
840.437	53.76
840.614	-34.3
840.79	16.9
840.966	35.33
841.142	49.66
841.318	12.8
841.494	-40.45
841.671	31.23
841.847	-73.21
842.023	-71.17
842.199	-7.68
842.375	176.64
842.551	-157.18
842.727	-79.36
842.903	158.21
843.079	-69.12
843.255	37.38
843.431	-36.35
843.607	72.19
843.783	-114.17
843.959	57.86
844.134	-52.74
844.31	96.77
844.486	0.51
844.662	-60.93
844.838	-24.06
845.013	68.09
845.189	72.19
845.365	6.66
845.541	119.29
845.716	51.71
845.892	61.95
846.068	8.7
846.244	-32.26
846.419	90.62
846.595	-28.16
846.77	-40.45
846.946	102.91
847.122	39.42
847.297	-110.08
847.473	66.05
847.648	-40.45
847.824	57.86
847.999	-153.09
848.175	-65.02
848.35	66.05
848.526	53.76
848.701	55.81
848.876	180.73
849.052	107.01
849.227	31.23
849.403	4.61
849.578	-11.78
849.753	66.05
849.929	115.2
850.104	-69.12
850.279	-32.26
850.454	29.18
850.63	74.24
850.805	4.61
850.98	-34.3
851.155	-15.87
851.33	104.96
851.505	-138.75
851.681	152.06
851.856	-3.58
852.031	33.28
852.206	29.18
852.381	-7.68
852.556	-38.4
852.731	25.09
852.906	100.86
853.081	43.52
853.256	131.58
853.431	10.75
853.606	-58.88
853.781	-28.16
853.956	-87.55
854.131	-19.97
854.305	-118.27
854.48	82.43
854.655	-48.64
854.83	-26.11
855.005	-26.11
855.18	-38.4
855.354	14.85
855.529	-7.68
855.704	39.42
855.879	102.91
856.053	-34.3
856.228	-24.06
856.403	-44.54
856.577	59.9
856.752	-79.36
856.926	6.66
857.101	27.14
857.276	-26.11
857.45	12.8
857.625	121.34
857.799	33.28
857.974	68.09
858.148	-120.32
858.323	55.81
858.497	-9.73
858.672	-1.54
858.846	2.56
859.02	119.29
859.195	-44.54
859.369	27.14
859.543	35.33
859.718	47.62
859.892	61.95
860.066	-19.97
860.241	-36.35
860.415	-22.02
860.589	-3.58
860.763	-7.68
860.938	23.04
861.112	-36.35
861.286	-9.73
861.46	16.9
861.634	16.9
861.808	131.58
861.982	-112.13
862.157	-58.88
862.331	-99.84
862.505	2.56
862.679	-34.3
862.853	-36.35
863.027	-116.22
863.201	74.24
863.375	-9.73
863.549	33.28
863.722	78.33
863.896	25.09
864.07	-46.59
864.244	14.85
864.418	20.99
864.592	18.94
864.766	-11.78
864.939	-32.26
865.113	-44.54
865.287	107.01
865.461	-28.16
865.634	-19.97
865.808	-36.35
865.982	-75.26
866.156	-87.55
866.329	-58.88
866.503	4.61
866.676	10.75
866.85	23.04
867.024	-93.69
867.197	4.61
867.371	70.14
867.544	-5.63
867.718	-67.07
867.891	35.33
868.065	-50.69
868.238	10.75
868.412	90.62
868.585	-17.92
868.759	-40.45
868.932	10.75
869.105	-48.64
869.279	51.71
869.452	-138.75
869.625	-3.58
869.799	-17.92
869.972	-17.92
870.145	-58.88
870.319	158.21
870.492	-54.78
870.665	20.99
870.838	-71.17
871.011	-105.98
871.185	-28.16
871.358	8.7
871.531	6.66
871.704	2.56
871.877	-60.93
872.05	-22.02
872.223	-77.31
872.396	61.95
872.569	20.99
872.742	-34.3
872.915	4.61
873.088	-19.97
873.261	-97.79
873.434	39.42
873.607	-42.5
873.78	184.83
873.953	-34.3
874.126	53.76
874.299	53.76
874.471	-1.54
874.644	-28.16
874.817	45.57
874.99	127.49
875.163	14.85
875.335	-13.82
875.508	68.09
875.681	-1.54
875.853	20.99
876.026	0.51
876.199	109.05
876.371	37.38
876.544	-13.82
876.717	23.04
876.889	-15.87
877.062	35.33
877.234	-97.79
877.407	4.61
877.579	4.61
877.752	-22.02
877.924	70.14
878.097	-7.68
878.269	-69.12
878.442	70.14
878.614	84.48
878.786	-38.4
878.959	-1.54
879.131	68.09
879.303	-120.32
879.476	-34.3
879.648	72.19
879.82	4.61
879.993	-52.74
880.165	-22.02
880.337	-69.12
880.509	10.75
880.681	-36.35
880.854	-105.98
881.026	12.8
881.198	170.49
881.37	10.75
881.542	16.9
881.714	-30.21
881.886	45.57
882.058	-38.4
882.23	-30.21
882.402	39.42
882.574	16.9
882.746	111.1
882.918	137.73
883.09	51.71
883.262	18.94
883.434	-15.87
883.606	-112.13
883.778	35.33
883.95	147.97
884.122	23.04
884.293	74.24
884.465	-19.97
884.637	37.38
884.809	-56.83
884.98	37.38
885.152	53.76
885.324	59.9
885.496	-65.02
885.667	-105.98
885.839	16.9
886.011	86.53
886.182	-58.88
886.354	-3.58
886.525	43.52
886.697	-50.69
886.869	-34.3
887.04	-17.92
887.212	186.88
887.383	100.86
887.555	6.66
887.726	14.85
887.897	-26.11
888.069	31.23
888.24	102.91
888.412	41.47
888.583	18.94
888.754	16.9
888.926	-46.59
889.097	-42.5
889.268	-58.88
889.44	-30.21
889.611	-36.35
889.782	-77.31
889.953	-103.93
890.125	168.45
890.296	-67.07
890.467	45.57
890.638	6.66
890.809	14.85
890.98	-46.59
891.151	-62.98
891.323	78.33
891.494	-24.06
891.665	20.99
891.836	-5.63
892.007	10.75
892.178	23.04
892.349	33.28
892.52	-134.65
892.691	-28.16
892.862	-60.93
893.032	-11.78
893.203	-60.93
893.374	-40.45
893.545	-3.58
893.716	-56.83
893.887	172.54
894.057	12.8
894.228	-30.21
894.399	-15.87
894.57	55.81
894.74	18.94
894.911	39.42
895.082	-13.82
895.253	-81.41
895.423	-13.82
895.594	78.33
895.764	-5.63
895.935	-1.54
896.106	2.56
896.276	-73.21
896.447	66.05
896.617	-105.98
896.788	-36.35
896.958	-38.4
897.129	-62.98
897.299	-60.93
897.47	88.57
897.64	80.38
897.81	-46.59
897.981	-38.4
898.151	-138.75
898.322	-1.54
898.492	102.91
898.662	-71.17
898.832	-3.58
899.003	-71.17
899.173	55.81
899.343	-52.74
899.513	-75.26
