Data from USB4F104151__13__09-25-08-424.txt Node

Date: Wed Feb 26 09:25:08 EST 2025
User: louis
Spectrometer: USB4F10415
Trigger mode: 4
Integration Time (sec): 1.000000E-1
Scans to average: 1
Electric dark correction enabled: true
Nonlinearity correction enabled: false
Boxcar width: 0
XAxis mode: Wavelengths
Number of Pixels in Spectrum: 3648
>>>>>Begin Spectral Data<<<<<
178.204	-314.02
178.424	-314.02
178.644	-314.02
178.864	-397.99
179.084	-352.93
179.304	-47.79
179.524	38.23
179.744	15.7
179.964	-17.07
180.184	56.66
180.404	15.7
180.624	-25.26
180.844	-68.27
181.064	-47.79
181.283	79.19
181.503	-43.69
181.723	44.37
181.943	-166.57
182.163	116.05
182.383	-39.59
182.602	62.8
182.822	124.24
183.042	32.08
183.262	-55.98
183.482	-58.03
183.701	34.13
183.921	-8.87
184.141	-90.79
184.361	19.8
184.58	42.32
184.8	3.41
185.02	-23.21
185.239	103.76
185.459	48.47
185.679	79.19
185.898	-53.93
186.118	15.7
186.338	21.84
186.557	79.19
186.777	-39.59
186.997	-92.84
187.216	-33.45
187.436	97.62
187.655	75.09
187.875	54.61
188.095	42.32
188.314	154.96
188.534	138.58
188.753	-23.21
188.973	124.24
189.192	73.04
189.412	-45.74
189.631	54.61
189.851	-17.07
190.07	136.53
190.29	-86.7
190.509	-49.83
190.729	1.37
190.948	25.94
191.168	210.26
191.387	54.61
191.607	-19.11
191.826	122.2
192.045	21.84
192.265	-15.02
192.484	38.23
192.704	7.51
192.923	-101.03
193.142	191.83
193.362	83.28
193.581	54.61
193.8	89.43
194.02	124.24
194.239	9.56
194.458	157.01
194.678	54.61
194.897	-66.22
195.116	30.04
195.335	1.37
195.555	64.85
195.774	30.04
195.993	66.9
196.212	48.47
196.432	-17.07
196.651	25.94
196.87	27.99
197.089	148.82
197.308	52.56
197.528	75.09
197.747	-31.4
197.966	48.47
198.185	144.72
198.404	-58.03
198.623	44.37
198.842	81.24
199.062	95.57
199.281	91.48
199.5	-17.07
199.719	58.71
199.938	66.9
200.157	56.66
200.376	46.42
200.595	34.13
200.814	11.61
201.033	-66.22
201.252	187.73
201.471	-2.73
201.69	126.29
201.909	107.86
202.128	52.56
202.347	7.51
202.566	9.56
202.785	-76.46
203.004	9.56
203.223	238.93
203.442	99.67
203.661	-51.88
203.879	-6.83
204.098	25.94
204.317	-23.21
204.536	73.04
204.755	111.96
204.974	58.71
205.193	25.94
205.411	71
205.63	13.65
205.849	42.32
206.068	-6.83
206.287	-10.92
206.505	142.68
206.724	38.23
206.943	-33.45
207.162	-39.59
207.381	66.9
207.599	-49.83
207.818	50.52
208.037	-58.03
208.255	5.46
208.474	60.76
208.693	66.9
208.911	1.37
209.13	13.65
209.349	-12.97
209.567	79.19
209.786	95.57
210.005	7.51
210.223	-25.26
210.442	-45.74
210.661	1.37
210.879	105.81
211.098	-19.11
211.316	50.52
211.535	48.47
211.753	75.09
211.972	83.28
212.191	-98.99
212.409	36.18
212.628	114
212.846	-10.92
213.065	19.8
213.283	64.85
213.502	-37.55
213.72	-66.22
213.938	9.56
214.157	-21.16
214.375	64.85
214.594	-17.07
214.812	93.52
215.031	25.94
215.249	7.51
215.467	36.18
215.686	-55.98
215.904	5.46
216.122	-10.92
216.341	25.94
216.559	30.04
216.778	107.86
216.996	81.24
217.214	13.65
217.432	81.24
217.651	-109.23
217.869	-8.87
218.087	-8.87
218.306	7.51
218.524	83.28
218.742	21.84
218.96	79.19
219.179	-39.59
219.397	19.8
219.615	197.97
219.833	126.29
220.051	3.41
220.27	30.04
220.488	71
220.706	21.84
220.924	-47.79
221.142	-2.73
221.36	-17.07
221.578	-86.7
221.796	13.65
222.015	38.23
222.233	54.61
222.451	111.96
222.669	-33.45
222.887	-2.73
223.105	-51.88
223.323	23.89
223.541	-101.03
223.759	54.61
223.977	30.04
224.195	163.15
224.413	42.32
224.631	66.9
224.849	-29.35
225.067	202.07
225.285	-76.46
225.503	23.89
225.721	-101.03
225.939	60.76
226.157	-8.87
226.375	185.68
226.592	-76.46
226.81	15.7
227.028	50.52
227.246	114
227.464	42.32
227.682	83.28
227.9	103.76
228.117	124.24
228.335	40.28
228.553	11.61
228.771	25.94
228.989	54.61
229.206	111.96
229.424	-2.73
229.642	27.99
229.86	7.51
230.077	36.18
230.295	36.18
230.513	103.76
230.731	111.96
230.948	73.04
231.166	25.94
231.384	-12.97
231.601	-49.83
231.819	114
232.037	46.42
232.254	-43.69
232.472	21.84
232.689	7.51
232.907	46.42
233.125	46.42
233.342	3.41
233.56	25.94
233.777	-15.02
233.995	58.71
234.213	140.63
234.43	81.24
234.648	21.84
234.865	40.28
235.083	30.04
235.3	-25.26
235.518	97.62
235.735	132.44
235.953	105.81
236.17	23.89
236.388	1.37
236.605	21.84
236.822	-6.83
237.04	150.87
237.257	-17.07
237.475	-25.26
237.692	77.14
237.909	66.9
238.127	-37.55
238.344	89.43
238.562	54.61
238.779	-60.07
238.996	-6.83
239.214	58.71
239.431	87.38
239.648	-6.83
239.865	40.28
240.083	-58.03
240.3	-76.46
240.517	-37.55
240.735	9.56
240.952	87.38
241.169	-0.68
241.386	75.09
241.603	7.51
241.821	-74.41
242.038	58.71
242.255	79.19
242.472	-60.07
242.689	75.09
242.907	99.67
243.124	38.23
243.341	-15.02
243.558	-55.98
243.775	-25.26
243.992	-74.41
244.209	87.38
244.426	87.38
244.643	36.18
244.86	-41.64
245.078	9.56
245.295	71
245.512	23.89
245.729	17.75
245.946	71
246.163	52.56
246.38	-68.27
246.597	17.75
246.814	64.85
247.031	-80.55
247.248	17.75
247.464	140.63
247.681	81.24
247.898	36.18
248.115	132.44
248.332	-19.11
248.549	124.24
248.766	140.63
248.983	58.71
249.2	116.05
249.417	99.67
249.633	79.19
249.85	66.9
250.067	58.71
250.284	58.71
250.501	56.66
250.717	34.13
250.934	62.8
251.151	-58.03
251.368	30.04
251.585	11.61
251.801	-27.31
252.018	-76.46
252.235	9.56
252.451	-19.11
252.668	3.41
252.885	40.28
253.102	-47.79
253.318	-6.83
253.535	46.42
253.752	21.84
253.968	-60.07
254.185	-53.93
254.401	-6.83
254.618	30.04
254.835	-47.79
255.051	56.66
255.268	73.04
255.484	1.37
255.701	-51.88
255.917	73.04
256.134	-25.26
256.351	23.89
256.567	-23.21
256.784	5.46
257	-8.87
257.217	21.84
257.433	19.8
257.65	48.47
257.866	136.53
258.082	-15.02
258.299	-68.27
258.515	-15.02
258.732	-6.83
258.948	-47.79
259.165	38.23
259.381	-125.61
259.597	19.8
259.814	25.94
260.03	-90.79
260.246	25.94
260.463	101.72
260.679	34.13
260.895	25.94
261.112	58.71
261.328	-43.69
261.544	-8.87
261.761	167.25
261.977	-33.45
262.193	-23.21
262.409	5.46
262.626	-25.26
262.842	13.65
263.058	-31.4
263.274	118.1
263.49	79.19
263.707	36.18
263.923	93.52
264.139	-45.74
264.355	46.42
264.571	5.46
264.787	89.43
265.004	62.8
265.22	30.04
265.436	-43.69
265.652	9.56
265.868	50.52
266.084	-72.36
266.3	48.47
266.516	-51.88
266.732	11.61
266.948	81.24
267.164	-49.83
267.38	101.72
267.596	-80.55
267.812	212.31
268.028	52.56
268.244	36.18
268.46	-43.69
268.676	7.51
268.892	58.71
269.108	-15.02
269.324	-10.92
269.54	23.89
269.756	93.52
269.972	-88.75
270.188	-15.02
270.403	-72.36
270.619	73.04
270.835	62.8
271.051	-2.73
271.267	13.65
271.483	-2.73
271.698	30.04
271.914	30.04
272.13	13.65
272.346	-17.07
272.562	120.15
272.777	62.8
272.993	75.09
273.209	-15.02
273.425	91.48
273.64	-27.31
273.856	58.71
274.072	-43.69
274.287	-37.55
274.503	5.46
274.719	38.23
274.934	19.8
275.15	-103.08
275.366	-8.87
275.581	-72.36
275.797	27.99
276.012	19.8
276.228	-2.73
276.444	-41.64
276.659	77.14
276.875	-74.41
277.09	-39.59
277.306	46.42
277.521	48.47
277.737	15.7
277.952	17.75
278.168	1.37
278.383	128.34
278.599	27.99
278.814	66.9
279.03	15.7
279.245	71
279.461	-2.73
279.676	83.28
279.892	-78.51
280.107	-84.65
280.322	19.8
280.538	34.13
280.753	-25.26
280.969	83.28
281.184	64.85
281.399	140.63
281.615	-55.98
281.83	38.23
282.045	-58.03
282.26	-4.78
282.476	107.86
282.691	25.94
282.906	7.51
283.122	66.9
283.337	-10.92
283.552	9.56
283.767	17.75
283.983	34.13
284.198	-88.75
284.413	25.94
284.628	-45.74
284.843	-23.21
285.058	40.28
285.274	62.8
285.489	-29.35
285.704	11.61
285.919	1.37
286.134	27.99
286.349	5.46
286.564	-19.11
286.779	111.96
286.995	-43.69
287.21	-41.64
287.425	27.99
287.64	-49.83
287.855	95.57
288.07	-15.02
288.285	21.84
288.5	56.66
288.715	66.9
288.93	-43.69
289.145	-39.59
289.36	42.32
289.575	-23.21
289.79	71
290.004	-47.79
290.219	40.28
290.434	-12.97
290.649	-45.74
290.864	9.56
291.079	-6.83
291.294	-21.16
291.509	-27.31
291.724	-35.5
291.938	13.65
292.153	71
292.368	-31.4
292.583	21.84
292.798	38.23
293.012	-6.83
293.227	89.43
293.442	-6.83
293.657	130.39
293.871	118.1
294.086	-55.98
294.301	91.48
294.516	-4.78
294.73	105.81
294.945	-41.64
295.16	83.28
295.374	171.35
295.589	21.84
295.804	3.41
296.018	27.99
296.233	68.95
296.447	66.9
296.662	38.23
296.877	83.28
297.091	27.99
297.306	-29.35
297.52	-0.68
297.735	40.28
297.949	27.99
298.164	75.09
298.378	48.47
298.593	-8.87
298.807	17.75
299.022	-10.92
299.236	109.91
299.451	46.42
299.665	54.61
299.88	-31.4
300.094	107.86
300.309	7.51
300.523	-23.21
300.737	-76.46
300.952	66.9
301.166	87.38
301.381	-2.73
301.595	-39.59
301.809	34.13
302.024	27.99
302.238	-51.88
302.452	46.42
302.667	-17.07
302.881	87.38
303.095	114
303.309	46.42
303.524	40.28
303.738	-6.83
303.952	-10.92
304.166	9.56
304.381	-92.84
304.595	48.47
304.809	-15.02
305.023	-51.88
305.237	-23.21
305.452	13.65
305.666	58.71
305.88	73.04
306.094	75.09
306.308	50.52
306.522	34.13
306.736	34.13
306.95	46.42
307.164	-96.94
307.379	48.47
307.593	128.34
307.807	11.61
308.021	66.9
308.235	68.95
308.449	-31.4
308.663	48.47
308.877	150.87
309.091	11.61
309.305	-17.07
309.519	-31.4
309.733	83.28
309.947	-76.46
310.161	54.61
310.374	15.7
310.588	60.76
310.802	-8.87
311.016	48.47
311.23	89.43
311.444	38.23
311.658	23.89
311.872	54.61
312.085	99.67
312.299	40.28
312.513	83.28
312.727	9.56
312.941	-19.11
313.154	-17.07
313.368	75.09
313.582	66.9
313.796	58.71
314.009	-35.5
314.223	34.13
314.437	48.47
314.651	34.13
314.864	13.65
315.078	-6.83
315.292	-72.36
315.505	-66.22
315.719	54.61
315.933	95.57
316.146	-86.7
316.36	9.56
316.573	87.38
316.787	97.62
317.001	3.41
317.214	-35.5
317.428	13.65
317.641	7.51
317.855	34.13
318.068	19.8
318.282	42.32
318.495	157.01
318.709	-25.26
318.922	-0.68
319.136	138.58
319.349	38.23
319.563	38.23
319.776	17.75
319.99	-55.98
320.203	13.65
320.417	15.7
320.63	44.37
320.843	173.39
321.057	66.9
321.27	40.28
321.483	56.66
321.697	167.25
321.91	75.09
322.124	-88.75
322.337	56.66
322.55	-113.32
322.763	48.47
322.977	17.75
323.19	-66.22
323.403	50.52
323.617	42.32
323.83	50.52
324.043	32.08
324.256	-6.83
324.469	-31.4
324.683	30.04
324.896	75.09
325.109	-25.26
325.322	-55.98
325.535	5.46
325.748	89.43
325.962	23.89
326.175	-19.11
326.388	83.28
326.601	89.43
326.814	42.32
327.027	60.76
327.24	120.15
327.453	-64.17
327.666	56.66
327.879	50.52
328.092	38.23
328.305	-15.02
328.518	-19.11
328.731	-76.46
328.944	13.65
329.157	66.9
329.37	-4.78
329.583	114
329.796	89.43
330.009	-109.23
330.222	87.38
330.435	46.42
330.648	-6.83
330.861	83.28
331.073	40.28
331.286	-0.68
331.499	-29.35
331.712	-39.59
331.925	3.41
332.138	-27.31
332.35	60.76
332.563	-39.59
332.776	66.9
332.989	36.18
333.202	56.66
333.414	-0.68
333.627	62.8
333.84	3.41
334.053	32.08
334.265	17.75
334.478	1.37
334.691	5.46
334.903	48.47
335.116	-2.73
335.329	58.71
335.541	11.61
335.754	103.76
335.966	-31.4
336.179	23.89
336.392	89.43
336.604	38.23
336.817	79.19
337.029	58.71
337.242	-6.83
337.454	-4.78
337.667	11.61
337.88	122.2
338.092	93.52
338.305	124.24
338.517	-23.21
338.729	95.57
338.942	114
339.154	-12.97
339.367	-58.03
339.579	-10.92
339.792	-64.17
340.004	46.42
340.217	13.65
340.429	-35.5
340.641	-17.07
340.854	-41.64
341.066	-35.5
341.278	62.8
341.491	124.24
341.703	50.52
341.915	3.41
342.128	-2.73
342.34	62.8
342.552	-10.92
342.764	56.66
342.977	38.23
343.189	27.99
343.401	9.56
343.613	-10.92
343.826	54.61
344.038	5.46
344.25	46.42
344.462	-2.73
344.674	58.71
344.886	-6.83
345.099	30.04
345.311	3.41
345.523	-0.68
345.735	-96.94
345.947	27.99
346.159	25.94
346.371	66.9
346.583	-37.55
346.795	165.2
347.007	27.99
347.219	25.94
347.431	-2.73
347.643	81.24
347.855	-10.92
348.067	50.52
348.279	-21.16
348.491	-29.35
348.703	32.08
348.915	-66.22
349.127	-47.79
349.339	99.67
349.551	-21.16
349.763	7.51
349.975	58.71
350.187	42.32
350.399	118.1
350.61	52.56
350.822	-0.68
351.034	30.04
351.246	-15.02
351.458	1.37
351.669	27.99
351.881	87.38
352.093	87.38
352.305	42.32
352.517	23.89
352.728	52.56
352.94	36.18
353.152	83.28
353.363	-64.17
353.575	38.23
353.787	107.86
353.999	32.08
354.21	136.53
354.422	-76.46
354.633	1.37
354.845	-23.21
355.057	-43.69
355.268	-23.21
355.48	75.09
355.692	-60.07
355.903	128.34
356.115	-76.46
356.326	-80.55
356.538	154.96
356.749	71
356.961	118.1
357.172	9.56
357.384	-23.21
357.595	210.26
357.807	-23.21
358.018	11.61
358.23	9.56
358.441	116.05
358.653	11.61
358.864	9.56
359.075	-62.12
359.287	25.94
359.498	42.32
359.709	56.66
359.921	46.42
360.132	50.52
360.344	32.08
360.555	-4.78
360.766	-19.11
360.977	30.04
361.189	50.52
361.4	91.48
361.611	91.48
361.823	105.81
362.034	40.28
362.245	-121.51
362.456	87.38
362.667	103.76
362.879	-64.17
363.09	7.51
363.301	81.24
363.512	17.75
363.723	-33.45
363.935	40.28
364.146	93.52
364.357	17.75
364.568	87.38
364.779	-109.23
364.99	85.33
365.201	-6.83
365.412	128.34
365.623	-107.18
365.834	-37.55
366.045	19.8
366.256	103.76
366.467	46.42
366.678	-0.68
366.889	-2.73
367.1	-49.83
367.311	52.56
367.522	-29.35
367.733	-6.83
367.944	75.09
368.155	34.13
368.366	-0.68
368.577	1.37
368.788	126.29
368.999	17.75
369.209	83.28
369.42	181.59
369.631	152.91
369.842	42.32
370.053	46.42
370.264	42.32
370.474	-29.35
370.685	44.37
370.896	5.46
371.107	89.43
371.317	40.28
371.528	42.32
371.739	30.04
371.95	1.37
372.16	30.04
372.371	-49.83
372.582	-70.31
372.792	-23.21
373.003	56.66
373.214	58.71
373.424	79.19
373.635	-49.83
373.846	114
374.056	81.24
374.267	17.75
374.477	48.47
374.688	-33.45
374.898	9.56
375.109	44.37
375.319	17.75
375.53	73.04
375.74	73.04
375.951	-31.4
376.161	34.13
376.372	148.82
376.582	60.76
376.793	30.04
377.003	25.94
377.214	62.8
377.424	-19.11
377.635	-2.73
377.845	17.75
378.055	73.04
378.266	-35.5
378.476	50.52
378.686	13.65
378.897	-19.11
379.107	83.28
379.317	-29.35
379.528	87.38
379.738	5.46
379.948	-58.03
380.158	50.52
380.369	40.28
380.579	163.15
380.789	-33.45
380.999	68.95
381.21	146.77
381.42	132.44
381.63	30.04
381.84	105.81
382.05	25.94
382.261	23.89
382.471	81.24
382.681	95.57
382.891	165.2
383.101	83.28
383.311	7.51
383.521	-64.17
383.731	124.24
383.941	89.43
384.151	40.28
384.361	87.38
384.571	85.33
384.781	-47.79
384.991	165.2
385.201	202.07
385.411	48.47
385.621	21.84
385.831	44.37
386.041	81.24
386.251	-6.83
386.461	77.14
386.671	7.51
386.881	34.13
387.091	75.09
387.301	27.99
387.511	25.94
387.72	42.32
387.93	23.89
388.14	-88.75
388.35	95.57
388.56	91.48
388.769	99.67
388.979	-49.83
389.189	-19.11
389.399	-33.45
389.609	32.08
389.818	89.43
390.028	64.85
390.238	71
390.447	42.32
390.657	97.62
390.867	-2.73
391.076	-12.97
391.286	-58.03
391.496	9.56
391.705	15.7
391.915	64.85
392.125	124.24
392.334	54.61
392.544	83.28
392.753	-45.74
392.963	1.37
393.172	-19.11
393.382	-66.22
393.591	50.52
393.801	-29.35
394.01	132.44
394.22	44.37
394.429	34.13
394.639	27.99
394.848	-8.87
395.058	5.46
395.267	9.56
395.477	66.9
395.686	15.7
395.895	116.05
396.105	208.21
396.314	111.96
396.524	58.71
396.733	99.67
396.942	52.56
397.152	25.94
397.361	79.19
397.57	3.41
397.78	-10.92
397.989	19.8
398.198	228.69
398.407	64.85
398.617	23.89
398.826	-21.16
399.035	34.13
399.244	66.9
399.453	7.51
399.663	-39.59
399.872	17.75
400.081	-25.26
400.29	58.71
400.499	-74.41
400.708	116.05
400.917	38.23
401.127	48.47
401.336	1.37
401.545	189.78
401.754	95.57
401.963	79.19
402.172	-15.02
402.381	-58.03
402.59	34.13
402.799	83.28
403.008	73.04
403.217	34.13
403.426	105.81
403.635	-109.23
403.844	27.99
404.053	1.37
404.262	9.56
404.471	177.49
404.68	34.13
404.888	23.89
405.097	-6.83
405.306	1.37
405.515	95.57
405.724	-27.31
405.933	34.13
406.142	36.18
406.35	66.9
406.559	-8.87
406.768	54.61
406.977	97.62
407.185	-8.87
407.394	40.28
407.603	-35.5
407.812	56.66
408.02	132.44
408.229	62.8
408.438	21.84
408.646	-55.98
408.855	25.94
409.064	83.28
409.272	21.84
409.481	124.24
409.69	-39.59
409.898	-55.98
410.107	36.18
410.315	116.05
410.524	-33.45
410.733	15.7
410.941	7.51
411.15	32.08
411.358	103.76
411.567	34.13
411.775	1.37
411.984	30.04
412.192	48.47
412.401	-25.26
412.609	91.48
412.818	32.08
413.026	58.71
413.234	-6.83
413.443	52.56
413.651	-51.88
413.86	-41.64
414.068	105.81
414.276	99.67
414.485	7.51
414.693	152.91
414.901	167.25
415.11	-6.83
415.318	128.34
415.526	48.47
415.734	79.19
415.943	-2.73
416.151	114
416.359	75.09
416.567	97.62
416.776	146.77
416.984	50.52
417.192	163.15
417.4	-10.92
417.608	21.84
417.817	-39.59
418.025	56.66
418.233	142.68
418.441	-31.4
418.649	25.94
418.857	68.95
419.065	111.96
419.273	34.13
419.481	-17.07
419.689	-15.02
419.897	-43.69
420.105	-53.93
420.313	116.05
420.521	120.15
420.729	157.01
420.937	25.94
421.145	1.37
421.353	34.13
421.561	66.9
421.769	50.52
421.977	11.61
422.185	46.42
422.393	73.04
422.601	60.76
422.809	42.32
423.017	-45.74
423.224	-17.07
423.432	66.9
423.64	73.04
423.848	95.57
424.056	-37.55
424.263	-15.02
424.471	-4.78
424.679	30.04
424.887	21.84
425.094	48.47
425.302	71
425.51	56.66
425.718	159.06
425.925	87.38
426.133	-58.03
426.341	263.51
426.548	34.13
426.756	-2.73
426.964	93.52
427.171	58.71
427.379	66.9
427.586	73.04
427.794	93.52
428.001	167.25
428.209	138.58
428.417	177.49
428.624	144.72
428.832	42.32
429.039	87.38
429.247	73.04
429.454	87.38
429.662	230.74
429.869	152.91
430.076	75.09
430.284	157.01
430.491	122.2
430.699	111.96
430.906	210.26
431.114	134.48
431.321	204.11
431.528	132.44
431.736	83.28
431.943	206.16
432.15	185.68
432.358	142.68
432.565	148.82
432.772	27.99
432.979	173.39
433.187	216.4
433.394	236.88
433.601	187.73
433.808	255.31
434.016	171.35
434.223	259.41
434.43	210.26
434.637	238.93
434.844	267.6
435.052	265.55
435.259	337.23
435.466	230.74
435.673	247.12
435.88	286.03
436.087	218.45
436.294	279.89
436.501	277.84
436.708	324.94
436.915	361.81
437.122	337.23
437.329	351.57
437.537	359.76
437.743	294.22
437.95	410.96
438.157	404.82
438.364	394.58
438.571	337.23
438.778	476.49
438.985	550.22
439.192	419.15
439.399	425.29
439.606	517.45
439.813	513.36
440.02	646.48
440.227	669
440.433	648.52
440.64	646.48
440.847	550.22
441.054	636.24
441.261	800.07
441.467	722.25
441.674	660.81
441.881	771.4
442.088	746.83
442.294	728.39
442.501	851.27
442.708	855.37
442.914	879.94
443.121	959.81
443.328	1000.77
443.534	1121.6
443.741	1088.84
443.948	986.44
444.154	1113.41
444.361	1334.59
444.568	1088.84
444.774	1230.15
444.981	1086.79
445.187	1326.4
445.394	1414.46
445.6	1264.96
445.807	1467.71
446.013	1424.7
446.22	1428.8
446.426	1529.15
446.633	1559.87
446.839	1873.21
447.046	1684.8
447.252	1815.87
447.459	1828.15
447.665	1805.63
447.871	2061.62
448.078	2235.7
448.284	2131.25
448.491	2266.42
448.697	2225.46
448.903	2399.54
449.11	2495.79
449.316	2485.55
449.522	2602.29
449.728	2860.33
449.935	2770.22
450.141	2741.55
450.347	3136.81
450.553	3036.45
450.76	3128.61
450.966	3376.42
451.172	3446.05
451.378	3546.4
451.584	3575.07
451.791	3970.33
451.997	4023.58
452.203	4076.82
452.409	4318.48
452.615	4392.21
452.821	4314.39
453.027	4404.5
453.233	4830.48
453.44	4881.67
453.646	4982.03
453.852	5238.02
454.058	5502.21
454.264	5723.39
454.47	5848.32
454.676	6008.06
454.882	6563.06
455.088	6219
455.294	6665.46
455.5	6989.03
455.705	7417.06
455.911	7607.52
456.117	7714.02
456.323	7929.05
456.529	7814.37
456.735	8854.73
456.941	9004.24
457.147	9389.25
457.352	9512.13
457.558	9880.77
457.764	10505.4
457.97	10663.09
458.176	10962.09
458.381	11556
458.587	11799.71
458.793	12553.37
458.999	12582.04
459.204	14029.95
459.41	14613.62
459.616	14376.06
459.821	15148.14
460.027	15797.35
460.233	16671.83
460.438	16796.76
460.644	17699.91
460.85	17964.1
461.055	18349.12
461.261	19444.78
461.466	19096.63
461.672	19588.14
461.878	21744.65
462.083	20974.61
462.289	21488.65
462.494	22680.57
462.7	22600.7
462.905	23231.47
463.111	24882.14
463.316	26106.82
463.522	26487.75
463.727	27540.4
463.932	28537.76
464.138	29838.22
464.343	30741.38
464.549	30851.97
464.754	32729.95
464.959	33979.21
465.165	34173.77
465.37	34317.13
465.575	34231.11
465.781	36412.2
465.986	37518.1
466.191	36584.23
466.397	37233.44
466.602	36041.52
466.807	38325
467.012	39303.93
467.218	39729.91
467.423	39766.77
467.628	41237.22
467.833	42838.73
468.038	42035.92
468.244	41202.4
468.449	43817.66
468.654	43018.95
468.859	42838.73
469.064	42711.75
469.269	41624.28
469.474	41921.24
469.679	43084.48
469.885	41704.15
470.09	42414.8
470.295	42779.34
470.5	41822.94
470.705	41691.87
470.91	40790.76
471.115	40518.38
471.32	40866.53
471.525	40692.46
471.73	39271.17
471.935	39289.6
472.139	37997.33
472.344	38259.47
472.549	37413.66
472.754	36707.11
472.959	36055.86
473.164	35208
473.369	34358.09
473.574	35609.4
473.778	34845.51
473.983	34247.5
474.188	33387.35
474.393	31974.25
474.598	31701.87
474.802	30954.36
475.007	30804.86
475.212	30509.96
475.417	29285.27
475.621	28804
475.826	28574.63
476.031	28142.5
476.235	27311.03
476.44	27560.88
476.645	26706.88
476.849	26461.12
477.054	26160.07
477.259	25189.33
477.463	25363.41
477.668	24656.86
477.872	24884.19
478.077	24069.09
478.282	23522.29
478.486	23147.51
478.691	22805.5
478.895	22660.09
479.1	22557.69
479.304	22522.88
479.509	22051.84
479.713	21996.55
479.918	21580.81
480.122	21107.73
480.326	21337.1
480.531	20937.75
480.735	20833.3
480.94	20540.44
481.144	21091.35
481.348	20198.43
481.553	20030.5
481.757	19510.32
481.961	19938.34
482.166	19909.67
482.37	19741.74
482.574	19022.9
482.778	19348.53
482.983	19493.93
483.187	18832.44
483.391	18996.28
483.595	18619.45
483.8	18340.93
484.004	18510.91
484.208	18588.73
484.412	17857.6
484.616	17718.34
484.821	17757.25
485.025	17202.25
485.229	17327.18
485.433	16866.39
485.637	16792.66
485.841	16704.6
486.045	16577.62
486.249	16137.31
486.453	15879.27
486.657	15916.13
486.861	15506.54
487.065	14941.3
487.269	15000.69
487.473	14558.33
487.677	14808.18
487.881	14488.7
488.085	14072.96
488.289	13958.27
488.493	13733
488.697	13921.41
488.901	13323.4
489.105	13028.49
489.309	12645.52
489.512	12668.05
489.716	12461.21
489.92	12274.84
490.124	11777.19
490.328	12082.33
490.531	11351.21
490.735	11455.65
490.939	10980.53
491.143	10792.11
491.346	10640.56
491.55	10753.2
491.754	10366.14
491.958	10183.87
492.161	10206.39
492.365	9903.29
492.569	9948.35
492.772	9655.49
492.976	9475.27
493.18	9405.64
493.383	9538.76
493.587	9061.58
493.79	9413.83
493.994	8920.27
494.197	8893.65
494.401	8707.28
494.605	8553.68
494.808	8674.51
495.012	8520.92
495.215	8586.45
495.419	8676.56
495.622	8393.94
495.825	8514.77
496.029	8238.3
496.232	8363.22
496.436	8187.1
496.639	8467.67
496.843	8105.18
497.046	8254.68
497.249	8348.89
497.453	8297.69
497.656	8027.35
497.859	8144.09
498.063	8250.58
498.266	8248.54
498.469	8160.47
498.673	8142.04
498.876	8189.14
499.079	8514.77
499.282	8422.61
499.485	8750.29
499.689	8395.99
499.892	8502.48
500.095	8447.19
500.298	8731.86
500.501	8545.49
500.705	8791.25
500.908	8883.41
501.111	8877.26
501.314	8981.71
501.517	8965.32
501.72	9184.46
501.923	9135.31
502.126	9372.87
502.329	9641.15
502.532	9471.17
502.735	9549
502.938	9868.48
503.141	9759.94
503.344	10009.79
503.547	9931.97
503.75	10069.18
503.953	10425.53
504.156	10413.24
504.359	10652.85
504.562	10790.06
504.765	10974.38
504.968	11271.34
505.17	11519.14
505.373	11306.15
505.576	11590.82
505.779	11805.86
505.982	12024.99
506.185	12348.57
506.387	12563.61
506.59	12434.58
506.793	13040.78
506.996	12917.9
507.198	13489.29
507.401	13661.32
507.604	13935.74
507.807	14144.64
508.009	14644.34
508.212	14808.18
508.415	15021.17
508.617	15215.73
508.82	15465.58
509.022	15770.72
509.225	16237.66
509.428	16467.03
509.63	16870.48
509.833	17060.94
510.035	17617.99
510.238	17939.52
510.44	18242.62
510.643	18576.44
510.845	19256.37
511.048	19407.92
511.25	20169.76
511.453	20415.52
511.655	21226.51
511.858	21801.99
512.06	22096.9
512.262	22348.8
512.465	22807.55
512.667	23546.86
512.87	23878.63
513.072	24419.3
513.274	25344.98
513.477	25709.52
513.679	26297.28
513.881	26717.12
514.084	27284.4
514.286	27702.19
514.488	28314.53
514.69	29477.78
514.893	29748.11
515.095	30202.76
515.297	31316.86
515.499	31947.63
515.701	32119.66
515.904	33358.68
516.106	33499.99
516.308	34435.91
516.51	34818.88
516.712	35709.75
516.914	36467.5
517.116	37538.58
517.318	37399.32
517.52	38726.41
517.722	39056.13
517.925	39987.96
518.127	40807.14
518.329	41773.78
518.531	41800.41
518.733	42879.69
518.935	43090.63
519.136	44001.97
519.338	44720.81
519.54	45492.9
519.742	46373.52
519.944	46674.57
520.146	47917.69
520.348	48050.81
520.55	48992.87
520.752	48790.12
520.954	50496.08
521.155	49912.41
521.357	51112.52
521.559	51649.09
521.761	52515.38
521.963	52580.91
522.164	53547.56
522.366	53465.64
522.568	54315.54
522.77	54336.02
522.971	55441.93
523.173	55071.24
523.375	55908.86
523.576	55806.47
523.778	55929.34
523.98	56556.02
524.181	57334.25
524.383	57010.67
524.584	57825.76
524.786	57192.94
524.988	57010.67
525.189	57489.9
525.391	57821.67
525.592	57989.6
525.794	58063.33
525.995	58132.96
526.197	57854.43
526.398	58051.04
526.6	57913.83
526.801	57604.58
527.003	57616.87
527.204	57493.99
527.406	57700.84
527.607	57088.49
527.808	57307.63
528.01	55847.43
528.211	56015.36
528.412	56375.8
528.614	55505.41
528.815	55302.67
529.016	55605.76
529.218	54463
529.419	54483.48
529.62	53756.45
529.822	53455.4
530.023	52984.36
530.224	52423.22
530.425	51753.54
530.626	51495.49
530.828	50664.02
531.029	51253.83
531.23	49887.84
531.431	49406.56
531.632	49392.23
531.833	48804.46
532.035	48235.13
532.236	47254.15
532.437	47411.84
532.638	46396.05
532.839	46017.18
533.04	45851.29
533.241	44667.56
533.442	45146.79
533.643	43756.22
533.844	43430.59
534.045	42773.19
534.246	41695.96
534.447	41593.56
534.648	40631.02
534.849	40964.84
535.05	39660.28
535.251	39416.57
535.451	38755.08
535.652	38632.2
535.853	38011.67
536.054	37413.66
536.255	37133.09
536.456	36154.16
536.657	36434.73
536.857	35089.21
537.058	35259.2
537.259	34814.79
537.46	34280.27
537.66	33692.5
537.861	33499.99
538.062	32648.04
538.263	32605.03
538.463	32172.91
538.664	31622
538.865	31834.99
539.065	31079.29
539.266	30454.66
539.466	30272.39
539.667	29631.38
539.868	29823.89
540.068	29025.18
540.269	28775.33
540.469	28658.59
540.67	28603.3
540.87	27769.77
541.071	27659.18
541.271	27157.43
541.472	27042.74
541.672	26616.77
541.873	26487.75
542.073	25678.8
542.274	26008.52
542.474	25521.1
542.675	25222.1
542.875	25119.7
543.075	24826.84
543.276	23974.89
543.476	23999.46
543.676	24062.95
543.877	23649.26
544.077	23405.55
544.277	23208.95
544.478	22778.87
544.678	22934.52
544.878	22498.3
545.078	22260.74
545.279	21662.73
545.479	21625.87
545.679	21484.56
545.879	20849.69
546.079	21038.1
546.28	20792.34
546.48	20317.22
546.68	20415.52
546.88	19792.94
547.08	19790.89
547.28	19504.17
547.48	19047.47
547.68	19166.26
547.88	18840.63
548.081	18580.54
548.281	18338.88
548.481	17998.91
548.681	17849.41
548.881	17912.9
549.081	17495.11
549.28	17157.2
549.48	16956.5
549.68	16469.08
549.88	17013.84
550.08	16006.24
550.28	15977.57
550.48	15789.16
550.68	15555.69
550.88	15522.92
551.08	15101.04
551.279	15131.76
551.479	14693.49
551.679	14791.8
551.879	14310.52
552.079	14283.9
552.278	14175.36
552.478	13945.98
552.678	13689.99
552.878	13427.85
553.077	13153.42
553.277	12881.04
553.477	13030.54
553.676	12522.65
553.876	12422.3
554.076	12328.09
554.275	12068
554.475	11627.68
554.674	11625.64
554.874	11449.51
555.074	11220.14
555.273	11203.75
555.473	10794.16
555.672	10663.09
555.872	10609.84
556.071	10413.24
556.271	10353.85
556.47	10024.12
556.67	9893.05
556.869	9479.36
557.068	9700.55
557.268	9419.97
557.467	9282.76
557.667	9247.94
557.866	9053.39
558.065	8795.34
558.265	8701.14
558.464	8592.59
558.663	8346.84
558.863	8381.65
559.062	8230.1
559.261	8115.42
559.461	7992.54
559.66	7718.11
559.859	7718.11
560.058	7568.61
560.258	7359.72
560.457	7300.33
560.656	7199.98
560.855	6976.75
561.054	6972.65
561.253	6814.96
561.453	6831.34
561.652	6657.26
561.851	6743.28
562.05	6536.43
562.249	6173.94
562.448	6376.69
562.647	6112.5
562.846	6022.39
563.045	5981.43
563.244	5999.87
563.443	5870.84
563.642	5696.77
563.841	5750.01
564.04	5588.22
564.239	5430.53
564.438	5399.81
564.637	5154.05
564.836	5092.62
565.035	5270.79
565.234	5059.85
565.432	4924.68
565.631	5031.18
565.83	4812.04
566.029	4828.43
566.228	4826.38
566.427	4642.06
566.625	4478.22
566.824	4547.86
567.023	4424.98
567.222	4289.81
567.42	4289.81
567.619	4318.48
567.818	4263.19
568.016	4314.39
568.215	4128.02
568.414	4191.51
568.612	3999
568.811	3859.74
569.01	3736.86
569.208	3783.96
569.407	3761.44
569.605	3644.7
569.804	3708.19
570.002	3511.58
570.201	3423.52
570.4	3556.64
570.598	3441.95
570.797	3314.98
570.995	3257.64
571.193	3235.11
571.392	3138.85
571.59	2942.25
571.789	3233.06
571.987	3134.76
572.186	3063.08
572.384	2913.58
572.582	2934.06
572.781	3056.93
572.979	2827.56
573.177	2784.55
573.376	2676.01
573.574	2866.47
573.772	2723.12
573.971	2706.73
574.169	2454.83
574.367	2534.7
574.565	2487.6
574.763	2389.3
574.962	2483.5
575.16	2377.01
575.358	2325.81
575.556	2188.6
575.754	2317.62
575.952	2200.88
576.151	2155.83
576.349	2180.4
576.547	2106.68
576.745	2221.36
576.943	2039.09
577.141	1967.42
577.339	2080.05
577.537	2039.09
577.735	1969.46
577.933	1946.94
578.131	1779
578.329	1869.11
578.527	1719.61
578.725	1748.28
578.923	1744.19
579.121	1869.11
579.319	1572.16
579.516	1686.84
579.714	1893.69
579.912	1633.6
580.11	1533.25
580.308	1523.01
580.506	1656.12
580.704	1461.57
580.901	1373.5
581.099	1649.98
581.297	1490.24
581.495	1520.96
581.692	1381.7
581.89	1527.1
582.088	1424.7
582.285	1330.5
582.483	1287.49
582.681	1340.74
582.878	1303.87
583.076	1183.04
583.274	1238.34
583.471	1383.74
583.669	1295.68
583.866	1076.55
584.064	1195.33
584.262	1160.52
584.459	1181
584.657	1094.98
584.854	1176.9
585.052	1068.36
585.249	1172.8
585.447	1066.31
585.644	920.9
585.841	990.53
586.039	1156.42
586.236	984.39
586.434	984.39
586.631	949.57
586.828	1013.06
587.026	970.05
587.223	877.9
587.42	886.09
587.618	1023.3
587.815	1070.4
588.012	978.25
588.21	881.99
588.407	927.05
588.604	861.51
588.801	826.7
588.999	798.03
589.196	914.76
589.393	798.03
589.59	861.51
589.787	884.04
589.984	857.42
590.182	910.66
590.379	765.26
590.576	830.79
590.773	771.4
590.97	791.88
591.167	771.4
591.364	826.7
591.561	773.45
591.758	949.57
591.955	775.5
592.152	765.26
592.349	664.91
592.546	728.39
592.743	742.73
592.94	791.88
593.137	785.74
593.334	826.7
593.531	900.42
593.727	898.38
593.924	736.59
594.121	726.35
594.318	695.63
594.515	937.29
594.712	953.67
594.908	908.62
595.105	750.92
595.302	853.32
595.499	744.78
595.696	927.05
595.892	714.06
596.089	972.1
596.286	800.07
596.482	972.1
596.679	927.05
596.876	898.38
597.072	1015.11
597.269	1072.45
597.466	1109.32
597.662	1146.18
597.859	1082.69
598.055	1107.27
598.252	1246.53
598.448	1176.9
598.645	1312.07
598.841	1324.35
599.038	1441.09
599.234	1430.85
599.431	1475.9
599.627	1445.18
599.824	1533.25
600.02	1721.66
600.217	1621.31
600.413	1750.33
600.609	1830.2
600.806	1987.89
601.002	1989.94
601.198	2065.72
601.395	2053.43
601.591	2055.48
601.787	2245.94
601.984	2383.15
602.18	2319.67
602.376	2495.79
602.572	2682.16
602.769	2821.42
602.965	2929.96
603.161	2913.58
603.357	3007.78
603.553	3175.72
603.75	3179.81
603.946	3292.45
604.142	3396.9
604.338	3644.7
604.534	3740.96
604.73	3683.61
604.926	3777.82
605.122	4031.77
605.318	4080.92
605.514	4228.37
605.71	4443.41
605.906	4537.62
606.102	4658.45
606.298	4850.96
606.494	5111.05
606.69	5274.88
606.886	5207.3
607.082	5285.12
607.278	5477.63
607.474	5727.49
607.67	6006.01
607.866	5838.08
608.062	6278.39
608.257	6438.13
608.453	6485.23
608.649	6636.78
608.845	6909.16
609.041	7056.62
609.236	7333.09
609.432	7652.58
609.628	7535.84
609.824	7881.95
610.019	8053.98
610.215	8201.43
610.411	8619.22
610.606	8697.04
610.802	8916.17
610.998	9235.66
611.193	9239.75
611.389	9587.91
611.584	9766.08
611.78	10144.95
611.976	10362.04
612.171	10869.94
612.367	11187.37
612.562	11392.17
612.758	11433.13
612.953	11742.37
613.149	11928.74
613.344	12561.56
613.539	12805.27
613.735	13218.96
613.93	13659.27
614.126	13976.7
614.321	14455.93
614.517	14675.06
614.712	15047.79
614.907	15518.82
615.103	15682.66
615.298	16069.73
615.493	16696.41
615.688	16770.13
615.884	17656.9
616.079	17683.53
616.274	18453.56
616.47	18758.71
616.665	19246.13
616.86	19436.59
617.055	20093.99
617.25	20575.26
617.445	21369.87
617.641	21619.72
617.836	22256.64
618.031	22682.62
618.226	23319.54
618.421	23626.73
618.616	24409.06
618.811	24962.01
619.006	25510.86
619.201	26090.44
619.396	26381.25
619.591	26801.08
619.786	27980.71
619.981	28105.64
620.176	29035.42
620.371	29160.34
620.566	30071.69
620.761	30708.61
620.956	31945.58
621.151	31583.09
621.346	32779.11
621.541	32084.84
621.735	33698.64
621.93	34009.93
622.125	35052.35
622.32	35027.77
622.515	36135.73
622.709	36866.85
622.904	37669.65
623.099	37751.57
623.294	39037.7
623.488	38664.97
623.683	40086.26
623.878	40153.84
624.072	41423.58
624.267	41884.37
624.462	42416.85
624.656	42300.11
624.851	43745.98
625.046	44266.16
625.24	44815.02
625.435	45296.29
625.629	46279.32
625.824	46258.84
626.018	47362.69
626.213	46885.51
626.407	48269.94
626.602	48138.87
626.796	49343.08
626.991	49543.78
627.185	49906.27
627.38	50059.87
627.574	50395.73
627.768	50448.98
627.963	50702.93
628.157	51014.22
628.352	51556.93
628.546	50952.78
628.74	51759.68
628.935	50805.33
629.129	51360.33
629.323	50719.31
629.517	50448.98
629.712	50506.32
629.906	50104.92
630.1	49062.5
630.294	49158.76
630.489	48466.55
630.683	48542.32
630.877	46961.29
631.071	46195.35
631.265	45709.98
631.459	44673.71
631.653	43670.2
631.848	43135.68
632.042	42201.81
632.236	41544.41
632.43	39846.65
632.624	39123.71
632.818	37481.24
633.012	36301.61
633.206	35408.7
633.4	34714.44
633.594	33018.72
633.788	32101.23
633.982	31107.96
634.176	30204.81
634.369	28793.76
634.563	27775.92
634.757	26770.36
634.951	25871.31
635.145	24603.61
635.339	23929.83
635.533	22709.24
635.726	22101
635.92	20808.73
636.114	20321.31
636.308	19196.98
636.501	18648.12
636.695	17800.26
636.889	16948.31
637.083	16307.29
637.276	15561.83
637.47	14955.63
637.664	14374.01
637.857	13778.05
638.051	13190.28
638.244	12682.39
638.438	12221.59
638.632	11633.83
638.825	11189.42
639.019	10837.17
639.212	10501.3
639.406	10155.19
639.599	9538.76
639.793	9256.14
639.986	8764.62
640.18	8793.3
640.373	8324.31
640.567	7779.55
640.76	7544.03
640.954	7290.09
641.147	7029.99
641.34	6704.37
641.534	6583.54
641.727	6241.53
641.92	6128.89
642.114	5709.05
642.307	5629.18
642.5	5344.52
642.694	5012.74
642.887	5014.79
643.08	4826.38
643.273	4695.31
643.467	4494.61
643.66	4424.98
643.853	3960.09
644.046	3804.44
644.239	3808.54
644.432	3601.69
644.626	3310.88
644.819	3263.78
645.012	3226.92
645.205	3126.57
645.398	3003.69
645.591	2845.99
645.784	2694.44
645.977	2661.68
646.17	2438.45
646.363	2467.12
646.556	2352.43
646.749	2241.84
646.942	2239.8
647.135	2086.2
647.328	1994.04
647.521	1910.07
647.714	1809.72
647.907	1787.19
648.099	1762.62
648.292	1664.32
648.485	1658.17
648.678	1373.5
648.871	1520.96
649.064	1406.27
649.256	1422.66
649.449	1246.53
649.642	1174.85
649.835	1162.56
650.027	1176.9
650.22	1129.8
650.413	1035.59
650.605	1082.69
650.798	976.2
650.991	943.43
651.183	1041.73
651.376	976.2
651.568	902.47
651.761	845.13
651.954	886.09
652.146	775.5
652.339	853.32
652.531	828.74
652.724	736.59
652.916	703.82
653.109	632.14
653.301	738.63
653.494	664.91
653.686	609.61
653.879	701.77
654.071	607.56
654.263	587.08
654.456	576.84
654.648	660.81
654.84	552.27
655.033	484.69
655.225	517.45
655.417	447.82
655.61	593.23
655.802	499.02
655.994	490.83
656.186	456.01
656.379	429.39
656.571	464.21
656.763	468.3
656.955	392.53
657.148	466.25
657.34	531.79
657.532	386.38
657.724	329.04
657.916	329.04
658.108	439.63
658.3	417.1
658.492	384.34
658.684	230.74
658.876	386.38
659.068	187.73
659.26	355.66
659.452	243.03
659.644	294.22
659.836	468.3
660.028	251.22
660.22	218.45
660.412	212.31
660.604	288.08
660.796	279.89
660.988	351.57
661.18	259.41
661.372	261.46
661.563	249.17
661.755	273.75
661.947	240.98
662.139	222.55
662.331	189.78
662.522	132.44
662.714	177.49
662.906	144.72
663.097	222.55
663.289	179.54
663.481	173.39
663.673	220.5
663.864	200.02
664.056	245.07
664.247	148.82
664.439	204.11
664.631	228.69
664.822	202.07
665.014	165.2
665.205	167.25
665.397	181.59
665.588	181.59
665.78	169.3
665.971	210.26
666.163	157.01
666.354	200.02
666.546	114
666.737	204.11
666.929	107.86
667.12	148.82
667.311	187.73
667.503	171.35
667.694	136.53
667.885	273.75
668.077	257.36
668.268	187.73
668.459	171.35
668.651	263.51
668.842	292.18
669.033	73.04
669.224	75.09
669.416	372.05
669.607	169.3
669.798	163.15
669.989	292.18
670.18	183.63
670.371	197.97
670.563	154.96
670.754	222.55
670.945	144.72
671.136	140.63
671.327	99.67
671.518	263.51
671.709	267.6
671.9	294.22
672.091	234.83
672.282	185.68
672.473	197.97
672.664	107.86
672.855	130.39
673.046	148.82
673.237	255.31
673.428	267.6
673.619	195.92
673.809	175.44
674	294.22
674.191	292.18
674.382	177.49
674.573	230.74
674.764	185.68
674.954	312.66
675.145	169.3
675.336	226.64
675.527	152.91
675.717	208.21
675.908	200.02
676.099	247.12
676.289	222.55
676.48	83.28
676.671	251.22
676.861	275.79
677.052	269.65
677.243	177.49
677.433	279.89
677.624	302.42
677.814	320.85
678.005	261.46
678.195	312.66
678.386	212.31
678.576	271.7
678.767	204.11
678.957	181.59
679.148	351.57
679.338	408.91
679.529	326.99
679.719	300.37
679.909	269.65
680.1	316.75
680.29	339.28
680.481	189.78
680.671	333.14
680.861	314.7
681.052	257.36
681.242	218.45
681.432	365.9
681.622	355.66
681.813	183.63
682.003	316.75
682.193	238.93
682.383	349.52
682.573	378.19
682.764	355.66
682.954	474.45
683.144	441.68
683.334	329.04
683.524	326.99
683.714	374.1
683.904	357.71
684.094	419.15
684.284	378.19
684.474	398.67
684.664	390.48
684.854	433.49
685.044	363.86
685.234	384.34
685.424	415.05
685.614	406.86
685.804	494.93
685.994	324.94
686.184	406.86
686.374	380.24
686.564	322.9
686.753	353.62
686.943	374.1
687.133	456.01
687.323	269.65
687.513	382.29
687.702	386.38
687.892	370
688.082	394.58
688.272	406.86
688.461	392.53
688.651	482.64
688.841	507.21
689.03	408.91
689.22	443.73
689.41	357.71
689.599	453.97
689.789	359.76
689.979	544.08
690.168	312.66
690.358	484.69
690.547	337.23
690.737	460.11
690.926	355.66
691.116	384.34
691.305	458.06
691.495	386.38
691.684	296.27
691.874	318.8
692.063	402.77
692.252	429.39
692.442	447.82
692.631	402.77
692.82	320.85
693.01	384.34
693.199	449.87
693.388	384.34
693.578	353.62
693.767	398.67
693.956	435.53
694.146	300.37
694.335	288.08
694.524	359.76
694.713	451.92
694.902	415.05
695.092	413.01
695.281	380.24
695.47	386.38
695.659	329.04
695.848	386.38
696.037	214.35
696.226	410.96
696.415	353.62
696.604	425.29
696.793	359.76
696.982	415.05
697.171	451.92
697.36	279.89
697.549	394.58
697.738	214.35
697.927	329.04
698.116	204.11
698.305	421.2
698.494	349.52
698.683	374.1
698.872	447.82
699.061	374.1
699.25	312.66
699.438	415.05
699.627	345.42
699.816	458.06
700.005	294.22
700.193	310.61
700.382	392.53
700.571	343.38
700.76	370
700.948	460.11
701.137	464.21
701.326	372.05
701.514	302.42
701.703	460.11
701.892	335.18
702.08	539.98
702.269	312.66
702.457	275.79
702.646	404.82
702.834	275.79
703.023	427.34
703.212	394.58
703.4	322.9
703.589	351.57
703.777	259.41
703.965	306.51
704.154	394.58
704.342	326.99
704.531	279.89
704.719	343.38
704.907	427.34
705.096	339.28
705.284	255.31
705.472	234.83
705.661	343.38
705.849	382.29
706.037	361.81
706.226	384.34
706.414	343.38
706.602	273.75
706.79	343.38
706.979	333.14
707.167	329.04
707.355	294.22
707.543	398.67
707.731	367.95
707.919	263.51
708.107	363.86
708.296	288.08
708.484	286.03
708.672	378.19
708.86	357.71
709.048	310.61
709.236	218.45
709.424	380.24
709.612	331.09
709.8	318.8
709.988	351.57
710.176	345.42
710.364	390.48
710.551	394.58
710.739	312.66
710.927	220.5
711.115	353.62
711.303	449.87
711.491	378.19
711.679	343.38
711.866	372.05
712.054	318.8
712.242	400.72
712.43	400.72
712.617	372.05
712.805	413.01
712.993	353.62
713.181	310.61
713.368	384.34
713.556	341.33
713.744	333.14
713.931	449.87
714.119	337.23
714.306	365.9
714.494	300.37
714.682	331.09
714.869	324.94
715.057	275.79
715.244	277.84
715.432	427.34
715.619	306.51
715.807	294.22
715.994	326.99
716.182	339.28
716.369	449.87
716.556	396.62
716.744	279.89
716.931	271.7
717.119	458.06
717.306	333.14
717.493	370
717.681	257.36
717.868	351.57
718.055	374.1
718.242	400.72
718.43	413.01
718.617	449.87
718.804	355.66
718.991	531.79
719.179	413.01
719.366	443.73
719.553	435.53
719.74	386.38
719.927	337.23
720.114	408.91
720.301	351.57
720.488	304.46
720.676	345.42
720.863	464.21
721.05	435.53
721.237	456.01
721.424	357.71
721.611	427.34
721.798	318.8
721.985	380.24
722.172	357.71
722.358	357.71
722.545	425.29
722.732	370
722.919	453.97
723.106	476.49
723.293	531.79
723.48	468.3
723.667	384.34
723.853	443.73
724.04	423.25
724.227	382.29
724.414	460.11
724.6	490.83
724.787	544.08
724.974	431.44
725.161	304.46
725.347	337.23
725.534	400.72
725.72	410.96
725.907	460.11
726.094	451.92
726.28	361.81
726.467	415.05
726.653	359.76
726.84	525.65
727.027	550.22
727.213	413.01
727.4	435.53
727.586	460.11
727.773	507.21
727.959	410.96
728.145	451.92
728.332	433.49
728.518	410.96
728.705	496.97
728.891	413.01
729.077	464.21
729.264	316.75
729.45	415.05
729.636	423.25
729.823	468.3
730.009	558.41
730.195	388.43
730.382	458.06
730.568	361.81
730.754	427.34
730.94	460.11
731.126	410.96
731.313	419.15
731.499	464.21
731.685	482.64
731.871	533.84
732.057	519.5
732.243	517.45
732.429	492.88
732.615	587.08
732.801	488.78
732.987	474.45
733.173	378.19
733.359	398.67
733.545	451.92
733.731	396.62
733.917	585.04
734.103	546.12
734.289	470.35
734.475	425.29
734.661	615.76
734.847	435.53
735.033	501.07
735.219	484.69
735.404	431.44
735.59	425.29
735.776	333.14
735.962	548.17
736.148	554.32
736.333	499.02
736.519	484.69
736.705	513.36
736.89	419.15
737.076	456.01
737.262	447.82
737.447	378.19
737.633	529.74
737.819	456.01
738.004	490.83
738.19	435.53
738.375	566.6
738.561	449.87
738.747	415.05
738.932	453.97
739.118	640.33
739.303	554.32
739.489	466.25
739.674	398.67
739.859	419.15
740.045	589.13
740.23	460.11
740.416	378.19
740.601	484.69
740.786	468.3
740.972	312.66
741.157	456.01
741.342	482.64
741.528	333.14
741.713	589.13
741.898	421.2
742.084	425.29
742.269	449.87
742.454	539.98
742.639	490.83
742.824	486.73
743.01	535.89
743.195	591.18
743.38	552.27
743.565	404.82
743.75	439.63
743.935	517.45
744.12	542.03
744.305	363.86
744.49	517.45
744.675	458.06
744.86	443.73
745.045	447.82
745.23	437.58
745.415	363.86
745.6	537.93
745.785	396.62
745.97	472.4
746.155	419.15
746.34	505.17
746.525	435.53
746.71	607.56
746.895	410.96
747.079	372.05
747.264	415.05
747.449	423.25
747.634	468.3
747.819	388.43
748.003	443.73
748.188	271.7
748.373	539.98
748.557	361.81
748.742	390.48
748.927	433.49
749.111	404.82
749.296	415.05
749.481	417.1
749.665	312.66
749.85	361.81
750.034	413.01
750.219	425.29
750.404	331.09
750.588	398.67
750.773	320.85
750.957	345.42
751.141	304.46
751.326	427.34
751.51	189.78
751.695	333.14
751.879	382.29
752.064	490.83
752.248	357.71
752.432	427.34
752.617	384.34
752.801	320.85
752.985	320.85
753.17	380.24
753.354	341.33
753.538	331.09
753.722	298.32
753.907	326.99
754.091	290.13
754.275	429.39
754.459	318.8
754.643	228.69
754.828	345.42
755.012	298.32
755.196	281.94
755.38	226.64
755.564	214.35
755.748	255.31
755.932	353.62
756.116	337.23
756.3	304.46
756.484	236.88
756.668	306.51
756.852	210.26
757.036	310.61
757.22	329.04
757.404	255.31
757.588	230.74
757.772	288.08
757.956	226.64
758.14	275.79
758.323	243.03
758.507	290.13
758.691	257.36
758.875	255.31
759.059	355.66
759.242	183.63
759.426	255.31
759.61	345.42
759.794	161.11
759.977	374.1
760.161	324.94
760.345	275.79
760.528	345.42
760.712	304.46
760.895	234.83
761.079	286.03
761.263	132.44
761.446	146.77
761.63	238.93
761.813	304.46
761.997	167.25
762.18	157.01
762.364	228.69
762.547	165.2
762.731	165.2
762.914	232.79
763.098	154.96
763.281	181.59
763.464	107.86
763.648	204.11
763.831	132.44
764.015	150.87
764.198	238.93
764.381	220.5
764.564	200.02
764.748	206.16
764.931	212.31
765.114	173.39
765.297	271.7
765.481	120.15
765.664	275.79
765.847	152.91
766.03	253.27
766.213	99.67
766.397	152.91
766.58	161.11
766.763	251.22
766.946	101.72
767.129	144.72
767.312	161.11
767.495	148.82
767.678	150.87
767.861	142.68
768.044	238.93
768.227	132.44
768.41	128.34
768.593	120.15
768.776	191.83
768.959	189.78
769.142	187.73
769.324	144.72
769.507	222.55
769.69	118.1
769.873	187.73
770.056	294.22
770.239	148.82
770.421	169.3
770.604	187.73
770.787	105.81
770.97	167.25
771.152	-33.45
771.335	163.15
771.518	52.56
771.7	185.68
771.883	247.12
772.066	138.58
772.248	249.17
772.431	236.88
772.613	208.21
772.796	73.04
772.978	142.68
773.161	171.35
773.343	132.44
773.526	91.48
773.708	34.13
773.891	42.32
774.073	36.18
774.256	83.28
774.438	206.16
774.621	5.46
774.803	114
774.985	87.38
775.168	165.2
775.35	73.04
775.532	226.64
775.715	83.28
775.897	169.3
776.079	118.1
776.261	159.06
776.444	140.63
776.626	140.63
776.808	62.8
776.99	50.52
777.173	97.62
777.355	103.76
777.537	77.14
777.719	91.48
777.901	77.14
778.083	-6.83
778.265	-10.92
778.447	163.15
778.629	91.48
778.811	128.34
778.993	54.61
779.175	163.15
779.357	42.32
779.539	-51.88
779.721	7.51
779.903	93.52
780.085	83.28
780.267	64.85
780.449	50.52
780.631	105.81
780.812	204.11
780.994	52.56
781.176	107.86
781.358	19.8
781.54	91.48
781.721	152.91
781.903	30.04
782.085	-15.02
782.267	114
782.448	120.15
782.63	48.47
782.812	75.09
782.993	146.77
783.175	105.81
783.357	68.95
783.538	173.39
783.72	-51.88
783.901	58.71
784.083	25.94
784.264	85.33
784.446	1.37
784.627	17.75
784.809	161.11
784.99	27.99
785.172	116.05
785.353	73.04
785.535	73.04
785.716	27.99
785.897	25.94
786.079	93.52
786.26	9.56
786.441	15.7
786.623	68.95
786.804	71
786.985	75.09
787.167	30.04
787.348	42.32
787.529	11.61
787.71	36.18
787.891	95.57
788.073	-10.92
788.254	5.46
788.435	109.91
788.616	124.24
788.797	-88.75
788.978	-6.83
789.159	-33.45
789.34	34.13
789.522	38.23
789.703	25.94
789.884	-0.68
790.065	19.8
790.246	130.39
790.427	38.23
790.607	83.28
790.788	93.52
790.969	17.75
791.15	11.61
791.331	-6.83
791.512	7.51
791.693	15.7
791.874	42.32
792.054	85.33
792.235	128.34
792.416	5.46
792.597	38.23
792.778	124.24
792.958	79.19
793.139	75.09
793.32	9.56
793.5	-10.92
793.681	66.9
793.862	-43.69
794.042	23.89
794.223	-17.07
794.404	-23.21
794.584	-55.98
794.765	66.9
794.945	-10.92
795.126	77.14
795.306	73.04
795.487	-19.11
795.667	75.09
795.848	91.48
796.028	15.7
796.209	116.05
796.389	23.89
796.57	-96.94
796.75	-27.31
796.93	99.67
797.111	3.41
797.291	52.56
797.471	50.52
797.652	-6.83
797.832	-29.35
798.012	7.51
798.192	58.71
798.373	-88.75
798.553	3.41
798.733	19.8
798.913	-6.83
799.093	-31.4
799.274	-8.87
799.454	91.48
799.634	64.85
799.814	79.19
799.994	46.42
800.174	64.85
800.354	-10.92
800.534	-58.03
800.714	-0.68
800.894	-96.94
801.074	-131.75
801.254	-74.41
801.434	62.8
801.614	-51.88
801.794	7.51
801.974	1482.05
802.154	-39.59
802.334	48.47
802.514	-31.4
802.693	1.37
802.873	1.37
803.053	66.9
803.233	120.15
803.413	-47.79
803.592	-117.42
803.772	-68.27
803.952	-6.83
804.131	-88.75
804.311	58.71
804.491	107.86
804.67	-15.02
804.85	-35.5
805.03	38.23
805.209	105.81
805.389	71
805.568	19.8
805.748	-15.02
805.928	13.65
806.107	60.76
806.287	21.84
806.466	40.28
806.646	-58.03
806.825	-0.68
807.004	71
807.184	40.28
807.363	87.38
807.543	13.65
807.722	7.51
807.901	50.52
808.081	58.71
808.26	-55.98
808.439	54.61
808.619	21.84
808.798	-105.13
808.977	9.56
809.156	15.7
809.336	27.99
809.515	79.19
809.694	-2.73
809.873	-47.79
810.052	38.23
810.231	148.82
810.411	-74.41
810.59	46.42
810.769	15.7
810.948	34.13
811.127	-205.48
811.306	-51.88
811.485	-53.93
811.664	140.63
811.843	13.65
812.022	-60.07
812.201	36.18
812.38	32.08
812.559	-98.99
812.737	73.04
812.916	-88.75
813.095	11.61
813.274	75.09
813.453	3.41
813.632	32.08
813.811	42.32
813.989	-0.68
814.168	95.57
814.347	-76.46
814.526	-27.31
814.704	136.53
814.883	77.14
815.062	-139.94
815.24	58.71
815.419	-119.46
815.598	42.32
815.776	-92.84
815.955	-21.16
816.133	-98.99
816.312	-12.97
816.49	-39.59
816.669	-4.78
816.847	-55.98
817.026	9.56
817.204	-6.83
817.383	-23.21
817.561	-35.5
817.74	-2.73
817.918	-23.21
818.097	17.75
818.275	-80.55
818.453	13.65
818.632	-55.98
818.81	-51.88
818.988	13.65
819.167	-33.45
819.345	25.94
819.523	-49.83
819.701	-19.11
819.879	21.84
820.058	-15.02
820.236	-27.31
820.414	7.51
820.592	-39.59
820.77	-109.23
820.948	-43.69
821.127	-53.93
821.305	5.46
821.483	-164.52
821.661	44.37
821.839	-0.68
822.017	-60.07
822.195	5.46
822.373	36.18
822.551	54.61
822.729	27.99
822.907	23.89
823.085	42.32
823.262	-49.83
823.44	-64.17
823.618	-49.83
823.796	-39.59
823.974	-70.31
824.152	-15.02
824.329	32.08
824.507	9.56
824.685	-23.21
824.863	-72.36
825.04	-15.02
825.218	32.08
825.396	66.9
825.574	7.51
825.751	-2.73
825.929	-43.69
826.107	-82.6
826.284	-6.83
826.462	66.9
826.639	-72.36
826.817	-6.83
826.994	7.51
827.172	-66.22
827.349	130.39
827.527	-17.07
827.704	1.37
827.882	15.7
828.059	-64.17
828.237	34.13
828.414	42.32
828.591	-131.75
828.769	-19.11
828.946	-55.98
829.124	58.71
829.301	40.28
829.478	1.37
829.655	1.37
829.833	-47.79
830.01	-94.89
830.187	23.89
830.364	1.37
830.542	32.08
830.719	23.89
830.896	1.37
831.073	-19.11
831.25	54.61
831.427	-6.83
831.604	9.56
831.782	-103.08
831.959	13.65
832.136	-23.21
832.313	-25.26
832.49	-35.5
832.667	-6.83
832.844	-4.78
833.021	27.99
833.198	68.95
833.374	11.61
833.551	-41.64
833.728	-33.45
833.905	27.99
834.082	-76.46
834.259	-31.4
834.436	97.62
834.612	-12.97
834.789	-8.87
834.966	9.56
835.143	58.71
835.319	-27.31
835.496	42.32
835.673	7.51
835.85	-19.11
836.026	56.66
836.203	79.19
836.38	-21.16
836.556	-23.21
836.733	-19.11
836.909	56.66
837.086	44.37
837.262	-29.35
837.439	-23.21
837.616	-43.69
837.792	-12.97
837.968	-15.02
838.145	-72.36
838.321	-113.32
838.498	-27.31
838.674	-12.97
838.851	-49.83
839.027	-62.12
839.203	38.23
839.38	34.13
839.556	-15.02
839.732	87.38
839.909	-68.27
840.085	99.67
840.261	-107.18
840.437	1.37
840.614	-19.11
840.79	42.32
840.966	1.37
841.142	-29.35
841.318	17.75
841.494	-17.07
841.671	38.23
841.847	-25.26
842.023	-72.36
842.199	5.46
842.375	-12.97
842.551	-76.46
842.727	-107.18
842.903	89.43
843.079	-125.61
843.255	87.38
843.431	-55.98
843.607	36.18
843.783	-158.38
843.959	-47.79
844.134	-103.08
844.31	132.44
844.486	-17.07
844.662	-119.46
844.838	-23.21
845.013	62.8
845.189	116.05
845.365	-66.22
845.541	34.13
845.716	19.8
845.892	36.18
846.068	-94.89
846.244	-80.55
846.419	-45.74
846.595	-88.75
846.77	-68.27
846.946	56.66
847.122	5.46
847.297	-47.79
847.473	116.05
847.648	-129.7
847.824	87.38
847.999	-150.18
848.175	-25.26
848.35	75.09
848.526	23.89
848.701	48.47
848.876	-15.02
849.052	66.9
849.227	-96.94
849.403	15.7
849.578	-23.21
849.753	32.08
849.929	30.04
850.104	-84.65
850.279	-25.26
850.454	40.28
850.63	13.65
850.805	-49.83
850.98	-21.16
851.155	-146.09
851.33	11.61
851.505	-133.8
851.681	124.24
851.856	-17.07
852.031	17.75
852.206	32.08
852.381	-133.8
852.556	-10.92
852.731	58.71
852.906	50.52
853.081	-10.92
853.256	58.71
853.431	-47.79
853.606	-74.41
853.781	-68.27
853.956	-129.7
854.131	34.13
854.305	-43.69
854.48	-78.51
854.655	-64.17
854.83	-80.55
855.005	-105.13
855.18	-35.5
855.354	-41.64
855.529	50.52
855.704	-15.02
855.879	-27.31
856.053	-72.36
856.228	-25.26
856.403	-88.75
856.577	21.84
856.752	-103.08
856.926	-76.46
857.101	52.56
857.276	-109.23
857.45	58.71
857.625	-4.78
857.799	5.46
857.974	-55.98
858.148	-105.13
858.323	-41.64
858.497	-43.69
858.672	-51.88
858.846	-84.65
859.02	23.89
859.195	-88.75
859.369	-60.07
859.543	13.65
859.718	-31.4
859.892	-37.55
860.066	-117.42
860.241	-21.16
860.415	-88.75
860.589	-105.13
860.763	-29.35
860.938	-19.11
861.112	56.66
861.286	15.7
861.46	11.61
861.634	-2.73
861.808	-4.78
861.982	-53.93
862.157	-6.83
862.331	-55.98
862.505	-80.55
862.679	-119.46
862.853	-84.65
863.027	11.61
863.201	62.8
863.375	-105.13
863.549	64.85
863.722	3.41
863.896	68.95
864.07	-84.65
864.244	-37.55
864.418	19.8
864.592	11.61
864.766	-15.02
864.939	-33.45
865.113	-64.17
865.287	19.8
865.461	-158.38
865.634	-51.88
865.808	-31.4
865.982	-105.13
866.156	-12.97
866.329	-78.51
866.503	17.75
866.676	68.95
866.85	-41.64
867.024	-68.27
867.197	-41.64
867.371	9.56
867.544	-43.69
867.718	-80.55
867.891	132.44
868.065	-148.14
868.238	-70.31
868.412	-25.26
868.585	-74.41
868.759	-146.09
868.932	-25.26
869.105	-107.18
869.279	25.94
869.452	-139.94
869.625	5.46
869.799	-55.98
869.972	-135.85
870.145	-60.07
870.319	83.28
870.492	-15.02
870.665	-90.79
870.838	-82.6
871.011	-121.51
871.185	-29.35
871.358	-47.79
871.531	-17.07
871.704	13.65
871.877	-23.21
872.05	-15.02
872.223	-103.08
872.396	40.28
872.569	5.46
872.742	-105.13
872.915	-19.11
873.088	-27.31
873.261	-111.27
873.434	85.33
873.607	-31.4
873.78	99.67
873.953	-121.51
874.126	-29.35
874.299	-2.73
874.471	-43.69
874.644	-51.88
874.817	66.9
874.99	161.11
875.163	-8.87
875.335	-19.11
875.508	-107.18
875.681	42.32
875.853	-60.07
876.026	-47.79
876.199	34.13
876.371	-25.26
876.544	-68.27
876.717	-55.98
876.889	-88.75
877.062	15.7
877.234	-137.9
877.407	-64.17
877.579	-53.93
877.752	21.84
877.924	25.94
878.097	-10.92
878.269	-66.22
878.442	-10.92
878.614	46.42
878.786	-0.68
878.959	-78.51
879.131	-41.64
879.303	-103.08
879.476	-29.35
879.648	-10.92
879.82	-39.59
879.993	-76.46
880.165	-88.75
880.337	-55.98
880.509	32.08
880.681	-41.64
880.854	-80.55
881.026	1.37
881.198	-0.68
881.37	-66.22
881.542	34.13
881.714	-47.79
881.886	-19.11
882.058	-29.35
882.23	-47.79
882.402	-15.02
882.574	-35.5
882.746	-25.26
882.918	97.62
883.09	-19.11
883.262	25.94
883.434	56.66
883.606	-70.31
883.778	9.56
883.95	73.04
884.122	-113.32
884.293	1.37
884.465	-6.83
884.637	19.8
884.809	-58.03
884.98	-2.73
885.152	-41.64
885.324	7.51
885.496	-72.36
885.667	-90.79
885.839	-6.83
886.011	7.51
886.182	-6.83
886.354	5.46
886.525	13.65
886.697	9.56
886.869	-72.36
887.04	-60.07
887.212	60.76
887.383	58.71
887.555	-6.83
887.726	27.99
887.897	-47.79
888.069	-17.07
888.24	-25.26
888.412	-29.35
888.583	-117.42
888.754	-45.74
888.926	-137.9
889.097	-74.41
889.268	-76.46
889.44	-47.79
889.611	-58.03
889.782	-55.98
889.953	-47.79
890.125	17.75
890.296	-80.55
890.467	-35.5
890.638	27.99
890.809	-49.83
890.98	-37.55
891.151	-10.92
891.323	-15.02
891.494	-4.78
891.665	-33.45
891.836	-55.98
892.007	-25.26
892.178	89.43
892.349	5.46
892.52	-84.65
892.691	23.89
892.862	-72.36
893.032	-103.08
893.203	-76.46
893.374	-27.31
893.545	85.33
893.716	-129.7
893.887	3.41
894.057	-41.64
894.228	-55.98
894.399	-29.35
894.57	73.04
894.74	-74.41
894.911	42.32
895.082	-25.26
895.253	-60.07
895.423	-2.73
895.594	34.13
895.764	34.13
895.935	-133.8
896.106	15.7
896.276	-101.03
896.447	9.56
896.617	-156.33
896.788	-117.42
896.958	-37.55
897.129	-55.98
897.299	-62.12
897.47	81.24
897.64	-15.02
897.81	-37.55
897.981	-12.97
898.151	-64.17
898.322	15.7
898.492	-0.68
898.662	-127.66
898.832	-64.17
899.003	3.41
899.173	-72.36
899.343	-123.56
899.513	-98.99
