Data from USB4F104151__8__10-22-55-051.txt Node

Date: Wed Feb 26 10:22:55 EST 2025
User: louis
Spectrometer: USB4F10415
Trigger mode: 4
Integration Time (sec): 1.000000E-1
Scans to average: 1
Electric dark correction enabled: true
Nonlinearity correction enabled: false
Boxcar width: 0
XAxis mode: Wavelengths
Number of Pixels in Spectrum: 3648
>>>>>Begin Spectral Data<<<<<
178.204	-488.27
178.424	-488.27
178.644	-488.27
178.864	-375.63
179.084	-379.73
179.304	1.19
179.524	29.87
179.744	-19.29
179.964	13.48
180.184	81.07
180.404	64.68
180.624	15.53
180.844	5.29
181.064	-111.44
181.283	21.67
181.503	-95.06
181.723	-7
181.943	-21.33
182.163	144.55
182.383	-50
182.602	62.63
182.822	95.4
183.042	38.06
183.262	-33.62
183.482	-9.05
183.701	-0.85
183.921	83.11
184.141	-133.97
184.361	5.29
184.58	40.11
184.8	40.11
185.02	-0.85
185.239	95.4
185.459	31.91
185.679	11.43
185.898	-84.82
186.118	44.2
186.338	1.19
186.557	29.87
186.777	-27.48
186.997	7.34
187.216	40.11
187.436	169.13
187.655	97.45
187.875	38.06
188.095	-27.48
188.314	103.59
188.534	70.83
188.753	-80.72
188.973	189.61
189.192	115.88
189.412	-21.33
189.631	5.29
189.851	99.5
190.07	91.31
190.29	-27.48
190.509	-27.48
190.729	-9.05
190.948	146.6
191.168	216.23
191.387	-13.14
191.607	1.19
191.826	7.34
192.045	15.53
192.265	62.63
192.484	-13.14
192.704	-33.62
192.923	-56.15
193.142	208.04
193.362	29.87
193.581	103.59
193.8	25.77
194.02	101.55
194.239	19.63
194.458	119.98
194.678	1.19
194.897	56.49
195.116	9.39
195.335	56.49
195.555	17.58
195.774	56.49
195.993	107.69
196.212	-7
196.432	-29.52
196.651	62.63
196.87	-29.52
197.089	201.9
197.308	-56.15
197.528	27.82
197.747	-13.14
197.966	36.01
198.185	156.84
198.404	-9.05
198.623	117.93
198.842	109.74
199.062	91.31
199.281	91.31
199.5	-25.43
199.719	72.87
199.938	19.63
200.157	107.69
200.376	83.11
200.595	177.32
200.814	27.82
201.033	23.72
201.252	128.17
201.471	62.63
201.69	52.39
201.909	31.91
202.128	99.5
202.347	56.49
202.566	36.01
202.785	-88.92
203.004	-90.96
203.223	259.24
203.442	-52.05
203.661	-4.95
203.879	21.67
204.098	95.4
204.317	-17.24
204.536	89.26
204.755	3.24
204.974	83.11
205.193	-70.48
205.411	169.13
205.63	154.79
205.849	31.91
206.068	33.96
206.287	-68.44
206.505	136.36
206.724	-17.24
206.943	-13.14
207.162	-72.53
207.381	154.79
207.599	-70.48
207.818	-45.91
208.037	-15.19
208.255	-2.9
208.474	31.91
208.693	27.82
208.911	-9.05
209.13	33.96
209.349	-7
209.567	74.92
209.786	36.01
210.005	13.48
210.223	27.82
210.442	-72.53
210.661	33.96
210.879	17.58
211.098	-43.86
211.316	25.77
211.535	91.31
211.753	38.06
211.972	79.02
212.191	-31.57
212.409	-17.24
212.628	-0.85
212.846	-136.02
213.065	85.16
213.283	115.88
213.502	-50
213.72	-15.19
213.938	23.72
214.157	1.19
214.375	27.82
214.594	21.67
214.812	115.88
215.031	33.96
215.249	58.54
215.467	-33.62
215.686	9.39
215.904	95.4
216.122	15.53
216.341	128.17
216.559	5.29
216.778	122.02
216.996	97.45
217.214	-58.2
217.432	44.2
217.651	-35.67
217.869	11.43
218.087	-50
218.306	-7
218.524	44.2
218.742	36.01
218.96	97.45
219.179	33.96
219.397	-58.2
219.615	156.84
219.833	107.69
220.051	-17.24
220.27	146.6
220.488	29.87
220.706	107.69
220.924	-0.85
221.142	48.3
221.36	52.39
221.578	46.25
221.796	1.19
222.015	-76.63
222.233	25.77
222.451	160.94
222.669	-56.15
222.887	11.43
223.105	-9.05
223.323	56.49
223.541	-27.48
223.759	60.59
223.977	-47.96
224.195	142.5
224.413	46.25
224.631	29.87
224.849	60.59
225.067	171.18
225.285	23.72
225.503	29.87
225.721	-148.31
225.939	15.53
226.157	-7
226.375	158.89
226.592	1.19
226.81	-11.09
227.028	99.5
227.246	95.4
227.464	52.39
227.682	115.88
227.9	33.96
228.117	11.43
228.335	148.65
228.553	-31.57
228.771	36.01
228.989	38.06
229.206	83.11
229.424	52.39
229.642	-37.72
229.86	-19.29
230.077	119.98
230.295	13.48
230.513	132.26
230.731	13.48
230.948	124.07
231.166	97.45
231.384	-4.95
231.601	-17.24
231.819	195.75
232.037	-9.05
232.254	-23.38
232.472	-0.85
232.689	-21.33
232.907	134.31
233.125	21.67
233.342	11.43
233.56	-58.2
233.777	52.39
233.995	-95.06
234.213	97.45
234.43	134.31
234.648	23.72
234.865	87.21
235.083	79.02
235.3	3.24
235.518	113.83
235.735	134.31
235.953	52.39
236.17	-4.95
236.388	31.91
236.605	27.82
236.822	111.78
237.04	64.68
237.257	101.55
237.475	-25.43
237.692	66.73
237.909	160.94
238.127	-23.38
238.344	7.34
238.562	1.19
238.779	-150.36
238.996	-23.38
239.214	38.06
239.431	38.06
239.648	-19.29
239.865	111.78
240.083	44.2
240.3	48.3
240.517	-56.15
240.735	89.26
240.952	140.46
241.169	70.83
241.386	3.24
241.603	-31.57
241.821	-97.11
242.038	95.4
242.255	83.11
242.472	-99.16
242.689	54.44
242.907	1.19
243.124	36.01
243.341	25.77
243.558	-33.62
243.775	-43.86
243.992	-27.48
244.209	38.06
244.426	91.31
244.643	9.39
244.86	23.72
245.078	72.87
245.295	1.19
245.512	40.11
245.729	-35.67
245.946	40.11
246.163	70.83
246.38	-50
246.597	56.49
246.814	-7
247.031	-21.33
247.248	-0.85
247.464	42.15
247.681	-4.95
247.898	54.44
248.115	52.39
248.332	5.29
248.549	154.79
248.766	107.69
248.983	-0.85
249.2	36.01
249.417	13.48
249.633	17.58
249.85	-13.14
250.067	36.01
250.284	152.74
250.501	25.77
250.717	54.44
250.934	-9.05
251.151	-37.72
251.368	-9.05
251.585	124.07
251.801	-7
252.018	-76.63
252.235	115.88
252.451	-148.31
252.668	25.77
252.885	9.39
253.102	-11.09
253.318	-88.92
253.535	7.34
253.752	58.54
253.968	-11.09
254.185	-109.4
254.401	27.82
254.618	-45.91
254.835	-17.24
255.051	113.83
255.268	79.02
255.484	117.93
255.701	29.87
255.917	19.63
256.134	3.24
256.351	15.53
256.567	17.58
256.784	-2.9
257	-90.96
257.217	99.5
257.433	50.35
257.65	-19.29
257.866	87.21
258.082	-50
258.299	15.53
258.515	1.19
258.732	-56.15
258.948	13.48
259.165	87.21
259.381	-101.2
259.597	25.77
259.814	1.19
260.03	-2.9
260.246	-58.2
260.463	25.77
260.679	70.83
260.895	48.3
261.112	25.77
261.328	-39.76
261.544	-25.43
261.761	109.74
261.977	-21.33
262.193	-29.52
262.409	31.91
262.626	7.34
262.842	99.5
263.058	9.39
263.274	70.83
263.49	83.11
263.707	54.44
263.923	97.45
264.139	-121.68
264.355	-25.43
264.571	101.55
264.787	79.02
265.004	105.64
265.22	-11.09
265.436	29.87
265.652	-25.43
265.868	5.29
266.084	-113.49
266.3	5.29
266.516	-64.34
266.732	48.3
266.948	38.06
267.164	23.72
267.38	128.17
267.596	25.77
267.812	132.26
268.028	27.82
268.244	46.25
268.46	21.67
268.676	-95.06
268.892	68.78
269.108	5.29
269.324	-80.72
269.54	-68.44
269.756	72.87
269.972	-54.1
270.188	60.59
270.403	-27.48
270.619	-7
270.835	-4.95
271.051	76.97
271.267	-27.48
271.483	-23.38
271.698	66.73
271.914	50.35
272.13	52.39
272.346	36.01
272.562	52.39
272.777	60.59
272.993	13.48
273.209	52.39
273.425	11.43
273.64	-82.77
273.856	91.31
274.072	-39.76
274.287	-72.53
274.503	70.83
274.719	70.83
274.934	-7
275.15	-60.24
275.366	-15.19
275.581	21.67
275.797	-29.52
276.012	44.2
276.228	17.58
276.444	-54.1
276.659	173.22
276.875	-41.81
277.09	-2.9
277.306	48.3
277.521	38.06
277.737	62.63
277.952	76.97
278.168	68.78
278.383	-21.33
278.599	33.96
278.814	128.17
279.03	1.19
279.245	93.35
279.461	7.34
279.676	117.93
279.892	-37.72
280.107	-105.3
280.322	-7
280.538	89.26
280.753	-41.81
280.969	36.01
281.184	42.15
281.399	97.45
281.615	-37.72
281.83	42.15
282.045	-86.87
282.26	-11.09
282.476	15.53
282.691	91.31
282.906	89.26
283.122	81.07
283.337	-4.95
283.552	-2.9
283.767	19.63
283.983	85.16
284.198	21.67
284.413	52.39
284.628	-80.72
284.843	52.39
285.058	7.34
285.274	-9.05
285.489	-68.44
285.704	138.41
285.919	17.58
286.134	-2.9
286.349	7.34
286.564	-45.91
286.779	117.93
286.995	21.67
287.21	-125.78
287.425	-0.85
287.64	-41.81
287.855	-78.68
288.07	-43.86
288.285	79.02
288.5	95.4
288.715	-43.86
288.93	1.19
289.145	-11.09
289.36	173.22
289.575	21.67
289.79	124.07
290.004	48.3
290.219	136.36
290.434	-21.33
290.649	-9.05
290.864	-17.24
291.079	13.48
291.294	21.67
291.509	107.69
291.724	46.25
291.938	56.49
292.153	17.58
292.368	7.34
292.583	93.35
292.798	72.87
293.012	-13.14
293.227	107.69
293.442	-4.95
293.657	38.06
293.871	144.55
294.086	81.07
294.301	144.55
294.516	38.06
294.73	50.35
294.945	15.53
295.16	9.39
295.374	79.02
295.589	85.16
295.804	-39.76
296.018	36.01
296.233	138.41
296.447	97.45
296.662	52.39
296.877	126.12
297.091	81.07
297.306	-0.85
297.52	38.06
297.735	93.35
297.949	31.91
298.164	76.97
298.378	-11.09
298.593	-103.25
298.807	1.19
299.022	-0.85
299.236	107.69
299.451	-15.19
299.665	-19.29
299.88	-15.19
300.094	68.78
300.309	5.29
300.523	33.96
300.737	-11.09
300.952	5.29
301.166	19.63
301.381	-31.57
301.595	-9.05
301.809	95.4
302.024	40.11
302.238	38.06
302.452	87.21
302.667	91.31
302.881	124.07
303.095	128.17
303.309	70.83
303.524	36.01
303.738	-4.95
303.952	-7
304.166	62.63
304.381	-172.88
304.595	68.78
304.809	-45.91
305.023	9.39
305.237	-0.85
305.452	-47.96
305.666	62.63
305.88	70.83
306.094	109.74
306.308	-56.15
306.522	62.63
306.736	66.73
306.95	85.16
307.164	56.49
307.379	19.63
307.593	44.2
307.807	185.51
308.021	44.2
308.235	-29.52
308.449	-23.38
308.663	64.68
308.877	201.9
309.091	-2.9
309.305	-23.38
309.519	-76.63
309.733	144.55
309.947	-58.2
310.161	17.58
310.374	-23.38
310.588	97.45
310.802	-64.34
311.016	-9.05
311.23	66.73
311.444	-21.33
311.658	13.48
311.872	109.74
312.085	142.5
312.299	62.63
312.513	68.78
312.727	-15.19
312.941	1.19
313.154	52.39
313.368	42.15
313.582	15.53
313.796	56.49
314.009	46.25
314.223	171.18
314.437	44.2
314.651	85.16
314.864	-60.24
315.078	13.48
315.292	-109.4
315.505	-9.05
315.719	72.87
315.933	21.67
316.146	33.96
316.36	-52.05
316.573	107.69
316.787	72.87
317.001	103.59
317.214	-52.05
317.428	-15.19
317.641	-33.62
317.855	29.87
318.068	-9.05
318.282	58.54
318.495	117.93
318.709	3.24
318.922	31.91
319.136	119.98
319.349	107.69
319.563	-58.2
319.776	126.12
319.99	-68.44
320.203	99.5
320.417	44.2
320.63	132.26
320.843	136.36
321.057	5.29
321.27	-0.85
321.483	31.91
321.697	105.64
321.91	56.49
322.124	-33.62
322.337	56.49
322.55	-76.63
322.763	-62.29
322.977	-2.9
323.19	-78.68
323.403	-50
323.617	76.97
323.83	93.35
324.043	52.39
324.256	76.97
324.469	-19.29
324.683	91.31
324.896	-33.62
325.109	46.25
325.322	-82.77
325.535	29.87
325.748	-15.19
325.962	-50
326.175	-4.95
326.388	-25.43
326.601	107.69
326.814	-11.09
327.027	103.59
327.24	119.98
327.453	-95.06
327.666	-11.09
327.879	113.83
328.092	115.88
328.305	68.78
328.518	-19.29
328.731	-35.67
328.944	-7
329.157	29.87
329.37	-78.68
329.583	171.18
329.796	146.6
330.009	-82.77
330.222	93.35
330.435	124.07
330.648	62.63
330.861	48.3
331.073	-2.9
331.286	87.21
331.499	7.34
331.712	-60.24
331.925	66.73
332.138	17.58
332.35	-7
332.563	19.63
332.776	128.17
332.989	-56.15
333.202	9.39
333.414	70.83
333.627	31.91
333.84	5.29
334.053	-4.95
334.265	-4.95
334.478	-19.29
334.691	-25.43
334.903	3.24
335.116	-31.57
335.329	19.63
335.541	119.98
335.754	87.21
335.966	-62.29
336.179	38.06
336.392	36.01
336.604	-4.95
336.817	40.11
337.029	72.87
337.242	25.77
337.454	105.64
337.667	21.67
337.88	185.51
338.092	31.91
338.305	62.63
338.517	-58.2
338.729	105.64
338.942	95.4
339.154	-23.38
339.367	-70.48
339.579	70.83
339.792	1.19
340.004	60.59
340.217	-17.24
340.429	29.87
340.641	-72.53
340.854	-41.81
341.066	-4.95
341.278	62.63
341.491	97.45
341.703	-15.19
341.915	-88.92
342.128	117.93
342.34	167.08
342.552	-74.58
342.764	-31.57
342.977	11.43
343.189	89.26
343.401	119.98
343.613	-90.96
343.826	11.43
344.038	-64.34
344.25	1.19
344.462	44.2
344.674	17.58
344.886	-2.9
345.099	93.35
345.311	76.97
345.523	-47.96
345.735	-88.92
345.947	138.41
346.159	33.96
346.371	-76.63
346.583	21.67
346.795	177.32
347.007	64.68
347.219	54.44
347.431	1.19
347.643	83.11
347.855	48.3
348.067	93.35
348.279	-13.14
348.491	-19.29
348.703	-2.9
348.915	-4.95
349.127	-105.3
349.339	-17.24
349.551	-21.33
349.763	-27.48
349.975	-43.86
350.187	36.01
350.399	122.02
350.61	93.35
350.822	38.06
351.034	62.63
351.246	124.07
351.458	52.39
351.669	99.5
351.881	27.82
352.093	62.63
352.305	103.59
352.517	-23.38
352.728	122.02
352.94	23.72
353.152	7.34
353.363	-58.2
353.575	62.63
353.787	130.22
353.999	31.91
354.21	132.26
354.422	-50
354.633	-31.57
354.845	-43.86
355.057	50.35
355.268	-9.05
355.48	21.67
355.692	-21.33
355.903	95.4
356.115	-35.67
356.326	-52.05
356.538	111.78
356.749	142.5
356.961	38.06
357.172	36.01
357.384	-4.95
357.595	185.51
357.807	-29.52
358.018	-2.9
358.23	-52.05
358.441	48.3
358.653	38.06
358.864	-33.62
359.075	-84.82
359.287	38.06
359.498	74.92
359.709	115.88
359.921	-17.24
360.132	-2.9
360.344	11.43
360.555	42.15
360.766	19.63
360.977	3.24
361.189	50.35
361.4	-17.24
361.611	101.55
361.823	81.07
362.034	-11.09
362.245	-41.81
362.456	93.35
362.667	62.63
362.879	-13.14
363.09	68.78
363.301	54.44
363.512	44.2
363.723	-64.34
363.935	-41.81
364.146	66.73
364.357	9.39
364.568	-29.52
364.779	-127.83
364.99	85.16
365.201	-93.01
365.412	165.03
365.623	-64.34
365.834	42.15
366.045	13.48
366.256	-19.29
366.467	79.02
366.678	-11.09
366.889	21.67
367.1	-52.05
367.311	36.01
367.522	-107.35
367.733	74.92
367.944	62.63
368.155	46.25
368.366	70.83
368.577	109.74
368.788	115.88
368.999	25.77
369.209	36.01
369.42	138.41
369.631	179.37
369.842	64.68
370.053	25.77
370.264	54.44
370.474	-11.09
370.685	40.11
370.896	107.69
371.107	109.74
371.317	19.63
371.528	3.24
371.739	111.78
371.95	101.55
372.16	27.82
372.371	-70.48
372.582	-29.52
372.792	50.35
373.003	7.34
373.214	91.31
373.424	119.98
373.635	-97.11
373.846	179.37
374.056	11.43
374.267	-33.62
374.477	36.01
374.688	-47.96
374.898	52.39
375.109	-23.38
375.319	-72.53
375.53	144.55
375.74	97.45
375.951	-0.85
376.161	72.87
376.372	64.68
376.582	31.91
376.793	85.16
377.003	-31.57
377.214	-45.91
377.424	23.72
377.635	48.3
377.845	-50
378.055	33.96
378.266	-105.3
378.476	115.88
378.686	3.24
378.897	-13.14
379.107	68.78
379.317	36.01
379.528	-50
379.738	5.29
379.948	-131.92
380.158	171.18
380.369	36.01
380.579	66.73
380.789	23.72
380.999	79.02
381.21	122.02
381.42	132.26
381.63	25.77
381.84	105.64
382.05	146.6
382.261	93.35
382.471	79.02
382.681	3.24
382.891	162.98
383.101	134.31
383.311	-39.76
383.521	-25.43
383.731	-13.14
383.941	79.02
384.151	-29.52
384.361	64.68
384.571	81.07
384.781	50.35
384.991	83.11
385.201	162.98
385.411	48.3
385.621	91.31
385.831	40.11
386.041	54.44
386.251	-33.62
386.461	-43.86
386.671	-4.95
386.881	-39.76
387.091	-72.53
387.301	117.93
387.511	58.54
387.72	68.78
387.93	95.4
388.14	-111.44
388.35	64.68
388.56	25.77
388.769	89.26
388.979	109.74
389.189	-45.91
389.399	44.2
389.609	52.39
389.818	103.59
390.028	38.06
390.238	42.15
390.447	66.73
390.657	-7
390.867	29.87
391.076	-84.82
391.286	5.29
391.496	-35.67
391.705	-62.29
391.915	181.42
392.125	97.45
392.334	-41.81
392.544	103.59
392.753	9.39
392.963	-115.54
393.172	42.15
393.382	-13.14
393.591	146.6
393.801	-23.38
394.01	197.8
394.22	62.63
394.429	56.49
394.639	-47.96
394.848	31.91
395.058	99.5
395.267	-19.29
395.477	33.96
395.686	48.3
395.895	150.7
396.105	232.62
396.314	48.3
396.524	1.19
396.733	-2.9
396.942	130.22
397.152	-43.86
397.361	1.19
397.57	44.2
397.78	5.29
397.989	38.06
398.198	181.42
398.407	-0.85
398.617	15.53
398.826	40.11
399.035	7.34
399.244	85.16
399.453	13.48
399.663	-0.85
399.872	-9.05
400.081	-43.86
400.29	85.16
400.499	-15.19
400.708	54.44
400.917	13.48
401.127	-13.14
401.336	11.43
401.545	115.88
401.754	54.44
401.963	107.69
402.172	-35.67
402.381	-33.62
402.59	-0.85
402.799	-17.24
403.008	38.06
403.217	60.59
403.426	83.11
403.635	-80.72
403.844	-23.38
404.053	74.92
404.262	11.43
404.471	160.94
404.68	50.35
404.888	50.35
405.097	-0.85
405.306	-21.33
405.515	95.4
405.724	42.15
405.933	27.82
406.142	52.39
406.35	36.01
406.559	36.01
406.768	-15.19
406.977	83.11
407.185	36.01
407.394	5.29
407.603	-62.29
407.812	128.17
408.02	81.07
408.229	38.06
408.438	74.92
408.646	7.34
408.855	-23.38
409.064	7.34
409.272	58.54
409.481	87.21
409.69	-47.96
409.898	-97.11
410.107	62.63
410.315	74.92
410.524	-37.72
410.733	11.43
410.941	3.24
411.15	91.31
411.358	66.73
411.567	179.37
411.775	85.16
411.984	17.58
412.192	132.26
412.401	-31.57
412.609	85.16
412.818	173.22
413.026	66.73
413.234	5.29
413.443	-35.67
413.651	7.34
413.86	46.25
414.068	142.5
414.276	107.69
414.485	-35.67
414.693	119.98
414.901	111.78
415.11	23.72
415.318	103.59
415.526	58.54
415.734	70.83
415.943	25.77
416.151	146.6
416.359	-43.86
416.567	64.68
416.776	130.22
416.984	68.78
417.192	193.7
417.4	-47.96
417.608	9.39
417.817	-80.72
418.025	109.74
418.233	130.22
418.441	23.72
418.649	13.48
418.857	29.87
419.065	136.36
419.273	62.63
419.481	-7
419.689	-66.39
419.897	21.67
420.105	-88.92
420.313	81.07
420.521	74.92
420.729	128.17
420.937	33.96
421.145	31.91
421.353	-7
421.561	119.98
421.769	46.25
421.977	-54.1
422.185	81.07
422.393	27.82
422.601	171.18
422.809	74.92
423.017	68.78
423.224	79.02
423.432	224.42
423.64	25.77
423.848	119.98
424.056	-11.09
424.263	122.02
424.471	52.39
424.679	99.5
424.887	-39.76
425.094	154.79
425.302	87.21
425.51	5.29
425.718	-0.85
425.925	3.24
426.133	-9.05
426.341	197.8
426.548	50.35
426.756	46.25
426.964	93.35
427.171	-45.91
427.379	68.78
427.586	38.06
427.794	83.11
428.001	124.07
428.209	66.73
428.417	148.65
428.624	52.39
428.832	70.83
429.039	-0.85
429.247	64.68
429.454	99.5
429.662	228.52
429.869	44.2
430.076	109.74
430.284	132.26
430.491	160.94
430.699	115.88
430.906	195.75
431.114	119.98
431.321	111.78
431.528	76.97
431.736	154.79
431.943	101.55
432.15	95.4
432.358	175.27
432.565	212.14
432.772	9.39
432.979	232.62
433.187	181.42
433.394	224.42
433.601	46.25
433.808	136.36
434.016	222.38
434.223	187.56
434.43	171.18
434.637	224.42
434.844	246.95
435.052	220.33
435.259	230.57
435.466	214.18
435.673	273.57
435.88	269.48
436.087	220.33
436.294	271.53
436.501	269.48
436.708	230.57
436.915	212.14
437.122	294.05
437.329	187.56
437.537	142.5
437.743	289.96
437.95	324.77
438.157	242.85
438.364	238.76
438.571	271.53
438.778	345.25
438.985	341.16
439.192	339.11
439.399	367.78
439.606	351.4
439.813	494.76
440.02	509.09
440.227	584.87
440.433	459.94
440.64	375.97
440.847	427.17
441.054	582.82
441.261	578.72
441.467	539.81
441.674	496.8
441.881	625.83
442.088	433.32
442.294	611.49
442.501	660.64
442.708	730.27
442.914	623.78
443.121	638.11
443.328	636.06
443.534	763.04
443.741	717.98
443.948	648.35
444.154	804
444.361	959.64
444.568	773.28
444.774	808.09
444.981	826.53
445.187	1025.18
445.394	994.46
445.6	914.59
445.807	990.36
446.013	1055.9
446.22	998.56
446.426	1094.81
446.633	1154.2
446.839	1375.38
447.046	1170.58
447.252	1453.2
447.459	1244.31
447.665	1397.91
447.871	1500.31
448.078	1612.95
448.284	1688.72
448.491	1664.15
448.697	1760.4
448.903	1807.5
449.11	1918.09
449.316	1791.12
449.522	1950.86
449.728	2088.07
449.935	2000.01
450.141	2079.88
450.347	2362.5
450.553	2215.05
450.76	2241.67
450.966	2485.38
451.172	2438.28
451.378	2589.83
451.584	2622.59
451.791	2993.28
451.997	2944.13
452.203	3157.11
452.409	3128.44
452.615	3261.56
452.821	3110.01
453.027	3216.51
453.233	3736.69
453.44	3540.08
453.646	3646.58
453.852	3794.03
454.058	4000.88
454.264	4195.43
454.47	4465.77
454.676	4260.97
454.882	4670.56
455.088	4514.92
455.294	4838.5
455.5	5215.32
455.705	5510.23
455.911	5512.28
456.117	5528.66
456.323	5985.36
456.529	5860.43
456.735	6360.14
456.941	6818.88
457.147	6736.96
457.352	6964.29
457.558	7109.69
457.764	7705.65
457.97	7773.24
458.176	8131.63
458.381	8297.52
458.587	8610.86
458.793	9141.28
458.999	9055.26
459.204	10124.3
459.41	10578.95
459.616	10261.52
459.821	11072.51
460.027	11537.4
460.233	12053.49
460.438	12336.11
460.644	12727.27
460.85	13071.33
461.055	13556.7
461.261	13921.24
461.466	13777.88
461.672	14017.49
461.878	15627.2
462.083	15250.37
462.289	15819.71
462.494	16692.14
462.7	16544.69
462.905	16647.08
463.111	18076.57
463.316	18983.82
463.522	19157.89
463.727	19999.61
463.932	20798.32
464.138	21484.39
464.343	22047.58
464.549	22231.9
464.754	23935.81
464.959	24771.38
465.165	24908.59
465.37	25246.51
465.575	24812.34
465.781	26596.12
465.986	27173.64
466.191	26743.57
466.397	27069.2
466.602	26778.39
466.807	28273.4
467.012	28158.72
467.218	28816.11
467.423	28902.13
467.628	29893.35
467.833	31195.85
468.038	30421.72
468.244	30276.32
468.449	31701.7
468.654	31029.97
468.859	31085.26
469.064	31083.22
469.269	30421.72
469.474	30481.11
469.679	31394.51
469.885	30649.05
470.09	31341.26
470.295	30980.82
470.5	30257.88
470.705	30579.42
470.91	29852.39
471.115	29915.87
471.32	29870.82
471.525	29561.58
471.73	29223.66
471.935	28863.22
472.139	27484.94
472.344	27720.45
472.549	27187.98
472.754	26999.57
472.959	26272.54
473.164	25232.17
473.369	25334.57
473.574	25750.31
473.778	25133.87
473.983	24705.84
474.188	24386.36
474.393	23106.38
474.598	23106.38
474.802	22803.28
475.007	22561.62
475.212	22268.76
475.417	20867.95
475.621	20921.2
475.826	20945.77
476.031	20460.4
476.235	19997.56
476.44	20030.33
476.645	19512.19
476.849	19440.51
477.054	18604.94
477.259	18508.69
477.463	18492.3
477.668	17961.88
477.872	18086.81
478.077	17376.16
478.282	17109.93
478.486	16737.2
478.691	16501.68
478.895	16337.84
479.1	16397.23
479.304	16288.69
479.509	15864.76
479.713	15889.34
479.918	15625.15
480.122	15258.56
480.326	15352.77
480.531	15264.71
480.735	14941.13
480.94	14848.97
481.144	15408.06
481.348	14580.68
481.553	14724.04
481.757	14003.16
481.961	14482.38
482.166	14420.94
482.37	14175.19
482.574	13867.99
482.778	13751.26
482.983	14171.09
483.187	13863.9
483.391	13685.72
483.595	13327.33
483.8	13095.91
484.004	13413.34
484.208	13110.24
484.412	12981.22
484.616	12829.67
484.821	12606.44
485.025	12293.1
485.229	12590.06
485.433	12237.81
485.637	12049.39
485.841	11877.37
486.045	11752.44
486.249	11842.55
486.453	11527.16
486.657	11324.41
486.861	11099.14
487.065	10753.03
487.269	10802.18
487.473	10284.05
487.677	10517.51
487.881	10511.37
488.085	9944.08
488.289	10144.78
488.493	9770.01
488.697	9913.36
488.901	9509.91
489.105	9151.52
489.309	9040.93
489.512	8840.23
489.716	9026.59
489.92	8860.71
490.124	8373.29
490.328	8467.5
490.531	8184.88
490.735	8068.14
490.939	7851.06
491.143	7705.65
491.346	7717.94
491.55	7439.42
491.754	7476.28
491.958	7189.56
492.161	7164.99
492.365	7142.46
492.569	6876.23
492.772	6786.12
492.976	6837.31
493.18	6528.07
493.383	6503.5
493.587	6583.37
493.79	6415.43
493.994	6298.7
494.197	6167.63
494.401	6270.03
494.605	5903.44
494.808	5981.26
495.012	5971.02
495.215	5993.55
495.419	5887.06
495.622	5803.09
495.825	5706.84
496.029	5680.21
496.232	5688.4
496.436	5708.88
496.639	5788.75
496.843	5442.65
497.046	5620.82
497.249	5764.18
497.453	5731.41
497.656	5626.96
497.859	5545.05
498.063	5723.22
498.266	5649.49
498.469	5522.52
498.673	5454.94
498.876	5676.12
499.079	5735.51
499.282	5758.03
499.485	5737.56
499.689	5854.29
499.892	5794.9
500.095	5600.34
500.298	5837.91
500.501	5844.05
500.705	5823.57
500.908	5837.91
501.111	5987.41
501.314	6036.56
501.517	5962.83
501.72	6095.95
501.923	5985.36
502.126	6315.08
502.329	6335.56
502.532	6267.98
502.735	6382.67
502.938	6440.01
503.141	6470.73
503.344	6397
503.547	6614.09
503.75	6607.94
503.953	6745.16
504.156	6757.44
504.359	6843.46
504.562	7040.06
504.765	6880.32
504.968	7148.61
505.17	7304.25
505.373	7406.65
505.576	7500.86
505.779	7418.94
505.982	7554.1
506.185	7844.91
506.387	7851.06
506.59	8057.9
506.793	8076.34
506.996	8352.81
507.198	8592.42
507.401	8676.39
507.604	8838.18
507.807	8940.58
508.009	9065.5
508.212	9344.03
508.415	9315.36
508.617	9704.47
508.82	9964.56
509.022	9710.61
509.225	10044.43
509.428	10314.77
509.63	10265.61
509.833	10392.59
510.035	11222.02
510.238	11041.79
510.44	11226.11
510.643	11668.47
510.845	11893.75
511.048	11957.24
511.25	12293.1
511.453	12555.24
511.655	13235.17
511.858	13253.6
512.06	13462.49
512.262	13708.25
512.465	13945.81
512.667	14015.44
512.87	14646.22
513.072	15016.9
513.274	15313.86
513.477	15477.69
513.679	16022.45
513.881	16270.26
514.084	16575.41
514.286	16667.56
514.488	17257.38
514.69	17771.42
514.893	17886.11
515.095	18492.3
515.297	18770.83
515.499	19360.64
515.701	19565.44
515.904	20024.19
516.106	20437.87
516.308	20650.86
516.51	21310.31
516.712	21330.79
516.914	21799.77
517.116	22518.61
517.318	22756.18
517.52	23180.1
517.722	23173.96
517.925	23849.79
518.127	24578.87
518.329	24828.72
518.531	24689.46
518.733	25381.67
518.935	25916.19
519.136	26297.11
519.338	26782.48
519.54	27194.12
519.742	27089.68
519.944	27652.87
520.146	28271.36
520.348	28838.64
520.55	29010.67
520.752	29078.25
520.954	29901.54
521.155	29721.32
521.357	30370.52
521.559	30821.08
521.761	31357.64
521.963	31224.53
522.164	31691.46
522.366	31644.36
522.568	32334.53
522.77	32500.41
522.971	32799.41
523.173	32901.81
523.375	33411.76
523.576	33188.53
523.778	32768.69
523.98	33702.57
524.181	33774.25
524.383	33886.89
524.584	34024.1
524.786	33626.79
524.988	33657.51
525.189	34290.34
525.391	34013.86
525.592	34321.05
525.794	33966.76
525.995	34011.81
526.197	33864.36
526.398	34130.59
526.6	34126.5
526.801	33940.13
527.003	34071.2
527.204	33725.1
527.406	33659.56
527.607	33639.08
527.808	33557.16
528.01	32819.89
528.211	32664.25
528.412	33073.84
528.614	32783.03
528.815	32463.55
529.016	32563.9
529.218	31793.86
529.419	31662.79
529.62	31632.07
529.822	31128.27
530.023	30665.43
530.224	30505.69
530.425	29879.01
530.626	29709.03
530.828	29281
531.029	29489.9
531.23	28736.24
531.431	28592.89
531.632	28394.23
531.833	28070.65
532.035	27597.57
532.236	27536.13
532.437	27044.62
532.638	26639.12
532.839	26530.58
533.04	26092.32
533.241	25686.82
533.442	25895.71
533.643	24933.17
533.844	24570.68
534.045	24437.56
534.246	24019.77
534.447	23843.65
534.648	23401.29
534.849	23245.64
535.05	22707.02
535.251	22283.09
535.451	22104.92
535.652	21924.7
535.853	21789.53
536.054	21500.77
536.255	21066.6
536.456	20419.44
536.657	20583.28
536.857	20073.34
537.058	19864.44
537.259	19878.78
537.46	19559.3
537.66	19186.57
537.861	18793.36
538.062	18725.77
538.263	18365.33
538.463	18166.68
538.664	18021.27
538.865	17552.29
539.065	17646.49
539.266	17167.27
539.466	16980.9
539.667	16708.52
539.868	16714.67
540.068	16229.3
540.269	16149.43
540.469	16239.54
540.67	15825.85
540.87	15813.56
541.071	15399.87
541.271	15524.8
541.472	15143.88
541.672	15098.82
541.873	14560.2
542.073	14322.64
542.274	14443.47
542.474	14228.43
542.675	13835.22
542.875	14009.3
543.075	13755.35
543.276	13562.84
543.476	13669.34
543.676	13439.97
543.877	13210.59
544.077	12954.6
544.277	13042.66
544.478	12821.48
544.678	12471.28
544.878	12479.47
545.078	12215.28
545.279	12114.93
545.479	12067.83
545.679	11903.99
545.879	11674.62
546.079	11643.9
546.28	11490.3
546.48	11219.97
546.68	11279.36
546.88	11174.91
547.08	11060.23
547.28	10906.63
547.48	10679.3
547.68	10882.05
547.88	10363.92
548.081	10408.97
548.281	10159.12
548.481	9755.67
548.681	10126.35
548.881	9872.4
549.081	9841.68
549.28	9524.25
549.48	9440.28
549.68	9131.04
549.88	9266.21
550.08	8924.19
550.28	9075.74
550.48	8789.03
550.68	8754.21
550.88	8612.9
551.08	8510.5
551.279	8512.55
551.479	8199.21
551.679	7982.13
551.879	7898.16
552.079	7877.68
552.278	7812.15
552.478	7765.04
552.678	7570.49
552.878	7361.59
553.077	7359.55
553.277	7013.44
553.477	7033.92
553.676	7099.45
553.876	6853.7
554.076	6702.15
554.275	6710.34
554.475	6370.38
554.674	6497.35
554.874	6274.12
555.074	6290.51
555.273	6249.55
555.473	6067.28
555.672	5909.58
555.872	5825.62
556.071	5897.3
556.271	5565.53
556.47	5528.66
556.67	5516.37
556.869	5395.54
557.068	5575.77
557.268	5229.66
557.467	5008.48
557.667	5205.08
557.866	4916.32
558.065	4732
558.265	4875.36
558.464	4635.75
558.663	4656.23
558.863	4553.83
559.062	4711.52
559.261	4441.19
559.461	4486.25
559.66	4310.12
559.859	4256.87
560.058	4109.42
560.258	4076.65
560.457	3865.71
560.656	4179.05
560.855	3861.62
561.054	4009.07
561.253	3867.76
561.453	3667.06
561.652	3769.46
561.851	3658.87
562.05	3593.33
562.249	3370.1
562.448	3372.15
562.647	3382.39
562.846	3155.07
563.045	3294.33
563.244	3118.2
563.443	3357.82
563.642	3177.59
563.841	3132.54
564.04	3005.56
564.239	2925.69
564.438	3060.86
564.637	2888.83
564.836	2819.2
565.035	2753.66
565.234	2749.57
565.432	2753.66
565.631	2751.62
565.83	2784.38
566.029	2688.13
566.228	2497.67
566.427	2800.77
566.625	2473.09
566.824	2475.14
567.023	2450.57
567.222	2251.91
567.42	2235.53
567.619	2296.97
567.818	2200.71
568.016	2385.03
568.215	2253.96
568.414	2313.35
568.612	2081.93
568.811	2081.93
569.01	2131.08
569.208	1991.82
569.407	2079.88
569.605	1991.82
569.804	2026.64
570.002	2061.45
570.201	1864.85
570.4	2049.16
570.598	1766.54
570.797	1889.42
570.995	1715.34
571.193	1723.54
571.392	1842.32
571.59	1678.48
571.789	1709.2
571.987	1692.82
572.186	1791.12
572.384	1664.15
572.582	1678.48
572.781	1723.54
572.979	1559.7
573.177	1574.03
573.376	1545.36
573.574	1569.94
573.772	1500.31
573.971	1361.05
574.169	1270.94
574.367	1330.33
574.565	1361.05
574.763	1303.7
574.962	1291.41
575.16	1311.89
575.358	1170.58
575.556	1311.89
575.754	1221.78
575.952	1242.26
576.151	1266.84
576.349	1262.74
576.547	1023.13
576.745	1113.24
576.943	1180.82
577.141	1004.7
577.339	1031.32
577.537	1103
577.735	1168.54
577.933	1043.61
578.131	949.4
578.329	1129.63
578.527	937.12
578.725	1045.66
578.923	851.1
579.121	1021.08
579.319	804
579.516	967.84
579.714	1150.11
579.912	961.69
580.11	767.13
580.308	875.68
580.506	826.53
580.704	705.7
580.901	724.13
581.099	863.39
581.297	734.37
581.495	904.35
581.692	777.37
581.89	879.77
582.088	820.38
582.285	775.33
582.483	758.94
582.681	756.9
582.878	687.26
583.076	636.06
583.274	730.27
583.471	869.53
583.669	750.75
583.866	584.87
584.064	615.59
584.262	603.3
584.459	566.43
584.657	646.3
584.854	621.73
585.052	740.51
585.249	724.13
585.447	550.05
585.644	543.91
585.841	615.59
586.039	584.87
586.236	562.34
586.434	529.57
586.631	521.38
586.828	515.23
587.026	509.09
587.223	447.65
587.42	478.37
587.618	550.05
587.815	535.71
588.012	511.14
588.21	498.85
588.407	548
588.604	412.84
588.801	369.83
588.999	468.13
589.196	548
589.393	404.64
589.59	519.33
589.787	492.71
589.984	447.65
590.182	457.89
590.379	324.77
590.576	398.5
590.773	443.56
590.97	380.07
591.167	455.84
591.364	554.15
591.561	421.03
591.758	492.71
591.955	470.18
592.152	324.77
592.349	365.73
592.546	392.36
592.743	335.01
592.94	400.55
593.137	425.12
593.334	511.14
593.531	414.88
593.727	464.04
593.924	453.8
594.121	423.08
594.318	365.73
594.515	429.22
594.712	502.95
594.908	519.33
595.105	378.02
595.302	468.13
595.499	484.52
595.696	623.78
595.892	386.21
596.089	539.81
596.286	445.6
596.482	539.81
596.679	529.57
596.876	498.85
597.072	644.26
597.269	517.28
597.466	570.53
597.662	519.33
597.859	634.02
598.055	599.2
598.252	574.63
598.448	746.66
598.645	777.37
598.841	713.89
599.038	879.77
599.234	838.81
599.431	810.14
599.627	904.35
599.824	869.53
600.02	896.16
600.217	836.77
600.413	928.92
600.609	937.12
600.806	1295.51
601.002	1100.95
601.198	963.74
601.395	1164.44
601.591	1125.53
601.787	1420.44
601.984	1320.09
602.18	1320.09
602.376	1350.81
602.572	1406.1
602.769	1612.95
602.965	1449.11
603.161	1719.44
603.357	1707.15
603.553	1846.41
603.75	1696.91
603.946	1791.12
604.142	1991.82
604.338	2110.6
604.534	2016.4
604.73	2073.74
604.926	2108.55
605.122	2215.05
605.318	2385.03
605.514	2462.85
605.71	2444.42
605.906	2626.69
606.102	2606.21
606.298	2757.76
606.494	2892.93
606.69	3040.38
606.886	2866.3
607.082	3038.33
607.278	3091.58
607.474	3126.39
607.67	3406.97
607.866	3247.23
608.062	3570.8
608.257	3605.62
608.453	3615.86
608.649	3781.74
608.845	3918.96
609.041	4047.98
609.236	3970.16
609.432	4222.06
609.628	4342.89
609.824	4494.44
610.019	4459.62
610.215	4793.44
610.411	4691.04
610.606	5043.29
610.802	5022.81
610.998	5006.43
611.193	5483.61
611.389	5350.49
611.584	5719.12
611.78	5594.2
611.976	5790.8
612.171	6245.45
612.367	6233.16
612.562	6249.55
612.758	6397
612.953	6587.46
613.149	6687.81
613.344	6913.09
613.539	7244.86
613.735	7525.43
613.93	7793.72
614.126	7752.76
614.321	8174.64
614.517	8279.08
614.712	8535.08
614.907	8569.9
615.103	8836.13
615.298	9016.35
615.493	9243.68
615.688	9415.71
615.884	9982.99
616.079	9976.85
616.274	10511.37
616.47	10456.08
616.665	10763.27
616.86	11047.94
617.055	11267.07
617.25	11424.76
617.445	12172.27
617.641	11994.1
617.836	12508.14
618.031	12639.21
618.226	13216.74
618.421	13470.69
618.616	13786.07
618.811	13851.61
619.006	14504.91
619.201	14685.13
619.396	15160.26
619.591	15305.67
619.786	15864.76
619.981	15748.03
620.176	16536.49
620.371	16264.11
620.566	16905.13
620.761	17486.75
620.956	17609.63
621.151	17769.37
621.346	18287.51
621.541	18695.05
621.735	19313.54
621.93	19223.43
622.125	19731.33
622.32	19590.02
622.515	20362.1
622.709	20890.48
622.904	21343.08
623.099	21724
623.294	21904.22
623.488	22532.95
623.683	22641.49
623.878	22866.77
624.072	23538.5
624.267	24099.64
624.462	24128.31
624.656	24140.6
624.851	25058.09
625.046	25060.14
625.24	25754.4
625.435	26057.5
625.629	26071.84
625.824	26479.38
626.018	26997.52
626.213	26977.04
626.407	27636.48
626.602	27337.48
626.796	28195.58
626.991	28216.06
627.185	28461.82
627.38	28760.82
627.574	29022.96
627.768	28984.05
627.963	28967.66
628.157	29301.48
628.352	29512.42
628.546	29129.45
628.74	29817.57
628.935	29180.65
629.129	29623.01
629.323	29006.58
629.517	28949.23
629.712	28910.32
629.906	28982
630.1	28334.84
630.294	28343.03
630.489	27753.22
630.683	27775.75
630.877	26985.23
631.071	26825.49
631.265	26389.27
631.459	25930.53
631.653	25107.24
631.848	24597.3
632.042	24142.65
632.236	23804.74
632.43	22981.45
632.624	22541.14
632.818	21668.7
633.012	20900.72
633.206	20226.93
633.4	19981.18
633.594	18637.71
633.788	18295.7
633.982	17957.78
634.176	17320.87
634.369	16395.18
634.563	15684.54
634.757	15135.68
634.951	14830.54
635.145	14271.44
635.339	13480.92
635.533	13159.39
635.726	12659.69
635.92	12047.35
636.114	11656.18
636.308	10927.11
636.501	10820.61
636.695	10318.86
636.889	9608.22
637.083	9479.19
637.276	9161.76
637.47	8729.64
637.664	8340.52
637.857	8031.28
638.051	7730.23
638.244	7322.68
638.438	6857.79
638.632	6829.12
638.825	6519.88
639.019	6351.95
639.212	5876.82
639.406	5887.06
639.599	5364.82
639.793	5469.27
639.986	5082.21
640.18	5016.67
640.373	4770.91
640.567	4557.93
640.76	4334.7
640.954	4320.36
641.147	4000.88
641.34	3884.14
641.534	3839.09
641.727	3671.15
641.92	3599.48
642.114	3452.02
642.307	3116.16
642.5	3148.92
642.694	2901.12
642.887	2919.55
643.08	2768
643.273	2706.56
643.467	2458.76
643.66	2524.29
643.853	2251.91
644.046	2407.56
644.239	2309.26
644.432	2053.26
644.626	1959.05
644.819	2045.07
645.012	1873.04
645.205	1914
645.398	1819.79
645.591	1690.77
645.784	1549.46
645.977	1496.21
646.17	1518.74
646.363	1404.05
646.556	1326.23
646.749	1301.65
646.942	1315.99
647.135	1283.22
647.328	1207.45
647.521	1227.93
647.714	1055.9
647.907	1072.28
648.099	933.02
648.292	1098.91
648.485	994.46
648.678	887.97
648.871	789.66
649.064	851.1
649.256	715.94
649.449	812.19
649.642	693.41
649.835	646.3
650.027	722.08
650.22	775.33
650.413	715.94
650.605	601.25
650.798	634.02
650.991	625.83
651.183	519.33
651.376	574.63
651.568	623.78
651.761	537.76
651.954	566.43
652.146	486.56
652.339	554.15
652.531	535.71
652.724	380.07
652.916	347.3
653.109	316.58
653.301	404.64
653.494	414.88
653.686	523.43
653.879	332.97
654.071	478.37
654.263	285.86
654.456	273.57
654.648	314.53
654.84	355.49
655.033	267.43
655.225	267.43
655.417	232.62
655.61	429.22
655.802	314.53
655.994	343.21
656.186	146.6
656.379	308.39
656.571	193.7
656.763	234.66
656.955	132.26
657.148	277.67
657.34	308.39
657.532	238.76
657.724	201.9
657.916	273.57
658.108	251.05
658.3	228.52
658.492	251.05
658.684	236.71
658.876	287.91
659.068	132.26
659.26	95.4
659.452	109.74
659.644	162.98
659.836	228.52
660.028	189.61
660.22	113.83
660.412	140.46
660.604	79.02
660.796	218.28
660.988	203.94
661.18	126.12
661.372	146.6
661.563	89.26
661.755	183.46
661.947	107.69
662.139	187.56
662.331	181.42
662.522	89.26
662.714	17.58
662.906	87.21
663.097	175.27
663.289	105.64
663.481	-0.85
663.673	115.88
663.864	89.26
664.056	134.31
664.247	46.25
664.439	185.51
664.631	158.89
664.822	150.7
665.014	68.78
665.205	19.63
665.397	97.45
665.588	210.09
665.78	162.98
665.971	132.26
666.163	50.35
666.354	165.03
666.546	60.59
666.737	117.93
666.929	95.4
667.12	79.02
667.311	169.13
667.503	46.25
667.694	109.74
667.885	124.07
668.077	81.07
668.268	-58.2
668.459	119.98
668.651	15.53
668.842	185.51
669.033	17.58
669.224	-82.77
669.416	308.39
669.607	-62.29
669.798	-19.29
669.989	228.52
670.18	54.44
670.371	119.98
670.563	-72.53
670.754	177.32
670.945	146.6
671.136	81.07
671.327	40.11
671.518	189.61
671.709	220.33
671.9	119.98
672.091	152.74
672.282	136.36
672.473	107.69
672.664	56.49
672.855	40.11
673.046	138.41
673.237	160.94
673.428	111.78
673.619	72.87
673.809	13.48
674	240.81
674.191	171.18
674.382	33.96
674.573	48.3
674.764	113.83
674.954	165.03
675.145	87.21
675.336	15.53
675.527	17.58
675.717	72.87
675.908	134.31
676.099	107.69
676.289	58.54
676.48	50.35
676.671	74.92
676.861	103.59
677.052	99.5
677.243	54.44
677.433	7.34
677.624	165.03
677.814	156.84
678.005	52.39
678.195	210.09
678.386	101.55
678.576	68.78
678.767	54.44
678.957	105.64
679.148	171.18
679.338	222.38
679.529	122.02
679.719	95.4
679.909	126.12
680.1	193.7
680.29	160.94
680.481	72.87
680.671	175.27
680.861	79.02
681.052	113.83
681.242	85.16
681.432	162.98
681.622	156.84
681.813	54.44
682.003	177.32
682.193	54.44
682.383	152.74
682.573	144.55
682.764	103.59
682.954	134.31
683.144	218.28
683.334	68.78
683.524	103.59
683.714	142.5
683.904	109.74
684.094	132.26
684.284	197.8
684.474	277.67
684.664	306.34
684.854	156.84
685.044	193.7
685.234	224.42
685.424	115.88
685.614	130.22
685.804	357.54
685.994	246.95
686.184	113.83
686.374	167.08
686.564	113.83
686.753	138.41
686.943	142.5
687.133	130.22
687.323	62.63
687.513	232.62
687.702	185.51
687.892	83.11
688.082	220.33
688.272	226.47
688.461	203.94
688.651	357.54
688.841	195.75
689.03	142.5
689.22	154.79
689.41	232.62
689.599	70.83
689.789	87.21
689.979	314.53
690.168	70.83
690.358	203.94
690.547	183.46
690.737	103.59
690.926	101.55
691.116	197.8
691.305	271.53
691.495	193.7
691.684	152.74
691.874	91.31
692.063	136.36
692.252	126.12
692.442	199.85
692.631	91.31
692.82	76.97
693.01	142.5
693.199	191.66
693.388	113.83
693.578	79.02
693.767	185.51
693.956	158.89
694.146	95.4
694.335	165.03
694.524	85.16
694.713	185.51
694.902	101.55
695.092	142.5
695.281	259.24
695.47	154.79
695.659	113.83
695.848	216.23
696.037	72.87
696.226	216.23
696.415	74.92
696.604	246.95
696.793	222.38
696.982	91.31
697.171	251.05
697.36	148.65
697.549	138.41
697.738	1.19
697.927	3.24
698.116	122.02
698.305	95.4
698.494	138.41
698.683	189.61
698.872	292.01
699.061	132.26
699.25	103.59
699.438	140.46
699.627	40.11
699.816	306.34
700.005	62.63
700.193	79.02
700.382	165.03
700.571	119.98
700.76	152.74
700.948	154.79
701.137	142.5
701.326	218.28
701.514	-19.29
701.703	105.64
701.892	150.7
702.08	371.88
702.269	152.74
702.457	72.87
702.646	142.5
702.834	79.02
703.023	212.14
703.212	191.66
703.4	191.66
703.589	99.5
703.777	167.08
703.965	76.97
704.154	87.21
704.342	119.98
704.531	33.96
704.719	19.63
704.907	140.46
705.096	136.36
705.284	79.02
705.472	93.35
705.661	183.46
705.849	201.9
706.037	216.23
706.226	162.98
706.414	216.23
706.602	60.59
706.79	158.89
706.979	79.02
707.167	244.9
707.355	23.72
707.543	146.6
707.731	122.02
707.919	115.88
708.107	214.18
708.296	81.07
708.484	68.78
708.672	158.89
708.86	117.93
709.048	111.78
709.236	103.59
709.424	148.65
709.612	224.42
709.8	107.69
709.988	134.31
710.176	222.38
710.364	205.99
710.551	165.03
710.739	156.84
710.927	160.94
711.115	132.26
711.303	189.61
711.491	183.46
711.679	111.78
711.866	181.42
712.054	74.92
712.242	238.76
712.43	283.81
712.617	136.36
712.805	224.42
712.993	167.08
713.181	64.68
713.368	183.46
713.556	156.84
713.744	103.59
713.931	343.21
714.119	246.95
714.306	111.78
714.494	179.37
714.682	132.26
714.869	5.29
715.057	132.26
715.244	42.15
715.432	173.22
715.619	152.74
715.807	144.55
715.994	128.17
716.182	76.97
716.369	236.71
716.556	244.9
716.744	111.78
716.931	103.59
717.119	201.9
717.306	177.32
717.493	228.52
717.681	103.59
717.868	148.65
718.055	195.75
718.242	173.22
718.43	173.22
718.617	171.18
718.804	132.26
718.991	205.99
719.179	238.76
719.366	277.67
719.553	216.23
719.74	95.4
719.927	140.46
720.114	218.28
720.301	62.63
720.488	117.93
720.676	93.35
720.863	253.09
721.05	220.33
721.237	289.96
721.424	187.56
721.611	169.13
721.798	62.63
721.985	124.07
722.172	216.23
722.358	240.81
722.545	308.39
722.732	255.14
722.919	267.43
723.106	199.85
723.293	169.13
723.48	234.66
723.667	105.64
723.853	181.42
724.04	320.68
724.227	238.76
724.414	124.07
724.6	199.85
724.787	304.29
724.974	423.08
725.161	175.27
725.347	93.35
725.534	210.09
725.72	197.8
725.907	259.24
726.094	228.52
726.28	205.99
726.467	154.79
726.653	185.51
726.84	304.29
727.027	394.4
727.213	189.61
727.4	292.01
727.586	283.81
727.773	218.28
727.959	199.85
728.145	246.95
728.332	191.66
728.518	201.9
728.705	296.1
728.891	210.09
729.077	244.9
729.264	154.79
729.45	236.71
729.636	281.77
729.823	263.33
730.009	279.72
730.195	236.71
730.382	347.3
730.568	136.36
730.754	265.38
730.94	249
731.126	249
731.313	251.05
731.499	185.51
731.685	265.38
731.871	314.53
732.057	312.49
732.243	304.29
732.429	289.96
732.615	292.01
732.801	367.78
732.987	246.95
733.173	208.04
733.359	156.84
733.545	328.87
733.731	246.95
733.917	367.78
734.103	300.2
734.289	363.69
734.475	218.28
734.661	332.97
734.847	312.49
735.033	185.51
735.219	251.05
735.404	263.33
735.59	224.42
735.776	169.13
735.962	255.14
736.148	341.16
736.333	316.58
736.519	312.49
736.705	287.91
736.89	201.9
737.076	251.05
737.262	210.09
737.447	214.18
737.633	349.35
737.819	357.54
738.004	259.24
738.19	289.96
738.375	330.92
738.561	306.34
738.747	296.1
738.932	165.03
739.118	388.26
739.303	322.73
739.489	263.33
739.674	302.25
739.859	273.57
740.045	310.44
740.23	353.45
740.416	187.56
740.601	332.97
740.786	283.81
740.972	230.57
741.157	306.34
741.342	224.42
741.528	181.42
741.713	359.59
741.898	263.33
742.084	212.14
742.269	199.85
742.454	357.54
742.639	261.29
742.824	218.28
743.01	410.79
743.195	371.88
743.38	337.06
743.565	308.39
743.75	289.96
743.935	341.16
744.12	328.87
744.305	210.09
744.49	304.29
744.675	277.67
744.86	208.04
745.045	314.53
745.23	310.44
745.415	292.01
745.6	337.06
745.785	277.67
745.97	339.11
746.155	214.18
746.34	378.02
746.525	253.09
746.71	414.88
746.895	191.66
747.079	238.76
747.264	296.1
747.449	367.78
747.634	283.81
747.819	275.62
748.003	201.9
748.188	169.13
748.373	279.72
748.557	275.62
748.742	220.33
748.927	228.52
749.111	183.46
749.296	228.52
749.481	271.53
749.665	251.05
749.85	197.8
750.034	230.57
750.219	285.86
750.404	214.18
750.588	181.42
750.773	93.35
750.957	267.43
751.141	189.61
751.326	335.01
751.51	142.5
751.695	158.89
751.879	292.01
752.064	375.97
752.248	220.33
752.432	314.53
752.617	273.57
752.801	296.1
752.985	228.52
753.17	322.73
753.354	199.85
753.538	277.67
753.722	136.36
753.907	220.33
754.091	132.26
754.275	214.18
754.459	173.22
754.643	173.22
754.828	257.19
755.012	246.95
755.196	87.21
755.38	165.03
755.564	144.55
755.748	261.29
755.932	132.26
756.116	232.62
756.3	169.13
756.484	130.22
756.668	210.09
756.852	74.92
757.036	197.8
757.22	263.33
757.404	165.03
757.588	154.79
757.772	240.81
757.956	146.6
758.14	337.06
758.323	142.5
758.507	220.33
758.691	124.07
758.875	308.39
759.059	249
759.242	154.79
759.426	205.99
759.61	113.83
759.794	210.09
759.977	167.08
760.161	421.03
760.345	208.04
760.528	199.85
760.712	232.62
760.895	212.14
761.079	128.17
761.263	79.02
761.446	-4.95
761.63	144.55
761.813	199.85
761.997	105.64
762.18	175.27
762.364	179.37
762.547	42.15
762.731	128.17
762.914	99.5
763.098	91.31
763.281	126.12
763.464	101.55
763.648	58.54
763.831	111.78
764.015	83.11
764.198	177.32
764.381	85.16
764.564	169.13
764.748	70.83
764.931	107.69
765.114	115.88
765.297	201.9
765.481	46.25
765.664	66.73
765.847	-2.9
766.03	208.04
766.213	36.01
766.397	138.41
766.58	27.82
766.763	224.42
766.946	70.83
767.129	154.79
767.312	79.02
767.495	113.83
767.678	56.49
767.861	124.07
768.044	167.08
768.227	64.68
768.41	111.78
768.593	154.79
768.776	138.41
768.959	99.5
769.142	199.85
769.324	117.93
769.507	119.98
769.69	66.73
769.873	54.44
770.056	263.33
770.239	70.83
770.421	173.22
770.604	113.83
770.787	83.11
770.97	158.89
771.152	31.91
771.335	171.18
771.518	-60.24
771.7	130.22
771.883	177.32
772.066	54.44
772.248	70.83
772.431	175.27
772.613	177.32
772.796	46.25
772.978	154.79
773.161	189.61
773.343	-7
773.526	91.31
773.708	-2.9
773.891	-21.33
774.073	5.29
774.256	109.74
774.438	183.46
774.621	50.35
774.803	109.74
774.985	36.01
775.168	81.07
775.35	83.11
775.532	99.5
775.715	33.96
775.897	52.39
776.079	113.83
776.261	42.15
776.444	70.83
776.626	27.82
776.808	68.78
776.99	-11.09
777.173	-2.9
777.355	64.68
777.537	187.56
777.719	46.25
777.901	70.83
778.083	36.01
778.265	-13.14
778.447	50.35
778.629	38.06
778.811	-19.29
778.993	76.97
779.175	169.13
779.357	36.01
779.539	-21.33
779.721	58.54
779.903	-74.58
780.085	-7
780.267	150.7
780.449	42.15
780.631	66.73
780.812	126.12
780.994	46.25
781.176	-27.48
781.358	1.19
781.54	-23.38
781.721	107.69
781.903	109.74
782.085	89.26
782.267	117.93
782.448	1.19
782.63	5.29
782.812	68.78
782.993	31.91
783.175	19.63
783.357	52.39
783.538	48.3
783.72	21.67
783.901	15.53
784.083	111.78
784.264	11.43
784.446	-64.34
784.627	42.15
784.809	52.39
784.99	-31.57
785.172	167.08
785.353	-23.38
785.535	91.31
785.716	-97.11
785.897	1.19
786.079	21.67
786.26	60.59
786.441	62.63
786.623	-84.82
786.804	-39.76
786.985	64.68
787.167	76.97
787.348	5.29
787.529	-37.72
787.71	169.13
787.891	105.64
788.073	-0.85
788.254	-33.62
788.435	167.08
788.616	19.63
788.797	-45.91
788.978	-74.58
789.159	-41.81
789.34	62.63
789.522	15.53
789.703	-64.34
789.884	-0.85
790.065	25.77
790.246	224.42
790.427	1.19
790.607	38.06
790.788	97.45
790.969	-17.24
791.15	62.63
791.331	19.63
791.512	-60.24
791.693	-39.76
791.874	-47.96
792.054	240.81
792.235	158.89
792.416	7.34
792.597	-52.05
792.778	42.15
792.958	21.67
793.139	50.35
793.32	9.39
793.5	-127.83
793.681	136.36
793.862	44.2
794.042	42.15
794.223	-146.26
794.404	-29.52
794.584	-95.06
794.765	103.59
794.945	15.53
795.126	60.59
795.306	103.59
795.487	-62.29
795.667	38.06
795.848	5.29
796.028	-37.72
796.209	-7
796.389	58.54
796.57	126.12
796.75	-80.72
796.93	-4.95
797.111	1.19
797.291	-27.48
797.471	54.44
797.652	31.91
797.832	-64.34
798.012	13.48
798.192	-9.05
798.373	-156.5
798.553	-64.34
798.733	21.67
798.913	-15.19
799.093	-50
799.274	-7
799.454	48.3
799.634	68.78
799.814	91.31
799.994	21.67
800.174	46.25
800.354	17.58
800.534	-152.4
800.714	-25.43
800.894	-45.91
801.074	-82.77
801.254	-33.62
801.434	79.02
801.614	-84.82
801.794	-107.35
801.974	1879.18
802.154	-23.38
802.334	175.27
802.514	-68.44
802.693	-37.72
802.873	-0.85
803.053	81.07
803.233	33.96
803.413	-9.05
803.592	-84.82
803.772	-125.78
803.952	-13.14
804.131	-33.62
804.311	-45.91
804.491	103.59
804.67	-95.06
804.85	-72.53
805.03	76.97
805.209	140.46
805.389	-56.15
805.568	-56.15
805.748	25.77
805.928	13.48
806.107	-2.9
806.287	-29.52
806.466	72.87
806.646	-64.34
806.825	-52.05
807.004	-52.05
807.184	33.96
807.363	-50
807.543	-17.24
807.722	-54.1
807.901	70.83
808.081	76.97
808.26	-187.22
808.439	-43.86
808.619	38.06
808.798	19.63
808.977	25.77
809.156	27.82
809.336	74.92
809.515	29.87
809.694	-76.63
809.873	-27.48
810.052	29.87
810.231	44.2
810.411	21.67
810.59	72.87
810.769	15.53
810.948	-64.34
811.127	-148.31
811.306	-58.2
811.485	-31.57
811.664	136.36
811.843	7.34
812.022	-70.48
812.201	-7
812.38	11.43
812.559	-74.58
812.737	15.53
812.916	-121.68
813.095	-45.91
813.274	21.67
813.453	-72.53
813.632	1.19
813.811	58.54
813.989	-146.26
814.168	42.15
814.347	-158.55
814.526	70.83
814.704	93.35
814.883	1.19
815.062	-127.83
815.24	60.59
815.419	-27.48
815.598	-2.9
815.776	-93.01
815.955	-31.57
816.133	-127.83
816.312	42.15
816.49	-93.01
816.669	-66.39
816.847	-76.63
817.026	36.01
817.204	-11.09
817.383	-27.48
817.561	-64.34
817.74	23.72
817.918	19.63
818.097	-68.44
818.275	-0.85
818.453	-27.48
818.632	54.44
818.81	15.53
818.988	-68.44
819.167	-66.39
819.345	44.2
819.523	-25.43
819.701	-17.24
819.879	1.19
820.058	-9.05
820.236	15.53
820.414	-7
820.592	-35.67
820.77	-11.09
820.948	-86.87
821.127	-54.1
821.305	91.31
821.483	-103.25
821.661	111.78
821.839	-13.14
822.017	-27.48
822.195	-140.12
822.373	64.68
822.551	-19.29
822.729	72.87
822.907	-2.9
823.085	91.31
823.262	60.59
823.44	-31.57
823.618	-2.9
823.796	-56.15
823.974	-60.24
824.152	-35.67
824.329	-19.29
824.507	33.96
824.685	-15.19
824.863	-2.9
825.04	15.53
825.218	-56.15
825.396	31.91
825.574	25.77
825.751	64.68
825.929	42.15
826.107	-113.49
826.284	-7
826.462	-2.9
826.639	-64.34
826.817	-90.96
826.994	15.53
827.172	-90.96
827.349	91.31
827.527	31.91
827.704	-19.29
827.882	11.43
828.059	-70.48
828.237	-9.05
828.414	1.19
828.591	-121.68
828.769	-43.86
828.946	-103.25
829.124	46.25
829.301	91.31
829.478	-52.05
829.655	64.68
829.833	87.21
830.01	-109.4
830.187	-50
830.364	9.39
830.542	1.19
830.719	23.72
830.896	36.01
831.073	33.96
831.25	11.43
831.427	40.11
831.604	-2.9
831.782	-39.76
831.959	-50
832.136	-52.05
832.313	-54.1
832.49	-97.11
832.667	-27.48
832.844	-99.16
833.021	140.46
833.198	-82.77
833.374	-70.48
833.551	-47.96
833.728	-31.57
833.905	44.2
834.082	-90.96
834.259	36.01
834.436	42.15
834.612	-80.72
834.789	29.87
834.966	-31.57
835.143	-29.52
835.319	-107.35
835.496	33.96
835.673	-13.14
835.85	60.59
836.026	64.68
836.203	48.3
836.38	-23.38
836.556	-17.24
836.733	-2.9
836.909	54.44
837.086	-84.82
837.262	-80.72
837.439	13.48
837.616	-13.14
837.792	-68.44
837.968	-13.14
838.145	-158.55
838.321	-35.67
838.498	11.43
838.674	56.49
838.851	-29.52
839.027	-43.86
839.203	-39.76
839.38	-33.62
839.556	-60.24
839.732	-43.86
839.909	1.19
840.085	-9.05
840.261	-19.29
840.437	-58.2
840.614	-31.57
840.79	-29.52
840.966	-25.43
841.142	-4.95
841.318	56.49
841.494	64.68
841.671	66.73
841.847	-80.72
842.023	-56.15
842.199	29.87
842.375	44.2
842.551	-129.88
842.727	-179.03
842.903	101.55
843.079	-72.53
843.255	-17.24
843.431	-39.76
843.607	60.59
843.783	-164.69
843.959	-9.05
844.134	-56.15
844.31	122.02
844.486	-35.67
844.662	-66.39
844.838	-29.52
845.013	46.25
845.189	-4.95
845.365	36.01
845.541	9.39
845.716	-54.1
845.892	103.59
846.068	-9.05
846.244	-29.52
846.419	-37.72
846.595	-64.34
846.77	-66.39
846.946	31.91
847.122	36.01
847.297	-47.96
847.473	128.17
847.648	-105.3
847.824	-29.52
847.999	-125.78
848.175	52.39
848.35	72.87
848.526	64.68
848.701	76.97
848.876	72.87
849.052	81.07
849.227	-33.62
849.403	-35.67
849.578	-23.38
849.753	-47.96
849.929	-29.52
850.104	-76.63
850.279	-31.57
850.454	-23.38
850.63	-4.95
850.805	-37.72
850.98	5.29
851.155	-52.05
851.33	-13.14
851.505	-84.82
851.681	3.24
851.856	-105.3
852.031	48.3
852.206	-74.58
852.381	-105.3
852.556	-62.29
852.731	25.77
852.906	-7
853.081	-60.24
853.256	52.39
853.431	83.11
853.606	-76.63
853.781	-52.05
853.956	-113.49
854.131	-13.14
854.305	-80.72
854.48	-19.29
854.655	-45.91
854.83	-2.9
855.005	15.53
855.18	11.43
855.354	-86.87
855.529	-0.85
855.704	-60.24
855.879	3.24
856.053	-105.3
856.228	13.48
856.403	-121.68
856.577	17.58
856.752	-187.22
856.926	-19.29
857.101	62.63
857.276	-158.55
857.45	-13.14
857.625	29.87
857.799	-82.77
857.974	-29.52
858.148	-33.62
858.323	19.63
858.497	-37.72
858.672	-113.49
858.846	-74.58
859.02	-2.9
859.195	-74.58
859.369	-70.48
859.543	-31.57
859.718	-4.95
859.892	-17.24
860.066	-35.67
860.241	-72.53
860.415	-74.58
860.589	-31.57
860.763	-11.09
860.938	-107.35
861.112	13.48
861.286	-25.43
861.46	17.58
861.634	-58.2
861.808	42.15
861.982	-90.96
862.157	-142.16
862.331	-11.09
862.505	-105.3
862.679	-93.01
862.853	-88.92
863.027	-13.14
863.201	97.45
863.375	-50
863.549	-72.53
863.722	29.87
863.896	17.58
864.07	-78.68
864.244	-70.48
864.418	54.44
864.592	-17.24
864.766	46.25
864.939	-86.87
865.113	1.19
865.287	31.91
865.461	-164.69
865.634	48.3
865.808	-37.72
865.982	-19.29
866.156	-74.58
866.329	-121.68
866.503	9.39
866.676	33.96
866.85	-11.09
867.024	-31.57
867.197	38.06
867.371	-13.14
867.544	17.58
867.718	-123.73
867.891	101.55
868.065	-39.76
868.238	13.48
868.412	79.02
868.585	62.63
868.759	-78.68
868.932	-101.2
869.105	-52.05
869.279	-0.85
869.452	-82.77
869.625	-21.33
869.799	-23.38
869.972	-166.74
870.145	-7
870.319	58.54
870.492	-43.86
870.665	-23.38
870.838	-76.63
871.011	-82.77
871.185	3.24
871.358	-54.1
871.531	36.01
871.704	-78.68
871.877	-31.57
872.05	1.19
872.223	-109.4
872.396	42.15
872.569	-21.33
872.742	-93.01
872.915	70.83
873.088	-68.44
873.261	9.39
873.434	-4.95
873.607	-19.29
873.78	97.45
873.953	-105.3
874.126	27.82
874.299	3.24
874.471	-62.29
874.644	-95.06
874.817	83.11
874.99	122.02
875.163	-27.48
875.335	-25.43
875.508	-56.15
875.681	101.55
875.853	-86.87
876.026	-4.95
876.199	29.87
876.371	-68.44
876.544	-78.68
876.717	11.43
876.889	-37.72
877.062	72.87
877.234	-117.59
877.407	-70.48
877.579	-11.09
877.752	-2.9
877.924	-15.19
878.097	40.11
878.269	-52.05
878.442	17.58
878.614	-13.14
878.786	-7
878.959	-52.05
879.131	-43.86
879.303	-174.93
879.476	-97.11
879.648	29.87
879.82	-27.48
879.993	11.43
880.165	-52.05
880.337	-148.31
880.509	-125.78
880.681	-125.78
880.854	23.72
881.026	15.53
881.198	85.16
881.37	-9.05
881.542	27.82
881.714	-54.1
881.886	-117.59
882.058	-74.58
882.23	-27.48
882.402	-82.77
882.574	-0.85
882.746	70.83
882.918	83.11
883.09	31.91
883.262	-15.19
883.434	-47.96
883.606	-125.78
883.778	-66.39
883.95	87.21
884.122	-68.44
884.293	93.35
884.465	9.39
884.637	54.44
884.809	-68.44
884.98	36.01
885.152	-29.52
885.324	33.96
885.496	-105.3
885.667	-29.52
885.839	-29.52
886.011	64.68
886.182	-47.96
886.354	36.01
886.525	23.72
886.697	5.29
886.869	-43.86
887.04	-56.15
887.212	134.31
887.383	115.88
887.555	17.58
887.726	-13.14
887.897	33.96
888.069	-4.95
888.24	-2.9
888.412	-50
888.583	-21.33
888.754	81.07
888.926	-129.88
889.097	-88.92
889.268	-99.16
889.44	7.34
889.611	-140.12
889.782	-95.06
889.953	-35.67
890.125	66.73
890.296	-23.38
890.467	-72.53
890.638	-56.15
890.809	-19.29
890.98	-76.63
891.151	1.19
891.323	27.82
891.494	-64.34
891.665	-43.86
891.836	-66.39
892.007	31.91
892.178	-21.33
892.349	-17.24
892.52	-27.48
892.691	-4.95
892.862	-27.48
893.032	-33.62
893.203	-7
893.374	-64.34
893.545	126.12
893.716	-56.15
893.887	33.96
894.057	-148.31
894.228	-58.2
894.399	-129.88
894.57	46.25
894.74	-9.05
894.911	-31.57
895.082	-74.58
895.253	-72.53
895.423	-4.95
895.594	38.06
895.764	3.24
895.935	-111.44
896.106	-33.62
896.276	-101.2
896.447	50.35
896.617	-39.76
896.788	-72.53
896.958	-41.81
897.129	-29.52
897.299	-74.58
897.47	-7
897.64	-23.38
897.81	-56.15
897.981	-2.9
898.151	-131.92
898.322	19.63
898.492	33.96
898.662	-82.77
898.832	-76.63
899.003	-76.63
899.173	-50
899.343	-129.88
899.513	-78.68
