Data from USB4F104151__32__11-24-58-603.txt Node

Date: Wed Feb 26 11:24:58 EST 2025
User: louis
Spectrometer: USB4F10415
Trigger mode: 4
Integration Time (sec): 1.000000E-1
Scans to average: 1
Electric dark correction enabled: true
Nonlinearity correction enabled: false
Boxcar width: 0
XAxis mode: Wavelengths
Number of Pixels in Spectrum: 3648
>>>>>Begin Spectral Data<<<<<
178.204	-371.88
178.424	-371.88
178.644	-371.88
178.864	-412.84
179.084	-384.16
179.304	-48.3
179.524	78.68
179.744	-87.21
179.964	37.72
180.184	39.76
180.404	72.53
180.624	-70.83
180.844	-1.19
181.064	-103.59
181.283	25.43
181.503	-23.72
181.723	80.72
181.943	-76.97
182.163	222.03
182.383	19.29
182.602	95.06
182.822	172.88
183.042	115.54
183.262	35.67
183.482	39.76
183.701	90.96
183.921	158.55
184.141	-44.2
184.361	68.44
184.58	66.39
184.8	60.24
185.02	80.72
185.239	183.12
185.459	62.29
185.679	181.07
185.898	-64.68
186.118	82.77
186.338	148.31
186.557	70.48
186.777	-54.44
186.997	-66.73
187.216	21.33
187.436	230.23
187.655	156.5
187.875	99.16
188.095	68.44
188.314	119.64
188.534	129.88
188.753	60.24
188.973	150.36
189.192	232.27
189.412	11.09
189.631	52.05
189.851	37.72
190.07	187.22
190.29	-38.06
190.509	-72.87
190.729	129.88
190.948	148.31
191.168	240.47
191.387	58.2
191.607	60.24
191.826	101.2
192.045	-11.43
192.265	2.9
192.484	15.19
192.704	47.96
192.923	4.95
193.142	174.93
193.362	133.97
193.581	62.29
193.8	39.76
194.02	113.49
194.239	82.77
194.458	101.2
194.678	72.53
194.897	-3.24
195.116	47.96
195.335	25.43
195.555	80.72
195.774	21.33
195.993	80.72
196.212	41.81
196.432	-33.96
196.651	23.38
196.87	45.91
197.089	176.98
197.308	99.16
197.528	54.1
197.747	-46.25
197.966	88.92
198.185	119.64
198.404	25.43
198.623	52.05
198.842	189.27
199.062	66.39
199.281	33.62
199.5	43.86
199.719	88.92
199.938	62.29
200.157	66.39
200.376	99.16
200.595	142.16
200.814	127.83
201.033	68.44
201.252	222.03
201.471	15.19
201.69	119.64
201.909	105.3
202.128	158.55
202.347	107.35
202.566	127.83
202.785	-60.59
203.004	39.76
203.223	207.7
203.442	47.96
203.661	-29.87
203.879	72.53
204.098	117.59
204.317	41.81
204.536	150.36
204.755	21.33
204.974	107.35
205.193	7
205.411	136.02
205.63	31.57
205.849	88.92
206.068	43.86
206.287	25.43
206.505	191.31
206.724	62.29
206.943	-25.77
207.162	2.9
207.381	140.12
207.599	86.87
207.818	11.09
208.037	50
208.255	76.63
208.474	146.26
208.693	64.34
208.911	39.76
209.13	125.78
209.349	115.54
209.567	174.93
209.786	148.31
210.005	146.26
210.223	-42.15
210.442	-132.26
210.661	62.29
210.879	21.33
211.098	23.38
211.316	50
211.535	84.82
211.753	31.57
211.972	95.06
212.191	74.58
212.409	138.07
212.628	76.63
212.846	13.14
213.065	29.52
213.283	133.97
213.502	105.3
213.72	95.06
213.938	41.81
214.157	15.19
214.375	197.46
214.594	72.53
214.812	140.12
215.031	52.05
215.249	101.2
215.467	74.58
215.686	95.06
215.904	111.44
216.122	66.39
216.341	111.44
216.559	109.4
216.778	115.54
216.996	121.68
217.214	-13.48
217.432	0.85
217.651	-13.48
217.869	107.35
218.087	60.24
218.306	56.15
218.524	56.15
218.742	21.33
218.96	70.48
219.179	99.16
219.397	50
219.615	318.29
219.833	35.67
220.051	-27.82
220.27	191.31
220.488	195.41
220.706	127.83
220.924	-3.24
221.142	62.29
221.36	119.64
221.578	41.81
221.796	109.4
222.015	45.91
222.233	82.77
222.451	219.99
222.669	-40.11
222.887	50
223.105	80.72
223.323	82.77
223.541	0.85
223.759	68.44
223.977	72.53
224.195	176.98
224.413	84.82
224.631	78.68
224.849	111.44
225.067	232.27
225.285	9.05
225.503	-3.24
225.721	-33.96
225.939	121.68
226.157	45.91
226.375	226.13
226.592	-15.53
226.81	93.01
227.028	111.44
227.246	125.78
227.464	43.86
227.682	131.92
227.9	140.12
228.117	193.36
228.335	142.16
228.553	70.48
228.771	62.29
228.989	76.63
229.206	133.97
229.424	74.58
229.642	37.72
229.86	-7.34
230.077	86.87
230.295	-3.24
230.513	103.25
230.731	80.72
230.948	152.4
231.166	246.61
231.384	4.95
231.601	-27.82
231.819	76.63
232.037	11.09
232.254	-56.49
232.472	72.53
232.689	39.76
232.907	136.02
233.125	35.67
233.342	-46.25
233.56	56.15
233.777	84.82
233.995	35.67
234.213	101.2
234.43	64.34
234.648	19.29
234.865	50
235.083	123.73
235.3	95.06
235.518	80.72
235.735	174.93
235.953	158.55
236.17	80.72
236.388	107.35
236.605	97.11
236.822	131.92
237.04	176.98
237.257	17.24
237.475	2.9
237.692	107.35
237.909	162.64
238.127	9.05
238.344	90.96
238.562	54.1
238.779	-25.77
238.996	2.9
239.214	76.63
239.431	80.72
239.648	33.62
239.865	119.64
240.083	205.65
240.3	17.24
240.517	27.48
240.735	50
240.952	162.64
241.169	52.05
241.386	58.2
241.603	58.2
241.821	-74.92
242.038	56.15
242.255	127.83
242.472	2.9
242.689	56.15
242.907	29.52
243.124	90.96
243.341	125.78
243.558	-52.39
243.775	-29.87
243.992	-58.54
244.209	127.83
244.426	144.21
244.643	66.39
244.86	-23.72
245.078	62.29
245.295	111.44
245.512	88.92
245.729	43.86
245.946	88.92
246.163	29.52
246.38	-7.34
246.597	47.96
246.814	125.78
247.031	62.29
247.248	33.62
247.464	103.25
247.681	-17.58
247.898	117.59
248.115	131.92
248.332	-52.39
248.549	213.84
248.766	236.37
248.983	154.45
249.2	82.77
249.417	121.68
249.633	31.57
249.85	99.16
250.067	29.52
250.284	131.92
250.501	70.48
250.717	68.44
250.934	-40.11
251.151	33.62
251.368	101.2
251.585	115.54
251.801	41.81
252.018	-89.26
252.235	148.31
252.451	-91.31
252.668	45.91
252.885	156.5
253.102	80.72
253.318	58.2
253.535	7
253.752	-15.53
253.968	43.86
254.185	-29.87
254.401	97.11
254.618	70.48
254.835	21.33
255.051	156.5
255.268	74.58
255.484	103.25
255.701	60.24
255.917	56.15
256.134	7
256.351	27.48
256.567	-36.01
256.784	103.25
257	23.38
257.217	193.36
257.433	172.88
257.65	33.62
257.866	93.01
258.082	-25.77
258.299	74.58
258.515	78.68
258.732	78.68
258.948	-9.39
259.165	101.2
259.381	-19.63
259.597	125.78
259.814	39.76
260.03	23.38
260.246	27.48
260.463	197.46
260.679	123.73
260.895	80.72
261.112	138.07
261.328	117.59
261.544	64.34
261.761	140.12
261.977	64.34
262.193	-58.54
262.409	13.14
262.626	74.58
262.842	50
263.058	2.9
263.274	160.59
263.49	107.35
263.707	172.88
263.923	195.41
264.139	47.96
264.355	99.16
264.571	90.96
264.787	138.07
265.004	166.74
265.22	84.82
265.436	66.39
265.652	74.58
265.868	54.1
266.084	33.62
266.3	11.09
266.516	21.33
266.732	52.05
266.948	103.25
267.164	70.48
267.38	189.27
267.596	93.01
267.812	164.69
268.028	95.06
268.244	-44.2
268.46	-15.53
268.676	37.72
268.892	88.92
269.108	37.72
269.324	-19.63
269.54	-13.48
269.756	74.58
269.972	4.95
270.188	68.44
270.403	-9.39
270.619	-13.48
270.835	88.92
271.051	52.05
271.267	-54.44
271.483	25.43
271.698	119.64
271.914	90.96
272.13	78.68
272.346	66.39
272.562	-5.29
272.777	162.64
272.993	13.14
273.209	78.68
273.425	68.44
273.64	31.57
273.856	183.12
274.072	-19.63
274.287	-21.67
274.503	80.72
274.719	74.58
274.934	39.76
275.15	25.43
275.366	-5.29
275.581	19.29
275.797	4.95
276.012	84.82
276.228	37.72
276.444	0.85
276.659	144.21
276.875	-19.63
277.09	99.16
277.306	11.09
277.521	54.1
277.737	129.88
277.952	140.12
278.168	-13.48
278.383	70.48
278.599	64.34
278.814	183.12
279.03	2.9
279.245	127.83
279.461	43.86
279.676	78.68
279.892	31.57
280.107	-46.25
280.322	-1.19
280.538	15.19
280.753	90.96
280.969	109.4
281.184	33.62
281.399	213.84
281.615	76.63
281.83	62.29
282.045	-89.26
282.26	50
282.476	23.38
282.691	115.54
282.906	50
283.122	72.53
283.337	-9.39
283.552	17.24
283.767	82.77
283.983	117.59
284.198	25.43
284.413	123.73
284.628	47.96
284.843	74.58
285.058	60.24
285.274	29.52
285.489	21.33
285.704	164.69
285.919	25.43
286.134	50
286.349	21.33
286.564	64.34
286.779	70.48
286.995	11.09
287.21	-105.64
287.425	152.4
287.64	-33.96
287.855	156.5
288.07	-58.54
288.285	148.31
288.5	193.36
288.715	172.88
288.93	45.91
289.145	39.76
289.36	179.03
289.575	50
289.79	35.67
290.004	4.95
290.219	211.79
290.434	9.05
290.649	74.58
290.864	-5.29
291.079	64.34
291.294	23.38
291.509	93.01
291.724	29.52
291.938	-25.77
292.153	136.02
292.368	37.72
292.583	76.63
292.798	86.87
293.012	23.38
293.227	131.92
293.442	-74.92
293.657	119.64
293.871	209.75
294.086	84.82
294.301	172.88
294.516	86.87
294.73	119.64
294.945	-62.63
295.16	50
295.374	70.48
295.589	160.59
295.804	39.76
296.018	52.05
296.233	271.19
296.447	66.39
296.662	41.81
296.877	60.24
297.091	103.25
297.306	64.34
297.52	72.53
297.735	29.52
297.949	66.39
298.164	29.52
298.378	19.29
298.593	-52.39
298.807	-36.01
299.022	123.73
299.236	111.44
299.451	52.05
299.665	-17.58
299.88	60.24
300.094	82.77
300.309	25.43
300.523	37.72
300.737	23.38
300.952	82.77
301.166	68.44
301.381	15.19
301.595	58.2
301.809	29.52
302.024	68.44
302.238	-72.87
302.452	138.07
302.667	11.09
302.881	152.4
303.095	140.12
303.309	84.82
303.524	-21.67
303.738	43.86
303.952	-23.72
304.166	64.34
304.381	-38.06
304.595	234.32
304.809	-19.63
305.023	66.39
305.237	-5.29
305.452	13.14
305.666	60.24
305.88	95.06
306.094	93.01
306.308	95.06
306.522	127.83
306.736	107.35
306.95	74.58
307.164	25.43
307.379	95.06
307.593	109.4
307.807	162.64
308.021	90.96
308.235	45.91
308.449	-56.49
308.663	97.11
308.877	191.31
309.091	35.67
309.305	43.86
309.519	-89.26
309.733	115.54
309.947	-111.78
310.161	140.12
310.374	103.25
310.588	133.97
310.802	13.14
311.016	41.81
311.23	105.3
311.444	-48.3
311.658	-7.34
311.872	99.16
312.085	52.05
312.299	105.3
312.513	158.55
312.727	111.44
312.941	27.48
313.154	41.81
313.368	97.11
313.582	84.82
313.796	107.35
314.009	15.19
314.223	66.39
314.437	23.38
314.651	125.78
314.864	43.86
315.078	95.06
315.292	7
315.505	43.86
315.719	88.92
315.933	45.91
316.146	23.38
316.36	-21.67
316.573	152.4
316.787	99.16
317.001	50
317.214	-7.34
317.428	62.29
317.641	-11.43
317.855	13.14
318.068	4.95
318.282	105.3
318.495	281.43
318.709	107.35
318.922	39.76
319.136	152.4
319.349	131.92
319.563	64.34
319.776	123.73
319.99	-36.01
320.203	88.92
320.417	0.85
320.63	70.48
320.843	234.32
321.057	56.15
321.27	43.86
321.483	154.45
321.697	144.21
321.91	37.72
322.124	107.35
322.337	35.67
322.55	15.19
322.763	97.11
322.977	47.96
323.19	29.52
323.403	33.62
323.617	109.4
323.83	41.81
324.043	25.43
324.256	60.24
324.469	11.09
324.683	248.66
324.896	-11.43
325.109	117.59
325.322	-56.49
325.535	133.97
325.748	162.64
325.962	2.9
326.175	136.02
326.388	195.41
326.601	109.4
326.814	19.29
327.027	64.34
327.24	119.64
327.453	-42.15
327.666	70.48
327.879	70.48
328.092	90.96
328.305	127.83
328.518	68.44
328.731	15.19
328.944	21.33
329.157	41.81
329.37	9.05
329.583	121.68
329.796	117.59
330.009	-11.43
330.222	181.07
330.435	150.36
330.648	39.76
330.861	25.43
331.073	187.22
331.286	127.83
331.499	66.39
331.712	-50.35
331.925	162.64
332.138	4.95
332.35	168.79
332.563	45.91
332.776	142.16
332.989	50
333.202	78.68
333.414	-13.48
333.627	99.16
333.84	21.33
334.053	35.67
334.265	-1.19
334.478	2.9
334.691	17.24
334.903	158.55
335.116	-3.24
335.329	66.39
335.541	172.88
335.754	222.03
335.966	109.4
336.179	64.34
336.392	43.86
336.604	21.33
336.817	152.4
337.029	97.11
337.242	105.3
337.454	29.52
337.667	25.43
337.88	148.31
338.092	97.11
338.305	119.64
338.517	60.24
338.729	113.49
338.942	109.4
339.154	-1.19
339.367	-13.48
339.579	88.92
339.792	-25.77
340.004	97.11
340.217	90.96
340.429	121.68
340.641	33.62
340.854	-31.91
341.066	39.76
341.278	209.75
341.491	160.59
341.703	37.72
341.915	-13.48
342.128	107.35
342.34	156.5
342.552	11.09
342.764	50
342.977	9.05
343.189	109.4
343.401	107.35
343.613	2.9
343.826	90.96
344.038	-58.54
344.25	74.58
344.462	31.57
344.674	86.87
344.886	29.52
345.099	52.05
345.311	109.4
345.523	43.86
345.735	-1.19
345.947	101.2
346.159	56.15
346.371	80.72
346.583	54.1
346.795	146.26
347.007	-11.43
347.219	86.87
347.431	107.35
347.643	219.99
347.855	35.67
348.067	138.07
348.279	-3.24
348.491	47.96
348.703	97.11
348.915	0.85
349.127	35.67
349.339	80.72
349.551	-5.29
349.763	123.73
349.975	31.57
350.187	56.15
350.399	115.54
350.61	43.86
350.822	103.25
351.034	80.72
351.246	78.68
351.458	50
351.669	97.11
351.881	11.09
352.093	174.93
352.305	107.35
352.517	70.48
352.728	138.07
352.94	109.4
353.152	140.12
353.363	35.67
353.575	82.77
353.787	136.02
353.999	70.48
354.21	156.5
354.422	-70.83
354.633	58.2
354.845	78.68
355.057	119.64
355.268	144.21
355.48	115.54
355.692	11.09
355.903	74.58
356.115	-25.77
356.326	-31.91
356.538	174.93
356.749	70.48
356.961	230.23
357.172	0.85
357.384	-5.29
357.595	215.89
357.807	25.43
358.018	68.44
358.23	88.92
358.441	238.42
358.653	47.96
358.864	-15.53
359.075	-1.19
359.287	86.87
359.498	80.72
359.709	78.68
359.921	47.96
360.132	93.01
360.344	47.96
360.555	-46.25
360.766	121.68
360.977	70.48
361.189	136.02
361.4	23.38
361.611	99.16
361.823	148.31
362.034	64.34
362.245	-76.97
362.456	86.87
362.667	78.68
362.879	-21.67
363.09	62.29
363.301	121.68
363.512	-5.29
363.723	37.72
363.935	-33.96
364.146	88.92
364.357	33.62
364.568	107.35
364.779	-21.67
364.99	140.12
365.201	-31.91
365.412	140.12
365.623	-76.97
365.834	86.87
366.045	43.86
366.256	23.38
366.467	158.55
366.678	64.34
366.889	82.77
367.1	52.05
367.311	205.65
367.522	2.9
367.733	27.48
367.944	146.26
368.155	54.1
368.366	97.11
368.577	127.83
368.788	131.92
368.999	95.06
369.209	131.92
369.42	187.22
369.631	209.75
369.842	84.82
370.053	64.34
370.264	76.63
370.474	-19.63
370.685	68.44
370.896	80.72
371.107	168.79
371.317	23.38
371.528	31.57
371.739	84.82
371.95	103.25
372.16	62.29
372.371	39.76
372.582	-3.24
372.792	103.25
373.003	52.05
373.214	88.92
373.424	56.15
373.635	-38.06
373.846	176.98
374.056	13.14
374.267	93.01
374.477	97.11
374.688	64.34
374.898	117.59
375.109	31.57
375.319	103.25
375.53	203.6
375.74	103.25
375.951	52.05
376.161	99.16
376.372	207.7
376.582	29.52
376.793	80.72
377.003	74.58
377.214	43.86
377.424	78.68
377.635	97.11
377.845	35.67
378.055	168.79
378.266	21.33
378.476	29.52
378.686	123.73
378.897	156.5
379.107	78.68
379.317	99.16
379.528	37.72
379.738	93.01
379.948	-3.24
380.158	150.36
380.369	84.82
380.579	82.77
380.789	109.4
380.999	131.92
381.21	105.3
381.42	252.75
381.63	11.09
381.84	103.25
382.05	72.53
382.261	160.59
382.471	74.58
382.681	-13.48
382.891	185.17
383.101	78.68
383.311	-21.67
383.521	2.9
383.731	119.64
383.941	97.11
384.151	125.78
384.361	45.91
384.571	90.96
384.781	131.92
384.991	156.5
385.201	195.41
385.411	176.98
385.621	27.48
385.831	131.92
386.041	72.53
386.251	50
386.461	211.79
386.671	74.58
386.881	74.58
387.091	27.48
387.301	148.31
387.511	111.44
387.72	142.16
387.93	136.02
388.14	-50.35
388.35	140.12
388.56	72.53
388.769	121.68
388.979	76.63
389.189	-7.34
389.399	62.29
389.609	80.72
389.818	66.39
390.028	80.72
390.238	117.59
390.447	43.86
390.657	109.4
390.867	76.63
391.076	-70.83
391.286	97.11
391.496	-9.39
391.705	68.44
391.915	164.69
392.125	138.07
392.334	64.34
392.544	179.03
392.753	72.53
392.963	66.39
393.172	52.05
393.382	17.24
393.591	209.75
393.801	-58.54
394.01	164.69
394.22	105.3
394.429	50
394.639	90.96
394.848	138.07
395.058	39.76
395.267	56.15
395.477	101.2
395.686	68.44
395.895	267.09
396.105	170.83
396.314	111.44
396.524	154.45
396.733	74.58
396.942	164.69
397.152	23.38
397.361	129.88
397.57	62.29
397.78	37.72
397.989	158.55
398.198	222.03
398.407	82.77
398.617	35.67
398.826	74.58
399.035	15.19
399.244	142.16
399.453	107.35
399.663	109.4
399.872	64.34
400.081	-29.87
400.29	123.73
400.499	82.77
400.708	88.92
400.917	68.44
401.127	54.1
401.336	-56.49
401.545	158.55
401.754	129.88
401.963	158.55
402.172	21.33
402.381	-25.77
402.59	45.91
402.799	60.24
403.008	107.35
403.217	90.96
403.426	174.93
403.635	-50.35
403.844	70.48
404.053	70.48
404.262	45.91
404.471	211.79
404.68	123.73
404.888	64.34
405.097	50
405.306	97.11
405.515	125.78
405.724	17.24
405.933	136.02
406.142	115.54
406.35	113.49
406.559	76.63
406.768	146.26
406.977	176.98
407.185	82.77
407.394	74.58
407.603	11.09
407.812	76.63
408.02	123.73
408.229	11.09
408.438	189.27
408.646	-48.3
408.855	64.34
409.064	82.77
409.272	15.19
409.481	144.21
409.69	29.52
409.898	45.91
410.107	101.2
410.315	111.44
410.524	72.53
410.733	111.44
410.941	97.11
411.15	185.17
411.358	138.07
411.567	140.12
411.775	88.92
411.984	17.24
412.192	29.52
412.401	43.86
412.609	197.46
412.818	90.96
413.026	129.88
413.234	66.39
413.443	54.1
413.651	-42.15
413.86	72.53
414.068	131.92
414.276	189.27
414.485	-5.29
414.693	109.4
414.901	187.22
415.11	103.25
415.318	9.05
415.526	78.68
415.734	164.69
415.943	121.68
416.151	117.59
416.359	101.2
416.567	105.3
416.776	103.25
416.984	99.16
417.192	162.64
417.4	4.95
417.608	76.63
417.817	13.14
418.025	152.4
418.233	166.74
418.441	-105.64
418.649	15.19
418.857	176.98
419.065	281.43
419.273	76.63
419.481	74.58
419.689	56.15
419.897	117.59
420.105	-15.53
420.313	56.15
420.521	111.44
420.729	133.97
420.937	-42.15
421.145	-25.77
421.353	154.45
421.561	201.55
421.769	101.2
421.977	-3.24
422.185	156.5
422.393	33.62
422.601	150.36
422.809	142.16
423.017	70.48
423.224	45.91
423.432	88.92
423.64	70.48
423.848	146.26
424.056	17.24
424.263	140.12
424.471	35.67
424.679	191.31
424.887	39.76
425.094	136.02
425.302	82.77
425.51	168.79
425.718	152.4
425.925	93.01
426.133	47.96
426.341	234.32
426.548	56.15
426.756	70.48
426.964	50
427.171	39.76
427.379	64.34
427.586	136.02
427.794	133.97
428.001	160.59
428.209	84.82
428.417	213.84
428.624	168.79
428.832	146.26
429.039	99.16
429.247	66.39
429.454	162.64
429.662	144.21
429.869	88.92
430.076	105.3
430.284	164.69
430.491	183.12
430.699	203.6
430.906	217.94
431.114	158.55
431.321	207.7
431.528	95.06
431.736	142.16
431.943	136.02
432.15	213.84
432.358	181.07
432.565	254.8
432.772	101.2
432.979	140.12
433.187	179.03
433.394	133.97
433.601	127.83
433.808	224.08
434.016	217.94
434.223	252.75
434.43	213.84
434.637	332.62
434.844	328.53
435.052	230.23
435.259	293.71
435.466	240.47
435.673	303.95
435.88	291.66
436.087	375.63
436.294	291.66
436.501	363.34
436.708	267.09
436.915	316.24
437.122	396.11
437.329	213.84
437.537	334.67
437.743	363.34
437.95	375.63
438.157	340.82
438.364	320.34
438.571	383.82
438.778	445.26
438.985	521.04
439.192	439.12
439.399	389.97
439.606	480.08
439.813	455.5
440.02	605
440.227	586.57
440.433	547.66
440.64	504.65
440.847	478.03
441.054	578.38
441.261	662.35
441.467	672.59
441.674	578.38
441.881	740.17
442.088	670.54
442.294	729.93
442.501	863.05
442.708	842.57
442.914	815.94
443.121	932.68
443.328	848.71
443.534	850.76
443.741	875.34
443.948	809.8
444.154	1000.26
444.361	1106.76
444.568	1024.84
444.774	1020.74
444.981	901.96
445.187	1114.95
445.394	1168.2
445.6	1114.95
445.807	1301.31
446.013	1217.35
446.22	1207.11
446.426	1360.7
446.633	1489.73
446.839	1588.03
447.046	1336.13
447.252	1502.01
447.459	1590.08
447.665	1555.26
447.871	1753.91
448.078	1968.95
448.284	1862.46
448.491	1995.57
448.697	1989.43
448.903	2237.24
449.11	2063.16
449.316	2085.69
449.522	2347.83
449.728	2300.72
449.935	2396.98
450.141	2394.93
450.347	2800.43
450.553	2683.69
450.76	2652.97
450.966	2804.52
451.172	2790.19
451.378	3029.8
451.584	3191.59
451.791	3328.8
451.997	3402.53
452.203	3345.19
452.409	3691.29
452.615	3734.3
452.821	3644.19
453.027	3717.92
453.233	4191
453.44	4098.84
453.646	4248.34
453.852	4479.76
454.058	4612.88
454.264	4721.42
454.47	5190.41
454.676	5198.6
454.882	5630.72
455.088	5286.66
455.294	5669.63
455.5	5937.91
455.705	6222.58
455.911	6288.12
456.117	6384.37
456.323	6804.21
456.529	6644.46
456.735	7140.07
456.941	7668.45
457.147	7840.48
457.352	7873.25
457.558	8100.57
457.764	8684.24
457.97	9009.87
458.176	9284.3
458.381	9577.16
458.587	10115.77
458.793	10455.73
458.999	10330.81
459.204	11451.05
459.41	12126.88
459.616	12030.62
459.821	12694.16
460.027	13050.51
460.233	13785.73
460.438	13941.38
460.644	14535.29
460.85	14756.47
461.055	15184.49
461.261	16063.07
461.466	15948.39
461.672	15888.99
461.878	18053.7
462.083	17527.37
462.289	18111.04
462.494	18797.11
462.7	18883.13
462.905	19173.94
463.111	20896.28
463.316	22032.9
463.522	22053.38
463.727	22931.96
463.932	23853.55
464.138	24596.96
464.343	25903.56
464.549	25348.56
464.754	27357.62
464.959	28119.46
465.165	28363.17
465.37	28639.65
465.575	28674.46
465.781	30560.64
465.986	31457.65
466.191	30841.21
466.397	30935.42
466.602	30531.97
466.807	32135.53
467.012	32956.77
467.218	33460.57
467.423	33468.76
467.628	34113.87
467.833	36022.58
468.038	35641.65
468.244	34922.82
468.449	36661.54
468.654	35785.01
468.859	36100.4
469.064	36114.73
469.269	34871.62
469.474	35090.75
469.679	36356.39
469.885	35293.5
470.09	35975.47
470.295	35729.72
470.5	35221.82
470.705	35510.58
470.91	34306.38
471.115	33888.59
471.32	34830.66
471.525	34435.4
471.73	33372.5
471.935	33419.61
472.139	31930.73
472.344	32151.91
472.549	32104.81
472.754	31310.2
472.959	30515.59
473.164	29467.03
473.369	29188.5
473.574	30181.77
473.778	29190.55
473.983	28793.25
474.188	28230.05
474.393	27292.08
474.598	26892.73
474.802	26151.37
475.007	25774.54
475.212	26012.1
475.417	24545.76
475.621	24588.77
475.826	24222.18
476.031	23644.65
476.235	23292.4
476.44	23374.32
476.645	22682.11
476.849	22675.96
477.054	22022.66
477.259	21461.52
477.463	21479.95
477.668	20726.3
477.872	21121.56
478.077	19964.45
478.282	19554.86
478.486	19503.66
478.691	19180.08
478.895	19216.94
479.1	18756.15
479.304	18807.35
479.509	18293.31
479.713	18537.02
479.918	17889.86
480.122	17599.05
480.326	17898.05
480.531	17683.02
480.735	17580.62
480.94	17427.02
481.144	17732.17
481.348	16640.6
481.553	16847.44
481.757	16478.81
481.961	16773.72
482.166	16620.12
482.37	16446.04
482.574	16099.94
482.778	16228.96
482.983	16134.75
483.187	15977.06
483.391	15813.22
483.595	15678.05
483.8	15143.53
484.004	15493.74
484.208	15633
484.412	15090.29
484.616	15313.52
484.821	14922.35
485.025	14420.6
485.229	14690.93
485.433	14224
485.637	14146.17
485.841	13875.84
486.045	13830.79
486.249	14045.82
486.453	13372.04
486.657	13085.33
486.861	12950.16
487.065	12620.44
487.269	12733.08
487.473	12165.79
487.677	12446.36
487.881	12290.71
488.085	11864.74
488.289	11717.28
488.493	11594.4
488.697	11565.73
488.901	11215.53
489.105	10896.05
489.309	10762.93
489.512	10625.72
489.716	10541.75
489.92	10222.27
490.124	9874.11
490.328	10095.29
490.531	9712.32
490.735	9693.89
490.939	9439.94
491.143	9077.45
491.346	8962.76
491.55	8995.53
491.754	8835.79
491.958	8667.86
492.161	8540.88
492.365	8327.89
492.569	8237.78
492.772	8299.22
492.976	7957.21
493.18	7815.9
493.383	8004.32
493.587	7754.46
493.79	7783.13
493.994	7463.65
494.197	7504.61
494.401	7418.6
494.605	7246.57
494.808	7383.78
495.012	7246.57
495.215	7277.29
495.419	7422.69
495.622	6949.61
495.825	6990.57
496.029	7013.1
496.232	6961.9
496.436	6843.12
496.639	6871.79
496.843	6834.93
497.046	6918.89
497.249	7150.31
497.453	6955.76
497.656	6986.47
497.859	6826.73
498.063	6890.22
498.266	7045.87
498.469	6746.86
498.673	6748.91
498.876	7009
499.079	7035.63
499.282	6910.7
499.485	7340.77
499.689	7260.9
499.892	7283.43
500.095	6966
500.298	7326.44
500.501	7111.4
500.705	7414.5
500.908	7623.39
501.111	7469.8
501.314	7584.48
501.517	7598.82
501.72	7574.24
501.923	7523.04
502.126	7715.55
502.329	7998.17
502.532	7938.78
502.735	8162.01
502.938	8258.26
503.141	8237.78
503.344	8196.82
503.547	8598.23
503.75	8585.94
503.953	8696.53
504.156	8733.39
504.359	8936.14
504.562	8891.09
504.765	9022.16
504.968	9278.15
505.17	9491.14
505.373	9595.59
505.576	9646.79
505.779	9861.82
505.982	9894.59
506.185	10105.53
506.387	10283.7
506.59	10644.15
506.793	10695.35
506.996	10814.13
507.198	11121.32
507.401	11215.53
507.604	11502.25
507.807	11707.04
508.009	11940.51
508.212	12253.85
508.415	12470.94
508.617	12538.52
508.82	12757.65
509.022	12792.47
509.225	13558.41
509.428	13843.07
509.63	14168.7
509.833	14193.28
510.035	14877.3
510.238	14924.4
510.44	15172.21
510.643	15370.86
510.845	15944.29
511.048	15932
511.25	16513.63
511.453	16730.71
511.655	17566.28
511.858	17803.85
512.06	17969.73
512.262	18246.21
512.465	18608.7
512.667	19196.46
512.87	19554.86
513.072	20083.23
513.274	20517.4
513.477	20982.29
513.679	21342.74
513.881	21987.85
514.084	22622.72
514.286	23065.08
514.488	23474.67
514.69	24316.39
514.893	24709.6
515.095	25061.85
515.297	25405.91
515.499	25829.84
515.701	26495.43
515.904	26952.12
516.106	27986.35
516.308	28160.42
516.51	29006.23
516.712	29346.2
516.914	30003.6
517.116	30642.56
517.318	31316.34
517.52	31785.33
517.722	32162.15
517.925	33038.69
518.127	33591.64
518.329	34228.56
518.531	34322.76
518.733	35500.34
518.935	36069.68
519.136	36331.82
519.338	36958.5
519.54	37632.28
519.742	38566.15
519.944	38764.81
520.146	39434.49
520.348	40034.55
520.55	40229.1
520.752	40913.13
520.954	41429.21
521.155	41691.35
521.357	42582.22
521.559	43024.58
521.761	43985.08
521.963	43856.06
522.164	44216.5
522.366	44585.13
522.568	45453.47
522.77	45275.3
522.971	45901.98
523.173	45992.09
523.375	46233.75
523.576	46696.59
523.778	46694.54
523.98	47257.73
524.181	47327.36
524.383	47769.72
524.584	48146.55
524.786	48013.43
524.988	48185.46
525.189	48203.89
525.391	48300.15
525.592	48795.76
525.794	48392.31
525.995	48263.28
526.197	48453.75
526.398	48734.32
526.6	48463.99
526.801	48003.19
527.003	48253.05
527.204	48367.73
527.406	48191.61
527.607	47607.93
527.808	48064.63
528.01	46528.66
528.211	47194.25
528.412	47388.8
528.614	47057.03
528.815	46076.05
529.016	46819.47
529.218	45725.85
529.419	45545.63
529.62	45258.91
529.822	44640.43
530.023	44464.3
530.224	44226.74
530.425	44009.65
530.626	42965.19
530.828	41965.78
531.029	42721.48
531.23	41758.94
531.431	41324.77
531.632	41498.84
531.833	40937.7
532.035	40265.97
532.236	39416.06
532.437	39508.22
532.638	38873.35
532.839	38713.61
533.04	38443.27
533.241	37282.08
533.442	37847.32
533.643	36831.52
533.844	36036.91
534.045	35694.9
534.246	34976.06
534.447	35336.51
534.648	34132.3
534.849	33608.02
535.05	32913.76
535.251	33065.31
535.451	32340.33
535.652	32297.32
535.853	31553.91
536.054	31205.75
536.255	30454.15
536.456	30267.78
536.657	30509.44
536.857	29745.55
537.058	29096.35
537.259	29133.21
537.46	28586.4
537.66	27994.54
537.861	27779.5
538.062	27290.04
538.263	27003.32
538.463	26534.34
538.664	26155.46
538.865	26030.54
539.065	25831.88
539.266	25645.52
539.466	25141.72
539.667	24656.35
539.868	24857.05
540.068	24283.62
540.269	23917.03
540.469	23937.51
540.67	23253.49
540.87	23013.88
541.071	22798.84
541.271	22641.15
541.472	22385.15
541.672	22049.28
541.873	21594.64
542.073	21232.15
542.274	21705.23
542.474	20992.53
542.675	20716.06
542.875	20525.6
543.075	20474.4
543.276	19814.95
543.476	20152.87
543.676	19749.42
543.877	19753.51
544.077	19450.41
544.277	19018.29
544.478	18930.23
544.678	18858.55
544.878	18606.65
545.078	18369.09
545.279	17943.11
545.479	17896
545.679	17728.07
545.879	17216.08
546.079	17289.81
546.28	16917.08
546.48	16501.34
546.68	16396.89
546.88	16474.71
547.08	16204.38
547.28	15925.86
547.48	15426.15
547.68	15911.52
547.88	15510.12
548.081	15391.34
548.281	15059.57
548.481	14893.68
548.681	14862.96
548.881	14533.24
549.081	14226.04
549.28	13972.1
549.48	13972.1
549.68	13861.51
549.88	13894.27
550.08	13161.1
550.28	13386.38
550.48	13083.28
550.68	13120.14
550.88	12751.51
551.08	12501.65
551.279	12563.09
551.479	12202.65
551.679	11946.66
551.879	11707.04
552.079	11698.85
552.278	11373.22
552.478	11500.2
552.678	11229.87
552.878	11188.91
553.077	10859.18
553.277	10760.88
553.477	10740.4
553.676	10379.96
553.876	10369.72
554.076	9996.99
554.275	9960.13
554.475	9478.85
554.674	9734.85
554.874	9339.59
555.074	9188.04
555.273	9315.02
555.473	8909.52
555.672	8680.14
555.872	8821.45
556.071	8532.69
556.271	8665.81
556.47	8446.68
556.67	8092.38
556.869	7906.01
557.068	7926.49
557.268	7838.43
557.467	7707.36
557.667	7486.18
557.866	7547.62
558.065	7283.43
558.265	7160.55
558.464	6843.12
558.663	7123.69
558.863	6726.38
559.062	6826.73
559.261	6497.01
559.461	6619.89
559.66	6337.27
559.859	6230.77
560.058	6249.21
560.258	6054.65
560.457	6044.41
560.656	5980.92
560.855	5769.98
561.054	5847.8
561.253	5714.69
561.453	5542.66
561.652	5663.49
561.851	5466.88
562.05	5202.69
562.249	5045
562.448	5288.71
562.647	5075.72
562.846	4926.22
563.045	4928.27
563.244	4797.2
563.443	4811.53
563.642	4780.81
563.841	4573.97
564.04	4567.82
564.239	4645.65
564.438	4391.7
564.637	4293.4
564.836	4336.4
565.035	4272.92
565.234	4174.61
565.432	4332.31
565.631	3965.72
565.83	4057.88
566.029	3853.08
566.228	3787.55
566.427	3875.61
566.625	3595.04
566.824	3736.35
567.023	3564.32
567.222	3500.83
567.42	3541.79
567.619	3668.77
567.818	3474.21
568.016	3597.09
568.215	3339.04
568.414	3408.67
568.612	3121.96
568.811	3169.06
569.01	3136.29
569.208	3021.61
569.407	3201.83
569.605	3152.68
569.804	2978.6
570.002	2992.94
570.201	2962.22
570.4	2841.39
570.598	2710.32
570.797	2704.17
570.995	2655.02
571.193	2728.75
571.392	2659.12
571.59	2474.8
571.789	2597.68
571.987	2491.18
572.186	2575.15
572.384	2468.66
572.582	2403.12
572.781	2560.81
572.979	2286.39
573.177	2272.05
573.376	2339.63
573.574	2386.74
573.772	2175.8
573.971	2149.17
574.169	2110.26
574.367	2241.33
574.565	2054.97
574.763	2024.25
574.962	2044.73
575.16	2024.25
575.358	1958.71
575.556	1878.84
575.754	1930.04
575.952	1891.13
576.151	1825.59
576.349	1921.85
576.547	1676.09
576.745	1684.28
576.943	1663.8
577.141	1606.46
577.339	1592.13
577.537	1639.23
577.735	1639.23
577.933	1665.85
578.131	1590.08
578.329	1624.89
578.527	1579.84
578.725	1497.92
578.923	1377.09
579.121	1485.63
579.319	1387.33
579.516	1303.36
579.714	1571.65
579.912	1284.93
580.11	1266.5
580.308	1256.26
580.506	1348.42
580.704	1108.8
580.901	1227.59
581.099	1219.39
581.297	1200.96
581.495	1188.68
581.692	1268.55
581.89	1278.79
582.088	1168.2
582.285	1264.45
582.483	1047.37
582.681	1073.99
582.878	1082.18
583.076	1016.65
583.274	1067.85
583.471	1141.57
583.669	1043.27
583.866	932.68
584.064	1057.61
584.262	846.66
584.459	916.3
584.657	920.39
584.854	953.16
585.052	983.88
585.249	992.07
585.447	981.83
585.644	883.53
585.841	951.11
586.039	951.11
586.236	899.91
586.434	797.51
586.631	766.79
586.828	762.7
587.026	803.66
587.223	666.44
587.42	736.07
587.618	799.56
587.815	807.75
588.012	758.6
588.21	791.37
588.407	797.51
588.604	756.55
588.801	709.45
588.999	770.89
589.196	793.42
589.393	723.79
589.59	691.02
589.787	748.36
589.984	684.87
590.182	705.35
590.379	693.07
590.576	641.87
590.773	635.72
590.97	633.68
591.167	725.83
591.364	760.65
591.561	715.59
591.758	740.17
591.955	688.97
592.152	654.16
592.349	641.87
592.546	605
592.743	605
592.94	576.33
593.137	754.51
593.334	695.11
593.531	738.12
593.727	662.35
593.924	648.01
594.121	680.78
594.318	611.15
594.515	697.16
594.712	709.45
594.908	852.81
595.105	617.29
595.302	697.16
595.499	699.21
595.696	828.23
595.892	625.48
596.089	787.27
596.286	799.56
596.482	867.14
596.679	746.31
596.876	766.79
597.072	897.86
597.269	916.3
597.466	854.86
597.662	828.23
597.859	820.04
598.055	916.3
598.252	975.69
598.448	1022.79
598.645	1053.51
598.841	992.07
599.038	1119.04
599.234	1237.83
599.431	1196.87
599.627	1207.11
599.824	1250.11
600.02	1280.83
600.217	1272.64
600.413	1436.48
600.609	1479.49
600.806	1768.25
601.002	1510.21
601.198	1528.64
601.395	1766.2
601.591	1698.62
601.787	1823.55
601.984	1954.62
602.18	1958.71
602.376	1899.32
602.572	2124.6
602.769	2218.8
602.965	2288.43
603.161	2329.39
603.357	2433.84
603.553	2624.3
603.75	2501.42
603.946	2569.01
604.142	2726.7
604.338	2878.25
604.534	2958.12
604.73	3021.61
604.926	3097.38
605.122	3347.23
605.318	3281.7
605.514	3547.94
605.71	3461.92
605.906	3709.72
606.102	3715.87
606.298	3879.71
606.494	3949.34
606.69	4258.58
606.886	4221.72
607.082	4332.31
607.278	4457.23
607.474	4473.62
607.67	4858.64
607.866	4678.41
608.062	4868.88
608.257	5108.49
608.453	5163.78
608.649	5513.99
608.845	5260.04
609.041	5602.05
609.236	5761.79
609.432	6001.4
609.628	6109.94
609.824	6054.65
610.019	6454
610.215	6560.5
610.411	6849.26
610.606	6994.67
610.802	7115.5
610.998	7346.92
611.193	7674.59
611.389	7537.38
611.584	7949.02
611.78	7871.2
611.976	8288.98
612.171	8657.62
612.367	8710.86
612.562	8878.8
612.758	8993.48
612.953	9241.29
613.149	9708.23
613.344	9642.69
613.539	10115.77
613.735	10463.93
613.93	10754.74
614.126	10971.82
614.321	11348.65
614.517	11655.84
614.712	11895.46
614.907	11989.66
615.103	12620.44
615.298	12671.64
615.493	13159.05
615.688	13279.88
615.884	14152.32
616.079	14013.06
616.274	14420.6
616.47	14826.1
616.665	15121.01
616.86	15649.38
617.055	15815.27
617.25	16101.98
617.445	16792.15
617.641	17015.38
617.836	17613.38
618.031	17461.83
618.226	18846.26
618.421	18866.74
618.616	19411.5
618.811	19628.59
619.006	20498.97
619.201	20347.42
619.396	21099.03
619.591	21027.35
619.786	21985.8
619.981	22329.86
620.176	22944.25
620.371	23142.9
620.566	23523.82
620.761	24379.87
620.956	24791.52
621.151	24953.3
621.346	26085.83
621.541	25905.61
621.735	26753.47
621.93	26802.62
622.125	27822.51
622.32	27654.58
622.515	28621.22
622.709	29241.75
622.904	29856.14
623.099	30114.19
623.294	31021.44
623.488	30900.61
623.683	31596.92
623.878	31756.66
624.072	32973.15
624.267	33429.85
624.462	33691.99
624.656	34267.47
624.851	34896.19
625.046	35023.17
625.24	35502.39
625.435	36272.43
625.629	36700.45
625.824	37208.35
626.018	37880.08
626.213	37478.68
626.407	38248.72
626.602	38387.98
626.796	39639.29
626.991	39850.23
627.185	39524.6
627.38	40112.37
627.574	40083.7
627.768	40585.45
627.963	40503.53
628.157	40462.57
628.352	41171.17
628.546	40900.84
628.74	41562.33
628.935	40943.84
629.129	41150.69
629.323	40759.53
629.517	40607.98
629.712	40429.8
629.906	40124.66
630.1	39475.45
630.294	39930.1
630.489	39366.91
630.683	38904.07
630.877	37697.81
631.071	37671.19
631.265	37177.63
631.459	36256.04
631.653	35148.09
631.848	34812.23
632.042	34173.26
632.236	33106.27
632.43	32248.17
632.624	31461.75
632.818	29995.4
633.012	29684.11
633.206	28660.13
633.4	28109.22
633.594	26599.87
633.788	26139.08
633.982	25219.54
634.176	24527.33
634.369	23525.87
634.563	22409.73
634.757	21598.73
634.951	20996.63
635.145	20357.66
635.339	19102.26
635.533	18405.95
635.726	18051.65
635.92	17062.48
636.114	16396.89
636.308	15680.1
636.501	15157.87
636.695	14570.1
636.889	13970.05
637.083	13347.47
637.276	12991.12
637.47	12307.1
637.664	11915.94
637.857	11436.71
638.051	11023.02
638.244	10463.93
638.438	10152.63
638.632	9745.09
638.825	9200.33
639.019	9249.48
639.212	8305.37
639.406	8260.31
639.599	7779.04
639.793	7641.82
639.986	7133.93
640.18	7187.18
640.373	6740.72
640.567	6486.77
640.76	6238.97
640.954	5884.67
641.147	5741.31
641.34	5542.66
641.534	5378.82
641.727	5116.68
641.92	5053.19
642.114	4981.51
642.307	4619.02
642.5	4428.56
642.694	4113.17
642.887	4207.38
643.08	4109.08
643.273	3984.15
643.467	3728.16
643.66	3431.2
643.853	3228.45
644.046	3214.12
644.239	3111.72
644.432	2964.26
644.626	2753.32
644.819	2743.08
645.012	2652.97
645.205	2429.74
645.398	2538.29
645.591	2270
645.784	2175.8
645.977	2075.45
646.17	2112.31
646.363	2061.11
646.556	1858.36
646.749	1854.27
646.942	1798.97
647.135	1700.67
647.328	1639.23
647.521	1680.19
647.714	1651.52
647.907	1596.22
648.099	1397.57
648.292	1565.5
648.485	1407.81
648.678	1274.69
648.871	1317.7
649.064	1196.87
649.256	1104.71
649.449	1026.89
649.642	981.83
649.835	985.93
650.027	1008.45
650.22	998.21
650.413	955.21
650.605	1022.79
650.798	869.19
650.991	830.28
651.183	899.91
651.376	877.38
651.568	785.23
651.761	672.59
651.954	817.99
652.146	777.03
652.339	764.75
652.531	752.46
652.724	506.7
652.916	572.24
653.109	428.88
653.301	668.49
653.494	623.44
653.686	590.67
653.879	629.58
654.071	527.18
654.263	457.55
654.456	500.56
654.648	553.8
654.84	508.75
655.033	469.84
655.225	568.14
655.417	344.91
655.61	543.57
655.802	486.22
655.994	518.99
656.186	349.01
656.379	484.17
656.571	334.67
656.763	394.06
656.955	246.61
657.148	252.75
657.34	480.08
657.532	367.44
657.724	299.86
657.916	422.73
658.108	392.02
658.3	299.86
658.492	322.38
658.684	228.18
658.876	334.67
659.068	236.37
659.26	164.69
659.452	181.07
659.644	322.38
659.836	359.25
660.028	232.27
660.22	273.23
660.412	328.53
660.604	199.51
660.796	209.75
660.988	373.58
661.18	201.55
661.372	293.71
661.563	267.09
661.755	330.58
661.947	146.26
662.139	219.99
662.331	250.71
662.522	236.37
662.714	144.21
662.906	142.16
663.097	203.6
663.289	164.69
663.481	62.29
663.673	234.32
663.864	162.64
664.056	234.32
664.247	113.49
664.439	242.51
664.631	154.45
664.822	297.81
665.014	234.32
665.205	166.74
665.397	162.64
665.588	195.41
665.78	209.75
665.971	267.09
666.163	150.36
666.354	226.13
666.546	127.83
666.737	160.59
666.929	156.5
667.12	174.93
667.311	174.93
667.503	258.9
667.694	142.16
667.885	193.36
668.077	228.18
668.268	84.82
668.459	191.31
668.651	164.69
668.842	99.16
669.033	156.5
669.224	119.64
669.416	340.82
669.607	111.44
669.798	150.36
669.989	277.33
670.18	123.73
670.371	187.22
670.563	93.01
670.754	115.54
670.945	146.26
671.136	199.51
671.327	62.29
671.518	201.55
671.709	328.53
671.9	201.55
672.091	191.31
672.282	140.12
672.473	168.79
672.664	80.72
672.855	105.3
673.046	195.41
673.237	306
673.428	179.03
673.619	224.08
673.809	117.59
674	152.4
674.191	176.98
674.382	93.01
674.573	168.79
674.764	136.02
674.954	213.84
675.145	197.46
675.336	88.92
675.527	185.17
675.717	121.68
675.908	146.26
676.099	183.12
676.289	170.83
676.48	76.63
676.671	160.59
676.861	172.88
677.052	111.44
677.243	148.31
677.433	133.97
677.624	205.65
677.814	244.56
678.005	176.98
678.195	291.66
678.386	133.97
678.576	172.88
678.767	93.01
678.957	164.69
679.148	293.71
679.338	318.29
679.529	162.64
679.719	164.69
679.909	209.75
680.1	254.8
680.29	162.64
680.481	131.92
680.671	209.75
680.861	224.08
681.052	138.07
681.242	179.03
681.432	279.38
681.622	156.5
681.813	136.02
682.003	240.47
682.193	189.27
682.383	154.45
682.573	172.88
682.764	154.45
682.954	228.18
683.144	318.29
683.334	154.45
683.524	242.51
683.714	248.66
683.904	271.19
684.094	281.43
684.284	164.69
684.474	287.57
684.664	193.36
684.854	199.51
685.044	181.07
685.234	209.75
685.424	187.22
685.614	119.64
685.804	351.06
685.994	281.43
686.184	125.78
686.374	277.33
686.564	230.23
686.753	205.65
686.943	105.3
687.133	203.6
687.323	189.27
687.513	213.84
687.702	281.43
687.892	236.37
688.082	277.33
688.272	273.23
688.461	240.47
688.651	344.91
688.841	334.67
689.03	232.27
689.22	209.75
689.41	232.27
689.599	213.84
689.789	174.93
689.979	336.72
690.168	111.44
690.358	303.95
690.547	181.07
690.737	211.79
690.926	244.56
691.116	193.36
691.305	326.48
691.495	197.46
691.684	152.4
691.874	105.3
692.063	193.36
692.252	254.8
692.442	299.86
692.631	189.27
692.82	219.99
693.01	287.57
693.199	140.12
693.388	209.75
693.578	174.93
693.767	232.27
693.956	297.81
694.146	156.5
694.335	260.95
694.524	207.7
694.713	291.66
694.902	246.61
695.092	142.16
695.281	211.79
695.47	199.51
695.659	170.83
695.848	215.89
696.037	142.16
696.226	271.19
696.415	189.27
696.604	232.27
696.793	181.07
696.982	234.32
697.171	334.67
697.36	119.64
697.549	170.83
697.738	168.79
697.927	164.69
698.116	162.64
698.305	246.61
698.494	283.47
698.683	207.7
698.872	342.86
699.061	181.07
699.25	170.83
699.438	199.51
699.627	84.82
699.816	297.81
700.005	154.45
700.193	164.69
700.382	213.84
700.571	271.19
700.76	293.71
700.948	281.43
701.137	201.55
701.326	289.62
701.514	140.12
701.703	248.66
701.892	209.75
702.08	314.19
702.269	160.59
702.457	101.2
702.646	242.51
702.834	201.55
703.023	258.9
703.212	168.79
703.4	146.26
703.589	195.41
703.777	209.75
703.965	138.07
704.154	154.45
704.342	93.01
704.531	125.78
704.719	174.93
704.907	228.18
705.096	183.12
705.284	172.88
705.472	170.83
705.661	179.03
705.849	144.21
706.037	224.08
706.226	215.89
706.414	316.24
706.602	183.12
706.79	267.09
706.979	162.64
707.167	103.25
707.355	179.03
707.543	215.89
707.731	183.12
707.919	189.27
708.107	238.42
708.296	176.98
708.484	125.78
708.672	217.94
708.86	238.42
709.048	174.93
709.236	172.88
709.424	213.84
709.612	291.66
709.8	80.72
709.988	213.84
710.176	291.66
710.364	353.1
710.551	189.27
710.739	158.55
710.927	136.02
711.115	191.31
711.303	242.51
711.491	240.47
711.679	127.83
711.866	181.07
712.054	146.26
712.242	219.99
712.43	230.23
712.617	103.25
712.805	176.98
712.993	187.22
713.181	123.73
713.368	238.42
713.556	166.74
713.744	201.55
713.931	369.49
714.119	254.8
714.306	193.36
714.494	185.17
714.682	174.93
714.869	187.22
715.057	142.16
715.244	166.74
715.432	224.08
715.619	121.68
715.807	211.79
715.994	93.01
716.182	172.88
716.369	289.62
716.556	322.38
716.744	123.73
716.931	88.92
717.119	275.28
717.306	269.14
717.493	242.51
717.681	191.31
717.868	172.88
718.055	258.9
718.242	129.88
718.43	199.51
718.617	258.9
718.804	232.27
718.991	320.34
719.179	252.75
719.366	240.47
719.553	213.84
719.74	224.08
719.927	197.46
720.114	209.75
720.301	226.13
720.488	215.89
720.676	170.83
720.863	277.33
721.05	373.58
721.237	252.75
721.424	185.17
721.611	293.71
721.798	191.31
721.985	205.65
722.172	195.41
722.358	240.47
722.545	283.47
722.732	248.66
722.919	306
723.106	240.47
723.293	189.27
723.48	158.55
723.667	262.99
723.853	232.27
724.04	279.38
724.227	244.56
724.414	197.46
724.6	332.62
724.787	353.1
724.974	295.76
725.161	271.19
725.347	215.89
725.534	267.09
725.72	230.23
725.907	299.86
726.094	244.56
726.28	144.21
726.467	250.71
726.653	199.51
726.84	320.34
727.027	371.54
727.213	234.32
727.4	201.55
727.586	242.51
727.773	351.06
727.959	252.75
728.145	310.1
728.332	144.21
728.518	269.14
728.705	377.68
728.891	219.99
729.077	260.95
729.264	111.44
729.45	238.42
729.636	279.38
729.823	301.9
730.009	353.1
730.195	277.33
730.382	316.24
730.568	146.26
730.754	256.85
730.94	338.77
731.126	250.71
731.313	357.2
731.499	219.99
731.685	289.62
731.871	306
732.057	269.14
732.243	336.72
732.429	291.66
732.615	371.54
732.801	277.33
732.987	291.66
733.173	219.99
733.359	209.75
733.545	308.05
733.731	201.55
733.917	320.34
734.103	344.91
734.289	289.62
734.475	267.09
734.661	451.41
734.847	287.57
735.033	275.28
735.219	277.33
735.404	273.23
735.59	334.67
735.776	285.52
735.962	236.37
736.148	281.43
736.333	330.58
736.519	289.62
736.705	228.18
736.89	228.18
737.076	289.62
737.262	248.66
737.447	258.9
737.633	289.62
737.819	308.05
738.004	332.62
738.19	291.66
738.375	285.52
738.561	308.05
738.747	312.14
738.932	203.6
739.118	514.89
739.303	316.24
739.489	361.3
739.674	168.79
739.859	160.59
740.045	400.21
740.23	215.89
740.416	101.2
740.601	299.86
740.786	324.43
740.972	299.86
741.157	236.37
741.342	234.32
741.528	146.26
741.713	414.54
741.898	338.77
742.084	306
742.269	248.66
742.454	230.23
742.639	404.3
742.824	246.61
743.01	357.2
743.195	414.54
743.38	285.52
743.565	281.43
743.75	258.9
743.935	273.23
744.12	365.39
744.305	244.56
744.49	314.19
744.675	207.7
744.86	197.46
745.045	334.67
745.23	279.38
745.415	316.24
745.6	394.06
745.785	185.17
745.97	371.54
746.155	293.71
746.34	267.09
746.525	183.12
746.71	441.17
746.895	230.23
747.079	162.64
747.264	279.38
747.449	369.49
747.634	297.81
747.819	250.71
748.003	170.83
748.188	197.46
748.373	254.8
748.557	269.14
748.742	191.31
748.927	260.95
749.111	228.18
749.296	246.61
749.481	269.14
749.665	250.71
749.85	203.6
750.034	273.23
750.219	308.05
750.404	172.88
750.588	205.65
750.773	176.98
750.957	203.6
751.141	232.27
751.326	258.9
751.51	117.59
751.695	219.99
751.879	213.84
752.064	367.44
752.248	207.7
752.432	320.34
752.617	236.37
752.801	299.86
752.985	203.6
753.17	310.1
753.354	181.07
753.538	301.9
753.722	185.17
753.907	148.31
754.091	156.5
754.275	236.37
754.459	265.04
754.643	170.83
754.828	172.88
755.012	193.36
755.196	166.74
755.38	197.46
755.564	148.31
755.748	162.64
755.932	197.46
756.116	273.23
756.3	277.33
756.484	197.46
756.668	236.37
756.852	144.21
757.036	193.36
757.22	211.79
757.404	97.11
757.588	107.35
757.772	172.88
757.956	181.07
758.14	285.52
758.323	187.22
758.507	193.36
758.691	172.88
758.875	258.9
759.059	271.19
759.242	174.93
759.426	205.65
759.61	197.46
759.794	58.2
759.977	209.75
760.161	424.78
760.345	283.47
760.528	250.71
760.712	179.03
760.895	215.89
761.079	170.83
761.263	140.12
761.446	125.78
761.63	207.7
761.813	254.8
761.997	66.39
762.18	90.96
762.364	252.75
762.547	82.77
762.731	168.79
762.914	131.92
763.098	99.16
763.281	111.44
763.464	170.83
763.648	121.68
763.831	76.63
764.015	111.44
764.198	154.45
764.381	111.44
764.564	115.54
764.748	201.55
764.931	158.55
765.114	164.69
765.297	219.99
765.481	80.72
765.664	131.92
765.847	174.93
766.03	310.1
766.213	158.55
766.397	197.46
766.58	90.96
766.763	170.83
766.946	9.05
767.129	-19.63
767.312	90.96
767.495	99.16
767.678	111.44
767.861	172.88
768.044	80.72
768.227	144.21
768.41	27.48
768.593	148.31
768.776	172.88
768.959	43.86
769.142	283.47
769.324	86.87
769.507	62.29
769.69	131.92
769.873	115.54
770.056	246.61
770.239	111.44
770.421	269.14
770.604	144.21
770.787	111.44
770.97	74.58
771.152	95.06
771.335	193.36
771.518	93.01
771.7	172.88
771.883	248.66
772.066	111.44
772.248	187.22
772.431	197.46
772.613	117.59
772.796	150.36
772.978	172.88
773.161	195.41
773.343	78.68
773.526	29.52
773.708	60.24
773.891	7
774.073	90.96
774.256	60.24
774.438	234.32
774.621	25.43
774.803	174.93
774.985	97.11
775.168	193.36
775.35	70.48
775.532	121.68
775.715	70.48
775.897	172.88
776.079	54.1
776.261	121.68
776.444	136.02
776.626	109.4
776.808	121.68
776.99	0.85
777.173	80.72
777.355	136.02
777.537	101.2
777.719	146.26
777.901	76.63
778.083	23.38
778.265	-56.49
778.447	160.59
778.629	82.77
778.811	54.1
778.993	125.78
779.175	154.45
779.357	80.72
779.539	37.72
779.721	52.05
779.903	115.54
780.085	129.88
780.267	125.78
780.449	115.54
780.631	82.77
780.812	203.6
780.994	45.91
781.176	31.57
781.358	123.73
781.54	113.49
781.721	205.65
781.903	115.54
782.085	90.96
782.267	250.71
782.448	-7.34
782.63	64.34
782.812	113.49
782.993	127.83
783.175	90.96
783.357	37.72
783.538	121.68
783.72	43.86
783.901	111.44
784.083	131.92
784.264	140.12
784.446	9.05
784.627	9.05
784.809	111.44
784.99	19.29
785.172	133.97
785.353	66.39
785.535	103.25
785.716	60.24
785.897	21.33
786.079	-50.35
786.26	41.81
786.441	60.24
786.623	-70.83
786.804	17.24
786.985	37.72
787.167	35.67
787.348	29.52
787.529	119.64
787.71	140.12
787.891	191.31
788.073	-1.19
788.254	-76.97
788.435	176.98
788.616	35.67
788.797	-27.82
788.978	54.1
789.159	-3.24
789.34	15.19
789.522	35.67
789.703	41.81
789.884	140.12
790.065	-21.67
790.246	115.54
790.427	-1.19
790.607	189.27
790.788	105.3
790.969	21.33
791.15	58.2
791.331	-15.53
791.512	21.33
791.693	15.19
791.874	54.1
792.054	238.42
792.235	127.83
792.416	2.9
792.597	-48.3
792.778	113.49
792.958	103.25
793.139	97.11
793.32	138.07
793.5	21.33
793.681	125.78
793.862	52.05
794.042	72.53
794.223	-146.6
794.404	-38.06
794.584	-27.82
794.765	47.96
794.945	107.35
795.126	60.24
795.306	125.78
795.487	33.62
795.667	23.38
795.848	90.96
796.028	21.33
796.209	31.57
796.389	127.83
796.57	-36.01
796.75	39.76
796.93	-29.87
797.111	-52.39
797.291	76.63
797.471	72.53
797.652	11.09
797.832	0.85
798.012	144.21
798.192	66.39
798.373	7
798.553	-23.72
798.733	117.59
798.913	4.95
799.093	-56.49
799.274	97.11
799.454	168.79
799.634	82.77
799.814	121.68
799.994	99.16
800.174	97.11
800.354	72.53
800.534	-15.53
800.714	62.29
800.894	-40.11
801.074	-33.96
801.254	-11.43
801.434	133.97
801.614	-76.97
801.794	-74.92
801.974	1725.24
802.154	-48.3
802.334	93.01
802.514	-72.87
802.693	105.3
802.873	19.29
803.053	105.3
803.233	33.62
803.413	-9.39
803.592	-9.39
803.772	33.62
803.952	58.2
804.131	-9.39
804.311	101.2
804.491	164.69
804.67	-33.96
804.85	33.62
805.03	88.92
805.209	144.21
805.389	66.39
805.568	-33.96
805.748	119.64
805.928	-25.77
806.107	72.53
806.287	54.1
806.466	45.91
806.646	72.53
806.825	-25.77
807.004	-9.39
807.184	82.77
807.363	121.68
807.543	90.96
807.722	-25.77
807.901	109.4
808.081	86.87
808.26	-87.21
808.439	11.09
808.619	-7.34
808.798	27.48
808.977	70.48
809.156	101.2
809.336	13.14
809.515	25.43
809.694	-11.43
809.873	-83.11
810.052	90.96
810.231	74.58
810.411	11.09
810.59	166.74
810.769	-23.72
810.948	0.85
811.127	-148.65
811.306	17.24
811.485	43.86
811.664	117.59
811.843	17.24
812.022	27.48
812.201	27.48
812.38	47.96
812.559	-1.19
812.737	117.59
812.916	-40.11
813.095	25.43
813.274	68.44
813.453	64.34
813.632	31.57
813.811	111.44
813.989	-68.78
814.168	-3.24
814.347	-46.25
814.526	101.2
814.704	78.68
814.883	152.4
815.062	-68.78
815.24	109.4
815.419	-54.44
815.598	27.48
815.776	-70.83
815.955	-1.19
816.133	-46.25
816.312	50
816.49	58.2
816.669	-50.35
816.847	78.68
817.026	25.43
817.204	15.19
817.383	-38.06
817.561	-21.67
817.74	25.43
817.918	58.2
818.097	54.1
818.275	-9.39
818.453	31.57
818.632	68.44
818.81	-1.19
818.988	-11.43
819.167	15.19
819.345	9.05
819.523	47.96
819.701	-7.34
819.879	13.14
820.058	58.2
820.236	54.1
820.414	74.58
820.592	39.76
820.77	15.19
820.948	-36.01
821.127	-36.01
821.305	80.72
821.483	-31.91
821.661	109.4
821.839	21.33
822.017	7
822.195	-25.77
822.373	84.82
822.551	-13.48
822.729	80.72
822.907	-23.72
823.085	66.39
823.262	-9.39
823.44	-27.82
823.618	-11.43
823.796	-25.77
823.974	4.95
824.152	-36.01
824.329	-21.67
824.507	17.24
824.685	72.53
824.863	47.96
825.04	-19.63
825.218	17.24
825.396	54.1
825.574	66.39
825.751	31.57
825.929	107.35
826.107	-36.01
826.284	39.76
826.462	45.91
826.639	-83.11
826.817	13.14
826.994	-3.24
827.172	-25.77
827.349	109.4
827.527	52.05
827.704	97.11
827.882	-1.19
828.059	93.01
828.237	-36.01
828.414	97.11
828.591	-150.7
828.769	-36.01
828.946	-29.87
829.124	131.92
829.301	101.2
829.478	19.29
829.655	88.92
829.833	-7.34
830.01	-66.73
830.187	88.92
830.364	54.1
830.542	23.38
830.719	142.16
830.896	60.24
831.073	84.82
831.25	-23.72
831.427	68.44
831.604	9.05
831.782	4.95
831.959	113.49
832.136	9.05
832.313	-9.39
832.49	-64.68
832.667	21.33
832.844	15.19
833.021	74.58
833.198	-40.11
833.374	19.29
833.551	21.33
833.728	47.96
833.905	125.78
834.082	-93.35
834.259	7
834.436	74.58
834.612	-54.44
834.789	62.29
834.966	2.9
835.143	-17.58
835.319	-72.87
835.496	9.05
835.673	101.2
835.85	74.58
836.026	70.48
836.203	119.64
836.38	-17.58
836.556	-11.43
836.733	-52.39
836.909	146.26
837.086	58.2
837.262	-99.5
837.439	-44.2
837.616	4.95
837.792	58.2
837.968	88.92
838.145	-134.31
838.321	43.86
838.498	74.58
838.674	56.15
838.851	43.86
839.027	-31.91
839.203	-3.24
839.38	117.59
839.556	-31.91
839.732	60.24
839.909	-44.2
840.085	88.92
840.261	25.43
840.437	-3.24
840.614	45.91
840.79	84.82
840.966	82.77
841.142	56.15
841.318	-31.91
841.494	50
841.671	33.62
841.847	-87.21
842.023	-85.16
842.199	-11.43
842.375	150.36
842.551	-95.4
842.727	-48.3
842.903	142.16
843.079	-19.63
843.255	133.97
843.431	72.53
843.607	82.77
843.783	-171.18
843.959	17.24
844.134	-33.96
844.31	80.72
844.486	-29.87
844.662	-40.11
844.838	-27.82
845.013	70.48
845.189	123.73
845.365	11.09
845.541	15.19
845.716	47.96
845.892	88.92
846.068	-38.06
846.244	-11.43
846.419	50
846.595	-87.21
846.77	25.43
846.946	154.45
847.122	-70.83
847.297	0.85
847.473	86.87
847.648	-66.73
847.824	29.52
847.999	-122.02
848.175	0.85
848.35	64.34
848.526	133.97
848.701	60.24
848.876	107.35
849.052	70.48
849.227	66.39
849.403	-5.29
849.578	23.38
849.753	-15.53
849.929	95.06
850.104	-85.16
850.279	17.24
850.454	56.15
850.63	84.82
850.805	56.15
850.98	-11.43
851.155	39.76
851.33	-9.39
851.505	-113.83
851.681	121.68
851.856	-31.91
852.031	17.24
852.206	29.52
852.381	15.19
852.556	-7.34
852.731	58.2
852.906	37.72
853.081	9.05
853.256	162.64
853.431	70.48
853.606	-33.96
853.781	-17.58
853.956	-83.11
854.131	115.54
854.305	-50.35
854.48	-36.01
854.655	11.09
854.83	-74.92
855.005	-72.87
855.18	31.57
855.354	25.43
855.529	29.52
855.704	37.72
855.879	93.01
856.053	-17.58
856.228	80.72
856.403	-36.01
856.577	60.24
856.752	-68.78
856.926	-40.11
857.101	9.05
857.276	-36.01
857.45	47.96
857.625	43.86
857.799	31.57
857.974	50
858.148	-107.69
858.323	115.54
858.497	72.53
858.672	7
858.846	-42.15
859.02	52.05
859.195	-23.72
859.369	-62.63
859.543	-48.3
859.718	-27.82
859.892	95.06
860.066	88.92
860.241	-62.63
860.415	-29.87
860.589	2.9
860.763	19.29
860.938	15.19
861.112	66.39
861.286	-19.63
861.46	29.52
861.634	-42.15
861.808	170.83
861.982	-95.4
862.157	-21.67
862.331	-5.29
862.505	-93.35
862.679	-50.35
862.853	-23.72
863.027	33.62
863.201	45.91
863.375	-44.2
863.549	2.9
863.722	45.91
863.896	176.98
864.07	-21.67
864.244	-9.39
864.418	-83.11
864.592	25.43
864.766	39.76
864.939	56.15
865.113	-52.39
865.287	68.44
865.461	-64.68
865.634	37.72
865.808	-13.48
865.982	4.95
866.156	-52.39
866.329	-76.97
866.503	31.57
866.676	64.34
866.85	33.62
867.024	4.95
867.197	72.53
867.371	58.2
867.544	107.35
867.718	-101.55
867.891	68.44
868.065	-122.02
868.238	13.14
868.412	123.73
868.585	13.14
868.759	-7.34
868.932	15.19
869.105	-29.87
869.279	-31.91
869.452	-79.02
869.625	-11.43
869.799	-1.19
869.972	-19.63
870.145	29.52
870.319	115.54
870.492	-64.68
870.665	23.38
870.838	-50.35
871.011	-177.32
871.185	-1.19
871.358	-19.63
871.531	29.52
871.704	21.33
871.877	-25.77
872.05	-5.29
872.223	0.85
872.396	47.96
872.569	62.29
872.742	-111.78
872.915	0.85
873.088	35.67
873.261	-136.36
873.434	15.19
873.607	31.57
873.78	43.86
873.953	-103.59
874.126	70.48
874.299	54.1
874.471	13.14
874.644	76.63
874.817	33.62
874.99	103.25
875.163	-87.21
875.335	56.15
875.508	-40.11
875.681	148.31
875.853	-76.97
876.026	25.43
876.199	58.2
876.371	-27.82
876.544	50
876.717	39.76
876.889	-48.3
877.062	2.9
877.234	-162.98
877.407	-7.34
877.579	-40.11
877.752	64.34
877.924	115.54
878.097	68.44
878.269	72.53
878.442	0.85
878.614	103.25
878.786	95.06
878.959	-11.43
879.131	86.87
879.303	-62.63
879.476	-13.48
879.648	164.69
879.82	-3.24
879.993	-23.72
880.165	-17.58
880.337	-68.78
880.509	2.9
880.681	-83.11
880.854	80.72
881.026	68.44
881.198	199.51
881.37	29.52
881.542	-56.49
881.714	25.43
881.886	-31.91
882.058	43.86
882.23	52.05
882.402	21.33
882.574	33.62
882.746	90.96
882.918	37.72
883.09	64.34
883.262	-5.29
883.434	-33.96
883.606	-113.83
883.778	-60.59
883.95	115.54
884.122	-7.34
884.293	121.68
884.465	56.15
884.637	64.34
884.809	-85.16
884.98	-27.82
885.152	78.68
885.324	43.86
885.496	0.85
885.667	-29.87
885.839	-52.39
886.011	140.12
886.182	31.57
886.354	70.48
886.525	93.01
886.697	2.9
886.869	21.33
887.04	-23.72
887.212	109.4
887.383	138.07
887.555	66.39
887.726	-70.83
887.897	-31.91
888.069	11.09
888.24	117.59
888.412	45.91
888.583	4.95
888.754	-27.82
888.926	-76.97
889.097	-33.96
889.268	-60.59
889.44	-19.63
889.611	-44.2
889.782	-68.78
889.953	-52.39
890.125	99.16
890.296	-68.78
890.467	93.01
890.638	15.19
890.809	33.62
890.98	-31.91
891.151	11.09
891.323	97.11
891.494	-42.15
891.665	68.44
891.836	-58.54
892.007	31.57
892.178	0.85
892.349	27.48
892.52	11.09
892.691	35.67
892.862	-38.06
893.032	-87.21
893.203	-9.39
893.374	50
893.545	115.54
893.716	50
893.887	111.44
894.057	-42.15
894.228	78.68
894.399	-17.58
894.57	136.02
894.74	-31.91
894.911	-29.87
895.082	-15.53
895.253	39.76
895.423	-15.53
895.594	93.01
895.764	101.2
895.935	-44.2
896.106	43.86
896.276	-54.44
896.447	-72.87
896.617	15.19
896.788	-68.78
896.958	27.48
897.129	-19.63
897.299	-42.15
897.47	111.44
897.64	74.58
897.81	-36.01
897.981	23.38
898.151	31.57
898.322	82.77
898.492	86.87
898.662	17.24
898.832	-27.82
899.003	-70.83
899.173	105.3
899.343	-21.67
899.513	-103.59
