Data from USB4F104151__85__11-31-31-760.txt Node

Date: Wed Feb 26 11:31:31 EST 2025
User: louis
Spectrometer: USB4F10415
Trigger mode: 4
Integration Time (sec): 1.000000E-1
Scans to average: 1
Electric dark correction enabled: true
Nonlinearity correction enabled: false
Boxcar width: 0
XAxis mode: Wavelengths
Number of Pixels in Spectrum: 3648
>>>>>Begin Spectral Data<<<<<
178.204	-379.39
178.424	-379.39
178.644	-379.39
178.864	-408.06
179.084	-426.49
179.304	69.12
179.524	-12.8
179.744	30.21
179.964	-25.09
180.184	-16.9
180.404	24.06
180.624	-25.09
180.844	26.11
181.064	-35.33
181.283	9.73
181.503	-61.95
181.723	17.92
181.943	-102.91
182.163	206.33
182.383	-55.81
182.602	101.89
182.822	175.61
183.042	95.74
183.262	-39.42
183.482	5.63
183.701	110.08
183.921	48.64
184.141	-74.24
184.361	91.65
184.58	54.78
184.8	50.69
185.02	-76.29
185.239	110.08
185.459	73.21
185.679	155.13
185.898	-53.76
186.118	161.28
186.338	30.21
186.557	126.46
186.777	-43.52
186.997	11.78
187.216	-10.75
187.436	230.91
187.655	91.65
187.875	132.61
188.095	-6.66
188.314	87.55
188.534	179.71
188.753	5.63
188.973	136.7
189.192	163.33
189.412	24.06
189.631	136.7
189.851	69.12
190.07	183.81
190.29	-18.94
190.509	13.82
190.729	52.74
190.948	161.28
191.168	275.96
191.387	101.89
191.607	54.78
191.826	71.17
192.045	62.98
192.265	77.31
192.484	91.65
192.704	19.97
192.923	-64
193.142	192
193.362	138.75
193.581	122.37
193.8	56.83
194.02	105.98
194.239	62.98
194.458	69.12
194.678	28.16
194.897	9.73
195.116	89.6
195.335	54.78
195.555	62.98
195.774	81.41
195.993	196.09
196.212	38.4
196.432	-14.85
196.651	38.4
196.87	-8.7
197.089	251.39
197.308	112.13
197.528	108.03
197.747	-64
197.966	24.06
198.185	83.45
198.404	-18.94
198.623	151.04
198.842	101.89
199.062	75.26
199.281	52.74
199.5	67.07
199.719	110.08
199.938	56.83
200.157	85.5
200.376	132.61
200.595	171.52
200.814	65.02
201.033	-31.23
201.252	155.13
201.471	38.4
201.69	124.41
201.909	85.5
202.128	112.13
202.347	71.17
202.566	22.02
202.785	-35.33
203.004	62.98
203.223	263.68
203.442	89.6
203.661	-8.7
203.879	103.93
204.098	122.37
204.317	-2.56
204.536	101.89
204.755	122.37
204.974	130.56
205.193	9.73
205.411	124.41
205.63	132.61
205.849	95.74
206.068	-43.52
206.287	17.92
206.505	138.75
206.724	11.78
206.943	13.82
207.162	26.11
207.381	93.69
207.599	44.54
207.818	28.16
208.037	-18.94
208.255	-43.52
208.474	44.54
208.693	46.59
208.911	9.73
209.13	124.41
209.349	134.65
209.567	153.09
209.786	69.12
210.005	134.65
210.223	19.97
210.442	-94.72
210.661	17.92
210.879	77.31
211.098	1.54
211.316	105.98
211.535	73.21
211.753	28.16
211.972	81.41
212.191	62.98
212.409	77.31
212.628	159.23
212.846	46.59
213.065	122.37
213.283	171.52
213.502	71.17
213.72	24.06
213.938	19.97
214.157	44.54
214.375	95.74
214.594	-10.75
214.812	128.51
215.031	44.54
215.249	-6.66
215.467	38.4
215.686	30.21
215.904	148.99
216.122	60.93
216.341	144.89
216.559	79.36
216.778	124.41
216.996	67.07
217.214	54.78
217.432	-45.57
217.651	36.35
217.869	40.45
218.087	85.5
218.306	24.06
218.524	28.16
218.742	65.02
218.96	134.65
219.179	67.07
219.397	5.63
219.615	288.25
219.833	91.65
220.051	54.78
220.27	126.46
220.488	140.8
220.706	108.03
220.924	-23.04
221.142	44.54
221.36	73.21
221.578	81.41
221.796	99.84
222.015	36.35
222.233	-4.61
222.451	124.41
222.669	-0.51
222.887	93.69
223.105	15.87
223.323	46.59
223.541	-45.57
223.759	34.3
223.977	36.35
224.195	128.51
224.413	89.6
224.631	40.45
224.849	89.6
225.067	210.43
225.285	95.74
225.503	-6.66
225.721	-82.43
225.939	83.45
226.157	83.45
226.375	259.58
226.592	42.5
226.81	101.89
227.028	91.65
227.246	75.26
227.464	79.36
227.682	101.89
227.9	46.59
228.117	159.23
228.335	62.98
228.553	28.16
228.771	110.08
228.989	71.17
229.206	142.85
229.424	81.41
229.642	50.69
229.86	19.97
230.077	144.89
230.295	40.45
230.513	134.65
230.731	50.69
230.948	185.85
231.166	220.67
231.384	110.08
231.601	7.68
231.819	163.33
232.037	-33.28
232.254	-53.76
232.472	-14.85
232.689	28.16
232.907	-2.56
233.125	71.17
233.342	7.68
233.56	5.63
233.777	9.73
233.995	34.3
234.213	124.41
234.43	34.3
234.648	54.78
234.865	56.83
235.083	79.36
235.3	28.16
235.518	73.21
235.735	140.8
235.953	101.89
236.17	30.21
236.388	40.45
236.605	69.12
236.822	161.28
237.04	146.94
237.257	108.03
237.475	-6.66
237.692	-29.18
237.909	54.78
238.127	-33.28
238.344	93.69
238.562	50.69
238.779	-31.23
238.996	-2.56
239.214	17.92
239.431	112.13
239.648	83.45
239.865	148.99
240.083	75.26
240.3	83.45
240.517	36.35
240.735	-2.56
240.952	118.27
241.169	1.54
241.386	89.6
241.603	36.35
241.821	-4.61
242.038	114.17
242.255	103.93
242.472	-49.66
242.689	85.5
242.907	32.26
243.124	48.64
243.341	32.26
243.558	15.87
243.775	24.06
243.992	11.78
244.209	67.07
244.426	155.13
244.643	65.02
244.86	-0.51
245.078	97.79
245.295	56.83
245.512	11.78
245.729	-43.52
245.946	69.12
246.163	118.27
246.38	11.78
246.597	-18.94
246.814	28.16
247.031	69.12
247.248	144.89
247.464	-18.94
247.681	122.37
247.898	114.17
248.115	159.23
248.332	30.21
248.549	91.65
248.766	138.75
248.983	130.56
249.2	54.78
249.417	77.31
249.633	9.73
249.85	38.4
250.067	62.98
250.284	62.98
250.501	77.31
250.717	116.22
250.934	-10.75
251.151	48.64
251.368	24.06
251.585	9.73
251.801	103.93
252.018	-41.47
252.235	87.55
252.451	13.82
252.668	38.4
252.885	112.13
253.102	48.64
253.318	-0.51
253.535	28.16
253.752	-61.95
253.968	-23.04
254.185	-33.28
254.401	46.59
254.618	-16.9
254.835	-20.99
255.051	181.76
255.268	83.45
255.484	83.45
255.701	54.78
255.917	97.79
256.134	1.54
256.351	83.45
256.567	-53.76
256.784	-49.66
257	-57.86
257.217	105.98
257.433	95.74
257.65	138.75
257.866	124.41
258.082	-8.7
258.299	95.74
258.515	89.6
258.732	83.45
258.948	60.93
259.165	56.83
259.381	-55.81
259.597	103.93
259.814	-33.28
260.03	32.26
260.246	58.88
260.463	71.17
260.679	142.85
260.895	58.88
261.112	19.97
261.328	30.21
261.544	-6.66
261.761	165.37
261.977	42.5
262.193	7.68
262.409	48.64
262.626	58.88
262.842	-64
263.058	-14.85
263.274	48.64
263.49	77.31
263.707	71.17
263.923	169.47
264.139	-76.29
264.355	99.84
264.571	58.88
264.787	71.17
265.004	124.41
265.22	87.55
265.436	-10.75
265.652	42.5
265.868	83.45
266.084	-25.09
266.3	58.88
266.516	7.68
266.732	-14.85
266.948	34.3
267.164	-0.51
267.38	34.3
267.596	54.78
267.812	163.33
268.028	42.5
268.244	-12.8
268.46	99.84
268.676	-16.9
268.892	56.83
269.108	-27.14
269.324	15.87
269.54	-64
269.756	105.98
269.972	11.78
270.188	32.26
270.403	-117.25
270.619	42.5
270.835	108.03
271.051	67.07
271.267	54.78
271.483	13.82
271.698	122.37
271.914	83.45
272.13	42.5
272.346	71.17
272.562	85.5
272.777	148.99
272.993	19.97
273.209	36.35
273.425	83.45
273.64	-47.62
273.856	87.55
274.072	-8.7
274.287	26.11
274.503	40.45
274.719	114.17
274.934	87.55
275.15	-20.99
275.366	44.54
275.581	32.26
275.797	-16.9
276.012	108.03
276.228	75.26
276.444	103.93
276.659	163.33
276.875	-10.75
277.09	26.11
277.306	17.92
277.521	50.69
277.737	69.12
277.952	122.37
278.168	75.26
278.383	103.93
278.599	26.11
278.814	81.41
279.03	44.54
279.245	189.95
279.461	99.84
279.676	134.65
279.892	-107.01
280.107	75.26
280.322	-31.23
280.538	108.03
280.753	38.4
280.969	24.06
281.184	54.78
281.399	136.7
281.615	13.82
281.83	65.02
282.045	-68.09
282.26	26.11
282.476	28.16
282.691	167.42
282.906	130.56
283.122	15.87
283.337	3.58
283.552	32.26
283.767	-10.75
283.983	155.13
284.198	34.3
284.413	101.89
284.628	-66.05
284.843	24.06
285.058	116.22
285.274	32.26
285.489	11.78
285.704	124.41
285.919	-2.56
286.134	13.82
286.349	58.88
286.564	60.93
286.779	118.27
286.995	11.78
287.21	-98.81
287.425	9.73
287.64	-6.66
287.855	32.26
288.07	-25.09
288.285	73.21
288.5	112.13
288.715	65.02
288.93	79.36
289.145	36.35
289.36	79.36
289.575	34.3
289.79	153.09
290.004	-10.75
290.219	173.57
290.434	-0.51
290.649	73.21
290.864	19.97
291.079	36.35
291.294	77.31
291.509	91.65
291.724	26.11
291.938	-29.18
292.153	65.02
292.368	48.64
292.583	120.32
292.798	73.21
293.012	85.5
293.227	36.35
293.442	-37.38
293.657	120.32
293.871	153.09
294.086	69.12
294.301	169.47
294.516	192
294.73	15.87
294.945	22.02
295.16	50.69
295.374	134.65
295.589	83.45
295.804	-0.51
296.018	30.21
296.233	173.57
296.447	54.78
296.662	-2.56
296.877	216.57
297.091	97.79
297.306	87.55
297.52	83.45
297.735	77.31
297.949	71.17
298.164	126.46
298.378	60.93
298.593	48.64
298.807	52.74
299.022	32.26
299.236	181.76
299.451	-47.62
299.665	13.82
299.88	48.64
300.094	89.6
300.309	65.02
300.523	56.83
300.737	34.3
300.952	34.3
301.166	77.31
301.381	-25.09
301.595	-35.33
301.809	26.11
302.024	-2.56
302.238	-55.81
302.452	108.03
302.667	7.68
302.881	157.18
303.095	153.09
303.309	38.4
303.524	-31.23
303.738	32.26
303.952	30.21
304.166	65.02
304.381	-66.05
304.595	132.61
304.809	54.78
305.023	87.55
305.237	50.69
305.452	67.07
305.666	62.98
305.88	93.69
306.094	159.23
306.308	38.4
306.522	95.74
306.736	69.12
306.95	15.87
307.164	44.54
307.379	-18.94
307.593	192
307.807	202.24
308.021	91.65
308.235	50.69
308.449	-31.23
308.663	-43.52
308.877	226.81
309.091	79.36
309.305	116.22
309.519	-6.66
309.733	83.45
309.947	28.16
310.161	105.98
310.374	179.71
310.588	173.57
310.802	-0.51
311.016	9.73
311.23	105.98
311.444	26.11
311.658	22.02
311.872	148.99
312.085	44.54
312.299	210.43
312.513	144.89
312.727	85.5
312.941	-84.48
313.154	40.45
313.368	54.78
313.582	30.21
313.796	50.69
314.009	60.93
314.223	126.46
314.437	36.35
314.651	60.93
314.864	79.36
315.078	-74.24
315.292	-109.05
315.505	-2.56
315.719	-10.75
315.933	134.65
316.146	-25.09
316.36	7.68
316.573	112.13
316.787	62.98
317.001	54.78
317.214	-2.56
317.428	26.11
317.641	5.63
317.855	-6.66
318.068	56.83
318.282	95.74
318.495	206.33
318.709	95.74
318.922	-0.51
319.136	54.78
319.349	73.21
319.563	93.69
319.776	122.37
319.99	-18.94
320.203	103.93
320.417	73.21
320.63	146.94
320.843	159.23
321.057	77.31
321.27	7.68
321.483	112.13
321.697	163.33
321.91	120.32
322.124	69.12
322.337	93.69
322.55	40.45
322.763	105.98
322.977	-2.56
323.19	3.58
323.403	101.89
323.617	110.08
323.83	91.65
324.043	7.68
324.256	54.78
324.469	-4.61
324.683	146.94
324.896	-0.51
325.109	24.06
325.322	-14.85
325.535	87.55
325.748	161.28
325.962	42.5
326.175	130.56
326.388	97.79
326.601	85.5
326.814	46.59
327.027	34.3
327.24	165.37
327.453	-27.14
327.666	148.99
327.879	173.57
328.092	50.69
328.305	116.22
328.518	50.69
328.731	26.11
328.944	-43.52
329.157	87.55
329.37	-20.99
329.583	230.91
329.796	163.33
330.009	-23.04
330.222	105.98
330.435	-8.7
330.648	9.73
330.861	42.5
331.073	79.36
331.286	153.09
331.499	58.88
331.712	50.69
331.925	5.63
332.138	83.45
332.35	112.13
332.563	-41.47
332.776	126.46
332.989	17.92
333.202	-8.7
333.414	60.93
333.627	60.93
333.84	30.21
334.053	58.88
334.265	91.65
334.478	28.16
334.691	52.74
334.903	32.26
335.116	-23.04
335.329	46.59
335.541	114.17
335.754	130.56
335.966	-0.51
336.179	60.93
336.392	69.12
336.604	32.26
336.817	122.37
337.029	103.93
337.242	38.4
337.454	79.36
337.667	44.54
337.88	97.79
338.092	112.13
338.305	89.6
338.517	60.93
338.729	24.06
338.942	124.41
339.154	24.06
339.367	-16.9
339.579	101.89
339.792	-2.56
340.004	44.54
340.217	5.63
340.429	1.54
340.641	11.78
340.854	7.68
341.066	95.74
341.278	83.45
341.491	157.18
341.703	87.55
341.915	-23.04
342.128	105.98
342.34	71.17
342.552	1.54
342.764	65.02
342.977	-12.8
343.189	26.11
343.401	5.63
343.613	-37.38
343.826	52.74
344.038	-59.9
344.25	95.74
344.462	-2.56
344.674	48.64
344.886	13.82
345.099	32.26
345.311	97.79
345.523	-10.75
345.735	-68.09
345.947	48.64
346.159	52.74
346.371	108.03
346.583	-18.94
346.795	177.66
347.007	34.3
347.219	157.18
347.431	108.03
347.643	122.37
347.855	46.59
348.067	167.42
348.279	-8.7
348.491	-41.47
348.703	46.59
348.915	-23.04
349.127	19.97
349.339	50.69
349.551	22.02
349.763	7.68
349.975	30.21
350.187	155.13
350.399	124.41
350.61	65.02
350.822	22.02
351.034	62.98
351.246	-33.28
351.458	114.17
351.669	71.17
351.881	140.8
352.093	144.89
352.305	167.42
352.517	130.56
352.728	91.65
352.94	75.26
353.152	73.21
353.363	-47.62
353.575	65.02
353.787	155.13
353.999	7.68
354.21	95.74
354.422	-14.85
354.633	-43.52
354.845	75.26
355.057	67.07
355.268	79.36
355.48	108.03
355.692	-2.56
355.903	22.02
356.115	-55.81
356.326	-20.99
356.538	204.28
356.749	83.45
356.961	146.94
357.172	46.59
357.384	-25.09
357.595	200.19
357.807	9.73
358.018	40.45
358.23	77.31
358.441	151.04
358.653	91.65
358.864	54.78
359.075	-8.7
359.287	42.5
359.498	126.46
359.709	161.28
359.921	9.73
360.132	58.88
360.344	112.13
360.555	-10.75
360.766	42.5
360.977	17.92
361.189	126.46
361.4	1.54
361.611	144.89
361.823	130.56
362.034	15.87
362.245	-96.77
362.456	44.54
362.667	42.5
362.879	62.98
363.09	46.59
363.301	132.61
363.512	30.21
363.723	17.92
363.935	81.41
364.146	93.69
364.357	54.78
364.568	62.98
364.779	54.78
364.99	126.46
365.201	-0.51
365.412	157.18
365.623	-72.19
365.834	-2.56
366.045	142.85
366.256	67.07
366.467	169.47
366.678	120.32
366.889	13.82
367.1	19.97
367.311	58.88
367.522	34.3
367.733	140.8
367.944	105.98
368.155	77.31
368.366	73.21
368.577	122.37
368.788	34.3
368.999	34.3
369.209	34.3
369.42	105.98
369.631	257.53
369.842	69.12
370.053	65.02
370.264	95.74
370.474	5.63
370.685	50.69
370.896	65.02
371.107	210.43
371.317	130.56
371.528	87.55
371.739	175.61
371.95	138.75
372.16	101.89
372.371	-41.47
372.582	-35.33
372.792	95.74
373.003	48.64
373.214	-8.7
373.424	73.21
373.635	-35.33
373.846	187.9
374.056	112.13
374.267	24.06
374.477	87.55
374.688	-35.33
374.898	52.74
375.109	165.37
375.319	22.02
375.53	122.37
375.74	101.89
375.951	32.26
376.161	120.32
376.372	81.41
376.582	11.78
376.793	114.17
377.003	46.59
377.214	67.07
377.424	114.17
377.635	103.93
377.845	-18.94
378.055	124.41
378.266	19.97
378.476	56.83
378.686	58.88
378.897	-18.94
379.107	165.37
379.317	85.5
379.528	32.26
379.738	163.33
379.948	32.26
380.158	73.21
380.369	67.07
380.579	103.93
380.789	17.92
380.999	134.65
381.21	32.26
381.42	202.24
381.63	34.3
381.84	189.95
382.05	77.31
382.261	46.59
382.471	167.42
382.681	99.84
382.891	105.98
383.101	36.35
383.311	-35.33
383.521	34.3
383.731	153.09
383.941	142.85
384.151	97.79
384.361	54.78
384.571	15.87
384.781	48.64
384.991	212.48
385.201	169.47
385.411	99.84
385.621	77.31
385.831	13.82
386.041	7.68
386.251	46.59
386.461	151.04
386.671	38.4
386.881	44.54
387.091	19.97
387.301	146.94
387.511	52.74
387.72	79.36
387.93	24.06
388.14	-47.62
388.35	132.61
388.56	173.57
388.769	112.13
388.979	-10.75
389.189	-92.67
389.399	-12.8
389.609	91.65
389.818	114.17
390.028	67.07
390.238	130.56
390.447	-0.51
390.657	89.6
390.867	62.98
391.076	46.59
391.286	32.26
391.496	52.74
391.705	-0.51
391.915	155.13
392.125	194.05
392.334	62.98
392.544	124.41
392.753	54.78
392.963	-121.34
393.172	-29.18
393.382	19.97
393.591	192
393.801	81.41
394.01	189.95
394.22	22.02
394.429	54.78
394.639	69.12
394.848	26.11
395.058	3.58
395.267	22.02
395.477	136.7
395.686	73.21
395.895	140.8
396.105	177.66
396.314	103.93
396.524	83.45
396.733	60.93
396.942	65.02
397.152	142.85
397.361	34.3
397.57	44.54
397.78	-43.52
397.989	81.41
398.198	183.81
398.407	124.41
398.617	62.98
398.826	3.58
399.035	71.17
399.244	153.09
399.453	54.78
399.663	26.11
399.872	67.07
400.081	-23.04
400.29	192
400.499	44.54
400.708	99.84
400.917	11.78
401.127	67.07
401.336	60.93
401.545	251.39
401.754	130.56
401.963	161.28
402.172	110.08
402.381	-18.94
402.59	62.98
402.799	50.69
403.008	89.6
403.217	32.26
403.426	77.31
403.635	-51.71
403.844	32.26
404.053	75.26
404.262	9.73
404.471	220.67
404.68	95.74
404.888	38.4
405.097	-10.75
405.306	13.82
405.515	151.04
405.724	13.82
405.933	73.21
406.142	124.41
406.35	103.93
406.559	67.07
406.768	83.45
406.977	169.47
407.185	19.97
407.394	87.55
407.603	-47.62
407.812	42.5
408.02	112.13
408.229	103.93
408.438	112.13
408.646	-16.9
408.855	19.97
409.064	99.84
409.272	-2.56
409.481	85.5
409.69	-20.99
409.898	-66.05
410.107	81.41
410.315	85.5
410.524	7.68
410.733	175.61
410.941	99.84
411.15	85.5
411.358	136.7
411.567	165.37
411.775	81.41
411.984	44.54
412.192	120.32
412.401	44.54
412.609	148.99
412.818	161.28
413.026	128.51
413.234	48.64
413.443	79.36
413.651	19.97
413.86	38.4
414.068	103.93
414.276	159.23
414.485	19.97
414.693	161.28
414.901	208.38
415.11	120.32
415.318	101.89
415.526	130.56
415.734	128.51
415.943	9.73
416.151	138.75
416.359	17.92
416.567	114.17
416.776	116.22
416.984	134.65
417.192	148.99
417.4	-23.04
417.608	58.88
417.817	85.5
418.025	157.18
418.233	179.71
418.441	42.5
418.649	-53.76
418.857	114.17
419.065	173.57
419.273	42.5
419.481	36.35
419.689	87.55
419.897	54.78
420.105	-20.99
420.313	157.18
420.521	151.04
420.729	181.76
420.937	28.16
421.145	30.21
421.353	138.75
421.561	112.13
421.769	81.41
421.977	83.45
422.185	124.41
422.393	124.41
422.601	112.13
422.809	122.37
423.017	99.84
423.224	48.64
423.432	200.19
423.64	77.31
423.848	108.03
424.056	38.4
424.263	161.28
424.471	89.6
424.679	151.04
424.887	-4.61
425.094	79.36
425.302	118.27
425.51	-6.66
425.718	171.52
425.925	52.74
426.133	105.98
426.341	155.13
426.548	122.37
426.756	85.5
426.964	87.55
427.171	58.88
427.379	136.7
427.586	93.69
427.794	198.14
428.001	175.61
428.209	52.74
428.417	181.76
428.624	167.42
428.832	54.78
429.039	153.09
429.247	116.22
429.454	146.94
429.662	212.48
429.869	124.41
430.076	120.32
430.284	235
430.491	194.05
430.699	196.09
430.906	194.05
431.114	155.13
431.321	167.42
431.528	116.22
431.736	198.14
431.943	241.15
432.15	198.14
432.358	230.91
432.565	230.91
432.772	3.58
432.979	230.91
433.187	192
433.394	224.76
433.601	198.14
433.808	267.77
434.016	212.48
434.223	206.33
434.43	230.91
434.637	278.01
434.844	337.4
435.052	306.68
435.259	273.92
435.466	267.77
435.673	243.2
435.88	235
436.087	351.74
436.294	333.31
436.501	361.98
436.708	351.74
436.915	312.83
437.122	318.97
437.329	224.76
437.537	300.54
437.743	355.83
437.95	478.71
438.157	382.46
438.364	259.58
438.571	364.03
438.778	447.99
438.985	470.52
439.192	509.43
439.399	388.6
439.606	435.71
439.813	538.1
440.02	605.69
440.227	652.79
440.433	525.82
440.64	568.82
440.847	527.86
441.054	566.78
441.261	665.08
441.467	681.46
441.674	579.06
441.881	773.62
442.088	665.08
442.294	759.28
442.501	902.64
442.708	867.83
442.914	771.57
443.121	841.2
443.328	931.31
443.534	962.03
443.741	1015.28
443.948	894.45
444.154	1033.71
444.361	1226.22
444.568	1099.25
444.774	1093.1
444.981	1015.28
445.187	1289.71
445.394	1189.36
445.6	1242.61
445.807	1404.39
446.013	1357.29
446.22	1265.13
446.426	1467.88
446.633	1541.61
446.839	1689.06
447.046	1494.51
447.252	1730.02
447.459	1680.87
447.665	1652.2
447.871	1893.86
448.078	2020.83
448.284	1965.54
448.491	2153.95
448.697	2366.94
448.903	2268.64
449.11	2377.18
449.316	2362.84
449.522	2491.87
449.728	2680.28
449.935	2799.06
450.141	2756.05
450.347	2928.08
450.553	2878.93
450.76	2983.38
450.966	3126.74
451.172	3239.37
451.378	3399.12
451.584	3446.22
451.791	3775.94
451.997	3849.67
452.203	3886.53
452.409	4019.65
452.615	4150.72
452.821	4134.34
453.027	4300.22
453.233	4748.73
453.44	4464.06
453.646	4933.04
453.852	4933.04
454.058	5186.99
454.264	5356.97
454.47	5637.55
454.676	5655.98
454.882	6147.49
455.088	6000.04
455.294	6231.46
455.5	6790.55
455.705	7011.73
455.911	7212.43
456.117	7159.19
456.323	7456.14
456.529	7542.16
456.735	8125.83
456.941	8525.18
457.147	8889.72
457.352	9211.25
457.558	9389.42
457.764	9729.39
457.97	9913.7
458.176	10450.27
458.381	10919.26
458.587	11251.03
458.793	11521.36
458.999	11677.01
459.204	13212.98
459.41	13815.09
459.616	13602.1
459.821	14200.1
460.027	15045.91
460.233	15480.08
460.438	15658.26
460.644	16790.78
460.85	16821.5
461.055	17478.9
461.261	18576.61
461.466	17908.97
461.672	18062.57
461.878	20200.65
462.083	20112.59
462.289	20683.97
462.494	21472.44
462.7	21431.48
462.905	21736.63
463.111	23499.93
463.316	24552.59
463.522	25142.4
463.727	25767.03
463.932	26852.45
464.138	27466.84
464.343	28888.14
464.549	28759.11
464.754	31048.74
464.959	31491.1
465.165	32652.3
465.37	32359.44
465.575	32271.38
465.781	34620.4
465.986	35419.11
466.191	35118.06
466.397	35181.54
466.602	34440.18
466.807	36525.01
467.012	37225.42
467.218	37440.45
467.423	37671.87
467.628	38536.12
467.833	40729.49
468.038	40006.56
468.244	39254.95
468.449	41687.94
468.654	40489.88
468.859	40418.2
469.064	40424.34
469.269	39371.69
469.474	39826.34
469.679	41079.69
469.885	39842.72
470.09	40594.32
470.295	40465.3
470.5	39422.89
470.705	40131.48
470.91	38841.26
471.115	38419.38
471.32	39111.6
471.525	38454.2
471.73	37657.54
471.935	37680.07
472.139	35980.25
472.344	36201.43
472.549	35617.76
472.754	34913.26
472.959	34262.01
473.164	32947.21
473.369	32934.92
473.574	33774.59
473.778	33195.01
473.983	32441.36
474.188	31855.64
474.393	30622.76
474.598	30641.2
474.802	29885.5
475.007	29084.74
475.212	28914.76
475.417	27878.49
475.621	27550.81
475.826	27319.39
476.031	26702.95
476.235	25861.24
476.44	26084.47
476.645	25367.68
476.849	25144.45
477.054	24779.91
477.259	24138.9
477.463	24108.18
477.668	23366.81
477.872	23348.38
478.077	22674.6
478.282	22131.89
478.486	21896.37
478.691	21728.44
478.895	21552.31
479.1	21302.46
479.304	21281.98
479.509	20427.98
479.713	20659.4
479.918	20575.43
480.122	19823.83
480.326	19911.89
480.531	19811.54
480.735	19897.55
480.94	19510.49
481.144	20395.21
481.348	18859.23
481.553	19414.23
481.757	18656.48
481.961	18865.38
482.166	19008.73
482.37	18640.1
482.574	18181.35
482.778	18261.23
482.983	18554.08
483.187	18289.9
483.391	18074.86
483.595	17792.24
483.8	17589.49
484.004	17292.54
484.208	17497.33
484.412	17157.37
484.616	17124.6
484.821	16954.62
485.025	16194.82
485.229	16434.44
485.433	16164.11
485.637	16096.52
485.841	15740.18
486.045	15273.24
486.249	15521.04
486.453	15117.59
486.657	15170.84
486.861	14675.23
487.065	14275.88
487.269	14427.43
487.473	13894.96
487.677	13978.92
487.881	13970.73
488.085	13337.91
488.289	13389.11
488.493	12713.28
488.697	12873.02
488.901	12635.46
489.105	12205.38
489.309	12154.18
489.512	12041.54
489.716	11713.87
489.92	11421.01
490.124	11171.16
490.328	11105.62
490.531	10812.76
490.735	10896.73
490.939	10780
491.143	10298.72
491.346	10136.93
491.55	10077.54
491.754	9862.51
491.958	9923.94
492.161	9653.61
492.365	9428.34
492.569	9098.61
492.772	9051.51
492.976	9170.29
493.18	9049.46
493.383	9022.84
493.587	8668.54
493.79	8840.57
493.994	8314.24
494.197	8383.87
494.401	8367.49
494.605	8277.38
494.808	8080.77
495.012	8246.66
495.215	8142.21
495.419	8185.22
495.622	7980.42
495.825	7830.92
496.029	7853.45
496.232	8127.88
496.436	7757.19
496.639	7968.13
496.843	7759.24
497.046	7718.28
497.249	7892.36
497.453	7761.29
497.656	7720.33
497.859	7685.51
498.063	7820.68
498.266	7837.06
498.469	7871.88
498.673	7867.78
498.876	7871.88
499.079	7712.14
499.282	7927.18
499.485	8291.71
499.689	8031.62
499.892	8058.25
500.095	8140.16
500.298	8404.35
500.501	8144.26
500.705	8263.04
500.908	8385.92
501.111	8213.89
501.314	8635.77
501.517	8623.48
501.72	8719.74
501.923	8623.48
502.126	8727.93
502.329	9016.69
502.532	9055.61
502.735	9008.5
502.938	9289.07
503.141	9196.92
503.344	9405.81
503.547	9653.61
503.75	9717.1
503.953	9667.95
504.156	9909.61
504.359	10120.55
504.562	9971.05
504.765	10331.49
504.968	10597.73
505.17	10696.03
505.373	10782.04
505.576	10970.46
505.779	11246.93
505.982	11085.14
506.185	11537.74
506.387	11521.36
506.59	11924.81
506.793	12127.56
506.996	11937.1
507.198	12664.13
507.401	12875.07
507.604	13131.06
507.807	13219.13
508.009	13630.77
508.212	13759.79
508.415	14216.49
508.617	14341.41
508.82	14566.69
509.022	14615.84
509.225	15324.44
509.428	15531.28
509.63	15736.08
509.833	16108.81
510.035	16702.72
510.238	16876.8
510.44	17151.23
510.643	17632.5
510.845	18052.33
511.048	17949.93
511.25	18779.36
511.453	18990.3
511.655	20022.48
511.858	20225.23
512.06	20427.98
512.262	20716.74
512.465	21171.39
512.667	21718.2
512.87	22236.33
513.072	22768.8
513.274	23487.64
513.477	23796.88
513.679	24429.71
513.881	25191.55
514.084	25349.25
514.286	25672.82
514.488	26246.26
514.69	27501.66
514.893	27700.31
515.095	28204.11
515.297	29088.84
515.499	29420.61
515.701	30020.66
515.904	31024.17
516.106	31566.88
516.308	31980.57
516.51	32826.38
516.712	33092.62
516.914	33725.44
517.116	34751.47
517.318	35372
517.52	36023.26
517.722	36502.48
517.925	37262.28
518.127	38169.53
518.329	38509.49
518.531	38740.91
518.733	39934.88
518.935	40227.74
519.136	40838.03
519.338	41792.39
519.54	42314.62
519.742	42865.52
519.944	43223.92
520.146	44395.35
520.348	45130.58
520.55	45345.61
520.752	46015.3
520.954	46588.73
521.155	46893.88
521.357	47917.86
521.559	48415.52
521.761	49054.48
521.963	49363.73
522.164	49902.34
522.366	49703.69
522.568	50891.51
522.77	50526.97
522.971	51383.02
523.173	51178.23
523.375	51765.99
523.576	51835.63
523.778	52013.8
523.98	52968.15
524.181	52871.9
524.383	53375.7
524.584	53820.11
524.786	53353.17
524.988	53400.27
525.189	53643.98
525.391	54502.08
525.592	53730
525.794	54248.13
525.995	53736.14
526.197	54078.15
526.398	54117.06
526.6	54248.13
526.801	54125.25
527.003	53459.66
527.204	53394.13
527.406	53705.42
527.607	53082.84
527.808	53037.78
528.01	52407.01
528.211	52312.8
528.412	52665.05
528.614	51751.66
528.815	51651.31
529.016	51911.4
529.218	50643.71
529.419	50787.07
529.62	50236.16
529.822	49849.1
530.023	49359.63
530.224	49316.62
530.425	48569.11
530.626	47907.62
530.828	47319.85
531.029	47635.24
531.23	46168.9
531.431	46195.52
531.632	45654.86
531.833	45384.52
532.035	44735.32
532.236	44499.8
532.437	44059.49
532.638	43334.51
532.839	42582.9
533.04	42333.05
533.241	41147.28
533.442	41876.35
533.643	40833.94
533.844	40379.29
534.045	40024.99
534.246	38429.62
534.447	38851.5
534.648	37864.38
534.849	37755.84
535.05	36885.45
535.251	36711.38
535.451	36293.59
535.652	35773.41
535.853	35204.07
536.054	34925.55
536.255	34466.8
536.456	33561.6
536.657	33711.1
536.857	32994.31
537.058	32121.88
537.259	32656.4
537.46	31546.4
537.66	31267.87
537.861	30895.14
538.062	30563.37
538.263	30256.18
538.463	29848.63
538.664	29383.74
538.865	29246.53
539.065	28849.22
539.266	28152.91
539.466	28279.89
539.667	27771.99
539.868	27735.13
540.068	27155.55
540.269	27036.77
540.469	26518.64
540.67	26274.93
540.87	26211.44
541.071	25670.78
541.271	25566.33
541.472	25433.21
541.672	24620.17
541.873	24188.05
542.073	23872.66
542.274	23813.27
542.474	23616.66
542.675	23411.87
542.875	23176.35
543.075	23127.2
543.276	22437.03
543.476	22328.49
543.676	22117.55
543.877	22109.36
544.077	21939.38
544.277	21314.75
544.478	21265.6
544.678	21019.84
544.878	20489.42
545.078	20790.47
545.279	20081.87
545.479	20266.19
545.679	19922.13
545.879	19600.6
546.079	19500.25
546.28	18908.38
546.48	18742.5
546.68	19135.71
546.88	18468.07
547.08	18449.64
547.28	17986.8
547.48	17548.53
547.68	17634.55
547.88	17251.58
548.081	17274.1
548.281	17001.72
548.481	16438.53
548.681	16702.72
548.881	16469.25
549.081	16383.24
549.28	16057.61
549.48	15670.54
549.68	15439.12
549.88	15361.3
550.08	15074.59
550.28	15058.2
550.48	14681.38
550.68	14699.81
550.88	14267.69
551.08	14300.45
551.279	14073.13
551.479	13559.09
551.679	13528.37
551.879	13335.86
552.079	13165.88
552.278	13049.14
552.478	12952.89
552.678	12682.56
552.878	12604.74
553.077	12285.25
553.277	12098.89
553.477	12088.65
553.676	11822.41
553.876	11576.66
554.076	11187.54
554.275	11234.64
554.475	10683.74
554.674	10802.52
554.874	10567.01
555.074	10280.29
555.273	10495.33
555.473	10206.56
555.672	9973.1
555.872	9850.22
556.071	9823.59
556.271	9786.73
556.47	9463.15
556.67	9117.04
556.869	9069.94
557.068	9078.13
557.268	8818.04
557.467	8607.1
557.667	8586.62
557.866	8377.73
558.065	8080.77
558.265	8138.12
558.464	7714.19
558.663	7996.81
558.863	7611.79
559.062	7804.3
559.261	7380.37
559.461	7454.09
559.66	7177.62
559.859	7110.04
560.058	6962.58
560.258	6784.41
560.457	6835.61
560.656	6745.5
560.855	6725.02
561.054	6700.44
561.253	6639
561.453	6208.93
561.652	6219.17
561.851	6127.01
562.05	6051.24
562.249	5830.06
562.448	5924.26
562.647	5746.09
562.846	5703.08
563.045	5680.55
563.244	5342.64
563.443	5559.72
563.642	5141.94
563.841	5293.49
564.04	5107.12
564.239	5180.85
564.438	4965.81
564.637	4988.34
564.836	4935.09
565.035	4793.78
565.234	4574.65
565.432	4584.89
565.631	4695.48
565.83	4631.99
566.029	4390.33
566.228	4386.24
566.427	4509.12
566.625	4218.3
566.824	4148.67
567.023	4218.3
567.222	4128.19
567.42	4124.1
567.619	4003.27
567.818	3939.78
568.016	3931.59
568.215	3773.89
568.414	3806.66
568.612	3718.6
568.811	3753.41
569.01	3726.79
569.208	3571.15
569.407	3454.41
569.605	3530.19
569.804	3263.95
570.002	3470.8
570.201	3292.62
570.4	3292.62
570.598	3116.5
570.797	3093.97
570.995	2952.66
571.193	3083.73
571.392	3079.63
571.59	2827.73
571.789	3118.54
571.987	2989.52
572.186	2985.43
572.384	2760.15
572.582	2774.49
572.781	2751.96
572.979	2649.56
573.177	2657.75
573.376	2674.14
573.574	2610.65
573.772	2557.4
573.971	2270.69
574.169	2442.71
574.367	2426.33
574.565	2323.93
574.763	2340.32
574.962	2360.8
575.16	2299.36
575.358	2174.43
575.556	2096.61
575.754	2199.01
575.952	2053.6
576.151	2156
576.349	2055.65
576.547	1891.81
576.745	2082.27
576.943	2035.17
577.141	1857
577.339	1920.48
577.537	1836.52
577.735	1916.39
577.933	1955.3
578.131	1711.59
578.329	1861.09
578.527	1762.79
578.725	1750.5
578.923	1707.49
579.121	1697.25
579.319	1455.59
579.516	1508.84
579.714	1713.64
579.912	1596.9
580.11	1484.27
580.308	1529.32
580.506	1467.88
580.704	1410.54
580.901	1408.49
581.099	1514.98
581.297	1357.29
581.495	1459.69
581.692	1316.33
581.89	1478.12
582.088	1324.52
582.285	1228.27
582.483	1289.71
582.681	1338.86
582.878	1254.89
583.076	1295.85
583.274	1281.52
583.471	1394.15
583.669	1113.58
583.866	1070.58
584.064	1086.96
584.262	1084.91
584.459	994.8
584.657	1025.52
584.854	1201.65
585.052	1091.06
585.249	1050.1
585.447	1017.33
585.644	818.68
585.841	1183.21
586.039	1017.33
586.236	1037.81
586.434	873.97
586.631	916.98
586.828	945.65
587.026	1011.18
587.223	777.72
587.42	830.96
587.618	882.16
587.815	978.42
588.012	1009.14
588.21	861.68
588.407	970.23
588.604	957.94
588.801	701.94
588.999	810.48
589.196	935.41
589.393	656.89
589.59	779.76
589.787	814.58
589.984	861.68
590.182	771.57
590.379	622.07
590.576	812.53
590.773	724.47
590.97	771.57
591.167	755.19
591.364	714.23
591.561	624.12
591.758	787.96
591.955	833.01
592.152	738.8
592.349	747
592.546	689.65
592.743	767.48
592.94	749.04
593.137	757.24
593.334	785.91
593.531	800.24
593.727	822.77
593.924	751.09
594.121	642.55
594.318	714.23
594.515	730.61
594.712	886.26
594.908	902.64
595.105	710.13
595.302	798.2
595.499	900.59
595.696	931.31
595.892	792.05
596.089	916.98
596.286	794.1
596.482	972.27
596.679	878.07
596.876	812.53
597.072	931.31
597.269	943.6
597.466	1056.24
597.662	1009.14
597.859	1062.38
598.055	1062.38
598.252	1060.34
598.448	1152.49
598.645	1236.46
598.841	1215.98
599.038	1471.98
599.234	1375.72
599.431	1431.02
599.627	1304.04
599.824	1486.31
600.02	1601
600.217	1469.93
600.413	1654.25
600.609	1672.68
600.806	1963.49
601.002	1883.62
601.198	1850.85
601.395	2084.32
601.591	2033.12
601.787	2059.74
601.984	2225.63
602.18	2346.46
602.376	2328.03
602.572	2414.04
602.769	2635.22
602.965	2651.61
603.161	2794.97
603.357	2842.07
603.553	2977.23
603.75	2952.66
603.946	3024.34
604.142	3182.03
604.338	3407.31
604.534	3405.26
604.73	3493.32
604.926	3599.82
605.122	3945.92
605.318	3790.28
605.514	4130.24
605.71	3970.5
605.906	4347.33
606.102	4367.81
606.298	4558.27
606.494	4609.47
606.69	4814.26
606.886	4806.07
607.082	5062.07
607.278	5242.29
607.474	5299.63
607.67	5621.16
607.866	5479.85
608.062	5940.65
608.257	6108.58
608.453	5967.27
608.649	6225.31
608.845	6321.57
609.041	6456.73
609.236	6714.78
609.432	7024.02
609.628	7155.09
609.824	7427.47
610.019	7425.42
610.215	7722.38
610.411	8097.16
610.606	8152.45
610.802	8252.8
610.998	8676.73
611.193	8899.96
611.389	8922.49
611.584	9278.83
611.78	9301.36
611.976	9604.46
612.171	10298.72
612.367	10403.17
612.562	10474.85
612.758	10659.17
612.953	10782.04
613.149	11255.12
613.344	11447.63
613.539	11861.32
613.735	12293.44
613.93	12551.49
614.126	12776.77
614.321	13198.65
614.517	13673.78
614.712	13720.88
614.907	14073.13
615.103	14613.79
615.298	14775.58
615.493	15422.74
615.688	15263
615.884	16282.89
616.079	16258.31
616.274	16807.17
616.47	17439.99
616.665	17777.9
616.86	18261.23
617.055	18408.68
617.25	18961.63
617.445	19641.56
617.641	19619.03
617.836	20516.04
618.031	20827.33
618.226	21271.74
618.421	21730.48
618.616	22125.74
618.811	22709.41
619.006	23260.32
619.201	23856.28
619.396	24534.15
619.591	24908.93
619.786	25566.33
619.981	25822.33
620.176	26610.79
620.371	26895.46
620.566	27767.9
620.761	28218.45
620.956	28998.73
621.151	28972.1
621.346	29826.1
621.541	30116.92
621.735	30903.34
621.93	31249.44
622.125	31996.95
622.32	32455.7
622.515	33127.43
622.709	33719.29
622.904	34499.57
623.099	34716.65
623.294	35640.29
623.488	36121.56
623.683	36877.26
623.878	36574.16
624.072	37665.73
624.267	38427.57
624.462	38869.93
624.656	39320.49
624.851	40508.31
625.046	40743.83
625.24	41433.99
625.435	41382.79
625.629	42548.09
625.824	43047.79
626.018	43379.56
626.213	43352.94
626.407	44196.7
626.602	44643.16
626.796	45122.38
626.991	45644.62
627.185	45652.81
627.38	46414.65
627.574	46316.35
627.768	46844.73
627.963	46834.49
628.157	46803.77
628.352	47508.27
628.546	46875.44
628.74	47270.7
628.935	47102.77
629.129	47199.02
629.323	46390.08
629.517	46471.99
629.712	46504.76
629.906	45783.88
630.1	45183.82
630.294	45755.21
630.489	44378.97
630.683	44137.31
630.877	43049.84
631.071	42083.2
631.265	41769.86
631.459	40770.45
631.653	39844.77
631.848	39226.28
632.042	38382.52
632.236	37659.59
632.43	36191.19
632.624	35726.3
632.818	34556.91
633.012	33238.02
633.206	32105.49
633.4	31433.76
633.594	30065.72
633.788	28961.86
633.982	28058.71
634.176	27188.32
634.369	26115.19
634.563	25339.01
634.757	24245.39
634.951	23340.19
635.145	22690.98
635.339	21597.37
635.533	20624.58
635.726	19825.87
635.92	18865.38
636.114	17849.58
636.308	17478.9
636.501	16653.57
636.695	16080.14
636.889	15299.86
637.083	14834.97
637.276	14155.05
637.47	13571.38
637.664	13016.38
637.857	12723.52
638.051	12008.78
638.244	11609.42
638.438	11242.84
638.632	10825.05
638.825	10055.01
639.019	9907.56
639.212	9370.99
639.406	9149.81
639.599	8682.88
639.793	8365.44
639.986	7976.33
640.18	7871.88
640.373	7515.53
640.567	7142.8
640.76	6882.71
640.954	6796.7
641.147	6282.66
641.34	5946.79
641.534	5928.36
641.727	5684.65
641.92	5541.29
642.114	5186.99
642.307	5158.32
642.5	4914.61
642.694	4605.37
642.887	4392.38
643.08	4349.37
643.273	4177.34
643.467	3990.98
643.66	3835.33
643.853	3704.26
644.046	3599.82
644.239	3372.49
644.432	3220.94
644.626	3065.3
644.819	3069.39
645.012	2936.28
645.205	2885.08
645.398	2788.82
645.591	2606.55
645.784	2467.29
645.977	2321.88
646.17	2272.73
646.363	2270.69
646.556	2164.19
646.749	2057.7
646.942	2055.65
647.135	2063.84
647.328	1791.46
647.521	1742.31
647.714	1529.32
647.907	1674.73
648.099	1461.74
648.292	1555.94
648.485	1478.12
648.678	1365.48
648.871	1357.29
649.064	1334.76
649.256	1166.83
649.449	1142.25
649.642	1160.69
649.835	1066.48
650.027	1109.49
650.22	1080.82
650.413	1058.29
650.605	984.56
650.798	968.18
650.991	980.47
651.183	814.58
651.376	859.63
651.568	984.56
651.761	810.48
651.954	785.91
652.146	718.33
652.339	802.29
652.531	835.06
652.724	656.89
652.916	648.69
653.109	613.88
653.301	734.71
653.494	648.69
653.686	579.06
653.879	611.83
654.071	622.07
654.263	542.2
654.456	523.77
654.648	505.34
654.84	521.72
655.033	478.71
655.225	560.63
655.417	394.75
655.61	638.45
655.802	548.34
655.994	540.15
656.186	407.03
656.379	523.77
656.571	327.16
656.763	382.46
656.955	384.51
657.148	361.98
657.34	404.99
657.532	298.49
657.724	372.22
657.916	357.88
658.108	400.89
658.3	323.07
658.492	304.64
658.684	235
658.876	417.27
659.068	230.91
659.26	259.58
659.452	239.1
659.644	232.96
659.836	423.42
660.028	257.53
660.22	212.48
660.412	222.72
660.604	304.64
660.796	196.09
660.988	321.02
661.18	247.29
661.372	345.59
661.563	235
661.755	323.07
661.947	194.05
662.139	271.87
662.331	255.48
662.522	263.68
662.714	120.32
662.906	171.52
663.097	253.44
663.289	196.09
663.481	105.98
663.673	300.54
663.864	294.4
664.056	239.1
664.247	245.24
664.439	374.27
664.631	243.2
664.822	218.62
665.014	222.72
665.205	165.37
665.397	196.09
665.588	183.81
665.78	210.43
665.971	259.58
666.163	255.48
666.354	243.2
666.546	185.85
666.737	116.22
666.929	146.94
667.12	138.75
667.311	235
667.503	169.47
667.694	235
667.885	159.23
668.077	169.47
668.268	167.42
668.459	124.41
668.651	157.18
668.842	263.68
669.033	71.17
669.224	112.13
669.416	380.41
669.607	138.75
669.798	60.93
669.989	255.48
670.18	171.52
670.371	216.57
670.563	81.41
670.754	249.34
670.945	249.34
671.136	253.44
671.327	116.22
671.518	175.61
671.709	300.54
671.9	237.05
672.091	280.06
672.282	144.89
672.473	206.33
672.664	198.14
672.855	247.29
673.046	196.09
673.237	245.24
673.428	138.75
673.619	235
673.809	243.2
674	288.25
674.191	167.42
674.382	208.38
674.573	179.71
674.764	216.57
674.954	278.01
675.145	159.23
675.336	101.89
675.527	134.65
675.717	167.42
675.908	138.75
676.099	187.9
676.289	165.37
676.48	105.98
676.671	212.48
676.861	226.81
677.052	151.04
677.243	161.28
677.433	214.52
677.624	196.09
677.814	185.85
678.005	161.28
678.195	253.44
678.386	103.93
678.576	198.14
678.767	138.75
678.957	183.81
679.148	261.63
679.338	345.59
679.529	284.16
679.719	267.77
679.909	321.02
680.1	302.59
680.29	339.45
680.481	105.98
680.671	263.68
680.861	245.24
681.052	255.48
681.242	192
681.432	235
681.622	243.2
681.813	140.8
682.003	169.47
682.193	261.63
682.383	278.01
682.573	192
682.764	271.87
682.954	286.2
683.144	370.17
683.334	163.33
683.524	263.68
683.714	308.73
683.904	290.3
684.094	275.96
684.284	235
684.474	292.35
684.664	273.92
684.854	288.25
685.044	341.5
685.234	282.11
685.424	370.17
685.614	245.24
685.804	413.18
685.994	316.92
686.184	308.73
686.374	282.11
686.564	275.96
686.753	286.2
686.943	312.83
687.133	296.44
687.323	259.58
687.513	415.23
687.702	235
687.892	321.02
688.082	376.31
688.272	343.55
688.461	300.54
688.651	425.47
688.841	333.31
689.03	232.96
689.22	288.25
689.41	302.59
689.599	314.88
689.789	214.52
689.979	392.7
690.168	325.12
690.358	290.3
690.547	345.59
690.737	323.07
690.926	214.52
691.116	335.35
691.305	292.35
691.495	372.22
691.684	247.29
691.874	235
692.063	314.88
692.252	298.49
692.442	374.27
692.631	251.39
692.82	273.92
693.01	331.26
693.199	271.87
693.388	308.73
693.578	335.35
693.767	286.2
693.956	296.44
694.146	271.87
694.335	306.68
694.524	235
694.713	382.46
694.902	271.87
695.092	357.88
695.281	378.36
695.47	278.01
695.659	286.2
695.848	304.64
696.037	177.66
696.226	237.05
696.415	290.3
696.604	376.31
696.793	380.41
696.982	286.2
697.171	374.27
697.36	259.58
697.549	364.03
697.738	171.52
697.927	245.24
698.116	253.44
698.305	232.96
698.494	304.64
698.683	177.66
698.872	472.57
699.061	327.16
699.25	316.92
699.438	228.86
699.627	271.87
699.816	421.37
700.005	198.14
700.193	333.31
700.382	431.61
700.571	368.12
700.76	261.63
700.948	361.98
701.137	245.24
701.326	345.59
701.514	265.72
701.703	296.44
701.892	298.49
702.08	480.76
702.269	366.07
702.457	206.33
702.646	286.2
702.834	302.59
703.023	302.59
703.212	218.62
703.4	253.44
703.589	198.14
703.777	228.86
703.965	185.85
704.154	263.68
704.342	239.1
704.531	241.15
704.719	239.1
704.907	335.35
705.096	194.05
705.284	269.82
705.472	304.64
705.661	284.16
705.849	388.6
706.037	394.75
706.226	224.76
706.414	370.17
706.602	232.96
706.79	329.21
706.979	224.76
707.167	271.87
707.355	177.66
707.543	175.61
707.731	378.36
707.919	318.97
708.107	323.07
708.296	271.87
708.484	103.93
708.672	353.79
708.86	318.97
709.048	241.15
709.236	241.15
709.424	333.31
709.612	355.83
709.8	161.28
709.988	329.21
710.176	241.15
710.364	404.99
710.551	310.78
710.739	292.35
710.927	220.67
711.115	232.96
711.303	321.02
711.491	378.36
711.679	296.44
711.866	419.32
712.054	169.47
712.242	284.16
712.43	388.6
712.617	282.11
712.805	327.16
712.993	298.49
713.181	179.71
713.368	402.94
713.556	394.75
713.744	280.06
713.931	509.43
714.119	323.07
714.306	245.24
714.494	316.92
714.682	306.68
714.869	202.24
715.057	263.68
715.244	187.9
715.432	351.74
715.619	189.95
715.807	325.12
715.994	284.16
716.182	306.68
716.369	345.59
716.556	298.49
716.744	198.14
716.931	206.33
717.119	370.17
717.306	306.68
717.493	404.99
717.681	239.1
717.868	306.68
718.055	361.98
718.242	310.78
718.43	374.27
718.617	333.31
718.804	288.25
718.991	476.66
719.179	353.79
719.366	357.88
719.553	357.88
719.74	304.64
719.927	261.63
720.114	304.64
720.301	288.25
720.488	237.05
720.676	306.68
720.863	400.89
721.05	554.49
721.237	413.18
721.424	390.65
721.611	364.03
721.798	294.4
721.985	310.78
722.172	331.26
722.358	357.88
722.545	378.36
722.732	288.25
722.919	409.08
723.106	323.07
723.293	349.69
723.48	421.37
723.667	275.96
723.853	368.12
724.04	310.78
724.227	419.32
724.414	349.69
724.6	384.51
724.787	433.66
724.974	499.19
725.161	290.3
725.347	298.49
725.534	345.59
725.72	327.16
725.907	445.95
726.094	407.03
726.28	407.03
726.467	378.36
726.653	273.92
726.84	525.82
727.027	611.83
727.213	370.17
727.4	390.65
727.586	318.97
727.773	386.55
727.959	284.16
728.145	374.27
728.332	359.93
728.518	306.68
728.705	425.47
728.891	396.79
729.077	357.88
729.264	316.92
729.45	310.78
729.636	411.13
729.823	417.27
730.009	425.47
730.195	370.17
730.382	495.1
730.568	314.88
730.754	370.17
730.94	386.55
731.126	312.83
731.313	353.79
731.499	347.64
731.685	423.42
731.871	318.97
732.057	415.23
732.243	458.23
732.429	384.51
732.615	450.04
732.801	470.52
732.987	368.12
733.173	417.27
733.359	333.31
733.545	329.21
733.731	239.1
733.917	443.9
734.103	325.12
734.289	509.43
734.475	284.16
734.661	554.49
734.847	419.32
735.033	425.47
735.219	427.51
735.404	433.66
735.59	378.36
735.776	335.35
735.962	357.88
736.148	509.43
736.333	519.67
736.519	486.9
736.705	351.74
736.89	372.22
737.076	312.83
737.262	392.7
737.447	259.58
737.633	333.31
737.819	439.8
738.004	312.83
738.19	402.94
738.375	433.66
738.561	460.28
738.747	413.18
738.932	357.88
739.118	536.06
739.303	472.57
739.489	427.51
739.674	366.07
739.859	364.03
740.045	491
740.23	349.69
740.416	243.2
740.601	411.13
740.786	359.93
740.972	456.19
741.157	364.03
741.342	300.54
741.528	435.71
741.713	484.86
741.898	394.75
742.084	398.84
742.269	345.59
742.454	439.8
742.639	450.04
742.824	439.8
743.01	443.9
743.195	566.78
743.38	374.27
743.565	384.51
743.75	335.35
743.935	427.51
744.12	509.43
744.305	306.68
744.49	396.79
744.675	374.27
744.86	318.97
745.045	435.71
745.23	407.03
745.415	327.16
745.6	507.38
745.785	443.9
745.97	472.57
746.155	409.08
746.34	484.86
746.525	400.89
746.71	484.86
746.895	364.03
747.079	265.72
747.264	361.98
747.449	452.09
747.634	445.95
747.819	398.84
748.003	345.59
748.188	257.53
748.373	421.37
748.557	347.64
748.742	333.31
748.927	351.74
749.111	361.98
749.296	290.3
749.481	341.5
749.665	431.61
749.85	245.24
750.034	394.75
750.219	294.4
750.404	378.36
750.588	292.35
750.773	284.16
750.957	345.59
751.141	284.16
751.326	337.4
751.51	226.81
751.695	286.2
751.879	314.88
752.064	415.23
752.248	269.82
752.432	464.38
752.617	288.25
752.801	327.16
752.985	255.48
753.17	382.46
753.354	351.74
753.538	343.55
753.722	251.39
753.907	273.92
754.091	218.62
754.275	337.4
754.459	237.05
754.643	239.1
754.828	271.87
755.012	345.59
755.196	255.48
755.38	339.45
755.564	230.91
755.748	230.91
755.932	343.55
756.116	329.21
756.3	249.34
756.484	208.38
756.668	308.73
756.852	124.41
757.036	235
757.22	249.34
757.404	159.23
757.588	212.48
757.772	296.44
757.956	192
758.14	357.88
758.323	189.95
758.507	290.3
758.691	169.47
758.875	284.16
759.059	284.16
759.242	183.81
759.426	224.76
759.61	222.72
759.794	200.19
759.977	323.07
760.161	427.51
760.345	280.06
760.528	271.87
760.712	241.15
760.895	202.24
761.079	296.44
761.263	99.84
761.446	153.09
761.63	284.16
761.813	204.28
761.997	148.99
762.18	181.76
762.364	235
762.547	142.85
762.731	189.95
762.914	224.76
763.098	171.52
763.281	146.94
763.464	146.94
763.648	204.28
763.831	261.63
764.015	200.19
764.198	304.64
764.381	157.18
764.564	185.85
764.748	148.99
764.931	222.72
765.114	208.38
765.297	200.19
765.481	153.09
765.664	62.98
765.847	87.55
766.03	314.88
766.213	118.27
766.397	177.66
766.58	79.36
766.763	204.28
766.946	132.61
767.129	95.74
767.312	155.13
767.495	136.7
767.678	165.37
767.861	214.52
768.044	171.52
768.227	116.22
768.41	181.76
768.593	124.41
768.776	146.94
768.959	165.37
769.142	237.05
769.324	120.32
769.507	159.23
769.69	153.09
769.873	185.85
770.056	308.73
770.239	140.8
770.421	261.63
770.604	282.11
770.787	218.62
770.97	112.13
771.152	159.23
771.335	148.99
771.518	114.17
771.7	259.58
771.883	275.96
772.066	118.27
772.248	177.66
772.431	267.77
772.613	222.72
772.796	161.28
772.978	124.41
773.161	251.39
773.343	169.47
773.526	95.74
773.708	32.26
773.891	-18.94
774.073	89.6
774.256	58.88
774.438	359.93
774.621	118.27
774.803	140.8
774.985	71.17
775.168	204.28
775.35	124.41
775.532	232.96
775.715	-2.56
775.897	146.94
776.079	114.17
776.261	132.61
776.444	146.94
776.626	140.8
776.808	73.21
776.99	71.17
777.173	128.51
777.355	110.08
777.537	91.65
777.719	101.89
777.901	52.74
778.083	13.82
778.265	-29.18
778.447	183.81
778.629	60.93
778.811	105.98
778.993	163.33
779.175	87.55
779.357	108.03
779.539	22.02
779.721	58.88
779.903	165.37
780.085	9.73
780.267	85.5
780.449	134.65
780.631	128.51
780.812	220.67
780.994	99.84
781.176	114.17
781.358	19.97
781.54	110.08
781.721	71.17
781.903	97.79
782.085	28.16
782.267	118.27
782.448	11.78
782.63	85.5
782.812	89.6
782.993	79.36
783.175	112.13
783.357	75.26
783.538	38.4
783.72	-35.33
783.901	30.21
784.083	155.13
784.264	89.6
784.446	-20.99
784.627	-4.61
784.809	175.61
784.99	122.37
785.172	198.14
785.353	48.64
785.535	19.97
785.716	48.64
785.897	26.11
786.079	54.78
786.26	93.69
786.441	148.99
786.623	-70.14
786.804	-55.81
786.985	65.02
787.167	116.22
787.348	17.92
787.529	38.4
787.71	116.22
787.891	151.04
788.073	-39.42
788.254	-55.81
788.435	228.86
788.616	93.69
788.797	52.74
788.978	95.74
789.159	3.58
789.34	165.37
789.522	46.59
789.703	30.21
789.884	75.26
790.065	28.16
790.246	222.72
790.427	52.74
790.607	235
790.788	161.28
790.969	-0.51
791.15	130.56
791.331	-20.99
791.512	22.02
791.693	5.63
791.874	-8.7
792.054	175.61
792.235	118.27
792.416	-0.51
792.597	26.11
792.778	13.82
792.958	58.88
793.139	114.17
793.32	22.02
793.5	-76.29
793.681	153.09
793.862	24.06
794.042	52.74
794.223	11.78
794.404	22.02
794.584	-123.39
794.765	24.06
794.945	17.92
795.126	83.45
795.306	50.69
795.487	1.54
795.667	28.16
795.848	202.24
796.028	38.4
796.209	69.12
796.389	142.85
796.57	77.31
796.75	44.54
796.93	67.07
797.111	-23.04
797.291	17.92
797.471	124.41
797.652	38.4
797.832	95.74
798.012	99.84
798.192	-10.75
798.373	-51.71
798.553	1.54
798.733	32.26
798.913	17.92
799.093	-27.14
799.274	124.41
799.454	69.12
799.634	65.02
799.814	114.17
799.994	50.69
800.174	112.13
800.354	62.98
800.534	-33.28
800.714	108.03
800.894	17.92
801.074	-84.48
801.254	-6.66
801.434	136.7
801.614	-35.33
801.794	11.78
801.974	1777.12
802.154	13.82
802.334	165.37
802.514	-88.57
802.693	-23.04
802.873	11.78
803.053	120.32
803.233	81.41
803.413	32.26
803.592	15.87
803.772	-8.7
803.952	54.78
804.131	-25.09
804.311	134.65
804.491	105.98
804.67	-16.9
804.85	-35.33
805.03	40.45
805.209	101.89
805.389	40.45
805.568	-59.9
805.748	87.55
805.928	24.06
806.107	73.21
806.287	105.98
806.466	91.65
806.646	-2.56
806.825	-6.66
807.004	-10.75
807.184	1.54
807.363	54.78
807.543	26.11
807.722	-55.81
807.901	103.93
808.081	99.84
808.26	-111.1
808.439	67.07
808.619	46.59
808.798	30.21
808.977	73.21
809.156	198.14
809.336	-10.75
809.515	99.84
809.694	-80.38
809.873	-8.7
810.052	89.6
810.231	103.93
810.411	-0.51
810.59	95.74
810.769	48.64
810.948	194.05
811.127	-107.01
811.306	5.63
811.485	-53.76
811.664	171.52
811.843	13.82
812.022	5.63
812.201	15.87
812.38	79.36
812.559	5.63
812.737	-10.75
812.916	-29.18
813.095	36.35
813.274	65.02
813.453	-29.18
813.632	46.59
813.811	79.36
813.989	-53.76
814.168	40.45
814.347	83.45
814.526	-23.04
814.704	73.21
814.883	140.8
815.062	-23.04
815.24	26.11
815.419	-14.85
815.598	24.06
815.776	-53.76
815.955	32.26
816.133	-70.14
816.312	85.5
816.49	-78.33
816.669	42.5
816.847	3.58
817.026	-27.14
817.204	5.63
817.383	7.68
817.561	-51.71
817.74	54.78
817.918	-4.61
818.097	-37.38
818.275	5.63
818.453	56.83
818.632	83.45
818.81	24.06
818.988	1.54
819.167	19.97
819.345	-0.51
819.523	-14.85
819.701	9.73
819.879	146.94
820.058	-12.8
820.236	46.59
820.414	32.26
820.592	26.11
820.77	3.58
820.948	7.68
821.127	-8.7
821.305	19.97
821.483	-121.34
821.661	28.16
821.839	50.69
822.017	-35.33
822.195	32.26
822.373	124.41
822.551	1.54
822.729	15.87
822.907	11.78
823.085	69.12
823.262	93.69
823.44	-14.85
823.618	-6.66
823.796	79.36
823.974	34.3
824.152	22.02
824.329	46.59
824.507	22.02
824.685	116.22
824.863	-23.04
825.04	-57.86
825.218	181.76
825.396	-23.04
825.574	24.06
825.751	32.26
825.929	50.69
826.107	-25.09
826.284	-31.23
826.462	46.59
826.639	56.83
826.817	-4.61
826.994	52.74
827.172	-113.15
827.349	210.43
827.527	69.12
827.704	71.17
827.882	60.93
828.059	75.26
828.237	75.26
828.414	136.7
828.591	-111.1
828.769	-0.51
828.946	1.54
829.124	91.65
829.301	93.69
829.478	-8.7
829.655	34.3
829.833	9.73
830.01	-145.92
830.187	134.65
830.364	38.4
830.542	40.45
830.719	144.89
830.896	95.74
831.073	54.78
831.25	26.11
831.427	99.84
831.604	5.63
831.782	11.78
831.959	65.02
832.136	42.5
832.313	-0.51
832.49	-23.04
832.667	3.58
832.844	-4.61
833.021	75.26
833.198	105.98
833.374	50.69
833.551	7.68
833.728	-6.66
833.905	50.69
834.082	-107.01
834.259	69.12
834.436	142.85
834.612	-16.9
834.789	77.31
834.966	3.58
835.143	24.06
835.319	-25.09
835.496	36.35
835.673	9.73
835.85	99.84
836.026	81.41
836.203	99.84
836.38	-25.09
836.556	15.87
836.733	-37.38
836.909	97.79
837.086	28.16
837.262	-127.49
837.439	-4.61
837.616	-131.58
837.792	-37.38
837.968	36.35
838.145	-166.4
838.321	26.11
838.498	91.65
838.674	-6.66
838.851	112.13
839.027	-57.86
839.203	7.68
839.38	11.78
839.556	-27.14
839.732	161.28
839.909	15.87
840.085	50.69
840.261	-80.38
840.437	58.88
840.614	-43.52
840.79	89.6
840.966	48.64
841.142	97.79
841.318	-10.75
841.494	69.12
841.671	95.74
841.847	-2.56
842.023	-39.42
842.199	124.41
842.375	130.56
842.551	-174.59
842.727	-29.18
842.903	87.55
843.079	-14.85
843.255	87.55
843.431	-6.66
843.607	69.12
843.783	-96.77
843.959	69.12
844.134	-20.99
844.31	56.83
844.486	-59.9
844.662	-4.61
844.838	-37.38
845.013	122.37
845.189	159.23
845.365	71.17
845.541	17.92
845.716	-45.57
845.892	42.5
846.068	-37.38
846.244	-39.42
846.419	81.41
846.595	-147.97
846.77	-141.82
846.946	75.26
847.122	-27.14
847.297	-80.38
847.473	81.41
847.648	-33.28
847.824	-18.94
847.999	-78.33
848.175	7.68
848.35	7.68
848.526	50.69
848.701	69.12
848.876	54.78
849.052	114.17
849.227	17.92
849.403	-41.47
849.578	-45.57
849.753	50.69
849.929	22.02
850.104	-14.85
850.279	5.63
850.454	-12.8
850.63	-43.52
850.805	54.78
850.98	-31.23
851.155	144.89
851.33	108.03
851.505	-107.01
851.681	50.69
851.856	36.35
852.031	19.97
852.206	54.78
852.381	-51.71
852.556	11.78
852.731	-57.86
852.906	-2.56
853.081	122.37
853.256	32.26
853.431	-12.8
853.606	-14.85
853.781	32.26
853.956	-53.76
854.131	44.54
854.305	-111.1
854.48	-6.66
854.655	-96.77
854.83	-33.28
855.005	50.69
855.18	19.97
855.354	5.63
855.529	91.65
855.704	-41.47
855.879	15.87
856.053	-18.94
856.228	89.6
856.403	-84.48
856.577	75.26
856.752	-55.81
856.926	-18.94
857.101	13.82
857.276	-37.38
857.45	-115.2
857.625	75.26
857.799	75.26
857.974	30.21
858.148	-94.72
858.323	15.87
858.497	24.06
858.672	-39.42
858.846	-111.1
859.02	-4.61
859.195	-70.14
859.369	-8.7
859.543	34.3
859.718	-12.8
859.892	52.74
860.066	17.92
860.241	-57.86
860.415	-68.09
860.589	-53.76
860.763	97.79
860.938	-18.94
861.112	-39.42
861.286	30.21
861.46	103.93
861.634	-12.8
861.808	17.92
861.982	-16.9
862.157	-115.2
862.331	-4.61
862.505	-104.96
862.679	-68.09
862.853	-47.62
863.027	-47.62
863.201	126.46
863.375	-64
863.549	44.54
863.722	38.4
863.896	89.6
864.07	-31.23
864.244	-70.14
864.418	15.87
864.592	24.06
864.766	-35.33
864.939	-49.66
865.113	-49.66
865.287	87.55
865.461	-90.62
865.634	32.26
865.808	-16.9
865.982	-78.33
866.156	-43.52
866.329	-31.23
866.503	34.3
866.676	54.78
866.85	65.02
867.024	-57.86
867.197	108.03
867.371	112.13
867.544	83.45
867.718	-27.14
867.891	77.31
868.065	-39.42
868.238	-86.53
868.412	28.16
868.585	105.98
868.759	-78.33
868.932	-29.18
869.105	42.5
869.279	65.02
869.452	-66.05
869.625	44.54
869.799	11.78
869.972	-2.56
870.145	-55.81
870.319	134.65
870.492	-31.23
870.665	17.92
870.838	38.4
871.011	-143.87
871.185	-39.42
871.358	19.97
871.531	-39.42
871.704	-74.24
871.877	-6.66
872.05	1.54
872.223	-51.71
872.396	79.36
872.569	95.74
872.742	-43.52
872.915	75.26
873.088	-10.75
873.261	-25.09
873.434	7.68
873.607	-39.42
873.78	126.46
873.953	-70.14
874.126	-10.75
874.299	54.78
874.471	-64
874.644	-12.8
874.817	126.46
874.99	177.66
875.163	-70.14
875.335	60.93
875.508	-16.9
875.681	95.74
875.853	-94.72
876.026	-111.1
876.199	136.7
876.371	91.65
876.544	-121.34
876.717	44.54
876.889	-43.52
877.062	-4.61
877.234	-14.85
877.407	42.5
877.579	-47.62
877.752	52.74
877.924	89.6
878.097	44.54
878.269	-96.77
878.442	32.26
878.614	-14.85
878.786	50.69
878.959	7.68
879.131	-8.7
879.303	-98.81
879.476	77.31
879.648	187.9
879.82	15.87
879.993	52.74
880.165	30.21
880.337	-100.86
880.509	-41.47
880.681	-66.05
880.854	-86.53
881.026	144.89
881.198	157.18
881.37	32.26
881.542	44.54
881.714	58.88
881.886	-45.57
882.058	-29.18
882.23	95.74
882.402	15.87
882.574	-18.94
882.746	11.78
882.918	38.4
883.09	46.59
883.262	-31.23
883.434	-35.33
883.606	-72.19
883.778	-25.09
883.95	128.51
884.122	-64
884.293	91.65
884.465	22.02
884.637	50.69
884.809	-41.47
884.98	69.12
885.152	-0.51
885.324	42.5
885.496	-57.86
885.667	-51.71
885.839	-64
886.011	136.7
886.182	42.5
886.354	142.85
886.525	17.92
886.697	-6.66
886.869	-37.38
887.04	-37.38
887.212	75.26
887.383	30.21
887.555	-2.56
887.726	28.16
887.897	-47.62
888.069	-53.76
888.24	65.02
888.412	19.97
888.583	30.21
888.754	44.54
888.926	-47.62
889.097	-10.75
889.268	-113.15
889.44	28.16
889.611	-102.91
889.782	-18.94
889.953	-70.14
890.125	136.7
890.296	-16.9
890.467	-43.52
890.638	-72.19
890.809	-35.33
890.98	-39.42
891.151	56.83
891.323	44.54
891.494	-35.33
891.665	-33.28
891.836	-6.66
892.007	-6.66
892.178	9.73
892.349	46.59
892.52	-129.53
892.691	17.92
892.862	-78.33
893.032	-135.68
893.203	22.02
893.374	40.45
893.545	83.45
893.716	-37.38
893.887	54.78
894.057	-96.77
894.228	-68.09
894.399	-55.81
894.57	105.98
894.74	65.02
894.911	15.87
895.082	7.68
895.253	-49.66
895.423	5.63
895.594	7.68
895.764	-29.18
895.935	3.58
896.106	-2.56
896.276	-16.9
896.447	-2.56
896.617	-70.14
896.788	-92.67
896.958	-0.51
897.129	-8.7
897.299	-107.01
897.47	62.98
897.64	9.73
897.81	-102.91
897.981	58.88
898.151	-35.33
898.322	-0.51
898.492	13.82
898.662	-12.8
898.832	-64
899.003	-96.77
899.173	52.74
899.343	-51.71
899.513	-57.86
