Data from USB4F104151__41__10-24-59-037.txt Node

Date: Wed Feb 26 10:24:59 EST 2025
User: louis
Spectrometer: USB4F10415
Trigger mode: 4
Integration Time (sec): 1.000000E-1
Scans to average: 1
Electric dark correction enabled: true
Nonlinearity correction enabled: false
Boxcar width: 0
XAxis mode: Wavelengths
Number of Pixels in Spectrum: 3648
>>>>>Begin Spectral Data<<<<<
178.204	-348.84
178.424	-348.84
178.644	-348.84
178.864	-357.03
179.084	-434.85
179.304	-31.4
179.524	-88.75
179.744	13.65
179.964	73.04
180.184	-10.92
180.404	116.05
180.624	-98.99
180.844	50.52
181.064	-86.7
181.283	64.85
181.503	-8.87
181.723	7.51
181.943	-58.03
182.163	273.75
182.383	-29.35
182.602	91.48
182.822	173.39
183.042	146.77
183.262	73.04
183.482	-19.11
183.701	40.28
183.921	91.48
184.141	21.84
184.361	150.87
184.58	77.14
184.8	144.72
185.02	-47.79
185.239	130.39
185.459	122.2
185.679	189.78
185.898	-15.02
186.118	23.89
186.338	38.23
186.557	175.44
186.777	-45.74
186.997	-51.88
187.216	19.8
187.436	202.07
187.655	109.91
187.875	159.06
188.095	103.76
188.314	114
188.534	193.87
188.753	-25.26
188.973	128.34
189.192	169.3
189.412	66.9
189.631	95.57
189.851	128.34
190.07	181.59
190.29	-41.64
190.509	50.52
190.729	99.67
190.948	157.01
191.168	306.51
191.387	60.76
191.607	21.84
191.826	83.28
192.045	148.82
192.265	11.61
192.484	1.37
192.704	75.09
192.923	54.61
193.142	124.24
193.362	58.71
193.581	109.91
193.8	114
194.02	189.78
194.239	54.61
194.458	42.32
194.678	1.37
194.897	83.28
195.116	114
195.335	89.43
195.555	97.62
195.774	21.84
195.993	122.2
196.212	52.56
196.432	38.23
196.651	-58.03
196.87	27.99
197.089	290.13
197.308	132.44
197.528	148.82
197.747	-0.68
197.966	107.86
198.185	101.72
198.404	19.8
198.623	93.52
198.842	202.07
199.062	122.2
199.281	187.73
199.5	5.46
199.719	114
199.938	71
200.157	87.38
200.376	122.2
200.595	171.35
200.814	50.52
201.033	38.23
201.252	197.97
201.471	89.43
201.69	111.96
201.909	62.8
202.128	85.33
202.347	138.58
202.566	85.33
202.785	1.37
203.004	-2.73
203.223	298.32
203.442	73.04
203.661	27.99
203.879	62.8
204.098	89.43
204.317	21.84
204.536	128.34
204.755	148.82
204.974	148.82
205.193	11.61
205.411	185.68
205.63	165.2
205.849	89.43
206.068	71
206.287	-29.35
206.505	134.48
206.724	46.42
206.943	30.04
207.162	11.61
207.381	71
207.599	38.23
207.818	87.38
208.037	-17.07
208.255	27.99
208.474	114
208.693	93.52
208.911	60.76
209.13	152.91
209.349	111.96
209.567	159.06
209.786	105.81
210.005	111.96
210.223	87.38
210.442	-111.27
210.661	27.99
210.879	97.62
211.098	38.23
211.316	107.86
211.535	134.48
211.753	103.76
211.972	38.23
212.191	66.9
212.409	44.37
212.628	83.28
212.846	1.37
213.065	64.85
213.283	154.96
213.502	30.04
213.72	73.04
213.938	91.48
214.157	77.14
214.375	122.2
214.594	-0.68
214.812	75.09
215.031	11.61
215.249	114
215.467	107.86
215.686	95.57
215.904	107.86
216.122	-43.69
216.341	157.01
216.559	122.2
216.778	152.91
216.996	152.91
217.214	38.23
217.432	-0.68
217.651	5.46
217.869	66.9
218.087	154.96
218.306	87.38
218.524	114
218.742	142.68
218.96	58.71
219.179	30.04
219.397	50.52
219.615	259.41
219.833	126.29
220.051	46.42
220.27	89.43
220.488	122.2
220.706	118.1
220.924	-6.83
221.142	19.8
221.36	101.72
221.578	66.9
221.796	73.04
222.015	60.76
222.233	105.81
222.451	91.48
222.669	13.65
222.887	163.15
223.105	17.75
223.323	75.09
223.541	40.28
223.759	83.28
223.977	116.05
224.195	148.82
224.413	122.2
224.631	60.76
224.849	83.28
225.067	259.41
225.285	-0.68
225.503	1.37
225.721	-55.98
225.939	91.48
226.157	73.04
226.375	236.88
226.592	50.52
226.81	-31.4
227.028	167.25
227.246	204.11
227.464	79.19
227.682	120.15
227.9	91.48
228.117	105.81
228.335	136.53
228.553	109.91
228.771	91.48
228.989	54.61
229.206	120.15
229.424	81.24
229.642	-21.16
229.86	-25.26
230.077	118.1
230.295	93.52
230.513	116.05
230.731	15.7
230.948	144.72
231.166	275.79
231.384	15.7
231.601	-43.69
231.819	208.21
232.037	62.8
232.254	-47.79
232.472	114
232.689	40.28
232.907	154.96
233.125	21.84
233.342	21.84
233.56	-23.21
233.777	60.76
233.995	48.47
234.213	177.49
234.43	79.19
234.648	83.28
234.865	93.52
235.083	42.32
235.3	105.81
235.518	91.48
235.735	122.2
235.953	124.24
236.17	7.51
236.388	68.95
236.605	54.61
236.822	136.53
237.04	118.1
237.257	118.1
237.475	11.61
237.692	120.15
237.909	138.58
238.127	93.52
238.344	157.01
238.562	83.28
238.779	27.99
238.996	-4.78
239.214	91.48
239.431	122.2
239.648	-68.27
239.865	87.38
240.083	38.23
240.3	3.41
240.517	-0.68
240.735	32.08
240.952	118.1
241.169	62.8
241.386	30.04
241.603	101.72
241.821	-21.16
242.038	195.92
242.255	71
242.472	13.65
242.689	126.29
242.907	60.76
243.124	103.76
243.341	9.56
243.558	58.71
243.775	58.71
243.992	-53.93
244.209	165.2
244.426	179.54
244.643	71
244.86	23.89
245.078	140.63
245.295	50.52
245.512	-35.5
245.729	50.52
245.946	148.82
246.163	118.1
246.38	30.04
246.597	32.08
246.814	101.72
247.031	128.34
247.248	101.72
247.464	64.85
247.681	93.52
247.898	73.04
248.115	157.01
248.332	-19.11
248.549	212.31
248.766	167.25
248.983	163.15
249.2	116.05
249.417	50.52
249.633	5.46
249.85	50.52
250.067	116.05
250.284	79.19
250.501	173.39
250.717	32.08
250.934	27.99
251.151	87.38
251.368	97.62
251.585	136.53
251.801	54.61
252.018	-31.4
252.235	152.91
252.451	46.42
252.668	34.13
252.885	130.39
253.102	87.38
253.318	23.89
253.535	85.33
253.752	58.71
253.968	3.41
254.185	34.13
254.401	46.42
254.618	109.91
254.835	46.42
255.051	169.3
255.268	200.02
255.484	105.81
255.701	27.99
255.917	95.57
256.134	-21.16
256.351	71
256.567	11.61
256.784	105.81
257	-37.55
257.217	206.16
257.433	150.87
257.65	95.57
257.866	140.63
258.082	21.84
258.299	-8.87
258.515	85.33
258.732	36.18
258.948	-31.4
259.165	30.04
259.381	54.61
259.597	105.81
259.814	21.84
260.03	32.08
260.246	101.72
260.463	142.68
260.679	169.3
260.895	5.46
261.112	99.67
261.328	128.34
261.544	27.99
261.761	177.49
261.977	34.13
262.193	3.41
262.409	111.96
262.626	99.67
262.842	3.41
263.058	-0.68
263.274	56.66
263.49	105.81
263.707	130.39
263.923	138.58
264.139	-19.11
264.355	52.56
264.571	157.01
264.787	66.9
265.004	189.78
265.22	42.32
265.436	3.41
265.652	3.41
265.868	75.09
266.084	15.7
266.3	30.04
266.516	1.37
266.732	138.58
266.948	101.72
267.164	60.76
267.38	200.02
267.596	58.71
267.812	152.91
268.028	68.95
268.244	42.32
268.46	130.39
268.676	42.32
268.892	75.09
269.108	-0.68
269.324	50.52
269.54	34.13
269.756	183.63
269.972	-35.5
270.188	118.1
270.403	-17.07
270.619	89.43
270.835	130.39
271.051	-43.69
271.267	-2.73
271.483	36.18
271.698	75.09
271.914	48.47
272.13	107.86
272.346	60.76
272.562	120.15
272.777	173.39
272.993	27.99
273.209	17.75
273.425	21.84
273.64	7.51
273.856	177.49
274.072	42.32
274.287	1.37
274.503	130.39
274.719	120.15
274.934	40.28
275.15	-31.4
275.366	52.56
275.581	-80.55
275.797	-23.21
276.012	27.99
276.228	30.04
276.444	75.09
276.659	140.63
276.875	9.56
277.09	27.99
277.306	111.96
277.521	165.2
277.737	38.23
277.952	75.09
278.168	56.66
278.383	36.18
278.599	42.32
278.814	126.29
279.03	95.57
279.245	138.58
279.461	91.48
279.676	167.25
279.892	-53.93
280.107	30.04
280.322	114
280.538	95.57
280.753	-35.5
280.969	58.71
281.184	56.66
281.399	58.71
281.615	71
281.83	95.57
282.045	75.09
282.26	-19.11
282.476	17.75
282.691	81.24
282.906	118.1
283.122	85.33
283.337	40.28
283.552	122.2
283.767	-2.73
283.983	111.96
284.198	44.37
284.413	107.86
284.628	-19.11
284.843	132.44
285.058	87.38
285.274	56.66
285.489	-39.59
285.704	95.57
285.919	89.43
286.134	64.85
286.349	105.81
286.564	91.48
286.779	202.07
286.995	56.66
287.21	34.13
287.425	60.76
287.64	-10.92
287.855	85.33
288.07	-35.5
288.285	163.15
288.5	134.48
288.715	122.2
288.93	75.09
289.145	-8.87
289.36	138.58
289.575	56.66
289.79	195.92
290.004	21.84
290.219	161.11
290.434	44.37
290.649	58.71
290.864	60.76
291.079	118.1
291.294	134.48
291.509	30.04
291.724	83.28
291.938	21.84
292.153	83.28
292.368	-25.26
292.583	91.48
292.798	60.76
293.012	58.71
293.227	83.28
293.442	-0.68
293.657	179.54
293.871	120.15
294.086	136.53
294.301	179.54
294.516	136.53
294.73	75.09
294.945	-17.07
295.16	60.76
295.374	132.44
295.589	116.05
295.804	25.94
296.018	21.84
296.233	130.39
296.447	46.42
296.662	99.67
296.877	171.35
297.091	144.72
297.306	111.96
297.52	42.32
297.735	91.48
297.949	91.48
298.164	50.52
298.378	75.09
298.593	25.94
298.807	-21.16
299.022	11.61
299.236	148.82
299.451	25.94
299.665	64.85
299.88	5.46
300.094	73.04
300.309	-4.78
300.523	81.24
300.737	56.66
300.952	68.95
301.166	101.72
301.381	50.52
301.595	3.41
301.809	50.52
302.024	30.04
302.238	93.52
302.452	267.6
302.667	79.19
302.881	60.76
303.095	73.04
303.309	114
303.524	62.8
303.738	79.19
303.952	11.61
304.166	87.38
304.381	-80.55
304.595	238.93
304.809	38.23
305.023	25.94
305.237	-33.45
305.452	64.85
305.666	120.15
305.88	34.13
306.094	91.48
306.308	87.38
306.522	99.67
306.736	66.9
306.95	66.9
307.164	36.18
307.379	1.37
307.593	208.21
307.807	179.54
308.021	99.67
308.235	128.34
308.449	-76.46
308.663	62.8
308.877	247.12
309.091	111.96
309.305	159.06
309.519	-41.64
309.733	189.78
309.947	17.75
310.161	81.24
310.374	118.1
310.588	134.48
310.802	-41.64
311.016	-31.4
311.23	97.62
311.444	25.94
311.658	95.57
311.872	85.33
312.085	218.45
312.299	275.79
312.513	165.2
312.727	114
312.941	42.32
313.154	152.91
313.368	46.42
313.582	66.9
313.796	30.04
314.009	32.08
314.223	120.15
314.437	-31.4
314.651	126.29
314.864	93.52
315.078	97.62
315.292	1.37
315.505	40.28
315.719	93.52
315.933	85.33
316.146	48.47
316.36	1.37
316.573	126.29
316.787	75.09
317.001	97.62
317.214	17.75
317.428	48.47
317.641	34.13
317.855	30.04
318.068	64.85
318.282	77.14
318.495	177.49
318.709	89.43
318.922	93.52
319.136	138.58
319.349	116.05
319.563	64.85
319.776	93.52
319.99	-51.88
320.203	206.16
320.417	89.43
320.63	134.48
320.843	247.12
321.057	73.04
321.27	13.65
321.483	109.91
321.697	181.59
321.91	62.8
322.124	154.96
322.337	-29.35
322.55	7.51
322.763	64.85
322.977	27.99
323.19	-2.73
323.403	62.8
323.617	71
323.83	93.52
324.043	27.99
324.256	58.71
324.469	-2.73
324.683	132.44
324.896	17.75
325.109	122.2
325.322	-19.11
325.535	238.93
325.748	163.15
325.962	71
326.175	103.76
326.388	101.72
326.601	109.91
326.814	83.28
327.027	126.29
327.24	142.68
327.453	-88.75
327.666	118.1
327.879	177.49
328.092	130.39
328.305	46.42
328.518	114
328.731	107.86
328.944	97.62
329.157	93.52
329.37	97.62
329.583	224.59
329.796	146.77
330.009	-25.26
330.222	230.74
330.435	167.25
330.648	17.75
330.861	93.52
331.073	27.99
331.286	60.76
331.499	75.09
331.712	3.41
331.925	91.48
332.138	58.71
332.35	130.39
332.563	46.42
332.776	157.01
332.989	46.42
333.202	7.51
333.414	62.8
333.627	42.32
333.84	1.37
334.053	42.32
334.265	13.65
334.478	34.13
334.691	46.42
334.903	5.46
335.116	-19.11
335.329	11.61
335.541	193.87
335.754	173.39
335.966	111.96
336.179	64.85
336.392	34.13
336.604	81.24
336.817	187.73
337.029	126.29
337.242	40.28
337.454	103.76
337.667	136.53
337.88	144.72
338.092	111.96
338.305	44.37
338.517	15.7
338.729	64.85
338.942	148.82
339.154	15.7
339.367	5.46
339.579	93.52
339.792	-23.21
340.004	118.1
340.217	-4.78
340.429	173.39
340.641	15.7
340.854	-31.4
341.066	7.51
341.278	122.2
341.491	200.02
341.703	25.94
341.915	50.52
342.128	122.2
342.34	25.94
342.552	-8.87
342.764	23.89
342.977	58.71
343.189	-15.02
343.401	77.14
343.613	-10.92
343.826	54.61
344.038	-74.41
344.25	116.05
344.462	-10.92
344.674	116.05
344.886	25.94
345.099	105.81
345.311	171.35
345.523	93.52
345.735	-2.73
345.947	56.66
346.159	34.13
346.371	99.67
346.583	-31.4
346.795	163.15
347.007	46.42
347.219	64.85
347.431	56.66
347.643	77.14
347.855	-8.87
348.067	152.91
348.279	-25.26
348.491	56.66
348.703	165.2
348.915	42.32
349.127	-19.11
349.339	30.04
349.551	34.13
349.763	154.96
349.975	60.76
350.187	197.97
350.399	148.82
350.61	52.56
350.822	-41.64
351.034	93.52
351.246	126.29
351.458	146.77
351.669	46.42
351.881	152.91
352.093	193.87
352.305	144.72
352.517	21.84
352.728	128.34
352.94	75.09
353.152	122.2
353.363	-12.97
353.575	140.63
353.787	202.07
353.999	71
354.21	218.45
354.422	54.61
354.633	17.75
354.845	44.37
355.057	116.05
355.268	36.18
355.48	111.96
355.692	-58.03
355.903	54.61
356.115	54.61
356.326	-37.55
356.538	181.59
356.749	36.18
356.961	171.35
357.172	87.38
357.384	-27.31
357.595	218.45
357.807	87.38
358.018	32.08
358.23	64.85
358.441	140.63
358.653	152.91
358.864	-15.02
359.075	3.41
359.287	148.82
359.498	140.63
359.709	148.82
359.921	60.76
360.132	85.33
360.344	122.2
360.555	-29.35
360.766	23.89
360.977	66.9
361.189	159.06
361.4	34.13
361.611	128.34
361.823	144.72
362.034	54.61
362.245	-47.79
362.456	-37.55
362.667	79.19
362.879	-49.83
363.09	173.39
363.301	161.11
363.512	87.38
363.723	-27.31
363.935	1.37
364.146	91.48
364.357	62.8
364.568	73.04
364.779	-10.92
364.99	249.17
365.201	52.56
365.412	222.55
365.623	9.56
365.834	48.47
366.045	83.28
366.256	163.15
366.467	118.1
366.678	27.99
366.889	126.29
367.1	-23.21
367.311	83.28
367.522	15.7
367.733	124.24
367.944	177.49
368.155	128.34
368.366	144.72
368.577	140.63
368.788	175.44
368.999	71
369.209	93.52
369.42	210.26
369.631	269.65
369.842	136.53
370.053	-47.79
370.264	122.2
370.474	13.65
370.685	114
370.896	15.7
371.107	175.44
371.317	73.04
371.528	68.95
371.739	103.76
371.95	44.37
372.16	50.52
372.371	42.32
372.582	87.38
372.792	93.52
373.003	23.89
373.214	128.34
373.424	114
373.635	-6.83
373.846	134.48
374.056	93.52
374.267	64.85
374.477	73.04
374.688	13.65
374.898	107.86
375.109	93.52
375.319	46.42
375.53	132.44
375.74	154.96
375.951	56.66
376.161	116.05
376.372	189.78
376.582	56.66
376.793	114
377.003	-0.68
377.214	32.08
377.424	97.62
377.635	85.33
377.845	-37.55
378.055	122.2
378.266	-0.68
378.476	124.24
378.686	85.33
378.897	134.48
379.107	169.3
379.317	83.28
379.528	134.48
379.738	183.63
379.948	3.41
380.158	150.87
380.369	85.33
380.579	107.86
380.789	91.48
380.999	75.09
381.21	142.68
381.42	214.35
381.63	134.48
381.84	163.15
382.05	144.72
382.261	109.91
382.471	126.29
382.681	-0.68
382.891	238.93
383.101	17.75
383.311	-21.16
383.521	-15.02
383.731	189.78
383.941	163.15
384.151	5.46
384.361	71
384.571	116.05
384.781	25.94
384.991	159.06
385.201	89.43
385.411	107.86
385.621	85.33
385.831	109.91
386.041	56.66
386.251	62.8
386.461	159.06
386.671	60.76
386.881	48.47
387.091	34.13
387.301	175.44
387.511	126.29
387.72	-2.73
387.93	175.44
388.14	38.23
388.35	50.52
388.56	150.87
388.769	167.25
388.979	83.28
389.189	-47.79
389.399	54.61
389.609	114
389.818	150.87
390.028	50.52
390.238	122.2
390.447	-15.02
390.657	148.82
390.867	118.1
391.076	1.37
391.286	46.42
391.496	103.76
391.705	30.04
391.915	54.61
392.125	128.34
392.334	11.61
392.544	122.2
392.753	144.72
392.963	-74.41
393.172	101.72
393.382	25.94
393.591	210.26
393.801	-19.11
394.01	200.02
394.22	93.52
394.429	25.94
394.639	71
394.848	81.24
395.058	87.38
395.267	91.48
395.477	107.86
395.686	40.28
395.895	191.83
396.105	191.83
396.314	81.24
396.524	42.32
396.733	32.08
396.942	148.82
397.152	126.29
397.361	79.19
397.57	42.32
397.78	77.14
397.989	66.9
398.198	240.98
398.407	38.23
398.617	64.85
398.826	23.89
399.035	163.15
399.244	140.63
399.453	13.65
399.663	73.04
399.872	99.67
400.081	68.95
400.29	73.04
400.499	-4.78
400.708	114
400.917	68.95
401.127	30.04
401.336	13.65
401.545	202.07
401.754	146.77
401.963	132.44
402.172	-27.31
402.381	-2.73
402.59	44.37
402.799	62.8
403.008	132.44
403.217	107.86
403.426	73.04
403.635	1.37
403.844	85.33
404.053	54.61
404.262	52.56
404.471	154.96
404.68	116.05
404.888	62.8
405.097	40.28
405.306	56.66
405.515	107.86
405.724	89.43
405.933	122.2
406.142	75.09
406.35	167.25
406.559	32.08
406.768	77.14
406.977	193.87
407.185	109.91
407.394	15.7
407.603	-64.17
407.812	85.33
408.02	165.2
408.229	120.15
408.438	144.72
408.646	21.84
408.855	83.28
409.064	132.44
409.272	44.37
409.481	144.72
409.69	38.23
409.898	71
410.107	71
410.315	159.06
410.524	9.56
410.733	116.05
410.941	27.99
411.15	116.05
411.358	150.87
411.567	187.73
411.775	81.24
411.984	83.28
412.192	103.76
412.401	-43.69
412.609	175.44
412.818	132.44
413.026	52.56
413.234	-6.83
413.443	52.56
413.651	58.71
413.86	9.56
414.068	130.39
414.276	187.73
414.485	23.89
414.693	144.72
414.901	165.2
415.11	97.62
415.318	54.61
415.526	99.67
415.734	132.44
415.943	124.24
416.151	236.88
416.359	15.7
416.567	116.05
416.776	71
416.984	73.04
417.192	210.26
417.4	58.71
417.608	81.24
417.817	-19.11
418.025	167.25
418.233	220.5
418.441	83.28
418.649	15.7
418.857	93.52
419.065	124.24
419.273	-15.02
419.481	79.19
419.689	40.28
419.897	23.89
420.105	-15.02
420.313	114
420.521	114
420.729	163.15
420.937	91.48
421.145	13.65
421.353	79.19
421.561	187.73
421.769	15.7
421.977	73.04
422.185	122.2
422.393	32.08
422.601	173.39
422.809	111.96
423.017	163.15
423.224	101.72
423.432	173.39
423.64	-70.31
423.848	144.72
424.056	-2.73
424.263	148.82
424.471	48.47
424.679	191.83
424.887	97.62
425.094	138.58
425.302	93.52
425.51	38.23
425.718	120.15
425.925	30.04
426.133	54.61
426.341	150.87
426.548	40.28
426.756	36.18
426.964	128.34
427.171	87.38
427.379	89.43
427.586	122.2
427.794	132.44
428.001	109.91
428.209	138.58
428.417	132.44
428.624	148.82
428.832	50.52
429.039	144.72
429.247	85.33
429.454	124.24
429.662	220.5
429.869	103.76
430.076	152.91
430.284	130.39
430.491	255.31
430.699	111.96
430.906	154.96
431.114	171.35
431.321	85.33
431.528	144.72
431.736	105.81
431.943	99.67
432.15	197.97
432.358	214.35
432.565	257.36
432.772	-31.4
432.979	148.82
433.187	154.96
433.394	314.7
433.601	99.67
433.808	253.27
434.016	286.03
434.223	208.21
434.43	200.02
434.637	290.13
434.844	257.36
435.052	185.68
435.259	251.22
435.466	257.36
435.673	253.27
435.88	277.84
436.087	263.51
436.294	314.7
436.501	312.66
436.708	224.59
436.915	267.6
437.122	361.81
437.329	167.25
437.537	286.03
437.743	214.35
437.95	429.39
438.157	320.85
438.364	329.04
438.571	326.99
438.778	324.94
438.985	427.34
439.192	451.92
439.399	408.91
439.606	441.68
439.813	494.93
440.02	437.58
440.227	560.46
440.433	531.79
440.64	480.59
440.847	423.25
441.054	423.25
441.261	626
441.467	599.37
441.674	511.31
441.881	703.82
442.088	458.06
442.294	595.28
442.501	699.72
442.708	703.82
442.914	630.09
443.121	761.16
443.328	673.1
443.534	800.07
443.741	763.21
443.948	660.81
444.154	740.68
444.361	1004.87
444.568	900.42
444.774	857.42
444.981	853.32
445.187	951.62
445.394	886.09
445.6	859.46
445.807	1015.11
446.013	1082.69
446.22	1045.83
446.426	1080.64
446.633	1135.94
446.839	1269.06
447.046	1187.14
447.252	1289.54
447.459	1312.07
447.665	1387.84
447.871	1586.49
448.078	1611.07
448.284	1533.25
448.491	1627.45
448.697	1715.52
448.903	1719.61
449.11	1715.52
449.316	1744.19
449.522	2008.37
449.728	2037.05
449.935	1936.7
450.141	2086.2
450.347	2225.46
450.553	2149.68
450.76	2215.22
450.966	2336.05
451.172	2508.08
451.378	2503.98
451.584	2544.94
451.791	2800.94
451.997	2768.17
452.203	2800.94
452.409	2989.35
452.615	3167.52
452.821	3140.9
453.027	2993.45
453.233	3622.17
453.44	3310.88
453.646	3677.47
453.852	3851.55
454.058	3734.81
454.264	3874.07
454.47	4273.43
454.676	4236.56
454.882	4705.55
455.088	4416.79
455.294	4611.34
455.5	4990.22
455.705	5147.91
455.911	5297.41
456.117	5467.39
456.323	5629.18
456.529	5674.24
456.735	6155.51
456.941	6235.38
457.147	6417.65
457.352	6694.13
457.558	6675.7
457.764	7425.25
457.97	7404.77
458.176	7537.89
458.381	8103.13
458.587	8408.28
458.793	8631.51
458.999	8617.17
459.204	9546.95
459.41	9942.21
459.616	9895.1
459.821	10359.99
460.027	11041.96
460.233	11240.62
460.438	11486.37
460.644	11994.27
460.85	12299.42
461.055	12504.21
461.261	13206.67
461.466	13079.69
461.672	13513.86
461.878	14916.72
462.083	14597.24
462.289	15080.56
462.494	15662.18
462.7	15752.29
462.905	15977.57
463.111	17146.96
463.316	18064.45
463.522	18285.63
463.727	19051.57
463.932	19729.45
464.138	20247.58
464.343	21193.75
464.549	21128.21
464.754	23014.39
464.959	23618.54
465.165	23917.54
465.37	23849.96
465.575	23872.49
465.781	25150.42
465.986	25899.98
466.191	25717.71
466.397	25693.13
466.602	25287.64
466.807	26915.77
467.012	27143.1
467.218	27798.45
467.423	27704.24
467.628	28611.49
467.833	29686.67
468.038	29115.29
468.244	28744.61
468.449	30163.85
468.654	29686.67
468.859	29598.61
469.064	29873.04
469.269	28941.21
469.474	29301.65
469.679	30141.32
469.885	29180.82
470.09	29590.42
470.295	29963.15
470.5	29283.22
470.705	29402
470.91	28627.87
471.115	28371.88
471.32	28877.72
471.525	28576.67
471.73	27917.23
471.935	27313.08
472.139	26776.51
472.344	26561.47
472.549	26549.18
472.754	26174.41
472.959	25222.1
473.164	24755.16
473.369	24478.69
473.574	25050.07
473.778	24275.94
473.983	23989.22
474.188	23729.13
474.393	22426.62
474.598	22494.21
474.802	21992.45
475.007	21623.82
475.212	21519.37
475.417	20458.53
475.621	20419.61
475.826	20370.46
476.031	19766.31
476.235	19039.28
476.44	19090.48
476.645	18635.83
476.849	18820.15
477.054	18304.06
477.259	18056.26
477.463	17933.38
477.668	17382.48
477.872	17355.85
478.077	16948.31
478.282	16288.86
478.486	16397.4
478.691	16170.08
478.895	15944.8
479.1	15889.51
479.304	15703.14
479.509	15426.67
479.713	15289.45
479.918	14851.19
480.122	14799.99
480.326	14799.99
480.531	14855.28
480.735	14644.34
480.94	14261.37
481.144	14781.56
481.348	14017.66
481.553	14453.88
481.757	13821.06
481.961	14070.91
482.166	13980.8
482.37	13896.83
482.574	13347.98
482.778	13431.94
482.983	13900.93
483.187	13479.05
483.391	13388.94
483.595	12926.1
483.8	12893.33
484.004	12981.39
484.208	13003.92
484.412	12758.16
484.616	12444.82
484.821	12526.74
485.025	12176.54
485.229	12215.45
485.433	12104.86
485.637	11715.75
485.841	11547.81
486.045	11525.29
486.249	11547.81
486.453	11097.26
486.657	11158.7
486.861	11205.8
487.065	10572.98
487.269	10841.26
487.473	10249.4
487.677	10273.98
487.881	10568.88
488.085	9979.07
488.289	9870.53
488.493	9626.82
488.697	9612.48
488.901	9381.06
489.105	8973.52
489.309	8953.04
489.512	8889.55
489.716	8733.9
489.92	8549.59
490.124	8498.39
490.328	8467.67
490.531	8144.09
490.735	8103.13
490.939	8015.07
491.143	7793.89
491.346	7541.99
491.55	7630.05
491.754	7388.39
491.958	7242.98
492.161	7187.69
492.365	7107.82
492.569	6790.38
492.772	6690.03
492.976	6728.94
493.18	6681.84
493.383	6444.27
493.587	6421.75
493.79	6567.15
493.994	6335.73
494.197	6184.18
494.401	6366.45
494.605	6108.41
494.808	6139.13
495.012	6046.97
495.215	6053.11
495.419	6184.18
495.622	5917.95
495.825	5793.02
496.029	5969.15
496.232	5942.52
496.436	5790.97
496.639	5858.56
496.843	5735.68
497.046	5684.48
497.249	5801.21
497.453	5983.48
497.656	5723.39
497.859	5813.5
498.063	5750.01
498.266	6003.96
498.469	5793.02
498.673	5840.12
498.876	5686.53
499.079	5623.04
499.282	5653.76
499.485	6364.4
499.689	6089.98
499.892	6036.73
500.095	5821.69
500.298	6137.08
500.501	5989.63
500.705	6061.3
500.908	6278.39
501.111	6210.81
501.314	6362.36
501.517	6417.65
501.72	6325.49
501.923	6374.64
502.126	6628.59
502.329	6749.42
502.532	6581.49
502.735	6687.98
502.938	7007.47
503.141	6929.64
503.344	7029.99
503.547	6896.88
503.75	7087.34
503.953	7265.51
504.156	7347.43
504.359	7439.59
504.562	7552.23
504.765	7642.34
504.968	7808.22
505.17	7808.22
505.373	7984.35
505.576	8324.31
505.779	8121.56
505.982	8174.81
506.185	8490.2
506.387	8656.08
506.59	8707.28
506.793	9106.63
506.996	9084.11
507.198	9514.18
507.401	9499.84
507.604	9753.79
507.807	9798.85
508.009	9897.15
508.212	10122.43
508.415	10104
508.617	10478.77
508.82	10591.41
509.022	10917.04
509.225	11232.43
509.428	11426.98
509.63	11689.12
509.833	11807.91
510.035	12506.26
510.238	12299.42
510.44	12362.9
510.643	12885.14
510.845	13032.59
511.048	13229.2
511.25	13450.38
511.453	13991.04
511.655	14421.11
511.858	14677.11
512.06	15111.28
512.262	15021.17
512.465	15414.38
512.667	15780.96
512.87	16118.88
513.072	16438.36
513.274	16940.11
513.477	17316.94
513.679	17718.34
513.881	18025.54
514.084	18426.94
514.286	18691.13
514.488	19326
514.69	20016.16
514.893	20235.3
515.095	20407.33
515.297	20788.25
515.499	21265.42
515.701	21769.23
515.904	22213.63
516.106	22707.19
516.308	23241.71
516.51	23845.87
516.712	24015.85
516.914	24595.42
517.116	25095.13
517.318	25449.42
517.52	25502.67
517.722	26381.25
517.925	26602.43
518.127	27395
518.329	27685.81
518.531	28056.49
518.733	28527.52
518.935	29033.37
519.136	29574.03
519.338	30129.03
519.54	30167.94
519.742	30864.25
519.944	30983.04
520.146	31994.73
520.348	32207.72
520.55	32213.87
520.752	32840.54
520.954	33491.8
521.155	33004.38
521.357	34120.52
521.559	34689.86
521.761	35185.47
521.963	35085.12
522.164	35400.51
522.366	35748.66
522.568	36176.69
522.77	36363.05
522.971	36952.87
523.173	36627.24
523.375	37120.8
523.576	37030.69
523.778	37399.32
523.98	37739.29
524.181	37466.91
524.383	37950.23
524.584	38157.07
524.786	38175.5
524.988	38013.71
525.189	38265.61
525.391	38247.18
525.592	38460.17
525.794	38075.15
525.995	38040.34
526.197	38173.45
526.398	38124.3
526.6	38370.06
526.801	37907.22
527.003	38058.77
527.204	37817.11
527.406	37794.58
527.607	37718.81
527.808	37876.5
528.01	36905.76
528.211	36930.34
528.412	37288.73
528.614	36666.15
528.815	36250.41
529.016	36287.28
529.218	35482.42
529.419	35650.36
529.62	35504.95
529.822	35083.07
530.023	34556.74
530.224	34204.49
530.425	33981.26
530.626	33295.19
530.828	32963.42
531.029	33301.34
531.23	32588.64
531.431	31990.64
531.632	31826.8
531.833	31871.85
532.035	31310.71
532.236	30839.68
532.437	30612.35
532.638	30004.11
532.839	29907.85
533.04	29588.37
533.241	28617.63
533.442	28949.4
533.643	27966.38
533.844	27857.84
534.045	27825.07
534.246	27081.66
534.447	26717.12
534.648	26586.05
534.849	26321.86
535.05	25635.79
535.251	25506.77
535.451	25230.29
535.652	24923.1
535.853	24458.21
536.054	24234.98
536.255	23815.15
536.456	22938.62
536.657	23313.39
536.857	22709.24
537.058	22320.13
537.259	22191.11
537.46	21959.69
537.66	21199.89
537.861	21160.98
538.062	21261.33
538.263	20857.88
538.463	20472.86
538.664	20300.83
538.865	20149.28
539.065	19948.58
539.266	19559.47
539.466	19424.3
539.667	19108.91
539.868	18857.01
540.068	18431.04
540.269	18478.14
540.469	18404.41
540.67	18115.65
540.87	17890.37
541.071	17407.05
541.271	17278.03
541.472	17292.37
541.672	17030.23
541.873	16893.01
542.073	16362.59
542.274	16327.77
542.474	16243.81
542.675	15821.92
542.875	16024.67
543.075	15709.29
543.276	15438.95
543.476	15441
543.676	15144.05
543.877	14918.77
544.077	14847.09
544.277	14746.74
544.478	14691.45
544.678	14673.01
544.878	14122.11
545.078	14163.07
545.279	13790.34
545.479	13560.97
545.679	13489.29
545.879	13419.66
546.079	13034.64
546.28	13106.32
546.48	12903.57
546.68	12731.54
546.88	12846.23
547.08	12367
547.28	12352.66
547.48	12197.02
547.68	12078.24
547.88	11773.09
548.081	11766.95
548.281	11629.73
548.481	11449.51
548.681	11250.86
548.881	11185.32
549.081	11070.64
549.28	10644.66
549.48	10863.79
549.68	10595.51
549.88	10630.32
550.08	10112.19
550.28	10296.5
550.48	10237.11
550.68	9893.05
550.88	9864.38
551.08	9559.24
551.279	9665.73
551.479	9340.1
551.679	9323.72
551.879	9000.14
552.079	9057.48
552.278	8758.48
552.478	8766.67
552.678	8588.5
552.878	8774.86
553.077	8467.67
553.277	8023.26
553.477	8160.47
553.676	8006.88
553.876	7757.02
554.076	7738.59
554.275	7496.93
554.475	7382.24
554.674	7523.55
554.874	7326.95
555.074	6841.58
555.273	7064.81
555.473	7015.66
555.672	6716.65
555.872	6622.45
556.071	6546.67
556.271	6558.96
556.47	6384.88
556.67	6085.88
556.869	6298.87
557.068	6114.55
557.268	5840.12
557.467	5985.53
557.667	5926.14
557.866	5801.21
558.065	5401.86
558.265	5543.17
558.464	5428.48
558.663	5352.71
558.863	5350.66
559.062	5319.94
559.261	5088.52
559.461	5061.9
559.66	4932.87
559.859	4850.96
560.058	4709.65
560.258	4660.49
560.457	4410.64
560.656	4746.51
560.855	4490.51
561.054	4556.05
561.253	4482.32
561.453	4308.24
561.652	4271.38
561.851	4367.63
562.05	4125.97
562.249	3847.45
562.448	4140.31
562.647	3814.68
562.846	3847.45
563.045	3908.89
563.244	3730.72
563.443	3749.15
563.642	3618.08
563.841	3736.86
564.04	3368.23
564.239	3607.84
564.438	3468.58
564.637	3237.16
564.836	3355.94
565.035	3292.45
565.234	3300.64
565.432	3173.67
565.631	3093.8
565.83	3046.69
566.029	3042.6
566.228	2917.67
566.427	3145
566.625	2852.14
566.824	2905.38
567.023	2827.56
567.222	2798.89
567.42	2706.73
567.619	2714.92
567.818	2624.81
568.016	2819.37
568.215	2669.87
568.414	2624.81
568.612	2561.33
568.811	2499.89
569.01	2450.74
569.208	2368.82
569.407	2456.88
569.605	2379.06
569.804	2336.05
570.002	2295.09
570.201	2157.88
570.4	2293.04
570.598	2219.32
570.797	2166.07
570.995	2153.78
571.193	2141.49
571.392	2155.83
571.59	1869.11
571.789	2020.66
571.987	2092.34
572.186	2096.44
572.384	2028.85
572.582	1934.65
572.781	2051.38
572.979	1639.74
573.177	1824.06
573.376	1703.23
573.574	1862.97
573.772	1819.96
573.971	1664.32
574.169	1484.09
574.367	1764.67
574.565	1602.88
574.763	1674.56
574.962	1469.76
575.16	1537.34
575.358	1516.86
575.556	1551.68
575.754	1523.01
575.952	1525.05
576.151	1582.4
576.349	1588.54
576.547	1332.54
576.745	1340.74
576.943	1295.68
577.141	1326.4
577.339	1185.09
577.537	1355.07
577.735	1357.12
577.933	1254.72
578.131	1244.48
578.329	1340.74
578.527	1201.47
578.725	1129.8
578.923	1105.22
579.121	1230.15
579.319	1013.06
579.516	1113.41
579.714	1283.39
579.912	1148.23
580.11	978.25
580.308	1033.54
580.506	1039.69
580.704	920.9
580.901	943.43
581.099	1068.36
581.297	978.25
581.495	1099.08
581.692	968.01
581.89	994.63
582.088	929.1
582.285	978.25
582.483	945.48
582.681	814.41
582.878	906.57
583.076	929.1
583.274	857.42
583.471	834.89
583.669	863.56
583.866	679.24
584.064	818.5
584.262	615.76
584.459	712.01
584.657	779.59
584.854	875.85
585.052	820.55
585.249	783.69
585.447	789.83
585.644	652.62
585.841	820.55
586.039	849.22
586.236	810.31
586.434	595.28
586.631	613.71
586.828	697.67
587.026	681.29
587.223	576.84
587.42	666.96
587.618	648.52
587.815	759.11
588.012	697.67
588.21	537.93
588.407	597.32
588.604	662.86
588.801	490.83
588.999	550.22
589.196	701.77
589.393	531.79
589.59	597.32
589.787	574.8
589.984	550.22
590.182	601.42
590.379	552.27
590.576	531.79
590.773	546.12
590.97	558.41
591.167	595.28
591.364	578.89
591.561	486.73
591.758	593.23
591.955	609.61
592.152	531.79
592.349	548.17
592.546	570.7
592.743	486.73
592.94	499.02
593.137	582.99
593.334	564.56
593.531	585.04
593.727	626
593.924	525.65
594.121	546.12
594.318	531.79
594.515	623.95
594.712	705.87
594.908	697.67
595.105	480.59
595.302	654.67
595.499	572.75
595.696	595.28
595.892	582.99
596.089	718.15
596.286	646.48
596.482	787.79
596.679	628.04
596.876	650.57
597.072	675.15
597.269	671.05
597.466	687.43
597.662	679.24
597.859	748.87
598.055	691.53
598.252	920.9
598.448	798.03
598.645	853.32
598.841	832.84
599.038	982.34
599.234	1033.54
599.431	1039.69
599.627	896.33
599.824	961.86
600.02	984.39
600.217	1086.79
600.413	1092.93
600.609	1217.86
600.806	1404.22
601.002	1262.91
601.198	1209.67
601.395	1371.46
601.591	1516.86
601.787	1463.61
601.984	1525.05
602.18	1631.55
602.376	1592.64
602.572	1723.71
602.769	1791.29
602.965	1756.47
603.161	1854.78
603.357	1971.51
603.553	1922.36
603.75	1942.84
603.946	2170.16
604.142	2182.45
604.338	2438.45
604.534	2348.34
604.73	2385.2
604.926	2303.28
605.122	2692.4
605.318	2688.3
605.514	2727.21
605.71	2712.88
605.906	3065.13
606.102	2837.8
606.298	3112.23
606.494	3278.12
606.69	3478.82
606.886	3257.64
607.082	3323.17
607.278	3450.14
607.474	3775.77
607.67	3704.09
607.866	3687.71
608.062	3951.9
608.257	4113.69
608.453	4054.3
608.649	4377.87
608.845	4332.82
609.041	4449.55
609.236	4543.76
609.432	4730.13
609.628	5014.79
609.824	4932.87
610.019	5125.38
610.215	5244.17
610.411	5373.19
610.606	5559.55
610.802	5668.09
610.998	5778.69
611.193	6135.03
611.389	6167.8
611.584	6368.5
611.78	6429.94
611.976	6624.5
612.171	6968.55
612.367	6986.99
612.562	7062.76
612.758	7290.09
612.953	7324.9
613.149	7781.6
613.344	7824.61
613.539	8129.75
613.735	8348.89
613.93	8568.02
614.126	8701.14
614.321	8928.46
614.517	9170.12
614.712	9571.52
614.907	9616.58
615.103	9960.64
615.298	10001.6
615.493	10519.73
615.688	10726.58
615.884	11009.2
616.079	10986.67
616.274	11682.98
616.47	11934.88
616.665	12041.37
616.86	12395.67
617.055	12813.46
617.25	12973.2
617.445	13470.86
617.641	13673.6
617.836	14058.62
618.031	14216.32
618.226	14713.97
618.421	14832.76
618.616	15453.29
618.811	15590.5
619.006	16333.92
619.201	16495.71
619.396	16917.59
619.591	16766.04
619.786	17534.03
619.981	17802.31
620.176	18648.12
620.371	18564.15
620.566	18959.41
620.761	19326
620.956	19977.25
621.151	20061.22
621.346	20556.83
621.541	20620.31
621.735	21693.45
621.93	21574.67
622.125	22309.89
622.32	22338.56
622.515	22846.46
622.709	23323.63
622.904	23821.29
623.099	23952.36
623.294	24658.91
623.488	24896.47
623.683	25488.34
623.878	25770.96
624.072	26244.04
624.267	26987.45
624.462	27161.53
624.656	27075.51
624.851	27915.18
625.046	28185.51
625.24	28521.38
625.435	28791.71
625.629	29766.54
625.824	29928.33
626.018	30417.8
626.213	30186.38
626.407	30772.1
626.602	30956.41
626.796	31660.91
626.991	32215.91
627.185	31824.75
627.38	32174.95
627.574	32414.57
627.768	32926.56
627.963	32856.93
628.157	32889.7
628.352	33078.11
628.546	32865.12
628.74	33444.69
628.935	33278.81
629.129	33653.59
629.323	33405.78
629.517	32635.75
629.712	33100.64
629.906	32594.79
630.1	31972.21
630.294	32254.83
630.489	31632.24
630.683	31171.45
630.877	30729.09
631.071	30235.53
631.265	29977.48
631.459	29189.02
631.653	28361.64
631.848	28275.62
632.042	27659.18
632.236	27036.6
632.43	26350.53
632.624	25643.98
632.818	24789.98
633.012	23835.63
633.206	23415.79
633.4	22750.2
633.594	21828.62
633.788	21296.14
633.982	20253.73
634.176	20010.02
634.369	19049.52
634.563	18414.65
634.757	17566.79
634.951	17118.29
635.145	16352.35
635.339	15834.21
635.533	15066.22
635.726	14761.08
635.92	13804.67
636.114	13388.94
636.308	12946.58
636.501	12491.93
636.695	11967.65
636.889	11295.91
637.083	10927.28
637.276	10378.42
637.47	9878.72
637.664	9606.34
637.857	9305.29
638.051	9010.38
638.244	8494.29
638.438	8172.76
638.632	8053.98
638.825	7441.64
639.019	7402.72
639.212	7001.32
639.406	6763.76
639.599	6485.23
639.793	6446.32
639.986	5985.53
640.18	5889.28
640.373	5729.53
640.567	5272.84
640.76	5350.66
640.954	4889.87
641.147	4693.26
641.34	4594.96
641.534	4424.98
641.727	4285.72
641.92	4042.01
642.114	3878.17
642.307	3724.57
642.5	3689.76
642.694	3491.1
642.887	3325.22
643.08	3274.02
643.273	3208.48
643.467	3038.5
643.66	2792.75
643.853	2805.03
644.046	2772.27
644.239	2608.43
644.432	2258.23
644.626	2358.58
644.819	2288.95
645.012	2250.03
645.205	2159.92
645.398	2071.86
645.591	1924.41
645.784	1701.18
645.977	1754.43
646.17	1672.51
646.363	1721.66
646.556	1527.1
646.749	1463.61
646.942	1494.33
647.135	1482.05
647.328	1330.5
647.521	1434.94
647.714	1279.3
647.907	1281.35
648.099	1084.74
648.292	1158.47
648.485	1191.24
648.678	1129.8
648.871	1008.97
649.064	1086.79
649.256	888.14
649.449	974.15
649.642	724.3
649.835	888.14
650.027	785.74
650.22	914.76
650.413	761.16
650.605	826.7
650.798	681.29
650.991	722.25
651.183	722.25
651.376	701.77
651.568	779.59
651.761	664.91
651.954	650.57
652.146	619.85
652.339	675.15
652.531	609.61
652.724	492.88
652.916	558.41
653.109	427.34
653.301	648.52
653.494	494.93
653.686	478.54
653.879	550.22
654.071	443.73
654.263	519.5
654.456	359.76
654.648	486.73
654.84	382.29
655.033	322.9
655.225	482.64
655.417	265.55
655.61	548.17
655.802	351.57
655.994	470.35
656.186	267.6
656.379	339.28
656.571	365.9
656.763	339.28
656.955	259.41
657.148	271.7
657.34	404.82
657.532	353.62
657.724	292.18
657.916	347.47
658.108	363.86
658.3	312.66
658.492	363.86
658.684	212.31
658.876	343.38
659.068	243.03
659.26	138.58
659.452	50.52
659.644	261.46
659.836	406.86
660.028	265.55
660.22	212.31
660.412	214.35
660.604	279.89
660.796	316.75
660.988	326.99
661.18	177.49
661.372	236.88
661.563	269.65
661.755	267.6
661.947	175.44
662.139	152.91
662.331	183.63
662.522	238.93
662.714	191.83
662.906	111.96
663.097	177.49
663.289	136.53
663.481	101.72
663.673	175.44
663.864	181.59
664.056	249.17
664.247	169.3
664.439	251.22
664.631	187.73
664.822	230.74
665.014	150.87
665.205	142.68
665.397	97.62
665.588	173.39
665.78	195.92
665.971	171.35
666.163	56.66
666.354	138.58
666.546	85.33
666.737	175.44
666.929	81.24
667.12	144.72
667.311	261.46
667.503	97.62
667.694	273.75
667.885	120.15
668.077	138.58
668.268	60.76
668.459	179.54
668.651	171.35
668.842	202.07
669.033	64.85
669.224	124.24
669.416	429.39
669.607	212.31
669.798	148.82
669.989	302.42
670.18	197.97
670.371	243.03
670.563	81.24
670.754	269.65
670.945	157.01
671.136	218.45
671.327	46.42
671.518	238.93
671.709	263.51
671.9	212.31
672.091	251.22
672.282	204.11
672.473	99.67
672.664	140.63
672.855	228.69
673.046	200.02
673.237	259.41
673.428	159.06
673.619	195.92
673.809	187.73
674	257.36
674.191	269.65
674.382	148.82
674.573	204.11
674.764	253.27
674.954	230.74
675.145	101.72
675.336	191.83
675.527	189.78
675.717	236.88
675.908	111.96
676.099	159.06
676.289	206.16
676.48	124.24
676.671	318.8
676.861	169.3
677.052	245.07
677.243	238.93
677.433	114
677.624	283.98
677.814	300.37
678.005	197.97
678.195	353.62
678.386	193.87
678.576	310.61
678.767	105.81
678.957	208.21
679.148	245.07
679.338	367.95
679.529	281.94
679.719	206.16
679.909	343.38
680.1	251.22
680.29	269.65
680.481	152.91
680.671	380.24
680.861	228.69
681.052	267.6
681.242	136.53
681.432	349.52
681.622	292.18
681.813	138.58
682.003	263.51
682.193	183.63
682.383	351.57
682.573	206.16
682.764	212.31
682.954	263.51
683.144	441.68
683.334	204.11
683.524	238.93
683.714	302.42
683.904	310.61
684.094	306.51
684.284	331.09
684.474	388.43
684.664	273.75
684.854	255.31
685.044	273.75
685.234	329.04
685.424	281.94
685.614	226.64
685.804	458.06
685.994	413.01
686.184	263.51
686.374	314.7
686.564	269.65
686.753	324.94
686.943	265.55
687.133	349.52
687.323	253.27
687.513	243.03
687.702	335.18
687.892	304.46
688.082	296.27
688.272	339.28
688.461	404.82
688.651	406.86
688.841	337.23
689.03	339.28
689.22	216.4
689.41	322.9
689.599	286.03
689.789	300.37
689.979	388.43
690.168	249.17
690.358	380.24
690.547	288.08
690.737	238.93
690.926	329.04
691.116	279.89
691.305	404.82
691.495	320.85
691.684	302.42
691.874	302.42
692.063	267.6
692.252	218.45
692.442	240.98
692.631	247.12
692.82	185.68
693.01	341.33
693.199	193.87
693.388	271.7
693.578	300.37
693.767	306.51
693.956	257.36
694.146	185.68
694.335	286.03
694.524	163.15
694.713	263.51
694.902	191.83
695.092	234.83
695.281	306.51
695.47	238.93
695.659	243.03
695.848	255.31
696.037	251.22
696.226	306.51
696.415	259.41
696.604	316.75
696.793	322.9
696.982	277.84
697.171	390.48
697.36	204.11
697.549	255.31
697.738	83.28
697.927	187.73
698.116	175.44
698.305	331.09
698.494	277.84
698.683	220.5
698.872	398.67
699.061	208.21
699.25	191.83
699.438	212.31
699.627	185.68
699.816	365.9
700.005	128.34
700.193	255.31
700.382	294.22
700.571	279.89
700.76	316.75
700.948	249.17
701.137	279.89
701.326	245.07
701.514	144.72
701.703	283.98
701.892	279.89
702.08	398.67
702.269	259.41
702.457	197.97
702.646	234.83
702.834	183.63
703.023	296.27
703.212	267.6
703.4	218.45
703.589	226.64
703.777	193.87
703.965	148.82
704.154	200.02
704.342	165.2
704.531	165.2
704.719	292.18
704.907	310.61
705.096	152.91
705.284	161.11
705.472	240.98
705.661	288.08
705.849	296.27
706.037	341.33
706.226	259.41
706.414	243.03
706.602	224.59
706.79	257.36
706.979	210.26
707.167	177.49
707.355	150.87
707.543	257.36
707.731	273.75
707.919	197.97
708.107	195.92
708.296	200.02
708.484	152.91
708.672	277.84
708.86	294.22
709.048	197.97
709.236	161.11
709.424	292.18
709.612	267.6
709.8	177.49
709.988	288.08
710.176	367.95
710.364	281.94
710.551	187.73
710.739	228.69
710.927	152.91
711.115	273.75
711.303	208.21
711.491	308.56
711.679	161.11
711.866	259.41
712.054	165.2
712.242	320.85
712.43	314.7
712.617	189.78
712.805	267.6
712.993	206.16
713.181	111.96
713.368	243.03
713.556	279.89
713.744	222.55
713.931	408.91
714.119	292.18
714.306	226.64
714.494	193.87
714.682	251.22
714.869	144.72
715.057	210.26
715.244	99.67
715.432	251.22
715.619	157.01
715.807	208.21
715.994	200.02
716.182	236.88
716.369	273.75
716.556	253.27
716.744	128.34
716.931	202.07
717.119	345.42
717.306	216.4
717.493	300.37
717.681	261.46
717.868	218.45
718.055	247.12
718.242	310.61
718.43	255.31
718.617	380.24
718.804	267.6
718.991	361.81
719.179	296.27
719.366	302.42
719.553	337.23
719.74	228.69
719.927	277.84
720.114	324.94
720.301	216.4
720.488	277.84
720.676	195.92
720.863	386.38
721.05	451.92
721.237	288.08
721.424	318.8
721.611	343.38
721.798	230.74
721.985	214.35
722.172	263.51
722.358	304.46
722.545	361.81
722.732	349.52
722.919	326.99
723.106	281.94
723.293	222.55
723.48	374.1
723.667	337.23
723.853	370
724.04	339.28
724.227	357.71
724.414	269.65
724.6	314.7
724.787	429.39
724.974	419.15
725.161	265.55
725.347	302.42
725.534	247.12
725.72	355.66
725.907	382.29
726.094	433.49
726.28	329.04
726.467	261.46
726.653	310.61
726.84	441.68
727.027	466.25
727.213	300.37
727.4	339.28
727.586	318.8
727.773	312.66
727.959	353.62
728.145	279.89
728.332	372.05
728.518	314.7
728.705	351.57
728.891	337.23
729.077	331.09
729.264	259.41
729.45	339.28
729.636	419.15
729.823	378.19
730.009	413.01
730.195	337.23
730.382	376.14
730.568	361.81
730.754	359.76
730.94	413.01
731.126	378.19
731.313	316.75
731.499	339.28
731.685	372.05
731.871	423.25
732.057	353.62
732.243	521.55
732.429	400.72
732.615	417.1
732.801	353.62
732.987	404.82
733.173	363.86
733.359	283.98
733.545	314.7
733.731	339.28
733.917	417.1
734.103	447.82
734.289	449.87
734.475	388.43
734.661	580.94
734.847	324.94
735.033	417.1
735.219	425.29
735.404	447.82
735.59	443.73
735.776	423.25
735.962	427.34
736.148	501.07
736.333	480.59
736.519	398.67
736.705	427.34
736.89	421.2
737.076	443.73
737.262	324.94
737.447	318.8
737.633	363.86
737.819	429.39
738.004	304.46
738.19	363.86
738.375	410.96
738.561	486.73
738.747	421.2
738.932	339.28
739.118	466.25
739.303	503.12
739.489	410.96
739.674	443.73
739.859	376.14
740.045	439.63
740.23	466.25
740.416	243.03
740.601	312.66
740.786	390.48
740.972	376.14
741.157	361.81
741.342	298.32
741.528	337.23
741.713	476.49
741.898	367.95
742.084	402.77
742.269	367.95
742.454	472.4
742.639	480.59
742.824	484.69
743.01	474.45
743.195	513.36
743.38	378.19
743.565	312.66
743.75	480.59
743.935	435.53
744.12	478.54
744.305	294.22
744.49	355.66
744.675	410.96
744.86	400.72
745.045	494.93
745.23	507.21
745.415	380.24
745.6	570.7
745.785	398.67
745.97	517.45
746.155	441.68
746.34	425.29
746.525	394.58
746.71	513.36
746.895	339.28
747.079	392.53
747.264	460.11
747.449	421.2
747.634	400.72
747.819	390.48
748.003	304.46
748.188	290.13
748.373	423.25
748.557	453.97
748.742	404.82
748.927	431.44
749.111	357.71
749.296	326.99
749.481	449.87
749.665	388.43
749.85	390.48
750.034	392.53
750.219	290.13
750.404	275.79
750.588	404.82
750.773	296.27
750.957	345.42
751.141	308.56
751.326	398.67
751.51	283.98
751.695	345.42
751.879	255.31
752.064	398.67
752.248	279.89
752.432	433.49
752.617	337.23
752.801	316.75
752.985	326.99
753.17	400.72
753.354	331.09
753.538	314.7
753.722	279.89
753.907	296.27
754.091	279.89
754.275	392.53
754.459	251.22
754.643	296.27
754.828	361.81
755.012	370
755.196	197.97
755.38	306.51
755.564	331.09
755.748	269.65
755.932	359.76
756.116	370
756.3	292.18
756.484	279.89
756.668	349.52
756.852	216.4
757.036	279.89
757.22	341.33
757.404	273.75
757.588	185.68
757.772	394.58
757.956	214.35
758.14	357.71
758.323	206.16
758.507	335.18
758.691	224.59
758.875	324.94
759.059	308.56
759.242	302.42
759.426	265.55
759.61	195.92
759.794	173.39
759.977	296.27
760.161	464.21
760.345	306.51
760.528	355.66
760.712	269.65
760.895	267.6
761.079	167.25
761.263	126.29
761.446	230.74
761.63	238.93
761.813	300.37
761.997	159.06
762.18	152.91
762.364	302.42
762.547	116.05
762.731	218.45
762.914	265.55
763.098	249.17
763.281	197.97
763.464	238.93
763.648	193.87
763.831	236.88
764.015	220.5
764.198	302.42
764.381	183.63
764.564	185.68
764.748	224.59
764.931	247.12
765.114	161.11
765.297	288.08
765.481	189.78
765.664	138.58
765.847	161.11
766.03	290.13
766.213	114
766.397	232.79
766.58	161.11
766.763	253.27
766.946	206.16
767.129	130.39
767.312	122.2
767.495	169.3
767.678	161.11
767.861	195.92
768.044	169.3
768.227	230.74
768.41	259.41
768.593	202.07
768.776	259.41
768.959	144.72
769.142	165.2
769.324	220.5
769.507	179.54
769.69	189.78
769.873	136.53
770.056	339.28
770.239	195.92
770.421	290.13
770.604	202.07
770.787	189.78
770.97	197.97
771.152	120.15
771.335	271.7
771.518	179.54
771.7	238.93
771.883	193.87
772.066	99.67
772.248	208.21
772.431	179.54
772.613	271.7
772.796	212.31
772.978	204.11
773.161	271.7
773.343	193.87
773.526	111.96
773.708	66.9
773.891	13.65
774.073	165.2
774.256	79.19
774.438	253.27
774.621	95.57
774.803	146.77
774.985	177.49
775.168	208.21
775.35	120.15
775.532	326.99
775.715	91.48
775.897	152.91
776.079	163.15
776.261	202.07
776.444	206.16
776.626	154.96
776.808	191.83
776.99	75.09
777.173	150.87
777.355	97.62
777.537	138.58
777.719	114
777.901	64.85
778.083	83.28
778.265	-8.87
778.447	128.34
778.629	68.95
778.811	116.05
778.993	181.59
779.175	144.72
779.357	177.49
779.539	75.09
779.721	99.67
779.903	111.96
780.085	58.71
780.267	154.96
780.449	60.76
780.631	126.29
780.812	226.64
780.994	34.13
781.176	114
781.358	91.48
781.54	93.52
781.721	224.59
781.903	140.63
782.085	52.56
782.267	142.68
782.448	-51.88
782.63	81.24
782.812	79.19
782.993	208.21
783.175	163.15
783.357	23.89
783.538	60.76
783.72	91.48
783.901	128.34
784.083	89.43
784.264	89.43
784.446	3.41
784.627	-29.35
784.809	36.18
784.99	116.05
785.172	183.63
785.353	83.28
785.535	77.14
785.716	56.66
785.897	5.46
786.079	34.13
786.26	83.28
786.441	77.14
786.623	42.32
786.804	89.43
786.985	189.78
787.167	140.63
787.348	79.19
787.529	34.13
787.71	251.22
787.891	44.37
788.073	-4.78
788.254	27.99
788.435	148.82
788.616	83.28
788.797	60.76
788.978	107.86
789.159	93.52
789.34	150.87
789.522	30.04
789.703	5.46
789.884	77.14
790.065	114
790.246	204.11
790.427	54.61
790.607	165.2
790.788	169.3
790.969	-21.16
791.15	105.81
791.331	73.04
791.512	7.51
791.693	-25.26
791.874	44.37
792.054	290.13
792.235	169.3
792.416	62.8
792.597	5.46
792.778	157.01
792.958	175.44
793.139	46.42
793.32	83.28
793.5	13.65
793.681	218.45
793.862	120.15
794.042	-10.92
794.223	-23.21
794.404	56.66
794.584	3.41
794.765	107.86
794.945	38.23
795.126	154.96
795.306	103.76
795.487	71
795.667	93.52
795.848	154.96
796.028	5.46
796.209	114
796.389	122.2
796.57	44.37
796.75	-23.21
796.93	15.7
797.111	105.81
797.291	77.14
797.471	152.91
797.652	56.66
797.832	27.99
798.012	75.09
798.192	85.33
798.373	-51.88
798.553	77.14
798.733	52.56
798.913	52.56
799.093	-39.59
799.274	42.32
799.454	144.72
799.634	111.96
799.814	103.76
799.994	79.19
800.174	9.56
800.354	134.48
800.534	-47.79
800.714	142.68
800.894	-39.59
801.074	19.8
801.254	30.04
801.434	165.2
801.614	5.46
801.794	15.7
801.974	1832.25
802.154	1.37
802.334	87.38
802.514	-64.17
802.693	62.8
802.873	-0.68
803.053	132.44
803.233	68.95
803.413	-4.78
803.592	-2.73
803.772	13.65
803.952	50.52
804.131	-10.92
804.311	142.68
804.491	136.53
804.67	-21.16
804.85	30.04
805.03	91.48
805.209	87.38
805.389	48.47
805.568	-33.45
805.748	111.96
805.928	-21.16
806.107	75.09
806.287	128.34
806.466	85.33
806.646	25.94
806.825	13.65
807.004	93.52
807.184	52.56
807.363	34.13
807.543	93.52
807.722	77.14
807.901	101.72
808.081	105.81
808.26	-123.56
808.439	97.62
808.619	75.09
808.798	3.41
808.977	3.41
809.156	103.76
809.336	46.42
809.515	111.96
809.694	-64.17
809.873	36.18
810.052	-6.83
810.231	103.76
810.411	66.9
810.59	154.96
810.769	75.09
810.948	111.96
811.127	-35.5
811.306	-12.97
811.485	-8.87
811.664	204.11
811.843	77.14
812.022	93.52
812.201	50.52
812.38	19.8
812.559	9.56
812.737	105.81
812.916	-70.31
813.095	-53.93
813.274	103.76
813.453	97.62
813.632	56.66
813.811	105.81
813.989	21.84
814.168	36.18
814.347	-74.41
814.526	71
814.704	161.11
814.883	177.49
815.062	36.18
815.24	120.15
815.419	-43.69
815.598	38.23
815.776	-107.18
815.955	56.66
816.133	-80.55
816.312	50.52
816.49	-6.83
816.669	-21.16
816.847	73.04
817.026	85.33
817.204	56.66
817.383	21.84
817.561	11.61
817.74	60.76
817.918	7.51
818.097	-72.36
818.275	27.99
818.453	71
818.632	68.95
818.81	11.61
818.988	17.75
819.167	-62.12
819.345	50.52
819.523	-6.83
819.701	62.8
819.879	93.52
820.058	32.08
820.236	21.84
820.414	46.42
820.592	-45.74
820.77	77.14
820.948	-35.5
821.127	42.32
821.305	66.9
821.483	-19.11
821.661	169.3
821.839	60.76
822.017	-45.74
822.195	107.86
822.373	116.05
822.551	81.24
822.729	68.95
822.907	-45.74
823.085	73.04
823.262	81.24
823.44	-10.92
823.618	-53.93
823.796	85.33
823.974	3.41
824.152	87.38
824.329	60.76
824.507	93.52
824.685	79.19
824.863	42.32
825.04	68.95
825.218	93.52
825.396	38.23
825.574	13.65
825.751	50.52
825.929	132.44
826.107	-68.27
826.284	38.23
826.462	21.84
826.639	-62.12
826.817	-49.83
826.994	-0.68
827.172	1.37
827.349	114
827.527	64.85
827.704	13.65
827.882	50.52
828.059	40.28
828.237	30.04
828.414	50.52
828.591	-105.13
828.769	-35.5
828.946	-64.17
829.124	52.56
829.301	93.52
829.478	52.56
829.655	89.43
829.833	71
830.01	-45.74
830.187	52.56
830.364	46.42
830.542	11.61
830.719	136.53
830.896	54.61
831.073	81.24
831.25	56.66
831.427	152.91
831.604	-70.31
831.782	-31.4
831.959	32.08
832.136	50.52
832.313	-23.21
832.49	1.37
832.667	95.57
832.844	5.46
833.021	191.83
833.198	91.48
833.374	-8.87
833.551	34.13
833.728	40.28
833.905	81.24
834.082	-133.8
834.259	32.08
834.436	142.68
834.612	-25.26
834.789	105.81
834.966	42.32
835.143	23.89
835.319	5.46
835.496	118.1
835.673	85.33
835.85	48.47
836.026	79.19
836.203	99.67
836.38	42.32
836.556	-12.97
836.733	25.94
836.909	144.72
837.086	32.08
837.262	-23.21
837.439	-15.02
837.616	-60.07
837.792	19.8
837.968	114
838.145	-64.17
838.321	40.28
838.498	60.76
838.674	1.37
838.851	120.15
839.027	-4.78
839.203	-21.16
839.38	-4.78
839.556	-88.75
839.732	91.48
839.909	93.52
840.085	56.66
840.261	-39.59
840.437	36.18
840.614	-31.4
840.79	87.38
840.966	54.61
841.142	89.43
841.318	75.09
841.494	-0.68
841.671	79.19
841.847	-10.92
842.023	-25.26
842.199	89.43
842.375	179.54
842.551	-58.03
842.727	-80.55
842.903	230.74
843.079	-51.88
843.255	206.16
843.431	71
843.607	83.28
843.783	-117.42
843.959	109.91
844.134	71
844.31	136.53
844.486	-45.74
844.662	32.08
844.838	17.75
845.013	116.05
845.189	75.09
845.365	-4.78
845.541	3.41
845.716	38.23
845.892	50.52
846.068	-58.03
846.244	-17.07
846.419	17.75
846.595	-62.12
846.77	-62.12
846.946	58.71
847.122	-45.74
847.297	-51.88
847.473	179.54
847.648	-55.98
847.824	81.24
847.999	-123.56
848.175	-31.4
848.35	15.7
848.526	95.57
848.701	62.8
848.876	167.25
849.052	99.67
849.227	42.32
849.403	91.48
849.578	-27.31
849.753	15.7
849.929	116.05
850.104	-33.45
850.279	52.56
850.454	19.8
850.63	30.04
850.805	50.52
850.98	19.8
851.155	17.75
851.33	17.75
851.505	-76.46
851.681	81.24
851.856	-21.16
852.031	9.56
852.206	7.51
852.381	-72.36
852.556	-4.78
852.731	97.62
852.906	126.29
853.081	36.18
853.256	124.24
853.431	54.61
853.606	-29.35
853.781	11.61
853.956	-94.89
854.131	11.61
854.305	-10.92
854.48	-29.35
854.655	-49.83
854.83	-64.17
855.005	48.47
855.18	75.09
855.354	-74.41
855.529	21.84
855.704	17.75
855.879	56.66
856.053	34.13
856.228	7.51
856.403	-74.41
856.577	19.8
856.752	-19.11
856.926	50.52
857.101	-12.97
857.276	36.18
857.45	85.33
857.625	21.84
857.799	46.42
857.974	-15.02
858.148	-98.99
858.323	79.19
858.497	-27.31
858.672	17.75
858.846	-2.73
859.02	103.76
859.195	-51.88
859.369	71
859.543	93.52
859.718	34.13
859.892	48.47
860.066	-12.97
860.241	-12.97
860.415	-47.79
860.589	3.41
860.763	7.51
860.938	34.13
861.112	50.52
861.286	-39.59
861.46	91.48
861.634	-4.78
861.808	48.47
861.982	-2.73
862.157	-68.27
862.331	1.37
862.505	3.41
862.679	-35.5
862.853	64.85
863.027	52.56
863.201	146.77
863.375	-10.92
863.549	58.71
863.722	27.99
863.896	79.19
864.07	-58.03
864.244	38.23
864.418	9.56
864.592	50.52
864.766	23.89
864.939	-12.97
865.113	-23.21
865.287	81.24
865.461	-27.31
865.634	-6.83
865.808	-33.45
865.982	-8.87
866.156	-12.97
866.329	-90.79
866.503	-0.68
866.676	126.29
866.85	93.52
867.024	-76.46
867.197	83.28
867.371	34.13
867.544	-23.21
867.718	-72.36
867.891	122.2
868.065	-27.31
868.238	-0.68
868.412	54.61
868.585	56.66
868.759	21.84
868.932	-25.26
869.105	-80.55
869.279	42.32
869.452	-35.5
869.625	120.15
869.799	-25.26
869.972	-29.35
870.145	-33.45
870.319	114
870.492	54.61
870.665	-88.75
870.838	-25.26
871.011	-125.61
871.185	13.65
871.358	-17.07
871.531	46.42
871.704	1.37
871.877	5.46
872.05	15.7
872.223	7.51
872.396	99.67
872.569	101.72
872.742	-47.79
872.915	54.61
873.088	-25.26
873.261	21.84
873.434	89.43
873.607	-2.73
873.78	109.91
873.953	-39.59
874.126	54.61
874.299	-4.78
874.471	-23.21
874.644	-72.36
874.817	21.84
874.99	130.39
875.163	34.13
875.335	85.33
875.508	64.85
875.681	36.18
875.853	21.84
876.026	38.23
876.199	136.53
876.371	-27.31
876.544	5.46
876.717	-21.16
876.889	-10.92
877.062	87.38
877.234	-37.55
877.407	-21.16
877.579	81.24
877.752	44.37
877.924	103.76
878.097	30.04
878.269	-15.02
878.442	5.46
878.614	40.28
878.786	38.23
878.959	73.04
879.131	111.96
879.303	-64.17
879.476	1.37
879.648	169.3
879.82	-68.27
879.993	46.42
880.165	42.32
880.337	-60.07
880.509	9.56
880.681	1.37
880.854	-68.27
881.026	87.38
881.198	224.59
881.37	52.56
881.542	34.13
881.714	3.41
881.886	52.56
882.058	38.23
882.23	11.61
882.402	19.8
882.574	50.52
882.746	120.15
882.918	109.91
883.09	87.38
883.262	44.37
883.434	46.42
883.606	-90.79
883.778	-105.13
883.95	122.2
884.122	19.8
884.293	68.95
884.465	9.56
884.637	124.24
884.809	-41.64
884.98	54.61
885.152	111.96
885.324	134.48
885.496	-33.45
885.667	-10.92
885.839	-47.79
886.011	146.77
886.182	109.91
886.354	40.28
886.525	38.23
886.697	-2.73
886.869	-2.73
887.04	25.94
887.212	118.1
887.383	146.77
887.555	27.99
887.726	3.41
887.897	-27.31
888.069	73.04
888.24	64.85
888.412	-8.87
888.583	-0.68
888.754	1.37
888.926	-139.94
889.097	48.47
889.268	-107.18
889.44	21.84
889.611	-74.41
889.782	-4.78
889.953	-58.03
890.125	114
890.296	-53.93
890.467	19.8
890.638	3.41
890.809	-4.78
890.98	-19.11
891.151	93.52
891.323	107.86
891.494	42.32
891.665	3.41
891.836	-80.55
892.007	101.72
892.178	114
892.349	5.46
892.52	36.18
892.691	3.41
892.862	19.8
893.032	-43.69
893.203	1.37
893.374	62.8
893.545	109.91
893.716	-58.03
893.887	99.67
894.057	-55.98
894.228	75.09
894.399	-15.02
894.57	75.09
894.74	71
894.911	-6.83
895.082	-35.5
895.253	38.23
895.423	-25.26
895.594	54.61
895.764	25.94
895.935	-19.11
896.106	126.29
896.276	-17.07
896.447	46.42
896.617	5.46
896.788	-129.7
896.958	-33.45
897.129	60.76
897.299	-21.16
897.47	116.05
897.64	89.43
897.81	-39.59
897.981	95.57
898.151	-82.6
898.322	23.89
898.492	83.28
898.662	15.7
898.832	15.7
899.003	-35.5
899.173	-23.21
899.343	-10.92
899.513	13.65
