Data from USB4F104151__61__09-29-05-597.txt Node

Date: Wed Feb 26 09:29:05 EST 2025
User: louis
Spectrometer: USB4F10415
Trigger mode: 4
Integration Time (sec): 1.000000E-1
Scans to average: 1
Electric dark correction enabled: true
Nonlinearity correction enabled: false
Boxcar width: 0
XAxis mode: Wavelengths
Number of Pixels in Spectrum: 3648
>>>>>Begin Spectral Data<<<<<
178.204	-378.19
178.424	-378.19
178.644	-378.19
178.864	-324.94
179.084	-300.37
179.304	33.45
179.524	-75.09
179.744	-30.04
179.964	6.83
180.184	76.46
180.404	76.46
180.624	-40.28
180.844	-38.23
181.064	-44.37
181.283	4.78
181.503	6.83
181.723	23.21
181.943	-81.24
182.163	119.46
182.383	19.11
182.602	148.14
182.822	68.27
183.042	105.13
183.262	0.68
183.482	10.92
183.701	51.88
183.921	148.14
184.141	-1.37
184.361	125.61
184.58	35.5
184.8	74.41
185.02	8.87
185.239	119.46
185.459	92.84
185.679	68.27
185.898	-38.23
186.118	64.17
186.338	47.79
186.557	76.46
186.777	-36.18
186.997	10.92
187.216	27.31
187.436	109.22
187.655	53.93
187.875	94.89
188.095	10.92
188.314	139.94
188.534	68.27
188.753	-36.18
188.973	76.46
189.192	234.15
189.412	-44.37
189.631	10.92
189.851	105.13
190.07	223.91
190.29	-7.51
190.509	-23.89
190.729	-23.89
190.948	94.89
191.168	252.58
191.387	-9.56
191.607	47.79
191.826	51.88
192.045	90.79
192.265	72.36
192.484	166.57
192.704	31.4
192.923	84.65
193.142	141.99
193.362	27.31
193.581	119.46
193.8	74.41
194.02	27.31
194.239	19.11
194.458	94.89
194.678	-13.65
194.897	47.79
195.116	74.41
195.335	68.27
195.555	45.74
195.774	-73.04
195.993	107.18
196.212	35.5
196.432	25.26
196.651	-15.7
196.87	80.55
197.089	281.25
197.308	125.61
197.528	39.59
197.747	-3.41
197.966	43.69
198.185	127.66
198.404	74.41
198.623	111.27
198.842	168.62
199.062	117.42
199.281	82.6
199.5	98.99
199.719	43.69
199.938	55.98
200.157	121.51
200.376	121.51
200.595	121.51
200.814	64.17
201.033	-21.85
201.252	70.31
201.471	131.75
201.69	55.98
201.909	37.55
202.128	180.9
202.347	55.98
202.566	-13.65
202.785	2.73
203.004	15.02
203.223	225.96
203.442	74.41
203.661	-79.19
203.879	84.65
204.098	78.51
204.317	-21.85
204.536	137.9
204.755	39.59
204.974	144.04
205.193	2.73
205.411	137.9
205.63	127.66
205.849	31.4
206.068	23.21
206.287	-60.76
206.505	172.71
206.724	-3.41
206.943	-7.51
207.162	39.59
207.381	27.31
207.599	117.42
207.818	53.93
208.037	-103.76
208.255	82.6
208.474	53.93
208.693	10.92
208.911	62.12
209.13	96.94
209.349	19.11
209.567	74.41
209.786	117.42
210.005	117.42
210.223	109.22
210.442	-15.7
210.661	10.92
210.879	70.31
211.098	23.21
211.316	41.64
211.535	137.9
211.753	60.07
211.972	127.66
212.191	23.21
212.409	62.12
212.628	133.8
212.846	-81.24
213.065	41.64
213.283	156.33
213.502	70.31
213.72	23.21
213.938	72.36
214.157	58.03
214.375	109.22
214.594	37.55
214.812	60.07
215.031	55.98
215.249	-5.46
215.467	-5.46
215.686	29.35
215.904	51.88
216.122	0.68
216.341	137.9
216.559	127.66
216.778	47.79
216.996	141.99
217.214	55.98
217.432	43.69
217.651	-54.61
217.869	2.73
218.087	-30.04
218.306	-58.71
218.524	19.11
218.742	72.36
218.96	49.83
219.179	-15.7
219.397	-38.23
219.615	230.06
219.833	135.85
220.051	23.21
220.27	141.99
220.488	55.98
220.706	164.52
220.924	23.21
221.142	-19.8
221.36	-30.04
221.578	68.27
221.796	-15.7
222.015	55.98
222.233	92.84
222.451	189.1
222.669	-30.04
222.887	33.45
223.105	82.6
223.323	88.75
223.541	-11.61
223.759	103.08
223.977	113.32
224.195	131.75
224.413	51.88
224.631	25.26
224.849	162.47
225.067	203.43
225.285	8.87
225.503	80.55
225.721	-21.85
225.939	78.51
226.157	58.03
226.375	207.53
226.592	60.07
226.81	78.51
227.028	111.27
227.246	121.51
227.464	129.7
227.682	96.94
227.9	55.98
228.117	74.41
228.335	141.99
228.553	43.69
228.771	29.35
228.989	51.88
229.206	68.27
229.424	29.35
229.642	-19.8
229.86	17.07
230.077	101.03
230.295	96.94
230.513	166.57
230.731	129.7
230.948	164.52
231.166	182.95
231.384	0.68
231.601	-17.75
231.819	123.56
232.037	15.02
232.254	19.11
232.472	33.45
232.689	-3.41
232.907	133.8
233.125	-21.85
233.342	-36.18
233.56	-9.56
233.777	6.83
233.995	10.92
234.213	166.57
234.43	19.11
234.648	103.08
234.865	84.65
235.083	70.31
235.3	94.89
235.518	82.6
235.735	209.58
235.953	107.18
236.17	72.36
236.388	76.46
236.605	41.64
236.822	139.94
237.04	158.38
237.257	80.55
237.475	-23.89
237.692	53.93
237.909	94.89
238.127	43.69
238.344	88.75
238.562	19.11
238.779	-62.8
238.996	12.97
239.214	-3.41
239.431	176.81
239.648	10.92
239.865	123.56
240.083	88.75
240.3	17.07
240.517	21.16
240.735	72.36
240.952	84.65
241.169	51.88
241.386	33.45
241.603	4.78
241.821	-15.7
242.038	125.61
242.255	80.55
242.472	19.11
242.689	82.6
242.907	101.03
243.124	66.22
243.341	88.75
243.558	29.35
243.775	-5.46
243.992	-85.33
244.209	68.27
244.426	232.1
244.643	31.4
244.86	-30.04
245.078	92.84
245.295	101.03
245.512	23.21
245.729	-54.61
245.946	8.87
246.163	41.64
246.38	8.87
246.597	-17.75
246.814	25.26
247.031	125.61
247.248	10.92
247.464	60.07
247.681	133.8
247.898	70.31
248.115	66.22
248.332	86.7
248.549	96.94
248.766	148.14
248.983	98.99
249.2	62.12
249.417	68.27
249.633	70.31
249.85	76.46
250.067	15.02
250.284	-36.18
250.501	107.18
250.717	76.46
250.934	43.69
251.151	58.03
251.368	76.46
251.585	27.31
251.801	68.27
252.018	-40.28
252.235	72.36
252.451	60.07
252.668	43.69
252.885	84.65
253.102	39.59
253.318	27.31
253.535	8.87
253.752	62.12
253.968	39.59
254.185	-46.42
254.401	39.59
254.618	68.27
254.835	49.83
255.051	98.99
255.268	96.94
255.484	121.51
255.701	6.83
255.917	51.88
256.134	-36.18
256.351	19.11
256.567	-9.56
256.784	55.98
257	0.68
257.217	92.84
257.433	119.46
257.65	-25.94
257.866	223.91
258.082	-9.56
258.299	39.59
258.515	0.68
258.732	17.07
258.948	-32.08
259.165	-1.37
259.381	-81.24
259.597	29.35
259.814	-30.04
260.03	68.27
260.246	6.83
260.463	129.7
260.679	123.56
260.895	2.73
261.112	70.31
261.328	39.59
261.544	-36.18
261.761	162.47
261.977	55.98
262.193	-68.95
262.409	105.13
262.626	146.09
262.842	39.59
263.058	-46.42
263.274	78.51
263.49	141.99
263.707	55.98
263.923	195.24
264.139	19.11
264.355	39.59
264.571	96.94
264.787	125.61
265.004	62.12
265.22	23.21
265.436	-44.37
265.652	74.41
265.868	21.16
266.084	-50.52
266.3	80.55
266.516	-44.37
266.732	66.22
266.948	109.22
267.164	43.69
267.38	103.08
267.596	60.07
267.812	172.71
268.028	107.18
268.244	15.02
268.46	101.03
268.676	39.59
268.892	58.03
269.108	43.69
269.324	-42.32
269.54	23.21
269.756	119.46
269.972	-25.94
270.188	17.07
270.403	-13.65
270.619	21.16
270.835	101.03
271.051	23.21
271.267	-66.9
271.483	6.83
271.698	60.07
271.914	107.18
272.13	84.65
272.346	58.03
272.562	-21.85
272.777	195.24
272.993	19.11
273.209	-21.85
273.425	8.87
273.64	-38.23
273.856	125.61
274.072	15.02
274.287	-3.41
274.503	98.99
274.719	96.94
274.934	-5.46
275.15	-87.38
275.366	39.59
275.581	21.16
275.797	-1.37
276.012	107.18
276.228	78.51
276.444	109.22
276.659	103.08
276.875	39.59
277.09	0.68
277.306	4.78
277.521	62.12
277.737	115.37
277.952	154.28
278.168	41.64
278.383	35.5
278.599	0.68
278.814	105.13
279.03	68.27
279.245	168.62
279.461	39.59
279.676	47.79
279.892	2.73
280.107	-34.13
280.322	10.92
280.538	4.78
280.753	-13.65
280.969	27.31
281.184	27.31
281.399	144.04
281.615	17.07
281.83	101.03
282.045	-30.04
282.26	-11.61
282.476	2.73
282.691	68.27
282.906	-58.71
283.122	27.31
283.337	23.21
283.552	86.7
283.767	60.07
283.983	62.12
284.198	-15.7
284.413	74.41
284.628	-44.37
284.843	84.65
285.058	82.6
285.274	64.17
285.489	-56.66
285.704	158.38
285.919	-1.37
286.134	0.68
286.349	98.99
286.564	51.88
286.779	193.19
286.995	4.78
287.21	17.07
287.425	47.79
287.64	-3.41
287.855	21.16
288.07	-48.47
288.285	105.13
288.5	158.38
288.715	94.89
288.93	-19.8
289.145	-62.8
289.36	103.08
289.575	-32.08
289.79	125.61
290.004	-71
290.219	80.55
290.434	31.4
290.649	-9.56
290.864	19.11
291.079	60.07
291.294	27.31
291.509	60.07
291.724	15.02
291.938	121.51
292.153	133.8
292.368	60.07
292.583	27.31
292.798	84.65
293.012	158.38
293.227	39.59
293.442	-17.75
293.657	107.18
293.871	82.6
294.086	107.18
294.301	168.62
294.516	146.09
294.73	25.26
294.945	-21.85
295.16	88.75
295.374	92.84
295.589	58.03
295.804	17.07
296.018	41.64
296.233	141.99
296.447	49.83
296.662	-21.85
296.877	107.18
297.091	107.18
297.306	0.68
297.52	96.94
297.735	92.84
297.949	45.74
298.164	12.97
298.378	64.17
298.593	6.83
298.807	82.6
299.022	51.88
299.236	146.09
299.451	80.55
299.665	86.7
299.88	17.07
300.094	0.68
300.309	25.26
300.523	68.27
300.737	10.92
300.952	23.21
301.166	70.31
301.381	-30.04
301.595	-9.56
301.809	58.03
302.024	47.79
302.238	-11.61
302.452	101.03
302.667	51.88
302.881	117.42
303.095	101.03
303.309	-15.7
303.524	0.68
303.738	-30.04
303.952	-30.04
304.166	60.07
304.381	-107.86
304.595	84.65
304.809	10.92
305.023	6.83
305.237	33.45
305.452	58.03
305.666	88.75
305.88	70.31
306.094	17.07
306.308	33.45
306.522	55.98
306.736	66.22
306.95	180.9
307.164	78.51
307.379	78.51
307.593	152.23
307.807	21.16
308.021	144.04
308.235	-1.37
308.449	-15.7
308.663	31.4
308.877	133.8
309.091	137.9
309.305	-46.42
309.519	-3.41
309.733	90.79
309.947	-32.08
310.161	2.73
310.374	68.27
310.588	111.27
310.802	10.92
311.016	12.97
311.23	78.51
311.444	17.07
311.658	17.07
311.872	133.8
312.085	123.56
312.299	146.09
312.513	113.32
312.727	23.21
312.941	-5.46
313.154	35.5
313.368	66.22
313.582	27.31
313.796	47.79
314.009	80.55
314.223	72.36
314.437	35.5
314.651	98.99
314.864	35.5
315.078	68.27
315.292	-5.46
315.505	45.74
315.719	31.4
315.933	12.97
316.146	8.87
316.36	-34.13
316.573	139.94
316.787	62.12
317.001	43.69
317.214	10.92
317.428	31.4
317.641	-13.65
317.855	4.78
318.068	23.21
318.282	15.02
318.495	133.8
318.709	35.5
318.922	19.11
319.136	178.86
319.349	117.42
319.563	-52.56
319.776	55.98
319.99	-73.04
320.203	82.6
320.417	121.51
320.63	107.18
320.843	164.52
321.057	19.11
321.27	103.08
321.483	137.9
321.697	109.22
321.91	39.59
322.124	15.02
322.337	125.61
322.55	0.68
322.763	62.12
322.977	76.46
323.19	23.21
323.403	137.9
323.617	133.8
323.83	72.36
324.043	27.31
324.256	51.88
324.469	-54.61
324.683	129.7
324.896	0.68
325.109	23.21
325.322	8.87
325.535	96.94
325.748	137.9
325.962	51.88
326.175	80.55
326.388	72.36
326.601	150.18
326.814	27.31
327.027	117.42
327.24	127.66
327.453	-118.1
327.666	117.42
327.879	90.79
328.092	55.98
328.305	60.07
328.518	-9.56
328.731	-13.65
328.944	53.93
329.157	58.03
329.37	12.97
329.583	113.32
329.796	133.8
330.009	-93.52
330.222	12.97
330.435	96.94
330.648	53.93
330.861	64.17
331.073	23.21
331.286	129.7
331.499	31.4
331.712	-3.41
331.925	8.87
332.138	47.79
332.35	92.84
332.563	-71
332.776	103.08
332.989	-66.9
333.202	-62.8
333.414	41.64
333.627	-15.7
333.84	27.31
334.053	-13.65
334.265	55.98
334.478	29.35
334.691	33.45
334.903	72.36
335.116	-11.61
335.329	43.69
335.541	70.31
335.754	162.47
335.966	-36.18
336.179	98.99
336.392	80.55
336.604	51.88
336.817	146.09
337.029	129.7
337.242	43.69
337.454	51.88
337.667	27.31
337.88	152.23
338.092	33.45
338.305	98.99
338.517	6.83
338.729	64.17
338.942	199.34
339.154	-13.65
339.367	10.92
339.579	98.99
339.792	8.87
340.004	76.46
340.217	62.12
340.429	-36.18
340.641	8.87
340.854	23.21
341.066	21.16
341.278	131.75
341.491	203.43
341.703	10.92
341.915	-19.8
342.128	146.09
342.34	74.41
342.552	31.4
342.764	39.59
342.977	51.88
343.189	76.46
343.401	98.99
343.613	0.68
343.826	43.69
344.038	-36.18
344.25	27.31
344.462	4.78
344.674	60.07
344.886	60.07
345.099	6.83
345.311	113.32
345.523	19.11
345.735	-48.47
345.947	27.31
346.159	90.79
346.371	35.5
346.583	-13.65
346.795	129.7
347.007	-15.7
347.219	66.22
347.431	62.12
347.643	49.83
347.855	43.69
348.067	127.66
348.279	-50.52
348.491	-73.04
348.703	107.18
348.915	31.4
349.127	-11.61
349.339	33.45
349.551	33.45
349.763	113.32
349.975	84.65
350.187	121.51
350.399	90.79
350.61	133.8
350.822	12.97
351.034	150.18
351.246	17.07
351.458	82.6
351.669	-5.46
351.881	117.42
352.093	117.42
352.305	105.13
352.517	10.92
352.728	148.14
352.94	115.37
353.152	33.45
353.363	-116.05
353.575	96.94
353.787	135.85
353.999	113.32
354.21	113.32
354.422	-73.04
354.633	-32.08
354.845	64.17
355.057	10.92
355.268	101.03
355.48	78.51
355.692	27.31
355.903	17.07
356.115	-89.43
356.326	-58.71
356.538	187.05
356.749	105.13
356.961	43.69
357.172	80.55
357.384	-21.85
357.595	215.72
357.807	2.73
358.018	-25.94
358.23	60.07
358.441	166.57
358.653	92.84
358.864	27.31
359.075	-7.51
359.287	92.84
359.498	141.99
359.709	84.65
359.921	-5.46
360.132	23.21
360.344	78.51
360.555	-11.61
360.766	31.4
360.977	43.69
361.189	74.41
361.4	12.97
361.611	64.17
361.823	113.32
362.034	98.99
362.245	19.11
362.456	35.5
362.667	51.88
362.879	-25.94
363.09	25.26
363.301	90.79
363.512	15.02
363.723	55.98
363.935	0.68
364.146	113.32
364.357	51.88
364.568	82.6
364.779	15.02
364.99	53.93
365.201	41.64
365.412	135.85
365.623	-54.61
365.834	70.31
366.045	76.46
366.256	135.85
366.467	76.46
366.678	74.41
366.889	66.22
367.1	-23.89
367.311	123.56
367.522	-30.04
367.733	76.46
367.944	127.66
368.155	39.59
368.366	-23.89
368.577	170.66
368.788	111.27
368.999	-48.47
369.209	51.88
369.42	314.02
369.631	273.06
369.842	-7.51
370.053	76.46
370.264	98.99
370.474	-15.7
370.685	76.46
370.896	4.78
371.107	158.38
371.317	27.31
371.528	27.31
371.739	152.23
371.95	58.03
372.16	10.92
372.371	-50.52
372.582	33.45
372.792	27.31
373.003	92.84
373.214	76.46
373.424	94.89
373.635	-66.9
373.846	115.37
374.056	-17.75
374.267	72.36
374.477	27.31
374.688	68.27
374.898	80.55
375.109	-30.04
375.319	101.03
375.53	76.46
375.74	43.69
375.951	-79.19
376.161	35.5
376.372	68.27
376.582	17.07
376.793	-9.56
377.003	68.27
377.214	0.68
377.424	127.66
377.635	88.75
377.845	4.78
378.055	125.61
378.266	-66.9
378.476	51.88
378.686	182.95
378.897	92.84
379.107	137.9
379.317	137.9
379.528	25.26
379.738	-7.51
379.948	17.07
380.158	62.12
380.369	35.5
380.579	113.32
380.789	-7.51
380.999	76.46
381.21	125.61
381.42	205.48
381.63	-5.46
381.84	96.94
382.05	74.41
382.261	135.85
382.471	121.51
382.681	-25.94
382.891	53.93
383.101	64.17
383.311	-17.75
383.521	92.84
383.731	129.7
383.941	58.03
384.151	78.51
384.361	92.84
384.571	-19.8
384.781	27.31
384.991	160.42
385.201	137.9
385.411	96.94
385.621	86.7
385.831	76.46
386.041	88.75
386.251	90.79
386.461	72.36
386.671	45.74
386.881	19.11
387.091	88.75
387.301	139.94
387.511	88.75
387.72	47.79
387.93	70.31
388.14	-56.66
388.35	66.22
388.56	101.03
388.769	129.7
388.979	39.59
389.189	33.45
389.399	60.07
389.609	64.17
389.818	123.56
390.028	35.5
390.238	58.03
390.447	19.11
390.657	72.36
390.867	45.74
391.076	33.45
391.286	60.07
391.496	8.87
391.705	-27.99
391.915	162.47
392.125	84.65
392.334	-23.89
392.544	162.47
392.753	35.5
392.963	8.87
393.172	109.22
393.382	39.59
393.591	101.03
393.801	-9.56
394.01	125.61
394.22	84.65
394.429	51.88
394.639	19.11
394.848	101.03
395.058	137.9
395.267	-44.37
395.477	35.5
395.686	29.35
395.895	195.24
396.105	221.86
396.314	84.65
396.524	49.83
396.733	31.4
396.942	213.67
397.152	51.88
397.361	162.47
397.57	68.27
397.78	15.02
397.989	51.88
398.198	180.9
398.407	51.88
398.617	25.26
398.826	27.31
399.035	64.17
399.244	125.61
399.453	41.64
399.663	51.88
399.872	60.07
400.081	-42.32
400.29	152.23
400.499	-5.46
400.708	133.8
400.917	-1.37
401.127	45.74
401.336	21.16
401.545	170.66
401.754	78.51
401.963	103.08
402.172	-42.32
402.381	35.5
402.59	-54.61
402.799	12.97
403.008	117.42
403.217	98.99
403.426	39.59
403.635	-40.28
403.844	121.51
404.053	-38.23
404.262	58.03
404.471	195.24
404.68	105.13
404.888	31.4
405.097	-1.37
405.306	115.37
405.515	182.95
405.724	39.59
405.933	101.03
406.142	27.31
406.35	96.94
406.559	27.31
406.768	43.69
406.977	101.03
407.185	68.27
407.394	49.83
407.603	-15.7
407.812	86.7
408.02	80.55
408.229	101.03
408.438	68.27
408.646	25.26
408.855	51.88
409.064	-7.51
409.272	49.83
409.481	88.75
409.69	23.21
409.898	-64.85
410.107	68.27
410.315	141.99
410.524	29.35
410.733	51.88
410.941	105.13
411.15	66.22
411.358	92.84
411.567	207.53
411.775	35.5
411.984	-32.08
412.192	103.08
412.401	80.55
412.609	135.85
412.818	49.83
413.026	121.51
413.234	15.02
413.443	17.07
413.651	17.07
413.86	27.31
414.068	101.03
414.276	141.99
414.485	21.16
414.693	185
414.901	133.8
415.11	98.99
415.318	47.79
415.526	10.92
415.734	123.56
415.943	64.17
416.151	33.45
416.359	82.6
416.567	41.64
416.776	80.55
416.984	154.28
417.192	78.51
417.4	90.79
417.608	72.36
417.817	-15.7
418.025	133.8
418.233	168.62
418.441	43.69
418.649	17.07
418.857	84.65
419.065	121.51
419.273	27.31
419.481	12.97
419.689	41.64
419.897	-13.65
420.105	-83.28
420.313	107.18
420.521	135.85
420.729	146.09
420.937	76.46
421.145	33.45
421.353	55.98
421.561	150.18
421.769	25.26
421.977	0.68
422.185	141.99
422.393	37.55
422.601	121.51
422.809	90.79
423.017	49.83
423.224	74.41
423.432	119.46
423.64	51.88
423.848	195.24
424.056	17.07
424.263	121.51
424.471	47.79
424.679	123.56
424.887	-17.75
425.094	182.95
425.302	47.79
425.51	2.73
425.718	37.55
425.925	68.27
426.133	21.16
426.341	158.38
426.548	98.99
426.756	82.6
426.964	101.03
427.171	-50.52
427.379	141.99
427.586	82.6
427.794	105.13
428.001	131.75
428.209	117.42
428.417	150.18
428.624	111.27
428.832	88.75
429.039	158.38
429.247	101.03
429.454	101.03
429.662	164.52
429.869	107.18
430.076	123.56
430.284	172.71
430.491	164.52
430.699	80.55
430.906	125.61
431.114	107.18
431.321	125.61
431.528	172.71
431.736	92.84
431.943	92.84
432.15	162.47
432.358	178.86
432.565	230.06
432.772	47.79
432.979	78.51
433.187	219.82
433.394	199.34
433.601	105.13
433.808	203.43
434.016	156.33
434.223	246.44
434.43	211.62
434.637	303.78
434.844	244.39
435.052	223.91
435.259	230.06
435.466	232.1
435.673	199.34
435.88	305.83
436.087	311.97
436.294	244.39
436.501	346.79
436.708	271.01
436.915	336.55
437.122	352.93
437.329	172.71
437.537	268.97
437.743	395.94
437.95	363.17
438.157	332.45
438.364	354.98
438.571	320.17
438.778	375.46
438.985	418.47
439.192	459.43
439.399	420.52
439.606	320.17
439.813	557.73
440.02	551.59
440.227	494.24
440.433	518.82
440.64	496.29
440.847	436.9
441.054	535.2
441.261	649.89
441.467	539.3
441.674	524.96
441.881	709.28
442.088	527.01
442.294	584.35
442.501	746.14
442.708	684.7
442.914	744.1
443.121	783.01
443.328	723.62
443.534	850.59
443.741	817.82
443.948	778.91
444.154	909.98
444.361	957.08
444.568	971.42
444.774	965.28
444.981	807.58
445.187	973.47
445.394	1002.14
445.6	1018.52
445.807	1258.14
446.013	1114.78
446.22	1073.82
446.426	1153.69
446.633	1397.4
446.839	1411.73
447.046	1276.57
447.252	1516.18
447.459	1483.41
447.665	1499.8
447.871	1550.99
448.078	1618.58
448.284	1651.35
448.491	1878.67
448.697	1878.67
448.903	1966.73
449.11	1968.78
449.316	1911.44
449.522	2130.57
449.728	2220.68
449.935	2267.78
450.141	2243.21
450.347	2421.38
450.553	2351.75
450.76	2415.24
450.966	2628.23
451.172	2669.19
451.378	2804.35
451.584	2818.69
451.791	2960
451.997	3046.01
452.203	3299.96
452.409	3388.02
452.615	3388.02
452.821	3326.58
453.027	3324.54
453.233	3943.02
453.44	3598.96
453.646	3957.36
453.852	4135.53
454.058	4225.64
454.264	4371.05
454.47	4586.08
454.676	4598.37
454.882	5083.74
455.088	4819.55
455.294	5081.69
455.5	5481.05
455.705	5786.19
455.911	5745.23
456.117	5929.55
456.323	6249.04
456.529	6097.49
456.735	6677.06
456.941	6928.96
457.147	7002.69
457.352	7377.47
457.558	7381.56
457.764	8034.86
457.97	8165.93
458.176	8634.92
458.381	8860.2
458.587	9105.95
458.793	9382.43
458.999	9595.42
459.204	10615.3
459.41	10893.83
459.616	10777.09
459.821	11373.05
460.027	12050.93
460.233	12288.5
460.438	12507.63
460.644	13259.23
460.85	13269.47
461.055	13795.8
461.261	14332.37
461.466	14322.13
461.672	14567.88
461.878	16236.98
462.083	16116.15
462.289	16435.63
462.494	16935.34
462.7	17531.3
462.905	17506.72
463.111	18848.14
463.316	20009.34
463.522	20150.65
463.727	20717.93
463.932	21473.63
464.138	22430.04
464.343	23032.14
464.549	23173.45
464.754	25127.21
464.959	25506.09
465.165	26061.08
465.37	26007.84
465.575	26149.15
465.781	27924.74
465.986	28401.91
466.191	27799.81
466.397	28012.8
466.602	27664.64
466.807	28811.51
467.012	29376.75
467.218	30107.87
467.423	29855.97
467.628	30789.84
467.833	32610.49
468.038	32004.29
468.244	31344.84
468.449	33214.64
468.654	32458.94
468.859	32729.27
469.064	32575.67
469.269	31695.05
469.474	31801.54
469.679	32491.71
469.885	31725.77
470.09	32626.87
470.295	32499.9
470.5	31807.69
470.705	32172.22
470.91	31402.19
471.115	30722.26
471.32	31340.75
471.525	30982.35
471.73	30261.47
471.935	29872.35
472.139	28887.28
472.344	28903.67
472.549	28997.87
472.754	28319.99
472.959	27506.95
473.164	26206.49
473.369	26087.71
473.574	27291.91
473.778	26532.12
473.983	26245.4
474.188	25622.82
474.393	24164.67
474.598	24447.29
474.802	23281.99
475.007	23472.45
475.212	23077.19
475.417	22481.24
475.621	22022.49
475.826	21985.63
476.031	21344.61
476.235	20902.25
476.44	20992.36
476.645	20429.17
476.849	20066.68
477.054	19798.4
477.259	19054.98
477.463	19319.17
477.668	18659.73
477.872	18764.17
478.077	18227.6
478.282	17775
478.486	17709.47
478.691	17389.99
478.895	17168.8
479.1	17095.08
479.304	17105.32
479.509	16492.97
479.713	16617.9
479.918	16220.6
480.122	15608.25
480.326	16339.38
480.531	15829.43
480.735	15600.06
480.94	15438.27
481.144	16067
481.348	15055.3
481.553	15231.43
481.757	14705.1
481.961	15108.55
482.166	15063.49
482.37	14957
482.574	14592.46
482.778	14469.58
482.983	14682.57
483.187	14336.46
483.391	14377.42
483.595	14117.33
483.8	14000.6
484.004	13752.79
484.208	13961.69
484.412	13679.07
484.616	13287.9
484.821	13461.98
485.025	12900.84
485.229	13056.48
485.433	12906.98
485.637	12556.78
485.841	12513.77
486.045	12319.21
486.249	12388.85
486.453	11999.73
486.657	11979.25
486.861	11704.82
487.065	11401.72
487.269	11119.1
487.473	10859.01
487.677	11289.09
487.881	11067.91
488.085	10686.98
488.289	10369.55
488.493	10269.2
488.697	10347.02
488.901	10129.94
489.105	9984.53
489.309	9706.01
489.512	9536.03
489.716	9474.59
489.92	9271.84
490.124	9142.82
490.328	8993.31
490.531	8581.67
490.735	8598.06
490.939	8589.86
491.143	8227.37
491.346	8096.3
491.55	7969.33
491.754	7639.61
491.958	7850.55
492.161	7596.6
492.365	7506.49
492.569	7406.14
492.772	7246.4
492.976	7262.78
493.18	7227.96
493.383	6924.86
493.587	6967.87
493.79	6978.11
493.994	6601.29
494.197	6693.44
494.401	6672.96
494.605	6453.83
494.808	6562.37
495.012	6629.96
495.215	6457.93
495.419	6543.94
495.622	6034
495.825	6421.06
496.029	6271.56
496.232	6251.08
496.436	6158.92
496.639	6251.08
496.843	6052.43
497.046	6175.31
497.249	6378.06
497.453	6312.52
497.656	6089.29
497.859	6210.12
498.063	6451.78
498.266	6427.21
498.469	6056.53
498.673	6134.35
498.876	6267.47
499.079	6296.14
499.282	6146.64
499.485	6627.91
499.689	6464.07
499.892	6562.37
500.095	6484.55
500.298	6539.85
500.501	6488.65
500.705	6601.29
500.908	6629.96
501.111	6779.46
501.314	6894.15
501.517	6906.43
501.72	6949.44
501.923	6935.1
502.126	7037.5
502.329	7344.7
502.532	7209.53
502.735	7164.48
502.938	7301.69
503.141	7506.49
503.344	7449.15
503.547	7578.17
503.75	7561.78
503.953	7742
504.156	7854.64
504.359	8118.83
504.562	8059.44
504.765	8116.78
504.968	8190.51
505.17	8651.3
505.373	8460.84
505.576	8827.43
505.779	8792.61
505.982	8768.04
506.185	9390.62
506.387	9214.49
506.59	9415.19
506.793	9603.61
506.996	9820.69
507.198	9994.77
507.401	10011.15
507.604	10213.9
507.807	10705.42
508.009	10664.46
508.212	10826.25
508.415	11024.9
508.617	11375.1
508.82	11549.18
509.022	11764.22
509.225	12059.12
509.428	12399.09
509.63	12601.83
509.833	12700.14
510.035	13175.27
510.238	13486.56
510.44	13588.96
510.643	13849.05
510.845	14383.57
511.048	14457.29
511.25	14780.87
511.453	14899.66
511.655	15749.56
511.858	15802.81
512.06	16052.66
512.262	16441.78
512.465	16679.34
512.667	17256.87
512.87	17488.29
513.072	17562.01
513.274	18583.95
513.477	18772.36
513.679	19202.44
513.881	19630.46
514.084	19968.38
514.286	20175.22
514.488	20726.13
514.69	21475.68
514.893	21737.82
515.095	22182.23
515.297	22585.68
515.499	22917.45
515.701	23421.25
515.904	24412.47
516.106	24764.72
516.308	25071.92
516.51	25481.51
516.712	25930.01
516.914	26466.58
517.116	27490.57
517.318	27173.13
517.52	27894.02
517.722	28281.08
517.925	28979.44
518.127	29894.88
518.329	29978.85
518.531	30204.13
518.733	31506.63
518.935	31824.07
519.136	31877.32
519.338	32432.32
519.54	33005.75
519.742	33304.75
519.944	34230.43
520.146	34941.08
520.348	35102.87
520.55	35444.88
520.752	36266.11
520.954	36624.51
521.155	36503.68
521.357	37173.36
521.559	37890.15
521.761	38430.82
521.963	38656.09
522.164	38961.24
522.366	39348.31
522.568	39161.94
522.77	39506
522.971	40695.87
523.173	40081.48
523.375	40759.36
523.576	40802.36
523.778	40769.6
523.98	41533.49
524.181	41693.23
524.383	41246.77
524.584	41922.6
524.786	41766.96
524.988	41685.04
525.189	42049.58
525.391	42567.71
525.592	42528.8
525.794	42453.03
525.995	42192.93
526.197	42463.27
526.398	42049.58
526.6	42139.69
526.801	42092.58
527.003	42137.64
527.204	41930.79
527.406	42211.37
527.607	41461.81
527.808	42070.06
528.01	40962.11
528.211	40882.23
528.412	41449.52
528.614	40708.16
528.815	40140.87
529.016	40824.89
529.218	39616.59
529.419	39549.01
529.62	39207
529.822	38658.14
530.023	38565.98
530.224	38217.83
530.425	38068.33
530.626	36847.74
530.828	36925.56
531.029	37466.22
531.23	35901.57
531.431	35879.05
531.632	35854.47
531.833	35283.09
532.035	34756.76
532.236	34304.16
532.437	34281.63
532.638	33521.84
532.839	32874.68
533.04	33202.35
533.241	32256.19
533.442	32661.69
533.643	31942.85
533.844	31170.77
534.045	30970.07
534.246	30277.85
534.447	30134.49
534.648	29407.47
534.849	29186.29
535.05	28625.14
535.251	28446.97
535.451	27851.01
535.652	27941.12
535.853	27468.04
536.054	27021.58
536.255	26597.65
536.456	25858.34
536.657	26136.86
536.857	25471.27
537.058	25200.94
537.259	25022.76
537.46	24709.43
537.66	24082.75
537.861	23904.57
538.062	23454.02
538.263	23449.92
538.463	22917.45
538.664	22872.4
538.865	22460.76
539.065	22497.62
539.266	21674.34
539.466	21815.65
539.667	21105
539.868	21346.66
540.068	20633.97
540.269	20509.04
540.469	20312.44
540.67	20271.48
540.87	20103.54
541.071	19753.34
541.271	19349.89
541.472	19147.14
541.672	19108.23
541.873	18659.73
542.073	18213.27
542.274	18633.1
542.474	18289.04
542.675	18051.48
542.875	17969.56
543.075	17490.34
543.276	17476
543.476	17162.66
543.676	16826.79
543.877	16957.86
544.077	16695.72
544.277	16384.43
544.478	16402.86
544.678	16005.56
544.878	15782.33
545.078	15520.19
545.279	15579.58
545.479	15579.58
545.679	15325.63
545.879	15077.83
546.079	14770.63
546.28	14393.81
546.48	14338.51
546.68	14473.68
546.88	14139.86
547.08	13912.53
547.28	13812.18
547.48	13582.81
547.68	13556.19
547.88	13273.57
548.081	13251.04
548.281	13081.06
548.481	12634.6
548.681	12696.04
548.881	12399.09
549.081	12333.55
549.28	12206.58
549.48	12073.46
549.68	12067.31
549.88	11936.24
550.08	11487.74
550.28	11518.46
550.48	11069.95
550.68	11221.5
550.88	11051.52
551.08	10869.25
551.279	10725.89
551.479	10471.95
551.679	10295.82
551.879	10158.61
552.079	10418.7
552.278	10029.59
552.478	10013.2
552.678	9718.29
552.878	9652.76
553.077	9423.39
553.277	9198.11
553.477	9021.98
553.676	8874.53
553.876	8694.31
554.076	8753.7
554.275	8393.26
554.475	8456.75
554.674	8481.32
554.874	8213.04
555.074	7774.77
555.273	7952.95
555.473	7875.12
555.672	7563.83
555.872	7551.54
556.071	7285.31
556.271	7287.36
556.47	7070.27
556.67	6963.78
556.869	6894.15
557.068	6724.16
557.268	6562.37
557.467	6685.25
557.667	6650.44
557.866	6318.67
558.065	6169.16
558.265	6158.92
558.464	5966.42
558.663	5962.32
558.863	5911.12
559.062	5921.36
559.261	5714.52
559.461	5810.77
559.66	5413.46
559.859	5319.26
560.058	5364.31
560.258	5036.64
560.457	5266.01
560.656	5239.39
560.855	5112.41
561.054	4999.77
561.253	4926.05
561.453	4749.92
561.652	4840.03
561.851	4792.93
562.05	4590.18
562.249	4276.84
562.448	4516.45
562.647	4369
562.846	4287.08
563.045	4432.49
563.244	4199.02
563.443	4203.11
563.642	4010.61
563.841	4016.75
564.04	3836.53
564.239	3926.64
564.438	3867.25
564.637	3861.1
564.836	3676.79
565.035	3672.69
565.234	3619.44
565.432	3553.91
565.631	3545.72
565.83	3500.66
566.029	3365.5
566.228	3373.69
566.427	3273.34
566.625	3136.12
566.824	3103.36
567.023	3250.81
567.222	3086.97
567.42	3115.64
567.619	3054.2
567.818	3005.05
568.016	3025.53
568.215	2833.02
568.414	2892.41
568.612	2812.54
568.811	2808.45
569.01	2622.08
569.208	2704
569.407	2724.48
569.605	2753.15
569.804	2484.87
570.002	2560.64
570.201	2411.14
570.4	2499.2
570.598	2409.09
570.797	2361.99
570.995	2405
571.193	2275.98
571.392	2374.28
571.59	2259.59
571.789	2212.49
571.987	2351.75
572.186	2255.5
572.384	2007.69
572.582	2091.66
572.781	2103.95
572.979	1997.45
573.177	1979.02
573.376	1903.25
573.574	1940.11
573.772	1936.01
573.971	1735.31
574.169	1669.78
574.367	1858.19
574.565	1802.9
574.763	1813.13
574.962	1704.59
575.16	1682.06
575.358	1682.06
575.556	1628.82
575.754	1565.33
575.952	1483.41
576.151	1682.06
576.349	1563.28
576.547	1376.92
576.745	1565.33
576.943	1440.4
577.141	1505.94
577.339	1444.5
577.537	1405.59
577.735	1469.08
577.933	1428.12
578.131	1290.9
578.329	1360.53
578.527	1313.43
578.725	1411.73
578.923	1116.83
579.121	1280.66
579.319	1118.87
579.516	1141.4
579.714	1297.05
579.912	1202.84
580.11	1098.39
580.308	1067.67
580.506	1086.11
580.704	1090.2
580.901	1079.96
581.099	1168.02
581.297	1090.2
581.495	1090.2
581.692	905.88
581.89	1157.78
582.088	1020.57
582.285	1057.43
582.483	998.04
582.681	971.42
582.878	899.74
583.076	1057.43
583.274	877.21
583.471	1016.48
583.669	957.08
583.866	821.92
584.064	826.01
584.262	828.06
584.459	854.69
584.657	803.49
584.854	881.31
585.052	871.07
585.249	846.49
585.447	721.57
585.644	813.73
585.841	830.11
586.039	756.38
586.236	887.45
586.434	758.43
586.631	666.27
586.828	764.57
587.026	715.42
587.223	633.5
587.42	633.5
587.618	707.23
587.815	694.94
588.012	658.08
588.21	686.75
588.407	676.51
588.604	735.9
588.801	621.22
588.999	582.31
589.196	756.38
589.393	629.41
589.59	613.03
589.787	629.41
589.984	670.37
590.182	641.7
590.379	527.01
590.576	600.74
590.773	621.22
590.97	565.92
591.167	641.7
591.364	537.25
591.561	678.56
591.758	623.27
591.955	584.35
592.152	617.12
592.349	524.96
592.546	379.56
592.743	510.63
592.94	461.48
593.137	555.68
593.334	559.78
593.531	551.59
593.727	510.63
593.924	508.58
594.121	559.78
594.318	547.49
594.515	672.42
594.712	668.32
594.908	633.5
595.105	533.15
595.302	527.01
595.499	574.11
595.696	690.85
595.892	602.79
596.089	664.22
596.286	535.2
596.482	694.94
596.679	713.38
596.876	608.93
597.072	776.86
597.269	719.52
597.466	721.57
597.662	737.95
597.859	801.44
598.055	770.72
598.252	838.3
598.448	846.49
598.645	973.47
598.841	907.93
599.038	1008.28
599.234	1030.81
599.431	1137.31
599.627	1067.67
599.824	1059.48
600.02	1053.34
600.217	1188.5
600.413	1215.13
600.609	1247.9
600.806	1489.56
601.002	1350.29
601.198	1292.95
601.395	1475.22
601.591	1479.32
601.787	1542.8
601.984	1610.39
602.18	1755.79
602.376	1624.72
602.572	1794.7
602.769	1843.85
602.965	1944.2
603.161	1995.4
603.357	2083.47
603.553	2323.08
603.75	2081.42
603.946	2198.15
604.142	2396.81
604.338	2431.62
604.534	2376.33
604.73	2443.91
604.926	2546.31
605.122	2759.3
605.318	2722.43
605.514	2884.22
605.71	2919.04
605.906	3021.44
606.102	2976.38
606.298	3297.91
606.494	3451.51
606.69	3414.65
606.886	3529.33
607.082	3672.69
607.278	3582.58
607.474	3742.32
607.67	3975.79
607.866	3961.45
608.062	4192.87
608.257	4315.75
608.453	4348.52
608.649	4657.76
608.845	4571.75
609.041	4641.38
609.236	4989.53
609.432	4952.67
609.628	5200.48
609.824	5388.89
610.019	5239.39
610.215	5501.53
610.411	5757.52
610.606	5941.84
610.802	5984.85
610.998	6117.97
611.193	6314.57
611.389	6447.69
611.584	6505.03
611.78	6687.3
611.976	6867.52
612.171	7225.92
612.367	7365.18
612.562	7531.06
612.758	7629.37
612.953	7920.18
613.149	8131.12
613.344	8360.49
613.539	8694.31
613.735	8731.17
613.93	8913.44
614.126	9075.23
614.321	9423.39
614.517	9632.28
614.712	9986.58
614.907	10129.94
615.103	10496.52
615.298	10703.37
615.493	11061.76
615.688	11217.41
615.884	11911.67
616.079	11801.08
616.274	12114.42
616.47	12499.44
616.665	12833.25
616.86	12986.85
617.055	13345.25
617.25	13775.32
617.445	14139.86
617.641	14404.05
617.836	14672.33
618.031	14924.23
618.226	15598.01
618.421	15737.27
618.616	16415.15
618.811	16050.61
619.006	16755.11
619.201	17283.49
619.396	17441.18
619.591	17856.92
619.786	18411.92
619.981	18520.46
620.176	18960.78
620.371	19818.88
620.566	19829.12
620.761	20121.98
620.956	20816.24
621.151	20916.59
621.346	21766.49
621.541	21770.59
621.735	22597.97
621.93	22436.18
622.125	23474.5
622.32	23146.83
622.515	23580.99
622.709	24271.16
622.904	24983.85
623.099	25284.9
623.294	25602.34
623.488	25925.92
623.683	26499.35
623.878	26693.91
624.072	27476.23
624.267	28023.04
624.462	28102.91
624.656	28516.6
624.851	29032.69
625.046	29610.21
625.24	29776.1
625.435	30255.32
625.629	30746.84
625.824	31224.01
626.018	31643.85
626.213	31346.89
626.407	32422.08
626.602	32215.23
626.796	32895.16
626.991	33181.87
627.185	33302.7
627.38	33435.82
627.574	33869.99
627.768	33736.87
627.963	33999.01
628.157	34019.49
628.352	34689.18
628.546	34607.26
628.74	34463.9
628.935	34580.63
629.129	34533.53
629.323	34230.43
629.517	34302.11
629.712	34156.71
629.906	33958.05
630.1	33878.18
630.294	33626.28
630.489	32620.73
630.683	32749.75
630.877	31781.06
631.071	31531.21
631.265	30972.11
631.459	30349.53
631.653	29923.55
631.848	29294.83
632.042	28406.01
632.236	28217.6
632.43	27044.11
632.624	26564.89
632.818	25733.41
633.012	25008.43
633.206	24179
633.4	23939.39
633.594	22626.64
633.788	22110.55
633.982	21401.96
634.176	20654.45
634.369	19837.31
634.563	19169.67
634.757	18155.93
634.951	17840.54
635.145	16847.27
635.339	16480.69
635.533	15653.31
635.726	15008.2
635.92	14367.18
636.114	13668.83
636.308	13310.43
636.501	12919.27
636.695	12184.05
636.889	11721.21
637.083	11436.54
637.276	10953.22
637.47	10166.8
637.664	9968.15
637.857	9697.81
638.051	9382.43
638.244	8809
638.438	8514.09
638.632	8303.15
638.825	7807.54
639.019	7547.45
639.212	7201.34
639.406	7066.17
639.599	6781.51
639.793	6310.47
639.986	6156.88
640.18	5939.79
640.373	5720.66
640.567	5501.53
640.76	5315.16
640.954	5073.5
641.147	4883.04
641.34	4627.04
641.534	4637.28
641.727	4440.68
641.92	4164.2
642.114	4072.04
642.307	3945.07
642.5	3791.47
642.694	3654.26
642.887	3385.97
643.08	3394.17
643.273	3312.25
643.467	3060.35
643.66	2941.57
643.853	2751.1
644.046	2820.74
644.239	2714.24
644.432	2570.88
644.626	2298.5
644.819	2445.96
645.012	2245.26
645.205	2165.39
645.398	2171.53
645.591	2005.64
645.784	1903.25
645.977	1811.09
646.17	1790.61
646.363	1696.4
646.556	1497.75
646.749	1667.73
646.942	1518.23
647.135	1567.38
647.328	1440.4
647.521	1364.63
647.714	1335.96
647.907	1233.56
648.099	1192.6
648.292	1268.38
648.485	1110.68
648.678	1088.15
648.871	1051.29
649.064	1088.15
649.256	967.32
649.449	1018.52
649.642	826.01
649.835	803.49
650.027	877.21
650.22	797.34
650.413	721.57
650.605	832.16
650.798	750.24
650.991	686.75
651.183	629.41
651.376	662.18
651.568	621.22
651.761	576.16
651.954	627.36
652.146	500.39
652.339	653.98
652.531	631.46
652.724	520.87
652.916	481.96
653.109	441
653.301	608.93
653.494	514.72
653.686	400.04
653.879	520.87
654.071	486.05
654.263	420.52
654.456	451.24
654.648	484
654.84	412.32
655.033	365.22
655.225	512.67
655.417	379.56
655.61	547.49
655.802	375.46
655.994	375.46
656.186	232.1
656.379	387.75
656.571	332.45
656.763	324.26
656.955	264.87
657.148	320.17
657.34	393.89
657.532	268.97
657.724	283.3
657.916	346.79
658.108	338.6
658.3	350.89
658.492	357.03
658.684	150.18
658.876	301.73
659.068	240.29
659.26	148.14
659.452	185
659.644	240.29
659.836	252.58
660.028	254.63
660.22	164.52
660.412	223.91
660.604	189.1
660.796	291.49
660.988	256.68
661.18	189.1
661.372	207.53
661.563	232.1
661.755	174.76
661.947	121.51
662.139	174.76
662.331	152.23
662.522	162.47
662.714	123.56
662.906	88.75
663.097	115.37
663.289	82.6
663.481	62.12
663.673	162.47
663.864	133.8
664.056	199.34
664.247	125.61
664.439	240.29
664.631	141.99
664.822	191.14
665.014	199.34
665.205	158.38
665.397	88.75
665.588	166.57
665.78	156.33
665.971	152.23
666.163	133.8
666.354	146.09
666.546	98.99
666.737	129.7
666.929	88.75
667.12	139.94
667.311	144.04
667.503	72.36
667.694	180.9
667.885	152.23
668.077	174.76
668.268	-15.7
668.459	113.32
668.651	88.75
668.842	150.18
669.033	82.6
669.224	49.83
669.416	230.06
669.607	84.65
669.798	107.18
669.989	254.63
670.18	76.46
670.371	125.61
670.563	10.92
670.754	189.1
670.945	98.99
671.136	125.61
671.327	101.03
671.518	131.75
671.709	217.77
671.9	180.9
672.091	144.04
672.282	123.56
672.473	154.28
672.664	60.07
672.855	137.9
673.046	137.9
673.237	234.15
673.428	123.56
673.619	219.82
673.809	90.79
674	256.68
674.191	141.99
674.382	141.99
674.573	127.66
674.764	94.89
674.954	287.4
675.145	90.79
675.336	117.42
675.527	121.51
675.717	150.18
675.908	185
676.099	141.99
676.289	84.65
676.48	43.69
676.671	162.47
676.861	189.1
677.052	133.8
677.243	96.94
677.433	80.55
677.624	234.15
677.814	242.34
678.005	51.88
678.195	285.35
678.386	139.94
678.576	109.22
678.767	115.37
678.957	232.1
679.148	268.97
679.338	268.97
679.529	156.33
679.719	207.53
679.909	246.44
680.1	258.73
680.29	230.06
680.481	141.99
680.671	311.97
680.861	213.67
681.052	205.48
681.242	154.28
681.432	197.29
681.622	234.15
681.813	141.99
682.003	246.44
682.193	162.47
682.383	223.91
682.573	182.95
682.764	203.43
682.954	223.91
683.144	297.64
683.334	211.62
683.524	189.1
683.714	291.49
683.904	197.29
684.094	209.58
684.284	228.01
684.474	199.34
684.664	230.06
684.854	291.49
685.044	154.28
685.234	256.68
685.424	268.97
685.614	158.38
685.804	385.7
685.994	305.83
686.184	178.86
686.374	223.91
686.564	211.62
686.753	240.29
686.943	195.24
687.133	219.82
687.323	230.06
687.513	232.1
687.702	168.62
687.892	191.14
688.082	291.49
688.272	277.16
688.461	178.86
688.651	258.73
688.841	223.91
689.03	215.72
689.22	201.38
689.41	242.34
689.599	289.45
689.789	156.33
689.979	264.87
690.168	244.39
690.358	195.24
690.547	182.95
690.737	203.43
690.926	271.01
691.116	232.1
691.305	228.01
691.495	256.68
691.684	121.51
691.874	154.28
692.063	170.66
692.252	320.17
692.442	258.73
692.631	197.29
692.82	246.44
693.01	221.86
693.199	94.89
693.388	293.54
693.578	266.92
693.767	187.05
693.956	225.96
694.146	219.82
694.335	248.49
694.524	156.33
694.713	256.68
694.902	182.95
695.092	119.46
695.281	238.25
695.47	133.8
695.659	225.96
695.848	144.04
696.037	178.86
696.226	191.14
696.415	246.44
696.604	293.54
696.793	314.02
696.982	150.18
697.171	283.3
697.36	133.8
697.549	154.28
697.738	109.22
697.927	207.53
698.116	148.14
698.305	238.25
698.494	207.53
698.683	242.34
698.872	264.87
699.061	240.29
699.25	98.99
699.438	185
699.627	160.42
699.816	371.36
700.005	170.66
700.193	156.33
700.382	213.67
700.571	244.39
700.76	289.45
700.948	260.77
701.137	193.19
701.326	252.58
701.514	53.93
701.703	176.81
701.892	141.99
702.08	434.85
702.269	195.24
702.457	150.18
702.646	209.58
702.834	185
703.023	166.57
703.212	215.72
703.4	301.73
703.589	150.18
703.777	162.47
703.965	178.86
704.154	201.38
704.342	98.99
704.531	123.56
704.719	264.87
704.907	289.45
705.096	148.14
705.284	162.47
705.472	211.62
705.661	166.57
705.849	252.58
706.037	213.67
706.226	230.06
706.414	189.1
706.602	158.38
706.79	234.15
706.979	182.95
707.167	98.99
707.355	101.03
707.543	230.06
707.731	176.81
707.919	174.76
708.107	137.9
708.296	125.61
708.484	162.47
708.672	230.06
708.86	223.91
709.048	164.52
709.236	107.18
709.424	197.29
709.612	230.06
709.8	103.08
709.988	166.57
710.176	307.88
710.364	264.87
710.551	133.8
710.739	242.34
710.927	92.84
711.115	105.13
711.303	279.21
711.491	328.36
711.679	168.62
711.866	318.12
712.054	213.67
712.242	246.44
712.43	289.45
712.617	174.76
712.805	197.29
712.993	234.15
713.181	121.51
713.368	264.87
713.556	96.94
713.744	156.33
713.931	363.17
714.119	223.91
714.306	189.1
714.494	115.37
714.682	209.58
714.869	72.36
715.057	185
715.244	150.18
715.432	193.19
715.619	90.79
715.807	203.43
715.994	168.62
716.182	144.04
716.369	307.88
716.556	348.84
716.744	137.9
716.931	158.38
717.119	215.72
717.306	293.54
717.493	240.29
717.681	201.38
717.868	158.38
718.055	262.82
718.242	180.9
718.43	240.29
718.617	289.45
718.804	133.8
718.991	291.49
719.179	170.66
719.366	215.72
719.553	248.49
719.74	246.44
719.927	197.29
720.114	205.48
720.301	129.7
720.488	209.58
720.676	189.1
720.863	303.78
721.05	389.8
721.237	266.92
721.424	213.67
721.611	244.39
721.798	133.8
721.985	209.58
722.172	279.21
722.358	170.66
722.545	240.29
722.732	201.38
722.919	256.68
723.106	242.34
723.293	146.09
723.48	266.92
723.667	174.76
723.853	295.59
724.04	246.44
724.227	328.36
724.414	244.39
724.6	303.78
724.787	361.13
724.974	342.69
725.161	252.58
725.347	129.7
725.534	291.49
725.72	223.91
725.907	328.36
726.094	365.22
726.28	225.96
726.467	223.91
726.653	223.91
726.84	393.89
727.027	424.61
727.213	205.48
727.4	248.49
727.586	303.78
727.773	211.62
727.959	191.14
728.145	254.63
728.332	170.66
728.518	279.21
728.705	324.26
728.891	289.45
729.077	295.59
729.264	176.81
729.45	289.45
729.636	287.4
729.823	254.63
730.009	264.87
730.195	324.26
730.382	314.02
730.568	158.38
730.754	262.82
730.94	305.83
731.126	309.93
731.313	307.88
731.499	291.49
731.685	354.98
731.871	307.88
732.057	326.31
732.243	330.41
732.429	322.21
732.615	412.32
732.801	410.28
732.987	283.3
733.173	303.78
733.359	273.06
733.545	252.58
733.731	330.41
733.917	402.08
734.103	295.59
734.289	252.58
734.475	293.54
734.661	424.61
734.847	371.36
735.033	301.73
735.219	408.23
735.404	254.63
735.59	125.61
735.776	314.02
735.962	293.54
736.148	424.61
736.333	379.56
736.519	244.39
736.705	234.15
736.89	295.59
737.076	318.12
737.262	303.78
737.447	309.93
737.633	242.34
737.819	336.55
738.004	287.4
738.19	252.58
738.375	393.89
738.561	363.17
738.747	381.6
738.932	248.49
739.118	506.53
739.303	367.27
739.489	365.22
739.674	211.62
739.859	217.77
740.045	273.06
740.23	309.93
740.416	187.05
740.601	314.02
740.786	297.64
740.972	273.06
741.157	256.68
741.342	268.97
741.528	223.91
741.713	369.32
741.898	260.77
742.084	352.93
742.269	342.69
742.454	295.59
742.639	275.11
742.824	352.93
743.01	377.51
743.195	416.42
743.38	301.73
743.565	404.13
743.75	375.46
743.935	445.09
744.12	273.06
744.305	281.25
744.49	228.01
744.675	228.01
744.86	283.3
745.045	219.82
745.23	297.64
745.415	309.93
745.6	414.37
745.785	242.34
745.97	350.89
746.155	318.12
746.34	240.29
746.525	246.44
746.71	402.08
746.895	154.28
747.079	244.39
747.264	279.21
747.449	262.82
747.634	371.36
747.819	328.36
748.003	264.87
748.188	197.29
748.373	303.78
748.557	295.59
748.742	232.1
748.927	322.21
749.111	285.35
749.296	320.17
749.481	363.17
749.665	248.49
749.85	211.62
750.034	248.49
750.219	287.4
750.404	289.45
750.588	225.96
750.773	268.97
750.957	297.64
751.141	199.34
751.326	213.67
751.51	273.06
751.695	285.35
751.879	178.86
752.064	279.21
752.248	178.86
752.432	357.03
752.617	289.45
752.801	244.39
752.985	281.25
753.17	279.21
753.354	225.96
753.538	320.17
753.722	244.39
753.907	170.66
754.091	107.18
754.275	217.77
754.459	182.95
754.643	187.05
754.828	137.9
755.012	305.83
755.196	162.47
755.38	205.48
755.564	174.76
755.748	129.7
755.932	191.14
756.116	268.97
756.3	277.16
756.484	207.53
756.668	275.11
756.852	121.51
757.036	236.2
757.22	223.91
757.404	127.66
757.588	172.71
757.772	230.06
757.956	182.95
758.14	289.45
758.323	105.13
758.507	133.8
758.691	141.99
758.875	223.91
759.059	285.35
759.242	72.36
759.426	191.14
759.61	158.38
759.794	66.22
759.977	344.74
760.161	332.45
760.345	246.44
760.528	228.01
760.712	152.23
760.895	164.52
761.079	172.71
761.263	141.99
761.446	217.77
761.63	119.46
761.813	191.14
761.997	101.03
762.18	178.86
762.364	234.15
762.547	109.22
762.731	160.42
762.914	187.05
763.098	72.36
763.281	76.46
763.464	148.14
763.648	211.62
763.831	141.99
764.015	92.84
764.198	146.09
764.381	88.75
764.564	107.18
764.748	178.86
764.931	127.66
765.114	107.18
765.297	201.38
765.481	109.22
765.664	98.99
765.847	66.22
766.03	131.75
766.213	-3.41
766.397	170.66
766.58	123.56
766.763	209.58
766.946	125.61
767.129	70.31
767.312	82.6
767.495	107.18
767.678	117.42
767.861	197.29
768.044	187.05
768.227	146.09
768.41	96.94
768.593	82.6
768.776	129.7
768.959	66.22
769.142	203.43
769.324	55.98
769.507	125.61
769.69	133.8
769.873	58.03
770.056	246.44
770.239	129.7
770.421	201.38
770.604	133.8
770.787	64.17
770.97	154.28
771.152	101.03
771.335	201.38
771.518	117.42
771.7	129.7
771.883	191.14
772.066	17.07
772.248	125.61
772.431	256.68
772.613	191.14
772.796	53.93
772.978	121.51
773.161	182.95
773.343	55.98
773.526	60.07
773.708	15.02
773.891	4.78
774.073	121.51
774.256	101.03
774.438	156.33
774.621	125.61
774.803	164.52
774.985	98.99
775.168	195.24
775.35	109.22
775.532	105.13
775.715	-3.41
775.897	121.51
776.079	109.22
776.261	115.37
776.444	154.28
776.626	101.03
776.808	154.28
776.99	-32.08
777.173	35.5
777.355	103.08
777.537	68.27
777.719	111.27
777.901	60.07
778.083	17.07
778.265	-5.46
778.447	109.22
778.629	35.5
778.811	47.79
778.993	219.82
779.175	98.99
779.357	39.59
779.539	-9.56
779.721	60.07
779.903	49.83
780.085	47.79
780.267	133.8
780.449	45.74
780.631	121.51
780.812	150.18
780.994	-23.89
781.176	86.7
781.358	98.99
781.54	80.55
781.721	82.6
781.903	148.14
782.085	-40.28
782.267	141.99
782.448	-30.04
782.63	74.41
782.812	156.33
782.993	74.41
783.175	111.27
783.357	51.88
783.538	105.13
783.72	101.03
783.901	78.51
784.083	84.65
784.264	33.45
784.446	-91.48
784.627	25.26
784.809	88.75
784.99	-103.76
785.172	33.45
785.353	-9.56
785.535	78.51
785.716	-13.65
785.897	2.73
786.079	4.78
786.26	58.03
786.441	117.42
786.623	-7.51
786.804	31.4
786.985	47.79
787.167	43.69
787.348	6.83
787.529	64.17
787.71	207.53
787.891	74.41
788.073	33.45
788.254	-15.7
788.435	185
788.616	37.55
788.797	-7.51
788.978	-1.37
789.159	19.11
789.34	43.69
789.522	27.31
789.703	37.55
789.884	72.36
790.065	78.51
790.246	105.13
790.427	0.68
790.607	68.27
790.788	146.09
790.969	47.79
791.15	25.26
791.331	-46.42
791.512	-19.8
791.693	-9.56
791.874	29.35
792.054	211.62
792.235	117.42
792.416	25.26
792.597	-40.28
792.778	68.27
792.958	43.69
793.139	66.22
793.32	84.65
793.5	-13.65
793.681	139.94
793.862	113.32
794.042	29.35
794.223	-40.28
794.404	58.03
794.584	-7.51
794.765	-23.89
794.945	-5.46
795.126	43.69
795.306	94.89
795.487	-23.89
795.667	2.73
795.848	-5.46
796.028	-40.28
796.209	53.93
796.389	53.93
796.57	88.75
796.75	-34.13
796.93	76.46
797.111	-77.14
797.291	19.11
797.471	37.55
797.652	39.59
797.832	4.78
798.012	105.13
798.192	31.4
798.373	-99.67
798.553	-71
798.733	31.4
798.913	-21.85
799.093	-11.61
799.274	37.55
799.454	98.99
799.634	23.21
799.814	88.75
799.994	133.8
800.174	62.12
800.354	47.79
800.534	-38.23
800.714	58.03
800.894	-3.41
801.074	-83.28
801.254	-3.41
801.434	76.46
801.614	58.03
801.794	35.5
801.974	1624.72
802.154	64.17
802.334	70.31
802.514	-50.52
802.693	-11.61
802.873	60.07
803.053	103.08
803.233	80.55
803.413	-15.7
803.592	-36.18
803.772	-68.95
803.952	25.26
804.131	-21.85
804.311	68.27
804.491	43.69
804.67	64.17
804.85	-13.65
805.03	43.69
805.209	84.65
805.389	-11.61
805.568	8.87
805.748	-13.65
805.928	-5.46
806.107	-1.37
806.287	199.34
806.466	127.66
806.646	64.17
806.825	-30.04
807.004	6.83
807.184	19.11
807.363	35.5
807.543	51.88
807.722	-120.15
807.901	125.61
808.081	27.31
808.26	-171.35
808.439	-5.46
808.619	41.64
808.798	-3.41
808.977	35.5
809.156	78.51
809.336	2.73
809.515	137.9
809.694	6.83
809.873	55.98
810.052	25.26
810.231	92.84
810.411	90.79
810.59	76.46
810.769	-9.56
810.948	92.84
811.127	-89.43
811.306	19.11
811.485	-30.04
811.664	191.14
811.843	-50.52
812.022	31.4
812.201	6.83
812.38	-5.46
812.559	-91.48
812.737	68.27
812.916	-97.62
813.095	-36.18
813.274	55.98
813.453	55.98
813.632	58.03
813.811	45.74
813.989	-111.96
814.168	-46.42
814.347	-60.76
814.526	29.35
814.704	162.47
814.883	109.22
815.062	-5.46
815.24	119.46
815.419	-81.24
815.598	64.17
815.776	-144.72
815.955	-66.9
816.133	-66.9
816.312	21.16
816.49	49.83
816.669	17.07
816.847	-11.61
817.026	33.45
817.204	-23.89
817.383	6.83
817.561	12.97
817.74	15.02
817.918	125.61
818.097	-1.37
818.275	-7.51
818.453	15.02
818.632	-9.56
818.81	-62.8
818.988	-79.19
819.167	43.69
819.345	-32.08
819.523	-44.37
819.701	25.26
819.879	51.88
820.058	4.78
820.236	-36.18
820.414	0.68
820.592	-38.23
820.77	-5.46
820.948	-52.56
821.127	-11.61
821.305	49.83
821.483	-15.7
821.661	51.88
821.839	76.46
822.017	-81.24
822.195	25.26
822.373	154.28
822.551	-15.7
822.729	82.6
822.907	43.69
823.085	78.51
823.262	12.97
823.44	-3.41
823.618	-81.24
823.796	25.26
823.974	47.79
824.152	-23.89
824.329	58.03
824.507	15.02
824.685	43.69
824.863	-36.18
825.04	70.31
825.218	41.64
825.396	15.02
825.574	45.74
825.751	19.11
825.929	15.02
826.107	-40.28
826.284	-32.08
826.462	51.88
826.639	-9.56
826.817	-42.32
826.994	-30.04
827.172	-116.05
827.349	94.89
827.527	-73.04
827.704	-52.56
827.882	137.9
828.059	66.22
828.237	-13.65
828.414	55.98
828.591	-62.8
828.769	43.69
828.946	-5.46
829.124	60.07
829.301	141.99
829.478	-3.41
829.655	66.22
829.833	-34.13
830.01	-87.38
830.187	29.35
830.364	47.79
830.542	-9.56
830.719	123.56
830.896	33.45
831.073	-3.41
831.25	23.21
831.427	-5.46
831.604	0.68
831.782	-54.61
831.959	23.21
832.136	60.07
832.313	47.79
832.49	29.35
832.667	49.83
832.844	-25.94
833.021	76.46
833.198	55.98
833.374	37.55
833.551	-36.18
833.728	2.73
833.905	51.88
834.082	-54.61
834.259	8.87
834.436	47.79
834.612	10.92
834.789	27.31
834.966	-50.52
835.143	37.55
835.319	37.55
835.496	137.9
835.673	35.5
835.85	76.46
836.026	96.94
836.203	-9.56
836.38	10.92
836.556	2.73
836.733	31.4
836.909	119.46
837.086	-5.46
837.262	-48.47
837.439	-60.76
837.616	-85.33
837.792	-11.61
837.968	15.02
838.145	-48.47
838.321	66.22
838.498	68.27
838.674	133.8
838.851	41.64
839.027	49.83
839.203	49.83
839.38	19.11
839.556	-13.65
839.732	68.27
839.909	15.02
840.085	101.03
840.261	-75.09
840.437	0.68
840.614	-15.7
840.79	78.51
840.966	125.61
841.142	43.69
841.318	19.11
841.494	49.83
841.671	51.88
841.847	-32.08
842.023	-103.76
842.199	6.83
842.375	84.65
842.551	-103.76
842.727	-54.61
842.903	174.76
843.079	-46.42
843.255	37.55
843.431	21.16
843.607	80.55
843.783	-165.2
843.959	64.17
844.134	-11.61
844.31	113.32
844.486	-27.99
844.662	0.68
844.838	64.17
845.013	39.59
845.189	4.78
845.365	27.31
845.541	-25.94
845.716	17.07
845.892	90.79
846.068	60.07
846.244	-50.52
846.419	33.45
846.595	-19.8
846.77	60.07
846.946	27.31
847.122	-46.42
847.297	35.5
847.473	176.81
847.648	-48.47
847.824	55.98
847.999	-118.1
848.175	-79.19
848.35	51.88
848.526	74.41
848.701	84.65
848.876	101.03
849.052	19.11
849.227	-54.61
849.403	-5.46
849.578	27.31
849.753	19.11
849.929	41.64
850.104	-83.28
850.279	-19.8
850.454	84.65
850.63	58.03
850.805	-56.66
850.98	-5.46
851.155	-3.41
851.33	43.69
851.505	-103.76
851.681	115.37
851.856	-3.41
852.031	64.17
852.206	55.98
852.381	-21.85
852.556	-7.51
852.731	12.97
852.906	-1.37
853.081	41.64
853.256	101.03
853.431	-7.51
853.606	-25.94
853.781	-71
853.956	-97.62
854.131	27.31
854.305	-50.52
854.48	49.83
854.655	-85.33
854.83	-23.89
855.005	-30.04
855.18	66.22
855.354	29.35
855.529	43.69
855.704	-36.18
855.879	8.87
856.053	-46.42
856.228	-21.85
856.403	-71
856.577	-13.65
856.752	-32.08
856.926	-64.85
857.101	-15.7
857.276	-3.41
857.45	-3.41
857.625	2.73
857.799	27.31
857.974	4.78
858.148	-77.14
858.323	37.55
858.497	-30.04
858.672	-30.04
858.846	-38.23
859.02	96.94
859.195	-58.71
859.369	-23.89
859.543	-9.56
859.718	-11.61
859.892	98.99
860.066	15.02
860.241	17.07
860.415	-38.23
860.589	-5.46
860.763	-5.46
860.938	43.69
861.112	31.4
861.286	-60.76
861.46	-11.61
861.634	2.73
861.808	53.93
861.982	-62.8
862.157	-42.32
862.331	10.92
862.505	-3.41
862.679	-114
862.853	-130.39
863.027	-15.7
863.201	182.95
863.375	4.78
863.549	129.7
863.722	-15.7
863.896	-1.37
864.07	-50.52
864.244	-9.56
864.418	70.31
864.592	64.17
864.766	35.5
864.939	-30.04
865.113	-48.47
865.287	37.55
865.461	-1.37
865.634	47.79
865.808	2.73
865.982	10.92
866.156	-38.23
866.329	-91.48
866.503	58.03
866.676	-1.37
866.85	49.83
867.024	-5.46
867.197	64.17
867.371	58.03
867.544	43.69
867.718	-52.56
867.891	37.55
868.065	-30.04
868.238	41.64
868.412	6.83
868.585	98.99
868.759	-83.28
868.932	-17.75
869.105	-19.8
869.279	-19.8
869.452	-25.94
869.625	113.32
869.799	-15.7
869.972	-11.61
870.145	-21.85
870.319	68.27
870.492	-5.46
870.665	25.26
870.838	-3.41
871.011	-148.82
871.185	-1.37
871.358	-46.42
871.531	0.68
871.704	-25.94
871.877	27.31
872.05	-3.41
872.223	-62.8
872.396	35.5
872.569	66.22
872.742	-27.99
872.915	41.64
873.088	-13.65
873.261	-73.04
873.434	70.31
873.607	-34.13
873.78	68.27
873.953	-140.63
874.126	-30.04
874.299	41.64
874.471	-11.61
874.644	43.69
874.817	58.03
874.99	119.46
875.163	-48.47
875.335	31.4
875.508	-5.46
875.681	137.9
875.853	19.11
876.026	-21.85
876.199	64.17
876.371	-9.56
876.544	-27.99
876.717	86.7
876.889	-9.56
877.062	60.07
877.234	-71
877.407	-52.56
877.579	-3.41
877.752	27.31
877.924	47.79
878.097	90.79
878.269	41.64
878.442	74.41
878.614	76.46
878.786	60.07
878.959	-56.66
879.131	-21.85
879.303	-15.7
879.476	58.03
879.648	51.88
879.82	-5.46
879.993	-15.7
880.165	66.22
880.337	-75.09
880.509	2.73
880.681	-99.67
880.854	-38.23
881.026	58.03
881.198	244.39
881.37	-13.65
881.542	10.92
881.714	-19.8
881.886	19.11
882.058	37.55
882.23	-21.85
882.402	39.59
882.574	10.92
882.746	51.88
882.918	117.42
883.09	-5.46
883.262	-27.99
883.434	-34.13
883.606	-97.62
883.778	-30.04
883.95	84.65
884.122	-38.23
884.293	70.31
884.465	27.31
884.637	58.03
884.809	-62.8
884.98	41.64
885.152	27.31
885.324	80.55
885.496	-95.57
885.667	49.83
885.839	-56.66
886.011	35.5
886.182	58.03
886.354	41.64
886.525	6.83
886.697	37.55
886.869	6.83
887.04	-77.14
887.212	88.75
887.383	35.5
887.555	17.07
887.726	-21.85
887.897	-13.65
888.069	-5.46
888.24	66.22
888.412	-48.47
888.583	6.83
888.754	10.92
888.926	-99.67
889.097	-17.75
889.268	-89.43
889.44	60.07
889.611	-73.04
889.782	-89.43
889.953	-60.76
890.125	78.51
890.296	-50.52
890.467	-30.04
890.638	-71
890.809	-64.85
890.98	-32.08
891.151	86.7
891.323	131.75
891.494	-1.37
891.665	-13.65
891.836	-15.7
892.007	-40.28
892.178	-5.46
892.349	27.31
892.52	33.45
892.691	12.97
892.862	-34.13
893.032	-140.63
893.203	10.92
893.374	72.36
893.545	66.22
893.716	-54.61
893.887	76.46
894.057	-42.32
894.228	10.92
894.399	-46.42
894.57	39.59
894.74	64.17
894.911	41.64
895.082	-38.23
895.253	0.68
895.423	27.31
895.594	55.98
895.764	55.98
895.935	-54.61
896.106	-13.65
896.276	33.45
896.447	27.31
896.617	10.92
896.788	-81.24
896.958	-7.51
897.129	-58.71
897.299	-64.85
897.47	66.22
897.64	72.36
897.81	-54.61
897.981	35.5
898.151	-25.94
898.322	23.21
898.492	39.59
898.662	-42.32
898.832	27.31
899.003	-54.61
899.173	-7.51
899.343	39.59
899.513	-11.61
