Data from USB4F104151__70__09-29-35-295.txt Node

Date: Wed Feb 26 09:29:35 EST 2025
User: louis
Spectrometer: USB4F10415
Trigger mode: 4
Integration Time (sec): 1.000000E-1
Scans to average: 1
Electric dark correction enabled: true
Nonlinearity correction enabled: false
Boxcar width: 0
XAxis mode: Wavelengths
Number of Pixels in Spectrum: 3648
>>>>>Begin Spectral Data<<<<<
178.204	-249.34
178.424	-249.34
178.644	-249.34
178.864	-402.94
179.084	-339.45
179.304	-15.87
179.524	-7.68
179.744	-5.63
179.964	45.57
180.184	16.9
180.404	53.76
180.624	0.51
180.844	70.14
181.064	-118.27
181.283	27.14
181.503	-77.31
181.723	10.75
181.943	-103.93
182.163	125.44
182.383	-24.06
182.602	35.33
182.822	131.58
183.042	31.23
183.262	-50.69
183.482	74.24
183.701	41.47
183.921	94.72
184.141	4.61
184.361	147.97
184.58	-13.82
184.8	45.57
185.02	74.24
185.239	55.81
185.459	123.39
185.679	70.14
185.898	-83.45
186.118	117.25
186.338	53.76
186.557	125.44
186.777	-60.93
186.997	18.94
187.216	115.2
187.436	182.78
187.655	86.53
187.875	109.05
188.095	64
188.314	119.29
188.534	113.15
188.753	-77.31
188.973	72.19
189.192	162.3
189.412	4.61
189.631	111.1
189.851	96.77
190.07	186.88
190.29	-60.93
190.509	-26.11
190.729	10.75
190.948	133.63
191.168	260.6
191.387	100.86
191.607	37.38
191.826	61.95
192.045	72.19
192.265	43.52
192.484	49.66
192.704	-24.06
192.923	-17.92
193.142	197.12
193.362	162.3
193.581	180.73
193.8	59.9
194.02	123.39
194.239	68.09
194.458	86.53
194.678	10.75
194.897	8.7
195.116	14.85
195.335	45.57
195.555	74.24
195.774	31.23
195.993	109.05
196.212	53.76
196.432	57.86
196.651	18.94
196.87	37.38
197.089	248.32
197.308	72.19
197.528	135.68
197.747	37.38
197.966	57.86
198.185	143.87
198.404	20.99
198.623	117.25
198.842	156.16
199.062	78.33
199.281	78.33
199.5	57.86
199.719	104.96
199.938	68.09
200.157	82.43
200.376	100.86
200.595	152.06
200.814	82.43
201.033	47.62
201.252	186.88
201.471	6.66
201.69	29.18
201.909	0.51
202.128	66.05
202.347	57.86
202.566	84.48
202.785	-69.12
203.004	-48.64
203.223	203.26
203.442	35.33
203.661	-65.02
203.879	166.4
204.098	135.68
204.317	-42.5
204.536	10.75
204.755	109.05
204.974	39.42
205.193	72.19
205.411	109.05
205.63	96.77
205.849	107.01
206.068	57.86
206.287	-32.26
206.505	154.11
206.724	-9.73
206.943	20.99
207.162	37.38
207.381	88.57
207.599	25.09
207.818	98.81
208.037	-42.5
208.255	27.14
208.474	104.96
208.693	82.43
208.911	16.9
209.13	119.29
209.349	123.39
209.567	107.01
209.786	90.62
210.005	137.73
210.223	111.1
210.442	-124.41
210.661	102.91
210.879	-24.06
211.098	25.09
211.316	25.09
211.535	6.66
211.753	49.66
211.972	80.38
212.191	6.66
212.409	64
212.628	107.01
212.846	-46.59
213.065	74.24
213.283	113.15
213.502	55.81
213.72	98.81
213.938	107.01
214.157	29.18
214.375	145.92
214.594	55.81
214.812	61.95
215.031	20.99
215.249	86.53
215.467	2.56
215.686	18.94
215.904	154.11
216.122	27.14
216.341	115.2
216.559	18.94
216.778	82.43
216.996	72.19
217.214	-42.5
217.432	92.67
217.651	14.85
217.869	4.61
218.087	31.23
218.306	74.24
218.524	100.86
218.742	53.76
218.96	90.62
219.179	35.33
219.397	-1.54
219.615	270.84
219.833	104.96
220.051	-9.73
220.27	133.63
220.488	147.97
220.706	70.14
220.924	16.9
221.142	-22.02
221.36	59.9
221.578	31.23
221.796	76.29
222.015	66.05
222.233	12.8
222.451	139.77
222.669	-15.87
222.887	64
223.105	18.94
223.323	49.66
223.541	39.42
223.759	70.14
223.977	39.42
224.195	164.35
224.413	70.14
224.631	127.49
224.849	-3.58
225.067	145.92
225.285	8.7
225.503	131.58
225.721	-73.21
225.939	82.43
226.157	12.8
226.375	178.69
226.592	-32.26
226.81	45.57
227.028	74.24
227.246	166.4
227.464	119.29
227.682	184.83
227.9	113.15
228.117	98.81
228.335	20.99
228.553	80.38
228.771	53.76
228.989	-5.63
229.206	90.62
229.424	8.7
229.642	-1.54
229.86	-52.74
230.077	176.64
230.295	6.66
230.513	66.05
230.731	57.86
230.948	180.73
231.166	100.86
231.384	12.8
231.601	-26.11
231.819	172.54
232.037	45.57
232.254	-42.5
232.472	98.81
232.689	-11.78
232.907	137.73
233.125	16.9
233.342	43.52
233.56	16.9
233.777	-17.92
233.995	-3.58
234.213	100.86
234.43	107.01
234.648	20.99
234.865	-15.87
235.083	18.94
235.3	-73.21
235.518	92.67
235.735	164.35
235.953	117.25
236.17	39.42
236.388	-17.92
236.605	84.48
236.822	66.05
237.04	115.2
237.257	10.75
237.475	-32.26
237.692	57.86
237.909	127.49
238.127	-7.68
238.344	88.57
238.562	-19.97
238.779	12.8
238.996	-67.07
239.214	55.81
239.431	127.49
239.648	61.95
239.865	45.57
240.083	59.9
240.3	14.85
240.517	0.51
240.735	-11.78
240.952	68.09
241.169	-5.63
241.386	123.39
241.603	-32.26
241.821	-7.68
242.038	41.47
242.255	123.39
242.472	-19.97
242.689	100.86
242.907	113.15
243.124	35.33
243.341	20.99
243.558	33.28
243.775	-58.88
243.992	31.23
244.209	168.45
244.426	156.16
244.643	115.2
244.86	37.38
245.078	123.39
245.295	68.09
245.512	55.81
245.729	68.09
245.946	53.76
246.163	49.66
246.38	25.09
246.597	68.09
246.814	80.38
247.031	16.9
247.248	64
247.464	147.97
247.681	-7.68
247.898	33.28
248.115	68.09
248.332	-87.55
248.549	137.73
248.766	186.88
248.983	74.24
249.2	66.05
249.417	135.68
249.633	-17.92
249.85	47.62
250.067	80.38
250.284	14.85
250.501	94.72
250.717	66.05
250.934	-7.68
251.151	16.9
251.368	45.57
251.585	29.18
251.801	39.42
252.018	8.7
252.235	92.67
252.451	-44.54
252.668	102.91
252.885	80.38
253.102	57.86
253.318	82.43
253.535	10.75
253.752	-9.73
253.968	-3.58
254.185	-1.54
254.401	31.23
254.618	66.05
254.835	16.9
255.051	133.63
255.268	86.53
255.484	35.33
255.701	37.38
255.917	31.23
256.134	-40.45
256.351	68.09
256.567	10.75
256.784	-22.02
257	-30.21
257.217	147.97
257.433	111.1
257.65	94.72
257.866	123.39
258.082	14.85
258.299	-5.63
258.515	104.96
258.732	-95.74
258.948	70.14
259.165	164.35
259.381	-87.55
259.597	98.81
259.814	41.47
260.03	80.38
260.246	-13.82
260.463	74.24
260.679	82.43
260.895	39.42
261.112	82.43
261.328	-1.54
261.544	-56.83
261.761	127.49
261.977	-7.68
262.193	-126.46
262.409	98.81
262.626	39.42
262.842	70.14
263.058	-38.4
263.274	41.47
263.49	39.42
263.707	178.69
263.923	92.67
264.139	-75.26
264.355	41.47
264.571	102.91
264.787	20.99
265.004	-19.97
265.22	43.52
265.436	-34.3
265.652	-5.63
265.868	27.14
266.084	0.51
266.3	49.66
266.516	-1.54
266.732	-17.92
266.948	70.14
267.164	35.33
267.38	123.39
267.596	94.72
267.812	201.21
268.028	-11.78
268.244	-54.78
268.46	-1.54
268.676	29.18
268.892	6.66
269.108	-103.93
269.324	-13.82
269.54	29.18
269.756	55.81
269.972	-15.87
270.188	45.57
270.403	53.76
270.619	-17.92
270.835	25.09
271.051	-9.73
271.267	2.56
271.483	35.33
271.698	70.14
271.914	33.28
272.13	33.28
272.346	-24.06
272.562	45.57
272.777	76.29
272.993	12.8
273.209	-1.54
273.425	72.19
273.64	-110.08
273.856	111.1
274.072	-15.87
274.287	6.66
274.503	25.09
274.719	131.58
274.934	12.8
275.15	-19.97
275.366	10.75
275.581	-83.45
275.797	64
276.012	45.57
276.228	33.28
276.444	33.28
276.659	131.58
276.875	-7.68
277.09	6.66
277.306	57.86
277.521	86.53
277.737	55.81
277.952	2.56
278.168	104.96
278.383	57.86
278.599	72.19
278.814	121.34
279.03	20.99
279.245	115.2
279.461	33.28
279.676	119.29
279.892	-7.68
280.107	-19.97
280.322	14.85
280.538	41.47
280.753	64
280.969	57.86
281.184	109.05
281.399	168.45
281.615	90.62
281.83	113.15
282.045	-22.02
282.26	80.38
282.476	33.28
282.691	98.81
282.906	14.85
283.122	74.24
283.337	10.75
283.552	53.76
283.767	-7.68
283.983	143.87
284.198	0.51
284.413	119.29
284.628	-44.54
284.843	45.57
285.058	123.39
285.274	-34.3
285.489	-56.83
285.704	10.75
285.919	33.28
286.134	-24.06
286.349	82.43
286.564	96.77
286.779	180.73
286.995	8.7
287.21	-7.68
287.425	39.42
287.64	-44.54
287.855	33.28
288.07	-13.82
288.285	160.25
288.5	193.02
288.715	96.77
288.93	43.52
289.145	-5.63
289.36	129.53
289.575	-30.21
289.79	80.38
290.004	49.66
290.219	100.86
290.434	-65.02
290.649	-19.97
290.864	-50.69
291.079	-24.06
291.294	16.9
291.509	64
291.724	-32.26
291.938	-65.02
292.153	86.53
292.368	31.23
292.583	47.62
292.798	20.99
293.012	41.47
293.227	80.38
293.442	20.99
293.657	117.25
293.871	104.96
294.086	66.05
294.301	137.73
294.516	70.14
294.73	27.14
294.945	-44.54
295.16	72.19
295.374	109.05
295.589	29.18
295.804	29.18
296.018	57.86
296.233	211.45
296.447	51.71
296.662	43.52
296.877	94.72
297.091	16.9
297.306	4.61
297.52	4.61
297.735	74.24
297.949	10.75
298.164	23.04
298.378	57.86
298.593	-114.17
298.807	25.09
299.022	66.05
299.236	180.73
299.451	4.61
299.665	-34.3
299.88	16.9
300.094	86.53
300.309	53.76
300.523	-19.97
300.737	31.23
300.952	20.99
301.166	104.96
301.381	6.66
301.595	10.75
301.809	-11.78
302.024	41.47
302.238	4.61
302.452	154.11
302.667	49.66
302.881	131.58
303.095	35.33
303.309	90.62
303.524	-13.82
303.738	41.47
303.952	-73.21
304.166	66.05
304.381	-32.26
304.595	96.77
304.809	0.51
305.023	31.23
305.237	2.56
305.452	-40.45
305.666	143.87
305.88	14.85
306.094	107.01
306.308	74.24
306.522	57.86
306.736	111.1
306.95	90.62
307.164	45.57
307.379	-30.21
307.593	125.44
307.807	123.39
308.021	102.91
308.235	16.9
308.449	-44.54
308.663	14.85
308.877	176.64
309.091	-15.87
309.305	66.05
309.519	-75.26
309.733	96.77
309.947	-50.69
310.161	51.71
310.374	137.73
310.588	166.4
310.802	-17.92
311.016	-17.92
311.23	-9.73
311.444	-15.87
311.658	57.86
311.872	127.49
312.085	86.53
312.299	53.76
312.513	70.14
312.727	61.95
312.941	-58.88
313.154	31.23
313.368	74.24
313.582	45.57
313.796	90.62
314.009	70.14
314.223	98.81
314.437	-5.63
314.651	74.24
314.864	10.75
315.078	-11.78
315.292	-17.92
315.505	29.18
315.719	20.99
315.933	35.33
316.146	-28.16
316.36	45.57
316.573	76.29
316.787	55.81
317.001	74.24
317.214	33.28
317.428	86.53
317.641	-56.83
317.855	27.14
318.068	80.38
318.282	35.33
318.495	139.77
318.709	109.05
318.922	127.49
319.136	127.49
319.349	111.1
319.563	59.9
319.776	90.62
319.99	-67.07
320.203	98.81
320.417	-17.92
320.63	57.86
320.843	143.87
321.057	-1.54
321.27	-50.69
321.483	72.19
321.697	152.06
321.91	51.71
322.124	188.93
322.337	33.28
322.55	-38.4
322.763	16.9
322.977	31.23
323.19	43.52
323.403	18.94
323.617	115.2
323.83	27.14
324.043	49.66
324.256	86.53
324.469	-40.45
324.683	104.96
324.896	76.29
325.109	66.05
325.322	-17.92
325.535	82.43
325.748	92.67
325.962	-9.73
326.175	121.34
326.388	80.38
326.601	66.05
326.814	70.14
327.027	57.86
327.24	137.73
327.453	-81.41
327.666	82.43
327.879	195.07
328.092	49.66
328.305	12.8
328.518	18.94
328.731	55.81
328.944	14.85
329.157	59.9
329.37	-11.78
329.583	291.32
329.796	88.57
330.009	-85.5
330.222	109.05
330.435	82.43
330.648	6.66
330.861	31.23
331.073	102.91
331.286	115.2
331.499	82.43
331.712	53.76
331.925	-24.06
332.138	25.09
332.35	78.33
332.563	41.47
332.776	88.57
332.989	0.51
333.202	70.14
333.414	25.09
333.627	53.76
333.84	74.24
334.053	70.14
334.265	31.23
334.478	66.05
334.691	55.81
334.903	37.38
335.116	23.04
335.329	25.09
335.541	94.72
335.754	111.1
335.966	74.24
336.179	8.7
336.392	-32.26
336.604	-69.12
336.817	74.24
337.029	80.38
337.242	45.57
337.454	86.53
337.667	68.09
337.88	244.22
338.092	33.28
338.305	55.81
338.517	-65.02
338.729	74.24
338.942	172.54
339.154	-26.11
339.367	-34.3
339.579	115.2
339.792	55.81
340.004	57.86
340.217	55.81
340.429	20.99
340.641	-9.73
340.854	-48.64
341.066	41.47
341.278	162.3
341.491	190.97
341.703	53.76
341.915	18.94
342.128	59.9
342.34	84.48
342.552	-44.54
342.764	4.61
342.977	57.86
343.189	76.29
343.401	66.05
343.613	-87.55
343.826	70.14
344.038	33.28
344.25	47.62
344.462	6.66
344.674	70.14
344.886	-7.68
345.099	92.67
345.311	66.05
345.523	64
345.735	-46.59
345.947	53.76
346.159	109.05
346.371	2.56
346.583	61.95
346.795	162.3
347.007	29.18
347.219	10.75
347.431	66.05
347.643	135.68
347.855	-7.68
348.067	107.01
348.279	64
348.491	39.42
348.703	115.2
348.915	-15.87
349.127	-48.64
349.339	39.42
349.551	66.05
349.763	8.7
349.975	-7.68
350.187	168.45
350.399	180.73
350.61	123.39
350.822	-17.92
351.034	57.86
351.246	94.72
351.458	164.35
351.669	104.96
351.881	51.71
352.093	152.06
352.305	135.68
352.517	12.8
352.728	156.16
352.94	-3.58
353.152	70.14
353.363	-40.45
353.575	76.29
353.787	131.58
353.999	12.8
354.21	139.77
354.422	23.04
354.633	29.18
354.845	86.53
355.057	113.15
355.268	49.66
355.48	129.53
355.692	-52.74
355.903	45.57
356.115	20.99
356.326	-22.02
356.538	152.06
356.749	133.63
356.961	117.25
357.172	47.62
357.384	8.7
357.595	102.91
357.807	41.47
358.018	-34.3
358.23	37.38
358.441	98.81
358.653	80.38
358.864	16.9
359.075	-67.07
359.287	59.9
359.498	94.72
359.709	59.9
359.921	92.67
360.132	57.86
360.344	29.18
360.555	-34.3
360.766	31.23
360.977	-1.54
361.189	96.77
361.4	-17.92
361.611	107.01
361.823	104.96
362.034	80.38
362.245	-42.5
362.456	59.9
362.667	127.49
362.879	-56.83
363.09	111.1
363.301	31.23
363.512	57.86
363.723	-77.31
363.935	25.09
364.146	84.48
364.357	88.57
364.568	37.38
364.779	-3.58
364.99	156.16
365.201	12.8
365.412	143.87
365.623	-81.41
365.834	-11.78
366.045	-40.45
366.256	90.62
366.467	66.05
366.678	-17.92
366.889	20.99
367.1	39.42
367.311	184.83
367.522	-34.3
367.733	74.24
367.944	45.57
368.155	53.76
368.366	102.91
368.577	137.73
368.788	107.01
368.999	43.52
369.209	20.99
369.42	203.26
369.631	193.02
369.842	125.44
370.053	4.61
370.264	94.72
370.474	-24.06
370.685	37.38
370.896	66.05
371.107	64
371.317	100.86
371.528	104.96
371.739	117.25
371.95	68.09
372.16	94.72
372.371	16.9
372.582	-28.16
372.792	64
373.003	66.05
373.214	55.81
373.424	53.76
373.635	-1.54
373.846	129.53
374.056	100.86
374.267	41.47
374.477	127.49
374.688	10.75
374.898	57.86
375.109	33.28
375.319	55.81
375.53	121.34
375.74	90.62
375.951	14.85
376.161	-7.68
376.372	74.24
376.582	-13.82
376.793	90.62
377.003	39.42
377.214	-42.5
377.424	96.77
377.635	82.43
377.845	86.53
378.055	188.93
378.266	-75.26
378.476	104.96
378.686	109.05
378.897	41.47
379.107	133.63
379.317	74.24
379.528	61.95
379.738	82.43
379.948	-40.45
380.158	156.16
380.369	18.94
380.579	57.86
380.789	33.28
380.999	57.86
381.21	121.34
381.42	125.44
381.63	72.19
381.84	66.05
382.05	170.49
382.261	86.53
382.471	80.38
382.681	47.62
382.891	131.58
383.101	80.38
383.311	-24.06
383.521	35.33
383.731	111.1
383.941	129.53
384.151	96.77
384.361	16.9
384.571	29.18
384.781	35.33
384.991	98.81
385.201	162.3
385.411	61.95
385.621	-1.54
385.831	113.15
386.041	-11.78
386.251	20.99
386.461	66.05
386.671	55.81
386.881	74.24
387.091	14.85
387.301	111.1
387.511	37.38
387.72	147.97
387.93	104.96
388.14	-110.08
388.35	0.51
388.56	156.16
388.769	76.29
388.979	96.77
389.189	-9.73
389.399	-5.63
389.609	107.01
389.818	98.81
390.028	39.42
390.238	100.86
390.447	4.61
390.657	123.39
390.867	10.75
391.076	-105.98
391.286	100.86
391.496	2.56
391.705	66.05
391.915	35.33
392.125	96.77
392.334	80.38
392.544	137.73
392.753	90.62
392.963	6.66
393.172	8.7
393.382	-26.11
393.591	211.45
393.801	-11.78
394.01	102.91
394.22	66.05
394.429	35.33
394.639	39.42
394.848	113.15
395.058	143.87
395.267	33.28
395.477	76.29
395.686	-13.82
395.895	117.25
396.105	197.12
396.314	39.42
396.524	41.47
396.733	107.01
396.942	195.07
397.152	156.16
397.361	72.19
397.57	121.34
397.78	8.7
397.989	39.42
398.198	156.16
398.407	66.05
398.617	78.33
398.826	16.9
399.035	25.09
399.244	119.29
399.453	16.9
399.663	-22.02
399.872	23.04
400.081	-22.02
400.29	90.62
400.499	-71.17
400.708	125.44
400.917	6.66
401.127	76.29
401.336	-11.78
401.545	131.58
401.754	82.43
401.963	162.3
402.172	-13.82
402.381	-15.87
402.59	-30.21
402.799	86.53
403.008	23.04
403.217	16.9
403.426	121.34
403.635	-5.63
403.844	49.66
404.053	49.66
404.262	12.8
404.471	184.83
404.68	25.09
404.888	-1.54
405.097	25.09
405.306	-71.17
405.515	53.76
405.724	12.8
405.933	49.66
406.142	41.47
406.35	176.64
406.559	-19.97
406.768	23.04
406.977	209.4
407.185	0.51
407.394	49.66
407.603	-24.06
407.812	127.49
408.02	143.87
408.229	53.76
408.438	90.62
408.646	-38.4
408.855	61.95
409.064	23.04
409.272	57.86
409.481	86.53
409.69	20.99
409.898	66.05
410.107	74.24
410.315	168.45
410.524	6.66
410.733	90.62
410.941	2.56
411.15	57.86
411.358	121.34
411.567	117.25
411.775	150.01
411.984	49.66
412.192	113.15
412.401	64
412.609	80.38
412.818	127.49
413.026	10.75
413.234	80.38
413.443	4.61
413.651	-22.02
413.86	45.57
414.068	160.25
414.276	180.73
414.485	-24.06
414.693	219.64
414.901	164.35
415.11	115.2
415.318	53.76
415.526	98.81
415.734	80.38
415.943	98.81
416.151	111.1
416.359	-3.58
416.567	98.81
416.776	119.29
416.984	147.97
417.192	143.87
417.4	-1.54
417.608	121.34
417.817	51.71
418.025	80.38
418.233	211.45
418.441	33.28
418.649	0.51
418.857	115.2
419.065	117.25
419.273	27.14
419.481	47.62
419.689	72.19
419.897	33.28
420.105	8.7
420.313	84.48
420.521	162.3
420.729	162.3
420.937	-46.59
421.145	12.8
421.353	154.11
421.561	121.34
421.769	107.01
421.977	41.47
422.185	164.35
422.393	107.01
422.601	92.67
422.809	47.62
423.017	57.86
423.224	80.38
423.432	100.86
423.64	35.33
423.848	123.39
424.056	12.8
424.263	66.05
424.471	119.29
424.679	119.29
424.887	8.7
425.094	168.45
425.302	64
425.51	55.81
425.718	123.39
425.925	92.67
426.133	-48.64
426.341	145.92
426.548	47.62
426.756	66.05
426.964	121.34
427.171	25.09
427.379	137.73
427.586	74.24
427.794	111.1
428.001	94.72
428.209	98.81
428.417	227.84
428.624	141.82
428.832	152.06
429.039	123.39
429.247	119.29
429.454	180.73
429.662	229.88
429.869	176.64
430.076	86.53
430.284	172.54
430.491	178.69
430.699	107.01
430.906	213.5
431.114	133.63
431.321	131.58
431.528	137.73
431.736	184.83
431.943	82.43
432.15	180.73
432.358	244.22
432.565	211.45
432.772	84.48
432.979	223.74
433.187	102.91
433.394	123.39
433.601	147.97
433.808	219.64
434.016	268.8
434.223	252.41
434.43	215.55
434.637	293.37
434.844	279.04
435.052	201.21
435.259	285.18
435.466	307.71
435.673	293.37
435.88	299.52
436.087	350.71
436.294	385.53
436.501	373.24
436.708	315.9
436.915	262.65
437.122	336.38
437.329	221.69
437.537	287.23
437.743	293.37
437.95	432.63
438.157	446.97
438.364	295.42
438.571	442.87
438.778	406.01
438.985	406.01
439.192	442.87
439.399	481.78
439.606	440.83
439.813	561.66
440.02	594.42
440.227	655.86
440.433	567.8
440.64	434.68
440.847	543.22
441.054	524.79
441.261	705.01
441.467	594.42
441.674	647.67
441.881	821.75
442.088	639.48
442.294	721.4
442.501	795.12
442.708	840.18
442.914	762.36
443.121	889.33
443.328	967.15
443.534	1079.79
443.741	926.19
443.948	915.95
444.154	1049.07
444.361	1262.06
444.568	1061.36
444.774	1104.37
444.981	924.15
445.187	1182.19
445.394	1247.72
445.6	1167.85
445.807	1356.27
446.013	1348.08
446.22	1262.06
446.426	1423.85
446.633	1520.1
446.839	1669.61
447.046	1489.39
447.252	1649.13
447.459	1700.33
447.665	1679.85
447.871	1968.61
448.078	2011.62
448.284	1880.55
448.491	1952.23
448.697	2167.26
448.903	2222.56
449.11	2220.51
449.316	2279.9
449.522	2507.23
449.728	2556.38
449.935	2589.14
450.141	2707.93
450.347	2826.71
450.553	2763.22
450.76	2968.02
450.966	3029.46
451.172	3123.66
451.378	3197.39
451.584	3256.78
451.791	3541.45
451.997	3621.32
452.203	3721.67
452.409	3961.28
452.615	4096.45
452.821	3938.76
453.027	4004.29
453.233	4639.16
453.44	4372.93
453.646	4686.26
453.852	4755.9
454.058	5071.28
454.264	5177.78
454.47	5431.73
454.676	5478.83
454.882	5894.57
455.088	5743.02
455.294	6033.83
455.5	6431.13
455.705	6955.41
455.911	6695.32
456.117	6984.09
456.323	7262.61
456.529	7129.49
456.735	7967.11
456.941	8020.36
457.147	8425.86
457.352	8364.42
457.558	8700.28
457.764	9429.36
457.97	9515.37
458.176	9931.11
458.381	10510.69
458.587	10688.86
458.793	11045.21
458.999	11188.57
459.204	12507.46
459.41	13089.08
459.616	12665.15
459.821	13529.39
460.027	13852.97
460.233	14737.7
460.438	14856.48
460.644	15513.88
460.85	15810.83
461.055	16290.06
461.261	17287.42
461.466	16881.92
461.672	17164.54
461.878	19167.45
462.083	18737.38
462.289	19343.58
462.494	20039.89
462.7	20246.73
462.905	20609.22
463.111	22003.89
463.316	23218.33
463.522	23687.32
463.727	24496.27
463.932	25481.34
464.138	25821.3
464.343	27132
464.549	27166.82
464.754	29124.68
464.959	30111.8
465.165	30736.43
465.37	30083.12
465.575	30537.77
465.781	32243.73
465.986	33224.71
466.191	32532.5
466.397	33282.05
466.602	32229.4
466.807	34426.87
467.012	35164.14
467.218	35172.33
467.423	35192.81
467.628	36558.8
467.833	38422.45
468.038	37588.93
468.244	36986.83
468.449	38850.48
468.654	37877.69
468.859	37994.43
469.064	38086.59
469.269	36804.56
469.474	37375.94
469.679	38574
469.885	37269.45
470.09	38455.22
470.295	38225.85
470.5	37326.79
470.705	37535.68
470.91	36607.95
471.115	36603.86
471.32	36902.86
471.525	36370.39
471.73	35297.25
471.935	35141.61
472.139	34093.05
472.344	34052.09
472.549	33796.09
472.754	33253.38
472.959	32899.08
473.164	31469.6
473.369	31008.81
473.574	31537.18
473.778	31213.6
473.983	30103.6
474.188	29616.19
474.393	28577.87
474.598	28743.75
474.802	28080.21
475.007	27420.77
475.212	27324.51
475.417	26105.97
475.621	25743.48
475.826	25364.6
476.031	25012.35
476.235	24447.11
476.44	24623.24
476.645	24088.72
476.849	23642.26
477.054	23120.03
477.259	22767.78
477.463	22696.1
477.668	21989.55
477.872	21803.19
478.077	21778.61
478.282	20693.19
478.486	20865.22
478.691	20496.58
478.895	20170.96
479.1	20289.74
479.304	19972.3
479.509	19222.75
479.713	19540.18
479.918	19177.69
480.122	18731.23
480.326	18960.61
480.531	18843.87
480.735	18579.68
480.94	18237.67
481.144	18909.41
481.348	18104.56
481.553	17895.66
481.757	17420.53
481.961	17584.37
482.166	17588.47
482.37	17432.82
482.574	17039.61
482.778	17201.4
482.983	17242.36
483.187	16955.65
483.391	16689.41
483.595	16539.91
483.8	16058.63
484.004	16490.76
484.208	16380.17
484.412	16005.39
484.616	15939.85
484.821	15810.83
485.025	15120.67
485.229	15417.62
485.433	15087.9
485.637	14942.49
485.841	14629.15
486.045	14479.65
486.249	14326.05
486.453	14168.36
486.657	13859.12
486.861	13775.15
487.065	13252.92
487.269	13175.09
487.473	12902.72
487.677	13109.56
487.881	12747.07
488.085	12439.87
488.289	12327.24
488.493	12036.42
488.697	11858.25
488.901	11493.71
489.105	11395.41
489.309	11237.72
489.512	11073.88
489.716	10893.66
489.92	10418.53
490.124	10226.02
490.328	10518.88
490.531	9845.1
490.735	10131.81
490.939	9709.93
491.143	9654.64
491.346	9351.54
491.55	9124.21
491.754	9068.92
491.958	8921.46
492.161	8491.39
492.365	8601.98
492.569	8321.41
492.772	8251.78
492.976	8225.15
493.18	8085.89
493.383	7946.63
493.587	7762.31
493.79	7930.25
493.994	7520.65
494.197	7502.22
494.401	7383.44
494.605	7174.55
494.808	7317.9
495.012	7147.92
495.215	7338.38
495.419	7221.65
495.622	6936.98
495.825	7051.67
496.029	6760.86
496.232	7084.44
496.436	6863.26
496.639	6934.93
496.843	6750.62
497.046	6746.52
497.249	6726.04
497.453	6848.92
497.656	6691.23
497.859	6732.19
498.063	6701.47
498.266	6799.77
498.469	6701.47
498.673	6652.31
498.876	6666.65
499.079	6762.9
499.282	6654.36
499.485	6910.36
499.689	6707.61
499.892	6767
500.095	6719.9
500.298	6887.83
500.501	6670.75
500.705	6936.98
500.908	7002.52
501.111	6955.41
501.314	7047.57
501.517	7278.99
501.72	7055.76
501.923	7096.72
502.126	7281.04
502.329	7389.58
502.532	7420.3
502.735	7532.94
502.938	7516.56
503.141	7627.15
503.344	7754.12
503.547	7922.06
503.75	7823.75
503.953	7870.86
504.156	8124.8
504.359	7985.54
504.562	7866.76
504.765	8341.89
504.968	8415.62
505.17	8554.88
505.373	8540.54
505.576	8759.67
505.779	8989.05
505.982	8911.22
506.185	9177.46
506.387	9312.63
506.59	9290.1
506.793	9658.73
506.996	9492.85
507.198	9947.5
507.401	9920.87
507.604	10244.45
507.807	10486.11
508.009	10568.03
508.212	10869.08
508.415	11135.32
508.617	11030.87
508.82	11417.94
509.022	11422.03
509.225	11802.96
509.428	12296.52
509.63	12122.44
509.833	12101.96
510.035	13017.4
510.238	12970.3
510.44	13060.41
510.643	13687.09
510.845	13947.18
511.048	13859.12
511.25	14332.2
511.453	14426.4
511.655	15075.61
511.858	15128.86
512.06	15630.61
512.262	15745.3
512.465	16314.63
512.667	16652.55
512.87	16902.4
513.072	17195.26
513.274	17570.04
513.477	17969.39
513.679	18376.94
513.881	18970.85
514.084	19321.05
514.286	19204.31
514.488	20037.84
514.69	20588.74
514.893	20611.27
515.095	21254.33
515.297	21962.93
515.499	22143.15
515.701	22321.32
515.904	23138.46
516.106	23715.99
516.308	24273.04
516.51	24465.55
516.712	24799.37
516.914	25247.87
517.116	25776.25
517.318	26396.78
517.52	26718.31
517.722	27125.86
517.925	27756.63
518.127	28190.8
518.329	28797
518.531	28741.71
518.733	29575.23
518.935	30351.41
519.136	30537.77
519.338	30976.04
519.54	31381.54
519.742	32327.7
519.944	32333.84
520.146	33163.27
520.348	33280
520.55	33728.51
520.752	34105.34
520.954	34850.8
521.155	34762.73
521.357	35432.42
521.559	35842.01
521.761	36558.8
521.963	36251.61
522.164	36902.86
522.366	37222.34
522.568	37590.98
522.77	37545.92
522.971	38358.97
523.173	38084.54
523.375	38639.54
523.576	38397.88
523.778	38815.66
523.98	39434.15
524.181	39487.4
524.383	39190.44
524.584	39770.02
524.786	39796.64
524.988	39751.59
525.189	39888.8
525.391	39896.99
525.592	40005.53
525.794	40433.56
525.995	40056.73
526.197	39841.7
526.398	39997.34
526.6	40269.72
526.801	39974.81
527.003	39569.32
527.204	39989.15
527.406	39765.92
527.607	39487.4
527.808	39528.36
528.01	38465.46
528.211	38571.96
528.412	39172.01
528.614	38571.96
528.815	38092.73
529.016	38856.62
529.218	37765.06
529.419	37599.17
529.62	37076.94
529.822	36714.45
530.023	36239.32
530.224	36366.29
530.425	35829.73
530.626	35198.95
530.828	34875.37
531.029	34973.67
531.23	34013.18
531.431	33927.16
531.632	33732.61
531.833	33273.86
532.035	32782.35
532.236	32348.18
532.437	32229.4
532.638	31649.82
532.839	31653.92
533.04	31275.04
533.241	30343.22
533.442	30681.13
533.643	29892.66
533.844	29452.35
534.045	29409.34
534.246	28489.81
534.447	28686.41
534.648	27766.87
534.849	27631.71
535.05	27340.89
535.251	26775.66
535.451	26167.41
535.652	26263.66
535.853	25806.97
536.054	25686.14
536.255	25186.43
536.456	24713.35
536.657	24572.04
536.857	24064.14
537.058	23617.69
537.259	23580.82
537.46	23238.81
537.66	23156.89
537.861	22558.89
538.062	22466.73
538.263	22040.75
538.463	21743.8
538.664	21266.62
538.865	21301.43
539.065	21326.01
539.266	20682.95
539.466	20711.62
539.667	20422.86
539.868	20281.55
540.068	19712.21
540.269	19482.84
540.469	19433.69
540.67	19073.24
540.87	18735.33
541.071	18399.46
541.271	18487.53
541.472	18190.57
541.672	18057.45
541.873	17768.69
542.073	17248.5
542.274	17316.09
542.474	17164.54
542.675	17094.91
542.875	17049.85
543.075	16464.13
543.276	16138.51
543.476	16423.17
543.676	16095.5
543.877	15982.86
544.077	15513.88
544.277	15700.24
544.478	15421.72
544.678	15290.65
544.878	14967.07
545.078	14934.3
545.279	14446.88
545.479	14440.74
545.679	14227.75
545.879	14151.98
546.079	14070.06
546.28	13934.89
546.48	13592.88
546.68	13578.54
546.88	13351.22
547.08	13310.26
547.28	13347.12
547.48	12722.49
547.68	12964.15
547.88	12706.11
548.081	12472.64
548.281	11991.37
548.481	11782.48
548.681	12099.91
548.881	11852.11
549.081	11698.51
549.28	11682.13
549.48	11442.51
549.68	11135.32
549.88	11184.47
550.08	10998.1
550.28	11114.84
550.48	10752.35
550.68	10422.62
550.88	10328.42
551.08	10043.75
551.279	10043.75
551.479	9879.91
551.679	9660.78
551.879	9742.7
552.079	9476.46
552.278	9314.67
552.478	9179.51
552.678	8972.66
552.878	9036.15
553.077	8712.57
553.277	8665.47
553.477	8612.22
553.676	8618.36
553.876	8268.16
554.076	8208.77
554.275	8036.74
554.475	7713.16
554.674	7913.86
554.874	7686.54
555.074	7520.65
555.273	7545.23
555.473	7154.07
555.672	7047.57
555.872	7053.72
556.071	7106.96
556.271	7102.87
556.47	6683.03
556.67	6674.84
556.869	6455.71
557.068	6594.97
557.268	6265.25
557.467	6189.47
557.667	6328.74
557.866	6148.51
558.065	5908.9
558.265	5761.45
558.464	5714.34
558.663	5624.23
558.863	5458.35
559.062	5476.78
559.261	5183.92
559.461	5290.42
559.66	5134.77
559.859	5147.06
560.058	4989.36
560.258	4981.17
560.457	4825.53
560.656	4921.78
560.855	4710.84
561.054	4616.63
561.253	4585.91
561.453	4620.73
561.652	4436.41
561.851	4524.47
562.05	4260.29
562.249	4192.7
562.448	4223.42
562.647	4108.74
562.846	4098.5
563.045	3887.56
563.244	3926.47
563.443	3908.04
563.642	3858.89
563.841	3748.29
564.04	3744.2
564.239	3809.73
564.438	3625.42
564.637	3482.06
564.836	3506.63
565.035	3445.2
565.234	3332.56
565.432	3375.56
565.631	3209.68
565.83	3168.72
566.029	3121.62
566.228	3215.82
566.427	3197.39
566.625	3047.89
566.824	3090.9
567.023	2965.97
567.222	2882
567.42	2976.21
567.619	2904.53
567.818	2763.22
568.016	2951.63
568.215	2750.93
568.414	2814.42
568.612	2701.78
568.811	2650.58
569.01	2640.34
569.208	2451.93
569.407	2572.76
569.605	2437.59
569.804	2462.17
570.002	2441.69
570.201	2335.2
570.4	2351.58
570.598	2347.48
570.797	2257.37
570.995	2195.93
571.193	2292.19
571.392	2146.78
571.59	2081.25
571.789	2177.5
571.987	2089.44
572.186	2163.17
572.384	1984.99
572.582	1843.68
572.781	1966.56
572.979	1804.77
573.177	1860.07
573.376	1874.4
573.574	1907.17
573.772	1810.92
573.971	1765.86
574.169	1604.07
574.367	1890.79
574.565	1716.71
574.763	1673.7
574.962	1669.61
575.16	1569.26
575.358	1606.12
575.556	1593.83
575.754	1556.97
575.952	1458.67
576.151	1606.12
576.349	1450.47
576.547	1327.6
576.745	1520.1
576.943	1499.63
577.141	1427.95
577.339	1378.79
577.537	1343.98
577.735	1356.27
577.933	1350.12
578.131	1171.95
578.329	1309.16
578.527	1198.57
578.725	1247.72
578.923	1169.9
579.121	1315.31
579.319	1100.27
579.516	1147.37
579.714	1309.16
579.912	1016.3
580.11	999.92
580.308	1155.57
580.506	1016.3
580.704	926.19
580.901	883.19
581.099	1067.5
581.297	938.48
581.495	1024.5
581.692	907.76
581.89	1141.23
582.088	967.15
582.285	983.54
582.483	956.91
582.681	860.66
582.878	881.14
583.076	897.52
583.274	907.76
583.471	1004.02
583.669	721.4
583.866	731.64
584.064	756.21
584.262	803.32
584.459	778.74
584.657	985.58
584.854	819.7
585.052	819.7
585.249	815.6
585.447	803.32
585.644	608.76
585.841	772.6
586.039	686.58
586.236	825.84
586.434	639.48
586.631	590.33
586.828	623.09
587.026	684.53
587.223	637.43
587.42	610.81
587.618	580.09
587.815	682.49
588.012	623.09
588.21	590.33
588.407	698.87
588.604	653.81
588.801	575.99
588.999	631.29
589.196	602.61
589.393	625.14
589.59	565.75
589.787	637.43
589.984	510.46
590.182	524.79
590.379	539.13
590.576	590.33
590.773	510.46
590.97	588.28
591.167	608.76
591.364	588.28
591.561	586.23
591.758	672.25
591.955	524.79
592.152	614.9
592.349	514.55
592.546	485.88
592.743	469.5
592.94	492.02
593.137	567.8
593.334	569.85
593.531	659.96
593.727	594.42
593.924	504.31
594.121	467.45
594.318	637.43
594.515	635.38
594.712	643.57
594.908	682.49
595.105	469.5
595.302	543.22
595.499	522.74
595.696	705.01
595.892	604.66
596.089	672.25
596.286	604.66
596.482	670.2
596.679	739.83
596.876	582.14
597.072	748.02
597.269	700.92
597.466	737.78
597.662	762.36
597.859	659.96
598.055	723.44
598.252	827.89
598.448	850.42
598.645	918
598.841	930.29
599.038	975.35
599.234	987.63
599.431	1077.74
599.627	1059.31
599.824	1124.85
600.02	1126.89
600.217	1085.94
600.413	1274.35
600.609	1257.96
600.806	1446.38
601.002	1229.29
601.198	1268.2
601.395	1415.66
601.591	1544.68
601.787	1497.58
601.984	1610.22
602.18	1679.85
602.376	1669.61
602.572	1812.96
602.769	2009.57
602.965	1800.68
603.161	1999.33
603.357	1950.18
603.553	2015.71
603.75	2146.78
603.946	2257.37
604.142	2458.07
604.338	2535.9
604.534	2554.33
604.73	2458.07
604.926	2484.7
605.122	2822.61
605.318	2783.7
605.514	2816.47
605.71	2961.87
605.906	3135.95
606.102	3219.92
606.298	3383.76
606.494	3379.66
606.69	3463.63
606.886	3525.07
607.082	3643.85
607.278	3783.11
607.474	3936.71
607.67	4030.91
607.866	3973.57
608.062	4256.19
608.257	4360.64
608.453	4458.94
608.649	4620.73
608.845	4563.39
609.041	4780.47
609.236	4846.01
609.432	5061.04
609.628	5163.44
609.824	5296.56
610.019	5398.96
610.215	5683.63
610.411	5806.5
610.606	5941.67
610.802	5992.87
610.998	6082.98
611.193	6347.17
611.389	6484.38
611.584	6791.58
611.78	6650.27
611.976	7092.63
612.171	7235.99
612.367	7563.66
612.562	7567.76
612.758	7700.87
612.953	7948.68
613.149	8137.09
613.344	8268.16
613.539	8649.08
613.735	8839.55
613.93	9068.92
614.126	9234.8
614.321	9589.1
614.517	9972.07
614.712	9900.39
614.907	10160.48
615.103	10527.07
615.298	10799.45
615.493	10957.14
615.688	11327.83
615.884	11776.33
616.079	11776.33
616.274	12220.74
616.47	12583.23
616.665	12933.43
616.86	13197.62
617.055	13398.32
617.25	13877.55
617.445	14194.98
617.641	14164.26
617.836	14887.2
618.031	14952.73
618.226	15589.65
618.421	15933.71
618.616	16414.98
618.811	16474.37
619.006	17330.42
619.201	17340.66
619.396	18153.71
619.591	17823.98
619.786	18776.29
619.981	18950.37
620.176	19380.44
620.371	19527.89
620.566	19980.5
620.761	20521.16
620.956	21117.12
621.151	21227.71
621.346	21776.56
621.541	22137.01
621.735	22655.14
621.93	22941.86
622.125	23685.27
622.32	23668.89
622.515	24170.64
622.709	24561.8
622.904	25395.32
623.099	25454.72
623.294	25864.31
623.488	26241.14
623.683	27109.47
623.878	27156.58
624.072	27590.75
624.267	28131.41
624.462	28622.92
624.656	28930.12
624.851	29417.54
625.046	29863.99
625.24	30433.33
625.435	30627.88
625.629	31565.85
625.824	31698.97
626.018	32180.24
626.213	31813.66
626.407	32851.98
626.602	32878.6
626.796	33574.91
626.991	33861.63
627.185	34164.73
627.38	33978.36
627.574	34152.44
627.768	34248.69
627.963	34725.87
628.157	34699.25
628.352	35467.23
628.546	34766.83
628.74	35387.36
628.935	35026.92
629.129	35489.76
629.323	34854.89
629.517	34957.29
629.712	34787.31
629.906	34314.23
630.1	33841.15
630.294	33681.41
630.489	33652.73
630.683	33523.71
630.877	32524.3
631.071	32542.74
631.265	31363.11
631.459	30912.55
631.653	30517.29
631.848	29956.15
632.042	29184.07
632.236	28751.95
632.43	27930.71
632.624	27328.61
632.818	26429.55
633.012	25376.89
633.206	25014.4
633.4	24139.92
633.594	23193.76
633.788	22513.83
633.982	21993.65
634.176	21149.89
634.369	20205.77
634.563	19603.67
634.757	18538.73
634.951	18043.12
635.145	17301.75
635.339	16716.03
635.533	16072.97
635.726	15663.38
635.92	14907.68
636.114	14434.6
636.308	13758.77
636.501	13203.77
636.695	12751.17
636.889	12159.3
637.083	11745.61
637.276	11108.69
637.47	10869.08
637.664	10086.76
637.857	9929.06
638.051	9361.78
638.244	9036.15
638.438	8749.43
638.632	8464.77
638.825	7977.35
639.019	7647.63
639.212	7465.36
639.406	7248.27
639.599	6717.85
639.793	6613.4
639.986	6205.86
640.18	6302.11
640.373	6019.49
640.567	5671.34
640.76	5417.39
640.954	5177.78
641.147	4962.74
641.34	4661.69
641.534	4704.7
641.727	4504
641.92	4354.49
642.114	4121.03
642.307	4061.63
642.5	3758.53
642.694	3520.97
642.887	3477.96
643.08	3510.73
643.273	3394
643.467	3375.56
643.66	2994.64
643.853	2851.28
644.046	2785.75
644.239	2675.16
644.432	2603.48
644.626	2413.02
644.819	2374.11
645.012	2275.81
645.205	2335.2
645.398	2023.91
645.591	2118.11
645.784	1993.19
645.977	1868.26
646.17	1888.74
646.363	1685.99
646.556	1597.93
646.749	1460.71
646.942	1538.54
647.135	1589.74
647.328	1491.43
647.521	1448.43
647.714	1354.22
647.907	1278.44
648.099	1180.14
648.292	1245.68
648.485	1122.8
648.678	1204.72
648.871	1030.64
649.064	1020.4
649.256	1042.93
649.449	1008.11
649.642	975.35
649.835	797.17
650.027	782.84
650.22	909.81
650.413	772.6
650.605	719.35
650.798	752.12
650.991	698.87
651.183	739.83
651.376	676.34
651.568	674.29
651.761	621.05
651.954	670.2
652.146	528.89
652.339	598.52
652.531	680.44
652.724	590.33
652.916	543.22
653.109	459.26
653.301	496.12
653.494	543.22
653.686	489.98
653.879	578.04
654.071	453.11
654.263	416.25
654.456	436.73
654.648	520.7
654.84	451.07
655.033	377.34
655.225	479.74
655.417	205.31
655.61	492.02
655.802	414.2
655.994	492.02
656.186	307.71
656.379	406.01
656.571	336.38
656.763	348.67
656.955	297.47
657.148	287.23
657.34	307.71
657.532	293.37
657.724	320
657.916	283.13
658.108	371.19
658.3	283.13
658.492	287.23
658.684	217.6
658.876	338.43
659.068	147.97
659.26	145.92
659.452	164.35
659.644	176.64
659.836	274.94
660.028	213.5
660.22	207.36
660.412	184.83
660.604	250.36
660.796	176.64
660.988	293.37
661.18	172.54
661.372	238.08
661.563	231.93
661.755	203.26
661.947	111.1
662.139	102.91
662.331	193.02
662.522	166.4
662.714	158.21
662.906	160.25
663.097	135.68
663.289	4.61
663.481	80.38
663.673	221.69
663.864	180.73
664.056	168.45
664.247	109.05
664.439	233.98
664.631	203.26
664.822	215.55
665.014	133.63
665.205	119.29
665.397	98.81
665.588	150.01
665.78	168.45
665.971	197.12
666.163	168.45
666.354	129.53
666.546	72.19
666.737	88.57
666.929	160.25
667.12	41.47
667.311	178.69
667.503	113.15
667.694	104.96
667.885	90.62
668.077	131.58
668.268	123.39
668.459	66.05
668.651	172.54
668.842	123.39
669.033	121.34
669.224	88.57
669.416	342.52
669.607	107.01
669.798	33.28
669.989	190.97
670.18	143.87
670.371	168.45
670.563	96.77
670.754	168.45
670.945	162.3
671.136	154.11
671.327	104.96
671.518	137.73
671.709	254.46
671.9	203.26
672.091	131.58
672.282	107.01
672.473	49.66
672.664	127.49
672.855	123.39
673.046	117.25
673.237	233.98
673.428	131.58
673.619	84.48
673.809	121.34
674	199.16
674.191	244.22
674.382	98.81
674.573	123.39
674.764	51.71
674.954	164.35
675.145	139.77
675.336	82.43
675.527	152.06
675.717	43.52
675.908	102.91
676.099	66.05
676.289	139.77
676.48	66.05
676.671	160.25
676.861	104.96
677.052	129.53
677.243	51.71
677.433	72.19
677.624	203.26
677.814	129.53
678.005	111.1
678.195	242.17
678.386	4.61
678.576	127.49
678.767	84.48
678.957	190.97
679.148	156.16
679.338	213.5
679.529	164.35
679.719	160.25
679.909	160.25
680.1	141.82
680.29	182.78
680.481	82.43
680.671	156.16
680.861	86.53
681.052	145.92
681.242	121.34
681.432	121.34
681.622	156.16
681.813	66.05
682.003	98.81
682.193	20.99
682.383	125.44
682.573	123.39
682.764	96.77
682.954	211.45
683.144	168.45
683.334	121.34
683.524	139.77
683.714	188.93
683.904	215.55
684.094	133.63
684.284	121.34
684.474	303.61
684.664	176.64
684.854	188.93
685.044	70.14
685.234	197.12
685.424	197.12
685.614	135.68
685.804	195.07
685.994	188.93
686.184	147.97
686.374	156.16
686.564	135.68
686.753	160.25
686.943	82.43
687.133	178.69
687.323	107.01
687.513	205.31
687.702	131.58
687.892	209.4
688.082	317.95
688.272	197.12
688.461	117.25
688.651	242.17
688.841	262.65
689.03	166.4
689.22	201.21
689.41	188.93
689.599	266.75
689.789	88.57
689.979	248.32
690.168	145.92
690.358	213.5
690.547	207.36
690.737	205.31
690.926	248.32
691.116	137.73
691.305	227.84
691.495	209.4
691.684	135.68
691.874	139.77
692.063	119.29
692.252	182.78
692.442	178.69
692.631	86.53
692.82	145.92
693.01	217.6
693.199	154.11
693.388	166.4
693.578	162.3
693.767	170.49
693.956	107.01
694.146	127.49
694.335	242.17
694.524	90.62
694.713	201.21
694.902	193.02
695.092	68.09
695.281	233.98
695.47	152.06
695.659	119.29
695.848	131.58
696.037	119.29
696.226	186.88
696.415	131.58
696.604	225.79
696.793	190.97
696.982	94.72
697.171	272.89
697.36	119.29
697.549	123.39
697.738	84.48
697.927	39.42
698.116	125.44
698.305	164.35
698.494	176.64
698.683	64
698.872	283.13
699.061	102.91
699.25	172.54
699.438	111.1
699.627	100.86
699.816	225.79
700.005	102.91
700.193	104.96
700.382	195.07
700.571	143.87
700.76	197.12
700.948	215.55
701.137	170.49
701.326	213.5
701.514	147.97
701.703	133.63
701.892	143.87
702.08	264.7
702.269	162.3
702.457	76.29
702.646	139.77
702.834	111.1
703.023	258.56
703.212	193.02
703.4	190.97
703.589	139.77
703.777	156.16
703.965	76.29
704.154	109.05
704.342	111.1
704.531	195.07
704.719	135.68
704.907	176.64
705.096	39.42
705.284	168.45
705.472	74.24
705.661	231.93
705.849	229.88
706.037	180.73
706.226	135.68
706.414	176.64
706.602	78.33
706.79	252.41
706.979	168.45
707.167	172.54
707.355	39.42
707.543	182.78
707.731	143.87
707.919	152.06
708.107	123.39
708.296	37.38
708.484	143.87
708.672	270.84
708.86	221.69
709.048	184.83
709.236	94.72
709.424	94.72
709.612	209.4
709.8	45.57
709.988	131.58
710.176	197.12
710.364	225.79
710.551	190.97
710.739	227.84
710.927	154.11
711.115	231.93
711.303	213.5
711.491	238.08
711.679	129.53
711.866	213.5
712.054	141.82
712.242	172.54
712.43	227.84
712.617	203.26
712.805	205.31
712.993	121.34
713.181	143.87
713.368	152.06
713.556	102.91
713.744	25.09
713.931	348.67
714.119	119.29
714.306	156.16
714.494	127.49
714.682	137.73
714.869	53.76
715.057	152.06
715.244	49.66
715.432	256.51
715.619	150.01
715.807	80.38
715.994	141.82
716.182	141.82
716.369	197.12
716.556	207.36
716.744	8.7
716.931	168.45
717.119	152.06
717.306	94.72
717.493	127.49
717.681	133.63
717.868	135.68
718.055	162.3
718.242	184.83
718.43	154.11
718.617	260.6
718.804	96.77
718.991	266.75
719.179	145.92
719.366	152.06
719.553	158.21
719.74	143.87
719.927	209.4
720.114	162.3
720.301	143.87
720.488	76.29
720.676	90.62
720.863	211.45
721.05	344.57
721.237	221.69
721.424	160.25
721.611	170.49
721.798	115.2
721.985	123.39
722.172	131.58
722.358	223.74
722.545	240.12
722.732	229.88
722.919	256.51
723.106	248.32
723.293	195.07
723.48	143.87
723.667	211.45
723.853	231.93
724.04	193.02
724.227	301.56
724.414	244.22
724.6	238.08
724.787	262.65
724.974	340.47
725.161	188.93
725.347	107.01
725.534	274.94
725.72	242.17
725.907	236.03
726.094	205.31
726.28	174.59
726.467	197.12
726.653	41.47
726.84	375.29
727.027	305.66
727.213	227.84
727.4	262.65
727.586	328.19
727.773	250.36
727.959	233.98
728.145	182.78
728.332	213.5
728.518	211.45
728.705	233.98
728.891	201.21
729.077	258.56
729.264	96.77
729.45	231.93
729.636	248.32
729.823	264.7
730.009	219.64
730.195	137.73
730.382	246.27
730.568	78.33
730.754	246.27
730.94	172.54
731.126	162.3
731.313	225.79
731.499	248.32
731.685	203.26
731.871	262.65
732.057	215.55
732.243	258.56
732.429	186.88
732.615	330.23
732.801	188.93
732.987	242.17
733.173	176.64
733.359	160.25
733.545	285.18
733.731	315.9
733.917	365.05
734.103	270.84
734.289	190.97
734.475	184.83
734.661	371.19
734.847	213.5
735.033	229.88
735.219	242.17
735.404	254.46
735.59	164.35
735.776	305.66
735.962	266.75
736.148	324.09
736.333	246.27
736.519	307.71
736.705	186.88
736.89	229.88
737.076	262.65
737.262	223.74
737.447	197.12
737.633	174.59
737.819	342.52
738.004	213.5
738.19	279.04
738.375	295.42
738.561	307.71
738.747	260.6
738.932	190.97
739.118	324.09
739.303	184.83
739.489	270.84
739.674	244.22
739.859	147.97
740.045	299.52
740.23	264.7
740.416	121.34
740.601	283.13
740.786	252.41
740.972	211.45
741.157	176.64
741.342	227.84
741.528	201.21
741.713	287.23
741.898	211.45
742.084	227.84
742.269	154.11
742.454	283.13
742.639	242.17
742.824	283.13
743.01	264.7
743.195	352.76
743.38	283.13
743.565	213.5
743.75	233.98
743.935	276.99
744.12	201.21
744.305	133.63
744.49	184.83
744.675	184.83
744.86	188.93
745.045	246.27
745.23	184.83
745.415	281.08
745.6	268.8
745.785	137.73
745.97	201.21
746.155	176.64
746.34	246.27
746.525	303.61
746.71	301.56
746.895	160.25
747.079	104.96
747.264	203.26
747.449	287.23
747.634	315.9
747.819	383.48
748.003	182.78
748.188	186.88
748.373	256.51
748.557	246.27
748.742	244.22
748.927	154.11
749.111	129.53
749.296	223.74
749.481	330.23
749.665	209.4
749.85	135.68
750.034	225.79
750.219	225.79
750.404	229.88
750.588	180.73
750.773	139.77
750.957	147.97
751.141	178.69
751.326	193.02
751.51	131.58
751.695	186.88
751.879	223.74
752.064	258.56
752.248	180.73
752.432	293.37
752.617	168.45
752.801	227.84
752.985	147.97
753.17	248.32
753.354	207.36
753.538	205.31
753.722	109.05
753.907	141.82
754.091	137.73
754.275	135.68
754.459	131.58
754.643	94.72
754.828	178.69
755.012	195.07
755.196	88.57
755.38	180.73
755.564	96.77
755.748	236.03
755.932	152.06
756.116	186.88
756.3	147.97
756.484	145.92
756.668	190.97
756.852	107.01
757.036	152.06
757.22	184.83
757.404	98.81
757.588	68.09
757.772	127.49
757.956	102.91
758.14	229.88
758.323	115.2
758.507	139.77
758.691	150.01
758.875	233.98
759.059	256.51
759.242	172.54
759.426	96.77
759.61	113.15
759.794	113.15
759.977	205.31
760.161	373.24
760.345	178.69
760.528	219.64
760.712	156.16
760.895	172.54
761.079	107.01
761.263	113.15
761.446	59.9
761.63	64
761.813	176.64
761.997	70.14
762.18	162.3
762.364	152.06
762.547	27.14
762.731	111.1
762.914	147.97
763.098	76.29
763.281	207.36
763.464	131.58
763.648	104.96
763.831	113.15
764.015	25.09
764.198	176.64
764.381	156.16
764.564	143.87
764.748	164.35
764.931	176.64
765.114	51.71
765.297	236.03
765.481	57.86
765.664	90.62
765.847	51.71
766.03	256.51
766.213	23.04
766.397	94.72
766.58	39.42
766.763	119.29
766.946	115.2
767.129	102.91
767.312	66.05
767.495	121.34
767.678	64
767.861	139.77
768.044	94.72
768.227	53.76
768.41	115.2
768.593	199.16
768.776	119.29
768.959	74.24
769.142	147.97
769.324	123.39
769.507	37.38
769.69	111.1
769.873	80.38
770.056	250.36
770.239	23.04
770.421	145.92
770.604	82.43
770.787	94.72
770.97	123.39
771.152	80.38
771.335	176.64
771.518	80.38
771.7	207.36
771.883	104.96
772.066	0.51
772.248	90.62
772.431	164.35
772.613	137.73
772.796	111.1
772.978	88.57
773.161	211.45
773.343	20.99
773.526	94.72
773.708	-40.45
773.891	-17.92
774.073	102.91
774.256	33.28
774.438	215.55
774.621	31.23
774.803	102.91
774.985	94.72
775.168	94.72
775.35	84.48
775.532	59.9
775.715	57.86
775.897	98.81
776.079	57.86
776.261	180.73
776.444	145.92
776.626	57.86
776.808	100.86
776.99	74.24
777.173	88.57
777.355	88.57
777.537	66.05
777.719	104.96
777.901	55.81
778.083	10.75
778.265	29.18
778.447	104.96
778.629	80.38
778.811	137.73
778.993	90.62
779.175	-11.78
779.357	47.62
779.539	68.09
779.721	0.51
779.903	53.76
780.085	-9.73
780.267	78.33
780.449	76.29
780.631	160.25
780.812	102.91
780.994	53.76
781.176	43.52
781.358	10.75
781.54	27.14
781.721	80.38
781.903	88.57
782.085	8.7
782.267	113.15
782.448	-13.82
782.63	-50.69
782.812	6.66
782.993	84.48
783.175	78.33
783.357	-44.54
783.538	152.06
783.72	-5.63
783.901	90.62
784.083	61.95
784.264	109.05
784.446	-15.87
784.627	-22.02
784.809	121.34
784.99	68.09
785.172	45.57
785.353	0.51
785.535	59.9
785.716	-32.26
785.897	12.8
786.079	61.95
786.26	61.95
786.441	86.53
786.623	-46.59
786.804	-34.3
786.985	64
787.167	70.14
787.348	27.14
787.529	41.47
787.71	233.98
787.891	66.05
788.073	0.51
788.254	20.99
788.435	59.9
788.616	53.76
788.797	-24.06
788.978	88.57
789.159	37.38
789.34	51.71
789.522	-11.78
789.703	4.61
789.884	111.1
790.065	43.52
790.246	158.21
790.427	94.72
790.607	88.57
790.788	92.67
790.969	18.94
791.15	78.33
791.331	78.33
791.512	-19.97
791.693	-17.92
791.874	0.51
792.054	211.45
792.235	86.53
792.416	-9.73
792.597	39.42
792.778	43.52
792.958	23.04
793.139	88.57
793.32	6.66
793.5	-3.58
793.681	45.57
793.862	14.85
794.042	61.95
794.223	-81.41
794.404	66.05
794.584	-58.88
794.765	-17.92
794.945	37.38
795.126	25.09
795.306	78.33
795.487	-15.87
795.667	8.7
795.848	57.86
796.028	14.85
796.209	76.29
796.389	156.16
796.57	-5.63
796.75	47.62
796.93	88.57
797.111	-44.54
797.291	-40.45
797.471	107.01
797.652	45.57
797.832	-67.07
798.012	86.53
798.192	-19.97
798.373	12.8
798.553	37.38
798.733	-52.74
798.913	-58.88
799.093	25.09
799.274	-42.5
799.454	139.77
799.634	98.81
799.814	111.1
799.994	152.06
800.174	76.29
800.354	6.66
800.534	-32.26
800.714	80.38
800.894	-26.11
801.074	-67.07
801.254	45.57
801.434	18.94
801.614	66.05
801.794	6.66
801.974	1569.26
802.154	64
802.334	64
802.514	-3.58
802.693	41.47
802.873	-5.63
803.053	78.33
803.233	98.81
803.413	8.7
803.592	-9.73
803.772	-28.16
803.952	16.9
804.131	-58.88
804.311	82.43
804.491	88.57
804.67	-3.58
804.85	-77.31
805.03	80.38
805.209	135.68
805.389	14.85
805.568	-62.98
805.748	8.7
805.928	76.29
806.107	37.38
806.287	45.57
806.466	55.81
806.646	12.8
806.825	55.81
807.004	6.66
807.184	29.18
807.363	18.94
807.543	82.43
807.722	4.61
807.901	107.01
808.081	145.92
808.26	-146.94
808.439	8.7
808.619	-9.73
808.798	-7.68
808.977	66.05
809.156	39.42
809.336	47.62
809.515	72.19
809.694	-65.02
809.873	-3.58
810.052	129.53
810.231	33.28
810.411	35.33
810.59	29.18
810.769	-3.58
810.948	2.56
811.127	-34.3
811.306	-105.98
811.485	12.8
811.664	172.54
811.843	61.95
812.022	0.51
812.201	-28.16
812.38	12.8
812.559	-48.64
812.737	80.38
812.916	-83.45
813.095	2.56
813.274	119.29
813.453	18.94
813.632	8.7
813.811	72.19
813.989	-44.54
814.168	41.47
814.347	-19.97
814.526	-19.97
814.704	164.35
814.883	102.91
815.062	-60.93
815.24	45.57
815.419	-3.58
815.598	80.38
815.776	-122.37
815.955	-7.68
816.133	-48.64
816.312	12.8
816.49	-15.87
816.669	-15.87
816.847	-30.21
817.026	66.05
817.204	-7.68
817.383	-44.54
817.561	-77.31
817.74	-1.54
817.918	-58.88
818.097	-32.26
818.275	29.18
818.453	-9.73
818.632	96.77
818.81	0.51
818.988	53.76
819.167	-48.64
819.345	39.42
819.523	-38.4
819.701	27.14
819.879	78.33
820.058	72.19
820.236	4.61
820.414	23.04
820.592	-50.69
820.77	27.14
820.948	-22.02
821.127	4.61
821.305	41.47
821.483	-85.5
821.661	49.66
821.839	45.57
822.017	-89.6
822.195	-17.92
822.373	33.28
822.551	6.66
822.729	111.1
822.907	33.28
823.085	86.53
823.262	41.47
823.44	-99.84
823.618	-11.78
823.796	39.42
823.974	-28.16
824.152	-3.58
824.329	37.38
824.507	102.91
824.685	-56.83
824.863	-1.54
825.04	6.66
825.218	41.47
825.396	16.9
825.574	35.33
825.751	-1.54
825.929	25.09
826.107	-26.11
826.284	-54.78
826.462	41.47
826.639	-62.98
826.817	-11.78
826.994	86.53
827.172	-108.03
827.349	78.33
827.527	41.47
827.704	6.66
827.882	51.71
828.059	49.66
828.237	33.28
828.414	98.81
828.591	-87.55
828.769	74.24
828.946	-52.74
829.124	64
829.301	115.2
829.478	-32.26
829.655	41.47
829.833	-9.73
830.01	-65.02
830.187	45.57
830.364	16.9
830.542	45.57
830.719	107.01
830.896	39.42
831.073	98.81
831.25	14.85
831.427	57.86
831.604	18.94
831.782	47.62
831.959	-5.63
832.136	-28.16
832.313	47.62
832.49	-77.31
832.667	-75.26
832.844	-32.26
833.021	53.76
833.198	86.53
833.374	74.24
833.551	90.62
833.728	-40.45
833.905	102.91
834.082	-65.02
834.259	41.47
834.436	61.95
834.612	-77.31
834.789	49.66
834.966	35.33
835.143	43.52
835.319	-32.26
835.496	64
835.673	2.56
835.85	92.67
836.026	47.62
836.203	4.61
836.38	-67.07
836.556	-5.63
836.733	-17.92
836.909	70.14
837.086	20.99
837.262	-114.17
837.439	64
837.616	-1.54
837.792	-15.87
837.968	10.75
838.145	-77.31
838.321	35.33
838.498	41.47
838.674	25.09
838.851	94.72
839.027	-58.88
839.203	14.85
839.38	-7.68
839.556	-56.83
839.732	55.81
839.909	6.66
840.085	55.81
840.261	-7.68
840.437	8.7
840.614	-40.45
840.79	51.71
840.966	49.66
841.142	-28.16
841.318	-56.83
841.494	0.51
841.671	94.72
841.847	-46.59
842.023	-17.92
842.199	29.18
842.375	57.86
842.551	-120.32
842.727	-93.69
842.903	78.33
843.079	-15.87
843.255	121.34
843.431	-58.88
843.607	41.47
843.783	-116.22
843.959	45.57
844.134	-93.69
844.31	53.76
844.486	-19.97
844.662	-1.54
844.838	4.61
845.013	18.94
845.189	82.43
845.365	-13.82
845.541	16.9
845.716	25.09
845.892	2.56
846.068	-50.69
846.244	-46.59
846.419	45.57
846.595	-9.73
846.77	-79.36
846.946	-22.02
847.122	18.94
847.297	37.38
847.473	74.24
847.648	-99.84
847.824	-9.73
847.999	-77.31
848.175	23.04
848.35	16.9
848.526	94.72
848.701	31.23
848.876	18.94
849.052	70.14
849.227	25.09
849.403	16.9
849.578	4.61
849.753	74.24
849.929	45.57
850.104	-60.93
850.279	8.7
850.454	27.14
850.63	76.29
850.805	-9.73
850.98	-30.21
851.155	8.7
851.33	8.7
851.505	-91.65
851.681	88.57
851.856	-7.68
852.031	82.43
852.206	-24.06
852.381	-36.35
852.556	-44.54
852.731	6.66
852.906	74.24
853.081	-32.26
853.256	70.14
853.431	-81.41
853.606	-32.26
853.781	23.04
853.956	-67.07
854.131	47.62
854.305	-65.02
854.48	-99.84
854.655	-11.78
854.83	-81.41
855.005	8.7
855.18	41.47
855.354	-19.97
855.529	-13.82
855.704	-79.36
855.879	29.18
856.053	-73.21
856.228	25.09
856.403	-65.02
856.577	61.95
856.752	-60.93
856.926	-7.68
857.101	25.09
857.276	-52.74
857.45	64
857.625	25.09
857.799	-15.87
857.974	-73.21
858.148	-65.02
858.323	55.81
858.497	-69.12
858.672	4.61
858.846	-40.45
859.02	70.14
859.195	12.8
859.369	4.61
859.543	-22.02
859.718	10.75
859.892	53.76
860.066	-44.54
860.241	2.56
860.415	-89.6
860.589	23.04
860.763	-36.35
860.938	-13.82
861.112	12.8
861.286	-103.93
861.46	100.86
861.634	33.28
861.808	33.28
861.982	-69.12
862.157	0.51
862.331	-73.21
862.505	-48.64
862.679	-60.93
862.853	37.38
863.027	23.04
863.201	68.09
863.375	-48.64
863.549	-15.87
863.722	20.99
863.896	84.48
864.07	-91.65
864.244	-11.78
864.418	51.71
864.592	-3.58
864.766	25.09
864.939	29.18
865.113	-48.64
865.287	96.77
865.461	-122.37
865.634	-9.73
865.808	-36.35
865.982	-40.45
866.156	-73.21
866.329	-95.74
866.503	-79.36
866.676	16.9
866.85	41.47
867.024	25.09
867.197	4.61
867.371	6.66
867.544	47.62
867.718	-48.64
867.891	23.04
868.065	-44.54
868.238	-13.82
868.412	70.14
868.585	-32.26
868.759	-50.69
868.932	-62.98
869.105	-44.54
869.279	55.81
869.452	31.23
869.625	16.9
869.799	23.04
869.972	-32.26
870.145	-26.11
870.319	64
870.492	-5.63
870.665	39.42
870.838	-40.45
871.011	-97.79
871.185	-9.73
871.358	-81.41
871.531	16.9
871.704	-17.92
871.877	20.99
872.05	-54.78
872.223	-83.45
872.396	18.94
872.569	33.28
872.742	-65.02
872.915	-73.21
873.088	-22.02
873.261	-58.88
873.434	20.99
873.607	31.23
873.78	66.05
873.953	-54.78
874.126	10.75
874.299	84.48
874.471	-73.21
874.644	-19.97
874.817	-7.68
874.99	119.29
875.163	8.7
875.335	-11.78
875.508	-36.35
875.681	8.7
875.853	-110.08
876.026	0.51
876.199	-19.97
876.371	-9.73
876.544	-110.08
876.717	41.47
876.889	-38.4
877.062	33.28
877.234	-112.13
877.407	70.14
877.579	-114.17
877.752	-28.16
877.924	80.38
878.097	-3.58
878.269	4.61
878.442	35.33
878.614	25.09
878.786	31.23
878.959	-32.26
879.131	-15.87
879.303	-153.09
879.476	4.61
879.648	39.42
879.82	-81.41
879.993	14.85
880.165	-62.98
880.337	-24.06
880.509	16.9
880.681	-110.08
880.854	-3.58
881.026	41.47
881.198	215.55
881.37	-7.68
881.542	-17.92
881.714	-9.73
881.886	-67.07
882.058	14.85
882.23	39.42
882.402	16.9
882.574	49.66
882.746	64
882.918	92.67
883.09	-7.68
883.262	-26.11
883.434	-28.16
883.606	-38.4
883.778	-32.26
883.95	-1.54
884.122	70.14
884.293	33.28
884.465	-17.92
884.637	25.09
884.809	-44.54
884.98	59.9
885.152	37.38
885.324	-3.58
885.496	37.38
885.667	-36.35
885.839	-19.97
886.011	39.42
886.182	-11.78
886.354	68.09
886.525	33.28
886.697	-19.97
886.869	-56.83
887.04	0.51
887.212	121.34
887.383	86.53
887.555	49.66
887.726	-26.11
887.897	-67.07
888.069	-24.06
888.24	88.57
888.412	18.94
888.583	16.9
888.754	-58.88
888.926	-134.65
889.097	-28.16
889.268	-110.08
889.44	8.7
889.611	-62.98
889.782	-85.5
889.953	-50.69
890.125	64
890.296	-116.22
890.467	-62.98
890.638	-15.87
890.809	-24.06
890.98	-32.26
891.151	74.24
891.323	86.53
891.494	72.19
891.665	-38.4
891.836	49.66
892.007	-9.73
892.178	33.28
892.349	-26.11
892.52	12.8
892.691	-24.06
892.862	45.57
893.032	-118.27
893.203	-17.92
893.374	-30.21
893.545	31.23
893.716	-52.74
893.887	45.57
894.057	39.42
894.228	-7.68
894.399	-58.88
894.57	47.62
894.74	-9.73
894.911	82.43
895.082	4.61
895.253	-30.21
895.423	33.28
895.594	20.99
895.764	143.87
895.935	-24.06
896.106	90.62
896.276	-9.73
896.447	16.9
896.617	25.09
896.788	-36.35
896.958	-40.45
897.129	-50.69
897.299	-65.02
897.47	10.75
897.64	45.57
897.81	-3.58
897.981	84.48
898.151	16.9
898.322	-24.06
898.492	6.66
898.662	-9.73
898.832	37.38
899.003	0.51
899.173	39.42
899.343	-48.64
899.513	6.66
