Data from USB4F104151__5__11-24-14-209.txt Node

Date: Wed Feb 26 11:24:14 EST 2025
User: louis
Spectrometer: USB4F10415
Trigger mode: 4
Integration Time (sec): 1.000000E-1
Scans to average: 1
Electric dark correction enabled: true
Nonlinearity correction enabled: false
Boxcar width: 0
XAxis mode: Wavelengths
Number of Pixels in Spectrum: 3648
>>>>>Begin Spectral Data<<<<<
178.204	-366.42
178.424	-366.42
178.644	-366.42
178.864	-405.33
179.084	-393.04
179.304	22.7
179.524	-14.17
179.744	37.03
179.964	24.75
180.184	-51.03
180.404	-20.31
180.624	-59.22
180.844	-16.21
181.064	-16.21
181.283	30.89
181.503	-24.4
181.723	86.19
181.943	-5.97
182.163	166.06
182.383	-28.5
182.602	118.95
182.822	168.1
183.042	100.52
183.262	-10.07
183.482	22.7
183.701	94.38
183.921	6.31
184.141	8.36
184.361	112.81
184.58	114.86
184.8	94.38
185.02	-28.5
185.239	59.56
185.459	102.57
185.679	90.28
185.898	-36.69
186.118	37.03
186.338	112.81
186.557	172.2
186.777	43.18
186.997	24.75
187.216	22.7
187.436	202.92
187.655	63.66
187.875	139.43
188.095	26.79
188.314	188.58
188.534	98.47
188.753	-10.07
188.973	143.53
189.192	141.48
189.412	2.22
189.631	32.94
189.851	37.03
190.07	186.54
190.29	-36.69
190.509	-38.74
190.729	-22.36
190.948	172.2
191.168	254.12
191.387	77.99
191.607	-42.84
191.826	43.18
192.045	12.46
192.265	59.56
192.484	65.71
192.704	18.6
192.923	-145.24
193.142	254.12
193.362	104.62
193.581	135.34
193.8	116.9
194.02	18.6
194.239	71.85
194.458	80.04
194.678	61.61
194.897	-20.31
195.116	69.8
195.335	47.27
195.555	20.65
195.774	-48.98
195.993	84.14
196.212	98.47
196.432	6.31
196.651	32.94
196.87	59.56
197.089	217.26
197.308	59.56
197.528	34.99
197.747	-44.88
197.966	67.75
198.185	229.54
198.404	32.94
198.623	71.85
198.842	98.47
199.062	131.24
199.281	135.34
199.5	41.13
199.719	155.82
199.938	34.99
200.157	127.14
200.376	106.67
200.595	143.53
200.814	94.38
201.033	-14.17
201.252	102.57
201.471	157.86
201.69	114.86
201.909	51.37
202.128	131.24
202.347	155.82
202.566	22.7
202.785	-53.08
203.004	-26.45
203.223	264.36
203.442	102.57
203.661	-42.84
203.879	104.62
204.098	106.67
204.317	30.89
204.536	149.67
204.755	59.56
204.974	92.33
205.193	4.27
205.411	139.43
205.63	77.99
205.849	96.43
206.068	-12.12
206.287	-3.93
206.505	178.34
206.724	49.32
206.943	-42.84
207.162	-24.4
207.381	106.67
207.599	86.19
207.818	65.71
208.037	-16.21
208.255	-1.88
208.474	51.37
208.693	131.24
208.911	94.38
209.13	75.95
209.349	184.49
209.567	170.15
209.786	108.71
210.005	69.8
210.223	96.43
210.442	-94.04
210.661	22.7
210.879	84.14
211.098	14.51
211.316	55.47
211.535	88.23
211.753	30.89
211.972	143.53
212.191	39.08
212.409	129.19
212.628	92.33
212.846	28.84
213.065	67.75
213.283	135.34
213.502	86.19
213.72	16.55
213.938	45.23
214.157	53.42
214.375	178.34
214.594	18.6
214.812	90.28
215.031	-3.93
215.249	75.95
215.467	69.8
215.686	63.66
215.904	149.67
216.122	75.95
216.341	133.29
216.559	6.31
216.778	141.48
216.996	166.06
217.214	77.99
217.432	-5.97
217.651	-1.88
217.869	77.99
218.087	20.65
218.306	53.42
218.524	24.75
218.742	77.99
218.96	45.23
219.179	8.36
219.397	34.99
219.615	235.69
219.833	102.57
220.051	32.94
220.27	168.1
220.488	198.82
220.706	127.14
220.924	30.89
221.142	-26.45
221.36	45.23
221.578	24.75
221.796	92.33
222.015	-5.97
222.233	77.99
222.451	190.63
222.669	16.55
222.887	88.23
223.105	12.46
223.323	67.75
223.541	14.51
223.759	121
223.977	88.23
224.195	178.34
224.413	147.62
224.631	94.38
224.849	96.43
225.067	301.22
225.285	61.61
225.503	18.6
225.721	-30.55
225.939	49.32
226.157	116.9
226.375	170.15
226.592	-55.12
226.81	55.47
227.028	106.67
227.246	106.67
227.464	-1.88
227.682	69.8
227.9	59.56
228.117	190.63
228.335	94.38
228.553	82.09
228.771	47.27
228.989	63.66
229.206	92.33
229.424	49.32
229.642	-10.07
229.86	45.23
230.077	141.48
230.295	47.27
230.513	155.82
230.731	77.99
230.948	231.59
231.166	219.3
231.384	41.13
231.601	26.79
231.819	243.88
232.037	112.81
232.254	12.46
232.472	-5.97
232.689	-5.97
232.907	116.9
233.125	55.47
233.342	24.75
233.56	-42.84
233.777	98.47
233.995	49.32
234.213	69.8
234.43	106.67
234.648	106.67
234.865	-10.07
235.083	102.57
235.3	139.43
235.518	67.75
235.735	202.92
235.953	98.47
236.17	55.47
236.388	-59.22
236.605	24.75
236.822	123.05
237.04	116.9
237.257	71.85
237.475	2.22
237.692	92.33
237.909	96.43
238.127	39.08
238.344	92.33
238.562	41.13
238.779	-42.84
238.996	20.65
239.214	92.33
239.431	194.73
239.648	6.31
239.865	143.53
240.083	100.52
240.3	37.03
240.517	63.66
240.735	80.04
240.952	121
241.169	94.38
241.386	151.72
241.603	57.51
241.821	-22.36
242.038	200.87
242.255	94.38
242.472	-12.12
242.689	57.51
242.907	98.47
243.124	-1.88
243.341	-36.69
243.558	-30.55
243.775	-3.93
243.992	-10.07
244.209	139.43
244.426	170.15
244.643	90.28
244.86	12.46
245.078	151.72
245.295	75.95
245.512	88.23
245.729	86.19
245.946	94.38
246.163	102.57
246.38	63.66
246.597	114.86
246.814	69.8
247.031	49.32
247.248	96.43
247.464	125.1
247.681	12.46
247.898	127.14
248.115	112.81
248.332	61.61
248.549	170.15
248.766	127.14
248.983	69.8
249.2	67.75
249.417	143.53
249.633	4.27
249.85	127.14
250.067	51.37
250.284	45.23
250.501	121
250.717	114.86
250.934	-30.55
251.151	37.03
251.368	-10.07
251.585	47.27
251.801	77.99
252.018	-48.98
252.235	139.43
252.451	-28.5
252.668	2.22
252.885	178.34
253.102	123.05
253.318	71.85
253.535	63.66
253.752	-5.97
253.968	28.84
254.185	-59.22
254.401	63.66
254.618	57.51
254.835	-28.5
255.051	47.27
255.268	145.58
255.484	71.85
255.701	100.52
255.917	73.9
256.134	14.51
256.351	12.46
256.567	-57.17
256.784	45.23
257	-61.27
257.217	159.91
257.433	100.52
257.65	116.9
257.866	116.9
258.082	-71.51
258.299	39.08
258.515	94.38
258.732	84.14
258.948	-36.69
259.165	61.61
259.381	65.71
259.597	102.57
259.814	86.19
260.03	47.27
260.246	65.71
260.463	147.62
260.679	129.19
260.895	-1.88
261.112	106.67
261.328	30.89
261.544	49.32
261.761	143.53
261.977	18.6
262.193	-32.6
262.409	71.85
262.626	106.67
262.842	69.8
263.058	12.46
263.274	143.53
263.49	34.99
263.707	12.46
263.923	34.99
264.139	-55.12
264.355	63.66
264.571	96.43
264.787	73.9
265.004	166.06
265.22	4.27
265.436	16.55
265.652	-63.32
265.868	28.84
266.084	-34.64
266.3	53.42
266.516	22.7
266.732	172.2
266.948	90.28
267.164	8.36
267.38	108.71
267.596	90.28
267.812	194.73
268.028	88.23
268.244	47.27
268.46	47.27
268.676	-22.36
268.892	30.89
269.108	-26.45
269.324	14.51
269.54	-63.32
269.756	194.73
269.972	-14.17
270.188	-32.6
270.403	30.89
270.619	34.99
270.835	131.24
271.051	86.19
271.267	-5.97
271.483	-20.31
271.698	129.19
271.914	100.52
272.13	176.3
272.346	77.99
272.562	61.61
272.777	147.62
272.993	86.19
273.209	-1.88
273.425	127.14
273.64	8.36
273.856	37.03
274.072	4.27
274.287	-16.21
274.503	129.19
274.719	106.67
274.934	-18.26
275.15	-75.6
275.366	2.22
275.581	26.79
275.797	61.61
276.012	65.71
276.228	2.22
276.444	47.27
276.659	161.96
276.875	14.51
277.09	57.51
277.306	-34.64
277.521	92.33
277.737	43.18
277.952	39.08
278.168	-8.02
278.383	39.08
278.599	51.37
278.814	41.13
279.03	39.08
279.245	170.15
279.461	43.18
279.676	149.67
279.892	-20.31
280.107	4.27
280.322	34.99
280.538	61.61
280.753	-10.07
280.969	92.33
281.184	12.46
281.399	131.24
281.615	67.75
281.83	129.19
282.045	-46.93
282.26	10.41
282.476	73.9
282.691	67.75
282.906	88.23
283.122	37.03
283.337	51.37
283.552	30.89
283.767	45.23
283.983	121
284.198	86.19
284.413	49.32
284.628	71.85
284.843	77.99
285.058	98.47
285.274	34.99
285.489	-110.42
285.704	112.81
285.919	8.36
286.134	26.79
286.349	22.7
286.564	-16.21
286.779	125.1
286.995	-32.6
287.21	4.27
287.425	12.46
287.64	16.55
287.855	77.99
288.07	80.04
288.285	168.1
288.5	131.24
288.715	75.95
288.93	65.71
289.145	12.46
289.36	147.62
289.575	28.84
289.79	94.38
290.004	-14.17
290.219	82.09
290.434	-8.02
290.649	-12.12
290.864	20.65
291.079	-3.93
291.294	49.32
291.509	34.99
291.724	82.09
291.938	47.27
292.153	84.14
292.368	30.89
292.583	106.67
292.798	110.76
293.012	34.99
293.227	47.27
293.442	41.13
293.657	67.75
293.871	133.29
294.086	147.62
294.301	161.96
294.516	116.9
294.73	-10.07
294.945	-51.03
295.16	4.27
295.374	145.58
295.589	100.52
295.804	51.37
296.018	30.89
296.233	135.34
296.447	123.05
296.662	-22.36
296.877	172.2
297.091	108.71
297.306	30.89
297.52	108.71
297.735	57.51
297.949	178.34
298.164	-24.4
298.378	47.27
298.593	16.55
298.807	34.99
299.022	37.03
299.236	164.01
299.451	22.7
299.665	63.66
299.88	18.6
300.094	100.52
300.309	71.85
300.523	77.99
300.737	104.62
300.952	49.32
301.166	77.99
301.381	-46.93
301.595	41.13
301.809	129.19
302.024	59.56
302.238	22.7
302.452	161.96
302.667	-16.21
302.881	55.47
303.095	110.76
303.309	-12.12
303.524	10.41
303.738	47.27
303.952	65.71
304.166	100.52
304.381	-89.94
304.595	194.73
304.809	2.22
305.023	80.04
305.237	-63.32
305.452	49.32
305.666	106.67
305.88	14.51
306.094	82.09
306.308	47.27
306.522	161.96
306.736	104.62
306.95	123.05
307.164	73.9
307.379	106.67
307.593	86.19
307.807	90.28
308.021	178.34
308.235	114.86
308.449	-65.36
308.663	67.75
308.877	223.4
309.091	69.8
309.305	69.8
309.519	-122.71
309.733	94.38
309.947	12.46
310.161	182.44
310.374	67.75
310.588	182.44
310.802	-16.21
311.016	51.37
311.23	34.99
311.444	-14.17
311.658	10.41
311.872	161.96
312.085	110.76
312.299	114.86
312.513	141.48
312.727	32.94
312.941	-18.26
313.154	26.79
313.368	94.38
313.582	47.27
313.796	112.81
314.009	-30.55
314.223	90.28
314.437	147.62
314.651	90.28
314.864	6.31
315.078	6.31
315.292	-71.51
315.505	82.09
315.719	34.99
315.933	57.51
316.146	-14.17
316.36	6.31
316.573	102.57
316.787	118.95
317.001	112.81
317.214	-18.26
317.428	37.03
317.641	51.37
317.855	59.56
318.068	51.37
318.282	69.8
318.495	202.92
318.709	90.28
318.922	88.23
319.136	143.53
319.349	184.49
319.563	49.32
319.776	96.43
319.99	-20.31
320.203	10.41
320.417	20.65
320.63	53.42
320.843	153.77
321.057	39.08
321.27	-1.88
321.483	96.43
321.697	225.45
321.91	61.61
322.124	137.38
322.337	155.82
322.55	-1.88
322.763	112.81
322.977	-10.07
323.19	32.94
323.403	69.8
323.617	86.19
323.83	172.2
324.043	26.79
324.256	-5.97
324.469	-14.17
324.683	80.04
324.896	26.79
325.109	-18.26
325.322	24.75
325.535	88.23
325.748	82.09
325.962	28.84
326.175	34.99
326.388	108.71
326.601	104.62
326.814	75.95
327.027	30.89
327.24	131.24
327.453	-40.79
327.666	102.57
327.879	96.43
328.092	129.19
328.305	67.75
328.518	63.66
328.731	12.46
328.944	-53.08
329.157	71.85
329.37	-38.74
329.583	211.11
329.796	123.05
330.009	-57.17
330.222	110.76
330.435	123.05
330.648	92.33
330.861	92.33
331.073	24.75
331.286	164.01
331.499	133.29
331.712	-26.45
331.925	37.03
332.138	20.65
332.35	149.67
332.563	39.08
332.776	147.62
332.989	51.37
333.202	12.46
333.414	47.27
333.627	65.71
333.84	82.09
334.053	114.86
334.265	43.18
334.478	0.17
334.691	51.37
334.903	55.47
335.116	-30.55
335.329	71.85
335.541	82.09
335.754	196.78
335.966	-38.74
336.179	92.33
336.392	45.23
336.604	47.27
336.817	127.14
337.029	129.19
337.242	-10.07
337.454	96.43
337.667	73.9
337.88	118.95
338.092	45.23
338.305	73.9
338.517	0.17
338.729	80.04
338.942	164.01
339.154	24.75
339.367	20.65
339.579	116.9
339.792	-22.36
340.004	141.48
340.217	123.05
340.429	69.8
340.641	-3.93
340.854	20.65
341.066	61.61
341.278	161.96
341.491	204.97
341.703	57.51
341.915	-34.64
342.128	129.19
342.34	51.37
342.552	-71.51
342.764	0.17
342.977	-22.36
343.189	-34.64
343.401	20.65
343.613	-26.45
343.826	92.33
344.038	-24.4
344.25	80.04
344.462	-59.22
344.674	30.89
344.886	102.57
345.099	55.47
345.311	57.51
345.523	2.22
345.735	-10.07
345.947	86.19
346.159	59.56
346.371	26.79
346.583	73.9
346.795	235.69
347.007	22.7
347.219	123.05
347.431	0.17
347.643	131.24
347.855	98.47
348.067	211.11
348.279	-30.55
348.491	32.94
348.703	88.23
348.915	67.75
349.127	16.55
349.339	65.71
349.551	22.7
349.763	147.62
349.975	106.67
350.187	104.62
350.399	151.72
350.61	106.67
350.822	-3.93
351.034	57.51
351.246	45.23
351.458	51.37
351.669	118.95
351.881	102.57
352.093	75.95
352.305	108.71
352.517	131.24
352.728	88.23
352.94	166.06
353.152	123.05
353.363	-28.5
353.575	39.08
353.787	159.91
353.999	100.52
354.21	170.15
354.422	37.03
354.633	53.42
354.845	55.47
355.057	39.08
355.268	43.18
355.48	45.23
355.692	16.55
355.903	-3.93
356.115	-48.98
356.326	-1.88
356.538	186.54
356.749	153.77
356.961	219.3
357.172	55.47
357.384	-8.02
357.595	186.54
357.807	20.65
358.018	47.27
358.23	51.37
358.441	204.97
358.653	137.38
358.864	-5.97
359.075	-16.21
359.287	86.19
359.498	133.29
359.709	30.89
359.921	88.23
360.132	55.47
360.344	-38.74
360.555	16.55
360.766	49.32
360.977	4.27
361.189	118.95
361.4	39.08
361.611	196.78
361.823	43.18
362.034	63.66
362.245	-77.65
362.456	-67.41
362.667	110.76
362.879	-3.93
363.09	51.37
363.301	84.14
363.512	98.47
363.723	-3.93
363.935	-44.88
364.146	102.57
364.357	53.42
364.568	86.19
364.779	-51.03
364.99	104.62
365.201	14.51
365.412	123.05
365.623	-73.56
365.834	39.08
366.045	75.95
366.256	139.43
366.467	65.71
366.678	43.18
366.889	77.99
367.1	82.09
367.311	75.95
367.522	34.99
367.733	159.91
367.944	141.48
368.155	75.95
368.366	237.74
368.577	170.15
368.788	137.38
368.999	-63.32
369.209	28.84
369.42	235.69
369.631	247.97
369.842	28.84
370.053	12.46
370.264	135.34
370.474	43.18
370.685	100.52
370.896	32.94
371.107	129.19
371.317	80.04
371.528	106.67
371.739	135.34
371.95	153.77
372.16	159.91
372.371	-46.93
372.582	-10.07
372.792	49.32
373.003	137.38
373.214	112.81
373.424	204.97
373.635	-5.97
373.846	137.38
374.056	-5.97
374.267	53.42
374.477	98.47
374.688	22.7
374.898	94.38
375.109	102.57
375.319	61.61
375.53	112.81
375.74	92.33
375.951	-28.5
376.161	80.04
376.372	82.09
376.582	-32.6
376.793	172.2
377.003	-18.26
377.214	-38.74
377.424	80.04
377.635	61.61
377.845	-20.31
378.055	301.22
378.266	-71.51
378.476	71.85
378.686	82.09
378.897	53.42
379.107	129.19
379.317	77.99
379.528	67.75
379.738	129.19
379.948	-10.07
380.158	184.49
380.369	30.89
380.579	82.09
380.789	-3.93
380.999	67.75
381.21	67.75
381.42	252.07
381.63	98.47
381.84	139.43
382.05	57.51
382.261	94.38
382.471	164.01
382.681	12.46
382.891	153.77
383.101	129.19
383.311	-10.07
383.521	43.18
383.731	61.61
383.941	92.33
384.151	110.76
384.361	6.31
384.571	123.05
384.781	102.57
384.991	178.34
385.201	252.07
385.411	82.09
385.621	96.43
385.831	34.99
386.041	45.23
386.251	100.52
386.461	182.44
386.671	4.27
386.881	6.31
387.091	43.18
387.301	92.33
387.511	67.75
387.72	22.7
387.93	10.41
388.14	24.75
388.35	45.23
388.56	243.88
388.769	149.67
388.979	16.55
389.189	28.84
389.399	73.9
389.609	100.52
389.818	77.99
390.028	63.66
390.238	112.81
390.447	10.41
390.657	96.43
390.867	43.18
391.076	-67.41
391.286	39.08
391.496	84.14
391.705	114.86
391.915	110.76
392.125	106.67
392.334	55.47
392.544	92.33
392.753	57.51
392.963	39.08
393.172	26.79
393.382	102.57
393.591	188.58
393.801	51.37
394.01	254.12
394.22	143.53
394.429	47.27
394.639	94.38
394.848	65.71
395.058	84.14
395.267	-8.02
395.477	155.82
395.686	53.42
395.895	227.5
396.105	194.73
396.314	73.9
396.524	53.42
396.733	57.51
396.942	151.72
397.152	73.9
397.361	96.43
397.57	49.32
397.78	129.19
397.989	170.15
398.198	190.63
398.407	82.09
398.617	45.23
398.826	39.08
399.035	57.51
399.244	106.67
399.453	61.61
399.663	104.62
399.872	86.19
400.081	61.61
400.29	209.06
400.499	69.8
400.708	133.29
400.917	-26.45
401.127	94.38
401.336	55.47
401.545	225.45
401.754	125.1
401.963	116.9
402.172	49.32
402.381	43.18
402.59	-69.46
402.799	100.52
403.008	129.19
403.217	73.9
403.426	8.36
403.635	-122.71
403.844	30.89
404.053	-3.93
404.262	82.09
404.471	202.92
404.68	198.82
404.888	45.23
405.097	16.55
405.306	-3.93
405.515	108.71
405.724	22.7
405.933	106.67
406.142	49.32
406.35	178.34
406.559	-34.64
406.768	131.24
406.977	110.76
407.185	94.38
407.394	106.67
407.603	-10.07
407.812	73.9
408.02	131.24
408.229	80.04
408.438	112.81
408.646	-38.74
408.855	-16.21
409.064	116.9
409.272	51.37
409.481	106.67
409.69	69.8
409.898	-44.88
410.107	86.19
410.315	73.9
410.524	-57.17
410.733	69.8
410.941	49.32
411.15	39.08
411.358	116.9
411.567	186.54
411.775	59.56
411.984	110.76
412.192	147.62
412.401	-28.5
412.609	204.97
412.818	108.71
413.026	108.71
413.234	24.75
413.443	34.99
413.651	53.42
413.86	67.75
414.068	180.39
414.276	235.69
414.485	-53.08
414.693	137.38
414.901	192.68
415.11	96.43
415.318	116.9
415.526	80.04
415.734	192.68
415.943	96.43
416.151	172.2
416.359	135.34
416.567	55.47
416.776	141.48
416.984	108.71
417.192	225.45
417.4	65.71
417.608	41.13
417.817	34.99
418.025	49.32
418.233	82.09
418.441	20.65
418.649	-69.46
418.857	135.34
419.065	194.73
419.273	159.91
419.481	127.14
419.689	51.37
419.897	69.8
420.105	-5.97
420.313	184.49
420.521	209.06
420.729	184.49
420.937	24.75
421.145	-36.69
421.353	116.9
421.561	166.06
421.769	131.24
421.977	37.03
422.185	98.47
422.393	43.18
422.601	168.1
422.809	71.85
423.017	53.42
423.224	88.23
423.432	67.75
423.64	18.6
423.848	202.92
424.056	22.7
424.263	211.11
424.471	69.8
424.679	243.88
424.887	100.52
425.094	161.96
425.302	112.81
425.51	61.61
425.718	131.24
425.925	133.29
426.133	94.38
426.341	116.9
426.548	75.95
426.756	8.36
426.964	235.69
427.171	110.76
427.379	55.47
427.586	114.86
427.794	104.62
428.001	133.29
428.209	108.71
428.417	182.44
428.624	110.76
428.832	149.67
429.039	151.72
429.247	110.76
429.454	157.86
429.662	313.51
429.869	164.01
430.076	84.14
430.284	174.25
430.491	178.34
430.699	125.1
430.906	256.17
431.114	161.96
431.321	172.2
431.528	131.24
431.736	180.39
431.943	188.58
432.15	223.4
432.358	184.49
432.565	317.61
432.772	63.66
432.979	204.97
433.187	231.59
433.394	264.36
433.601	159.91
433.808	215.21
434.016	276.65
434.223	293.03
434.43	243.88
434.637	286.89
434.844	268.45
435.052	227.5
435.259	270.5
435.466	366.76
435.673	293.03
435.88	225.45
436.087	424.1
436.294	360.61
436.501	262.31
436.708	354.47
436.915	325.8
437.122	356.52
437.329	260.26
437.537	374.95
437.743	381.09
437.95	485.54
438.157	413.86
438.364	415.91
438.571	434.34
438.778	458.92
438.985	536.74
439.192	501.92
439.399	563.36
439.606	469.16
439.813	528.55
440.02	632.99
440.227	698.53
440.433	598.18
440.64	536.74
440.847	491.68
441.054	596.13
441.261	735.39
441.467	673.95
441.674	622.75
441.881	716.96
442.088	657.57
442.294	755.87
442.501	821.41
442.708	792.73
442.914	811.17
443.121	852.13
443.328	932
443.534	1003.68
443.741	925.85
443.948	893.09
444.154	1015.96
444.361	1261.72
444.568	1124.51
444.774	1101.98
444.981	1130.65
445.187	1247.38
445.394	1179.8
445.6	1269.91
445.807	1341.59
446.013	1374.36
446.22	1251.48
446.426	1472.66
446.633	1425.56
446.839	1687.7
447.046	1544.34
447.252	1704.08
447.459	1679.51
447.665	1691.79
447.871	1892.49
448.078	2101.39
448.284	2019.47
448.491	2191.5
448.697	2070.67
448.903	2242.7
449.11	2355.33
449.316	2273.42
449.522	2457.73
449.728	2617.47
449.935	2533.51
450.141	2746.5
450.347	2848.9
450.553	2918.53
450.76	2934.91
450.966	3059.84
451.172	3131.51
451.378	3317.88
451.584	3235.96
451.791	3580.02
451.997	3719.28
452.203	3752.05
452.409	3967.09
452.615	4173.93
452.821	3993.71
453.027	4075.63
453.233	4565.09
453.44	4255.85
453.646	4579.43
453.852	4745.31
454.058	4943.97
454.264	5007.45
454.47	5511.25
454.676	5480.54
454.882	5972.05
455.088	5703.76
455.294	6000.72
455.5	6246.48
455.705	6807.62
455.911	6987.84
456.117	6934.59
456.323	7149.63
456.529	7231.55
456.735	7782.45
456.941	7927.86
457.147	8396.84
457.352	8583.21
457.558	8763.43
457.764	9308.19
457.97	9603.1
458.176	10086.42
458.381	10471.43
458.587	10588.17
458.793	11120.64
458.999	11399.16
459.204	12742.63
459.41	13283.3
459.616	12842.98
459.821	13367.26
460.027	13862.87
460.233	14761.93
460.438	14952.39
460.644	15585.21
460.85	15923.13
461.055	16519.09
461.261	17203.11
461.466	16953.26
461.672	17424.29
461.878	19425.15
462.083	19013.51
462.289	19464.07
462.494	20219.77
462.7	20350.84
462.905	20823.92
463.111	22476.63
463.316	23588.67
463.522	23719.74
463.727	24559.41
463.932	25534.25
464.138	26664.72
464.343	27827.97
464.549	27434.76
464.754	29677.29
464.959	30394.07
465.165	30818
465.37	30654.17
465.575	30734.04
465.781	32683.7
465.986	33627.82
466.191	33050.29
466.397	33660.59
466.602	32403.13
466.807	34803.35
467.012	35151.51
467.218	35817.1
467.423	36122.24
467.628	36650.62
467.833	39042.65
468.038	38245.99
468.244	37461.62
468.449	39341.65
468.654	38497.89
468.859	38770.27
469.064	38461.02
469.269	37858.92
469.474	38094.44
469.679	39378.51
469.885	37695.08
470.09	38327.91
470.295	38676.06
470.5	37791.34
470.705	38258.27
470.91	37248.63
471.115	37015.16
471.32	37271.15
471.525	37299.83
471.73	35978.89
471.935	35829.38
472.139	34481.82
472.344	34668.19
472.549	34367.13
472.754	33916.58
472.959	33021.62
473.164	31971.01
473.369	31327.95
473.574	32095.94
473.778	31854.28
473.983	30895.83
474.188	30625.5
474.393	29527.78
474.598	29322.99
474.802	28215.04
475.007	28016.38
475.212	27776.77
475.417	26330.9
475.621	26341.14
475.826	26074.91
476.031	25132.84
476.235	25020.2
476.44	25452.33
476.645	24737.59
476.849	24338.23
477.054	23940.93
477.259	23017.29
477.463	23179.08
477.668	22429.52
477.872	22652.75
478.077	21974.88
478.282	21473.12
478.486	20989.8
478.691	20744.05
478.895	20811.63
479.1	20340.6
479.304	20385.65
479.509	19615.62
479.713	20197.24
479.918	19664.77
480.122	18984.84
480.326	19326.85
480.531	19218.31
480.735	18773.9
480.94	18763.66
481.144	19240.84
481.348	18081.69
481.553	18309.01
481.757	17901.47
481.961	18038.68
482.166	18259.86
482.37	17639.33
482.574	17459.1
482.778	17373.09
482.983	17543.07
483.187	17336.23
483.391	17049.51
483.595	16791.47
483.8	16934.82
484.004	16813.99
484.208	16979.88
484.412	16668.59
484.616	16617.39
484.821	16013.24
485.025	15722.43
485.229	15781.82
485.433	15480.77
485.637	15474.62
485.841	15159.24
486.045	14964.68
486.249	14880.71
486.453	14540.75
486.657	14434.25
486.861	14309.33
487.065	13733.85
487.269	13668.31
487.473	13305.82
487.677	13580.25
487.881	13484
488.085	12955.62
488.289	12931.05
488.493	12390.38
488.697	12441.58
488.901	12066.8
489.105	11788.28
489.309	11651.06
489.512	11472.89
489.716	11155.46
489.92	10901.51
490.124	10805.25
490.328	10788.87
490.531	10747.91
490.735	10362.89
490.939	10154
491.143	9852.95
491.346	9633.82
491.55	9709.59
491.754	9814.04
491.958	9353.24
492.161	9191.45
492.365	9064.48
492.569	8976.42
492.772	8722.47
492.976	8726.57
493.18	8568.87
493.383	8566.82
493.587	8370.22
493.79	8536.1
493.994	8101.94
494.197	8005.68
494.401	8106.03
494.605	7925.81
494.808	7905.33
495.012	7870.51
495.215	7827.51
495.419	7999.54
495.622	7641.14
495.825	7501.88
496.029	7524.41
496.232	7491.64
496.436	7495.74
496.639	7657.53
496.843	7405.63
497.046	7514.17
497.249	7575.61
497.453	7413.82
497.656	7598.13
497.859	7413.82
498.063	7409.72
498.266	7721.01
498.469	7495.74
498.673	7546.94
498.876	7759.92
499.079	7768.12
499.282	7526.46
499.485	7956.53
499.689	7665.72
499.892	7714.87
500.095	7749.68
500.298	7913.52
500.501	7862.32
500.705	8032.3
500.908	8130.61
501.111	8292.4
501.314	8290.35
501.517	8288.3
501.72	8460.33
501.923	8382.51
502.126	8470.57
502.329	8712.23
502.532	8632.36
502.735	8837.16
502.938	8888.36
503.141	8900.64
503.344	9089.06
503.547	9297.95
503.75	9334.81
503.953	9410.59
504.156	9605.14
504.359	9459.74
504.562	9717.78
504.765	9871.38
504.968	9984.02
505.17	10139.66
505.373	10254.35
505.576	10588.17
505.779	10649.61
505.982	10758.15
506.185	11036.67
506.387	11317.25
506.59	11356.16
506.793	11628.54
506.996	11610.11
507.198	12175.34
507.401	12347.37
507.604	12472.3
507.807	12810.22
508.009	13015.01
508.212	13090.79
508.415	13473.76
508.617	13772.76
508.82	13797.34
509.022	14219.22
509.225	14839.75
509.428	14796.74
509.63	15284.16
509.833	15417.28
510.035	16054.2
510.238	16283.57
510.44	16510.89
510.643	16521.13
510.845	17381.28
511.048	17682.33
511.25	17923.99
511.453	18161.56
511.655	19234.69
511.858	19156.87
512.06	19787.64
512.262	19877.76
512.465	20066.17
512.667	20846.44
512.87	21124.97
513.072	21870.43
513.274	22335.32
513.477	22751.06
513.679	23480.13
513.881	24178.49
514.084	24436.53
514.286	24983.34
514.488	25163.56
514.69	26363.67
514.893	26529.56
515.095	26976.02
515.297	27393.8
515.499	28159.74
515.701	28509.94
515.904	29116.14
516.106	29988.58
516.308	30619.35
516.51	31004.37
516.712	31661.77
516.914	32003.78
517.116	33289.9
517.318	33341.1
517.52	34246.3
517.722	34872.98
517.925	35266.19
518.127	36046.47
518.329	36851.32
518.531	36814.46
518.733	37662.32
518.935	38735.45
519.136	38846.04
519.338	39824.97
519.54	40302.15
519.742	40953.4
519.944	41455.15
520.146	42386.98
520.348	42866.2
520.55	43298.33
520.752	43603.47
520.954	44539.4
521.155	44856.83
521.357	45006.33
521.559	45657.59
521.761	46104.04
521.963	46401
522.164	47492.57
522.366	47353.3
522.568	48197.07
522.77	48240.07
522.971	49450.42
523.173	48668.1
523.375	49350.07
523.576	49302.97
523.778	49343.93
523.98	49900.98
524.181	50408.87
524.383	50247.08
524.584	50793.89
524.786	50679.21
524.988	50746.79
525.189	51309.98
525.391	50955.68
525.592	51424.67
525.794	51133.85
525.995	51365.27
526.197	51201.44
526.398	50843.04
526.6	50945.44
526.801	50834.85
527.003	50447.78
527.204	50806.18
527.406	50634.15
527.607	50275.76
527.808	50593.19
528.01	49262.01
528.211	49726.9
528.412	49683.89
528.614	49126.85
528.815	49059.26
529.016	49313.21
529.218	48260.55
529.419	47865.3
529.62	47490.52
529.822	46740.96
530.023	46540.26
530.224	46214.63
530.425	46032.36
530.626	45370.87
530.828	44561.92
531.029	45067.77
531.23	43714.06
531.431	43017.75
531.632	43183.64
531.833	42712.61
532.035	42124.84
532.236	41844.27
532.437	41297.46
532.638	40408.64
532.839	40195.65
533.04	40062.54
533.241	39079.51
533.442	39188.05
533.643	38485.6
533.844	37846.63
534.045	37738.09
534.246	36599.42
534.447	36425.34
534.648	35997.32
534.849	35671.69
535.05	34746.01
535.251	34725.53
535.451	33959.59
535.652	33701.54
535.853	32900.79
536.054	32827.06
536.255	32517.82
536.456	31616.71
536.657	31856.32
536.857	31049.42
537.058	30484.19
537.259	30230.24
537.46	29951.71
537.66	29210.35
537.861	29071.09
538.062	28411.64
538.263	28188.41
538.463	28221.18
538.664	27479.82
538.865	27262.73
539.065	26990.35
539.266	26439.45
539.466	26472.21
539.667	25665.32
539.868	25620.26
540.068	25526.05
540.269	24844.08
540.469	24940.33
540.67	24682.29
540.87	24143.67
541.071	23713.6
541.271	23721.79
541.472	23357.25
541.672	22898.51
541.873	22634.32
542.073	22284.12
542.274	22431.57
542.474	21997.4
542.675	21768.03
542.875	21401.44
543.075	21491.55
543.276	20897.64
543.476	21010.28
543.676	20561.78
543.877	20361.08
544.077	20352.88
544.277	19885.95
544.478	19435.39
544.678	19404.67
544.878	19255.17
545.078	18882.44
545.279	18663.31
545.479	18519.95
545.679	18266
545.879	18081.69
546.079	17921.95
546.28	17360.8
546.48	17500.06
546.68	17401.76
546.88	17145.77
547.08	17106.85
547.28	16818.09
547.48	16148.4
547.68	16486.32
547.88	16000.95
548.081	15986.61
548.281	15570.88
548.481	15339.46
548.681	15720.38
548.881	15050.69
549.081	14995.4
549.28	14686.15
549.48	14792.65
549.68	14393.3
549.88	14540.75
550.08	13879.25
550.28	13729.75
550.48	13637.59
550.68	13502.43
550.88	13129.7
551.08	12929
551.279	12941.29
551.479	12529.64
551.679	12840.93
551.879	12316.65
552.079	12382.19
552.278	12152.82
552.478	11794.42
552.678	11780.09
552.878	11739.13
553.077	11491.32
553.277	10973.19
553.477	11126.78
553.676	11075.59
553.876	10752.01
554.076	10663.94
554.275	10270.73
554.475	10131.47
554.674	10002.45
554.874	9992.21
555.074	9474.07
555.273	9672.73
555.473	9279.52
555.672	9154.59
555.872	9017.38
556.071	9125.92
556.271	8890.4
556.47	8611.88
556.67	8566.82
556.869	8290.35
557.068	8263.72
557.268	7835.7
557.467	7895.09
557.667	7804.98
557.866	7579.7
558.065	7483.45
558.265	7430.2
558.464	7299.13
558.663	7209.02
558.863	7147.58
559.062	7190.59
559.261	6819.91
559.461	6764.61
559.66	6559.81
559.859	6539.33
560.058	6305.87
560.258	6285.39
560.457	6342.73
560.656	6307.91
560.855	6144.08
561.054	6199.37
561.253	5894.22
561.453	5890.13
561.652	5544.02
561.851	5777.49
562.05	5433.43
562.249	5376.09
562.448	5365.85
562.647	5429.34
562.846	5136.48
563.045	5161.05
563.244	5240.92
563.443	5091.42
563.642	4753.51
563.841	4833.38
564.04	4710.5
564.239	4741.22
564.438	4636.77
564.637	4501.61
564.836	4511.85
565.035	4505.7
565.234	4415.59
565.432	4290.67
565.631	4286.57
565.83	4161.64
566.029	4108.4
566.228	4055.15
566.427	4083.82
566.625	3887.22
566.824	3936.37
567.023	3917.93
567.222	3682.42
567.42	3696.75
567.619	3690.61
567.818	3590.26
568.016	3663.99
568.215	3676.27
568.414	3594.36
568.612	3403.89
568.811	3385.46
569.01	3266.68
569.208	3141.75
569.407	3281.02
569.605	3242.11
569.804	3068.03
570.002	3178.62
570.201	3045.5
570.4	3082.36
570.598	2939.01
570.797	2953.34
570.995	2891.9
571.193	2844.8
571.392	2855.04
571.59	2637.95
571.789	2777.22
571.987	2723.97
572.186	2701.44
572.384	2613.38
572.582	2601.09
572.781	2664.58
572.979	2439.3
573.177	2494.6
573.376	2498.69
573.574	2486.4
573.772	2453.64
573.971	2230.41
574.169	2132.11
574.367	2246.79
574.565	2185.35
574.763	2150.54
574.962	2085
575.16	1994.89
575.358	2015.37
575.556	1982.6
575.754	1880.21
575.952	1976.46
576.151	1980.56
576.349	1982.6
576.547	1661.07
576.745	1847.44
576.943	1904.78
577.141	1855.63
577.339	1855.63
577.537	1716.37
577.735	1788.05
577.933	1730.7
578.131	1472.66
578.329	1663.12
578.527	1640.59
578.725	1704.08
578.923	1448.08
579.121	1673.36
579.319	1282.2
579.516	1493.14
579.714	1751.18
579.912	1468.56
580.11	1321.11
580.308	1331.35
580.506	1357.97
580.704	1251.48
580.901	1368.21
581.099	1388.69
581.297	1366.17
581.495	1249.43
581.692	1345.69
581.89	1398.93
582.088	1310.87
582.285	1257.62
582.483	1149.08
582.681	1136.79
582.878	1161.37
583.076	1216.66
583.274	1204.38
583.471	1282.2
583.669	1153.18
583.866	1050.78
584.064	1009.82
584.262	891.04
584.459	1077.4
584.657	972.96
584.854	1087.64
585.052	1009.82
585.249	1044.63
585.447	1089.69
585.644	872.61
585.841	1036.44
586.039	1050.78
586.236	1089.69
586.434	899.23
586.631	870.56
586.828	821.41
587.026	798.88
587.223	782.49
587.42	802.97
587.618	866.46
587.815	938.14
588.012	848.03
588.21	768.16
588.407	776.35
588.604	794.78
588.801	759.97
588.999	815.26
589.196	917.66
589.393	749.73
589.59	747.68
589.787	766.11
589.984	819.36
590.182	776.35
590.379	649.38
590.576	723.1
590.773	745.63
590.97	665.76
591.167	737.44
591.364	725.15
591.561	721.06
591.758	827.55
591.955	764.06
592.152	649.38
592.349	737.44
592.546	725.15
592.743	643.23
592.94	673.95
593.137	698.53
593.334	790.69
593.531	782.49
593.727	719.01
593.924	731.3
594.121	671.9
594.318	725.15
594.515	776.35
594.712	776.35
594.908	796.83
595.105	571.55
595.302	823.45
595.499	751.78
595.696	833.69
595.892	710.82
596.089	786.59
596.286	796.83
596.482	897.18
596.679	845.98
596.876	837.79
597.072	886.94
597.269	856.22
597.466	884.89
597.662	788.64
597.859	950.43
598.055	848.03
598.252	952.48
598.448	989.34
598.645	1085.59
598.841	1097.88
599.038	1210.52
599.234	1259.67
599.431	1222.81
599.627	1312.92
599.824	1261.72
600.02	1351.83
600.217	1282.2
600.413	1407.13
600.609	1456.28
600.806	1702.03
601.002	1595.54
601.198	1644.69
601.395	1761.42
601.591	1724.56
601.787	1826.96
601.984	1935.5
602.18	2017.42
602.376	2074.76
602.572	2130.06
602.769	2304.14
602.965	2177.16
603.161	2392.2
603.357	2361.48
603.553	2621.57
603.75	2480.26
603.946	2670.72
604.142	2795.65
604.338	2947.2
604.534	2846.85
604.73	2896
604.926	3119.23
605.122	3102.84
605.318	3301.5
605.514	3405.94
605.71	3422.33
605.906	3723.38
606.102	3776.63
606.298	3911.79
606.494	4040.81
606.69	4268.14
606.886	4171.88
607.082	4315.24
607.278	4327.53
607.474	4452.45
607.67	4763.75
607.866	4868.19
608.062	5034.08
608.257	5107.8
608.453	5062.75
608.649	5339.23
608.845	5503.06
609.041	5511.25
609.236	5804.11
609.432	6037.58
609.628	6125.65
609.824	6359.11
610.019	6289.48
610.215	6578.25
610.411	6676.55
610.606	7032.9
610.802	6973.5
610.998	7262.27
611.193	7591.99
611.389	7641.14
611.584	7850.03
611.78	7931.95
611.976	8319.02
612.171	8691.75
612.367	8665.13
612.562	9007.14
612.758	9228.32
612.953	9244.7
613.149	9732.12
613.344	9877.52
613.539	10137.62
613.735	10455.05
613.93	10932.23
614.126	10831.88
614.321	11442.17
614.517	11677.69
614.712	11929.59
614.907	12271.6
615.103	12486.64
615.298	12781.54
615.493	13144.03
615.688	13391.84
615.884	14022.61
616.079	13979.61
616.274	14680.01
616.47	14862.28
616.665	15284.16
616.86	15630.27
617.055	15925.18
617.25	16162.74
617.445	16920.49
617.641	16955.3
617.836	17635.23
618.031	17803.16
618.226	18610.06
618.421	18831.24
618.616	19537.79
618.811	19629.95
619.006	20406.13
619.201	20428.66
619.396	21008.23
619.591	21391.2
619.786	22103.9
619.981	22316.89
620.176	23138.12
620.371	23390.02
620.566	23713.6
620.761	24244.02
620.956	25003.82
621.151	24674.1
621.346	25669.41
621.541	25845.54
621.735	26785.55
621.93	26859.28
622.125	28116.73
622.32	27807.49
622.515	28847.86
622.709	29333.23
622.904	29861.6
623.099	30287.58
623.294	30768.85
623.488	31057.62
623.683	32063.17
623.878	32083.65
624.072	32667.32
624.267	33021.62
624.462	33611.43
624.656	34340.51
624.851	34811.54
625.046	35102.36
625.24	35663.5
625.435	35726.99
625.629	36777.59
625.824	37199.48
626.018	37860.97
626.213	37754.47
626.407	38577.76
626.602	38506.08
626.796	38940.25
626.991	39675.47
627.185	39730.76
627.38	40160.84
627.574	40607.3
627.768	40648.25
627.963	40980.03
628.157	40678.97
628.352	41244.21
628.546	40724.03
628.74	41334.32
628.935	41078.33
629.129	41309.75
629.323	40490.56
629.517	40810.04
629.712	40793.66
629.906	40611.39
630.1	39583.31
630.294	40441.41
630.489	39173.72
630.683	39384.66
630.877	37738.09
631.071	37695.08
631.265	37486.19
631.459	36451.97
631.653	35458.7
631.848	35307.15
632.042	34326.17
632.236	33324.72
632.43	32370.36
632.624	31592.14
632.818	30418.65
633.012	29871.84
633.206	29091.57
633.4	28348.15
633.594	26533.65
633.788	26416.92
633.982	25548.58
634.176	24565.56
634.369	23551.81
634.563	22613.84
634.757	21759.84
634.951	21432.16
635.145	20311.92
635.339	19785.6
635.533	18714.51
635.726	18030.49
635.92	17233.83
636.114	16588.72
636.308	15931.32
636.501	15278.02
636.695	14809.03
636.889	14198.74
637.083	13588.44
637.276	13109.22
637.47	12359.66
637.664	12079.09
637.857	11626.49
638.051	11083.78
638.244	10375.18
638.438	10090.51
638.632	9998.35
638.825	9265.18
639.019	9064.48
639.212	8558.63
639.406	8419.37
639.599	8005.68
639.793	7680.05
639.986	7192.64
640.18	7071.81
640.373	6801.47
640.567	6555.72
640.76	6221.9
640.954	6031.44
641.147	5699.67
641.34	5427.29
641.534	5400.66
641.727	5191.77
641.92	5077.09
642.114	4792.42
642.307	4681.83
642.5	4561
642.694	4132.97
642.887	4087.92
643.08	4081.77
643.273	3940.46
643.467	3641.46
643.66	3393.65
643.853	3379.32
644.046	3319.93
644.239	3104.89
644.432	2947.2
644.626	2742.4
644.819	2807.94
645.012	2721.92
645.205	2736.26
645.398	2617.47
645.591	2322.57
645.784	2293.9
645.977	2158.73
646.17	2205.83
646.363	2031.76
646.556	1958.03
646.749	1917.07
646.942	1796.24
647.135	1876.11
647.328	1648.79
647.521	1603.73
647.714	1599.63
647.907	1460.37
648.099	1396.89
648.292	1464.47
648.485	1364.12
648.678	1325.21
648.871	1235.1
649.064	1155.23
649.256	1122.46
649.449	1120.41
649.642	997.53
649.835	1058.97
650.027	997.53
650.22	1140.89
650.413	1034.39
650.605	934.04
650.798	886.94
650.991	811.17
651.183	780.45
651.376	848.03
651.568	800.93
651.761	708.77
651.954	768.16
652.146	665.76
652.339	725.15
652.531	678.05
652.724	641.18
652.916	651.42
653.109	469.16
653.301	661.66
653.494	708.77
653.686	649.38
653.879	694.43
654.071	616.61
654.263	563.36
654.456	481.44
654.648	542.88
654.84	589.99
655.033	329.89
655.225	542.88
655.417	338.09
655.61	524.45
655.802	516.26
655.994	510.11
656.186	327.85
656.379	497.83
656.571	295.08
656.763	319.65
656.955	362.66
657.148	305.32
657.34	356.52
657.532	342.18
657.724	387.24
657.916	405.67
658.108	444.58
658.3	305.32
658.492	288.93
658.684	270.5
658.876	360.61
659.068	223.4
659.26	280.74
659.452	243.88
659.644	325.8
659.836	397.48
660.028	325.8
660.22	221.35
660.412	297.13
660.604	274.6
660.796	245.93
660.988	344.23
661.18	237.74
661.372	321.7
661.563	204.97
661.755	252.07
661.947	198.82
662.139	194.73
662.331	131.24
662.522	227.5
662.714	235.69
662.906	174.25
663.097	239.78
663.289	233.64
663.481	198.82
663.673	235.69
663.864	188.58
664.056	241.83
664.247	121
664.439	299.17
664.631	207.02
664.822	307.37
665.014	209.06
665.205	207.02
665.397	153.77
665.588	219.3
665.78	200.87
665.971	268.45
666.163	161.96
666.354	258.21
666.546	114.86
666.737	176.3
666.929	209.06
667.12	209.06
667.311	215.21
667.503	125.1
667.694	180.39
667.885	290.98
668.077	239.78
668.268	116.9
668.459	209.06
668.651	225.45
668.842	172.2
669.033	108.71
669.224	118.95
669.416	266.41
669.607	116.9
669.798	145.58
669.989	282.79
670.18	123.05
670.371	266.41
670.563	153.77
670.754	219.3
670.945	231.59
671.136	190.63
671.327	110.76
671.518	282.79
671.709	307.37
671.9	258.21
672.091	266.41
672.282	182.44
672.473	194.73
672.664	63.66
672.855	133.29
673.046	188.58
673.237	252.07
673.428	188.58
673.619	274.6
673.809	98.47
674	303.27
674.191	207.02
674.382	182.44
674.573	137.38
674.764	80.04
674.954	196.78
675.145	172.2
675.336	98.47
675.527	145.58
675.717	178.34
675.908	207.02
676.099	166.06
676.289	247.97
676.48	118.95
676.671	276.65
676.861	219.3
677.052	309.41
677.243	129.19
677.433	209.06
677.624	403.62
677.814	284.84
678.005	159.91
678.195	284.84
678.386	131.24
678.576	194.73
678.767	143.53
678.957	209.06
679.148	219.3
679.338	319.65
679.529	262.31
679.719	172.2
679.909	350.37
680.1	235.69
680.29	297.13
680.481	141.48
680.671	317.61
680.861	284.84
681.052	262.31
681.242	284.84
681.432	266.41
681.622	239.78
681.813	207.02
682.003	235.69
682.193	186.54
682.383	250.02
682.573	215.21
682.764	178.34
682.954	303.27
683.144	274.6
683.334	219.3
683.524	323.75
683.714	323.75
683.904	245.93
684.094	233.64
684.284	299.17
684.474	319.65
684.664	344.23
684.854	331.94
685.044	237.74
685.234	372.9
685.424	282.79
685.614	245.93
685.804	430.24
685.994	315.56
686.184	325.8
686.374	247.97
686.564	184.49
686.753	247.97
686.943	235.69
687.133	284.84
687.323	225.45
687.513	338.09
687.702	207.02
687.892	268.45
688.082	319.65
688.272	264.36
688.461	217.26
688.651	436.39
688.841	309.41
689.03	362.66
689.22	305.32
689.41	458.92
689.599	366.76
689.789	254.12
689.979	290.98
690.168	266.41
690.358	329.89
690.547	278.69
690.737	235.69
690.926	354.47
691.116	223.4
691.305	387.24
691.495	336.04
691.684	188.58
691.874	192.68
692.063	217.26
692.252	317.61
692.442	293.03
692.631	188.58
692.82	202.92
693.01	307.37
693.199	219.3
693.388	280.74
693.578	307.37
693.767	278.69
693.956	358.57
694.146	276.65
694.335	301.22
694.524	198.82
694.713	272.55
694.902	256.17
695.092	250.02
695.281	217.26
695.47	209.06
695.659	133.29
695.848	239.78
696.037	239.78
696.226	319.65
696.415	245.93
696.604	362.66
696.793	370.85
696.982	239.78
697.171	444.58
697.36	166.06
697.549	256.17
697.738	202.92
697.927	178.34
698.116	172.2
698.305	227.5
698.494	262.31
698.683	211.11
698.872	346.28
699.061	241.83
699.25	198.82
699.438	237.74
699.627	227.5
699.816	356.52
700.005	153.77
700.193	204.97
700.382	311.46
700.571	143.53
700.76	161.96
700.948	299.17
701.137	331.94
701.326	282.79
701.514	211.11
701.703	342.18
701.892	309.41
702.08	420
702.269	202.92
702.457	157.86
702.646	229.54
702.834	207.02
703.023	184.49
703.212	307.37
703.4	243.88
703.589	215.21
703.777	262.31
703.965	141.48
704.154	225.45
704.342	176.3
704.531	153.77
704.719	278.69
704.907	247.97
705.096	129.19
705.284	231.59
705.472	231.59
705.661	225.45
705.849	280.74
706.037	358.57
706.226	260.26
706.414	239.78
706.602	192.68
706.79	250.02
706.979	151.72
707.167	241.83
707.355	125.1
707.543	286.89
707.731	211.11
707.919	262.31
708.107	196.78
708.296	100.52
708.484	161.96
708.672	317.61
708.86	250.02
709.048	204.97
709.236	207.02
709.424	303.27
709.612	274.6
709.8	161.96
709.988	272.55
710.176	313.51
710.364	321.7
710.551	278.69
710.739	270.5
710.927	266.41
711.115	168.1
711.303	256.17
711.491	344.23
711.679	217.26
711.866	243.88
712.054	221.35
712.242	250.02
712.43	358.57
712.617	266.41
712.805	346.28
712.993	168.1
713.181	121
713.368	278.69
713.556	258.21
713.744	245.93
713.931	399.52
714.119	223.4
714.306	207.02
714.494	235.69
714.682	207.02
714.869	172.2
715.057	170.15
715.244	215.21
715.432	164.01
715.619	221.35
715.807	333.99
715.994	186.54
716.182	213.16
716.369	307.37
716.556	288.93
716.744	200.87
716.931	200.87
717.119	252.07
717.306	213.16
717.493	348.33
717.681	229.54
717.868	221.35
718.055	321.7
718.242	282.79
718.43	342.18
718.617	317.61
718.804	282.79
718.991	297.13
719.179	276.65
719.366	317.61
719.553	280.74
719.74	309.41
719.927	225.45
720.114	229.54
720.301	239.78
720.488	250.02
720.676	209.06
720.863	358.57
721.05	407.72
721.237	301.22
721.424	370.85
721.611	336.04
721.798	274.6
721.985	241.83
722.172	225.45
722.358	266.41
722.545	356.52
722.732	311.46
722.919	403.62
723.106	342.18
723.293	186.54
723.48	303.27
723.667	198.82
723.853	317.61
724.04	364.71
724.227	317.61
724.414	180.39
724.6	385.19
724.787	420
724.974	479.4
725.161	282.79
725.347	233.64
725.534	333.99
725.72	348.33
725.907	348.33
726.094	329.89
726.28	303.27
726.467	288.93
726.653	215.21
726.84	358.57
727.027	387.24
727.213	321.7
727.4	309.41
727.586	317.61
727.773	280.74
727.959	284.84
728.145	358.57
728.332	336.04
728.518	178.34
728.705	358.57
728.891	256.17
729.077	358.57
729.264	225.45
729.45	278.69
729.636	348.33
729.823	405.67
730.009	413.86
730.195	286.89
730.382	381.09
730.568	262.31
730.754	393.38
730.94	307.37
731.126	323.75
731.313	358.57
731.499	311.46
731.685	385.19
731.871	389.28
732.057	338.09
732.243	422.05
732.429	368.81
732.615	430.24
732.801	401.57
732.987	424.1
733.173	286.89
733.359	374.95
733.545	315.56
733.731	321.7
733.917	401.57
734.103	415.91
734.289	362.66
734.475	266.41
734.661	372.9
734.847	415.91
735.033	393.38
735.219	467.11
735.404	379.04
735.59	288.93
735.776	317.61
735.962	340.13
736.148	381.09
736.333	403.62
736.519	340.13
736.705	360.61
736.89	372.9
737.076	379.04
737.262	260.26
737.447	338.09
737.633	245.93
737.819	442.53
738.004	307.37
738.19	280.74
738.375	374.95
738.561	413.86
738.747	364.71
738.932	313.51
739.118	506.02
739.303	366.76
739.489	473.25
739.674	333.99
739.859	313.51
740.045	413.86
740.23	383.14
740.416	270.5
740.601	356.52
740.786	389.28
740.972	276.65
741.157	383.14
741.342	241.83
741.528	348.33
741.713	534.69
741.898	329.89
742.084	340.13
742.269	358.57
742.454	497.83
742.639	426.15
742.824	348.33
743.01	442.53
743.195	469.16
743.38	315.56
743.565	344.23
743.75	391.33
743.935	385.19
744.12	465.06
744.305	274.6
744.49	329.89
744.675	317.61
744.86	336.04
745.045	424.1
745.23	336.04
745.415	346.28
745.6	413.86
745.785	264.36
745.97	370.85
746.155	448.68
746.34	450.72
746.525	333.99
746.71	393.38
746.895	321.7
747.079	186.54
747.264	290.98
747.449	417.96
747.634	387.24
747.819	321.7
748.003	301.22
748.188	311.46
748.373	321.7
748.557	297.13
748.742	313.51
748.927	366.76
749.111	262.31
749.296	297.13
749.481	360.61
749.665	313.51
749.85	305.32
750.034	358.57
750.219	364.71
750.404	379.04
750.588	299.17
750.773	303.27
750.957	333.99
751.141	293.03
751.326	315.56
751.51	137.38
751.695	288.93
751.879	245.93
752.064	387.24
752.248	331.94
752.432	358.57
752.617	362.66
752.801	446.63
752.985	319.65
753.17	321.7
753.354	264.36
753.538	333.99
753.722	256.17
753.907	250.02
754.091	180.39
754.275	374.95
754.459	252.07
754.643	194.73
754.828	354.47
755.012	278.69
755.196	264.36
755.38	331.94
755.564	262.31
755.748	256.17
755.932	338.09
756.116	297.13
756.3	237.74
756.484	207.02
756.668	315.56
756.852	149.67
757.036	223.4
757.22	196.78
757.404	196.78
757.588	168.1
757.772	256.17
757.956	254.12
758.14	333.99
758.323	157.86
758.507	264.36
758.691	250.02
758.875	293.03
759.059	301.22
759.242	200.87
759.426	190.63
759.61	161.96
759.794	168.1
759.977	331.94
760.161	387.24
760.345	309.41
760.528	270.5
760.712	213.16
760.895	184.49
761.079	174.25
761.263	151.72
761.446	100.52
761.63	194.73
761.813	241.83
761.997	104.62
762.18	211.11
762.364	250.02
762.547	151.72
762.731	180.39
762.914	190.63
763.098	186.54
763.281	180.39
763.464	106.67
763.648	268.45
763.831	176.3
764.015	114.86
764.198	221.35
764.381	174.25
764.564	186.54
764.748	209.06
764.931	221.35
765.114	168.1
765.297	213.16
765.481	125.1
765.664	161.96
765.847	157.86
766.03	313.51
766.213	149.67
766.397	247.97
766.58	118.95
766.763	131.24
766.946	98.47
767.129	157.86
767.312	110.76
767.495	204.97
767.678	86.19
767.861	231.59
768.044	125.1
768.227	125.1
768.41	180.39
768.593	180.39
768.776	190.63
768.959	176.3
769.142	192.68
769.324	131.24
769.507	116.9
769.69	88.23
769.873	88.23
770.056	362.66
770.239	151.72
770.421	321.7
770.604	151.72
770.787	114.86
770.97	229.54
771.152	100.52
771.335	164.01
771.518	26.79
771.7	233.64
771.883	235.69
772.066	178.34
772.248	207.02
772.431	256.17
772.613	209.06
772.796	110.76
772.978	143.53
773.161	200.87
773.343	151.72
773.526	110.76
773.708	61.61
773.891	34.99
774.073	108.71
774.256	123.05
774.438	176.3
774.621	47.27
774.803	188.58
774.985	86.19
775.168	217.26
775.35	82.09
775.532	164.01
775.715	84.14
775.897	174.25
776.079	90.28
776.261	80.04
776.444	139.43
776.626	161.96
776.808	67.75
776.99	16.55
777.173	71.85
777.355	80.04
777.537	63.66
777.719	55.47
777.901	116.9
778.083	123.05
778.265	10.41
778.447	170.15
778.629	61.61
778.811	71.85
778.993	92.33
779.175	141.48
779.357	135.34
779.539	133.29
779.721	47.27
779.903	157.86
780.085	71.85
780.267	47.27
780.449	149.67
780.631	190.63
780.812	155.82
780.994	110.76
781.176	92.33
781.358	135.34
781.54	32.94
781.721	112.81
781.903	145.58
782.085	135.34
782.267	133.29
782.448	39.08
782.63	73.9
782.812	84.14
782.993	96.43
783.175	106.67
783.357	34.99
783.538	67.75
783.72	49.32
783.901	47.27
784.083	139.43
784.264	153.77
784.446	-14.17
784.627	18.6
784.809	108.71
784.99	4.27
785.172	110.76
785.353	73.9
785.535	100.52
785.716	51.37
785.897	32.94
786.079	71.85
786.26	121
786.441	131.24
786.623	-10.07
786.804	18.6
786.985	80.04
787.167	100.52
787.348	-44.88
787.529	34.99
787.71	143.53
787.891	104.62
788.073	-20.31
788.254	24.75
788.435	190.63
788.616	84.14
788.797	-8.02
788.978	57.51
789.159	32.94
789.34	118.95
789.522	47.27
789.703	16.55
789.884	92.33
790.065	125.1
790.246	172.2
790.427	114.86
790.607	88.23
790.788	108.71
790.969	2.22
791.15	116.9
791.331	43.18
791.512	-1.88
791.693	6.31
791.874	63.66
792.054	188.58
792.235	176.3
792.416	-18.26
792.597	6.31
792.778	151.72
792.958	80.04
793.139	53.42
793.32	30.89
793.5	49.32
793.681	204.97
793.862	82.09
794.042	43.18
794.223	-3.93
794.404	34.99
794.584	-20.31
794.765	106.67
794.945	73.9
795.126	86.19
795.306	153.77
795.487	77.99
795.667	92.33
795.848	59.56
796.028	61.61
796.209	28.84
796.389	55.47
796.57	67.75
796.75	49.32
796.93	6.31
797.111	-61.27
797.291	71.85
797.471	88.23
797.652	18.6
797.832	-12.12
798.012	102.57
798.192	26.79
798.373	-32.6
798.553	-3.93
798.733	69.8
798.913	-10.07
799.093	34.99
799.274	151.72
799.454	161.96
799.634	73.9
799.814	100.52
799.994	86.19
800.174	92.33
800.354	92.33
800.534	-61.27
800.714	59.56
800.894	-63.32
801.074	-26.45
801.254	14.51
801.434	143.53
801.614	39.08
801.794	-1.88
801.974	1665.17
802.154	-12.12
802.334	170.15
802.514	6.31
802.693	0.17
802.873	37.03
803.053	102.57
803.233	55.47
803.413	75.95
803.592	47.27
803.772	-44.88
803.952	94.38
804.131	8.36
804.311	106.67
804.491	106.67
804.67	-20.31
804.85	-42.84
805.03	88.23
805.209	67.75
805.389	-24.4
805.568	-38.74
805.748	39.08
805.928	-30.55
806.107	86.19
806.287	110.76
806.466	37.03
806.646	49.32
806.825	45.23
807.004	6.31
807.184	98.47
807.363	30.89
807.543	80.04
807.722	-12.12
807.901	159.91
808.081	153.77
808.26	-36.69
808.439	47.27
808.619	32.94
808.798	49.32
808.977	118.95
809.156	63.66
809.336	12.46
809.515	80.04
809.694	-1.88
809.873	-71.51
810.052	104.62
810.231	125.1
810.411	41.13
810.59	129.19
810.769	-40.79
810.948	80.04
811.127	-16.21
811.306	-14.17
811.485	57.51
811.664	139.43
811.843	67.75
812.022	82.09
812.201	26.79
812.38	96.43
812.559	-14.17
812.737	88.23
812.916	-55.12
813.095	-116.56
813.274	57.51
813.453	67.75
813.632	108.71
813.811	55.47
813.989	-87.89
814.168	63.66
814.347	-38.74
814.526	12.46
814.704	131.24
814.883	145.58
815.062	-61.27
815.24	39.08
815.419	-3.93
815.598	39.08
815.776	-65.36
815.955	57.51
816.133	-22.36
816.312	4.27
816.49	14.51
816.669	53.42
816.847	20.65
817.026	80.04
817.204	-98.13
817.383	-34.64
817.561	-59.22
817.74	32.94
817.918	65.71
818.097	4.27
818.275	-8.02
818.453	80.04
818.632	114.86
818.81	-36.69
818.988	-12.12
819.167	-26.45
819.345	49.32
819.523	-83.8
819.701	51.37
819.879	100.52
820.058	39.08
820.236	61.61
820.414	135.34
820.592	90.28
820.77	12.46
820.948	-24.4
821.127	24.75
821.305	104.62
821.483	4.27
821.661	121
821.839	-34.64
822.017	-34.64
822.195	10.41
822.373	153.77
822.551	65.71
822.729	59.56
822.907	-24.4
823.085	24.75
823.262	133.29
823.44	34.99
823.618	-5.97
823.796	-44.88
823.974	-38.74
824.152	-24.4
824.329	24.75
824.507	59.56
824.685	49.32
824.863	51.37
825.04	34.99
825.218	53.42
825.396	-36.69
825.574	4.27
825.751	75.95
825.929	65.71
826.107	-26.45
826.284	39.08
826.462	82.09
826.639	-1.88
826.817	51.37
826.994	24.75
827.172	-67.41
827.349	198.82
827.527	47.27
827.704	57.51
827.882	59.56
828.059	59.56
828.237	10.41
828.414	49.32
828.591	-153.43
828.769	59.56
828.946	-18.26
829.124	82.09
829.301	112.81
829.478	-8.02
829.655	49.32
829.833	-26.45
830.01	-118.61
830.187	8.36
830.364	-22.36
830.542	71.85
830.719	129.19
830.896	39.08
831.073	90.28
831.25	94.38
831.427	63.66
831.604	30.89
831.782	-18.26
831.959	86.19
832.136	4.27
832.313	67.75
832.49	28.84
832.667	16.55
832.844	-22.36
833.021	102.57
833.198	-8.02
833.374	2.22
833.551	-3.93
833.728	59.56
833.905	-14.17
834.082	-83.8
834.259	90.28
834.436	178.34
834.612	-5.97
834.789	108.71
834.966	-18.26
835.143	53.42
835.319	-79.7
835.496	39.08
835.673	112.81
835.85	104.62
836.026	112.81
836.203	73.9
836.38	-51.03
836.556	2.22
836.733	-5.97
836.909	141.48
837.086	2.22
837.262	-63.32
837.439	86.19
837.616	8.36
837.792	-46.93
837.968	8.36
838.145	-145.24
838.321	51.37
838.498	47.27
838.674	114.86
838.851	14.51
839.027	8.36
839.203	-46.93
839.38	4.27
839.556	26.79
839.732	92.33
839.909	-8.02
840.085	63.66
840.261	-59.22
840.437	8.36
840.614	26.79
840.79	106.67
840.966	53.42
841.142	-5.97
841.318	71.85
841.494	98.47
841.671	98.47
841.847	-24.4
842.023	-100.18
842.199	41.13
842.375	161.96
842.551	-28.5
842.727	-120.66
842.903	114.86
843.079	-46.93
843.255	129.19
843.431	-18.26
843.607	24.75
843.783	-171.86
843.959	69.8
844.134	-34.64
844.31	102.57
844.486	-44.88
844.662	-104.28
844.838	-34.64
845.013	4.27
845.189	90.28
845.365	63.66
845.541	2.22
845.716	18.6
845.892	41.13
846.068	-1.88
846.244	28.84
846.419	4.27
846.595	-59.22
846.77	-55.12
846.946	82.09
847.122	-16.21
847.297	32.94
847.473	184.49
847.648	-116.56
847.824	39.08
847.999	-65.36
848.175	-36.69
848.35	28.84
848.526	22.7
848.701	133.29
848.876	57.51
849.052	114.86
849.227	20.65
849.403	53.42
849.578	-61.27
849.753	22.7
849.929	-10.07
850.104	-87.89
850.279	-38.74
850.454	57.51
850.63	26.79
850.805	32.94
850.98	4.27
851.155	-1.88
851.33	69.8
851.505	-155.47
851.681	178.34
851.856	-94.04
852.031	43.18
852.206	24.75
852.381	-67.41
852.556	-24.4
852.731	90.28
852.906	49.32
853.081	-3.93
853.256	159.91
853.431	4.27
853.606	-55.12
853.781	-30.55
853.956	-65.36
854.131	16.55
854.305	-75.6
854.48	-53.08
854.655	-67.41
854.83	-75.6
855.005	12.46
855.18	49.32
855.354	-28.5
855.529	-16.21
855.704	8.36
855.879	86.19
856.053	-48.98
856.228	8.36
856.403	-128.85
856.577	8.36
856.752	-102.23
856.926	-42.84
857.101	41.13
857.276	-67.41
857.45	18.6
857.625	98.47
857.799	-77.65
857.974	-55.12
858.148	-96.08
858.323	10.41
858.497	-77.65
858.672	-34.64
858.846	28.84
859.02	37.03
859.195	12.46
859.369	24.75
859.543	-12.12
859.718	18.6
859.892	104.62
860.066	37.03
860.241	14.51
860.415	22.7
860.589	-12.12
860.763	2.22
860.938	0.17
861.112	22.7
861.286	45.23
861.46	20.65
861.634	34.99
861.808	-8.02
861.982	-44.88
862.157	-87.89
862.331	-16.21
862.505	-151.38
862.679	-48.98
862.853	-96.08
863.027	32.94
863.201	141.48
863.375	-65.36
863.549	100.52
863.722	-22.36
863.896	118.95
864.07	14.51
864.244	4.27
864.418	108.71
864.592	59.56
864.766	14.51
864.939	84.14
865.113	-10.07
865.287	155.82
865.461	-63.32
865.634	43.18
865.808	-3.93
865.982	16.55
866.156	-102.23
866.329	-46.93
866.503	28.84
866.676	59.56
866.85	37.03
867.024	10.41
867.197	69.8
867.371	39.08
867.544	6.31
867.718	-51.03
867.891	170.15
868.065	-83.8
868.238	26.79
868.412	-10.07
868.585	30.89
868.759	-116.56
868.932	-12.12
869.105	-61.27
869.279	51.37
869.452	-8.02
869.625	-26.45
869.799	-5.97
869.972	-55.12
870.145	43.18
870.319	61.61
870.492	37.03
870.665	-1.88
870.838	-30.55
871.011	-116.56
871.185	-40.79
871.358	-22.36
871.531	67.75
871.704	-24.4
871.877	6.31
872.05	-46.93
872.223	-73.56
872.396	114.86
872.569	20.65
872.742	-32.6
872.915	59.56
873.088	14.51
873.261	-96.08
873.434	80.04
873.607	2.22
873.78	151.72
873.953	-65.36
874.126	28.84
874.299	43.18
874.471	16.55
874.644	-20.31
874.817	73.9
874.99	59.56
875.163	-1.88
875.335	4.27
875.508	-24.4
875.681	75.95
875.853	-32.6
876.026	-36.69
876.199	88.23
876.371	75.95
876.544	-48.98
876.717	59.56
876.889	8.36
877.062	28.84
877.234	-57.17
877.407	10.41
877.579	-28.5
877.752	-34.64
877.924	92.33
878.097	88.23
878.269	-8.02
878.442	-34.64
878.614	108.71
878.786	14.51
878.959	14.51
879.131	18.6
879.303	-175.95
879.476	10.41
879.648	92.33
879.82	-24.4
879.993	-30.55
880.165	-81.75
880.337	-83.8
880.509	45.23
880.681	-63.32
880.854	-59.22
881.026	84.14
881.198	139.43
881.37	26.79
881.542	69.8
881.714	-30.55
881.886	-18.26
882.058	-36.69
882.23	-69.46
882.402	24.75
882.574	-3.93
882.746	100.52
882.918	116.9
883.09	-38.74
883.262	-5.97
883.434	28.84
883.606	-51.03
883.778	-8.02
883.95	118.95
884.122	37.03
884.293	94.38
884.465	2.22
884.637	47.27
884.809	-26.45
884.98	-38.74
885.152	-83.8
885.324	75.95
885.496	-1.88
885.667	24.75
885.839	-3.93
886.011	51.37
886.182	-46.93
886.354	106.67
886.525	-24.4
886.697	-20.31
886.869	-75.6
887.04	53.42
887.212	114.86
887.383	176.3
887.555	32.94
887.726	-16.21
887.897	-42.84
888.069	67.75
888.24	69.8
888.412	16.55
888.583	-69.46
888.754	-79.7
888.926	-126.8
889.097	-32.6
889.268	-114.52
889.44	-22.36
889.611	-59.22
889.782	-34.64
889.953	-46.93
890.125	92.33
890.296	-18.26
890.467	-36.69
890.638	-30.55
890.809	0.17
890.98	-102.23
891.151	82.09
891.323	32.94
891.494	24.75
891.665	-30.55
891.836	-10.07
892.007	8.36
892.178	22.7
892.349	-18.26
892.52	22.7
892.691	-48.98
892.862	4.27
893.032	-130.9
893.203	-3.93
893.374	49.32
893.545	45.23
893.716	-184.15
893.887	82.09
894.057	14.51
894.228	-20.31
894.399	-96.08
894.57	-26.45
894.74	-8.02
894.911	69.8
895.082	-5.97
895.253	-51.03
895.423	-53.08
895.594	24.75
895.764	57.51
895.935	4.27
896.106	16.55
896.276	-67.41
896.447	55.47
896.617	-30.55
896.788	-36.69
896.958	-32.6
897.129	-120.66
897.299	14.51
897.47	168.1
897.64	65.71
897.81	-3.93
897.981	10.41
898.151	-22.36
898.322	37.03
898.492	24.75
898.662	-40.79
898.832	-85.84
899.003	2.22
899.173	63.66
899.343	-83.8
899.513	-67.41
