Data from USB4F104151__77__11-31-07-363.txt Node

Date: Wed Feb 26 11:31:07 EST 2025
User: louis
Spectrometer: USB4F10415
Trigger mode: 4
Integration Time (sec): 1.000000E-1
Scans to average: 1
Electric dark correction enabled: true
Nonlinearity correction enabled: false
Boxcar width: 0
XAxis mode: Wavelengths
Number of Pixels in Spectrum: 3648
>>>>>Begin Spectral Data<<<<<
178.204	-394.58
178.424	-394.58
178.644	-394.58
178.864	-402.77
179.084	-404.82
179.304	-66.9
179.524	21.16
179.744	-5.46
179.964	98.99
180.184	4.78
180.404	101.03
180.624	-9.56
180.844	-52.56
181.064	-132.44
181.283	27.31
181.503	-13.65
181.723	27.31
181.943	-62.8
182.163	166.57
182.383	-15.7
182.602	2.73
182.822	141.99
183.042	74.41
183.262	-7.51
183.482	-30.04
183.701	74.41
183.921	146.09
184.141	-40.28
184.361	141.99
184.58	37.55
184.8	35.5
185.02	-71
185.239	33.45
185.459	72.36
185.679	103.08
185.898	-21.85
186.118	0.68
186.338	86.7
186.557	131.75
186.777	8.87
186.997	86.7
187.216	37.55
187.436	180.9
187.655	33.45
187.875	80.55
188.095	19.11
188.314	125.61
188.534	213.67
188.753	-13.65
188.973	96.94
189.192	234.15
189.412	29.35
189.631	-52.56
189.851	98.99
190.07	217.77
190.29	-75.09
190.509	6.83
190.729	49.83
190.948	125.61
191.168	185
191.387	74.41
191.607	-7.51
191.826	33.45
192.045	-25.94
192.265	-62.8
192.484	31.4
192.704	53.93
192.923	-52.56
193.142	189.1
193.362	111.27
193.581	148.14
193.8	25.26
194.02	141.99
194.239	-48.47
194.458	53.93
194.678	45.74
194.897	10.92
195.116	41.64
195.335	82.6
195.555	107.18
195.774	12.97
195.993	90.79
196.212	10.92
196.432	12.97
196.651	51.88
196.87	19.11
197.089	242.34
197.308	88.75
197.528	64.17
197.747	-23.89
197.966	-3.41
198.185	228.01
198.404	-30.04
198.623	223.91
198.842	21.16
199.062	105.13
199.281	82.6
199.5	49.83
199.719	96.94
199.938	35.5
200.157	72.36
200.376	98.99
200.595	111.27
200.814	146.09
201.033	23.21
201.252	51.88
201.471	94.89
201.69	12.97
201.909	88.75
202.128	78.51
202.347	154.28
202.566	8.87
202.785	-17.75
203.004	-27.99
203.223	209.58
203.442	45.74
203.661	-3.41
203.879	88.75
204.098	92.84
204.317	-56.66
204.536	166.57
204.755	-34.13
204.974	172.71
205.193	78.51
205.411	70.31
205.63	148.14
205.849	43.69
206.068	-46.42
206.287	12.97
206.505	152.23
206.724	49.83
206.943	66.22
207.162	55.98
207.381	70.31
207.599	68.27
207.818	8.87
208.037	19.11
208.255	101.03
208.474	137.9
208.693	51.88
208.911	2.73
209.13	82.6
209.349	51.88
209.567	103.08
209.786	84.65
210.005	129.7
210.223	25.26
210.442	-91.48
210.661	37.55
210.879	125.61
211.098	21.16
211.316	21.16
211.535	98.99
211.753	27.31
211.972	101.03
212.191	107.18
212.409	43.69
212.628	94.89
212.846	43.69
213.065	4.78
213.283	35.5
213.502	53.93
213.72	82.6
213.938	49.83
214.157	17.07
214.375	139.94
214.594	33.45
214.812	19.11
215.031	25.26
215.249	80.55
215.467	55.98
215.686	37.55
215.904	105.13
216.122	17.07
216.341	127.66
216.559	41.64
216.778	115.37
216.996	168.62
217.214	39.59
217.432	17.07
217.651	-62.8
217.869	55.98
218.087	17.07
218.306	45.74
218.524	6.83
218.742	2.73
218.96	19.11
219.179	133.8
219.397	86.7
219.615	240.29
219.833	84.65
220.051	12.97
220.27	80.55
220.488	113.32
220.706	98.99
220.924	2.73
221.142	2.73
221.36	64.17
221.578	23.21
221.796	-36.18
222.015	35.5
222.233	35.5
222.451	144.04
222.669	-13.65
222.887	37.55
223.105	58.03
223.323	90.79
223.541	-75.09
223.759	51.88
223.977	37.55
224.195	141.99
224.413	137.9
224.631	-11.61
224.849	41.64
225.067	256.68
225.285	-42.32
225.503	19.11
225.721	-163.15
225.939	21.16
226.157	-7.51
226.375	240.29
226.592	-5.46
226.81	12.97
227.028	80.55
227.246	92.84
227.464	68.27
227.682	131.75
227.9	6.83
228.117	84.65
228.335	25.26
228.553	70.31
228.771	82.6
228.989	53.93
229.206	127.66
229.424	47.79
229.642	-9.56
229.86	25.26
230.077	123.56
230.295	70.31
230.513	123.56
230.731	78.51
230.948	133.8
231.166	84.65
231.384	43.69
231.601	-71
231.819	156.33
232.037	31.4
232.254	51.88
232.472	49.83
232.689	72.36
232.907	127.66
233.125	-54.61
233.342	-5.46
233.56	-17.75
233.777	74.41
233.995	-30.04
234.213	170.66
234.43	176.81
234.648	4.78
234.865	119.46
235.083	90.79
235.3	64.17
235.518	141.99
235.735	125.61
235.953	62.12
236.17	64.17
236.388	-3.41
236.605	25.26
236.822	160.42
237.04	105.13
237.257	10.92
237.475	-62.8
237.692	19.11
237.909	49.83
238.127	37.55
238.344	72.36
238.562	78.51
238.779	-40.28
238.996	4.78
239.214	-13.65
239.431	98.99
239.648	74.41
239.865	62.12
240.083	58.03
240.3	37.55
240.517	-25.94
240.735	33.45
240.952	182.95
241.169	119.46
241.386	111.27
241.603	29.35
241.821	-54.61
242.038	4.78
242.255	123.56
242.472	-36.18
242.689	74.41
242.907	105.13
243.124	68.27
243.341	74.41
243.558	-42.32
243.775	-17.75
243.992	-17.75
244.209	12.97
244.426	195.24
244.643	148.14
244.86	-23.89
245.078	115.37
245.295	0.68
245.512	51.88
245.729	-7.51
245.946	47.79
246.163	39.59
246.38	-46.42
246.597	68.27
246.814	64.17
247.031	-40.28
247.248	76.46
247.464	135.85
247.681	17.07
247.898	23.21
248.115	51.88
248.332	29.35
248.549	127.66
248.766	205.48
248.983	-7.51
249.2	92.84
249.417	133.8
249.633	8.87
249.85	117.42
250.067	27.31
250.284	25.26
250.501	23.21
250.717	60.07
250.934	-42.32
251.151	23.21
251.368	8.87
251.585	68.27
251.801	33.45
252.018	-58.71
252.235	146.09
252.451	-7.51
252.668	72.36
252.885	98.99
253.102	78.51
253.318	4.78
253.535	96.94
253.752	62.12
253.968	35.5
254.185	-48.47
254.401	78.51
254.618	92.84
254.835	-42.32
255.051	127.66
255.268	45.74
255.484	53.93
255.701	0.68
255.917	-7.51
256.134	-48.47
256.351	-21.85
256.567	4.78
256.784	129.7
257	21.16
257.217	35.5
257.433	139.94
257.65	41.64
257.866	164.52
258.082	-71
258.299	8.87
258.515	53.93
258.732	27.31
258.948	8.87
259.165	113.32
259.381	-13.65
259.597	49.83
259.814	6.83
260.03	37.55
260.246	-75.09
260.463	68.27
260.679	105.13
260.895	94.89
261.112	109.22
261.328	72.36
261.544	23.21
261.761	158.38
261.977	-25.94
262.193	78.51
262.409	148.14
262.626	27.31
262.842	101.03
263.058	70.31
263.274	101.03
263.49	98.99
263.707	191.14
263.923	8.87
264.139	-52.56
264.355	12.97
264.571	141.99
264.787	150.18
265.004	101.03
265.22	-15.7
265.436	-3.41
265.652	103.08
265.868	37.55
266.084	-79.19
266.3	47.79
266.516	-40.28
266.732	35.5
266.948	66.22
267.164	92.84
267.38	156.33
267.596	115.37
267.812	135.85
268.028	117.42
268.244	111.27
268.46	0.68
268.676	-54.61
268.892	27.31
269.108	-97.62
269.324	4.78
269.54	-17.75
269.756	185
269.972	-40.28
270.188	39.59
270.403	-54.61
270.619	72.36
270.835	139.94
271.051	96.94
271.267	-36.18
271.483	-11.61
271.698	146.09
271.914	53.93
272.13	55.98
272.346	45.74
272.562	90.79
272.777	123.56
272.993	31.4
273.209	-73.04
273.425	82.6
273.64	-21.85
273.856	37.55
274.072	25.26
274.287	-38.23
274.503	74.41
274.719	98.99
274.934	-56.66
275.15	-89.43
275.366	49.83
275.581	-27.99
275.797	-34.13
276.012	121.51
276.228	41.64
276.444	-42.32
276.659	111.27
276.875	-34.13
277.09	-11.61
277.306	-27.99
277.521	37.55
277.737	-36.18
277.952	62.12
278.168	39.59
278.383	37.55
278.599	37.55
278.814	148.14
279.03	31.4
279.245	133.8
279.461	98.99
279.676	129.7
279.892	-46.42
280.107	-19.8
280.322	25.26
280.538	84.65
280.753	-42.32
280.969	43.69
281.184	51.88
281.399	123.56
281.615	35.5
281.83	148.14
282.045	-99.67
282.26	12.97
282.476	96.94
282.691	117.42
282.906	37.55
283.122	15.02
283.337	-79.19
283.552	68.27
283.767	17.07
283.983	125.61
284.198	12.97
284.413	117.42
284.628	-46.42
284.843	43.69
285.058	80.55
285.274	-19.8
285.489	-19.8
285.704	90.79
285.919	43.69
286.134	109.22
286.349	31.4
286.564	-38.23
286.779	98.99
286.995	17.07
287.21	-89.43
287.425	-11.61
287.64	-11.61
287.855	62.12
288.07	-38.23
288.285	111.27
288.5	31.4
288.715	68.27
288.93	78.51
289.145	8.87
289.36	113.32
289.575	68.27
289.79	162.47
290.004	39.59
290.219	62.12
290.434	27.31
290.649	-54.61
290.864	25.26
291.079	21.16
291.294	33.45
291.509	51.88
291.724	-11.61
291.938	-19.8
292.153	103.08
292.368	-19.8
292.583	45.74
292.798	68.27
293.012	-7.51
293.227	115.37
293.442	25.26
293.657	92.84
293.871	109.22
294.086	68.27
294.301	217.77
294.516	92.84
294.73	103.08
294.945	-30.04
295.16	49.83
295.374	131.75
295.589	125.61
295.804	53.93
296.018	121.51
296.233	160.42
296.447	49.83
296.662	-21.85
296.877	119.46
297.091	103.08
297.306	29.35
297.52	-32.08
297.735	154.28
297.949	41.64
298.164	17.07
298.378	25.26
298.593	-52.56
298.807	-11.61
299.022	45.74
299.236	160.42
299.451	-58.71
299.665	51.88
299.88	37.55
300.094	84.65
300.309	60.07
300.523	111.27
300.737	-15.7
300.952	31.4
301.166	101.03
301.381	51.88
301.595	35.5
301.809	82.6
302.024	12.97
302.238	-48.47
302.452	154.28
302.667	25.26
302.881	189.1
303.095	103.08
303.309	84.65
303.524	-30.04
303.738	-21.85
303.952	-1.37
304.166	139.94
304.381	-79.19
304.595	215.72
304.809	-56.66
305.023	43.69
305.237	39.59
305.452	12.97
305.666	137.9
305.88	125.61
306.094	113.32
306.308	80.55
306.522	76.46
306.736	103.08
306.95	90.79
307.164	60.07
307.379	15.02
307.593	78.51
307.807	111.27
308.021	127.66
308.235	96.94
308.449	-81.24
308.663	53.93
308.877	234.15
309.091	-62.8
309.305	62.12
309.519	-71
309.733	148.14
309.947	-87.38
310.161	111.27
310.374	49.83
310.588	164.52
310.802	-7.51
311.016	-36.18
311.23	74.41
311.444	-68.95
311.658	-25.94
311.872	195.24
312.085	154.28
312.299	94.89
312.513	156.33
312.727	64.17
312.941	-11.61
313.154	35.5
313.368	2.73
313.582	8.87
313.796	68.27
314.009	19.11
314.223	133.8
314.437	113.32
314.651	76.46
314.864	43.69
315.078	62.12
315.292	-44.37
315.505	-38.23
315.719	76.46
315.933	98.99
316.146	-5.46
316.36	-52.56
316.573	176.81
316.787	96.94
317.001	109.22
317.214	-1.37
317.428	103.08
317.641	58.03
317.855	-25.94
318.068	6.83
318.282	62.12
318.495	170.66
318.709	53.93
318.922	66.22
319.136	152.23
319.349	103.08
319.563	37.55
319.776	47.79
319.99	-38.23
320.203	125.61
320.417	33.45
320.63	78.51
320.843	197.29
321.057	10.92
321.27	35.5
321.483	80.55
321.697	127.66
321.91	21.16
322.124	103.08
322.337	19.11
322.55	-27.99
322.763	-3.41
322.977	-23.89
323.19	-7.51
323.403	123.56
323.617	154.28
323.83	164.52
324.043	-27.99
324.256	23.21
324.469	4.78
324.683	160.42
324.896	74.41
325.109	45.74
325.322	-114
325.535	107.18
325.748	96.94
325.962	29.35
326.175	121.51
326.388	-27.99
326.601	88.75
326.814	-11.61
327.027	107.18
327.24	144.04
327.453	-21.85
327.666	84.65
327.879	119.46
328.092	39.59
328.305	45.74
328.518	21.16
328.731	-21.85
328.944	35.5
329.157	49.83
329.37	12.97
329.583	223.91
329.796	94.89
330.009	-50.52
330.222	74.41
330.435	66.22
330.648	76.46
330.861	35.5
331.073	82.6
331.286	162.47
331.499	35.5
331.712	-97.62
331.925	35.5
332.138	-46.42
332.35	92.84
332.563	-95.57
332.776	141.99
332.989	23.21
333.202	12.97
333.414	60.07
333.627	-13.65
333.84	-60.76
334.053	31.4
334.265	-9.56
334.478	-13.65
334.691	-32.08
334.903	164.52
335.116	-34.13
335.329	45.74
335.541	107.18
335.754	164.52
335.966	-15.7
336.179	27.31
336.392	27.31
336.604	105.13
336.817	111.27
337.029	27.31
337.242	45.74
337.454	25.26
337.667	72.36
337.88	178.86
338.092	17.07
338.305	66.22
338.517	25.26
338.729	119.46
338.942	94.89
339.154	-19.8
339.367	45.74
339.579	119.46
339.792	-58.71
340.004	41.64
340.217	117.42
340.429	76.46
340.641	-42.32
340.854	64.17
341.066	-23.89
341.278	74.41
341.491	209.58
341.703	8.87
341.915	-27.99
342.128	72.36
342.34	123.56
342.552	-5.46
342.764	101.03
342.977	62.12
343.189	168.62
343.401	31.4
343.613	-58.71
343.826	60.07
344.038	23.21
344.25	94.89
344.462	-95.57
344.674	64.17
344.886	-7.51
345.099	53.93
345.311	137.9
345.523	35.5
345.735	-54.61
345.947	86.7
346.159	10.92
346.371	115.37
346.583	70.31
346.795	281.25
347.007	37.55
347.219	-3.41
347.431	35.5
347.643	101.03
347.855	23.21
348.067	176.81
348.279	-25.94
348.491	41.64
348.703	103.08
348.915	10.92
349.127	-5.46
349.339	80.55
349.551	-36.18
349.763	51.88
349.975	-19.8
350.187	129.7
350.399	98.99
350.61	78.51
350.822	19.11
351.034	131.75
351.246	-9.56
351.458	119.46
351.669	168.62
351.881	29.35
352.093	117.42
352.305	31.4
352.517	127.66
352.728	101.03
352.94	10.92
353.152	117.42
353.363	27.31
353.575	43.69
353.787	250.53
353.999	80.55
354.21	180.9
354.422	-3.41
354.633	-34.13
354.845	60.07
355.057	21.16
355.268	33.45
355.48	144.04
355.692	-73.04
355.903	-5.46
356.115	-46.42
356.326	-15.7
356.538	117.42
356.749	90.79
356.961	137.9
357.172	62.12
357.384	2.73
357.595	250.53
357.807	-1.37
358.018	37.55
358.23	105.13
358.441	150.18
358.653	25.26
358.864	-3.41
359.075	4.78
359.287	47.79
359.498	121.51
359.709	66.22
359.921	-52.56
360.132	94.89
360.344	25.26
360.555	-21.85
360.766	98.99
360.977	27.31
361.189	76.46
361.4	-11.61
361.611	68.27
361.823	154.28
362.034	10.92
362.245	-75.09
362.456	25.26
362.667	80.55
362.879	-34.13
363.09	66.22
363.301	47.79
363.512	82.6
363.723	-15.7
363.935	19.11
364.146	78.51
364.357	-3.41
364.568	76.46
364.779	-68.95
364.99	84.65
365.201	-1.37
365.412	131.75
365.623	-73.04
365.834	68.27
366.045	43.69
366.256	66.22
366.467	103.08
366.678	-7.51
366.889	39.59
367.1	-44.37
367.311	115.37
367.522	-27.99
367.733	135.85
367.944	68.27
368.155	33.45
368.366	123.56
368.577	176.81
368.788	180.9
368.999	12.97
369.209	113.32
369.42	262.82
369.631	209.58
369.842	121.51
370.053	35.5
370.264	76.46
370.474	-87.38
370.685	43.69
370.896	27.31
371.107	101.03
371.317	98.99
371.528	-42.32
371.739	160.42
371.95	29.35
372.16	92.84
372.371	15.02
372.582	58.03
372.792	121.51
373.003	72.36
373.214	170.66
373.424	80.55
373.635	66.22
373.846	137.9
374.056	88.75
374.267	25.26
374.477	70.31
374.688	37.55
374.898	195.24
375.109	29.35
375.319	29.35
375.53	113.32
375.74	168.62
375.951	-50.52
376.161	94.89
376.372	109.22
376.582	41.64
376.793	10.92
377.003	31.4
377.214	-5.46
377.424	98.99
377.635	74.41
377.845	8.87
378.055	117.42
378.266	-42.32
378.476	31.4
378.686	90.79
378.897	141.99
379.107	107.18
379.317	105.13
379.528	68.27
379.738	105.13
379.948	-44.37
380.158	109.22
380.369	8.87
380.579	21.16
380.789	29.35
380.999	162.47
381.21	86.7
381.42	156.33
381.63	66.22
381.84	119.46
382.05	72.36
382.261	172.71
382.471	133.8
382.681	2.73
382.891	217.77
383.101	78.51
383.311	-11.61
383.521	-13.65
383.731	123.56
383.941	117.42
384.151	164.52
384.361	25.26
384.571	70.31
384.781	66.22
384.991	215.72
385.201	207.53
385.411	141.99
385.621	15.02
385.831	109.22
386.041	51.88
386.251	45.74
386.461	113.32
386.671	58.03
386.881	53.93
387.091	6.83
387.301	150.18
387.511	47.79
387.72	84.65
387.93	146.09
388.14	-38.23
388.35	17.07
388.56	43.69
388.769	76.46
388.979	29.35
389.189	-64.85
389.399	86.7
389.609	82.6
389.818	33.45
390.028	6.83
390.238	-3.41
390.447	35.5
390.657	68.27
390.867	29.35
391.076	-19.8
391.286	58.03
391.496	78.51
391.705	47.79
391.915	84.65
392.125	82.6
392.334	29.35
392.544	215.72
392.753	23.21
392.963	-7.51
393.172	98.99
393.382	6.83
393.591	182.95
393.801	-27.99
394.01	193.19
394.22	74.41
394.429	66.22
394.639	66.22
394.848	68.27
395.058	35.5
395.267	33.45
395.477	92.84
395.686	10.92
395.895	158.38
396.105	221.86
396.314	58.03
396.524	92.84
396.733	27.31
396.942	62.12
397.152	98.99
397.361	131.75
397.57	66.22
397.78	62.12
397.989	94.89
398.198	193.19
398.407	74.41
398.617	109.22
398.826	111.27
399.035	55.98
399.244	107.18
399.453	66.22
399.663	146.09
399.872	39.59
400.081	12.97
400.29	154.28
400.499	60.07
400.708	88.75
400.917	0.68
401.127	115.37
401.336	66.22
401.545	195.24
401.754	41.64
401.963	148.14
402.172	94.89
402.381	-56.66
402.59	-9.56
402.799	76.46
403.008	119.46
403.217	76.46
403.426	62.12
403.635	-56.66
403.844	64.17
404.053	27.31
404.262	45.74
404.471	144.04
404.68	39.59
404.888	76.46
405.097	76.46
405.306	62.12
405.515	115.37
405.724	-25.94
405.933	80.55
406.142	2.73
406.35	64.17
406.559	45.74
406.768	78.51
406.977	135.85
407.185	41.64
407.394	27.31
407.603	-17.75
407.812	62.12
408.02	135.85
408.229	45.74
408.438	94.89
408.646	-71
408.855	86.7
409.064	51.88
409.272	-3.41
409.481	76.46
409.69	-34.13
409.898	-17.75
410.107	103.08
410.315	117.42
410.524	72.36
410.733	-1.37
410.941	15.02
411.15	144.04
411.358	62.12
411.567	135.85
411.775	25.26
411.984	103.08
412.192	109.22
412.401	45.74
412.609	49.83
412.818	96.94
413.026	109.22
413.234	39.59
413.443	31.4
413.651	43.69
413.86	66.22
414.068	144.04
414.276	166.57
414.485	35.5
414.693	133.8
414.901	197.29
415.11	111.27
415.318	35.5
415.526	96.94
415.734	172.71
415.943	115.37
416.151	164.52
416.359	55.98
416.567	45.74
416.776	158.38
416.984	90.79
417.192	125.61
417.4	-77.14
417.608	45.74
417.817	-77.14
418.025	88.75
418.233	166.57
418.441	-15.7
418.649	10.92
418.857	68.27
419.065	250.53
419.273	-1.37
419.481	133.8
419.689	-19.8
419.897	-25.94
420.105	-73.04
420.313	115.37
420.521	176.81
420.729	117.42
420.937	-54.61
421.145	-38.23
421.353	117.42
421.561	144.04
421.769	129.7
421.977	23.21
422.185	98.99
422.393	66.22
422.601	0.68
422.809	166.57
423.017	33.45
423.224	84.65
423.432	123.56
423.64	60.07
423.848	129.7
424.056	-3.41
424.263	21.16
424.471	2.73
424.679	203.43
424.887	-91.48
425.094	103.08
425.302	119.46
425.51	88.75
425.718	109.22
425.925	60.07
426.133	8.87
426.341	182.95
426.548	17.07
426.756	19.11
426.964	150.18
427.171	21.16
427.379	158.38
427.586	86.7
427.794	131.75
428.001	129.7
428.209	117.42
428.417	137.9
428.624	152.23
428.832	66.22
429.039	111.27
429.247	90.79
429.454	189.1
429.662	182.95
429.869	150.18
430.076	23.21
430.284	49.83
430.491	178.86
430.699	125.61
430.906	156.33
431.114	133.8
431.321	152.23
431.528	137.9
431.736	55.98
431.943	150.18
432.15	189.1
432.358	219.82
432.565	193.19
432.772	49.83
432.979	176.81
433.187	121.51
433.394	180.9
433.601	107.18
433.808	193.19
434.016	203.43
434.223	256.68
434.43	230.06
434.637	207.53
434.844	264.87
435.052	162.47
435.259	185
435.466	185
435.673	217.77
435.88	225.96
436.087	285.35
436.294	279.21
436.501	334.5
436.708	228.01
436.915	230.06
437.122	291.49
437.329	178.86
437.537	264.87
437.743	363.17
437.95	412.32
438.157	281.25
438.364	316.07
438.571	316.07
438.778	402.08
438.985	406.18
439.192	303.78
439.399	367.27
439.606	316.07
439.813	342.69
440.02	516.77
440.227	598.69
440.433	496.29
440.64	422.56
440.847	443.04
441.054	457.38
441.261	656.03
441.467	524.96
441.674	473.76
441.881	539.3
442.088	453.28
442.294	584.35
442.501	590.5
442.708	692.9
442.914	576.16
443.121	664.22
443.328	780.96
443.534	733.86
443.741	676.51
443.948	561.83
444.154	764.58
444.361	852.64
444.568	766.62
444.774	926.36
444.981	744.1
445.187	950.94
445.394	924.32
445.6	963.23
445.807	1049.24
446.013	952.99
446.22	946.84
446.426	1049.24
446.633	1174.17
446.839	1360.53
447.046	1127.07
447.252	1299.09
447.459	1260.18
447.665	1272.47
447.871	1518.23
448.078	1571.47
448.284	1530.52
448.491	1571.47
448.697	1716.88
448.903	1639.06
449.11	1786.51
449.316	1708.69
449.522	1938.06
449.728	1942.16
449.935	1940.11
450.141	1938.06
450.347	2210.44
450.553	2128.52
450.76	2263.69
450.966	2269.83
451.172	2359.94
451.378	2599.56
451.584	2548.36
451.791	2679.43
451.997	2777.73
452.203	2802.3
452.409	3033.72
452.615	3046.01
452.821	3033.72
453.027	2931.33
453.233	3439.22
453.44	3320.44
453.646	3510.9
453.852	3756.66
454.058	3793.52
454.264	3930.73
454.47	4233.83
454.676	4237.93
454.882	4553.32
455.088	4414.06
455.294	4625
455.5	4973.15
455.705	5210.72
455.911	5247.58
456.117	5333.59
456.323	5632.6
456.529	5505.62
456.735	5993.04
456.941	6267.47
457.147	6638.15
457.352	6568.52
457.558	6984.26
457.764	7184.96
457.97	7537.21
458.176	7801.4
458.381	8215.09
458.587	8460.84
458.793	8700.45
458.999	8946.21
459.204	9808.4
459.41	10324.49
459.616	9857.56
459.821	10377.74
460.027	10856.96
460.233	11510.27
460.438	11661.82
460.644	12302.83
460.85	12517.87
461.055	12933.61
461.261	13631.96
461.466	13101.54
461.672	13511.13
461.878	15436.22
462.083	15018.44
462.289	15051.2
462.494	15770.04
462.7	16110
462.905	16259.51
463.111	17439.14
463.316	18485.65
463.522	18794.89
463.727	19245.44
463.932	20294.01
464.138	20687.22
464.343	21426.53
464.549	21535.07
464.754	23161.16
464.959	23834.94
465.165	24533.3
465.37	24240.44
465.575	24074.56
465.781	25762.08
465.986	26501.4
466.191	26073.37
466.397	26427.67
466.602	26009.89
466.807	26880.27
467.012	27947.26
467.218	28195.07
467.423	28229.88
467.628	29141.23
467.833	30583
468.038	30200.03
468.244	29413.61
468.449	31047.89
468.654	30472.41
468.859	30187.74
469.064	30220.51
469.269	29778.15
469.474	29997.28
469.679	30982.35
469.885	30378.2
470.09	30548.18
470.295	30583
470.5	30005.47
470.705	30339.29
470.91	29047.02
471.115	29374.7
471.32	29438.19
471.525	29622.5
471.73	28379.39
471.935	28551.42
472.139	27310.35
472.344	27394.31
472.549	26829.07
472.754	26376.47
472.959	25940.25
473.164	24883.5
473.369	24826.16
473.574	25497.89
473.778	25065.77
473.983	24660.27
474.188	24009.02
474.393	22921.55
474.598	22753.62
474.802	22399.32
475.007	22421.84
475.212	22114.65
475.417	20869.48
475.621	20885.87
475.826	20504.95
476.031	20242.81
476.235	19868.03
476.44	19861.88
476.645	19210.63
476.849	19214.73
477.054	18487.7
477.259	18176.41
477.463	18282.9
477.668	17789.34
477.872	17803.67
478.077	17258.92
478.282	16665
478.486	16832.94
478.691	16292.27
478.895	16216.5
479.1	16034.23
479.304	15903.16
479.509	15550.91
479.713	16028.09
479.918	15368.64
480.122	14918.09
480.326	15315.39
480.531	15034.82
480.735	14981.57
480.94	14815.69
481.144	15159.75
481.348	14283.22
481.553	14492.11
481.757	14057.94
481.961	14146
482.166	14350.8
482.37	14119.38
482.574	13494.75
482.778	13603.29
482.983	13822.42
483.187	13869.53
483.391	13519.32
483.595	13187.55
483.8	13396.45
484.004	13265.38
484.208	13347.29
484.412	13150.69
484.616	12935.65
484.821	12986.85
485.025	12231.15
485.229	12421.61
485.433	12108.27
485.637	12214.77
485.841	11938.29
486.045	11590.14
486.249	11469.31
486.453	11166.21
486.657	11465.21
486.861	11219.46
487.065	10729.99
487.269	10867.2
487.473	10449.42
487.677	10482.19
487.881	10553.87
488.085	10052.11
488.289	10035.73
488.493	9658.9
488.697	9929.24
488.901	9622.04
489.105	9132.58
489.309	9224.73
489.512	9032.22
489.716	8772.13
489.92	8639.01
490.124	8520.23
490.328	8555.05
490.531	8102.45
490.735	8100.4
490.939	7924.27
491.143	7713.33
491.346	7799.35
491.55	7479.86
491.754	7434.81
491.958	7328.31
492.161	7051.84
492.365	7025.22
492.569	6855.23
492.772	6500.94
492.976	6701.64
493.18	6570.57
493.383	6531.65
493.587	6482.5
493.79	6435.4
493.994	6265.42
494.197	5966.42
494.401	6177.36
494.605	6005.33
494.808	6001.23
495.012	5937.74
495.215	5923.41
495.419	5788.24
495.622	5712.47
495.825	5710.42
496.029	5458.52
496.232	5806.67
496.436	5614.16
496.639	5831.25
496.843	5595.73
497.046	5653.08
497.249	5655.12
497.453	5538.39
497.656	5610.07
497.859	5505.62
498.063	5665.36
498.266	5544.53
498.469	5360.22
498.673	5417.56
498.876	5626.45
499.079	5589.59
499.282	5513.81
499.485	5833.3
499.689	5503.57
499.892	5642.84
500.095	5634.64
500.298	5515.86
500.501	5493.33
500.705	5673.56
500.908	5751.38
501.111	5800.53
501.314	5954.13
501.517	6040.14
501.72	5874.26
501.923	5798.48
502.126	6142.54
502.329	6117.97
502.532	6130.25
502.735	6238.8
502.938	6486.6
503.141	6396.49
503.344	6269.51
503.547	6451.78
503.75	6396.49
503.953	6582.85
504.156	6552.13
504.359	6668.87
504.562	6783.56
504.765	6877.76
504.968	6912.58
505.17	7346.75
505.373	7330.36
505.576	7443
505.779	7418.43
505.982	7440.95
506.185	7615.03
506.387	7768.63
506.59	7762.48
506.793	8008.24
506.996	8000.05
507.198	8278.57
507.401	8423.98
507.604	8733.22
507.807	8800.8
508.009	8870.44
508.212	9011.75
508.415	9388.57
508.617	9456.15
508.82	9466.39
509.022	9613.85
509.225	10013.2
509.428	10183.18
509.63	10158.61
509.833	10508.81
510.035	11244.03
510.238	11086.34
510.44	11213.31
510.643	11522.55
510.845	11809.27
511.048	11854.33
511.25	12038.64
511.453	12489.2
511.655	12986.85
511.858	13001.19
512.06	13638.11
512.262	13623.77
512.465	13754.84
512.667	14260.69
512.87	14606.8
513.072	14946.76
513.274	15315.39
513.477	15737.27
513.679	16138.68
513.881	16462.26
514.084	16800.17
514.286	17285.54
514.488	17455.52
514.69	17973.66
514.893	18250.13
515.095	18774.41
515.297	19073.42
515.499	19421.57
515.701	19605.89
515.904	20476.27
516.106	21195.11
516.308	21336.42
516.51	21956.96
516.712	22397.27
516.914	22831.44
517.116	23066.95
517.318	23722.3
517.52	24185.15
517.722	24179
517.925	24707.38
518.127	25590.05
518.329	25743.65
518.531	25655.59
518.733	26732.82
518.935	27052.3
519.136	27650.31
519.338	27996.42
519.54	28770.55
519.742	29167.85
519.944	29384.94
520.146	29747.43
520.348	30564.57
520.55	30906.58
520.752	30873.81
520.954	31815.88
521.155	31946.95
521.357	32719.03
521.559	32669.88
521.761	33566.89
521.963	33605.8
522.164	34048.16
522.366	34363.55
522.568	34832.54
522.77	35137.68
522.971	35702.92
523.173	35199.12
523.375	36071.56
523.576	36016.26
523.778	36636.8
523.98	36888.7
524.181	37179.51
524.383	37007.48
524.584	37283.95
524.786	37519.47
524.988	37587.05
525.189	37967.98
525.391	37714.03
525.592	37658.73
525.794	38023.27
525.995	37654.64
526.197	37736.55
526.398	38099.05
526.6	38150.24
526.801	37892.2
527.003	37857.39
527.204	37804.14
527.406	37922.92
527.607	37480.56
527.808	37890.15
528.01	37046.39
528.211	37171.32
528.412	37349.49
528.614	37296.24
528.815	36765.82
529.016	36698.23
529.218	35848.33
529.419	36092.04
529.62	35657.87
529.822	35291.28
530.023	35256.46
530.224	34973.85
530.425	34771.1
530.626	33843.37
530.828	33872.04
531.029	34390.17
531.23	33487.02
531.431	33122.48
531.632	32800.95
531.833	32399.55
532.035	31912.13
532.236	31981.76
532.437	31131.86
532.638	30890.2
532.839	30812.37
533.04	30304.48
533.241	29698.28
533.442	29935.84
533.643	29229.29
533.844	28788.98
534.045	28369.15
534.246	27834.63
534.447	27824.39
534.648	27164.94
534.849	27021.58
535.05	26427.67
535.251	26337.56
535.451	25950.49
535.652	25631.01
535.853	24990
536.054	25035.05
536.255	24619.31
536.456	24185.15
536.657	24549.68
536.857	23570.76
537.058	23238.98
537.259	23302.47
537.46	23054.67
537.66	22253.91
537.861	21936.48
538.062	21983.58
538.263	21868.89
538.463	21205.35
538.664	20982.12
538.865	21211.49
539.065	20924.78
539.266	20611.44
539.466	20392.31
539.667	19976.57
539.868	20003.19
540.068	19343.75
540.269	19003.78
540.469	19241.35
540.67	18950.54
540.87	18540.94
541.071	18188.69
541.271	18223.51
541.472	18137.49
541.672	17787.29
541.873	17537.44
542.073	16949.67
542.274	17340.83
542.474	17047.97
542.675	16658.86
542.875	16851.37
543.075	16519.6
543.276	15917.5
543.476	16296.37
543.676	15927.74
543.877	15645.12
544.077	15708.6
544.277	15460.8
544.478	15083.97
544.678	15372.74
544.878	14762.44
545.078	14799.3
545.279	14356.94
545.479	14320.08
545.679	14238.16
545.879	14041.56
546.079	13867.48
546.28	13736.41
546.48	13517.28
546.68	13566.43
546.88	13261.28
547.08	13134.31
547.28	12849.64
547.48	12673.51
547.68	12683.75
547.88	12665.32
548.081	12446.19
548.281	11905.52
548.481	11981.3
548.681	11966.96
548.881	11676.15
549.081	11598.33
549.28	11444.73
549.48	11256.32
549.68	10891.78
549.88	11094.53
550.08	10918.4
550.28	11016.71
550.48	10766.85
550.68	10392.08
550.88	10277.39
551.08	10037.78
551.279	10244.62
551.479	9720.34
551.679	9841.17
551.879	9720.34
552.079	9429.53
552.278	9224.73
552.478	9378.33
552.678	9116.19
552.878	9017.89
553.077	9028.13
553.277	8587.82
553.477	8628.77
553.676	8505.9
553.876	8315.44
554.076	8016.43
554.275	7979.57
554.475	7805.49
554.674	7797.3
554.874	7678.52
555.074	7475.77
555.273	7608.89
555.473	7277.12
555.672	7211.58
555.872	7100.99
556.071	6912.58
556.271	7010.88
556.47	6685.25
556.67	6441.54
556.869	6480.46
557.068	6441.54
557.268	6339.15
557.467	6189.64
557.667	6158.92
557.866	6156.88
558.065	5861.97
558.265	5769.81
558.464	5673.56
558.663	5661.27
558.863	5620.31
559.062	5579.35
559.261	5386.84
559.461	5421.66
559.66	5323.35
559.859	5050.97
560.058	5036.64
560.258	4835.94
560.457	4874.85
560.656	4868.7
560.855	4547.17
561.054	4698.72
561.253	4631.14
561.453	4559.46
561.652	4407.91
561.851	4457.06
562.05	4086.38
562.249	4045.42
562.448	4342.38
562.647	4084.33
562.846	4031.09
563.045	4166.25
563.244	3854.96
563.443	3891.82
563.642	3691.12
563.841	3754.61
564.04	3705.46
564.239	3721.84
564.438	3562.1
564.637	3531.38
564.836	3412.6
565.035	3388.02
565.234	3277.43
565.432	3361.4
565.631	3261.05
565.83	3293.82
566.029	3140.22
566.228	3007.1
566.427	3187.32
566.625	2865.79
566.824	3064.44
567.023	2925.18
567.222	2884.22
567.42	2841.22
567.619	2984.57
567.818	2656.9
568.016	2884.22
568.215	2660.99
568.414	2665.09
568.612	2648.71
568.811	2609.79
569.01	2601.6
569.208	2517.64
569.407	2474.63
569.605	2484.87
569.804	2468.48
570.002	2290.31
570.201	2198.15
570.4	2282.12
570.598	2181.77
570.797	2239.11
570.995	2048.65
571.193	2103.95
571.392	2112.14
571.59	1872.53
571.789	2069.13
571.987	2042.51
572.186	1954.44
572.384	1958.54
572.582	1800.85
572.781	2036.36
572.979	1757.84
573.177	1868.43
573.376	1841.81
573.574	1860.24
573.772	1643.15
573.971	1727.12
574.169	1553.04
574.367	1761.94
574.565	1651.35
574.763	1665.68
574.962	1614.48
575.16	1577.62
575.358	1514.13
575.556	1475.22
575.754	1501.84
575.952	1415.83
576.151	1505.94
576.349	1534.61
576.547	1313.43
576.745	1499.8
576.943	1333.91
577.141	1303.19
577.339	1254.04
577.537	1270.42
577.735	1389.21
577.933	1274.52
578.131	1182.36
578.329	1266.33
578.527	1215.13
578.725	1229.46
578.923	946.84
579.121	1176.22
579.319	1018.52
579.516	987.8
579.714	1245.85
579.912	1069.72
580.11	952.99
580.308	983.71
580.506	1014.43
580.704	832.16
580.901	987.8
581.099	1069.72
581.297	965.28
581.495	998.04
581.692	963.23
581.89	969.37
582.088	928.41
582.285	877.21
582.483	842.4
582.681	903.84
582.878	895.64
583.076	809.63
583.274	721.57
583.471	987.8
583.669	844.45
583.866	672.42
584.064	758.43
584.262	713.38
584.459	750.24
584.657	707.23
584.854	840.35
585.052	715.42
585.249	803.49
585.447	684.7
585.644	660.13
585.841	748.19
586.039	780.96
586.236	705.18
586.434	637.6
586.631	633.5
586.828	572.07
587.026	682.66
587.223	496.29
587.42	473.76
587.618	674.46
587.815	785.05
588.012	547.49
588.21	531.11
588.407	627.36
588.604	656.03
588.801	559.78
588.999	639.65
589.196	623.27
589.393	561.83
589.59	602.79
589.787	643.74
589.984	617.12
590.182	527.01
590.379	516.77
590.576	518.82
590.773	649.89
590.97	481.96
591.167	543.39
591.364	502.43
591.561	553.63
591.758	645.79
591.955	514.72
592.152	621.22
592.349	520.87
592.546	541.35
592.743	518.82
592.94	498.34
593.137	533.15
593.334	596.64
593.531	555.68
593.727	506.53
593.924	471.72
594.121	502.43
594.318	553.63
594.515	543.39
594.712	674.46
594.908	764.58
595.105	500.39
595.302	586.4
595.499	570.02
595.696	725.66
595.892	498.34
596.089	752.29
596.286	570.02
596.482	639.65
596.679	678.56
596.876	633.5
597.072	666.27
597.269	686.75
597.466	768.67
597.662	725.66
597.859	664.22
598.055	766.62
598.252	783.01
598.448	858.78
598.645	930.46
598.841	899.74
599.038	993.95
599.234	1034.91
599.431	1063.58
599.627	1039
599.824	1139.35
600.02	1047.19
600.217	1075.87
600.413	1243.8
600.609	1176.22
600.806	1493.65
601.002	1333.91
601.198	1299.09
601.395	1503.89
601.591	1546.9
601.787	1602.19
601.984	1573.52
602.18	1729.17
602.376	1811.09
602.572	2026.12
602.769	1929.87
602.965	1888.91
603.161	1936.01
603.357	2089.61
603.553	2218.63
603.75	2122.38
603.946	2165.39
604.142	2382.47
604.338	2491.01
604.534	2499.2
604.73	2644.61
604.926	2615.94
605.122	2863.74
605.318	2775.68
605.514	2978.43
605.71	2947.71
605.906	3078.78
606.102	3205.75
606.298	3422.84
606.494	3584.63
606.69	3639.92
606.886	3467.89
607.082	3658.35
607.278	3787.38
607.474	3836.53
607.67	3961.45
607.866	3951.21
608.062	4252.27
608.257	4305.51
608.453	4344.42
608.649	4528.74
608.845	4702.82
609.041	4768.35
609.236	4975.2
609.432	5003.87
609.628	5245.53
609.824	5446.23
610.019	5302.87
610.215	5614.16
610.411	5759.57
610.606	6138.44
610.802	6079.05
610.998	6042.19
611.193	6347.34
611.389	6347.34
611.584	6781.51
611.78	6562.37
611.976	7031.36
612.171	7264.83
612.367	7617.08
612.562	7623.22
612.758	7772.72
612.953	7920.18
613.149	8233.52
613.344	8313.39
613.539	8849.96
613.735	8974.88
613.93	9261.6
614.126	9466.39
614.321	9763.35
614.517	10009.11
614.712	9902.61
614.907	10420.75
615.103	10707.46
615.298	10936.84
615.493	11186.69
615.688	11311.61
615.884	11858.42
616.079	11973.11
616.274	12360.17
616.47	12462.57
616.665	12933.61
616.86	13105.63
617.055	13527.52
617.25	14051.8
617.445	14375.38
617.641	14502.35
617.836	14952.9
618.031	14928.33
618.226	15868.34
618.421	15833.53
618.616	16325.04
618.811	16869.8
619.006	17217.96
619.201	17416.61
619.396	18008.47
619.591	17926.55
619.786	18938.25
619.981	19120.52
620.176	19521.92
620.371	19736.96
620.566	20138.36
620.761	20617.58
620.956	21455.2
621.151	21465.44
621.346	22067.55
621.541	21973.34
621.735	22927.69
621.93	22782.29
622.125	23423.3
622.32	23589.19
622.515	24568.12
622.709	25039.15
622.904	25520.42
623.099	25733.41
623.294	26468.63
623.488	26345.75
623.683	27222.28
623.878	27480.33
624.072	27988.22
624.267	28340.47
624.462	28621.05
624.656	29171.95
624.851	29573.35
625.046	29903.07
625.24	30724.31
625.435	30941.39
625.629	31455.43
625.824	31359.18
626.018	32121.02
626.213	31932.61
626.407	33022.13
626.602	33067.19
626.796	33679.53
626.991	33931.43
627.185	34056.35
627.38	34465.95
627.574	34242.72
627.768	34511
627.963	34531.48
628.157	34961.56
628.352	35088.53
628.546	34873.49
628.74	35797.13
628.935	34736.28
629.129	35170.45
629.323	34613.4
629.517	34732.18
629.712	34597.02
629.906	34056.35
630.1	33659.05
630.294	33999.01
630.489	32901.3
630.683	33093.81
630.877	32168.13
631.071	31404.24
631.265	31336.65
631.459	30847.19
631.653	29784.29
631.848	29356.27
632.042	28297.47
632.236	27920.64
632.43	27111.69
632.624	26577.17
632.818	25602.34
633.012	24723.76
633.206	24181.05
633.4	23349.57
633.594	22395.22
633.788	21549.41
633.982	20908.4
634.176	20240.76
634.369	19542.4
634.563	18899.34
634.757	18069.91
634.951	17605.02
635.145	16718.25
635.339	16163.25
635.533	15638.97
635.726	15319.49
635.92	14129.62
636.114	13609.43
636.308	13083.11
636.501	12665.32
636.695	12249.58
636.889	11588.09
637.083	11270.65
637.276	10791.43
637.47	10256.91
637.664	9695.77
637.857	9509.4
638.051	9089.57
638.244	8663.59
638.438	8329.77
638.632	8075.82
638.825	7520.82
639.019	7447.1
639.212	7051.84
639.406	6781.51
639.599	6496.84
639.793	6304.33
639.986	5812.82
640.18	6009.42
640.373	5573.21
640.567	5347.93
640.76	5106.27
640.954	4915.81
641.147	4794.98
641.34	4713.06
641.534	4436.58
641.727	4436.58
641.92	4139.63
642.114	3990.13
642.307	3787.38
642.5	3617.4
642.694	3496.57
642.887	3297.91
643.08	3295.86
643.273	3125.88
643.467	2916.99
643.66	2988.67
643.853	2738.82
644.046	2697.86
644.239	2581.12
644.432	2405
644.626	2257.54
644.819	2278.02
645.012	2149
645.205	2153.1
645.398	2081.42
645.591	1950.35
645.784	1788.56
645.977	1653.39
646.17	1653.39
646.363	1641.11
646.556	1602.19
646.749	1440.4
646.942	1516.18
647.135	1430.16
647.328	1352.34
647.521	1366.68
647.714	1295
647.907	1239.7
648.099	1200.79
648.292	1165.98
648.485	1079.96
648.678	1118.87
648.871	969.37
649.064	1004.19
649.256	879.26
649.449	891.55
649.642	832.16
649.835	823.97
650.027	778.91
650.22	920.22
650.413	783.01
650.605	826.01
650.798	729.76
650.991	656.03
651.183	676.51
651.376	750.24
651.568	740
651.761	600.74
651.954	637.6
652.146	541.35
652.339	639.65
652.531	635.55
652.724	469.67
652.916	488.1
653.109	393.89
653.301	574.11
653.494	496.29
653.686	469.67
653.879	402.08
654.071	473.76
654.263	350.89
654.456	328.36
654.648	453.28
654.84	416.42
655.033	332.45
655.225	494.24
655.417	359.08
655.61	438.95
655.802	465.57
655.994	385.7
656.186	256.68
656.379	373.41
656.571	295.59
656.763	449.19
656.955	336.55
657.148	248.49
657.34	406.18
657.532	266.92
657.724	217.77
657.916	285.35
658.108	295.59
658.3	279.21
658.492	299.69
658.684	254.63
658.876	320.17
659.068	111.27
659.26	105.13
659.452	168.62
659.644	213.67
659.836	389.8
660.028	139.94
660.22	248.49
660.412	271.01
660.604	219.82
660.796	228.01
660.988	254.63
661.18	148.14
661.372	238.25
661.563	160.42
661.755	230.06
661.947	92.84
662.139	211.62
662.331	62.12
662.522	166.57
662.714	78.51
662.906	123.56
663.097	246.44
663.289	109.22
663.481	43.69
663.673	236.2
663.864	105.13
664.056	215.72
664.247	123.56
664.439	238.25
664.631	219.82
664.822	162.47
665.014	154.28
665.205	55.98
665.397	117.42
665.588	135.85
665.78	121.51
665.971	176.81
666.163	135.85
666.354	256.68
666.546	86.7
666.737	133.8
666.929	125.61
667.12	156.33
667.311	182.95
667.503	90.79
667.694	178.86
667.885	168.62
668.077	135.85
668.268	35.5
668.459	115.37
668.651	72.36
668.842	137.9
669.033	92.84
669.224	41.64
669.416	389.8
669.607	125.61
669.798	43.69
669.989	271.01
670.18	72.36
670.371	240.29
670.563	107.18
670.754	141.99
670.945	256.68
671.136	199.34
671.327	74.41
671.518	236.2
671.709	324.26
671.9	197.29
672.091	268.97
672.282	103.08
672.473	236.2
672.664	53.93
672.855	109.22
673.046	168.62
673.237	240.29
673.428	96.94
673.619	133.8
673.809	123.56
674	225.96
674.191	172.71
674.382	115.37
674.573	96.94
674.764	72.36
674.954	268.97
675.145	139.94
675.336	74.41
675.527	70.31
675.717	90.79
675.908	129.7
676.099	86.7
676.289	119.46
676.48	25.26
676.671	172.71
676.861	150.18
677.052	197.29
677.243	148.14
677.433	74.41
677.624	228.01
677.814	209.58
678.005	43.69
678.195	246.44
678.386	121.51
678.576	176.81
678.767	139.94
678.957	187.05
679.148	158.38
679.338	215.72
679.529	203.43
679.719	201.38
679.909	215.72
680.1	172.71
680.29	232.1
680.481	135.85
680.671	262.82
680.861	154.28
681.052	213.67
681.242	203.43
681.432	197.29
681.622	164.52
681.813	84.65
682.003	166.57
682.193	168.62
682.383	213.67
682.573	240.29
682.764	217.77
682.954	172.71
683.144	291.49
683.334	172.71
683.524	232.1
683.714	242.34
683.904	199.34
684.094	240.29
684.284	232.1
684.474	350.89
684.664	221.86
684.854	322.21
685.044	152.23
685.234	248.49
685.424	219.82
685.614	219.82
685.804	373.41
685.994	176.81
686.184	271.01
686.374	172.71
686.564	219.82
686.753	258.73
686.943	156.33
687.133	156.33
687.323	275.11
687.513	314.02
687.702	129.7
687.892	160.42
688.082	199.34
688.272	209.58
688.461	260.77
688.651	406.18
688.841	293.54
689.03	135.85
689.22	291.49
689.41	301.73
689.599	236.2
689.789	277.16
689.979	318.12
690.168	230.06
690.358	283.3
690.547	285.35
690.737	309.93
690.926	285.35
691.116	203.43
691.305	197.29
691.495	246.44
691.684	131.75
691.874	242.34
692.063	240.29
692.252	299.69
692.442	324.26
692.631	164.52
692.82	207.53
693.01	330.41
693.199	236.2
693.388	307.88
693.578	191.14
693.767	273.06
693.956	238.25
694.146	172.71
694.335	232.1
694.524	303.78
694.713	176.81
694.902	158.38
695.092	268.97
695.281	180.9
695.47	230.06
695.659	141.99
695.848	221.86
696.037	244.39
696.226	305.83
696.415	182.95
696.604	350.89
696.793	326.31
696.982	221.86
697.171	404.13
697.36	234.15
697.549	266.92
697.738	123.56
697.927	162.47
698.116	131.75
698.305	273.06
698.494	291.49
698.683	215.72
698.872	346.79
699.061	185
699.25	254.63
699.438	293.54
699.627	246.44
699.816	283.3
700.005	191.14
700.193	223.91
700.382	234.15
700.571	344.74
700.76	217.77
700.948	338.6
701.137	285.35
701.326	240.29
701.514	187.05
701.703	242.34
701.892	201.38
702.08	350.89
702.269	109.22
702.457	154.28
702.646	320.17
702.834	246.44
703.023	248.49
703.212	348.84
703.4	260.77
703.589	232.1
703.777	246.44
703.965	144.04
704.154	195.24
704.342	170.66
704.531	154.28
704.719	195.24
704.907	260.77
705.096	154.28
705.284	189.1
705.472	254.63
705.661	172.71
705.849	297.64
706.037	324.26
706.226	340.65
706.414	242.34
706.602	197.29
706.79	291.49
706.979	180.9
707.167	256.68
707.355	123.56
707.543	277.16
707.731	221.86
707.919	244.39
708.107	213.67
708.296	115.37
708.484	242.34
708.672	316.07
708.86	232.1
709.048	256.68
709.236	144.04
709.424	207.53
709.612	250.53
709.8	150.18
709.988	266.92
710.176	307.88
710.364	330.41
710.551	236.2
710.739	248.49
710.927	219.82
711.115	256.68
711.303	289.45
711.491	264.87
711.679	135.85
711.866	189.1
712.054	195.24
712.242	314.02
712.43	326.31
712.617	197.29
712.805	256.68
712.993	215.72
713.181	137.9
713.368	279.21
713.556	225.96
713.744	197.29
713.931	432.8
714.119	338.6
714.306	199.34
714.494	299.69
714.682	328.36
714.869	148.14
715.057	207.53
715.244	129.7
715.432	234.15
715.619	225.96
715.807	303.78
715.994	242.34
716.182	271.01
716.369	277.16
716.556	291.49
716.744	139.94
716.931	117.42
717.119	299.69
717.306	215.72
717.493	256.68
717.681	293.54
717.868	119.46
718.055	277.16
718.242	250.53
718.43	320.17
718.617	295.59
718.804	176.81
718.991	367.27
719.179	281.25
719.366	311.97
719.553	262.82
719.74	305.83
719.927	225.96
720.114	275.11
720.301	178.86
720.488	191.14
720.676	230.06
720.863	365.22
721.05	326.31
721.237	318.12
721.424	387.75
721.611	354.98
721.798	156.33
721.985	248.49
722.172	285.35
722.358	230.06
722.545	395.94
722.732	293.54
722.919	400.04
723.106	264.87
723.293	303.78
723.48	357.03
723.667	144.04
723.853	377.51
724.04	273.06
724.227	299.69
724.414	195.24
724.6	307.88
724.787	309.93
724.974	387.75
725.161	305.83
725.347	260.77
725.534	375.46
725.72	311.97
725.907	371.37
726.094	391.84
726.28	252.58
726.467	305.83
726.653	275.11
726.84	307.88
727.027	479.91
727.213	258.73
727.4	305.83
727.586	287.4
727.773	297.64
727.959	289.45
728.145	314.02
728.332	363.17
728.518	301.73
728.705	314.02
728.891	328.36
729.077	350.89
729.264	254.63
729.45	242.34
729.636	441
729.823	314.02
730.009	414.37
730.195	375.46
730.382	357.03
730.568	225.96
730.754	365.22
730.94	266.92
731.126	357.03
731.313	322.21
731.499	254.63
731.685	268.97
731.871	404.13
732.057	320.17
732.243	367.27
732.429	256.68
732.615	408.23
732.801	371.37
732.987	295.59
733.173	297.64
733.359	254.63
733.545	352.93
733.731	271.01
733.917	373.41
734.103	385.7
734.289	303.78
734.475	266.92
734.661	469.67
734.847	295.59
735.033	318.12
735.219	393.89
735.404	379.56
735.59	254.63
735.776	289.45
735.962	320.17
736.148	385.7
736.333	410.28
736.519	367.27
736.705	381.6
736.89	346.79
737.076	361.13
737.262	301.73
737.447	256.68
737.633	281.25
737.819	438.95
738.004	408.23
738.19	316.07
738.375	393.89
738.561	404.13
738.747	377.51
738.932	248.49
739.118	484
739.303	381.6
739.489	389.8
739.674	334.5
739.859	264.87
740.045	422.56
740.23	258.73
740.416	287.4
740.601	342.69
740.786	320.17
740.972	211.62
741.157	346.79
741.342	238.25
741.528	182.95
741.713	350.89
741.898	293.54
742.084	354.98
742.269	357.03
742.454	275.11
742.639	434.85
742.824	348.84
743.01	451.24
743.195	449.19
743.38	254.63
743.565	250.53
743.75	383.65
743.935	371.37
744.12	311.97
744.305	240.29
744.49	328.36
744.675	340.65
744.86	275.11
745.045	455.33
745.23	379.56
745.415	350.89
745.6	453.28
745.785	324.26
745.97	334.5
746.155	383.65
746.34	391.84
746.525	387.75
746.71	391.84
746.895	297.64
747.079	219.82
747.264	238.25
747.449	285.35
747.634	359.08
747.819	352.93
748.003	287.4
748.188	238.25
748.373	377.51
748.557	336.55
748.742	359.08
748.927	338.6
749.111	258.73
749.296	330.41
749.481	350.89
749.665	316.07
749.85	252.58
750.034	402.08
750.219	250.53
750.404	199.34
750.588	326.31
750.773	260.77
750.957	228.01
751.141	279.21
751.326	287.4
751.51	248.49
751.695	262.82
751.879	219.82
752.064	488.1
752.248	268.97
752.432	314.02
752.617	318.12
752.801	291.49
752.985	172.71
753.17	336.55
753.354	213.67
753.538	291.49
753.722	225.96
753.907	271.01
754.091	185
754.275	174.76
754.459	211.62
754.643	211.62
754.828	234.15
755.012	289.45
755.196	174.76
755.38	273.06
755.564	180.9
755.748	209.58
755.932	318.12
756.116	275.11
756.3	301.73
756.484	240.29
756.668	205.48
756.852	78.51
757.036	217.77
757.22	293.54
757.404	213.67
757.588	129.7
757.772	307.88
757.956	162.47
758.14	279.21
758.323	150.18
758.507	260.77
758.691	131.75
758.875	170.66
759.059	318.12
759.242	201.38
759.426	162.47
759.61	170.66
759.794	164.52
759.977	180.9
760.161	379.56
760.345	275.11
760.528	240.29
760.712	225.96
760.895	287.4
761.079	96.94
761.263	123.56
761.446	41.64
761.63	41.64
761.813	271.01
761.997	78.51
762.18	185
762.364	260.77
762.547	88.75
762.731	187.05
762.914	148.14
763.098	170.66
763.281	146.09
763.464	162.47
763.648	109.22
763.831	121.51
764.015	121.51
764.198	244.39
764.381	66.22
764.564	141.99
764.748	185
764.931	160.42
765.114	117.42
765.297	199.34
765.481	86.7
765.664	111.27
765.847	191.14
766.03	225.96
766.213	86.7
766.397	45.74
766.58	8.87
766.763	221.86
766.946	58.03
767.129	203.43
767.312	166.57
767.495	92.84
767.678	109.22
767.861	135.85
768.044	45.74
768.227	62.12
768.41	164.52
768.593	98.99
768.776	211.62
768.959	86.7
769.142	225.96
769.324	31.4
769.507	166.57
769.69	17.07
769.873	74.41
770.056	338.6
770.239	84.65
770.421	199.34
770.604	180.9
770.787	158.38
770.97	111.27
771.152	72.36
771.335	115.37
771.518	66.22
771.7	203.43
771.883	195.24
772.066	107.18
772.248	125.61
772.431	141.99
772.613	125.61
772.796	115.37
772.978	166.57
773.161	285.35
773.343	92.84
773.526	37.55
773.708	-5.46
773.891	21.16
774.073	78.51
774.256	123.56
774.438	250.53
774.621	31.4
774.803	160.42
774.985	101.03
775.168	127.66
775.35	43.69
775.532	148.14
775.715	47.79
775.897	139.94
776.079	96.94
776.261	144.04
776.444	60.07
776.626	27.31
776.808	-17.75
776.99	-40.28
777.173	45.74
777.355	76.46
777.537	105.13
777.719	23.21
777.901	88.75
778.083	6.83
778.265	60.07
778.447	223.91
778.629	10.92
778.811	82.6
778.993	158.38
779.175	158.38
779.357	74.41
779.539	-17.75
779.721	66.22
779.903	182.95
780.085	84.65
780.267	98.99
780.449	111.27
780.631	156.33
780.812	131.75
780.994	76.46
781.176	39.59
781.358	66.22
781.54	-13.65
781.721	131.75
781.903	158.38
782.085	23.21
782.267	185
782.448	39.59
782.63	-36.18
782.812	98.99
782.993	68.27
783.175	166.57
783.357	68.27
783.538	96.94
783.72	51.88
783.901	62.12
784.083	123.56
784.264	96.94
784.446	23.21
784.627	49.83
784.809	217.77
784.99	49.83
785.172	80.55
785.353	94.89
785.535	90.79
785.716	74.41
785.897	25.26
786.079	109.22
786.26	62.12
786.441	90.79
786.623	-87.38
786.804	58.03
786.985	105.13
787.167	109.22
787.348	66.22
787.529	35.5
787.71	217.77
787.891	119.46
788.073	-25.94
788.254	-48.47
788.435	225.96
788.616	51.88
788.797	-27.99
788.978	-3.41
789.159	51.88
789.34	8.87
789.522	64.17
789.703	-11.61
789.884	117.42
790.065	37.55
790.246	164.52
790.427	25.26
790.607	144.04
790.788	162.47
790.969	64.17
791.15	103.08
791.331	-7.51
791.512	41.64
791.693	-23.89
791.874	45.74
792.054	166.57
792.235	117.42
792.416	49.83
792.597	-62.8
792.778	43.69
792.958	76.46
793.139	129.7
793.32	117.42
793.5	-56.66
793.681	86.7
793.862	10.92
794.042	17.07
794.223	-71
794.404	70.31
794.584	-64.85
794.765	-13.65
794.945	-7.51
795.126	92.84
795.306	53.93
795.487	-79.19
795.667	72.36
795.848	88.75
796.028	41.64
796.209	45.74
796.389	76.46
796.57	43.69
796.75	15.02
796.93	6.83
797.111	-11.61
797.291	6.83
797.471	125.61
797.652	-1.37
797.832	80.55
798.012	15.02
798.192	58.03
798.373	-66.9
798.553	53.93
798.733	37.55
798.913	-95.57
799.093	-11.61
799.274	15.02
799.454	144.04
799.634	109.22
799.814	76.46
799.994	19.11
800.174	74.41
800.354	49.83
800.534	-95.57
800.714	127.66
800.894	-3.41
801.074	-46.42
801.254	8.87
801.434	107.18
801.614	-3.41
801.794	-44.37
801.974	1741.46
802.154	-9.56
802.334	94.89
802.514	-44.37
802.693	8.87
802.873	10.92
803.053	90.79
803.233	84.65
803.413	-30.04
803.592	-13.65
803.772	-40.28
803.952	-11.61
804.131	-27.99
804.311	113.32
804.491	150.18
804.67	6.83
804.85	25.26
805.03	113.32
805.209	117.42
805.389	0.68
805.568	15.02
805.748	31.4
805.928	27.31
806.107	31.4
806.287	90.79
806.466	39.59
806.646	8.87
806.825	-27.99
807.004	-1.37
807.184	27.31
807.363	90.79
807.543	21.16
807.722	-73.04
807.901	80.55
808.081	47.79
808.26	-101.72
808.439	127.66
808.619	39.59
808.798	62.12
808.977	62.12
809.156	141.99
809.336	21.16
809.515	107.18
809.694	-107.86
809.873	25.26
810.052	31.4
810.231	131.75
810.411	33.45
810.59	115.37
810.769	29.35
810.948	66.22
811.127	-75.09
811.306	-89.43
811.485	-30.04
811.664	109.22
811.843	-13.65
812.022	70.31
812.201	82.6
812.38	4.78
812.559	-44.37
812.737	76.46
812.916	-73.04
813.095	-56.66
813.274	98.99
813.453	-19.8
813.632	55.98
813.811	78.51
813.989	-15.7
814.168	-13.65
814.347	-42.32
814.526	-19.8
814.704	203.43
814.883	39.59
815.062	-68.95
815.24	2.73
815.419	-36.18
815.598	41.64
815.776	-177.49
815.955	-40.28
816.133	-132.44
816.312	17.07
816.49	-5.46
816.669	-13.65
816.847	55.98
817.026	53.93
817.204	-7.51
817.383	27.31
817.561	-15.7
817.74	0.68
817.918	-17.75
818.097	-42.32
818.275	62.12
818.453	113.32
818.632	25.26
818.81	-36.18
818.988	15.02
819.167	-21.85
819.345	-27.99
819.523	-44.37
819.701	47.79
819.879	53.93
820.058	-9.56
820.236	-50.52
820.414	-13.65
820.592	-19.8
820.77	-21.85
820.948	-58.71
821.127	15.02
821.305	129.7
821.483	15.02
821.661	68.27
821.839	129.7
822.017	-11.61
822.195	-66.9
822.373	39.59
822.551	-15.7
822.729	103.08
822.907	-7.51
823.085	41.64
823.262	29.35
823.44	-36.18
823.618	-60.76
823.796	86.7
823.974	21.16
824.152	15.02
824.329	-23.89
824.507	-73.04
824.685	74.41
824.863	-27.99
825.04	-3.41
825.218	4.78
825.396	39.59
825.574	-5.46
825.751	53.93
825.929	-23.89
826.107	-73.04
826.284	-7.51
826.462	49.83
826.639	-71
826.817	-42.32
826.994	72.36
827.172	-97.62
827.349	127.66
827.527	103.08
827.704	-17.75
827.882	76.46
828.059	-32.08
828.237	74.41
828.414	37.55
828.591	-83.28
828.769	-19.8
828.946	-150.87
829.124	70.31
829.301	158.38
829.478	-7.51
829.655	123.56
829.833	-23.89
830.01	-85.33
830.187	41.64
830.364	29.35
830.542	29.35
830.719	25.26
830.896	-25.94
831.073	98.99
831.25	84.65
831.427	86.7
831.604	23.21
831.782	-9.56
831.959	70.31
832.136	12.97
832.313	88.75
832.49	17.07
832.667	6.83
832.844	-87.38
833.021	107.18
833.198	12.97
833.374	25.26
833.551	55.98
833.728	-60.76
833.905	49.83
834.082	-79.19
834.259	55.98
834.436	51.88
834.612	35.5
834.789	84.65
834.966	25.26
835.143	31.4
835.319	-34.13
835.496	72.36
835.673	47.79
835.85	64.17
836.026	-7.51
836.203	2.73
836.38	-27.99
836.556	-32.08
836.733	-19.8
836.909	170.66
837.086	10.92
837.262	-126.29
837.439	-38.23
837.616	-42.32
837.792	-58.71
837.968	33.45
838.145	-99.67
838.321	49.83
838.498	23.21
838.674	70.31
838.851	39.59
839.027	27.31
839.203	-107.86
839.38	94.89
839.556	-42.32
839.732	19.11
839.909	51.88
840.085	80.55
840.261	-124.24
840.437	-34.13
840.614	-19.8
840.79	45.74
840.966	62.12
841.142	94.89
841.318	-56.66
841.494	0.68
841.671	70.31
841.847	-54.61
842.023	-50.52
842.199	0.68
842.375	105.13
842.551	-124.24
842.727	-85.33
842.903	154.28
843.079	-13.65
843.255	150.18
843.431	27.31
843.607	-32.08
843.783	-197.97
843.959	33.45
844.134	-89.43
844.31	92.84
844.486	-56.66
844.662	-60.76
844.838	-40.28
845.013	37.55
845.189	17.07
845.365	115.37
845.541	19.11
845.716	10.92
845.892	92.84
846.068	-60.76
846.244	-44.37
846.419	17.07
846.595	41.64
846.77	-15.7
846.946	86.7
847.122	-13.65
847.297	-23.89
847.473	98.99
847.648	-124.24
847.824	27.31
847.999	-48.47
848.175	-13.65
848.35	62.12
848.526	164.52
848.701	90.79
848.876	86.7
849.052	137.9
849.227	-17.75
849.403	-34.13
849.578	-58.71
849.753	-52.56
849.929	12.97
850.104	-97.62
850.279	25.26
850.454	-30.04
850.63	55.98
850.805	-40.28
850.98	51.88
851.155	29.35
851.33	15.02
851.505	-27.99
851.681	127.66
851.856	-68.95
852.031	12.97
852.206	4.78
852.381	25.26
852.556	33.45
852.731	43.69
852.906	88.75
853.081	37.55
853.256	109.22
853.431	-91.48
853.606	-30.04
853.781	-81.24
853.956	-111.96
854.131	29.35
854.305	-66.9
854.48	27.31
854.655	-48.47
854.83	-75.09
855.005	47.79
855.18	2.73
855.354	41.64
855.529	-5.46
855.704	12.97
855.879	33.45
856.053	-27.99
856.228	35.5
856.403	-62.8
856.577	45.74
856.752	-56.66
856.926	-62.8
857.101	0.68
857.276	-56.66
857.45	41.64
857.625	74.41
857.799	80.55
857.974	6.83
858.148	-97.62
858.323	-3.41
858.497	-1.37
858.672	-21.85
858.846	-75.09
859.02	70.31
859.195	15.02
859.369	2.73
859.543	4.78
859.718	-11.61
859.892	8.87
860.066	35.5
860.241	-105.81
860.415	-15.7
860.589	-44.37
860.763	-48.47
860.938	0.68
861.112	41.64
861.286	-62.8
861.46	17.07
861.634	10.92
861.808	101.03
861.982	-11.61
862.157	-81.24
862.331	-5.46
862.505	-116.05
862.679	-60.76
862.853	19.11
863.027	-13.65
863.201	115.37
863.375	-32.08
863.549	6.83
863.722	29.35
863.896	162.47
864.07	-83.28
864.244	-83.28
864.418	96.94
864.592	-48.47
864.766	-62.8
864.939	-38.23
865.113	-1.37
865.287	72.36
865.461	-38.23
865.634	-32.08
865.808	37.55
865.982	-15.7
866.156	-64.85
866.329	-56.66
866.503	51.88
866.676	-23.89
866.85	-42.32
867.024	-68.95
867.197	8.87
867.371	-15.7
867.544	8.87
867.718	-111.96
867.891	62.12
868.065	-109.91
868.238	60.07
868.412	-40.28
868.585	2.73
868.759	-48.47
868.932	-23.89
869.105	-71
869.279	0.68
869.452	-60.76
869.625	62.12
869.799	51.88
869.972	-52.56
870.145	-50.52
870.319	41.64
870.492	-58.71
870.665	-79.19
870.838	-42.32
871.011	-185.68
871.185	31.4
871.358	-21.85
871.531	156.33
871.704	-79.19
871.877	-34.13
872.05	-99.67
872.223	-40.28
872.396	58.03
872.569	39.59
872.742	-116.05
872.915	31.4
873.088	25.26
873.261	-32.08
873.434	141.99
873.607	-11.61
873.78	94.89
873.953	-148.82
874.126	33.45
874.299	72.36
874.471	-25.94
874.644	-9.56
874.817	92.84
874.99	166.57
875.163	-11.61
875.335	4.78
875.508	-46.42
875.681	107.18
875.853	-3.41
876.026	37.55
876.199	41.64
876.371	-54.61
876.544	-68.95
876.717	-56.66
876.889	-5.46
877.062	12.97
877.234	-7.51
877.407	0.68
877.579	-23.89
877.752	10.92
877.924	55.98
878.097	2.73
878.269	10.92
878.442	29.35
878.614	90.79
878.786	-1.37
878.959	-97.62
879.131	19.11
879.303	-120.15
879.476	-126.29
879.648	45.74
879.82	-89.43
879.993	17.07
880.165	-40.28
880.337	-77.14
880.509	58.03
880.681	-124.24
880.854	-32.08
881.026	80.55
881.198	172.71
881.37	-23.89
881.542	55.98
881.714	-1.37
881.886	-105.81
882.058	2.73
882.23	4.78
882.402	12.97
882.574	-11.61
882.746	51.88
882.918	160.42
883.09	37.55
883.262	25.26
883.434	-42.32
883.606	-120.15
883.778	33.45
883.95	111.27
884.122	29.35
884.293	21.16
884.465	39.59
884.637	51.88
884.809	-32.08
884.98	-83.28
885.152	19.11
885.324	60.07
885.496	-68.95
885.667	17.07
885.839	-73.04
886.011	148.14
886.182	64.17
886.354	76.46
886.525	8.87
886.697	49.83
886.869	-85.33
887.04	-23.89
887.212	180.9
887.383	92.84
887.555	41.64
887.726	-73.04
887.897	6.83
888.069	-46.42
888.24	4.78
888.412	-32.08
888.583	-89.43
888.754	6.83
888.926	45.74
889.097	-52.56
889.268	-122.2
889.44	29.35
889.611	-109.91
889.782	-85.33
889.953	-54.61
890.125	51.88
890.296	-89.43
890.467	-95.57
890.638	-25.94
890.809	-56.66
890.98	-87.38
891.151	-56.66
891.323	58.03
891.494	-44.37
891.665	21.16
891.836	-1.37
892.007	-54.61
892.178	-34.13
892.349	-83.28
892.52	-81.24
892.691	4.78
892.862	-40.28
893.032	-114
893.203	-7.51
893.374	15.02
893.545	70.31
893.716	39.59
893.887	76.46
894.057	-62.8
894.228	-40.28
894.399	-68.95
894.57	103.08
894.74	0.68
894.911	-30.04
895.082	4.78
895.253	-25.94
895.423	23.21
895.594	41.64
895.764	-3.41
895.935	-48.47
896.106	31.4
896.276	-97.62
896.447	-19.8
896.617	-122.2
896.788	-11.61
896.958	19.11
897.129	-62.8
897.299	-99.67
897.47	-1.37
897.64	74.41
897.81	-50.52
897.981	25.26
898.151	-21.85
898.322	78.51
898.492	101.03
898.662	-38.23
898.832	-85.33
899.003	-32.08
899.173	101.03
899.343	-73.04
899.513	-38.23
