Data from USB4F104151__24__09-26-08-517.txt Node

Date: Wed Feb 26 09:26:08 EST 2025
User: louis
Spectrometer: USB4F10415
Trigger mode: 4
Integration Time (sec): 1.000000E-1
Scans to average: 1
Electric dark correction enabled: true
Nonlinearity correction enabled: false
Boxcar width: 0
XAxis mode: Wavelengths
Number of Pixels in Spectrum: 3648
>>>>>Begin Spectral Data<<<<<
178.204	-286.2
178.424	-286.2
178.644	-286.2
178.864	-386.55
179.084	-306.68
179.304	-7.68
179.524	-62.98
179.744	8.7
179.964	107.01
180.184	-11.78
180.404	-17.92
180.624	-3.58
180.844	-28.16
181.064	-36.35
181.283	23.04
181.503	-15.87
181.723	45.57
181.943	-99.84
182.163	193.02
182.383	-50.69
182.602	45.57
182.822	147.97
183.042	64
183.262	-103.93
183.482	12.8
183.701	45.57
183.921	92.67
184.141	14.85
184.361	47.62
184.58	18.94
184.8	37.38
185.02	35.33
185.239	131.58
185.459	100.86
185.679	96.77
185.898	-60.93
186.118	92.67
186.338	92.67
186.557	49.66
186.777	-36.35
186.997	29.18
187.216	-7.68
187.436	107.01
187.655	66.05
187.875	78.33
188.095	68.09
188.314	143.87
188.534	123.39
188.753	-77.31
188.973	174.59
189.192	121.34
189.412	12.8
189.631	51.71
189.851	78.33
190.07	184.83
190.29	-52.74
190.509	86.53
190.729	-7.68
190.948	86.53
191.168	274.94
191.387	107.01
191.607	-5.63
191.826	86.53
192.045	-11.78
192.265	39.42
192.484	20.99
192.704	-32.26
192.923	-34.3
193.142	158.21
193.362	61.95
193.581	127.49
193.8	90.62
194.02	115.2
194.239	78.33
194.458	139.77
194.678	51.71
194.897	-87.55
195.116	16.9
195.335	37.38
195.555	76.29
195.774	8.7
195.993	111.1
196.212	12.8
196.432	-15.87
196.651	0.51
196.87	74.24
197.089	213.5
197.308	66.05
197.528	92.67
197.747	-42.5
197.966	94.72
198.185	80.38
198.404	20.99
198.623	135.68
198.842	109.05
199.062	166.4
199.281	123.39
199.5	-3.58
199.719	88.57
199.938	100.86
200.157	53.76
200.376	74.24
200.595	43.52
200.814	39.42
201.033	4.61
201.252	96.77
201.471	-3.58
201.69	33.28
201.909	-26.11
202.128	66.05
202.347	70.14
202.566	45.57
202.785	-3.58
203.004	4.61
203.223	193.02
203.442	41.47
203.661	37.38
203.879	70.14
204.098	123.39
204.317	-22.02
204.536	25.09
204.755	141.82
204.974	53.76
205.193	53.76
205.411	49.66
205.63	39.42
205.849	-19.97
206.068	37.38
206.287	4.61
206.505	104.96
206.724	-85.5
206.943	-38.4
207.162	-22.02
207.381	129.53
207.599	68.09
207.818	35.33
208.037	4.61
208.255	49.66
208.474	107.01
208.693	6.66
208.911	-60.93
209.13	72.19
209.349	61.95
209.567	57.86
209.786	68.09
210.005	141.82
210.223	68.09
210.442	-112.13
210.661	59.9
210.879	109.05
211.098	80.38
211.316	-13.82
211.535	49.66
211.753	43.52
211.972	49.66
212.191	-11.78
212.409	8.7
212.628	127.49
212.846	-5.63
213.065	14.85
213.283	47.62
213.502	2.56
213.72	61.95
213.938	12.8
214.157	41.47
214.375	125.44
214.594	-5.63
214.812	53.76
215.031	-28.16
215.249	-15.87
215.467	45.57
215.686	18.94
215.904	162.3
216.122	4.61
216.341	102.91
216.559	66.05
216.778	86.53
216.996	49.66
217.214	37.38
217.432	-36.35
217.651	-30.21
217.869	-3.58
218.087	4.61
218.306	35.33
218.524	39.42
218.742	92.67
218.96	176.64
219.179	0.51
219.397	4.61
219.615	92.67
219.833	125.44
220.051	-3.58
220.27	107.01
220.488	23.04
220.706	104.96
220.924	29.18
221.142	49.66
221.36	35.33
221.578	-13.82
221.796	-54.78
222.015	39.42
222.233	68.09
222.451	88.57
222.669	35.33
222.887	72.19
223.105	29.18
223.323	-15.87
223.541	-60.93
223.759	45.57
223.977	66.05
224.195	162.3
224.413	90.62
224.631	0.51
224.849	33.28
225.067	176.64
225.285	-13.82
225.503	49.66
225.721	-163.33
225.939	23.04
226.157	41.47
226.375	233.98
226.592	-46.59
226.81	82.43
227.028	66.05
227.246	137.73
227.464	74.24
227.682	80.38
227.9	61.95
228.117	55.81
228.335	12.8
228.553	70.14
228.771	59.9
228.989	57.86
229.206	158.21
229.424	4.61
229.642	70.14
229.86	-54.78
230.077	111.1
230.295	2.56
230.513	141.82
230.731	-40.45
230.948	199.16
231.166	127.49
231.384	-17.92
231.601	88.57
231.819	162.3
232.037	-24.06
232.254	-114.17
232.472	57.86
232.689	70.14
232.907	139.77
233.125	-17.92
233.342	53.76
233.56	25.09
233.777	70.14
233.995	-42.5
234.213	127.49
234.43	109.05
234.648	12.8
234.865	-60.93
235.083	27.14
235.3	61.95
235.518	68.09
235.735	182.78
235.953	84.48
236.17	12.8
236.388	-1.54
236.605	129.53
236.822	96.77
237.04	152.06
237.257	31.23
237.475	16.9
237.692	35.33
237.909	86.53
238.127	4.61
238.344	68.09
238.562	2.56
238.779	-81.41
238.996	-69.12
239.214	20.99
239.431	70.14
239.648	16.9
239.865	94.72
240.083	94.72
240.3	53.76
240.517	25.09
240.735	-1.54
240.952	82.43
241.169	90.62
241.386	78.33
241.603	59.9
241.821	-11.78
242.038	109.05
242.255	102.91
242.472	41.47
242.689	35.33
242.907	180.73
243.124	43.52
243.341	-24.06
243.558	10.75
243.775	-5.63
243.992	-56.83
244.209	86.53
244.426	203.26
244.643	39.42
244.86	-3.58
245.078	33.28
245.295	117.25
245.512	-15.87
245.729	35.33
245.946	125.44
246.163	0.51
246.38	61.95
246.597	88.57
246.814	59.9
247.031	53.76
247.248	59.9
247.464	16.9
247.681	-7.68
247.898	27.14
248.115	102.91
248.332	-13.82
248.549	133.63
248.766	115.2
248.983	74.24
249.2	119.29
249.417	61.95
249.633	37.38
249.85	84.48
250.067	0.51
250.284	45.57
250.501	-40.45
250.717	127.49
250.934	-67.07
251.151	8.7
251.368	25.09
251.585	64
251.801	66.05
252.018	-11.78
252.235	84.48
252.451	-3.58
252.668	41.47
252.885	68.09
253.102	29.18
253.318	29.18
253.535	-28.16
253.752	4.61
253.968	-19.97
254.185	4.61
254.401	70.14
254.618	68.09
254.835	37.38
255.051	195.07
255.268	41.47
255.484	117.25
255.701	31.23
255.917	135.68
256.134	-52.74
256.351	-1.54
256.567	23.04
256.784	41.47
257	-38.4
257.217	123.39
257.433	141.82
257.65	76.29
257.866	100.86
258.082	-11.78
258.299	31.23
258.515	53.76
258.732	31.23
258.948	-120.32
259.165	18.94
259.381	-32.26
259.597	47.62
259.814	43.52
260.03	57.86
260.246	47.62
260.463	119.29
260.679	123.39
260.895	-11.78
261.112	80.38
261.328	41.47
261.544	6.66
261.761	154.11
261.977	-44.54
262.193	66.05
262.409	96.77
262.626	49.66
262.842	117.25
263.058	4.61
263.274	70.14
263.49	70.14
263.707	96.77
263.923	66.05
264.139	-89.6
264.355	66.05
264.571	49.66
264.787	94.72
265.004	156.16
265.22	-24.06
265.436	-26.11
265.652	27.14
265.868	41.47
266.084	-50.69
266.3	92.67
266.516	10.75
266.732	57.86
266.948	70.14
267.164	18.94
267.38	78.33
267.596	41.47
267.812	158.21
268.028	-11.78
268.244	23.04
268.46	102.91
268.676	4.61
268.892	68.09
269.108	0.51
269.324	-75.26
269.54	-28.16
269.756	94.72
269.972	-103.93
270.188	39.42
270.403	-50.69
270.619	70.14
270.835	74.24
271.051	98.81
271.267	20.99
271.483	-48.64
271.698	86.53
271.914	115.2
272.13	45.57
272.346	14.85
272.562	6.66
272.777	57.86
272.993	-52.74
273.209	-46.59
273.425	33.28
273.64	-73.21
273.856	86.53
274.072	78.33
274.287	49.66
274.503	84.48
274.719	41.47
274.934	14.85
275.15	-30.21
275.366	35.33
275.581	-36.35
275.797	0.51
276.012	102.91
276.228	37.38
276.444	92.67
276.659	43.52
276.875	-65.02
277.09	2.56
277.306	-32.26
277.521	82.43
277.737	-5.63
277.952	139.77
278.168	78.33
278.383	94.72
278.599	33.28
278.814	55.81
279.03	90.62
279.245	72.19
279.461	92.67
279.676	53.76
279.892	16.9
280.107	-93.69
280.322	-19.97
280.538	39.42
280.753	-73.21
280.969	125.44
281.184	76.29
281.399	82.43
281.615	25.09
281.83	12.8
282.045	-34.3
282.26	-1.54
282.476	88.57
282.691	111.1
282.906	84.48
283.122	39.42
283.337	-56.83
283.552	14.85
283.767	45.57
283.983	57.86
284.198	-5.63
284.413	12.8
284.628	-22.02
284.843	-24.06
285.058	23.04
285.274	-34.3
285.489	37.38
285.704	78.33
285.919	-58.88
286.134	-30.21
286.349	43.52
286.564	-30.21
286.779	221.69
286.995	59.9
287.21	-15.87
287.425	70.14
287.64	0.51
287.855	49.66
288.07	-54.78
288.285	139.77
288.5	147.97
288.715	66.05
288.93	-3.58
289.145	55.81
289.36	33.28
289.575	8.7
289.79	37.38
290.004	8.7
290.219	80.38
290.434	37.38
290.649	-24.06
290.864	10.75
291.079	-26.11
291.294	78.33
291.509	117.25
291.724	55.81
291.938	43.52
292.153	72.19
292.368	33.28
292.583	29.18
292.798	4.61
293.012	90.62
293.227	84.48
293.442	-9.73
293.657	111.1
293.871	61.95
294.086	98.81
294.301	147.97
294.516	166.4
294.73	51.71
294.945	-38.4
295.16	-85.5
295.374	160.25
295.589	59.9
295.804	8.7
296.018	8.7
296.233	113.15
296.447	33.28
296.662	2.56
296.877	123.39
297.091	78.33
297.306	12.8
297.52	59.9
297.735	-15.87
297.949	8.7
298.164	53.76
298.378	-5.63
298.593	-17.92
298.807	-3.58
299.022	143.87
299.236	45.57
299.451	18.94
299.665	-1.54
299.88	12.8
300.094	23.04
300.309	76.29
300.523	70.14
300.737	-40.45
300.952	86.53
301.166	158.21
301.381	6.66
301.595	57.86
301.809	86.53
302.024	-46.59
302.238	-71.17
302.452	115.2
302.667	29.18
302.881	45.57
303.095	68.09
303.309	27.14
303.524	-17.92
303.738	12.8
303.952	-11.78
304.166	61.95
304.381	-101.89
304.595	129.53
304.809	2.56
305.023	-5.63
305.237	25.09
305.452	-28.16
305.666	82.43
305.88	109.05
306.094	156.16
306.308	41.47
306.522	61.95
306.736	53.76
306.95	86.53
307.164	12.8
307.379	72.19
307.593	121.34
307.807	80.38
308.021	78.33
308.235	68.09
308.449	-75.26
308.663	-60.93
308.877	123.39
309.091	45.57
309.305	27.14
309.519	-11.78
309.733	74.24
309.947	37.38
310.161	100.86
310.374	57.86
310.588	70.14
310.802	18.94
311.016	25.09
311.23	37.38
311.444	-15.87
311.658	10.75
311.872	123.39
312.085	117.25
312.299	143.87
312.513	170.49
312.727	27.14
312.941	25.09
313.154	92.67
313.368	31.23
313.582	33.28
313.796	25.09
314.009	53.76
314.223	61.95
314.437	-11.78
314.651	180.73
314.864	-48.64
315.078	-15.87
315.292	-83.45
315.505	16.9
315.719	51.71
315.933	78.33
316.146	74.24
316.36	-13.82
316.573	94.72
316.787	104.96
317.001	39.42
317.214	-28.16
317.428	25.09
317.641	-60.93
317.855	-87.55
318.068	25.09
318.282	2.56
318.495	158.21
318.709	25.09
318.922	-32.26
319.136	111.1
319.349	133.63
319.563	-3.58
319.776	-3.58
319.99	-34.3
320.203	115.2
320.417	-22.02
320.63	135.68
320.843	107.01
321.057	59.9
321.27	10.75
321.483	27.14
321.697	121.34
321.91	43.52
322.124	39.42
322.337	68.09
322.55	-22.02
322.763	25.09
322.977	27.14
323.19	51.71
323.403	-30.21
323.617	78.33
323.83	123.39
324.043	10.75
324.256	-30.21
324.469	-60.93
324.683	45.57
324.896	35.33
325.109	86.53
325.322	-52.74
325.535	84.48
325.748	156.16
325.962	-32.26
326.175	78.33
326.388	70.14
326.601	145.92
326.814	-52.74
327.027	10.75
327.24	147.97
327.453	-62.98
327.666	176.64
327.879	86.53
328.092	78.33
328.305	35.33
328.518	59.9
328.731	-50.69
328.944	16.9
329.157	16.9
329.37	10.75
329.583	123.39
329.796	172.54
330.009	-36.35
330.222	104.96
330.435	90.62
330.648	29.18
330.861	84.48
331.073	0.51
331.286	123.39
331.499	31.23
331.712	53.76
331.925	31.23
332.138	84.48
332.35	119.29
332.563	8.7
332.776	147.97
332.989	18.94
333.202	102.91
333.414	33.28
333.627	53.76
333.84	0.51
334.053	49.66
334.265	4.61
334.478	41.47
334.691	14.85
334.903	27.14
335.116	12.8
335.329	2.56
335.541	100.86
335.754	78.33
335.966	-19.97
336.179	-69.12
336.392	-7.68
336.604	-30.21
336.817	49.66
337.029	84.48
337.242	70.14
337.454	109.05
337.667	55.81
337.88	45.57
338.092	119.29
338.305	57.86
338.517	78.33
338.729	57.86
338.942	47.62
339.154	-112.13
339.367	-83.45
339.579	107.01
339.792	-28.16
340.004	141.82
340.217	29.18
340.429	-17.92
340.641	-46.59
340.854	-52.74
341.066	45.57
341.278	127.49
341.491	86.53
341.703	39.42
341.915	-3.58
342.128	102.91
342.34	-3.58
342.552	4.61
342.764	80.38
342.977	-3.58
343.189	98.81
343.401	96.77
343.613	8.7
343.826	70.14
344.038	0.51
344.25	100.86
344.462	-71.17
344.674	43.52
344.886	84.48
345.099	98.81
345.311	100.86
345.523	74.24
345.735	2.56
345.947	82.43
346.159	41.47
346.371	12.8
346.583	53.76
346.795	113.15
347.007	27.14
347.219	0.51
347.431	35.33
347.643	111.1
347.855	31.23
348.067	131.58
348.279	-116.22
348.491	37.38
348.703	98.81
348.915	31.23
349.127	-30.21
349.339	72.19
349.551	-24.06
349.763	53.76
349.975	20.99
350.187	31.23
350.399	70.14
350.61	70.14
350.822	-11.78
351.034	78.33
351.246	45.57
351.458	25.09
351.669	70.14
351.881	133.63
352.093	76.29
352.305	111.1
352.517	18.94
352.728	90.62
352.94	127.49
353.152	111.1
353.363	12.8
353.575	53.76
353.787	57.86
353.999	25.09
354.21	184.83
354.422	20.99
354.633	16.9
354.845	86.53
355.057	59.9
355.268	45.57
355.48	47.62
355.692	-40.45
355.903	51.71
356.115	-9.73
356.326	-122.37
356.538	119.29
356.749	-7.68
356.961	184.83
357.172	45.57
357.384	-7.68
357.595	168.45
357.807	113.15
358.018	-48.64
358.23	8.7
358.441	137.73
358.653	29.18
358.864	18.94
359.075	18.94
359.287	68.09
359.498	123.39
359.709	47.62
359.921	10.75
360.132	45.57
360.344	-7.68
360.555	-5.63
360.766	-3.58
360.977	-15.87
361.189	86.53
361.4	-13.82
361.611	84.48
361.823	135.68
362.034	37.38
362.245	-87.55
362.456	27.14
362.667	125.44
362.879	8.7
363.09	125.44
363.301	84.48
363.512	61.95
363.723	-46.59
363.935	61.95
364.146	162.3
364.357	39.42
364.568	35.33
364.779	-17.92
364.99	172.54
365.201	41.47
365.412	80.38
365.623	-28.16
365.834	129.53
366.045	-3.58
366.256	23.04
366.467	74.24
366.678	51.71
366.889	57.86
367.1	14.85
367.311	43.52
367.522	53.76
367.733	102.91
367.944	47.62
368.155	37.38
368.366	94.72
368.577	35.33
368.788	170.49
368.999	-28.16
369.209	94.72
369.42	133.63
369.631	225.79
369.842	74.24
370.053	31.23
370.264	78.33
370.474	-36.35
370.685	27.14
370.896	18.94
371.107	133.63
371.317	135.68
371.528	20.99
371.739	76.29
371.95	82.43
372.16	64
372.371	-42.5
372.582	41.47
372.792	111.1
373.003	55.81
373.214	78.33
373.424	121.34
373.635	-28.16
373.846	78.33
374.056	29.18
374.267	111.1
374.477	164.35
374.688	23.04
374.898	53.76
375.109	125.44
375.319	35.33
375.53	160.25
375.74	143.87
375.951	-13.82
376.161	70.14
376.372	190.97
376.582	-15.87
376.793	41.47
377.003	12.8
377.214	-28.16
377.424	66.05
377.635	37.38
377.845	-19.97
378.055	127.49
378.266	-34.3
378.476	119.29
378.686	94.72
378.897	43.52
379.107	92.67
379.317	64
379.528	35.33
379.738	29.18
379.948	-73.21
380.158	80.38
380.369	109.05
380.579	133.63
380.789	82.43
380.999	76.29
381.21	2.56
381.42	133.63
381.63	18.94
381.84	57.86
382.05	68.09
382.261	53.76
382.471	115.2
382.681	10.75
382.891	152.06
383.101	68.09
383.311	-22.02
383.521	-77.31
383.731	39.42
383.941	70.14
384.151	51.71
384.361	29.18
384.571	20.99
384.781	10.75
384.991	127.49
385.201	143.87
385.411	164.35
385.621	133.63
385.831	8.7
386.041	41.47
386.251	53.76
386.461	137.73
386.671	-3.58
386.881	70.14
387.091	25.09
387.301	123.39
387.511	-5.63
387.72	20.99
387.93	100.86
388.14	-54.78
388.35	-17.92
388.56	113.15
388.769	47.62
388.979	6.66
389.189	49.66
389.399	16.9
389.609	168.45
389.818	170.49
390.028	70.14
390.238	102.91
390.447	100.86
390.657	78.33
390.867	20.99
391.076	-69.12
391.286	61.95
391.496	102.91
391.705	-24.06
391.915	82.43
392.125	82.43
392.334	-3.58
392.544	125.44
392.753	72.19
392.963	-30.21
393.172	82.43
393.382	51.71
393.591	190.97
393.801	80.38
394.01	84.48
394.22	102.91
394.429	-32.26
394.639	53.76
394.848	82.43
395.058	37.38
395.267	25.09
395.477	57.86
395.686	59.9
395.895	129.53
396.105	193.02
396.314	53.76
396.524	33.28
396.733	16.9
396.942	166.4
397.152	53.76
397.361	74.24
397.57	98.81
397.78	100.86
397.989	76.29
398.198	162.3
398.407	-17.92
398.617	53.76
398.826	74.24
399.035	74.24
399.244	82.43
399.453	92.67
399.663	51.71
399.872	68.09
400.081	-81.41
400.29	88.57
400.499	-19.97
400.708	170.49
400.917	86.53
401.127	29.18
401.336	23.04
401.545	172.54
401.754	64
401.963	100.86
402.172	-36.35
402.381	-13.82
402.59	53.76
402.799	41.47
403.008	111.1
403.217	94.72
403.426	90.62
403.635	-28.16
403.844	80.38
404.053	76.29
404.262	33.28
404.471	172.54
404.68	53.76
404.888	31.23
405.097	47.62
405.306	66.05
405.515	88.57
405.724	119.29
405.933	150.01
406.142	135.68
406.35	102.91
406.559	43.52
406.768	66.05
406.977	90.62
407.185	59.9
407.394	29.18
407.603	-5.63
407.812	59.9
408.02	35.33
408.229	86.53
408.438	23.04
408.646	10.75
408.855	61.95
409.064	45.57
409.272	-22.02
409.481	16.9
409.69	2.56
409.898	-32.26
410.107	102.91
410.315	164.35
410.524	41.47
410.733	150.01
410.941	156.16
411.15	127.49
411.358	-7.68
411.567	158.21
411.775	41.47
411.984	61.95
412.192	86.53
412.401	12.8
412.609	188.93
412.818	90.62
413.026	107.01
413.234	64
413.443	82.43
413.651	25.09
413.86	43.52
414.068	115.2
414.276	61.95
414.485	-32.26
414.693	152.06
414.901	176.64
415.11	82.43
415.318	-11.78
415.526	59.9
415.734	107.01
415.943	64
416.151	123.39
416.359	135.68
416.567	121.34
416.776	147.97
416.984	115.2
417.192	213.5
417.4	-13.82
417.608	33.28
417.817	-56.83
418.025	184.83
418.233	143.87
418.441	0.51
418.649	-11.78
418.857	76.29
419.065	107.01
419.273	-9.73
419.481	152.06
419.689	107.01
419.897	25.09
420.105	-40.45
420.313	139.77
420.521	152.06
420.729	150.01
420.937	35.33
421.145	64
421.353	127.49
421.561	221.69
421.769	100.86
421.977	-5.63
422.185	139.77
422.393	-28.16
422.601	41.47
422.809	113.15
423.017	18.94
423.224	94.72
423.432	109.05
423.64	121.34
423.848	164.35
424.056	35.33
424.263	74.24
424.471	92.67
424.679	178.69
424.887	0.51
425.094	86.53
425.302	88.57
425.51	37.38
425.718	162.3
425.925	115.2
426.133	51.71
426.341	227.84
426.548	61.95
426.756	143.87
426.964	74.24
427.171	53.76
427.379	61.95
427.586	102.91
427.794	104.96
428.001	209.4
428.209	154.11
428.417	147.97
428.624	115.2
428.832	119.29
429.039	145.92
429.247	102.91
429.454	254.46
429.662	240.12
429.869	94.72
430.076	199.16
430.284	262.65
430.491	242.17
430.699	150.01
430.906	238.08
431.114	98.81
431.321	178.69
431.528	186.88
431.736	225.79
431.943	205.31
432.15	193.02
432.358	289.28
432.565	299.52
432.772	107.01
432.979	231.93
433.187	172.54
433.394	315.9
433.601	184.83
433.808	233.98
434.016	262.65
434.223	258.56
434.43	268.8
434.637	285.18
434.844	375.29
435.052	217.6
435.259	332.28
435.466	324.09
435.673	387.58
435.88	371.19
436.087	360.95
436.294	340.47
436.501	266.75
436.708	328.19
436.915	455.16
437.122	373.24
437.329	387.58
437.537	340.47
437.743	406.01
437.95	483.83
438.157	465.4
438.364	463.35
438.571	475.64
438.778	496.12
438.985	535.03
439.192	627.19
439.399	555.51
439.606	580.09
439.813	584.18
440.02	698.87
440.227	764.4
440.433	696.82
440.64	733.68
440.847	674.29
441.054	672.25
441.261	829.94
441.467	877.04
441.674	842.23
441.881	872.95
442.088	813.56
442.294	885.23
442.501	987.63
442.708	915.95
442.914	1077.74
443.121	1163.76
443.328	1100.27
443.534	1079.79
443.741	1141.23
443.948	1047.02
444.154	1198.57
444.361	1446.38
444.568	1243.63
444.774	1348.08
444.981	1217.01
445.187	1495.53
445.394	1534.44
445.6	1487.34
445.807	1599.98
446.013	1745.38
446.22	1645.03
446.426	1876.45
446.633	1831.4
446.839	2099.68
447.046	1909.22
447.252	2052.58
447.459	2103.78
447.665	2040.29
447.871	2265.57
448.078	2503.13
448.284	2423.26
448.491	2587.1
448.697	2521.56
448.903	2851.28
449.11	2798.04
449.316	2830.8
449.522	3058.13
449.728	3164.62
449.935	3162.58
450.141	3215.82
450.347	3609.03
450.553	3398.09
450.76	3613.13
450.966	3842.5
451.172	3969.48
451.378	3928.52
451.584	4104.64
451.791	4383.17
451.997	4489.66
452.203	4557.24
452.409	4870.58
452.615	5087.67
452.821	4911.54
453.027	4923.83
453.233	5790.12
453.44	5562.8
453.646	5689.77
453.852	5992.87
454.058	6287.78
454.264	6250.91
454.47	6863.26
454.676	6836.63
454.882	7635.34
455.088	7188.88
455.294	7592.33
455.5	8040.84
455.705	8507.77
455.911	8388.99
456.117	8593.79
456.323	9130.36
456.529	9191.8
456.735	9707.88
456.941	10219.88
457.147	10471.78
457.352	10738.01
457.558	10955.1
457.764	11745.61
457.97	12116.3
458.176	12505.41
458.381	13070.65
458.587	13211.96
458.793	14213.42
458.999	13947.18
459.204	15868.17
459.41	16347.4
459.616	16177.42
459.821	16994.56
460.027	17963.25
460.233	18663.65
460.438	18577.64
460.644	19474.65
460.85	19769.55
461.055	20574.41
461.261	21899.44
461.466	21262.52
461.672	21803.19
461.878	24125.58
462.083	23967.89
462.289	24578.18
462.494	25442.43
462.7	25282.69
462.905	25897.08
463.111	27818.07
463.316	29548.61
463.522	29505.6
463.727	31014.95
463.932	32002.07
464.138	32888.84
464.343	33941.5
464.549	34465.78
464.754	36691.92
464.959	37904.32
465.165	38299.58
465.37	38262.71
465.575	38494.13
465.781	40574.87
465.986	41916.29
466.191	40990.61
466.397	41557.89
466.602	40640.4
466.807	42956.66
467.012	43419.5
467.218	44314.46
467.423	44240.73
467.628	45664.07
467.833	47763.24
468.038	46958.39
468.244	46292.8
468.449	48363.29
468.654	47406.89
468.859	47410.99
469.064	47791.91
469.269	46554.94
469.474	46724.92
469.679	47757.1
469.885	46552.89
470.09	47232.82
470.295	47224.62
470.5	46821.17
470.705	46599.99
470.91	45453.13
471.115	45195.09
471.32	45684.55
471.525	44980.05
471.73	44277.6
471.935	43532.14
472.139	41926.53
472.344	42203
472.549	41957.25
472.754	41295.75
472.959	40429.46
473.164	39116.72
473.369	38481.84
473.574	39364.52
473.778	38543.28
473.983	38016.96
474.188	37105.61
474.393	35598.3
474.598	35506.15
474.802	34815.98
475.007	34715.63
475.212	34125.82
475.417	32700.43
475.621	32106.52
475.826	32190.48
476.031	31297.57
476.235	30683.18
476.44	30662.7
476.645	29513.79
476.849	29765.69
477.054	29474.88
477.259	28420.17
477.463	28276.82
477.668	27365.47
477.872	27420.77
478.077	26876.01
478.282	26046.58
478.486	25915.51
478.691	25380.99
478.895	25114.75
479.1	25118.85
479.304	25149.57
479.509	24144.02
479.713	24633.48
479.918	23992.47
480.122	23611.54
480.326	24150.16
480.531	23736.47
480.735	23306.4
480.94	22876.32
481.144	23636.12
481.348	22694.05
481.553	22640.81
481.757	21995.7
481.961	22139.05
482.166	22513.83
482.37	22071.47
482.574	21418.17
482.778	21334.2
482.983	21745.84
483.187	21366.97
483.391	21305.53
483.595	20725.96
483.8	20502.73
484.004	20752.58
484.208	20222.16
484.412	20154.57
484.616	20109.52
484.821	19697.88
485.025	19394.78
485.229	19701.97
485.433	18888.93
485.637	18850.02
485.841	18299.11
486.045	18182.38
486.249	17981.68
486.453	17762.54
486.657	17561.84
486.861	17715.44
487.065	16957.69
487.269	16865.53
487.473	16019.72
487.677	16437.51
487.881	16255.24
488.085	15810.83
488.289	15634.71
488.493	15221.02
488.697	15081.75
488.901	14930.2
489.105	14559.52
489.309	14180.65
489.512	13977.9
489.716	13852.97
489.92	13617.46
490.124	13297.97
490.328	13109.56
490.531	12939.58
490.735	12603.71
490.939	12368.2
491.143	12163.4
491.346	12116.3
491.55	11921.74
491.754	11843.92
491.958	11729.23
492.161	11299.16
492.365	11051.35
492.569	10957.14
492.772	10776.92
492.976	10699.1
493.18	10629.47
493.383	10492.26
493.587	10348.9
493.79	10385.76
493.994	10082.66
494.197	9996.65
494.401	9845.1
494.605	9894.25
494.808	9621.87
495.012	9582.96
495.215	9652.59
495.419	9625.97
495.622	9605.49
495.825	9441.65
496.029	9439.6
496.232	9523.57
496.436	9109.88
496.639	9404.78
496.843	9306.48
497.046	9501.04
497.249	9587.05
497.453	9240.95
497.656	9398.64
497.859	9195.89
498.063	9408.88
498.266	9425.26
498.469	9300.34
498.673	9329.01
498.876	9537.9
499.079	9478.51
499.282	9361.78
499.485	9701.74
499.689	9574.77
499.892	9724.27
500.095	9711.98
500.298	9894.25
500.501	9621.87
500.705	10019.18
500.908	10123.62
501.111	10176.87
501.314	10236.26
501.517	10455.39
501.72	10436.96
501.923	10539.36
502.126	10582.37
502.329	10879.32
502.532	10881.37
502.735	11094.36
502.938	11284.82
503.141	11163.99
503.344	11424.08
503.547	11438.42
503.75	11766.09
503.953	11884.87
504.156	12015.94
504.359	12128.58
504.562	12024.14
504.765	12439.87
504.968	12759.36
505.17	12884.28
505.373	12863.8
505.576	13465.91
505.779	13445.43
505.982	13543.73
506.185	13889.84
506.387	13898.03
506.59	14524.71
506.793	14766.37
506.996	14799.13
507.198	15477.01
507.401	15436.05
507.604	15896.85
507.807	16187.66
508.009	16414.98
508.212	16533.76
508.415	16965.89
508.617	17596.66
508.82	17836.27
509.022	17772.78
509.225	18356.46
509.428	18673.89
509.63	18983.13
509.833	19501.27
510.035	20267.21
510.238	20406.47
510.44	20562.12
510.643	21416.12
510.845	21536.95
511.048	21727.41
511.25	22802.6
511.453	22896.8
511.655	24201.36
511.858	24039.57
512.06	25014.4
512.262	25286.78
512.465	25614.46
512.667	26552.43
512.87	26794.09
513.072	27646.04
513.274	28174.42
513.477	28506.19
513.679	29370.43
513.881	29896.76
514.084	30685.23
514.286	31342.63
514.488	31635.49
514.69	32806.92
514.893	33200.13
515.095	33781.76
515.297	34965.48
515.499	34924.52
515.701	36354.01
515.904	36726.74
516.106	37902.27
516.308	38117.31
516.51	39049.13
516.712	39221.16
516.914	40333.21
517.116	41375.62
517.318	42088.32
517.52	42530.68
517.722	43020.14
517.925	44007.26
518.127	44980.05
518.329	45870.92
518.531	46221.12
518.733	47073.07
518.935	47759.14
519.136	48543.52
519.338	49381.13
519.54	49815.3
519.742	50941.69
519.944	51216.11
520.146	52057.83
520.348	52778.71
520.55	53311.19
520.752	53595.85
520.954	54826.68
521.155	54705.85
521.357	55609.01
521.559	56221.35
521.761	57484.95
521.963	57159.32
522.164	57931.4
522.366	58173.06
522.568	59065.98
522.77	59528.82
522.971	59631.22
523.173	59475.57
523.375	60397.16
523.576	59686.51
523.778	60126.83
523.98	60995.17
524.181	61023.84
524.383	61726.29
524.584	62142.03
524.786	61701.71
524.988	61441.62
525.189	62203.47
525.391	61951.57
525.592	62092.88
525.794	62064.2
525.995	61904.46
526.197	62144.08
526.398	61888.08
526.6	61834.83
526.801	62013.01
527.003	61601.36
527.204	61210.2
527.406	61707.86
527.607	61388.38
527.808	61374.04
528.01	59934.32
528.211	59979.37
528.412	60536.42
528.614	59926.13
528.815	59338.36
529.016	59631.22
529.218	58279.56
529.419	58160.78
529.62	57663.12
529.822	56835.74
530.023	56112.81
530.224	56563.36
530.425	55475.89
530.626	54582.98
530.828	54296.26
531.029	54623.93
531.23	53518.03
531.431	52877.02
531.632	52416.22
531.833	51967.72
532.035	51123.96
532.236	50896.63
532.437	50329.34
532.638	49399.57
532.839	49463.05
533.04	48740.12
533.241	47261.49
533.442	48312.09
533.643	47171.38
533.844	46262.08
534.045	45475.66
534.246	44990.29
534.447	44578.65
534.648	44226.4
534.849	43284.33
535.05	42588.02
535.251	42160
535.451	41357.19
535.652	41066.38
535.853	40261.53
536.054	40540.05
536.255	39966.62
536.456	38631.35
536.657	38926.25
536.857	37767.1
537.058	37234.63
537.259	37177.29
537.46	36816.85
537.66	36001.75
537.861	35680.22
538.062	35033.07
538.263	35100.65
538.463	33949.69
538.664	33703.93
538.865	33294.34
539.065	32937.99
539.266	32049.17
539.466	32217.11
539.667	31684.64
539.868	31737.88
540.068	30875.69
540.269	30584.88
540.469	30765.1
540.67	29861.94
540.87	29456.45
541.071	29233.22
541.271	29055.04
541.472	28840.01
541.672	28399.69
541.873	27979.86
542.073	27056.23
542.274	27416.67
542.474	26845.29
542.675	26486.89
542.875	26456.17
543.075	25976.95
543.276	25774.2
543.476	25806.97
543.676	25262.21
543.877	25024.64
544.077	24725.64
544.277	24567.95
544.478	24074.38
544.678	24082.58
544.878	23666.84
545.078	23570.58
545.279	23224.48
545.479	23044.26
545.679	22309.04
545.879	22362.28
546.079	22153.39
546.28	21997.74
546.48	21276.86
546.68	21360.83
546.88	21196.99
547.08	20908.22
547.28	20703.43
547.48	19974.35
547.68	20234.44
547.88	19618
548.081	19765.46
548.281	19396.82
548.481	18923.74
548.681	18854.11
548.881	18720.99
549.081	18342.12
549.28	18082.03
549.48	17963.25
549.68	17578.23
549.88	17578.23
550.08	17027.32
550.28	16894.21
550.48	16939.26
550.68	16568.58
550.88	16337.16
551.08	16201.99
551.279	15954.19
551.479	15386.9
551.679	15384.85
551.879	14938.4
552.079	14965.02
552.278	14737.7
552.478	14668.06
552.678	14291.24
552.878	14086.44
553.077	13990.19
553.277	13650.22
553.477	13506.87
553.676	13261.11
553.876	12972.35
554.076	12767.55
554.275	12654.91
554.475	12419.39
554.674	12370.24
554.874	12063.05
555.074	11819.34
555.273	11684.17
555.473	11632.97
555.672	11411.79
555.872	11188.57
556.071	11067.74
556.271	10928.47
556.47	10553.69
556.67	10226.02
556.869	10318.18
557.068	10269.03
557.268	9982.31
557.467	9560.43
557.667	9752.94
557.866	9531.76
558.065	9400.69
558.265	9089.4
558.464	9111.92
558.663	9044.34
558.863	8728.95
559.062	8835.45
559.261	8395.14
559.461	8511.87
559.66	8071.56
559.859	8085.89
560.058	7754.12
560.258	7653.77
560.457	7545.23
560.656	7790.99
560.855	7369.1
561.054	7317.9
561.253	7156.11
561.453	7229.84
561.652	7098.77
561.851	6871.45
562.05	6678.94
562.249	6680.99
562.448	6728.09
562.647	6486.43
562.846	6482.33
563.045	6375.84
563.244	6242.72
563.443	6230.43
563.642	5968.29
563.841	6080.93
564.04	5775.78
564.239	5712.3
564.438	5689.77
564.637	5601.71
564.836	5464.49
565.035	5536.17
565.234	5327.28
565.432	5333.42
565.631	5179.82
565.83	5149.11
566.029	5054.9
566.228	4940.21
566.427	5050.8
566.625	4829.62
566.824	4811.19
567.023	4622.78
567.222	4512.19
567.42	4524.47
567.619	4655.54
567.818	4477.37
568.016	4495.8
568.215	4383.17
568.414	4241.86
568.612	4196.8
568.811	4143.55
569.01	4143.55
569.208	3953.09
569.407	4004.29
569.605	3803.59
569.804	3717.58
570.002	3862.98
570.201	3598.79
570.4	3662.28
570.598	3508.68
570.797	3611.08
570.995	3502.54
571.193	3596.75
571.392	3441.1
571.59	3404.24
571.789	3324.37
571.987	3279.31
572.186	3197.39
572.384	3195.34
572.582	3148.24
572.781	3080.66
572.979	3015.12
573.177	2984.4
573.376	2965.97
573.574	3062.23
573.772	2847.19
573.971	2716.12
574.169	2714.07
574.367	2863.57
574.565	2673.11
574.763	2689.49
574.962	2542.04
575.16	2587.1
575.358	2527.71
575.556	2472.41
575.754	2441.69
575.952	2443.74
576.151	2288.09
576.349	2288.09
576.547	2150.88
576.745	2195.93
576.943	2157.02
577.141	2132.45
577.339	2109.92
577.537	2089.44
577.735	2157.02
577.933	2093.54
578.131	2058.72
578.329	2122.21
578.527	1919.46
578.725	1929.7
578.923	1866.21
579.121	1911.27
579.319	1772
579.516	1837.54
579.714	1933.79
579.912	1769.96
580.11	1618.41
580.308	1700.33
580.506	1739.24
580.704	1599.98
580.901	1638.89
581.099	1667.56
581.297	1669.61
581.495	1559.02
581.692	1436.14
581.89	1638.89
582.088	1485.29
582.285	1511.91
582.483	1434.09
582.681	1470.95
582.878	1511.91
583.076	1391.08
583.274	1313.26
583.471	1575.4
583.669	1417.71
583.866	1309.16
584.064	1214.96
584.262	1102.32
584.459	1255.92
584.657	1249.77
584.854	1239.53
585.052	1241.58
585.249	1214.96
585.447	1225.2
585.644	1090.03
585.841	1221.1
586.039	1143.28
586.236	1245.68
586.434	1032.69
586.631	1069.55
586.828	987.63
587.026	1079.79
587.223	936.43
587.42	1010.16
587.618	918
587.815	1178.09
588.012	991.73
588.21	979.44
588.407	1057.26
588.604	1030.64
588.801	920.05
588.999	938.48
589.196	936.43
589.393	905.71
589.59	938.48
589.787	866.8
589.984	848.37
590.182	905.71
590.379	850.42
590.576	905.71
590.773	918
590.97	868.85
591.167	848.37
591.364	952.82
591.561	758.26
591.758	899.57
591.955	881.14
592.152	844.28
592.349	858.61
592.546	834.04
592.743	750.07
592.94	872.95
593.137	864.75
593.334	862.71
593.531	952.82
593.727	764.4
593.924	782.84
594.121	823.8
594.318	799.22
594.515	915.95
594.712	907.76
594.908	973.3
595.105	801.27
595.302	950.77
595.499	862.71
595.696	1036.78
595.892	930.29
596.089	1053.17
596.286	985.58
596.482	973.3
596.679	1059.31
596.876	940.53
597.072	1040.88
597.269	1030.64
597.466	1044.98
597.662	1026.54
597.859	1090.03
598.055	1149.42
598.252	1214.96
598.448	1268.2
598.645	1352.17
598.841	1403.37
599.038	1546.73
599.234	1470.95
599.431	1532.39
599.627	1507.82
599.824	1561.06
600.02	1583.59
600.217	1587.69
600.413	1827.3
600.609	1845.73
600.806	2066.91
601.002	1984.99
601.198	2021.86
601.395	2130.4
601.591	2140.64
601.787	2310.62
601.984	2492.89
602.18	2427.35
602.376	2697.69
602.572	2669.02
602.769	2894.29
602.965	2900.44
603.161	3113.42
603.357	3056.08
603.553	3158.48
603.75	3125.71
603.946	3318.22
604.142	3645.9
604.338	3635.66
604.534	3695.05
604.73	3807.69
604.926	3957.19
605.122	4184.51
605.318	4176.32
605.514	4434.36
605.71	4514.24
605.906	4714.94
606.102	4655.54
606.298	4950.45
606.494	5231.02
606.69	5196.21
606.886	5190.06
607.082	5222.83
607.278	5575.08
607.474	5849.51
607.67	6017.44
607.866	6033.83
608.062	6363.55
608.257	6523.29
608.453	6619.55
608.649	6844.82
608.845	6926.74
609.041	7184.79
609.236	7174.55
609.432	7782.79
609.628	7752.07
609.824	7893.38
610.019	8135.04
610.215	8372.61
610.411	8653.18
610.606	9058.68
610.802	9245.04
610.998	9435.5
611.193	9699.69
611.389	9675.12
611.584	9951.59
611.78	10275.17
611.976	10772.83
612.171	11037.02
612.367	11084.12
612.562	11456.85
612.758	11778.38
612.953	11944.27
613.149	12394.82
613.344	12568.9
613.539	13062.46
613.735	13345.08
613.93	13566.26
614.126	13885.74
614.321	14553.38
614.517	15165.72
614.712	15141.14
614.907	15567.12
615.103	15909.13
615.298	16298.25
615.493	16982.27
615.688	17070.33
615.884	18069.74
616.079	17887.47
616.274	18548.96
616.47	18870.5
616.665	19509.46
616.86	19908.82
617.055	20422.86
617.25	20641.99
617.445	21676.21
617.641	21604.53
617.836	22616.23
618.031	22741.16
618.226	23607.45
618.421	24197.26
618.616	25106.56
618.811	24858.76
619.006	25895.03
619.201	26368.11
619.396	27072.61
619.591	27146.34
619.786	28285.01
619.981	28526.67
620.176	29321.28
620.371	29554.75
620.566	30662.7
620.761	30996.52
620.956	31954.97
621.151	32262.16
621.346	33456.13
621.541	33310.72
621.735	34199.54
621.93	34242.55
622.125	35692.51
622.32	35788.77
622.515	36687.82
622.709	37408.71
622.904	37879.74
623.099	38680.5
623.294	39339.94
623.488	39841.7
623.683	40750.99
623.878	41314.19
624.072	41869.19
624.267	42452.86
624.462	43366.25
624.656	43724.64
624.851	44599.13
625.046	44738.39
625.24	45537.1
625.435	46124.86
625.629	46585.66
625.824	47154.99
626.018	47900.45
626.213	47777.57
626.407	49198.87
626.602	48520.99
626.796	49882.89
626.991	50284.29
627.185	50749.18
627.38	50992.89
627.574	51373.81
627.768	51750.63
627.963	51508.97
628.157	51648.24
628.352	52438.75
628.546	51437.3
628.74	52590.3
628.935	51799.79
629.129	52180.71
629.323	51566.32
629.517	51554.03
629.712	51228.4
629.906	51173.11
630.1	49925.89
630.294	50452.22
630.489	49592.08
630.683	49575.69
630.877	48289.57
631.071	47355.69
631.265	46855.99
631.459	46061.38
631.653	45119.31
631.848	44115.81
632.042	42952.56
632.236	42596.21
632.43	40869.78
632.624	40198.04
632.818	38875.05
633.012	37488.58
633.206	36532.18
633.4	35571.68
633.594	34230.26
633.788	33372.16
633.982	32079.89
634.176	30898.22
634.369	29065.28
634.563	28479.57
634.757	27390.05
634.951	26751.08
635.145	25518.2
635.339	24600.71
635.533	23365.79
635.726	22958.24
635.92	21606.58
636.114	20801.73
636.308	19691.73
636.501	19284.19
636.695	18647.27
636.889	17662.19
637.083	16847.1
637.276	16316.68
637.47	15690
637.664	15028.51
637.857	14489.89
638.051	13803.82
638.244	13318.45
638.438	12761.41
638.632	12243.27
638.825	11698.51
639.019	11413.84
639.212	10844.51
639.406	10432.86
639.599	10000.74
639.793	9863.53
639.986	9206.13
640.18	8876.41
640.373	8462.72
640.567	8253.83
640.76	8032.65
640.954	7756.17
641.147	7385.49
641.34	7061.91
641.534	6836.63
641.727	6676.89
641.92	6156.71
642.114	6119.84
642.307	5820.84
642.5	5671.34
642.694	5251.5
642.887	5114.29
643.08	4970.93
643.273	4757.94
643.467	4610.49
643.66	4311.49
643.853	4188.61
644.046	4153.79
644.239	3889.6
644.432	3817.93
644.626	3606.98
644.819	3498.44
645.012	3215.82
645.205	3328.46
645.398	3090.9
645.591	2992.59
645.784	2855.38
645.977	2650.58
646.17	2802.13
646.363	2560.47
646.556	2496.99
646.749	2353.63
646.942	2251.23
647.135	2220.51
647.328	2202.08
647.521	2032.1
647.714	1978.85
647.907	1925.6
648.099	1835.49
648.292	1774.05
648.485	1690.09
648.678	1548.78
648.871	1511.91
649.064	1411.56
649.256	1380.84
649.449	1348.08
649.642	1290.73
649.835	1272.3
650.027	1184.24
650.22	1292.78
650.413	1137.13
650.605	1292.78
650.798	1106.42
650.991	1042.93
651.183	981.49
651.376	1057.26
651.568	1053.17
651.761	840.18
651.954	905.71
652.146	944.63
652.339	1012.21
652.531	897.52
652.724	717.3
652.916	737.78
653.109	641.53
653.301	854.51
653.494	741.88
653.686	696.82
653.879	729.59
654.071	688.63
654.263	670.2
654.456	561.66
654.648	756.21
654.84	690.68
655.033	483.83
655.225	659.96
655.417	444.92
655.61	680.44
655.802	512.5
655.994	522.74
656.186	475.64
656.379	506.36
656.571	453.11
656.763	518.65
656.955	483.83
657.148	403.96
657.34	487.93
657.532	373.24
657.724	336.38
657.916	410.11
658.108	487.93
658.3	363
658.492	387.58
658.684	301.56
658.876	412.15
659.068	311.8
659.26	332.28
659.452	348.67
659.644	360.95
659.836	463.35
660.028	274.94
660.22	334.33
660.412	240.12
660.604	221.69
660.796	285.18
660.988	328.19
661.18	244.22
661.372	379.39
661.563	291.32
661.755	285.18
661.947	182.78
662.139	223.74
662.331	240.12
662.522	233.98
662.714	283.13
662.906	184.83
663.097	250.36
663.289	217.6
663.481	135.68
663.673	276.99
663.864	254.46
664.056	248.32
664.247	168.45
664.439	301.56
664.631	231.93
664.822	217.6
665.014	180.73
665.205	201.21
665.397	225.79
665.588	201.21
665.78	215.55
665.971	233.98
666.163	221.69
666.354	223.74
666.546	137.73
666.737	174.59
666.929	217.6
667.12	213.5
667.311	229.88
667.503	143.87
667.694	225.79
667.885	188.93
668.077	201.21
668.268	41.47
668.459	197.12
668.651	172.54
668.842	225.79
669.033	115.2
669.224	100.86
669.416	360.95
669.607	125.44
669.798	88.57
669.989	289.28
670.18	225.79
670.371	201.21
670.563	143.87
670.754	205.31
670.945	229.88
671.136	260.6
671.327	90.62
671.518	293.37
671.709	283.13
671.9	190.97
672.091	246.27
672.282	227.84
672.473	231.93
672.664	102.91
672.855	135.68
673.046	197.12
673.237	291.32
673.428	156.16
673.619	227.84
673.809	250.36
674	248.32
674.191	199.16
674.382	213.5
674.573	233.98
674.764	246.27
674.954	256.51
675.145	158.21
675.336	209.4
675.527	217.6
675.717	86.53
675.908	238.08
676.099	180.73
676.289	297.47
676.48	182.78
676.671	176.64
676.861	199.16
677.052	254.46
677.243	143.87
677.433	176.64
677.624	256.51
677.814	311.8
678.005	135.68
678.195	248.32
678.386	250.36
678.576	250.36
678.767	111.1
678.957	199.16
679.148	315.9
679.338	336.38
679.529	258.56
679.719	174.59
679.909	387.58
680.1	254.46
680.29	227.84
680.481	145.92
680.671	375.29
680.861	328.19
681.052	301.56
681.242	229.88
681.432	346.62
681.622	274.94
681.813	190.97
682.003	207.36
682.193	264.7
682.383	317.95
682.573	252.41
682.764	281.08
682.954	295.42
683.144	369.15
683.334	264.7
683.524	385.53
683.714	338.43
683.904	375.29
684.094	313.85
684.284	350.71
684.474	442.87
684.664	371.19
684.854	307.71
685.044	283.13
685.234	307.71
685.424	268.8
685.614	299.52
685.804	453.11
685.994	395.77
686.184	317.95
686.374	233.98
686.564	281.08
686.753	338.43
686.943	215.55
687.133	315.9
687.323	262.65
687.513	365.05
687.702	248.32
687.892	379.39
688.082	412.15
688.272	387.58
688.461	334.33
688.651	463.35
688.841	371.19
689.03	322.04
689.22	291.32
689.41	401.91
689.599	332.28
689.789	225.79
689.979	428.54
690.168	291.32
690.358	346.62
690.547	289.28
690.737	287.23
690.926	356.86
691.116	223.74
691.305	379.39
691.495	369.15
691.684	223.74
691.874	264.7
692.063	340.47
692.252	336.38
692.442	313.85
692.631	305.66
692.82	315.9
693.01	371.19
693.199	354.81
693.388	315.9
693.578	270.84
693.767	303.61
693.956	365.05
694.146	301.56
694.335	289.28
694.524	391.67
694.713	313.85
694.902	274.94
695.092	262.65
695.281	363
695.47	326.14
695.659	336.38
695.848	293.37
696.037	285.18
696.226	418.3
696.415	266.75
696.604	373.24
696.793	358.91
696.982	248.32
697.171	371.19
697.36	276.99
697.549	365.05
697.738	176.64
697.927	356.86
698.116	238.08
698.305	299.52
698.494	303.61
698.683	332.28
698.872	389.63
699.061	262.65
699.25	266.75
699.438	238.08
699.627	274.94
699.816	358.91
700.005	233.98
700.193	256.51
700.382	352.76
700.571	307.71
700.76	371.19
700.948	336.38
701.137	315.9
701.326	365.05
701.514	215.55
701.703	279.04
701.892	283.13
702.08	408.06
702.269	305.66
702.457	272.89
702.646	303.61
702.834	260.6
703.023	320
703.212	307.71
703.4	256.51
703.589	291.32
703.777	285.18
703.965	252.41
704.154	256.51
704.342	320
704.531	301.56
704.719	365.05
704.907	305.66
705.096	195.07
705.284	186.88
705.472	266.75
705.661	272.89
705.849	301.56
706.037	311.8
706.226	289.28
706.414	315.9
706.602	162.3
706.79	410.11
706.979	242.17
707.167	281.08
707.355	127.49
707.543	379.39
707.731	334.33
707.919	350.71
708.107	350.71
708.296	276.99
708.484	291.32
708.672	365.05
708.86	303.61
709.048	264.7
709.236	225.79
709.424	369.15
709.612	348.67
709.8	207.36
709.988	207.36
710.176	375.29
710.364	346.62
710.551	315.9
710.739	287.23
710.927	238.08
711.115	303.61
711.303	363
711.491	399.87
711.679	252.41
711.866	348.67
712.054	266.75
712.242	328.19
712.43	375.29
712.617	264.7
712.805	393.72
712.993	188.93
713.181	272.89
713.368	295.42
713.556	305.66
713.744	264.7
713.931	420.35
714.119	266.75
714.306	266.75
714.494	258.56
714.682	264.7
714.869	256.51
715.057	270.84
715.244	229.88
715.432	344.57
715.619	221.69
715.807	256.51
715.994	274.94
716.182	340.47
716.369	453.11
716.556	391.67
716.744	264.7
716.931	201.21
717.119	406.01
717.306	264.7
717.493	352.76
717.681	315.9
717.868	260.6
718.055	385.53
718.242	313.85
718.43	352.76
718.617	379.39
718.804	299.52
718.991	426.49
719.179	393.72
719.366	342.52
719.553	367.1
719.74	389.63
719.927	356.86
720.114	303.61
720.301	272.89
720.488	217.6
720.676	250.36
720.863	406.01
721.05	496.12
721.237	348.67
721.424	389.63
721.611	338.43
721.798	264.7
721.985	330.23
722.172	340.47
722.358	324.09
722.545	395.77
722.732	358.91
722.919	360.95
723.106	451.07
723.293	317.95
723.48	389.63
723.667	391.67
723.853	283.13
724.04	377.34
724.227	348.67
724.414	283.13
724.6	393.72
724.787	365.05
724.974	459.26
725.161	395.77
725.347	334.33
725.534	399.87
725.72	346.62
725.907	436.73
726.094	385.53
726.28	393.72
726.467	403.96
726.653	256.51
726.84	528.89
727.027	483.83
727.213	397.82
727.4	381.43
727.586	418.3
727.773	354.81
727.959	369.15
728.145	410.11
728.332	352.76
728.518	348.67
728.705	416.25
728.891	324.09
729.077	408.06
729.264	344.57
729.45	371.19
729.636	475.64
729.823	373.24
730.009	455.16
730.195	375.29
730.382	416.25
730.568	348.67
730.754	457.21
730.94	455.16
731.126	348.67
731.313	393.72
731.499	328.19
731.685	449.02
731.871	348.67
732.057	455.16
732.243	453.11
732.429	418.3
732.615	418.3
732.801	453.11
732.987	455.16
733.173	365.05
733.359	344.57
733.545	338.43
733.731	397.82
733.917	467.45
734.103	444.92
734.289	432.63
734.475	379.39
734.661	469.5
734.847	360.95
735.033	430.59
735.219	395.77
735.404	401.91
735.59	420.35
735.776	410.11
735.962	453.11
736.148	438.78
736.333	420.35
736.519	440.83
736.705	453.11
736.89	510.46
737.076	426.49
737.262	338.43
737.447	373.24
737.633	424.44
737.819	545.27
738.004	397.82
738.19	358.91
738.375	557.56
738.561	492.02
738.747	494.07
738.932	338.43
739.118	436.73
739.303	487.93
739.489	451.07
739.674	418.3
739.859	346.62
740.045	438.78
740.23	381.43
740.416	287.23
740.601	455.16
740.786	457.21
740.972	363
741.157	373.24
741.342	309.76
741.528	336.38
741.713	561.66
741.898	401.91
742.084	393.72
742.269	434.68
742.454	416.25
742.639	530.94
742.824	438.78
743.01	473.59
743.195	561.66
743.38	401.91
743.565	385.53
743.75	369.15
743.935	475.64
744.12	477.69
744.305	354.81
744.49	346.62
744.675	395.77
744.86	315.9
745.045	434.68
745.23	379.39
745.415	375.29
745.6	365.05
745.785	420.35
745.97	473.59
746.155	459.26
746.34	471.54
746.525	383.48
746.71	377.34
746.895	299.52
747.079	303.61
747.264	348.67
747.449	408.06
747.634	430.59
747.819	436.73
748.003	340.47
748.188	260.6
748.373	363
748.557	371.19
748.742	426.49
748.927	397.82
749.111	291.32
749.296	299.52
749.481	346.62
749.665	358.91
749.85	283.13
750.034	416.25
750.219	260.6
750.404	330.23
750.588	328.19
750.773	287.23
750.957	313.85
751.141	344.57
751.326	375.29
751.51	324.09
751.695	328.19
751.879	305.66
752.064	416.25
752.248	299.52
752.432	301.56
752.617	322.04
752.801	354.81
752.985	276.99
753.17	350.71
753.354	336.38
753.538	367.1
753.722	254.46
753.907	240.12
754.091	225.79
754.275	332.28
754.459	238.08
754.643	236.03
754.828	342.52
755.012	352.76
755.196	313.85
755.38	320
755.564	291.32
755.748	274.94
755.932	332.28
756.116	244.22
756.3	381.43
756.484	223.74
756.668	313.85
756.852	94.72
757.036	262.65
757.22	295.42
757.404	203.26
757.588	231.93
757.772	299.52
757.956	152.06
758.14	356.86
758.323	166.4
758.507	291.32
758.691	158.21
758.875	303.61
759.059	332.28
759.242	193.02
759.426	199.16
759.61	221.69
759.794	225.79
759.977	221.69
760.161	350.71
760.345	371.19
760.528	305.66
760.712	266.75
760.895	236.03
761.079	201.21
761.263	117.25
761.446	215.55
761.63	213.5
761.813	289.28
761.997	250.36
762.18	186.88
762.364	178.69
762.547	145.92
762.731	217.6
762.914	219.64
763.098	260.6
763.281	172.54
763.464	129.53
763.648	291.32
763.831	184.83
764.015	133.63
764.198	223.74
764.381	186.88
764.564	203.26
764.748	229.88
764.931	199.16
765.114	158.21
765.297	223.74
765.481	166.4
765.664	172.54
765.847	107.01
766.03	213.5
766.213	84.48
766.397	123.39
766.58	135.68
766.763	188.93
766.946	102.91
767.129	156.16
767.312	90.62
767.495	127.49
767.678	86.53
767.861	141.82
768.044	215.55
768.227	205.31
768.41	158.21
768.593	211.45
768.776	168.45
768.959	172.54
769.142	240.12
769.324	115.2
769.507	127.49
769.69	109.05
769.873	127.49
770.056	291.32
770.239	172.54
770.421	195.07
770.604	193.02
770.787	125.44
770.97	123.39
771.152	119.29
771.335	100.86
771.518	92.67
771.7	225.79
771.883	272.89
772.066	129.53
772.248	180.73
772.431	129.53
772.613	98.81
772.796	125.44
772.978	145.92
773.161	250.36
773.343	137.73
773.526	82.43
773.708	-5.63
773.891	8.7
774.073	88.57
774.256	35.33
774.438	225.79
774.621	66.05
774.803	164.35
774.985	64
775.168	219.64
775.35	92.67
775.532	64
775.715	102.91
775.897	188.93
776.079	133.63
776.261	152.06
776.444	141.82
776.626	127.49
776.808	100.86
776.99	51.71
777.173	31.23
777.355	150.01
777.537	150.01
777.719	127.49
777.901	135.68
778.083	74.24
778.265	12.8
778.447	70.14
778.629	104.96
778.811	86.53
778.993	109.05
779.175	182.78
779.357	107.01
779.539	-13.82
779.721	-15.87
779.903	193.02
780.085	29.18
780.267	53.76
780.449	35.33
780.631	172.54
780.812	203.26
780.994	86.53
781.176	184.83
781.358	53.76
781.54	111.1
781.721	125.44
781.903	84.48
782.085	27.14
782.267	119.29
782.448	37.38
782.63	49.66
782.812	66.05
782.993	51.71
783.175	180.73
783.357	88.57
783.538	61.95
783.72	10.75
783.901	20.99
784.083	16.9
784.264	41.47
784.446	0.51
784.627	61.95
784.809	141.82
784.99	59.9
785.172	123.39
785.353	41.47
785.535	98.81
785.716	59.9
785.897	102.91
786.079	57.86
786.26	43.52
786.441	84.48
786.623	-42.5
786.804	-24.06
786.985	61.95
787.167	84.48
787.348	70.14
787.529	78.33
787.71	111.1
787.891	61.95
788.073	6.66
788.254	-3.58
788.435	72.19
788.616	102.91
788.797	37.38
788.978	12.8
789.159	20.99
789.34	82.43
789.522	94.72
789.703	-13.82
789.884	68.09
790.065	82.43
790.246	176.64
790.427	10.75
790.607	135.68
790.788	137.73
790.969	18.94
791.15	137.73
791.331	82.43
791.512	61.95
791.693	-65.02
791.874	0.51
792.054	156.16
792.235	119.29
792.416	-34.3
792.597	-30.21
792.778	109.05
792.958	100.86
793.139	78.33
793.32	-17.92
793.5	-44.54
793.681	168.45
793.862	86.53
794.042	84.48
794.223	-50.69
794.404	12.8
794.584	-26.11
794.765	20.99
794.945	16.9
795.126	59.9
795.306	102.91
795.487	84.48
795.667	53.76
795.848	72.19
796.028	-13.82
796.209	86.53
796.389	74.24
796.57	16.9
796.75	41.47
796.93	41.47
797.111	-30.21
797.291	-60.93
797.471	88.57
797.652	45.57
797.832	35.33
798.012	49.66
798.192	23.04
798.373	-42.5
798.553	-19.97
798.733	33.28
798.913	10.75
799.093	66.05
799.274	59.9
799.454	80.38
799.634	115.2
799.814	43.52
799.994	135.68
800.174	-22.02
800.354	0.51
800.534	-48.64
800.714	139.77
800.894	-44.54
801.074	-60.93
801.254	25.09
801.434	29.18
801.614	0.51
801.794	29.18
801.974	1421.8
802.154	-5.63
802.334	82.43
802.514	-19.97
802.693	8.7
802.873	12.8
803.053	117.25
803.233	55.81
803.413	-3.58
803.592	-36.35
803.772	4.61
803.952	49.66
804.131	8.7
804.311	139.77
804.491	20.99
804.67	-103.93
804.85	-103.93
805.03	72.19
805.209	152.06
805.389	-44.54
805.568	-79.36
805.748	-3.58
805.928	100.86
806.107	104.96
806.287	72.19
806.466	25.09
806.646	25.09
806.825	92.67
807.004	12.8
807.184	27.14
807.363	45.57
807.543	23.04
807.722	0.51
807.901	51.71
808.081	104.96
808.26	12.8
808.439	41.47
808.619	57.86
808.798	10.75
808.977	27.14
809.156	117.25
809.336	0.51
809.515	55.81
809.694	-36.35
809.873	18.94
810.052	109.05
810.231	70.14
810.411	74.24
810.59	4.61
810.769	-28.16
810.948	68.09
811.127	-60.93
811.306	6.66
811.485	-52.74
811.664	137.73
811.843	12.8
812.022	-5.63
812.201	4.61
812.38	51.71
812.559	8.7
812.737	45.57
812.916	-30.21
813.095	29.18
813.274	27.14
813.453	-19.97
813.632	45.57
813.811	145.92
813.989	-118.27
814.168	-24.06
814.347	-32.26
814.526	10.75
814.704	104.96
814.883	94.72
815.062	-36.35
815.24	12.8
815.419	-13.82
815.598	39.42
815.776	-103.93
815.955	55.81
816.133	-62.98
816.312	39.42
816.49	-32.26
816.669	18.94
816.847	-30.21
817.026	51.71
817.204	16.9
817.383	37.38
817.561	-40.45
817.74	59.9
817.918	-56.83
818.097	0.51
818.275	27.14
818.453	-5.63
818.632	59.9
818.81	-13.82
818.988	-19.97
819.167	-28.16
819.345	-48.64
819.523	-60.93
819.701	35.33
819.879	55.81
820.058	12.8
820.236	49.66
820.414	100.86
820.592	-69.12
820.77	-3.58
820.948	33.28
821.127	-42.5
821.305	39.42
821.483	-81.41
821.661	-5.63
821.839	37.38
822.017	-32.26
822.195	18.94
822.373	94.72
822.551	43.52
822.729	43.52
822.907	-97.79
823.085	94.72
823.262	-15.87
823.44	-38.4
823.618	53.76
823.796	4.61
823.974	-87.55
824.152	23.04
824.329	-40.45
824.507	80.38
824.685	-3.58
824.863	-36.35
825.04	-3.58
825.218	31.23
825.396	29.18
825.574	12.8
825.751	51.71
825.929	6.66
826.107	-77.31
826.284	0.51
826.462	-19.97
826.639	72.19
826.817	-93.69
826.994	84.48
827.172	-30.21
827.349	147.97
827.527	10.75
827.704	-46.59
827.882	29.18
828.059	23.04
828.237	-28.16
828.414	51.71
828.591	-112.13
828.769	0.51
828.946	6.66
829.124	-3.58
829.301	-40.45
829.478	-24.06
829.655	0.51
829.833	-71.17
830.01	-81.41
830.187	31.23
830.364	-46.59
830.542	-58.88
830.719	96.77
830.896	55.81
831.073	43.52
831.25	16.9
831.427	-3.58
831.604	-19.97
831.782	-40.45
831.959	107.01
832.136	49.66
832.313	2.56
832.49	-34.3
832.667	-7.68
832.844	-52.74
833.021	29.18
833.198	-19.97
833.374	25.09
833.551	66.05
833.728	2.56
833.905	84.48
834.082	-77.31
834.259	10.75
834.436	68.09
834.612	-93.69
834.789	55.81
834.966	4.61
835.143	16.9
835.319	-22.02
835.496	-69.12
835.673	68.09
835.85	109.05
836.026	39.42
836.203	88.57
836.38	-9.73
836.556	-11.78
836.733	-60.93
836.909	135.68
837.086	-15.87
837.262	-91.65
837.439	-3.58
837.616	-7.68
837.792	-15.87
837.968	-19.97
838.145	-71.17
838.321	45.57
838.498	-28.16
838.674	0.51
838.851	59.9
839.027	-7.68
839.203	59.9
839.38	31.23
839.556	-19.97
839.732	111.1
839.909	4.61
840.085	8.7
840.261	-69.12
840.437	-48.64
840.614	-40.45
840.79	20.99
840.966	29.18
841.142	78.33
841.318	-46.59
841.494	4.61
841.671	53.76
841.847	-95.74
842.023	-30.21
842.199	76.29
842.375	84.48
842.551	-108.03
842.727	-13.82
842.903	98.81
843.079	4.61
843.255	152.06
843.431	66.05
843.607	51.71
843.783	-140.8
843.959	20.99
844.134	-69.12
844.31	41.47
844.486	-36.35
844.662	-110.08
844.838	20.99
845.013	33.28
845.189	6.66
845.365	29.18
845.541	12.8
845.716	-15.87
845.892	61.95
846.068	-60.93
846.244	-44.54
846.419	53.76
846.595	-26.11
846.77	-105.98
846.946	94.72
847.122	-28.16
847.297	-24.06
847.473	176.64
847.648	-54.78
847.824	0.51
847.999	-79.36
848.175	-28.16
848.35	43.52
848.526	74.24
848.701	6.66
848.876	12.8
849.052	31.23
849.227	-3.58
849.403	-1.54
849.578	-15.87
849.753	117.25
849.929	-17.92
850.104	-32.26
850.279	-32.26
850.454	74.24
850.63	20.99
850.805	-19.97
850.98	-42.5
851.155	-7.68
851.33	-3.58
851.505	-108.03
851.681	109.05
851.856	-77.31
852.031	16.9
852.206	-7.68
852.381	-52.74
852.556	45.57
852.731	-15.87
852.906	14.85
853.081	31.23
853.256	137.73
853.431	-122.37
853.606	-40.45
853.781	-40.45
853.956	-112.13
854.131	-7.68
854.305	-48.64
854.48	4.61
854.655	-42.5
854.83	-30.21
855.005	-73.21
855.18	-44.54
855.354	-34.3
855.529	-9.73
855.704	-50.69
855.879	76.29
856.053	-22.02
856.228	-28.16
856.403	-112.13
856.577	8.7
856.752	-95.74
856.926	10.75
857.101	-17.92
857.276	-38.4
857.45	94.72
857.625	33.28
857.799	-83.45
857.974	27.14
858.148	-142.85
858.323	-19.97
858.497	14.85
858.672	-44.54
858.846	-13.82
859.02	12.8
859.195	-87.55
859.369	-52.74
859.543	-30.21
859.718	37.38
859.892	25.09
860.066	10.75
860.241	-62.98
860.415	-81.41
860.589	29.18
860.763	-3.58
860.938	37.38
861.112	-7.68
861.286	2.56
861.46	100.86
861.634	-30.21
861.808	35.33
861.982	-40.45
862.157	-36.35
862.331	-15.87
862.505	-85.5
862.679	-52.74
862.853	-71.17
863.027	-19.97
863.201	131.58
863.375	-38.4
863.549	37.38
863.722	10.75
863.896	64
864.07	-24.06
864.244	6.66
864.418	74.24
864.592	33.28
864.766	8.7
864.939	-11.78
865.113	-85.5
865.287	98.81
865.461	-73.21
865.634	-26.11
865.808	-28.16
865.982	-60.93
866.156	-44.54
866.329	-48.64
866.503	43.52
866.676	29.18
866.85	107.01
867.024	-26.11
867.197	84.48
867.371	-69.12
867.544	-30.21
867.718	-5.63
867.891	82.43
868.065	-112.13
868.238	-81.41
868.412	33.28
868.585	53.76
868.759	-67.07
868.932	-13.82
869.105	-85.5
869.279	0.51
869.452	-89.6
869.625	29.18
869.799	-56.83
869.972	-85.5
870.145	-1.54
870.319	49.66
870.492	-54.78
870.665	-73.21
870.838	-24.06
871.011	-140.8
871.185	-89.6
871.358	12.8
871.531	33.28
871.704	41.47
871.877	27.14
872.05	-36.35
872.223	-24.06
872.396	119.29
872.569	2.56
872.742	-9.73
872.915	111.1
873.088	-22.02
873.261	-130.56
873.434	55.81
873.607	4.61
873.78	51.71
873.953	-85.5
874.126	-44.54
874.299	8.7
874.471	-71.17
874.644	-46.59
874.817	-3.58
874.99	117.25
875.163	-46.59
875.335	0.51
875.508	-85.5
875.681	92.67
875.853	-85.5
876.026	-77.31
876.199	33.28
876.371	61.95
876.544	-24.06
876.717	23.04
876.889	-19.97
877.062	-7.68
877.234	-17.92
877.407	-62.98
877.579	10.75
877.752	10.75
877.924	18.94
878.097	8.7
878.269	4.61
878.442	0.51
878.614	-22.02
878.786	76.29
878.959	74.24
879.131	-30.21
879.303	-161.28
879.476	-15.87
879.648	92.67
879.82	-17.92
879.993	10.75
880.165	-22.02
880.337	-79.36
880.509	27.14
880.681	-105.98
880.854	-60.93
881.026	43.52
881.198	154.11
881.37	-30.21
881.542	-30.21
881.714	-1.54
881.886	-36.35
882.058	-30.21
882.23	-11.78
882.402	-5.63
882.574	33.28
882.746	37.38
882.918	76.29
883.09	113.15
883.262	-77.31
883.434	20.99
883.606	-99.84
883.778	-13.82
883.95	59.9
884.122	8.7
884.293	74.24
884.465	-44.54
884.637	92.67
884.809	-22.02
884.98	57.86
885.152	76.29
885.324	-1.54
885.496	-5.63
885.667	-60.93
885.839	-54.78
886.011	-22.02
886.182	-44.54
886.354	72.19
886.525	25.09
886.697	29.18
886.869	2.56
887.04	-15.87
887.212	66.05
887.383	145.92
887.555	88.57
887.726	-91.65
887.897	-28.16
888.069	-34.3
888.24	80.38
888.412	4.61
888.583	10.75
888.754	-46.59
888.926	-81.41
889.097	61.95
889.268	-189.95
889.44	6.66
889.611	-69.12
889.782	-19.97
889.953	-40.45
890.125	59.9
890.296	-60.93
890.467	-22.02
890.638	-54.78
890.809	4.61
890.98	-56.83
891.151	57.86
891.323	78.33
891.494	-36.35
891.665	-5.63
891.836	-15.87
892.007	-36.35
892.178	10.75
892.349	47.62
892.52	4.61
892.691	23.04
892.862	-62.98
893.032	-128.51
893.203	2.56
893.374	-40.45
893.545	55.81
893.716	-38.4
893.887	37.38
894.057	-24.06
894.228	-30.21
894.399	-38.4
894.57	16.9
894.74	0.51
894.911	6.66
895.082	-91.65
895.253	-114.17
895.423	16.9
895.594	-1.54
895.764	66.05
895.935	-134.65
896.106	84.48
896.276	-144.89
896.447	59.9
896.617	-19.97
896.788	-89.6
896.958	-73.21
897.129	-71.17
897.299	-60.93
897.47	78.33
897.64	20.99
897.81	-19.97
897.981	-30.21
898.151	-73.21
898.322	-19.97
898.492	27.14
898.662	-103.93
898.832	-46.59
899.003	-13.82
899.173	4.61
899.343	-42.5
899.513	-54.78
