Data from USB4F104151__110__10-36-18-610.txt Node

Date: Wed Feb 26 10:36:18 EST 2025
User: louis
Spectrometer: USB4F10415
Trigger mode: 4
Integration Time (sec): 1.000000E-1
Scans to average: 1
Electric dark correction enabled: true
Nonlinearity correction enabled: false
Boxcar width: 0
XAxis mode: Wavelengths
Number of Pixels in Spectrum: 3648
>>>>>Begin Spectral Data<<<<<
178.204	-374.1
178.424	-374.1
178.644	-374.1
178.864	-351.57
179.084	-451.92
179.304	-68.95
179.524	4.78
179.744	21.16
179.964	76.46
180.184	43.69
180.404	-17.75
180.624	15.02
180.844	12.97
181.064	-105.81
181.283	12.97
181.503	-38.23
181.723	43.69
181.943	-73.04
182.163	225.96
182.383	23.21
182.602	82.6
182.822	170.66
183.042	111.27
183.262	4.78
183.482	23.21
183.701	-13.65
183.921	101.03
184.141	-5.46
184.361	55.98
184.58	150.18
184.8	37.55
185.02	-11.61
185.239	47.79
185.459	119.46
185.679	146.09
185.898	8.87
186.118	70.31
186.338	45.74
186.557	96.94
186.777	12.97
186.997	-3.41
187.216	131.75
187.436	242.34
187.655	105.13
187.875	168.62
188.095	49.83
188.314	141.99
188.534	117.42
188.753	0.68
188.973	156.33
189.192	133.8
189.412	39.59
189.631	8.87
189.851	43.69
190.07	94.89
190.29	15.02
190.509	37.55
190.729	31.4
190.948	230.06
191.168	225.96
191.387	109.22
191.607	-19.8
191.826	94.89
192.045	82.6
192.265	29.35
192.484	70.31
192.704	4.78
192.923	-17.75
193.142	201.38
193.362	176.81
193.581	195.24
193.8	88.75
194.02	168.62
194.239	76.46
194.458	131.75
194.678	64.17
194.897	-15.7
195.116	29.35
195.335	19.11
195.555	35.5
195.774	51.88
195.993	137.9
196.212	19.11
196.432	-5.46
196.651	15.02
196.87	51.88
197.089	273.06
197.308	39.59
197.528	98.99
197.747	27.31
197.966	-42.32
198.185	117.42
198.404	8.87
198.623	111.27
198.842	37.55
199.062	117.42
199.281	139.94
199.5	37.55
199.719	33.45
199.938	51.88
200.157	88.75
200.376	88.75
200.595	164.52
200.814	72.36
201.033	-40.28
201.252	199.34
201.471	103.08
201.69	68.27
201.909	0.68
202.128	90.79
202.347	68.27
202.566	0.68
202.785	-17.75
203.004	47.79
203.223	238.25
203.442	111.27
203.661	35.5
203.879	47.79
204.098	201.38
204.317	12.97
204.536	70.31
204.755	127.66
204.974	105.13
205.193	10.92
205.411	193.19
205.63	160.42
205.849	66.22
206.068	25.26
206.287	-9.56
206.505	205.48
206.724	39.59
206.943	19.11
207.162	-60.76
207.381	139.94
207.599	17.07
207.818	-17.75
208.037	8.87
208.255	82.6
208.474	27.31
208.693	21.16
208.911	4.78
209.13	90.79
209.349	43.69
209.567	131.75
209.786	127.66
210.005	156.33
210.223	19.11
210.442	-3.41
210.661	-36.18
210.879	45.74
211.098	94.89
211.316	129.7
211.535	60.07
211.753	-9.56
211.972	131.75
212.191	62.12
212.409	98.99
212.628	158.38
212.846	8.87
213.065	86.7
213.283	125.61
213.502	96.94
213.72	88.75
213.938	103.08
214.157	-1.37
214.375	47.79
214.594	-27.99
214.812	90.79
215.031	-40.28
215.249	78.51
215.467	47.79
215.686	-3.41
215.904	35.5
216.122	-5.46
216.341	144.04
216.559	127.66
216.778	111.27
216.996	131.75
217.214	27.31
217.432	74.41
217.651	-34.13
217.869	27.31
218.087	94.89
218.306	-11.61
218.524	101.03
218.742	70.31
218.96	94.89
219.179	-11.61
219.397	29.35
219.615	254.63
219.833	141.99
220.051	6.83
220.27	215.72
220.488	148.14
220.706	105.13
220.924	-54.61
221.142	58.03
221.36	90.79
221.578	96.94
221.796	43.69
222.015	-9.56
222.233	37.55
222.451	215.72
222.669	0.68
222.887	88.75
223.105	64.17
223.323	-27.99
223.541	-34.13
223.759	78.51
223.977	17.07
224.195	154.28
224.413	205.48
224.631	58.03
224.849	53.93
225.067	287.4
225.285	41.64
225.503	86.7
225.721	-34.13
225.939	103.08
226.157	37.55
226.375	209.58
226.592	-27.99
226.81	92.84
227.028	113.32
227.246	154.28
227.464	8.87
227.682	139.94
227.9	82.6
228.117	115.37
228.335	135.85
228.553	55.98
228.771	117.42
228.989	70.31
229.206	68.27
229.424	41.64
229.642	-9.56
229.86	-34.13
230.077	144.04
230.295	8.87
230.513	86.7
230.731	131.75
230.948	176.81
231.166	182.95
231.384	37.55
231.601	-44.37
231.819	250.53
232.037	-27.99
232.254	39.59
232.472	39.59
232.689	25.26
232.907	189.1
233.125	29.35
233.342	19.11
233.56	55.98
233.777	-21.85
233.995	43.69
234.213	119.46
234.43	84.65
234.648	58.03
234.865	-75.09
235.083	17.07
235.3	33.45
235.518	146.09
235.735	117.42
235.953	92.84
236.17	84.65
236.388	0.68
236.605	8.87
236.822	33.45
237.04	139.94
237.257	62.12
237.475	49.83
237.692	60.07
237.909	88.75
238.127	29.35
238.344	105.13
238.562	133.8
238.779	8.87
238.996	-46.42
239.214	82.6
239.431	37.55
239.648	39.59
239.865	146.09
240.083	66.22
240.3	15.02
240.517	21.16
240.735	27.31
240.952	170.66
241.169	88.75
241.386	168.62
241.603	51.88
241.821	-27.99
242.038	64.17
242.255	119.46
242.472	17.07
242.689	107.18
242.907	53.93
243.124	94.89
243.341	23.21
243.558	-1.37
243.775	-95.57
243.992	-50.52
244.209	103.08
244.426	195.24
244.643	94.89
244.86	51.88
245.078	109.22
245.295	72.36
245.512	17.07
245.729	51.88
245.946	35.5
246.163	53.93
246.38	-36.18
246.597	41.64
246.814	58.03
247.031	33.45
247.248	58.03
247.464	135.85
247.681	78.51
247.898	144.04
248.115	103.08
248.332	-7.51
248.549	123.56
248.766	152.23
248.983	74.41
249.2	160.42
249.417	174.76
249.633	19.11
249.85	58.03
250.067	25.26
250.284	135.85
250.501	96.94
250.717	139.94
250.934	-32.08
251.151	10.92
251.368	148.14
251.585	-1.37
251.801	137.9
252.018	12.97
252.235	123.56
252.451	-40.28
252.668	49.83
252.885	148.14
253.102	150.18
253.318	58.03
253.535	29.35
253.752	21.16
253.968	-15.7
254.185	-32.08
254.401	70.31
254.618	74.41
254.835	53.93
255.051	137.9
255.268	31.4
255.484	115.37
255.701	68.27
255.917	111.27
256.134	-89.43
256.351	-9.56
256.567	47.79
256.784	60.07
257	-52.56
257.217	139.94
257.433	127.66
257.65	119.46
257.866	158.38
258.082	-23.89
258.299	12.97
258.515	60.07
258.732	49.83
258.948	92.84
259.165	68.27
259.381	2.73
259.597	74.41
259.814	35.5
260.03	64.17
260.246	66.22
260.463	154.28
260.679	127.66
260.895	129.7
261.112	78.51
261.328	19.11
261.544	-44.37
261.761	176.81
261.977	10.92
262.193	-23.89
262.409	92.84
262.626	37.55
262.842	-32.08
263.058	70.31
263.274	103.08
263.49	8.87
263.707	111.27
263.923	131.75
264.139	-38.23
264.355	17.07
264.571	211.62
264.787	47.79
265.004	115.37
265.22	109.22
265.436	68.27
265.652	6.83
265.868	80.55
266.084	41.64
266.3	58.03
266.516	-46.42
266.732	90.79
266.948	35.5
267.164	33.45
267.38	109.22
267.596	107.18
267.812	150.18
268.028	15.02
268.244	35.5
268.46	92.84
268.676	103.08
268.892	88.75
269.108	8.87
269.324	-21.85
269.54	-66.9
269.756	84.65
269.972	135.85
270.188	53.93
270.403	-56.66
270.619	2.73
270.835	152.23
271.051	27.31
271.267	98.99
271.483	-42.32
271.698	80.55
271.914	53.93
272.13	21.16
272.346	25.26
272.562	17.07
272.777	129.7
272.993	76.46
273.209	10.92
273.425	74.41
273.64	-32.08
273.856	148.14
274.072	-38.23
274.287	4.78
274.503	166.57
274.719	135.85
274.934	29.35
275.15	-71
275.366	-36.18
275.581	0.68
275.797	-21.85
276.012	15.02
276.228	37.55
276.444	86.7
276.659	76.46
276.875	12.97
277.09	41.64
277.306	21.16
277.521	39.59
277.737	6.83
277.952	105.13
278.168	90.79
278.383	19.11
278.599	60.07
278.814	158.38
279.03	47.79
279.245	74.41
279.461	4.78
279.676	160.42
279.892	37.55
280.107	-27.99
280.322	-9.56
280.538	15.02
280.753	-21.85
280.969	90.79
281.184	58.03
281.399	160.42
281.615	103.08
281.83	80.55
282.045	-13.65
282.26	-7.51
282.476	111.27
282.691	156.33
282.906	8.87
283.122	-5.46
283.337	39.59
283.552	68.27
283.767	41.64
283.983	127.66
284.198	-3.41
284.413	23.21
284.628	-79.19
284.843	-9.56
285.058	98.99
285.274	-34.13
285.489	62.12
285.704	105.13
285.919	121.51
286.134	4.78
286.349	96.94
286.564	23.21
286.779	180.9
286.995	29.35
287.21	-107.86
287.425	41.64
287.64	51.88
287.855	53.93
288.07	-68.95
288.285	98.99
288.5	127.66
288.715	2.73
288.93	72.36
289.145	-71
289.36	94.89
289.575	-38.23
289.79	39.59
290.004	-50.52
290.219	123.56
290.434	-19.8
290.649	17.07
290.864	86.7
291.079	39.59
291.294	152.23
291.509	127.66
291.724	-36.18
291.938	-7.51
292.153	182.95
292.368	43.69
292.583	92.84
292.798	-21.85
293.012	0.68
293.227	68.27
293.442	53.93
293.657	23.21
293.871	115.37
294.086	84.65
294.301	199.34
294.516	148.14
294.73	70.31
294.945	4.78
295.16	80.55
295.374	86.7
295.589	103.08
295.804	92.84
296.018	121.51
296.233	160.42
296.447	174.76
296.662	4.78
296.877	78.51
297.091	84.65
297.306	66.22
297.52	82.6
297.735	107.18
297.949	109.22
298.164	43.69
298.378	156.33
298.593	72.36
298.807	6.83
299.022	103.08
299.236	217.77
299.451	86.7
299.665	23.21
299.88	98.99
300.094	72.36
300.309	51.88
300.523	70.31
300.737	-21.85
300.952	58.03
301.166	129.7
301.381	37.55
301.595	27.31
301.809	117.42
302.024	17.07
302.238	-15.7
302.452	119.46
302.667	12.97
302.881	154.28
303.095	76.46
303.309	53.93
303.524	19.11
303.738	12.97
303.952	103.08
304.166	103.08
304.381	-73.04
304.595	228.01
304.809	23.21
305.023	76.46
305.237	6.83
305.452	23.21
305.666	53.93
305.88	115.37
306.094	164.52
306.308	123.56
306.522	158.38
306.736	152.23
306.95	-9.56
307.164	111.27
307.379	8.87
307.593	123.56
307.807	148.14
308.021	90.79
308.235	168.62
308.449	-25.94
308.663	6.83
308.877	215.72
309.091	41.64
309.305	45.74
309.519	-40.28
309.733	96.94
309.947	-58.71
310.161	113.32
310.374	197.29
310.588	125.61
310.802	-3.41
311.016	4.78
311.23	107.18
311.444	10.92
311.658	96.94
311.872	101.03
312.085	217.77
312.299	166.57
312.513	88.75
312.727	47.79
312.941	-11.61
313.154	43.69
313.368	33.45
313.582	51.88
313.796	105.13
314.009	49.83
314.223	90.79
314.437	33.45
314.651	131.75
314.864	53.93
315.078	90.79
315.292	-36.18
315.505	8.87
315.719	60.07
315.933	88.75
316.146	4.78
316.36	-25.94
316.573	125.61
316.787	96.94
317.001	70.31
317.214	15.02
317.428	-23.89
317.641	2.73
317.855	58.03
318.068	78.51
318.282	64.17
318.495	164.52
318.709	72.36
318.922	15.02
319.136	78.51
319.349	113.32
319.563	-36.18
319.776	84.65
319.99	-62.8
320.203	47.79
320.417	4.78
320.63	121.51
320.843	230.06
321.057	127.66
321.27	19.11
321.483	47.79
321.697	135.85
321.91	119.46
322.124	25.26
322.337	117.42
322.55	33.45
322.763	131.75
322.977	60.07
323.19	6.83
323.403	76.46
323.617	74.41
323.83	103.08
324.043	146.09
324.256	135.85
324.469	-58.71
324.683	164.52
324.896	21.16
325.109	70.31
325.322	-105.81
325.535	199.34
325.748	94.89
325.962	78.51
326.175	47.79
326.388	53.93
326.601	182.95
326.814	-1.37
327.027	17.07
327.24	164.52
327.453	-52.56
327.666	82.6
327.879	172.71
328.092	125.61
328.305	45.74
328.518	15.02
328.731	111.27
328.944	51.88
329.157	66.22
329.37	86.7
329.583	211.62
329.796	152.23
330.009	17.07
330.222	53.93
330.435	174.76
330.648	78.51
330.861	-9.56
331.073	78.51
331.286	70.31
331.499	39.59
331.712	6.83
331.925	23.21
332.138	70.31
332.35	133.8
332.563	29.35
332.776	133.8
332.989	-21.85
333.202	60.07
333.414	90.79
333.627	103.08
333.84	41.64
334.053	66.22
334.265	-64.85
334.478	72.36
334.691	55.98
334.903	17.07
335.116	-17.75
335.329	58.03
335.541	37.55
335.754	129.7
335.966	-56.66
336.179	35.5
336.392	41.64
336.604	82.6
336.817	70.31
337.029	86.7
337.242	43.69
337.454	51.88
337.667	107.18
337.88	176.81
338.092	47.79
338.305	117.42
338.517	29.35
338.729	68.27
338.942	113.32
339.154	-21.85
339.367	-34.13
339.579	60.07
339.792	64.17
340.004	125.61
340.217	23.21
340.429	37.55
340.641	-48.47
340.854	15.02
341.066	98.99
341.278	123.56
341.491	248.49
341.703	74.41
341.915	60.07
342.128	72.36
342.34	139.94
342.552	27.31
342.764	84.65
342.977	-60.76
343.189	47.79
343.401	119.46
343.613	-15.7
343.826	0.68
344.038	55.98
344.25	113.32
344.462	76.46
344.674	94.89
344.886	35.5
345.099	90.79
345.311	125.61
345.523	-15.7
345.735	-13.65
345.947	129.7
346.159	94.89
346.371	49.83
346.583	84.65
346.795	176.81
347.007	103.08
347.219	98.99
347.431	0.68
347.643	58.03
347.855	10.92
348.067	144.04
348.279	-60.76
348.491	19.11
348.703	109.22
348.915	72.36
349.127	-25.94
349.339	109.22
349.551	45.74
349.763	115.37
349.975	68.27
350.187	84.65
350.399	162.47
350.61	113.32
350.822	53.93
351.034	109.22
351.246	125.61
351.458	82.6
351.669	35.5
351.881	219.82
352.093	131.75
352.305	70.31
352.517	64.17
352.728	135.85
352.94	80.55
353.152	123.56
353.363	47.79
353.575	82.6
353.787	166.57
353.999	101.03
354.21	193.19
354.422	-11.61
354.633	21.16
354.845	141.99
355.057	51.88
355.268	121.51
355.48	144.04
355.692	-44.37
355.903	129.7
356.115	-25.94
356.326	2.73
356.538	144.04
356.749	101.03
356.961	160.42
357.172	82.6
357.384	23.21
357.595	209.58
357.807	64.17
358.018	31.4
358.23	117.42
358.441	240.29
358.653	125.61
358.864	80.55
359.075	51.88
359.287	113.32
359.498	101.03
359.709	92.84
359.921	10.92
360.132	90.79
360.344	76.46
360.555	53.93
360.766	94.89
360.977	23.21
361.189	137.9
361.4	55.98
361.611	55.98
361.823	211.62
362.034	49.83
362.245	-44.37
362.456	125.61
362.667	80.55
362.879	-42.32
363.09	51.88
363.301	78.51
363.512	51.88
363.723	-15.7
363.935	60.07
364.146	103.08
364.357	2.73
364.568	72.36
364.779	-60.76
364.99	172.71
365.201	10.92
365.412	55.98
365.623	-103.76
365.834	55.98
366.045	29.35
366.256	133.8
366.467	154.28
366.678	98.99
366.889	105.13
367.1	53.93
367.311	113.32
367.522	43.69
367.733	154.28
367.944	180.9
368.155	105.13
368.366	101.03
368.577	172.71
368.788	109.22
368.999	-32.08
369.209	74.41
369.42	217.77
369.631	273.06
369.842	78.51
370.053	60.07
370.264	76.46
370.474	27.31
370.685	2.73
370.896	107.18
371.107	84.65
371.317	78.51
371.528	80.55
371.739	113.32
371.95	88.75
372.16	82.6
372.371	19.11
372.582	-1.37
372.792	68.27
373.003	80.55
373.214	195.24
373.424	111.27
373.635	43.69
373.846	182.95
374.056	62.12
374.267	86.7
374.477	111.27
374.688	4.78
374.898	74.41
375.109	74.41
375.319	107.18
375.53	60.07
375.74	131.75
375.951	35.5
376.161	90.79
376.372	88.75
376.582	113.32
376.793	141.99
377.003	29.35
377.214	-9.56
377.424	144.04
377.635	66.22
377.845	-81.24
378.055	109.22
378.266	45.74
378.476	58.03
378.686	152.23
378.897	70.31
379.107	107.18
379.317	103.08
379.528	-9.56
379.738	107.18
379.948	49.83
380.158	152.23
380.369	109.22
380.579	107.18
380.789	31.4
380.999	111.27
381.21	113.32
381.42	254.63
381.63	92.84
381.84	121.51
382.05	185
382.261	98.99
382.471	148.14
382.681	-27.99
382.891	197.29
383.101	-5.46
383.311	-15.7
383.521	31.4
383.731	111.27
383.941	133.8
384.151	41.64
384.361	86.7
384.571	98.99
384.781	92.84
384.991	178.86
385.201	189.1
385.411	144.04
385.621	107.18
385.831	154.28
386.041	6.83
386.251	33.45
386.461	207.53
386.671	74.41
386.881	0.68
387.091	80.55
387.301	135.85
387.511	86.7
387.72	129.7
387.93	203.43
388.14	-19.8
388.35	117.42
388.56	135.85
388.769	170.66
388.979	37.55
389.189	-7.51
389.399	37.55
389.609	31.4
389.818	137.9
390.028	37.55
390.238	49.83
390.447	19.11
390.657	129.7
390.867	111.27
391.076	-40.28
391.286	176.81
391.496	-36.18
391.705	125.61
391.915	160.42
392.125	103.08
392.334	27.31
392.544	191.14
392.753	125.61
392.963	23.21
393.172	-13.65
393.382	25.26
393.591	225.96
393.801	51.88
394.01	213.67
394.22	86.7
394.429	-1.37
394.639	19.11
394.848	45.74
395.058	92.84
395.267	84.65
395.477	180.9
395.686	41.64
395.895	207.53
396.105	166.57
396.314	66.22
396.524	33.45
396.733	123.56
396.942	168.62
397.152	131.75
397.361	92.84
397.57	58.03
397.78	135.85
397.989	70.31
398.198	197.29
398.407	4.78
398.617	35.5
398.826	66.22
399.035	92.84
399.244	170.66
399.453	131.75
399.663	62.12
399.872	92.84
400.081	55.98
400.29	111.27
400.499	27.31
400.708	137.9
400.917	84.65
401.127	80.55
401.336	84.65
401.545	185
401.754	146.09
401.963	148.14
402.172	-34.13
402.381	-48.47
402.59	66.22
402.799	37.55
403.008	150.18
403.217	133.8
403.426	156.33
403.635	-11.61
403.844	-11.61
404.053	27.31
404.262	55.98
404.471	162.47
404.68	72.36
404.888	139.94
405.097	58.03
405.306	86.7
405.515	137.9
405.724	27.31
405.933	80.55
406.142	154.28
406.35	101.03
406.559	35.5
406.768	88.75
406.977	139.94
407.185	111.27
407.394	68.27
407.603	33.45
407.812	115.37
408.02	141.99
408.229	-15.7
408.438	139.94
408.646	-21.85
408.855	6.83
409.064	25.26
409.272	98.99
409.481	107.18
409.69	49.83
409.898	21.16
410.107	76.46
410.315	141.99
410.524	-40.28
410.733	35.5
410.941	84.65
411.15	105.13
411.358	90.79
411.567	195.24
411.775	35.5
411.984	129.7
412.192	115.37
412.401	55.98
412.609	193.19
412.818	101.03
413.026	174.76
413.234	8.87
413.443	29.35
413.651	8.87
413.86	62.12
414.068	164.52
414.276	195.24
414.485	103.08
414.693	201.38
414.901	217.77
415.11	82.6
415.318	23.21
415.526	86.7
415.734	94.89
415.943	121.51
416.151	144.04
416.359	78.51
416.567	168.62
416.776	98.99
416.984	103.08
417.192	162.47
417.4	15.02
417.608	41.64
417.817	4.78
418.025	94.89
418.233	197.29
418.441	17.07
418.649	-15.7
418.857	92.84
419.065	119.46
419.273	49.83
419.481	127.66
419.689	80.55
419.897	35.5
420.105	4.78
420.313	150.18
420.521	172.71
420.729	174.76
420.937	10.92
421.145	72.36
421.353	139.94
421.561	228.01
421.769	86.7
421.977	78.51
422.185	195.24
422.393	21.16
422.601	180.9
422.809	88.75
423.017	47.79
423.224	84.65
423.432	127.66
423.64	53.93
423.848	176.81
424.056	72.36
424.263	68.27
424.471	66.22
424.679	180.9
424.887	51.88
425.094	135.85
425.302	94.89
425.51	33.45
425.718	141.99
425.925	90.79
426.133	76.46
426.341	215.72
426.548	90.79
426.756	49.83
426.964	137.9
427.171	64.17
427.379	123.56
427.586	92.84
427.794	117.42
428.001	141.99
428.209	60.07
428.417	187.05
428.624	158.38
428.832	152.23
429.039	176.81
429.247	88.75
429.454	150.18
429.662	187.05
429.869	135.85
430.076	211.62
430.284	117.42
430.491	268.97
430.699	176.81
430.906	256.68
431.114	103.08
431.321	193.19
431.528	94.89
431.736	168.62
431.943	139.94
432.15	164.52
432.358	199.34
432.565	299.69
432.772	82.6
432.979	258.73
433.187	123.56
433.394	285.35
433.601	223.91
433.808	264.87
434.016	285.35
434.223	303.78
434.43	219.82
434.637	307.88
434.844	344.74
435.052	225.96
435.259	221.86
435.466	336.55
435.673	264.87
435.88	283.3
436.087	410.28
436.294	371.37
436.501	354.98
436.708	295.59
436.915	408.23
437.122	344.74
437.329	291.49
437.537	451.24
437.743	295.59
437.95	463.52
438.157	436.9
438.364	369.32
438.571	484
438.778	414.37
438.985	510.63
439.192	506.53
439.399	588.45
439.606	527.01
439.813	658.08
440.02	537.25
440.227	785.05
440.433	592.55
440.64	680.61
440.847	592.55
441.054	647.84
441.261	813.73
441.467	684.7
441.674	610.98
441.881	762.53
442.088	735.9
442.294	735.9
442.501	770.72
442.708	942.75
442.914	840.35
443.121	914.08
443.328	946.84
443.534	1067.67
443.741	996
443.948	934.56
444.154	1129.11
444.361	1327.77
444.568	1096.35
444.774	1137.31
444.981	1055.39
445.187	1282.71
445.394	1297.05
445.6	1321.62
445.807	1471.12
446.013	1374.87
446.22	1393.3
446.426	1417.88
446.633	1637.01
446.839	1858.19
447.046	1540.76
447.252	1819.28
447.459	1716.88
447.665	1901.2
447.871	2007.69
448.078	2153.1
448.284	2056.84
448.491	2232.97
448.697	2368.13
448.903	2468.48
449.11	2466.44
449.316	2306.7
449.522	2589.32
449.728	2579.08
449.935	2777.73
450.141	2689.67
450.347	2953.85
450.553	2984.57
450.76	3003
450.966	3015.29
451.172	3146.36
451.378	3379.83
451.584	3691.12
451.791	3717.75
451.997	4000.37
452.203	3963.5
452.409	4192.87
452.615	4301.42
452.821	4178.54
453.027	4055.66
453.233	4751.97
453.44	4567.65
453.646	4926.05
453.852	5077.6
454.058	5421.66
454.264	5374.55
454.47	5755.47
454.676	5800.53
454.882	6212.17
455.088	6054.48
455.294	6400.58
455.5	6730.31
455.705	7160.38
455.911	7230.01
456.117	7238.2
456.323	7512.63
456.529	7789.11
456.735	8131.12
456.941	8436.27
457.147	9116.19
457.352	8995.36
457.558	9179.68
457.764	9929.24
457.97	10252.81
458.176	10367.5
458.381	11244.03
458.587	11328
458.793	12022.26
458.999	11762.17
459.204	13259.23
459.41	13687.26
459.616	13660.63
459.821	14428.62
460.027	15147.46
460.233	15552.96
460.438	15698.36
460.644	16744.88
460.85	17064.36
461.055	17547.68
461.261	18237.84
461.466	17912.22
461.672	18205.08
461.878	20623.73
462.083	20287.86
462.289	20722.03
462.494	21395.81
462.7	21717.34
462.905	22118.75
463.111	23718.21
463.316	24824.11
463.522	25073.96
463.727	26040.61
463.932	27142.41
464.138	27953.41
464.343	29061.36
464.549	29243.63
464.754	31678.66
464.959	32489.66
465.165	32843.96
465.37	32547
465.575	32610.49
465.781	34676.89
465.986	35639.43
466.191	35354.77
466.397	35633.29
466.602	34576.54
466.807	36325.5
467.012	37640.3
467.218	38002.79
467.423	38373.47
467.628	39313.49
467.833	41105.46
468.038	40560.7
468.244	39776.33
468.449	41396.27
468.654	40980.54
468.859	40513.6
469.064	40667.2
469.269	39561.29
469.474	40290.37
469.679	41277.49
469.885	40142.92
470.09	40939.58
470.295	41158.71
470.5	40007.75
470.705	40251.46
470.91	38926.42
471.115	38848.6
471.32	39477.33
471.525	39213.14
471.73	38414.43
471.935	37478.51
472.139	36636.8
472.344	36718.71
472.549	36612.22
472.754	35821.7
472.959	34947.22
473.164	33777.83
473.369	33278.13
473.574	34007.2
473.778	33355.95
473.983	32540.86
474.188	32311.49
474.393	30740.69
474.598	30527.7
474.802	29864.16
475.007	29571.3
475.212	29546.73
475.417	28119.29
475.621	27908.35
475.826	27560.2
476.031	27101.45
476.235	26343.7
476.44	26442.01
476.645	26095.9
476.849	25661.73
477.054	25135.4
477.259	24305.98
477.463	24596.79
477.668	23869.76
477.872	23693.63
478.077	23163.21
478.282	22487.38
478.486	22104.41
478.691	22030.68
478.895	21647.71
479.1	21645.66
479.304	21748.06
479.509	20668.78
479.713	21105
479.918	20625.78
480.122	20132.22
480.326	20498.8
480.531	20351.35
480.735	19917.18
480.94	19880.32
481.144	20095.35
481.348	19356.04
481.553	19335.56
481.757	19159.43
481.961	19120.52
482.166	18856.33
482.37	18985.35
482.574	18459.02
482.778	18590.09
482.983	19016.07
483.187	18305.43
483.391	18227.6
483.595	18020.76
483.8	17635.74
484.004	17754.52
484.208	17869.21
484.412	17555.87
484.616	17369.51
484.821	16818.6
485.025	16689.58
485.229	16656.81
485.433	16220.6
485.637	16439.73
485.841	15907.26
486.045	15767.99
486.249	15618.49
486.453	15536.57
486.657	15247.81
486.861	15221.19
487.065	14594.51
487.269	14445.01
487.473	13971.93
487.677	14387.66
487.881	14219.73
488.085	13595.1
488.289	13548
488.493	13134.31
488.697	13224.42
488.901	12952.04
489.105	12644.84
489.309	12382.7
489.512	12161.52
489.716	11905.52
489.92	11698.68
490.124	11538.94
490.328	11551.23
490.531	11137.54
490.735	10877.44
490.939	10664.46
491.143	10510.86
491.346	10463.75
491.55	10359.31
491.754	9957.91
491.958	10027.54
492.161	9880.08
492.365	9587.22
492.569	9450.01
492.772	9347.61
492.976	9304.6
493.18	9304.6
493.383	9011.75
493.587	8931.87
493.79	8811.04
493.994	8573.48
494.197	8706.6
494.401	8663.59
494.605	8342.06
494.808	8319.53
495.012	8360.49
495.215	8411.69
495.419	8311.34
495.622	7944.75
495.825	8270.38
496.029	7830.07
496.232	8069.68
496.436	7957.04
496.639	8065.58
496.843	7856.69
497.046	7664.18
497.249	8059.44
497.453	7998
497.656	7989.81
497.859	7881.27
498.063	7952.95
498.266	8135.21
498.469	7639.61
498.673	7895.6
498.876	8045.1
499.079	8079.92
499.282	7844.4
499.485	8303.15
499.689	8135.21
499.892	8350.25
500.095	8133.17
500.298	8499.75
500.501	8149.55
500.705	8325.68
500.908	8385.07
501.111	8524.33
501.314	8630.82
501.517	8890.92
501.72	8786.47
501.923	8809
502.126	9101.86
502.329	9079.33
502.532	9052.7
502.735	9202.21
502.938	9384.48
503.141	9349.66
503.344	9544.22
503.547	9683.48
503.75	9667.1
503.953	9765.4
504.156	9908.76
504.359	10228.24
504.562	10160.66
504.765	10490.38
504.968	10541.58
505.17	10672.65
505.373	10736.13
505.576	10912.26
505.779	11217.41
505.982	11252.22
506.185	11418.11
506.387	11643.39
506.59	11889.14
506.793	12179.95
506.996	12335.6
507.198	12890.6
507.401	12743.14
507.604	13181.41
507.807	13345.25
508.009	13468.13
508.212	13736.41
508.415	13959.64
508.617	14301.65
508.82	14592.46
509.022	14655.95
509.225	15430.08
509.428	15520.19
509.63	15813.05
509.833	15905.21
510.035	16867.75
510.238	16755.11
510.44	17195.43
510.643	17463.71
510.845	17906.07
511.048	17951.13
511.25	18364.82
511.453	18792.84
511.655	19593.6
511.858	19698.05
512.06	20203.89
512.262	20701.55
512.465	20756.85
512.667	21506.4
512.87	21711.2
513.072	22356.31
513.274	23320.9
513.477	23456.07
513.679	23910.72
513.881	24490.29
514.084	25071.92
514.286	25356.58
514.488	25899.3
514.69	26867.98
514.893	27046.16
515.095	27685.12
515.297	27982.08
515.499	28977.39
515.701	29391.08
515.904	29880.55
516.106	30636.25
516.308	31357.13
516.51	31858.88
516.712	32157.89
516.914	32532.67
517.116	33616.04
517.318	33945.76
517.52	34728.09
517.722	35137.68
517.925	36300.93
518.127	36575.36
518.329	36993.14
518.531	37445.74
518.733	38264.93
518.935	38776.92
519.136	39211.09
519.338	39864.39
519.54	40255.56
519.742	41105.46
519.944	41484.34
520.146	42723.36
520.348	42704.93
520.55	43053.08
520.752	44245
520.954	44791.81
521.155	44419.08
521.357	45709.3
521.559	45606.9
521.761	46897.12
521.963	46743.52
522.164	46954.46
522.366	47599.57
522.568	47470.55
522.77	48123.85
522.971	49254.33
523.173	48572.36
523.375	48889.79
523.576	49280.95
523.778	48811.97
523.98	50147.25
524.181	49794.99
524.383	49930.16
524.584	50511.78
524.786	50177.96
524.988	49926.06
525.189	50440.1
525.391	50739.11
525.592	50425.77
525.794	50442.15
525.995	50309.03
526.197	50481.06
526.398	50200.49
526.6	50358.19
526.801	50171.82
527.003	49772.47
527.204	49864.63
527.406	50057.13
527.607	49809.33
527.808	49215.42
528.01	48906.18
528.211	48811.97
528.412	49145.79
528.614	47738.83
528.815	48326.6
529.016	48160.72
529.218	46659.55
529.419	46827.49
529.62	46485.48
529.822	45844.46
530.023	45475.83
530.224	45320.18
530.425	45099
530.626	43718.67
530.828	43491.35
531.029	43759.63
531.23	42836
531.431	42207.27
531.632	41945.13
531.833	41437.23
532.035	41195.57
532.236	40757.31
532.437	39946.31
532.638	39471.18
532.839	38930.52
533.04	38598.75
533.241	37652.59
533.442	38013.03
533.643	37451.89
533.844	36739.19
534.045	36382.85
534.246	35367.06
534.447	35555.47
534.648	35020.95
534.849	34388.13
535.05	33568.94
535.251	33700.01
535.451	32577.72
535.652	32424.12
535.853	32204.99
536.054	31600.84
536.255	31480.01
536.456	30628.06
536.657	30806.23
536.857	29794.53
537.058	29544.68
537.259	28993.78
537.46	29018.35
537.66	28328.19
537.861	28070.14
538.062	27461.9
538.263	27365.64
538.463	26997.01
538.664	26626.32
538.865	26310.94
539.065	26327.32
539.266	25757.99
539.466	25262.38
539.667	24756.53
539.868	24854.83
540.068	24039.74
540.269	23918.91
540.469	24179
540.67	23372.1
540.87	23353.67
541.071	23005.52
541.271	22923.6
541.472	22554.96
541.672	22104.41
541.873	21913.95
542.073	21604.7
542.274	21643.62
542.474	21084.52
542.675	21100.9
542.875	20904.3
543.075	20736.37
543.276	19882.36
543.476	20259.19
543.676	19990.91
543.877	19564.93
544.077	19573.12
544.277	19186.05
544.478	19218.82
544.678	18612.62
544.878	18698.64
545.078	18358.67
545.279	18033.05
545.479	17639.84
545.679	17822.11
545.879	17564.06
546.079	17428.9
546.28	17140.13
546.48	16953.77
546.68	16798.12
546.88	16658.86
547.08	16648.62
547.28	16333.23
547.48	15921.59
547.68	16085.43
547.88	15507.9
548.081	15595.96
548.281	15346.11
548.481	15094.21
548.681	15014.34
548.881	14653.9
549.081	14199.25
549.28	14442.96
549.48	14080.47
549.68	14031.32
549.88	13779.42
550.08	13437.41
550.28	13504.99
550.48	13244.9
550.68	13072.87
550.88	12759.53
551.08	12487.15
551.279	12650.99
551.479	12044.79
551.679	12087.79
551.879	11858.42
552.079	11831.8
552.278	11661.82
552.478	11590.14
552.678	11244.03
552.878	11074.05
553.077	10830.34
553.277	10592.78
553.477	10705.42
553.676	10568.2
553.876	10336.78
554.076	10078.74
554.275	10070.55
554.475	9706.01
554.674	9759.25
554.874	9523.74
555.074	9316.89
555.273	9138.72
555.473	9110.05
555.672	8944.16
555.872	8725.03
556.071	8618.54
556.271	8669.73
556.47	8403.5
556.67	8174.13
556.869	8069.68
557.068	8000.05
557.268	7721.52
557.467	7873.07
557.667	7776.82
557.866	7557.69
558.065	7273.02
558.265	7211.58
558.464	7029.31
558.663	7004.74
558.863	7002.69
559.062	6863.43
559.261	6625.86
559.461	6769.22
559.66	6341.19
559.859	6423.11
560.058	6273.61
560.258	6074.96
560.457	6214.22
560.656	6177.36
560.855	5816.91
561.054	5851.73
561.253	5655.12
561.453	5659.22
561.652	5489.24
561.851	5581.4
562.05	5165.66
562.249	5335.64
562.448	5345.88
562.647	5005.92
562.846	4969.05
563.045	5022.3
563.244	4997.73
563.443	4981.34
563.642	4676.2
563.841	4735.59
564.04	4803.17
564.239	4698.72
564.438	4389.48
564.637	4383.34
564.836	4340.33
565.035	4446.82
565.234	4209.26
565.432	4239.98
565.631	4297.32
565.83	4084.33
566.029	3990.13
566.228	4002.41
566.427	4018.8
566.625	3830.38
566.824	3891.82
567.023	3807.86
567.222	3773.04
567.42	3678.83
567.619	3682.93
567.818	3433.08
568.016	3789.42
568.215	3474.04
568.414	3555.96
568.612	3404.41
568.811	3244.67
569.01	3148.41
569.208	3330.68
569.407	3240.57
569.605	3269.24
569.804	3082.88
570.002	3005.05
570.201	2962.05
570.4	3029.63
570.598	2949.76
570.797	2910.85
570.995	2878.08
571.193	2779.78
571.392	2724.48
571.59	2622.08
571.789	2777.73
571.987	2675.33
572.186	2716.29
572.384	2491.01
572.582	2577.03
572.781	2679.43
572.979	2370.18
573.177	2441.86
573.376	2445.96
573.574	2421.38
573.772	2413.19
573.971	2339.46
574.169	2210.44
574.367	2275.98
574.565	2321.03
574.763	2192.01
574.962	2163.34
575.16	2067.08
575.358	1933.97
575.556	2048.65
575.754	2038.41
575.952	1923.73
576.151	2077.32
576.349	1917.58
576.547	1823.37
576.745	1968.78
576.943	1893.01
577.141	1913.49
577.339	1745.55
577.537	1856.14
577.735	1827.47
577.933	1680.02
578.131	1569.43
578.329	1716.88
578.527	1503.89
578.725	1643.15
578.923	1659.54
579.121	1589.91
579.319	1467.03
579.516	1530.52
579.714	1655.44
579.912	1538.71
580.11	1370.77
580.308	1409.69
580.506	1428.12
580.704	1227.42
580.901	1297.05
581.099	1405.59
581.297	1254.04
581.495	1280.66
581.692	1229.46
581.89	1381.01
582.088	1215.13
582.285	1270.42
582.483	1133.21
582.681	1219.22
582.878	1161.88
583.076	1090.2
583.274	1200.79
583.471	1221.27
583.669	1161.88
583.866	1094.3
584.064	1069.72
584.262	1008.28
584.459	1004.19
584.657	1036.95
584.854	1071.77
585.052	1024.67
585.249	1135.26
585.447	1000.09
585.644	881.31
585.841	1022.62
586.039	959.13
586.236	1010.33
586.434	875.17
586.631	885.41
586.828	920.22
587.026	924.32
587.223	740
587.42	860.83
587.618	877.21
587.815	942.75
588.012	852.64
588.21	811.68
588.407	866.97
588.604	967.32
588.801	633.5
588.999	819.87
589.196	817.82
589.393	744.1
589.59	793.25
589.787	813.73
589.984	819.87
590.182	780.96
590.379	742.05
590.576	723.62
590.773	699.04
590.97	707.23
591.167	750.24
591.364	785.05
591.561	694.94
591.758	858.78
591.955	746.14
592.152	707.23
592.349	676.51
592.546	807.58
592.743	756.38
592.94	787.1
593.137	752.29
593.334	742.05
593.531	686.75
593.727	819.87
593.924	715.42
594.121	762.53
594.318	717.47
594.515	758.43
594.712	770.72
594.908	864.93
595.105	678.56
595.302	760.48
595.499	715.42
595.696	963.23
595.892	754.34
596.089	920.22
596.286	756.38
596.482	971.42
596.679	922.27
596.876	846.49
597.072	1008.28
597.269	936.6
597.466	946.84
597.662	952.99
597.859	1024.67
598.055	1041.05
598.252	1131.16
598.448	1149.59
598.645	1229.46
598.841	1125.02
599.038	1362.58
599.234	1348.25
599.431	1372.82
599.627	1424.02
599.824	1415.83
600.02	1507.99
600.217	1610.39
600.413	1606.29
600.609	1608.34
600.806	1903.25
601.002	1798.8
601.198	1815.18
601.395	1979.02
601.591	1895.05
601.787	1976.97
601.984	2251.4
602.18	2204.3
602.376	2296.46
602.572	2366.09
602.769	2542.21
602.965	2513.54
603.161	2675.33
603.357	2773.63
603.553	2871.93
603.75	2878.08
603.946	2990.72
604.142	3101.31
604.338	3199.61
604.534	3363.45
604.73	3439.22
604.926	3721.84
605.122	3672.69
605.318	3627.64
605.514	3988.08
605.71	4026.99
605.906	4088.43
606.102	4260.46
606.298	4526.69
606.494	4502.12
606.69	4711.01
606.886	4739.68
607.082	4911.71
607.278	5089.88
607.474	5071.45
607.67	5509.72
607.866	5425.75
608.062	5687.89
608.257	5851.73
608.453	5835.35
608.649	6234.7
608.845	6156.88
609.041	6488.65
609.236	6779.46
609.432	6795.84
609.628	7041.6
609.824	7258.68
610.019	7471.67
610.215	7434.81
610.411	7742
610.606	8028.72
610.802	8030.77
610.998	8370.73
611.193	8628.77
611.389	8796.71
611.584	9017.89
611.78	9374.24
611.976	9501.21
612.171	9939.48
612.367	10054.16
612.562	10240.53
612.758	10390.03
612.953	10650.12
613.149	11348.48
613.344	11176.45
613.539	11670.01
613.735	12071.41
613.93	12562.92
614.126	12542.44
614.321	13003.24
614.517	13332.96
614.712	13572.57
614.907	13816.28
615.103	14313.94
615.298	14531.02
615.493	15217.09
615.688	15223.23
615.884	16003.51
616.079	16050.61
616.274	16626.09
616.47	17371.55
616.665	17410.46
616.86	18174.36
617.055	18344.34
617.25	18665.87
617.445	19413.38
617.641	19749.25
617.836	20617.58
618.031	20474.23
618.226	21459.3
618.421	21995.87
618.616	22251.86
618.811	22694.22
619.006	23671.11
619.201	23703.87
619.396	24551.73
619.591	24652.08
619.786	25295.14
619.981	25835.81
620.176	26622.23
620.371	26603.8
620.566	27537.67
620.761	28086.53
620.956	28698.87
621.151	29030.64
621.346	29892.83
621.541	29831.4
621.735	31002.83
621.93	31041.74
622.125	32047.3
622.32	32317.63
622.515	33159.34
622.709	33886.37
622.904	34494.62
623.099	34939.03
623.294	35973.25
623.488	36030.6
623.683	37036.15
623.878	36991.09
624.072	37826.67
624.267	38445.15
624.462	39143.51
624.656	39442.51
624.851	40515.65
625.046	40970.3
625.24	41584.69
625.435	41842.73
625.629	42680.35
625.824	42999.83
626.018	43911.18
626.213	43823.12
626.407	44722.18
626.602	44550.15
626.796	45316.09
626.991	45914.09
627.185	46096.36
627.38	46026.73
627.574	46933.98
627.768	46811.1
627.963	47433.69
628.157	47114.2
628.352	47585.24
628.546	47024.09
628.74	47710.16
628.935	46976.99
629.129	47691.73
629.323	47122.4
629.517	47206.36
629.712	46974.94
629.906	46815.2
630.1	45662.19
630.294	45901.81
630.489	44869.63
630.683	45242.36
630.877	43939.85
631.071	43040.79
631.265	42649.63
631.459	41637.94
631.653	40921.15
631.848	40351.81
632.042	38836.31
632.236	38451.3
632.43	37337.2
632.624	36317.31
632.818	34799.77
633.012	34255.01
633.206	33149.1
633.4	32475.32
633.594	30650.58
633.788	30255.32
633.982	29145.33
634.176	28348.67
634.369	26732.82
634.563	26153.24
634.757	24770.86
634.951	24125.75
635.145	23200.07
635.339	22497.62
635.533	21369.19
635.726	20783.47
635.92	19528.06
636.114	18944.39
636.308	17770.91
636.501	17545.63
636.695	16689.58
636.889	15780.28
637.083	15575.48
637.276	14813.64
637.47	14180.82
637.664	13738.46
637.857	13191.65
638.051	12538.35
638.244	12055.03
638.438	11608.57
638.632	11383.29
638.825	10795.53
639.019	10408.46
639.212	9994.77
639.406	9536.03
639.599	9126.43
639.793	8825.38
639.986	8477.23
640.18	8170.03
640.373	7797.3
640.567	7498.3
640.76	7311.93
640.954	6924.86
641.147	6609.48
641.34	6349.39
641.534	6238.8
641.727	6144.59
641.92	5939.79
642.114	5550.68
642.307	5192.28
642.5	5177.95
642.694	4848.22
642.887	4723.3
643.08	4715.11
643.273	4373.1
643.467	4182.63
643.66	3947.12
643.853	3963.5
644.046	3826.29
644.239	3603.06
644.432	3519.09
644.626	3236.47
644.819	3146.36
645.012	3062.4
645.205	3076.73
645.398	2970.24
645.591	2812.54
645.784	2626.18
645.977	2372.23
646.17	2534.02
646.363	2316.94
646.556	2189.96
646.749	2128.52
646.942	2097.8
647.135	2069.13
647.328	2022.03
647.521	1856.14
647.714	1864.33
647.907	1843.85
648.099	1594
648.292	1708.69
648.485	1483.41
648.678	1442.45
648.871	1342.1
649.064	1376.92
649.256	1315.48
649.449	1276.57
649.642	1262.23
649.835	1161.88
650.027	1170.07
650.22	1225.37
650.413	1061.53
650.605	1135.26
650.798	1082.01
650.991	969.37
651.183	899.74
651.376	1034.91
651.568	1010.33
651.761	809.63
651.954	834.21
652.146	809.63
652.339	813.73
652.531	809.63
652.724	690.85
652.916	674.46
653.109	512.67
653.301	793.25
653.494	725.66
653.686	666.27
653.879	807.58
654.071	645.79
654.263	692.9
654.456	635.55
654.648	709.28
654.84	584.35
655.033	490.15
655.225	617.12
655.417	361.13
655.61	584.35
655.802	459.43
655.994	479.91
656.186	428.71
656.379	572.07
656.571	422.56
656.763	397.99
656.955	363.17
657.148	402.08
657.34	553.63
657.532	418.47
657.724	426.66
657.916	426.66
658.108	393.89
658.3	449.19
658.492	477.86
658.684	273.06
658.876	348.84
659.068	252.58
659.26	217.77
659.452	223.91
659.644	305.83
659.836	451.24
660.028	336.55
660.22	271.01
660.412	322.21
660.604	232.1
660.796	279.21
660.988	373.41
661.18	332.45
661.372	375.46
661.563	266.92
661.755	287.4
661.947	234.15
662.139	262.82
662.331	234.15
662.522	332.45
662.714	148.14
662.906	109.22
663.097	211.62
663.289	166.57
663.481	146.09
663.673	242.34
663.864	250.53
664.056	242.34
664.247	211.62
664.439	299.69
664.631	260.77
664.822	266.92
665.014	262.82
665.205	170.66
665.397	178.86
665.588	316.07
665.78	207.53
665.971	285.35
666.163	103.08
666.354	311.97
666.546	201.38
666.737	146.09
666.929	213.67
667.12	205.48
667.311	244.39
667.503	176.81
667.694	178.86
667.885	225.96
668.077	314.02
668.268	17.07
668.459	258.73
668.651	176.81
668.842	185
669.033	70.31
669.224	197.29
669.416	383.65
669.607	137.9
669.798	72.36
669.989	215.72
670.18	180.9
670.371	172.71
670.563	109.22
670.754	164.52
670.945	285.35
671.136	219.82
671.327	133.8
671.518	248.49
671.709	301.73
671.9	264.87
672.091	256.68
672.282	209.58
672.473	252.58
672.664	176.81
672.855	162.47
673.046	246.44
673.237	238.25
673.428	199.34
673.619	309.93
673.809	160.42
674	357.03
674.191	215.72
674.382	152.23
674.573	238.25
674.764	234.15
674.954	295.59
675.145	174.76
675.336	197.29
675.527	150.18
675.717	170.66
675.908	221.86
676.099	185
676.289	213.67
676.48	94.89
676.671	191.14
676.861	178.86
677.052	223.91
677.243	162.47
677.433	185
677.624	260.77
677.814	260.77
678.005	164.52
678.195	363.17
678.386	209.58
678.576	246.44
678.767	158.38
678.957	250.53
679.148	307.88
679.338	324.26
679.529	266.92
679.719	250.53
679.909	326.31
680.1	266.92
680.29	328.36
680.481	207.53
680.671	334.5
680.861	242.34
681.052	266.92
681.242	201.38
681.432	299.69
681.622	281.25
681.813	207.53
682.003	359.08
682.193	197.29
682.383	260.77
682.573	326.31
682.764	301.73
682.954	279.21
683.144	330.41
683.334	285.35
683.524	209.58
683.714	311.97
683.904	367.27
684.094	260.77
684.284	230.06
684.474	410.28
684.664	361.13
684.854	275.11
685.044	232.1
685.234	293.54
685.424	311.97
685.614	281.25
685.804	346.79
685.994	350.89
686.184	309.93
686.374	307.88
686.564	330.41
686.753	305.83
686.943	309.93
687.133	328.36
687.323	303.78
687.513	365.22
687.702	258.73
687.892	287.4
688.082	391.84
688.272	363.17
688.461	373.41
688.651	311.97
688.841	486.05
689.03	271.01
689.22	318.12
689.41	408.23
689.599	316.07
689.789	252.58
689.979	420.52
690.168	303.78
690.358	316.07
690.547	314.02
690.737	256.68
690.926	318.12
691.116	240.29
691.305	354.98
691.495	307.88
691.684	221.86
691.874	217.77
692.063	252.58
692.252	414.37
692.442	359.08
692.631	328.36
692.82	305.83
693.01	365.22
693.199	219.82
693.388	283.3
693.578	309.93
693.767	268.97
693.956	299.69
694.146	185
694.335	369.32
694.524	295.59
694.713	342.69
694.902	283.3
695.092	307.88
695.281	342.69
695.47	289.45
695.659	232.1
695.848	262.82
696.037	133.8
696.226	305.83
696.415	262.82
696.604	342.69
696.793	377.51
696.982	250.53
697.171	404.13
697.36	223.91
697.549	305.83
697.738	113.32
697.927	217.77
698.116	174.76
698.305	324.26
698.494	268.97
698.683	230.06
698.872	408.23
699.061	256.68
699.25	256.68
699.438	223.91
699.627	232.1
699.816	330.41
700.005	115.37
700.193	285.35
700.382	266.92
700.571	275.11
700.76	268.97
700.948	223.91
701.137	320.17
701.326	285.35
701.514	139.94
701.703	195.24
701.892	240.29
702.08	361.13
702.269	232.1
702.457	172.71
702.646	318.12
702.834	219.82
703.023	275.11
703.212	348.84
703.4	228.01
703.589	127.66
703.777	178.86
703.965	191.14
704.154	178.86
704.342	223.91
704.531	160.42
704.719	264.87
704.907	375.46
705.096	244.39
705.284	199.34
705.472	213.67
705.661	291.49
705.849	164.52
706.037	326.31
706.226	305.83
706.414	289.45
706.602	209.58
706.79	324.26
706.979	209.58
707.167	197.29
707.355	90.79
707.543	293.54
707.731	285.35
707.919	266.92
708.107	232.1
708.296	178.86
708.484	133.8
708.672	244.39
708.86	316.07
709.048	234.15
709.236	172.71
709.424	238.25
709.612	215.72
709.8	131.75
709.988	168.62
710.176	258.73
710.364	361.13
710.551	176.81
710.739	234.15
710.927	271.01
711.115	176.81
711.303	230.06
711.491	322.21
711.679	152.23
711.866	244.39
712.054	221.86
712.242	240.29
712.43	311.97
712.617	246.44
712.805	367.27
712.993	205.48
713.181	154.28
713.368	273.06
713.556	365.22
713.744	168.62
713.931	385.7
714.119	283.3
714.306	236.2
714.494	246.44
714.682	180.9
714.869	90.79
715.057	230.06
715.244	201.38
715.432	260.77
715.619	221.86
715.807	156.33
715.994	242.34
716.182	277.16
716.369	381.6
716.556	338.6
716.744	131.75
716.931	178.86
717.119	322.21
717.306	240.29
717.493	354.98
717.681	271.01
717.868	242.34
718.055	338.6
718.242	225.96
718.43	258.73
718.617	381.6
718.804	236.2
718.991	324.26
719.179	264.87
719.366	289.45
719.553	387.75
719.74	373.41
719.927	242.34
720.114	277.16
720.301	178.86
720.488	209.58
720.676	273.06
720.863	348.84
721.05	451.24
721.237	273.06
721.424	328.36
721.611	332.45
721.798	299.69
721.985	193.19
722.172	205.48
722.358	309.93
722.545	346.79
722.732	240.29
722.919	441
723.106	291.49
723.293	252.58
723.48	324.26
723.667	299.69
723.853	381.6
724.04	293.54
724.227	359.08
724.414	309.93
724.6	340.65
724.787	443.04
724.974	416.42
725.161	354.98
725.347	248.49
725.534	238.25
725.72	363.17
725.907	381.6
726.094	340.65
726.28	256.68
726.467	344.74
726.653	264.87
726.84	373.41
727.027	422.56
727.213	381.6
727.4	367.27
727.586	418.47
727.773	326.31
727.959	266.92
728.145	309.93
728.332	277.16
728.518	277.16
728.705	494.24
728.891	354.98
729.077	453.28
729.264	275.11
729.45	326.31
729.636	379.56
729.823	367.27
730.009	406.18
730.195	336.55
730.382	459.43
730.568	182.95
730.754	371.37
730.94	314.02
731.126	348.84
731.313	412.32
731.499	387.75
731.685	404.13
731.871	400.04
732.057	373.41
732.243	477.86
732.429	438.95
732.615	510.63
732.801	397.99
732.987	299.69
733.173	365.22
733.359	354.98
733.545	375.46
733.731	332.45
733.917	453.28
734.103	402.08
734.289	447.14
734.475	328.36
734.661	527.01
734.847	422.56
735.033	430.76
735.219	479.91
735.404	404.13
735.59	361.13
735.776	316.07
735.962	498.34
736.148	414.37
736.333	496.29
736.519	481.96
736.705	363.17
736.89	383.65
737.076	418.47
737.262	295.59
737.447	371.37
737.633	381.6
737.819	438.95
738.004	479.91
738.19	410.28
738.375	447.14
738.561	438.95
738.747	381.6
738.932	404.13
739.118	496.29
739.303	484
739.489	504.48
739.674	406.18
739.859	293.54
740.045	402.08
740.23	436.9
740.416	273.06
740.601	377.51
740.786	416.42
740.972	387.75
741.157	348.84
741.342	266.92
741.528	389.8
741.713	516.77
741.898	410.28
742.084	369.32
742.269	359.08
742.454	389.8
742.639	393.89
742.824	445.09
743.01	445.09
743.195	576.16
743.38	527.01
743.565	397.99
743.75	385.7
743.935	459.43
744.12	479.91
744.305	281.25
744.49	309.93
744.675	377.51
744.86	484
745.045	412.32
745.23	346.79
745.415	369.32
745.6	496.29
745.785	377.51
745.97	426.66
746.155	332.45
746.34	516.77
746.525	438.95
746.71	508.58
746.895	256.68
747.079	248.49
747.264	416.42
747.449	451.24
747.634	434.85
747.819	430.76
748.003	336.55
748.188	297.64
748.373	434.85
748.557	402.08
748.742	350.89
748.927	314.02
749.111	418.47
749.296	316.07
749.481	445.09
749.665	397.99
749.85	309.93
750.034	428.71
750.219	336.55
750.404	342.69
750.588	367.27
750.773	330.41
750.957	412.32
751.141	228.01
751.326	389.8
751.51	230.06
751.695	412.32
751.879	318.12
752.064	379.56
752.248	344.74
752.432	410.28
752.617	359.08
752.801	375.46
752.985	406.18
753.17	414.37
753.354	377.51
753.538	387.75
753.722	395.94
753.907	305.83
754.091	297.64
754.275	307.88
754.459	207.53
754.643	334.5
754.828	242.34
755.012	324.26
755.196	223.91
755.38	275.11
755.564	281.25
755.748	293.54
755.932	305.83
756.116	365.22
756.3	332.45
756.484	273.06
756.668	365.22
756.852	178.86
757.036	193.19
757.22	213.67
757.404	256.68
757.588	219.82
757.772	271.01
757.956	277.16
758.14	328.36
758.323	213.67
758.507	369.32
758.691	221.86
758.875	297.64
759.059	350.89
759.242	266.92
759.426	250.53
759.61	320.17
759.794	178.86
759.977	293.54
760.161	475.81
760.345	422.56
760.528	381.6
760.712	215.72
760.895	217.77
761.079	185
761.263	164.52
761.446	182.95
761.63	268.97
761.813	311.97
761.997	133.8
762.18	211.62
762.364	291.49
762.547	123.56
762.731	234.15
762.914	205.48
763.098	156.33
763.281	189.1
763.464	162.47
763.648	248.49
763.831	148.14
764.015	148.14
764.198	260.77
764.381	101.03
764.564	187.05
764.748	203.43
764.931	187.05
765.114	225.96
765.297	238.25
765.481	172.71
765.664	242.34
765.847	221.86
766.03	281.25
766.213	197.29
766.397	230.06
766.58	92.84
766.763	273.06
766.946	98.99
767.129	164.52
767.312	64.17
767.495	195.24
767.678	148.14
767.861	172.71
768.044	176.81
768.227	84.65
768.41	139.94
768.593	180.9
768.776	133.8
768.959	137.9
769.142	234.15
769.324	113.32
769.507	217.77
769.69	119.46
769.873	160.42
770.056	363.17
770.239	98.99
770.421	213.67
770.604	254.63
770.787	158.38
770.97	254.63
771.152	70.31
771.335	152.23
771.518	129.7
771.7	230.06
771.883	268.97
772.066	131.75
772.248	168.62
772.431	150.18
772.613	211.62
772.796	166.57
772.978	215.72
773.161	336.55
773.343	225.96
773.526	133.8
773.708	23.21
773.891	-3.41
774.073	141.99
774.256	146.09
774.438	174.76
774.621	154.28
774.803	168.62
774.985	62.12
775.168	150.18
775.35	98.99
775.532	178.86
775.715	29.35
775.897	197.29
776.079	115.37
776.261	182.95
776.444	123.56
776.626	123.56
776.808	199.34
776.99	-11.61
777.173	135.85
777.355	27.31
777.537	135.85
777.719	154.28
777.901	123.56
778.083	113.32
778.265	25.26
778.447	174.76
778.629	125.61
778.811	148.14
778.993	123.56
779.175	187.05
779.357	139.94
779.539	35.5
779.721	160.42
779.903	80.55
780.085	115.37
780.267	127.66
780.449	131.75
780.631	150.18
780.812	148.14
780.994	107.18
781.176	35.5
781.358	49.83
781.54	121.51
781.721	160.42
781.903	193.19
782.085	2.73
782.267	156.33
782.448	41.64
782.63	62.12
782.812	133.8
782.993	47.79
783.175	144.04
783.357	60.07
783.538	133.8
783.72	-3.41
783.901	64.17
784.083	129.7
784.264	105.13
784.446	25.26
784.627	17.07
784.809	127.66
784.99	17.07
785.172	174.76
785.353	-5.46
785.535	111.27
785.716	-17.75
785.897	-1.37
786.079	86.7
786.26	111.27
786.441	162.47
786.623	-71
786.804	-7.51
786.985	72.36
787.167	105.13
787.348	-11.61
787.529	82.6
787.71	107.18
787.891	51.88
788.073	-7.51
788.254	-38.23
788.435	135.85
788.616	129.7
788.797	53.93
788.978	-7.51
789.159	82.6
789.34	170.66
789.522	80.55
789.703	60.07
789.884	58.03
790.065	74.41
790.246	209.58
790.427	49.83
790.607	234.15
790.788	137.9
790.969	62.12
791.15	144.04
791.331	-36.18
791.512	60.07
791.693	-95.57
791.874	51.88
792.054	215.72
792.235	82.6
792.416	58.03
792.597	17.07
792.778	213.67
792.958	80.55
793.139	121.51
793.32	49.83
793.5	-71
793.681	92.84
793.862	82.6
794.042	109.22
794.223	-13.65
794.404	25.26
794.584	-13.65
794.765	17.07
794.945	76.46
795.126	60.07
795.306	107.18
795.487	60.07
795.667	21.16
795.848	88.75
796.028	39.59
796.209	94.89
796.389	103.08
796.57	80.55
796.75	68.27
796.93	70.31
797.111	-9.56
797.291	6.83
797.471	168.62
797.652	70.31
797.832	41.64
798.012	148.14
798.192	45.74
798.373	-44.37
798.553	86.7
798.733	66.22
798.913	15.02
799.093	82.6
799.274	64.17
799.454	94.89
799.634	60.07
799.814	174.76
799.994	82.6
800.174	31.4
800.354	115.37
800.534	-5.46
800.714	43.69
800.894	55.98
801.074	4.78
801.254	12.97
801.434	80.55
801.614	58.03
801.794	-1.37
801.974	1880.72
802.154	-13.65
802.334	109.22
802.514	55.98
802.693	2.73
802.873	-27.99
803.053	137.9
803.233	45.74
803.413	15.02
803.592	-19.8
803.772	-7.51
803.952	41.64
804.131	6.83
804.311	86.7
804.491	90.79
804.67	-36.18
804.85	-42.32
805.03	35.5
805.209	101.03
805.389	15.02
805.568	21.16
805.748	78.51
805.928	-5.46
806.107	141.99
806.287	21.16
806.466	88.75
806.646	-1.37
806.825	43.69
807.004	35.5
807.184	90.79
807.363	135.85
807.543	58.03
807.722	70.31
807.901	164.52
808.081	146.09
808.26	-48.47
808.439	88.75
808.619	103.08
808.798	-1.37
808.977	6.83
809.156	182.95
809.336	25.26
809.515	121.51
809.694	33.45
809.873	-30.04
810.052	62.12
810.231	103.08
810.411	10.92
810.59	119.46
810.769	27.31
810.948	84.65
811.127	-32.08
811.306	-25.94
811.485	-87.38
811.664	182.95
811.843	-9.56
812.022	117.42
812.201	4.78
812.38	53.93
812.559	19.11
812.737	154.28
812.916	25.26
813.095	53.93
813.274	115.37
813.453	47.79
813.632	0.68
813.811	96.94
813.989	-3.41
814.168	103.08
814.347	-48.47
814.526	17.07
814.704	146.09
814.883	113.32
815.062	-36.18
815.24	51.88
815.419	4.78
815.598	25.26
815.776	-103.76
815.955	17.07
816.133	-17.75
816.312	-30.04
816.49	-7.51
816.669	58.03
816.847	39.59
817.026	158.38
817.204	39.59
817.383	6.83
817.561	-48.47
817.74	35.5
817.918	80.55
818.097	15.02
818.275	49.83
818.453	137.9
818.632	39.59
818.81	62.12
818.988	12.97
819.167	0.68
819.345	49.83
819.523	-32.08
819.701	80.55
819.879	12.97
820.058	23.21
820.236	55.98
820.414	127.66
820.592	-25.94
820.77	47.79
820.948	37.55
821.127	19.11
821.305	86.7
821.483	-25.94
821.661	103.08
821.839	58.03
822.017	27.31
822.195	-50.52
822.373	127.66
822.551	2.73
822.729	39.59
822.907	6.83
823.085	105.13
823.262	12.97
823.44	23.21
823.618	10.92
823.796	-11.61
823.974	-15.7
824.152	12.97
824.329	49.83
824.507	101.03
824.685	156.33
824.863	-38.23
825.04	25.26
825.218	82.6
825.396	2.73
825.574	68.27
825.751	58.03
825.929	39.59
826.107	-50.52
826.284	-34.13
826.462	86.7
826.639	-77.14
826.817	-46.42
826.994	35.5
827.172	-50.52
827.349	117.42
827.527	43.69
827.704	86.7
827.882	66.22
828.059	66.22
828.237	-34.13
828.414	53.93
828.591	-122.2
828.769	17.07
828.946	15.02
829.124	113.32
829.301	113.32
829.478	19.11
829.655	101.03
829.833	8.87
830.01	-89.43
830.187	58.03
830.364	10.92
830.542	49.83
830.719	119.46
830.896	137.9
831.073	60.07
831.25	88.75
831.427	25.26
831.604	47.79
831.782	41.64
831.959	51.88
832.136	49.83
832.313	74.41
832.49	62.12
832.667	60.07
832.844	-11.61
833.021	129.7
833.198	121.51
833.374	15.02
833.551	45.74
833.728	-58.71
833.905	137.9
834.082	-120.15
834.259	37.55
834.436	121.51
834.612	-79.19
834.789	68.27
834.966	74.41
835.143	4.78
835.319	-44.37
835.496	86.7
835.673	33.45
835.85	12.97
836.026	80.55
836.203	49.83
836.38	-13.65
836.556	0.68
836.733	60.07
836.909	90.79
837.086	12.97
837.262	-75.09
837.439	-9.56
837.616	-89.43
837.792	-11.61
837.968	27.31
838.145	-83.28
838.321	-9.56
838.498	-34.13
838.674	115.37
838.851	-50.52
839.027	47.79
839.203	53.93
839.38	55.98
839.556	-42.32
839.732	133.8
839.909	8.87
840.085	72.36
840.261	-21.85
840.437	17.07
840.614	27.31
840.79	60.07
840.966	129.7
841.142	-13.65
841.318	21.16
841.494	41.64
841.671	105.13
841.847	10.92
842.023	-95.57
842.199	76.46
842.375	129.7
842.551	-126.29
842.727	-50.52
842.903	113.32
843.079	2.73
843.255	131.75
843.431	4.78
843.607	-3.41
843.783	-107.86
843.959	70.31
844.134	-54.61
844.31	176.81
844.486	19.11
844.662	-13.65
844.838	-13.65
845.013	80.55
845.189	111.27
845.365	25.26
845.541	37.55
845.716	23.21
845.892	78.51
846.068	-54.61
846.244	-11.61
846.419	33.45
846.595	-66.9
846.77	-97.62
846.946	113.32
847.122	62.12
847.297	6.83
847.473	98.99
847.648	-85.33
847.824	37.55
847.999	-142.68
848.175	66.22
848.35	70.31
848.526	74.41
848.701	41.64
848.876	111.27
849.052	72.36
849.227	-36.18
849.403	131.75
849.578	-15.7
849.753	78.51
849.929	121.51
850.104	-38.23
850.279	37.55
850.454	103.08
850.63	31.4
850.805	31.4
850.98	-3.41
851.155	-15.7
851.33	117.42
851.505	-17.75
851.681	74.41
851.856	-25.94
852.031	98.99
852.206	-9.56
852.381	-64.85
852.556	4.78
852.731	51.88
852.906	125.61
853.081	17.07
853.256	86.7
853.431	-5.46
853.606	-79.19
853.781	-54.61
853.956	-71
854.131	43.69
854.305	-111.96
854.48	-3.41
854.655	0.68
854.83	-71
855.005	21.16
855.18	27.31
855.354	62.12
855.529	6.83
855.704	35.5
855.879	82.6
856.053	-3.41
856.228	35.5
856.403	-58.71
856.577	131.75
856.752	-60.76
856.926	-11.61
857.101	0.68
857.276	-32.08
857.45	125.61
857.625	111.27
857.799	43.69
857.974	-17.75
858.148	-107.86
858.323	39.59
858.497	-46.42
858.672	-81.24
858.846	-60.76
859.02	80.55
859.195	-68.95
859.369	-111.96
859.543	166.57
859.718	-58.71
859.892	37.55
860.066	47.79
860.241	-23.89
860.415	-79.19
860.589	-19.8
860.763	-36.18
860.938	-3.41
861.112	76.46
861.286	-3.41
861.46	172.71
861.634	-15.7
861.808	94.89
861.982	-46.42
862.157	-36.18
862.331	-87.38
862.505	-111.96
862.679	-9.56
862.853	51.88
863.027	-34.13
863.201	144.04
863.375	-27.99
863.549	37.55
863.722	15.02
863.896	66.22
864.07	-3.41
864.244	51.88
864.418	84.65
864.592	43.69
864.766	8.87
864.939	6.83
865.113	-38.23
865.287	80.55
865.461	-19.8
865.634	-13.65
865.808	68.27
865.982	-81.24
866.156	10.92
866.329	-91.48
866.503	-5.46
866.676	148.14
866.85	88.75
867.024	39.59
867.197	-17.75
867.371	37.55
867.544	27.31
867.718	-52.56
867.891	109.22
868.065	-9.56
868.238	37.55
868.412	12.97
868.585	74.41
868.759	-25.94
868.932	74.41
869.105	0.68
869.279	31.4
869.452	-27.99
869.625	12.97
869.799	53.93
869.972	-25.94
870.145	-66.9
870.319	62.12
870.492	-36.18
870.665	4.78
870.838	-21.85
871.011	-89.43
871.185	-7.51
871.358	-17.75
871.531	70.31
871.704	-21.85
871.877	-48.47
872.05	25.26
872.223	-71
872.396	72.36
872.569	21.16
872.742	-56.66
872.915	27.31
873.088	-36.18
873.261	-111.96
873.434	19.11
873.607	39.59
873.78	62.12
873.953	-120.15
874.126	-58.71
874.299	123.56
874.471	-79.19
874.644	4.78
874.817	62.12
874.99	141.99
875.163	10.92
875.335	37.55
875.508	-19.8
875.681	115.37
875.853	-7.51
876.026	-32.08
876.199	47.79
876.371	-42.32
876.544	-23.89
876.717	35.5
876.889	-13.65
877.062	55.98
877.234	-62.8
877.407	17.07
877.579	29.35
877.752	76.46
877.924	12.97
878.097	15.02
878.269	37.55
878.442	29.35
878.614	76.46
878.786	15.02
878.959	4.78
879.131	43.69
879.303	-130.39
879.476	37.55
879.648	76.46
879.82	72.36
879.993	33.45
880.165	-105.81
880.337	-114
880.509	-9.56
880.681	-68.95
880.854	-38.23
881.026	62.12
881.198	176.81
881.37	-1.37
881.542	25.26
881.714	-13.65
881.886	-87.38
882.058	23.21
882.23	19.11
882.402	-5.46
882.574	-34.13
882.746	27.31
882.918	141.99
883.09	8.87
883.262	6.83
883.434	70.31
883.606	-103.76
883.778	-44.37
883.95	199.34
884.122	-17.75
884.293	6.83
884.465	64.17
884.637	119.46
884.809	-89.43
884.98	51.88
885.152	101.03
885.324	103.08
885.496	12.97
885.667	21.16
885.839	-27.99
886.011	45.74
886.182	86.7
886.354	43.69
886.525	82.6
886.697	-11.61
886.869	21.16
887.04	12.97
887.212	103.08
887.383	201.38
887.555	12.97
887.726	35.5
887.897	-21.85
888.069	19.11
888.24	37.55
888.412	43.69
888.583	-36.18
888.754	-32.08
888.926	-132.44
889.097	12.97
889.268	-38.23
889.44	8.87
889.611	-42.32
889.782	-9.56
889.953	-120.15
890.125	53.93
890.296	-66.9
890.467	0.68
890.638	-9.56
890.809	19.11
890.98	15.02
891.151	29.35
891.323	45.74
891.494	-25.94
891.665	37.55
891.836	51.88
892.007	45.74
892.178	51.88
892.349	47.79
892.52	-46.42
892.691	33.45
892.862	-34.13
893.032	-116.05
893.203	-66.9
893.374	31.4
893.545	70.31
893.716	51.88
893.887	58.03
894.057	-52.56
894.228	49.83
894.399	31.4
894.57	103.08
894.74	12.97
894.911	53.93
895.082	111.27
895.253	-34.13
895.423	-15.7
895.594	37.55
895.764	66.22
895.935	10.92
896.106	53.93
896.276	10.92
896.447	-52.56
896.617	21.16
896.788	-79.19
896.958	-46.42
897.129	-23.89
897.299	-46.42
897.47	94.89
897.64	127.66
897.81	-21.85
897.981	49.83
898.151	-40.28
898.322	19.11
898.492	-9.56
898.662	-15.7
898.832	0.68
899.003	-40.28
899.173	8.87
899.343	-144.72
899.513	-13.65
