Data from USB4F104151__2__10-22-10-255.txt Node

Date: Wed Feb 26 10:22:10 EST 2025
User: louis
Spectrometer: USB4F10415
Trigger mode: 4
Integration Time (sec): 1.000000E-1
Scans to average: 1
Electric dark correction enabled: true
Nonlinearity correction enabled: false
Boxcar width: 0
XAxis mode: Wavelengths
Number of Pixels in Spectrum: 3648
>>>>>Begin Spectral Data<<<<<
178.204	-390.82
178.424	-390.82
178.644	-390.82
178.864	-378.53
179.084	-423.59
179.304	106.84
179.524	4.44
179.744	-46.76
179.964	22.87
180.184	-7.85
180.404	78.16
180.624	-46.76
180.844	16.73
181.064	-75.43
181.283	41.3
181.503	-65.19
181.723	-28.33
181.943	-134.82
182.163	153.94
182.383	14.68
182.602	53.59
182.822	94.55
183.042	74.07
183.262	-3.75
183.482	-34.47
183.701	102.74
183.921	41.3
184.141	-26.28
184.361	45.4
184.58	63.83
184.8	29.01
185.02	-28.33
185.239	104.79
185.459	160.08
185.679	90.45
185.898	-102.06
186.118	47.44
186.338	86.36
186.557	110.93
186.777	-48.81
186.997	78.16
187.216	55.64
187.436	172.37
187.655	149.84
187.875	117.08
188.095	100.69
188.314	131.41
188.534	121.17
188.753	-38.57
188.973	135.51
189.192	174.42
189.412	-7.85
189.631	80.21
189.851	51.54
190.07	246.1
190.29	-52.91
190.509	0.34
190.729	63.83
190.948	129.36
191.168	217.43
191.387	149.84
191.607	-3.75
191.826	139.6
192.045	2.39
192.265	41.3
192.484	31.06
192.704	39.25
192.923	49.49
193.142	223.57
193.362	129.36
193.581	141.65
193.8	117.08
194.02	55.64
194.239	67.92
194.458	39.25
194.678	53.59
194.897	-9.9
195.116	106.84
195.335	10.58
195.555	72.02
195.774	49.49
195.993	129.36
196.212	96.6
196.432	80.21
196.651	47.44
196.87	82.26
197.089	223.57
197.308	31.06
197.528	51.54
197.747	-81.58
197.966	151.89
198.185	158.03
198.404	-20.14
198.623	110.93
198.842	151.89
199.062	115.03
199.281	158.03
199.5	94.55
199.719	94.55
199.938	98.64
200.157	69.97
200.376	119.12
200.595	78.16
200.814	115.03
201.033	-87.72
201.252	153.94
201.471	108.88
201.69	135.51
201.909	88.4
202.128	141.65
202.347	86.36
202.566	63.83
202.785	-54.95
203.004	-7.85
203.223	250.19
203.442	47.44
203.661	-44.71
203.879	121.17
204.098	135.51
204.317	24.92
204.536	117.08
204.755	98.64
204.974	37.2
205.193	43.35
205.411	162.13
205.63	223.57
205.849	127.32
206.068	55.64
206.287	-30.38
206.505	192.85
206.724	65.88
206.943	18.77
207.162	55.64
207.381	16.73
207.599	20.82
207.818	45.4
208.037	55.64
208.255	20.82
208.474	123.22
208.693	72.02
208.911	10.58
209.13	106.84
209.349	84.31
209.567	147.8
209.786	160.08
210.005	129.36
210.223	16.73
210.442	-61.1
210.661	37.2
210.879	47.44
211.098	33.11
211.316	80.21
211.535	186.71
211.753	63.83
211.972	51.54
212.191	69.97
212.409	45.4
212.628	158.03
212.846	57.68
213.065	137.56
213.283	57.68
213.502	12.63
213.72	121.17
213.938	4.44
214.157	63.83
214.375	139.6
214.594	49.49
214.812	153.94
215.031	-22.19
215.249	59.73
215.467	63.83
215.686	76.12
215.904	141.65
216.122	14.68
216.341	59.73
216.559	84.31
216.778	186.71
216.996	143.7
217.214	16.73
217.432	24.92
217.651	-40.62
217.869	94.55
218.087	-50.86
218.306	96.6
218.524	96.6
218.742	29.01
218.96	115.03
219.179	8.53
219.397	78.16
219.615	262.48
219.833	158.03
220.051	-3.75
220.27	108.88
220.488	55.64
220.706	55.64
220.924	26.96
221.142	18.77
221.36	86.36
221.578	106.84
221.796	8.53
222.015	82.26
222.233	110.93
222.451	188.75
222.669	47.44
222.887	84.31
223.105	-5.8
223.323	22.87
223.541	-24.23
223.759	92.5
223.977	69.97
224.195	121.17
224.413	67.92
224.631	51.54
224.849	67.92
225.067	168.27
225.285	22.87
225.503	4.44
225.721	-63.15
225.939	-16.04
226.157	55.64
226.375	231.76
226.592	4.44
226.81	-50.86
227.028	162.13
227.246	131.41
227.464	139.6
227.682	119.12
227.9	88.4
228.117	67.92
228.335	117.08
228.553	41.3
228.771	51.54
228.989	59.73
229.206	131.41
229.424	76.12
229.642	37.2
229.86	-67.24
230.077	121.17
230.295	26.96
230.513	115.03
230.731	100.69
230.948	147.8
231.166	121.17
231.384	-32.43
231.601	-5.8
231.819	198.99
232.037	61.78
232.254	-7.85
232.472	2.39
232.689	0.34
232.907	131.41
233.125	-26.28
233.342	43.35
233.56	49.49
233.777	26.96
233.995	102.74
234.213	65.88
234.43	63.83
234.648	47.44
234.865	12.63
235.083	67.92
235.3	88.4
235.518	145.75
235.735	82.26
235.953	108.88
236.17	59.73
236.388	-9.9
236.605	18.77
236.822	158.03
237.04	90.45
237.257	10.58
237.475	-52.91
237.692	90.45
237.909	65.88
238.127	63.83
238.344	137.56
238.562	94.55
238.779	-75.43
238.996	22.87
239.214	108.88
239.431	133.46
239.648	-3.75
239.865	76.12
240.083	174.42
240.3	82.26
240.517	37.2
240.735	117.08
240.952	86.36
241.169	84.31
241.386	141.65
241.603	31.06
241.821	-22.19
242.038	158.03
242.255	129.36
242.472	31.06
242.689	153.94
242.907	115.03
243.124	57.68
243.341	47.44
243.558	84.31
243.775	-26.28
243.992	2.39
244.209	80.21
244.426	203.09
244.643	94.55
244.86	0.34
245.078	59.73
245.295	133.46
245.512	78.16
245.729	0.34
245.946	98.64
246.163	104.79
246.38	45.4
246.597	88.4
246.814	49.49
247.031	59.73
247.248	39.25
247.464	164.18
247.681	100.69
247.898	78.16
248.115	129.36
248.332	-42.67
248.549	196.95
248.766	237.91
248.983	127.32
249.2	92.5
249.417	194.9
249.633	47.44
249.85	149.84
250.067	26.96
250.284	33.11
250.501	92.5
250.717	37.2
250.934	0.34
251.151	61.78
251.368	55.64
251.585	133.46
251.801	135.51
252.018	65.88
252.235	76.12
252.451	-77.48
252.668	-46.76
252.885	172.37
253.102	82.26
253.318	10.58
253.535	41.3
253.752	45.4
253.968	53.59
254.185	-46.76
254.401	82.26
254.618	65.88
254.835	-1.71
255.051	186.71
255.268	69.97
255.484	115.03
255.701	4.44
255.917	37.2
256.134	33.11
256.351	18.77
256.567	33.11
256.784	2.39
257	-26.28
257.217	123.22
257.433	139.6
257.65	24.92
257.866	143.7
258.082	-81.58
258.299	63.83
258.515	10.58
258.732	4.44
258.948	29.01
259.165	55.64
259.381	-26.28
259.597	67.92
259.814	72.02
260.03	-5.8
260.246	-26.28
260.463	153.94
260.679	203.09
260.895	6.49
261.112	112.98
261.328	45.4
261.544	-38.57
261.761	280.91
261.977	26.96
262.193	18.77
262.409	94.55
262.626	155.99
262.842	104.79
263.058	-7.85
263.274	129.36
263.49	74.07
263.707	143.7
263.923	119.12
264.139	18.77
264.355	133.46
264.571	74.07
264.787	41.3
265.004	78.16
265.22	57.68
265.436	-28.33
265.652	2.39
265.868	63.83
266.084	-28.33
266.3	47.44
266.516	6.49
266.732	112.98
266.948	24.92
267.164	84.31
267.38	166.23
267.596	86.36
267.812	182.61
268.028	98.64
268.244	0.34
268.46	117.08
268.676	10.58
268.892	96.6
269.108	6.49
269.324	20.82
269.54	18.77
269.756	96.6
269.972	47.44
270.188	-7.85
270.403	-44.71
270.619	10.58
270.835	90.45
271.051	72.02
271.267	-7.85
271.483	33.11
271.698	117.08
271.914	43.35
272.13	51.54
272.346	31.06
272.562	57.68
272.777	178.51
272.993	0.34
273.209	59.73
273.425	78.16
273.64	-24.23
273.856	76.12
274.072	43.35
274.287	-11.95
274.503	78.16
274.719	49.49
274.934	-24.23
275.15	43.35
275.366	47.44
275.581	-13.99
275.797	86.36
276.012	53.59
276.228	45.4
276.444	90.45
276.659	162.13
276.875	-16.04
277.09	100.69
277.306	-7.85
277.521	43.35
277.737	69.97
277.952	141.65
278.168	125.27
278.383	-3.75
278.599	59.73
278.814	100.69
279.03	88.4
279.245	151.89
279.461	115.03
279.676	160.08
279.892	-85.67
280.107	20.82
280.322	-7.85
280.538	135.51
280.753	-1.71
280.969	47.44
281.184	69.97
281.399	139.6
281.615	35.16
281.83	26.96
282.045	-69.29
282.26	86.36
282.476	61.78
282.691	227.67
282.906	18.77
283.122	115.03
283.337	31.06
283.552	61.78
283.767	82.26
283.983	135.51
284.198	80.21
284.413	121.17
284.628	-59.05
284.843	90.45
285.058	57.68
285.274	22.87
285.489	39.25
285.704	104.79
285.919	31.06
286.134	149.84
286.349	59.73
286.564	8.53
286.779	170.32
286.995	10.58
287.21	0.34
287.425	47.44
287.64	-42.67
287.855	29.01
288.07	-104.11
288.285	174.42
288.5	94.55
288.715	51.54
288.93	-16.04
289.145	20.82
289.36	139.6
289.575	-3.75
289.79	176.47
290.004	-26.28
290.219	133.46
290.434	-16.04
290.649	-20.14
290.864	45.4
291.079	-5.8
291.294	33.11
291.509	125.27
291.724	20.82
291.938	-3.75
292.153	76.12
292.368	16.73
292.583	90.45
292.798	100.69
293.012	-9.9
293.227	80.21
293.442	20.82
293.657	125.27
293.871	133.46
294.086	59.73
294.301	219.47
294.516	192.85
294.73	96.6
294.945	-13.99
295.16	108.88
295.374	127.32
295.589	61.78
295.804	14.68
296.018	88.4
296.233	186.71
296.447	84.31
296.662	39.25
296.877	67.92
297.091	108.88
297.306	53.59
297.52	35.16
297.735	108.88
297.949	-26.28
298.164	104.79
298.378	37.2
298.593	8.53
298.807	2.39
299.022	22.87
299.236	170.32
299.451	106.84
299.665	59.73
299.88	63.83
300.094	133.46
300.309	76.12
300.523	82.26
300.737	65.88
300.952	112.98
301.166	88.4
301.381	-24.23
301.595	84.31
301.809	43.35
302.024	37.2
302.238	39.25
302.452	178.51
302.667	14.68
302.881	104.79
303.095	88.4
303.309	61.78
303.524	82.26
303.738	67.92
303.952	37.2
304.166	94.55
304.381	-132.78
304.595	139.6
304.809	10.58
305.023	82.26
305.237	59.73
305.452	69.97
305.666	117.08
305.88	115.03
306.094	72.02
306.308	106.84
306.522	63.83
306.736	63.83
306.95	102.74
307.164	80.21
307.379	-57
307.593	110.93
307.807	180.56
308.021	-26.28
308.235	117.08
308.449	-3.75
308.663	59.73
308.877	231.76
309.091	84.31
309.305	55.64
309.519	-75.43
309.733	172.37
309.947	-30.38
310.161	121.17
310.374	127.32
310.588	147.8
310.802	-13.99
311.016	63.83
311.23	131.41
311.444	-1.71
311.658	82.26
311.872	98.64
312.085	137.56
312.299	137.56
312.513	115.03
312.727	72.02
312.941	-28.33
313.154	78.16
313.368	51.54
313.582	65.88
313.796	115.03
314.009	51.54
314.223	94.55
314.437	100.69
314.651	100.69
314.864	49.49
315.078	-18.09
315.292	-50.86
315.505	117.08
315.719	96.6
315.933	49.49
316.146	72.02
316.36	35.16
316.573	160.08
316.787	106.84
317.001	127.32
317.214	41.3
317.428	57.68
317.641	-38.57
317.855	-40.62
318.068	119.12
318.282	123.22
318.495	215.38
318.709	147.8
318.922	63.83
319.136	139.6
319.349	131.41
319.563	57.68
319.776	125.27
319.99	-71.34
320.203	80.21
320.417	63.83
320.63	137.56
320.843	194.9
321.057	104.79
321.27	-32.43
321.483	119.12
321.697	104.79
321.91	98.64
322.124	-52.91
322.337	119.12
322.55	37.2
322.763	135.51
322.977	16.73
323.19	12.63
323.403	24.92
323.617	63.83
323.83	82.26
324.043	74.07
324.256	47.44
324.469	-71.34
324.683	112.98
324.896	20.82
325.109	8.53
325.322	-102.06
325.535	108.88
325.748	63.83
325.962	35.16
326.175	98.64
326.388	90.45
326.601	127.32
326.814	33.11
327.027	57.68
327.24	176.47
327.453	-106.15
327.666	86.36
327.879	117.08
328.092	115.03
328.305	72.02
328.518	98.64
328.731	20.82
328.944	-7.85
329.157	39.25
329.37	51.54
329.583	168.27
329.796	174.42
330.009	45.4
330.222	190.8
330.435	125.27
330.648	137.56
330.861	47.44
331.073	80.21
331.286	155.99
331.499	22.87
331.712	-1.71
331.925	57.68
332.138	78.16
332.35	123.22
332.563	35.16
332.776	117.08
332.989	8.53
333.202	-9.9
333.414	92.5
333.627	65.88
333.84	33.11
334.053	92.5
334.265	29.01
334.478	90.45
334.691	-7.85
334.903	22.87
335.116	26.96
335.329	-16.04
335.541	26.96
335.754	135.51
335.966	16.73
336.179	31.06
336.392	92.5
336.604	-1.71
336.817	121.17
337.029	84.31
337.242	92.5
337.454	31.06
337.667	33.11
337.88	135.51
338.092	72.02
338.305	110.93
338.517	4.44
338.729	86.36
338.942	174.42
339.154	-34.47
339.367	29.01
339.579	33.11
339.792	18.77
340.004	43.35
340.217	10.58
340.429	31.06
340.641	-18.09
340.854	-44.71
341.066	55.64
341.278	237.91
341.491	215.38
341.703	72.02
341.915	55.64
342.128	119.12
342.34	84.31
342.552	-32.43
342.764	16.73
342.977	43.35
343.189	0.34
343.401	149.84
343.613	-22.19
343.826	10.58
344.038	-28.33
344.25	49.49
344.462	-65.19
344.674	100.69
344.886	-1.71
345.099	37.2
345.311	108.88
345.523	12.63
345.735	-1.71
345.947	106.84
346.159	82.26
346.371	80.21
346.583	110.93
346.795	151.89
347.007	14.68
347.219	69.97
347.431	33.11
347.643	143.7
347.855	0.34
348.067	119.12
348.279	8.53
348.491	-3.75
348.703	57.68
348.915	-32.43
349.127	-28.33
349.339	65.88
349.551	-5.8
349.763	67.92
349.975	8.53
350.187	147.8
350.399	129.36
350.61	149.84
350.822	-9.9
351.034	55.64
351.246	88.4
351.458	82.26
351.669	119.12
351.881	121.17
352.093	106.84
352.305	94.55
352.517	129.36
352.728	233.81
352.94	63.83
353.152	82.26
353.363	-20.14
353.575	63.83
353.787	250.19
353.999	88.4
354.21	219.47
354.422	-34.47
354.633	39.25
354.845	76.12
355.057	-7.85
355.268	117.08
355.48	129.36
355.692	-63.15
355.903	35.16
356.115	20.82
356.326	-83.63
356.538	82.26
356.749	92.5
356.961	235.86
357.172	16.73
357.384	-32.43
357.595	213.33
357.807	31.06
358.018	41.3
358.23	69.97
358.441	172.37
358.653	106.84
358.864	96.6
359.075	6.49
359.287	104.79
359.498	168.27
359.709	129.36
359.921	72.02
360.132	47.44
360.344	57.68
360.555	24.92
360.766	55.64
360.977	18.77
361.189	160.08
361.4	33.11
361.611	108.88
361.823	127.32
362.034	129.36
362.245	24.92
362.456	69.97
362.667	141.65
362.879	12.63
363.09	55.64
363.301	115.03
363.512	76.12
363.723	10.58
363.935	33.11
364.146	168.27
364.357	61.78
364.568	-9.9
364.779	-5.8
364.99	143.7
365.201	-1.71
365.412	117.08
365.623	-3.75
365.834	35.16
366.045	31.06
366.256	147.8
366.467	172.37
366.678	39.25
366.889	117.08
367.1	43.35
367.311	166.23
367.522	80.21
367.733	112.98
367.944	121.17
368.155	41.3
368.366	139.6
368.577	158.03
368.788	131.41
368.999	14.68
369.209	16.73
369.42	186.71
369.631	264.53
369.842	92.5
370.053	31.06
370.264	117.08
370.474	-7.85
370.685	63.83
370.896	51.54
371.107	90.45
371.317	31.06
371.528	-22.19
371.739	207.19
371.95	153.94
372.16	80.21
372.371	59.73
372.582	-52.91
372.792	129.36
373.003	74.07
373.214	76.12
373.424	194.9
373.635	-9.9
373.846	141.65
374.056	112.98
374.267	90.45
374.477	24.92
374.688	-24.23
374.898	147.8
375.109	16.73
375.319	80.21
375.53	106.84
375.74	96.6
375.951	2.39
376.161	76.12
376.372	47.44
376.582	26.96
376.793	135.51
377.003	45.4
377.214	26.96
377.424	133.46
377.635	49.49
377.845	57.68
378.055	182.61
378.266	-59.05
378.476	98.64
378.686	16.73
378.897	84.31
379.107	4.44
379.317	112.98
379.528	41.3
379.738	125.27
379.948	2.39
380.158	145.75
380.369	94.55
380.579	104.79
380.789	55.64
380.999	129.36
381.21	94.55
381.42	207.19
381.63	22.87
381.84	125.27
382.05	112.98
382.261	67.92
382.471	164.18
382.681	80.21
382.891	158.03
383.101	100.69
383.311	-40.62
383.521	-54.95
383.731	149.84
383.941	59.73
384.151	24.92
384.361	63.83
384.571	47.44
384.781	43.35
384.991	151.89
385.201	278.87
385.411	72.02
385.621	59.73
385.831	41.3
386.041	8.53
386.251	51.54
386.461	147.8
386.671	94.55
386.881	84.31
387.091	100.69
387.301	117.08
387.511	63.83
387.72	141.65
387.93	115.03
388.14	-61.1
388.35	80.21
388.56	141.65
388.769	135.51
388.979	26.96
389.189	-65.19
389.399	-16.04
389.609	72.02
389.818	108.88
390.028	39.25
390.238	141.65
390.447	-7.85
390.657	51.54
390.867	37.2
391.076	2.39
391.286	147.8
391.496	31.06
391.705	98.64
391.915	166.23
392.125	147.8
392.334	-30.38
392.544	102.74
392.753	72.02
392.963	-9.9
393.172	90.45
393.382	-3.75
393.591	237.91
393.801	67.92
394.01	217.43
394.22	78.16
394.429	-7.85
394.639	80.21
394.848	104.79
395.058	84.31
395.267	41.3
395.477	74.07
395.686	98.64
395.895	227.67
396.105	264.53
396.314	100.69
396.524	16.73
396.733	-38.57
396.942	207.19
397.152	135.51
397.361	90.45
397.57	90.45
397.78	65.88
397.989	129.36
398.198	229.71
398.407	123.22
398.617	37.2
398.826	86.36
399.035	22.87
399.244	20.82
399.453	67.92
399.663	84.31
399.872	131.41
400.081	53.59
400.29	129.36
400.499	39.25
400.708	133.46
400.917	-1.71
401.127	18.77
401.336	31.06
401.545	170.32
401.754	129.36
401.963	59.73
402.172	26.96
402.381	-46.76
402.59	104.79
402.799	86.36
403.008	110.93
403.217	110.93
403.426	49.49
403.635	2.39
403.844	139.6
404.053	-18.09
404.262	55.64
404.471	250.19
404.68	102.74
404.888	74.07
405.097	-26.28
405.306	112.98
405.515	119.12
405.724	10.58
405.933	170.32
406.142	110.93
406.35	160.08
406.559	-3.75
406.768	117.08
406.977	184.66
407.185	88.4
407.394	10.58
407.603	16.73
407.812	49.49
408.02	94.55
408.229	59.73
408.438	53.59
408.646	-61.1
408.855	37.2
409.064	57.68
409.272	51.54
409.481	127.32
409.69	33.11
409.898	14.68
410.107	86.36
410.315	178.51
410.524	63.83
410.733	115.03
410.941	92.5
411.15	57.68
411.358	80.21
411.567	108.88
411.775	74.07
411.984	45.4
412.192	131.41
412.401	43.35
412.609	133.46
412.818	102.74
413.026	104.79
413.234	96.6
413.443	80.21
413.651	-18.09
413.86	49.49
414.068	102.74
414.276	117.08
414.485	-3.75
414.693	254.29
414.901	178.51
415.11	135.51
415.318	61.78
415.526	88.4
415.734	98.64
415.943	31.06
416.151	233.81
416.359	29.01
416.567	106.84
416.776	78.16
416.984	84.31
417.192	172.37
417.4	39.25
417.608	-9.9
417.817	47.44
418.025	76.12
418.233	180.56
418.441	-18.09
418.649	-9.9
418.857	112.98
419.065	162.13
419.273	0.34
419.481	90.45
419.689	39.25
419.897	47.44
420.105	31.06
420.313	117.08
420.521	172.37
420.729	88.4
420.937	76.12
421.145	6.49
421.353	145.75
421.561	207.19
421.769	106.84
421.977	35.16
422.185	72.02
422.393	41.3
422.601	192.85
422.809	76.12
423.017	31.06
423.224	29.01
423.432	178.51
423.64	59.73
423.848	117.08
424.056	2.39
424.263	108.88
424.471	35.16
424.679	203.09
424.887	57.68
425.094	149.84
425.302	115.03
425.51	-9.9
425.718	108.88
425.925	117.08
426.133	94.55
426.341	205.14
426.548	69.97
426.756	14.68
426.964	74.07
427.171	22.87
427.379	69.97
427.586	139.6
427.794	188.75
428.001	176.47
428.209	78.16
428.417	190.8
428.624	168.27
428.832	74.07
429.039	135.51
429.247	96.6
429.454	98.64
429.662	192.85
429.869	102.74
430.076	231.76
430.284	184.66
430.491	188.75
430.699	231.76
430.906	194.9
431.114	80.21
431.321	110.93
431.528	104.79
431.736	188.75
431.943	110.93
432.15	137.56
432.358	198.99
432.565	254.29
432.772	57.68
432.979	205.14
433.187	117.08
433.394	256.34
433.601	127.32
433.808	135.51
434.016	219.47
434.223	258.39
434.43	180.56
434.637	190.8
434.844	244.05
435.052	225.62
435.259	248.15
435.466	172.37
435.673	299.34
435.88	348.5
436.087	297.3
436.294	319.82
436.501	317.78
436.708	229.71
436.915	323.92
437.122	321.87
437.329	256.34
437.537	323.92
437.743	356.69
437.95	383.31
438.157	371.02
438.364	371.02
438.571	391.5
438.778	477.52
438.985	454.99
439.192	416.08
439.399	399.7
439.606	502.09
439.813	481.61
440.02	518.48
440.227	627.02
440.433	549.2
440.64	344.4
440.847	444.75
441.054	577.87
441.261	698.7
441.467	624.97
441.674	504.14
441.881	651.6
442.088	676.17
442.294	700.75
442.501	739.66
442.708	715.08
442.914	745.8
443.121	860.49
443.328	774.47
443.534	1046.85
443.741	868.68
443.948	780.62
444.154	973.13
444.361	1184.07
444.568	917.83
444.774	999.75
444.981	829.77
445.187	1106.24
445.394	1118.53
445.6	977.22
445.807	1171.78
446.013	1177.92
446.22	1044.81
446.426	1419.58
446.633	1335.62
446.839	1493.31
447.046	1308.99
447.252	1448.26
447.459	1397.06
447.665	1628.48
447.871	1675.58
448.078	1722.68
448.284	1788.22
448.491	1878.33
448.697	1870.14
448.903	1943.86
449.11	2019.64
449.316	1915.19
449.522	2191.67
449.728	2253.11
449.935	2271.54
450.141	2244.92
450.347	2545.97
450.553	2418.99
450.76	2488.62
450.966	2619.69
451.172	2777.39
451.378	2924.84
451.584	2844.97
451.791	3225.89
451.997	3221.8
452.203	3363.11
452.409	3340.58
452.615	3580.19
452.821	3584.29
453.027	3674.4
453.233	4020.5
453.44	3780.89
453.646	4155.67
453.852	4356.37
454.058	4397.33
454.264	4534.54
454.47	4886.79
454.676	4794.64
454.882	5157.13
455.088	5013.77
455.294	5296.39
455.5	5740.8
455.705	6121.72
455.911	6043.9
456.117	6064.38
456.323	6387.96
456.529	6566.13
456.735	6961.39
456.941	7157.99
457.147	7330.02
457.352	7475.43
457.558	7803.1
457.764	8120.54
457.97	8333.53
458.176	8861.9
458.381	9224.39
458.587	9330.89
458.793	9857.21
458.999	9789.63
459.204	11147.44
459.41	11595.94
459.616	11292.84
459.821	11983.01
460.027	12546.2
460.233	12982.42
460.438	13181.07
460.644	13766.79
460.85	13936.77
461.055	14811.25
461.261	15339.63
461.466	14852.21
461.672	14876.79
461.878	16978
462.083	16592.98
462.289	16963.67
462.494	17823.81
462.7	18085.95
462.905	18298.94
463.111	19699.75
463.316	20637.72
463.522	20994.07
463.727	21542.92
463.932	22589.44
464.138	23097.33
464.343	24426.46
464.549	24371.17
464.754	26378.18
464.959	27008.95
465.165	26943.42
465.37	27039.67
465.575	27023.29
465.781	28886.94
465.986	29622.16
466.191	29093.79
466.397	29411.22
466.602	28901.28
466.807	30394.25
467.012	30777.22
467.218	31625.07
467.423	31463.29
467.628	32511.85
467.833	33697.62
468.038	33554.26
468.244	32696.16
468.449	34565.96
468.654	33537.88
468.859	33810.26
469.064	33890.13
469.269	33003.36
469.474	33015.65
469.679	34158.41
469.885	33036.13
470.09	33800.02
470.295	33714
470.5	32933.73
470.705	33072.99
470.91	32466.79
471.115	32055.15
471.32	32669.54
471.525	32466.79
471.73	31498.1
471.935	31342.46
472.139	29972.36
472.344	30191.5
472.549	29947.79
472.754	29462.42
472.959	28880.8
473.164	28127.14
473.369	27598.77
473.574	28329.89
473.778	27359.16
473.983	27146.17
474.188	26697.66
474.393	25173.97
474.598	25438.16
474.802	24578.01
475.007	24367.07
475.212	24047.59
475.417	22992.89
475.621	23066.61
475.826	22853.62
476.031	22114.31
476.235	21561.36
476.44	21927.94
476.645	21035.03
476.849	20719.64
477.054	20625.43
477.259	20207.65
477.463	20072.48
477.668	19603.5
477.872	19632.17
478.077	19028.02
478.282	18399.29
478.486	18577.47
478.691	17940.55
478.895	17834.05
479.1	17971.27
479.304	17717.32
479.509	17045.59
479.713	17348.68
479.918	16791.64
480.122	16697.43
480.326	16683.09
480.531	16838.74
480.735	16273.5
480.94	16103.52
481.144	16679
481.348	15876.2
481.553	15835.24
481.757	15394.92
481.961	15720.55
482.166	15632.49
482.37	15603.82
482.574	15159.41
482.778	15091.82
482.983	15476.84
483.187	14884.98
483.391	15118.45
483.595	14782.58
483.8	14346.36
484.004	14649.46
484.208	14616.69
484.412	14413.95
484.616	14272.64
484.821	13944.96
485.025	13469.83
485.229	13967.49
485.433	13410.44
485.637	13400.2
485.841	12988.56
486.045	12841.11
486.249	12966.03
486.453	12525.72
486.657	12578.97
486.861	12232.86
487.065	11929.76
487.269	12128.41
487.473	11415.72
487.677	11634.85
487.881	11522.21
488.085	11344.04
488.289	11139.24
488.493	10799.28
488.697	10707.12
488.901	10459.32
489.105	10178.75
489.309	10119.35
489.512	9889.98
489.716	9543.88
489.92	9703.62
490.124	9216.2
490.328	9281.74
490.531	9052.36
490.735	9097.42
490.939	8673.49
491.143	8526.04
491.346	8403.16
491.55	8313.05
491.754	8079.58
491.958	8126.68
492.161	7946.46
492.365	7723.23
492.569	7506.15
492.772	7641.31
492.976	7514.34
493.18	7424.23
493.383	7319.78
493.587	7297.25
493.79	7141.61
493.994	6850.8
494.197	6895.85
494.401	6854.89
494.605	6592.75
494.808	6924.52
495.012	6715.63
495.215	6697.2
495.419	6670.58
495.622	6492.4
495.825	6508.79
496.029	6381.81
496.232	6342.9
496.436	6215.93
496.639	6494.45
496.843	6283.51
497.046	6166.78
497.249	6496.5
497.453	6324.47
497.656	6258.93
497.859	6209.78
498.063	6334.71
498.266	6416.63
498.469	6146.3
498.673	6260.98
498.876	6236.41
499.079	6373.62
499.282	6340.85
499.485	6701.3
499.689	6197.49
499.892	6584.56
500.095	6273.27
500.298	6482.16
500.501	6422.77
500.705	6596.85
500.908	6625.52
501.111	6551.79
501.314	6772.97
501.517	6858.99
501.72	6883.56
501.923	6723.82
502.126	7028.97
502.329	7215.34
502.532	7061.74
502.735	7098.6
502.938	7315.69
503.141	7389.41
503.344	7252.2
503.547	7551.2
503.75	7522.53
503.953	7547.11
504.156	7626.98
504.359	7846.11
504.562	7858.4
504.765	8001.76
504.968	8124.63
505.17	8253.66
505.373	8472.79
505.576	8589.52
505.779	8538.32
505.982	8599.76
506.185	8775.89
506.387	8933.58
506.59	9150.67
506.793	9304.26
506.996	9234.63
507.198	9529.54
507.401	9932.99
507.604	9926.85
507.807	10055.87
508.009	10332.34
508.212	10723.51
508.415	10588.34
508.617	10772.66
508.82	10879.15
509.022	11172.01
509.225	11833.5
509.428	11690.15
509.63	11745.44
509.833	12138.65
510.035	12554.39
510.238	12753.04
510.44	12873.87
510.643	13443.21
510.845	13543.56
511.048	13553.8
511.25	14252.16
511.453	14227.58
511.655	14880.88
511.858	15044.72
512.06	15249.52
512.262	15571.05
512.465	15669.35
512.667	16296.03
512.87	16578.65
513.072	16820.31
513.274	17354.83
513.477	17750.09
513.679	18073.67
513.881	18348.09
514.084	18794.55
514.286	19071.03
514.488	19527.72
514.69	20488.22
514.893	20537.37
515.095	21047.32
515.297	21520.4
515.499	21524.49
515.701	22345.73
515.904	22650.88
516.106	23310.32
516.308	23308.27
516.51	23973.86
516.712	24618.97
516.914	25001.94
517.116	25405.39
517.318	25737.16
517.52	26152.9
517.722	26281.92
517.925	26933.18
518.127	27522.99
518.329	28010.41
518.531	28379.04
518.733	29142.94
518.935	29466.52
519.136	29562.77
519.338	30263.18
519.54	30783.36
519.742	31190.91
519.944	31530.87
520.146	32149.35
520.348	32317.29
520.55	33017.69
520.752	33333.08
520.954	33707.86
521.155	33363.8
521.357	34332.49
521.559	34692.93
521.761	35512.12
521.963	35460.92
522.164	35573.56
522.366	35977.01
522.568	36544.3
522.77	36767.52
522.971	37130.01
523.173	36681.51
523.375	37125.92
523.576	36808.48
523.778	37527.32
523.98	37840.66
524.181	38356.75
524.383	38018.83
524.584	38285.07
524.786	38117.14
524.988	37996.31
525.189	38276.88
525.391	38270.73
525.592	38299.4
525.794	38309.64
525.995	38295.31
526.197	38305.55
526.398	38293.26
526.6	38438.67
526.801	37967.63
527.003	38207.25
527.204	38141.71
527.406	37793.56
527.607	37592.86
527.808	37570.33
528.01	36818.72
528.211	37109.54
528.412	37263.13
528.614	36757.28
528.815	36527.91
529.016	36740.9
529.218	35561.27
529.419	35821.36
529.62	35368.76
529.822	34871.11
530.023	34367.3
530.224	34164.56
530.425	33724.24
530.626	33202.01
530.828	32995.17
531.029	33435.48
531.23	32685.92
531.431	31915.89
531.632	31786.86
531.833	31397.75
532.035	30932.86
532.236	30769.02
532.437	30609.28
532.638	29876.11
532.839	29540.24
533.04	29710.22
533.241	28737.44
533.442	29065.11
533.643	28063.66
533.844	28014.51
534.045	27522.99
534.246	27086.78
534.447	26773.44
534.648	26081.22
534.849	25964.49
535.05	25569.23
535.251	25133.01
535.451	24750.04
535.652	24410.08
535.853	24242.15
536.054	24006.63
536.255	23605.23
536.456	23033.85
536.657	23121.91
536.857	22550.53
537.058	22495.23
537.259	21985.29
537.46	21692.43
537.66	21557.26
537.861	21229.59
538.062	20908.05
538.263	20469.79
538.463	20121.63
538.664	20019.24
538.865	19961.89
539.065	20025.38
539.266	18962.48
539.466	19140.66
539.667	18569.27
539.868	18780.21
540.068	18534.46
540.269	18438.2
540.469	17987.65
540.67	17827.91
540.87	17680.46
541.071	17350.73
541.271	17287.25
541.472	17080.4
541.672	16961.62
541.873	16621.66
542.073	16435.29
542.274	16418.91
542.474	15982.69
542.675	15849.57
542.875	15607.91
543.075	15472.75
543.276	15272.04
543.476	15206.51
543.676	15050.86
543.877	14725.24
544.077	14516.34
544.277	14610.55
544.478	14174.33
544.678	14354.55
544.878	13990.02
545.078	14055.55
545.279	13480.07
545.479	13420.68
545.679	13301.9
545.879	13316.23
546.079	13156.49
546.28	13029.52
546.48	12693.65
546.68	12714.13
546.88	12472.47
547.08	12050.59
547.28	12384.41
547.48	11808.93
547.68	12052.64
547.88	11751.59
548.081	11589.8
548.281	11296.94
548.481	11264.17
548.681	11176.11
548.881	11081.9
549.081	10729.65
549.28	10713.27
549.48	10485.94
549.68	10451.13
549.88	10373.3
550.08	10033.34
550.28	9998.52
550.48	9941.18
550.68	9871.55
550.88	9664.71
551.08	9599.17
551.279	9310.41
551.479	9251.02
551.679	9279.69
551.879	9029.84
552.079	8898.77
552.278	8790.22
552.478	8796.37
552.678	8452.31
552.878	8534.23
553.077	8169.69
553.277	7854.3
553.477	8016.09
553.676	7958.75
553.876	7925.98
554.076	7487.72
554.275	7483.62
554.475	7262.44
554.674	7301.35
554.874	6990.06
555.074	6879.47
555.273	6996.2
555.473	6783.21
555.672	6545.65
555.872	6643.95
556.071	6347
556.271	6588.66
556.47	6215.93
556.67	6306.04
556.869	6113.53
557.068	5947.64
557.268	5910.78
557.467	5710.08
557.667	5835
557.866	5386.5
558.065	5470.47
558.265	5376.26
558.464	5333.25
558.663	5302.53
558.863	5202.18
559.062	5163.27
559.261	4925.71
559.461	5077.26
559.66	4843.79
559.859	4573.46
560.058	4616.46
560.258	4473.11
560.457	4585.74
560.656	4546.83
560.855	4337.94
561.054	4438.29
561.253	4243.73
561.453	4167.96
561.652	4190.49
561.851	4129.05
562.05	4018.46
562.249	3895.58
562.448	3979.54
562.647	3772.7
562.846	3764.51
563.045	3725.6
563.244	3547.42
563.443	3639.58
563.642	3449.12
563.841	3559.71
564.04	3488.03
564.239	3367.2
564.438	3201.32
564.637	3258.66
564.836	3172.64
565.035	3199.27
565.234	3182.88
565.432	3197.22
565.631	3055.91
565.83	3109.16
566.029	2947.37
566.228	2836.78
566.427	2963.75
566.625	2693.42
566.824	2965.8
567.023	2767.15
567.222	2720.04
567.42	2574.64
567.619	2642.22
567.818	2666.8
568.016	2726.19
568.215	2617.65
568.414	2672.94
568.612	2584.88
568.811	2441.52
569.01	2423.09
569.208	2357.55
569.407	2322.74
569.605	2453.81
569.804	2251.06
570.002	2310.45
570.201	2136.37
570.4	2271.54
570.598	2119.99
570.797	2111.8
570.995	2122.04
571.193	1997.11
571.392	2109.75
571.59	2009.4
571.789	1999.16
571.987	2003.25
572.186	2007.35
572.384	1790.27
572.582	1833.27
572.781	1911.1
572.979	1730.87
573.177	1829.18
573.376	1743.16
573.574	1759.55
573.772	1646.91
573.971	1704.25
574.169	1540.41
574.367	1517.89
574.565	1618.24
574.763	1519.93
574.962	1583.42
575.16	1505.6
575.358	1462.59
575.556	1511.74
575.754	1476.93
575.952	1474.88
576.151	1483.07
576.349	1429.82
576.547	1143.11
576.745	1370.43
576.943	1333.57
577.141	1339.71
577.339	1366.34
577.537	1278.27
577.735	1392.96
577.933	1364.29
578.131	1229.12
578.329	1220.93
578.527	1206.59
578.725	1112.39
578.923	1136.96
579.121	1251.65
579.319	971.08
579.516	1157.44
579.714	1237.31
579.912	1192.26
580.11	975.17
580.308	987.46
580.506	989.51
580.704	880.97
580.901	989.51
581.099	1067.33
581.297	913.74
581.495	932.17
581.692	874.82
581.89	989.51
582.088	880.97
582.285	876.87
582.483	801.1
582.681	864.58
582.878	905.54
583.076	876.87
583.274	862.54
583.471	985.41
583.669	852.3
583.866	655.69
584.064	708.94
584.262	698.7
584.459	684.36
584.657	768.33
584.854	772.43
585.052	827.72
585.249	704.84
585.447	692.55
585.644	534.86
585.841	827.72
586.039	684.36
586.236	797
586.434	618.83
586.631	590.16
586.828	665.93
587.026	774.47
587.223	586.06
587.42	629.07
587.618	663.88
587.815	743.75
588.012	600.4
588.21	647.5
588.407	602.44
588.604	700.75
588.801	467.28
588.999	577.87
589.196	633.16
589.393	510.29
589.59	579.92
589.787	579.92
589.984	588.11
590.182	526.67
590.379	477.52
590.576	495.95
590.773	600.4
590.97	512.33
591.167	676.17
591.364	588.11
591.561	534.86
591.758	604.49
591.955	616.78
592.152	502.09
592.349	418.13
592.546	452.94
592.743	452.94
592.94	489.81
593.137	545.1
593.334	579.92
593.531	553.29
593.727	553.29
593.924	579.92
594.121	510.29
594.318	530.77
594.515	620.88
594.712	616.78
594.908	678.22
595.105	522.57
595.302	577.87
595.499	567.63
595.696	657.74
595.892	518.48
596.089	663.88
596.286	565.58
596.482	805.19
596.679	676.17
596.876	575.82
597.072	768.33
597.269	710.99
597.466	743.75
597.662	702.79
597.859	661.84
598.055	710.99
598.252	809.29
598.448	829.77
598.645	833.86
598.841	915.78
599.038	1001.8
599.234	921.93
599.431	907.59
599.627	1018.18
599.824	1141.06
600.02	1034.57
600.217	1036.61
600.413	1169.73
600.609	1179.97
600.806	1442.11
601.002	1388.86
601.198	1280.32
601.395	1454.4
601.591	1440.06
601.787	1550.65
601.984	1685.82
602.18	1608
602.376	1644.86
602.572	1724.73
602.769	1777.98
602.965	1763.64
603.161	1995.06
603.357	1958.2
603.553	2218.29
603.75	2105.65
603.946	2117.94
604.142	2228.53
604.338	2414.9
604.534	2459.95
604.73	2394.42
604.926	2593.07
605.122	2750.76
605.318	2591.02
605.514	2871.59
605.71	2965.8
605.906	2912.55
606.102	3105.06
606.298	3377.44
606.494	3381.54
606.69	3477.79
606.886	3506.46
607.082	3569.95
607.278	3739.93
607.474	3836.19
607.67	3922.2
607.866	3942.68
608.062	4352.27
608.257	4270.36
608.453	4372.75
608.649	4546.83
608.845	4530.45
609.041	4698.38
609.236	4911.37
609.432	4972.81
609.628	5179.65
609.824	5107.98
610.019	5161.22
610.215	5560.58
610.411	5724.41
610.606	5976.31
610.802	5976.31
610.998	6125.82
611.193	6418.68
611.389	6467.83
611.584	6494.45
611.78	6660.34
611.976	7061.74
612.171	7303.4
612.367	7332.07
612.562	7385.32
612.758	7784.67
612.953	7737.57
613.149	8200.41
613.344	8276.18
613.539	8485.08
613.735	8743.12
613.93	8814.8
614.126	9117.9
614.321	9492.68
614.517	9664.71
614.712	9937.09
614.907	10184.89
615.103	10584.24
615.298	10614.96
615.493	10938.54
615.688	11131.05
615.884	11694.24
616.079	11770.02
616.274	12144.8
616.47	12378.26
616.665	12664.98
616.86	13023.37
617.055	13310.09
617.25	13789.31
617.445	14010.5
617.641	14213.24
617.836	14313.59
618.031	14829.68
618.226	15409.26
618.421	15812.71
618.616	16158.81
618.811	16304.22
619.006	16965.71
619.201	17082.45
619.396	17809.48
619.591	17625.16
619.786	18483.26
619.981	18624.57
620.176	19218.48
620.371	19390.51
620.566	20160.55
620.761	20271.14
620.956	20693.02
621.151	21071.89
621.346	21510.16
621.541	21653.51
621.735	22542.33
621.93	22566.91
622.125	23105.52
622.32	23638
622.515	24172.52
622.709	24530.91
622.904	25176.02
623.099	25513.94
623.294	25870.28
623.488	26200.01
623.683	26798.01
623.878	26648.51
624.072	27353.01
624.267	27959.21
624.462	28331.94
624.656	28653.47
624.851	29249.43
625.046	29505.43
625.24	30029.71
625.435	30168.97
625.629	30740.35
625.824	31121.27
626.018	31706.99
626.213	31457.14
626.407	32563.04
626.602	32366.44
626.796	33128.28
626.991	33253.21
627.185	33644.37
627.38	33421.14
627.574	33967.95
627.768	34033.49
627.963	34295.63
628.157	33955.66
628.352	34830.15
628.546	34240.33
628.74	35041.09
628.935	34348.87
629.129	34729.8
629.323	34279.24
629.517	34215.76
629.712	34228.04
629.906	33761.11
630.1	33410.9
630.294	33202.01
630.489	32626.53
630.683	32741.22
630.877	31588.21
631.071	31108.99
631.265	30670.72
631.459	30107.53
631.653	29689.74
631.848	28962.72
632.042	28098.47
632.236	27838.38
632.43	26996.67
632.624	26408.9
632.818	25442.26
633.012	24494.05
633.206	23830.51
633.4	23418.86
633.594	22523.9
633.788	21821.45
633.982	20895.77
634.176	20324.38
634.369	19402.8
634.563	18559.03
634.757	17842.25
634.951	17446.99
635.145	16756.82
635.339	16257.12
635.533	15622.25
635.726	15028.34
635.92	14168.19
636.114	13740.16
636.308	13213.84
636.501	12957.84
636.695	12040.35
636.889	11653.28
637.083	10967.21
637.276	10754.23
637.47	10320.06
637.664	9832.64
637.857	9369.8
638.051	9027.79
638.244	8863.95
638.438	8296.66
638.632	8122.59
638.825	7516.39
639.019	7489.76
639.212	7131.37
639.406	6924.52
639.599	6637.81
639.793	6355.19
639.986	6080.76
640.18	5828.86
640.373	5474.56
640.567	5312.77
640.76	5232.9
640.954	5130.5
641.147	4937.99
641.34	4616.46
641.534	4507.92
641.727	4512.02
641.92	4217.11
642.114	3971.35
642.307	3784.99
642.5	3825.95
642.694	3578.14
642.887	3387.68
643.08	3277.09
643.273	3193.12
643.467	3141.93
643.66	2787.63
643.853	2781.48
644.046	2783.53
644.239	2726.19
644.432	2443.57
644.626	2294.07
644.819	2316.59
645.012	2275.63
645.205	2210.1
645.398	2140.47
645.591	1833.27
645.784	1898.81
645.977	1827.13
646.17	1620.28
646.363	1714.49
646.556	1599.8
646.749	1528.13
646.942	1548.61
647.135	1456.45
647.328	1405.25
647.521	1460.54
647.714	1339.71
647.907	1403.2
648.099	1139.01
648.292	1235.27
648.485	1120.58
648.678	1036.61
648.871	1050.95
649.064	1009.99
649.256	911.69
649.449	913.74
649.642	817.48
649.835	823.62
650.027	829.77
650.22	930.12
650.413	774.47
650.605	807.24
650.798	780.62
650.991	708.94
651.183	698.7
651.376	753.99
651.568	813.38
651.761	555.34
651.954	647.5
652.146	584.01
652.339	649.55
652.531	696.65
652.724	481.61
652.916	543.05
653.109	383.31
653.301	584.01
653.494	567.63
653.686	502.09
653.879	549.2
654.071	485.71
654.263	411.98
654.456	411.98
654.648	432.46
654.84	430.41
655.033	354.64
655.225	489.81
655.417	313.68
655.61	436.56
655.802	389.46
655.994	516.43
656.186	276.82
656.379	457.04
656.571	266.58
656.763	307.54
656.955	305.49
657.148	250.19
657.34	389.46
657.532	297.3
657.724	293.2
657.916	297.3
658.108	344.4
658.3	295.25
658.492	282.96
658.684	182.61
658.876	330.06
659.068	217.43
659.26	164.18
659.452	231.76
659.644	223.57
659.836	295.25
660.028	260.43
660.22	151.89
660.412	221.52
660.604	158.03
660.796	201.04
660.988	205.14
661.18	178.51
661.372	178.51
661.563	131.41
661.755	170.32
661.947	63.83
662.139	207.19
662.331	178.51
662.522	170.32
662.714	69.97
662.906	186.71
663.097	207.19
663.289	184.66
663.481	61.78
663.673	186.71
663.864	135.51
664.056	194.9
664.247	137.56
664.439	69.97
664.631	123.22
664.822	207.19
665.014	145.75
665.205	133.46
665.397	121.17
665.588	147.8
665.78	192.85
665.971	178.51
666.163	76.12
666.354	205.14
666.546	45.4
666.737	158.03
666.929	106.84
667.12	74.07
667.311	151.89
667.503	108.88
667.694	172.37
667.885	172.37
668.077	190.8
668.268	18.77
668.459	115.03
668.651	133.46
668.842	84.31
669.033	24.92
669.224	57.68
669.416	399.7
669.607	59.73
669.798	59.73
669.989	293.2
670.18	98.64
670.371	139.6
670.563	82.26
670.754	213.33
670.945	192.85
671.136	170.32
671.327	80.21
671.518	242
671.709	225.62
671.9	131.41
672.091	315.73
672.282	227.67
672.473	112.98
672.664	110.93
672.855	104.79
673.046	158.03
673.237	215.38
673.428	78.16
673.619	242
673.809	51.54
674	201.04
674.191	135.51
674.382	88.4
674.573	115.03
674.764	76.12
674.954	217.43
675.145	76.12
675.336	-26.28
675.527	106.84
675.717	123.22
675.908	92.5
676.099	94.55
676.289	100.69
676.48	39.25
676.671	78.16
676.861	108.88
677.052	135.51
677.243	76.12
677.433	92.5
677.624	143.7
677.814	242
678.005	69.97
678.195	203.09
678.386	51.54
678.576	164.18
678.767	72.02
678.957	174.42
679.148	164.18
679.338	231.76
679.529	239.95
679.719	129.36
679.909	153.94
680.1	237.91
680.29	176.47
680.481	129.36
680.671	190.8
680.861	164.18
681.052	172.37
681.242	123.22
681.432	211.28
681.622	143.7
681.813	20.82
682.003	170.32
682.193	110.93
682.383	166.23
682.573	147.8
682.764	74.07
682.954	164.18
683.144	119.12
683.334	100.69
683.524	155.99
683.714	121.17
683.904	192.85
684.094	219.47
684.284	102.74
684.474	272.72
684.664	180.56
684.854	90.45
685.044	190.8
685.234	121.17
685.424	203.09
685.614	143.7
685.804	289.1
685.994	231.76
686.184	121.17
686.374	180.56
686.564	160.08
686.753	194.9
686.943	82.26
687.133	106.84
687.323	155.99
687.513	190.8
687.702	225.62
687.892	80.21
688.082	182.61
688.272	256.34
688.461	155.99
688.651	311.63
688.841	229.71
689.03	155.99
689.22	174.42
689.41	170.32
689.599	180.56
689.789	207.19
689.979	250.19
690.168	129.36
690.358	211.28
690.547	186.71
690.737	176.47
690.926	242
691.116	215.38
691.305	233.81
691.495	225.62
691.684	121.17
691.874	115.03
692.063	123.22
692.252	215.38
692.442	186.71
692.631	139.6
692.82	149.84
693.01	174.42
693.199	84.31
693.388	164.18
693.578	192.85
693.767	252.24
693.956	190.8
694.146	112.98
694.335	207.19
694.524	86.36
694.713	246.1
694.902	176.47
695.092	98.64
695.281	217.43
695.47	184.66
695.659	188.75
695.848	180.56
696.037	82.26
696.226	227.67
696.415	115.03
696.604	260.43
696.793	231.76
696.982	137.56
697.171	242
697.36	123.22
697.549	237.91
697.738	90.45
697.927	176.47
698.116	125.27
698.305	155.99
698.494	151.89
698.683	92.5
698.872	242
699.061	145.75
699.25	223.57
699.438	131.41
699.627	205.14
699.816	301.39
700.005	86.36
700.193	49.49
700.382	264.53
700.571	145.75
700.76	198.99
700.948	237.91
701.137	233.81
701.326	221.52
701.514	67.92
701.703	223.57
701.892	192.85
702.08	223.57
702.269	164.18
702.457	59.73
702.646	252.24
702.834	108.88
703.023	176.47
703.212	198.99
703.4	117.08
703.589	123.22
703.777	92.5
703.965	61.78
704.154	203.09
704.342	80.21
704.531	168.27
704.719	160.08
704.907	190.8
705.096	76.12
705.284	76.12
705.472	246.1
705.661	172.37
705.849	201.04
706.037	196.95
706.226	188.75
706.414	149.84
706.602	102.74
706.79	178.51
706.979	137.56
707.167	172.37
707.355	10.58
707.543	172.37
707.731	184.66
707.919	145.75
708.107	162.13
708.296	94.55
708.484	55.64
708.672	172.37
708.86	168.27
709.048	164.18
709.236	67.92
709.424	270.67
709.612	219.47
709.8	127.32
709.988	205.14
710.176	219.47
710.364	235.86
710.551	207.19
710.739	82.26
710.927	145.75
711.115	184.66
711.303	250.19
711.491	289.1
711.679	153.94
711.866	190.8
712.054	166.23
712.242	205.14
712.43	227.67
712.617	88.4
712.805	209.23
712.993	209.23
713.181	-9.9
713.368	190.8
713.556	166.23
713.744	55.64
713.931	315.73
714.119	217.43
714.306	174.42
714.494	188.75
714.682	168.27
714.869	80.21
715.057	170.32
715.244	115.03
715.432	242
715.619	112.98
715.807	172.37
715.994	143.7
716.182	192.85
716.369	170.32
716.556	201.04
716.744	49.49
716.931	104.79
717.119	235.86
717.306	127.32
717.493	229.71
717.681	147.8
717.868	94.55
718.055	235.86
718.242	196.95
718.43	217.43
718.617	242
718.804	117.08
718.991	285.01
719.179	244.05
719.366	235.86
719.553	203.09
719.74	166.23
719.927	168.27
720.114	264.53
720.301	115.03
720.488	106.84
720.676	151.89
720.863	213.33
721.05	223.57
721.237	274.77
721.424	278.87
721.611	242
721.798	90.45
721.985	180.56
722.172	153.94
722.358	201.04
722.545	221.52
722.732	260.43
722.919	344.4
723.106	190.8
723.293	178.51
723.48	231.76
723.667	172.37
723.853	264.53
724.04	213.33
724.227	209.23
724.414	160.08
724.6	297.3
724.787	346.45
724.974	379.22
725.161	153.94
725.347	160.08
725.534	274.77
725.72	223.57
725.907	266.58
726.094	272.72
726.28	219.47
726.467	268.63
726.653	119.12
726.84	358.74
727.027	362.83
727.213	313.68
727.4	280.91
727.586	268.63
727.773	184.66
727.959	190.8
728.145	209.23
728.332	278.87
728.518	149.84
728.705	358.74
728.891	289.1
729.077	231.76
729.264	196.95
729.45	180.56
729.636	270.67
729.823	266.58
730.009	373.07
730.195	262.48
730.382	231.76
730.568	106.84
730.754	287.06
730.94	258.39
731.126	207.19
731.313	248.15
731.499	309.58
731.685	321.87
731.871	319.82
732.057	246.1
732.243	297.3
732.429	274.77
732.615	368.98
732.801	299.34
732.987	299.34
733.173	151.89
733.359	201.04
733.545	285.01
733.731	166.23
733.917	348.5
734.103	219.47
734.289	311.63
734.475	260.43
734.661	373.07
734.847	309.58
735.033	203.09
735.219	321.87
735.404	254.29
735.59	168.27
735.776	248.15
735.962	291.15
736.148	346.45
736.333	303.44
736.519	252.24
736.705	387.41
736.89	217.43
737.076	282.96
737.262	256.34
737.447	231.76
737.633	276.82
737.819	289.1
738.004	176.47
738.19	233.81
738.375	289.1
738.561	346.45
738.747	260.43
738.932	180.56
739.118	377.17
739.303	403.79
739.489	268.63
739.674	280.91
739.859	287.06
740.045	371.02
740.23	229.71
740.416	141.65
740.601	244.05
740.786	272.72
740.972	266.58
741.157	285.01
741.342	213.33
741.528	192.85
741.713	278.87
741.898	289.1
742.084	246.1
742.269	287.06
742.454	323.92
742.639	358.74
742.824	258.39
743.01	305.49
743.195	405.84
743.38	297.3
743.565	264.53
743.75	278.87
743.935	381.26
744.12	362.83
744.305	176.47
744.49	190.8
744.675	305.49
744.86	215.38
745.045	315.73
745.23	323.92
745.415	233.81
745.6	383.31
745.785	262.48
745.97	325.97
746.155	391.5
746.34	340.3
746.525	235.86
746.71	350.54
746.895	190.8
747.079	194.9
747.264	147.8
747.449	313.68
747.634	305.49
747.819	256.34
748.003	246.1
748.188	149.84
748.373	291.15
748.557	280.91
748.742	282.96
748.927	237.91
749.111	293.2
749.296	252.24
749.481	385.36
749.665	268.63
749.85	201.04
750.034	274.77
750.219	278.87
750.404	239.95
750.588	264.53
750.773	252.24
750.957	289.1
751.141	276.82
751.326	264.53
751.51	143.7
751.695	213.33
751.879	242
752.064	377.17
752.248	239.95
752.432	387.41
752.617	325.97
752.801	260.43
752.985	225.62
753.17	336.21
753.354	274.77
753.538	276.82
753.722	184.66
753.907	254.29
754.091	166.23
754.275	229.71
754.459	139.6
754.643	117.08
754.828	129.36
755.012	237.91
755.196	139.6
755.38	201.04
755.564	227.67
755.748	164.18
755.932	194.9
756.116	282.96
756.3	231.76
756.484	98.64
756.668	258.39
756.852	158.03
757.036	239.95
757.22	235.86
757.404	174.42
757.588	100.69
757.772	295.25
757.956	170.32
758.14	346.45
758.323	155.99
758.507	190.8
758.691	115.03
758.875	256.34
759.059	362.83
759.242	229.71
759.426	139.6
759.61	190.8
759.794	141.65
759.977	264.53
760.161	350.54
760.345	219.47
760.528	219.47
760.712	182.61
760.895	239.95
761.079	96.6
761.263	69.97
761.446	76.12
761.63	168.27
761.813	274.77
761.997	65.88
762.18	160.08
762.364	131.41
762.547	115.03
762.731	143.7
762.914	155.99
763.098	84.31
763.281	121.17
763.464	119.12
763.648	213.33
763.831	151.89
764.015	88.4
764.198	174.42
764.381	112.98
764.564	119.12
764.748	160.08
764.931	166.23
765.114	125.27
765.297	215.38
765.481	53.59
765.664	117.08
765.847	117.08
766.03	278.87
766.213	84.31
766.397	96.6
766.58	84.31
766.763	172.37
766.946	121.17
767.129	182.61
767.312	86.36
767.495	155.99
767.678	31.06
767.861	115.03
768.044	139.6
768.227	51.54
768.41	143.7
768.593	231.76
768.776	82.26
768.959	162.13
769.142	266.58
769.324	86.36
769.507	94.55
769.69	106.84
769.873	155.99
770.056	301.39
770.239	151.89
770.421	239.95
770.604	135.51
770.787	176.47
770.97	88.4
771.152	80.21
771.335	41.3
771.518	112.98
771.7	266.58
771.883	158.03
772.066	86.36
772.248	129.36
772.431	211.28
772.613	92.5
772.796	96.6
772.978	209.23
773.161	207.19
773.343	117.08
773.526	143.7
773.708	12.63
773.891	22.87
774.073	129.36
774.256	76.12
774.438	242
774.621	18.77
774.803	110.93
774.985	35.16
775.168	125.27
775.35	137.56
775.532	194.9
775.715	78.16
775.897	131.41
776.079	33.11
776.261	98.64
776.444	-5.8
776.626	104.79
776.808	121.17
776.99	24.92
777.173	110.93
777.355	115.03
777.537	123.22
777.719	131.41
777.901	67.92
778.083	26.96
778.265	84.31
778.447	153.94
778.629	37.2
778.811	33.11
778.993	158.03
779.175	147.8
779.357	174.42
779.539	78.16
779.721	53.59
779.903	80.21
780.085	35.16
780.267	78.16
780.449	69.97
780.631	110.93
780.812	231.76
780.994	31.06
781.176	59.73
781.358	47.44
781.54	76.12
781.721	90.45
781.903	112.98
782.085	69.97
782.267	182.61
782.448	45.4
782.63	151.89
782.812	90.45
782.993	127.32
783.175	121.17
783.357	35.16
783.538	80.21
783.72	4.44
783.901	-26.28
784.083	135.51
784.264	110.93
784.446	-100.01
784.627	37.2
784.809	125.27
784.99	29.01
785.172	69.97
785.353	106.84
785.535	61.78
785.716	14.68
785.897	31.06
786.079	39.25
786.26	61.78
786.441	102.74
786.623	-48.81
786.804	4.44
786.985	92.5
787.167	100.69
787.348	69.97
787.529	37.2
787.71	137.56
787.891	112.98
788.073	-5.8
788.254	-30.38
788.435	194.9
788.616	-5.8
788.797	0.34
788.978	94.55
789.159	43.35
789.34	100.69
789.522	37.2
789.703	-54.95
789.884	43.35
790.065	-28.33
790.246	198.99
790.427	92.5
790.607	112.98
790.788	119.12
790.969	-26.28
791.15	149.84
791.331	2.39
791.512	49.49
791.693	51.54
791.874	-40.62
792.054	213.33
792.235	117.08
792.416	-83.63
792.597	-7.85
792.778	108.88
792.958	84.31
793.139	92.5
793.32	174.42
793.5	-11.95
793.681	164.18
793.862	92.5
794.042	67.92
794.223	-42.67
794.404	20.82
794.584	-73.39
794.765	78.16
794.945	63.83
795.126	72.02
795.306	133.46
795.487	49.49
795.667	16.73
795.848	80.21
796.028	61.78
796.209	0.34
796.389	59.73
796.57	18.77
796.75	-11.95
796.93	26.96
797.111	14.68
797.291	45.4
797.471	102.74
797.652	6.49
797.832	-26.28
798.012	100.69
798.192	41.3
798.373	-26.28
798.553	26.96
798.733	45.4
798.913	-61.1
799.093	31.06
799.274	82.26
799.454	49.49
799.634	104.79
799.814	84.31
799.994	94.55
800.174	33.11
800.354	2.39
800.534	-40.62
800.714	137.56
800.894	-11.95
801.074	-65.19
801.254	-1.71
801.434	162.13
801.614	26.96
801.794	-44.71
801.974	1859.9
802.154	57.68
802.334	78.16
802.514	-34.47
802.693	69.97
802.873	35.16
803.053	129.36
803.233	4.44
803.413	51.54
803.592	-9.9
803.772	-1.71
803.952	49.49
804.131	-54.95
804.311	16.73
804.491	102.74
804.67	10.58
804.85	-22.19
805.03	96.6
805.209	131.41
805.389	84.31
805.568	-26.28
805.748	45.4
805.928	57.68
806.107	84.31
806.287	106.84
806.466	106.84
806.646	20.82
806.825	35.16
807.004	-5.8
807.184	86.36
807.363	112.98
807.543	57.68
807.722	-16.04
807.901	76.12
808.081	108.88
808.26	-75.43
808.439	8.53
808.619	108.88
808.798	53.59
808.977	104.79
809.156	151.89
809.336	39.25
809.515	67.92
809.694	-26.28
809.873	59.73
810.052	84.31
810.231	139.6
810.411	37.2
810.59	108.88
810.769	2.39
810.948	131.41
811.127	-136.87
811.306	-54.95
811.485	-40.62
811.664	141.65
811.843	39.25
812.022	59.73
812.201	57.68
812.38	43.35
812.559	-7.85
812.737	76.12
812.916	-52.91
813.095	-28.33
813.274	67.92
813.453	10.58
813.632	76.12
813.811	151.89
813.989	-22.19
814.168	-38.57
814.347	-67.24
814.526	59.73
814.704	112.98
814.883	55.64
815.062	24.92
815.24	53.59
815.419	-22.19
815.598	43.35
815.776	-61.1
815.955	14.68
816.133	-134.82
816.312	24.92
816.49	14.68
816.669	14.68
816.847	2.39
817.026	78.16
817.204	10.58
817.383	-24.23
817.561	-11.95
817.74	33.11
817.918	16.73
818.097	-9.9
818.275	78.16
818.453	-16.04
818.632	74.07
818.81	-3.75
818.988	-57
819.167	-7.85
819.345	0.34
819.523	-5.8
819.701	67.92
819.879	63.83
820.058	6.49
820.236	72.02
820.414	33.11
820.592	-26.28
820.77	-42.67
820.948	-20.14
821.127	-7.85
821.305	82.26
821.483	-32.43
821.661	102.74
821.839	35.16
822.017	6.49
822.195	-3.75
822.373	100.69
822.551	53.59
822.729	102.74
822.907	-7.85
823.085	117.08
823.262	-44.71
823.44	-34.47
823.618	53.59
823.796	20.82
823.974	-26.28
824.152	-95.91
824.329	6.49
824.507	29.01
824.685	96.6
824.863	41.3
825.04	-30.38
825.218	102.74
825.396	20.82
825.574	78.16
825.751	72.02
825.929	72.02
826.107	-57
826.284	-9.9
826.462	35.16
826.639	-83.63
826.817	-46.76
826.994	65.88
827.172	-65.19
827.349	184.66
827.527	39.25
827.704	6.49
827.882	106.84
828.059	10.58
828.237	14.68
828.414	67.92
828.591	-138.92
828.769	-3.75
828.946	-69.29
829.124	57.68
829.301	119.12
829.478	18.77
829.655	137.56
829.833	69.97
830.01	-87.72
830.187	2.39
830.364	104.79
830.542	16.73
830.719	104.79
830.896	65.88
831.073	20.82
831.25	-13.99
831.427	127.32
831.604	-30.38
831.782	-75.43
831.959	37.2
832.136	-9.9
832.313	-9.9
832.49	-26.28
832.667	-1.71
832.844	-7.85
833.021	43.35
833.198	-28.33
833.374	45.4
833.551	80.21
833.728	-18.09
833.905	92.5
834.082	-83.63
834.259	123.22
834.436	145.75
834.612	-20.14
834.789	72.02
834.966	-11.95
835.143	82.26
835.319	-46.76
835.496	-16.04
835.673	26.96
835.85	72.02
836.026	31.06
836.203	119.12
836.38	63.83
836.556	47.44
836.733	-69.29
836.909	211.28
837.086	43.35
837.262	-104.11
837.439	-32.43
837.616	14.68
837.792	10.58
837.968	10.58
838.145	-85.67
838.321	72.02
838.498	-5.8
838.674	84.31
838.851	47.44
839.027	-100.01
839.203	-9.9
839.38	41.3
839.556	2.39
839.732	84.31
839.909	-50.86
840.085	39.25
840.261	24.92
840.437	94.55
840.614	14.68
840.79	117.08
840.966	108.88
841.142	-59.05
841.318	121.17
841.494	63.83
841.671	63.83
841.847	-18.09
842.023	-81.58
842.199	74.07
842.375	215.38
842.551	-91.82
842.727	-73.39
842.903	166.23
843.079	-30.38
843.255	-24.23
843.431	39.25
843.607	41.3
843.783	6.49
843.959	96.6
844.134	-38.57
844.31	168.27
844.486	-24.23
844.662	-83.63
844.838	-18.09
845.013	33.11
845.189	72.02
845.365	-73.39
845.541	-13.99
845.716	-48.81
845.892	41.3
846.068	-18.09
846.244	-38.57
846.419	33.11
846.595	-52.91
846.77	-11.95
846.946	63.83
847.122	41.3
847.297	20.82
847.473	149.84
847.648	-102.06
847.824	39.25
847.999	-40.62
848.175	24.92
848.35	65.88
848.526	117.08
848.701	115.03
848.876	69.97
849.052	61.78
849.227	35.16
849.403	39.25
849.578	35.16
849.753	-34.47
849.929	53.59
850.104	76.12
850.279	-3.75
850.454	67.92
850.63	80.21
850.805	43.35
850.98	43.35
851.155	43.35
851.33	69.97
851.505	-69.29
851.681	170.32
851.856	-11.95
852.031	69.97
852.206	45.4
852.381	-13.99
852.556	39.25
852.731	88.4
852.906	51.54
853.081	31.06
853.256	55.64
853.431	12.63
853.606	18.77
853.781	35.16
853.956	-120.49
854.131	39.25
854.305	-16.04
854.48	-11.95
854.655	37.2
854.83	-61.1
855.005	45.4
855.18	10.58
855.354	72.02
855.529	39.25
855.704	-71.34
855.879	47.44
856.053	-9.9
856.228	51.54
856.403	-50.86
856.577	59.73
856.752	-48.81
856.926	24.92
857.101	45.4
857.276	-65.19
857.45	108.88
857.625	31.06
857.799	29.01
857.974	59.73
858.148	-120.49
858.323	59.73
858.497	-32.43
858.672	-59.05
858.846	-20.14
859.02	82.26
859.195	-20.14
859.369	43.35
859.543	8.53
859.718	53.59
859.892	37.2
860.066	78.16
860.241	-75.43
860.415	-20.14
860.589	72.02
860.763	112.98
860.938	-13.99
861.112	45.4
861.286	-48.81
861.46	35.16
861.634	24.92
861.808	78.16
861.982	-52.91
862.157	2.39
862.331	-75.43
862.505	-9.9
862.679	-79.53
862.853	-69.29
863.027	-16.04
863.201	55.64
863.375	-7.85
863.549	29.01
863.722	69.97
863.896	112.98
864.07	-22.19
864.244	-38.57
864.418	117.08
864.592	14.68
864.766	18.77
864.939	82.26
865.113	47.44
865.287	117.08
865.461	-54.95
865.634	61.78
865.808	8.53
865.982	-34.47
866.156	2.39
866.329	-7.85
866.503	69.97
866.676	26.96
866.85	86.36
867.024	-38.57
867.197	74.07
867.371	76.12
867.544	119.12
867.718	-59.05
867.891	24.92
868.065	-112.3
868.238	59.73
868.412	51.54
868.585	72.02
868.759	-50.86
868.932	51.54
869.105	-93.87
869.279	-20.14
869.452	-61.1
869.625	-50.86
869.799	-30.38
869.972	-28.33
870.145	-46.76
870.319	63.83
870.492	2.39
870.665	-13.99
870.838	-79.53
871.011	-95.91
871.185	-16.04
871.358	-28.33
871.531	-32.43
871.704	-38.57
871.877	43.35
872.05	-26.28
872.223	-7.85
872.396	90.45
872.569	6.49
872.742	-24.23
872.915	29.01
873.088	20.82
873.261	-5.8
873.434	53.59
873.607	37.2
873.78	102.74
873.953	-50.86
874.126	-63.15
874.299	33.11
874.471	-42.67
874.644	-61.1
874.817	67.92
874.99	174.42
875.163	24.92
875.335	-7.85
875.508	29.01
875.681	143.7
875.853	-32.43
876.026	14.68
876.199	41.3
876.371	86.36
876.544	63.83
876.717	57.68
876.889	104.79
877.062	39.25
877.234	6.49
877.407	18.77
877.579	41.3
877.752	41.3
877.924	94.55
878.097	-18.09
878.269	82.26
878.442	29.01
878.614	84.31
878.786	-65.19
878.959	-22.19
879.131	16.73
879.303	-48.81
879.476	63.83
879.648	96.6
879.82	74.07
879.993	8.53
880.165	2.39
880.337	-40.62
880.509	65.88
880.681	16.73
880.854	-77.48
881.026	-18.09
881.198	135.51
881.37	74.07
881.542	-32.43
881.714	-83.63
881.886	20.82
882.058	49.49
882.23	-13.99
882.402	8.53
882.574	59.73
882.746	78.16
882.918	98.64
883.09	35.16
883.262	14.68
883.434	20.82
883.606	-97.96
883.778	55.64
883.95	76.12
884.122	69.97
884.293	84.31
884.465	-22.19
884.637	8.53
884.809	43.35
884.98	6.49
885.152	24.92
885.324	90.45
885.496	-57
885.667	-7.85
885.839	55.64
886.011	96.6
886.182	43.35
886.354	86.36
886.525	55.64
886.697	72.02
886.869	-32.43
887.04	-48.81
887.212	160.08
887.383	131.41
887.555	-30.38
887.726	55.64
887.897	29.01
888.069	51.54
888.24	61.78
888.412	4.44
888.583	4.44
888.754	78.16
888.926	6.49
889.097	-7.85
889.268	-26.28
889.44	98.64
889.611	-89.77
889.782	-71.34
889.953	-44.71
890.125	131.41
890.296	-87.72
890.467	80.21
890.638	-34.47
890.809	80.21
890.98	-91.82
891.151	6.49
891.323	112.98
891.494	80.21
891.665	49.49
891.836	55.64
892.007	-11.95
892.178	16.73
892.349	35.16
892.52	-5.8
892.691	16.73
892.862	18.77
893.032	-42.67
893.203	2.39
893.374	53.59
893.545	63.83
893.716	-50.86
893.887	31.06
894.057	-24.23
894.228	-9.9
894.399	4.44
894.57	76.12
894.74	8.53
894.911	24.92
895.082	59.73
895.253	-57
895.423	37.2
895.594	-36.52
895.764	59.73
895.935	-5.8
896.106	86.36
896.276	-59.05
896.447	51.54
896.617	-50.86
896.788	20.82
896.958	-89.77
897.129	-46.76
897.299	-18.09
897.47	137.56
897.64	41.3
897.81	-57
897.981	-11.95
898.151	-46.76
898.322	76.12
898.492	41.3
898.662	-73.39
898.832	-52.91
899.003	-28.33
899.173	72.02
899.343	-48.81
899.513	-147.11
