Data from USB4F104151__80__10-33-53-739.txt Node

Date: Wed Feb 26 10:33:53 EST 2025
User: louis
Spectrometer: USB4F10415
Trigger mode: 4
Integration Time (sec): 1.000000E-1
Scans to average: 1
Electric dark correction enabled: true
Nonlinearity correction enabled: false
Boxcar width: 0
XAxis mode: Wavelengths
Number of Pixels in Spectrum: 3648
>>>>>Begin Spectral Data<<<<<
178.204	-344.23
178.424	-344.23
178.644	-344.23
178.864	-350.37
179.084	-381.09
179.304	-43.18
179.524	18.26
179.744	-2.22
179.964	-12.46
180.184	100.18
180.404	20.31
180.624	-45.23
180.844	-41.13
181.064	-32.94
181.283	55.12
181.503	-39.08
181.723	22.36
181.943	-94.38
182.163	194.39
182.383	3.93
182.602	34.64
182.822	91.99
183.042	87.89
183.262	36.69
183.482	48.98
183.701	63.32
183.921	22.36
184.141	-37.03
184.361	114.52
184.58	-26.79
184.8	10.07
185.02	-26.79
185.239	100.18
185.459	67.41
185.679	79.7
185.898	-47.27
186.118	26.45
186.338	77.65
186.557	147.28
186.777	-6.31
186.997	-26.79
187.216	89.94
187.436	192.34
187.655	79.7
187.875	42.84
188.095	59.22
188.314	46.93
188.534	130.9
188.753	-26.79
188.973	132.95
189.192	190.29
189.412	73.56
189.631	-43.18
189.851	116.56
190.07	178
190.29	38.74
190.509	-65.71
190.729	36.69
190.948	16.21
191.168	229.2
191.387	73.56
191.607	18.26
191.826	22.36
192.045	91.99
192.265	26.45
192.484	135
192.704	75.6
192.923	-63.66
193.142	169.81
193.362	135
193.581	155.47
193.8	-18.6
194.02	55.12
194.239	81.75
194.458	157.52
194.678	-2.22
194.897	5.97
195.116	36.69
195.335	108.37
195.555	124.76
195.774	10.07
195.993	141.14
196.212	-20.65
196.432	55.12
196.651	40.79
196.87	22.36
197.089	292.69
197.308	48.98
197.528	3.93
197.747	-16.55
197.966	16.21
198.185	143.19
198.404	51.03
198.623	104.28
198.842	48.98
199.062	135
199.281	135
199.5	14.17
199.719	46.93
199.938	16.21
200.157	12.12
200.376	104.28
200.595	96.08
200.814	108.37
201.033	-34.99
201.252	200.53
201.471	83.8
201.69	91.99
201.909	55.12
202.128	38.74
202.347	51.03
202.566	-2.22
202.785	-63.66
203.004	-20.65
203.223	165.71
203.442	69.46
203.661	-30.89
203.879	26.45
204.098	79.7
204.317	-34.99
204.536	106.32
204.755	81.75
204.974	114.52
205.193	18.26
205.411	167.76
205.63	83.8
205.849	22.36
206.068	65.36
206.287	32.6
206.505	110.42
206.724	-20.65
206.943	-80.04
207.162	-30.89
207.381	163.67
207.599	5.97
207.818	34.64
208.037	-34.99
208.255	8.02
208.474	51.03
208.693	38.74
208.911	40.79
209.13	87.89
209.349	100.18
209.567	53.08
209.786	132.95
210.005	85.84
210.223	-20.65
210.442	-125.1
210.661	67.41
210.879	46.93
211.098	83.8
211.316	-4.27
211.535	159.57
211.753	42.84
211.972	135
212.191	18.26
212.409	26.45
212.628	59.22
212.846	-49.32
213.065	73.56
213.283	102.23
213.502	14.17
213.72	94.04
213.938	3.93
214.157	51.03
214.375	63.32
214.594	-37.03
214.812	100.18
215.031	-2.22
215.249	12.12
215.467	116.56
215.686	98.13
215.904	22.36
216.122	57.17
216.341	73.56
216.559	83.8
216.778	161.62
216.996	98.13
217.214	44.88
217.432	53.08
217.651	-80.04
217.869	36.69
218.087	8.02
218.306	1.88
218.524	79.7
218.742	14.17
218.96	38.74
219.179	1.88
219.397	28.5
219.615	253.78
219.833	53.08
220.051	-61.61
220.27	51.03
220.488	139.09
220.706	59.22
220.924	-69.8
221.142	1.88
221.36	104.28
221.578	89.94
221.796	-12.46
222.015	38.74
222.233	38.74
222.451	182.1
222.669	-32.94
222.887	85.84
223.105	118.61
223.323	-12.46
223.541	-22.7
223.759	36.69
223.977	91.99
224.195	239.44
224.413	175.95
224.631	8.02
224.849	26.45
225.067	192.34
225.285	-18.6
225.503	-12.46
225.721	-26.79
225.939	16.21
226.157	30.55
226.375	218.96
226.592	-47.27
226.81	81.75
227.028	96.08
227.246	91.99
227.464	77.65
227.682	116.56
227.9	57.17
228.117	24.4
228.335	48.98
228.553	34.64
228.771	10.07
228.989	73.56
229.206	79.7
229.424	-6.31
229.642	30.55
229.86	12.12
230.077	145.24
230.295	69.46
230.513	151.38
230.731	122.71
230.948	227.15
231.166	128.85
231.384	14.17
231.601	-32.94
231.819	186.19
232.037	57.17
232.254	-28.84
232.472	38.74
232.689	-10.41
232.907	173.91
233.125	12.12
233.342	-39.08
233.56	-4.27
233.777	34.64
233.995	51.03
234.213	143.19
234.43	61.27
234.648	22.36
234.865	65.36
235.083	79.7
235.3	71.51
235.518	106.32
235.735	122.71
235.953	40.79
236.17	18.26
236.388	75.6
236.605	34.64
236.822	118.61
237.04	135
237.257	53.08
237.475	-28.84
237.692	83.8
237.909	85.84
238.127	-2.22
238.344	118.61
238.562	67.41
238.779	-41.13
238.996	-22.7
239.214	-2.22
239.431	91.99
239.648	30.55
239.865	8.02
240.083	73.56
240.3	3.93
240.517	8.02
240.735	-0.17
240.952	112.47
241.169	67.41
241.386	85.84
241.603	26.45
241.821	-51.37
242.038	110.42
242.255	102.23
242.472	-6.31
242.689	106.32
242.907	102.23
243.124	28.5
243.341	87.89
243.558	24.4
243.775	-59.56
243.992	-86.19
244.209	34.64
244.426	149.33
244.643	8.02
244.86	-4.27
245.078	36.69
245.295	73.56
245.512	55.12
245.729	-10.41
245.946	16.21
246.163	57.17
246.38	8.02
246.597	12.12
246.814	63.32
247.031	-34.99
247.248	34.64
247.464	67.41
247.681	-10.41
247.898	40.79
248.115	51.03
248.332	44.88
248.549	118.61
248.766	61.27
248.983	96.08
249.2	102.23
249.417	114.52
249.633	-14.51
249.85	81.75
250.067	61.27
250.284	61.27
250.501	79.7
250.717	44.88
250.934	-43.18
251.151	28.5
251.368	-55.47
251.585	-12.46
251.801	75.6
252.018	-6.31
252.235	61.27
252.451	-82.09
252.668	14.17
252.885	149.33
253.102	89.94
253.318	-30.89
253.535	44.88
253.752	32.6
253.968	-80.04
254.185	-32.94
254.401	139.09
254.618	102.23
254.835	3.93
255.051	120.66
255.268	20.31
255.484	57.17
255.701	22.36
255.917	69.46
256.134	-14.51
256.351	55.12
256.567	-65.71
256.784	40.79
257	-37.03
257.217	46.93
257.433	118.61
257.65	-10.41
257.866	110.42
258.082	-28.84
258.299	-20.65
258.515	91.99
258.732	38.74
258.948	-55.47
259.165	46.93
259.381	-43.18
259.597	46.93
259.814	-10.41
260.03	-41.13
260.246	85.84
260.463	108.37
260.679	22.36
260.895	8.02
261.112	81.75
261.328	51.03
261.544	-82.09
261.761	225.11
261.977	-10.41
262.193	-16.55
262.409	114.52
262.626	57.17
262.842	22.36
263.058	65.36
263.274	128.85
263.49	79.7
263.707	44.88
263.923	102.23
264.139	-102.57
264.355	71.51
264.571	34.64
264.787	51.03
265.004	118.61
265.22	36.69
265.436	-22.7
265.652	36.69
265.868	-8.36
266.084	1.88
266.3	38.74
266.516	22.36
266.732	46.93
266.948	5.97
267.164	44.88
267.38	61.27
267.596	155.47
267.812	165.71
268.028	59.22
268.244	28.5
268.46	40.79
268.676	28.5
268.892	83.8
269.108	-73.9
269.324	-53.42
269.54	-32.94
269.756	40.79
269.972	-125.1
270.188	36.69
270.403	38.74
270.619	135
270.835	108.37
271.051	42.84
271.267	73.56
271.483	14.17
271.698	40.79
271.914	65.36
272.13	57.17
272.346	42.84
272.562	48.98
272.777	130.9
272.993	36.69
273.209	-51.37
273.425	73.56
273.64	1.88
273.856	126.8
274.072	59.22
274.287	-20.65
274.503	116.56
274.719	126.8
274.934	36.69
275.15	32.6
275.366	20.31
275.581	-90.28
275.797	-14.51
276.012	40.79
276.228	81.75
276.444	91.99
276.659	149.33
276.875	-73.9
277.09	59.22
277.306	-28.84
277.521	63.32
277.737	55.12
277.952	16.21
278.168	46.93
278.383	46.93
278.599	79.7
278.814	26.45
279.03	26.45
279.245	98.13
279.461	102.23
279.676	81.75
279.892	-45.23
280.107	-30.89
280.322	-20.65
280.538	91.99
280.753	-65.71
280.969	85.84
281.184	65.36
281.399	155.47
281.615	63.32
281.83	-8.36
282.045	-49.32
282.26	34.64
282.476	132.95
282.691	102.23
282.906	116.56
283.122	67.41
283.337	-32.94
283.552	114.52
283.767	-24.75
283.983	114.52
284.198	26.45
284.413	53.08
284.628	-45.23
284.843	34.64
285.058	71.51
285.274	-14.51
285.489	5.97
285.704	175.95
285.919	32.6
286.134	-8.36
286.349	71.51
286.564	12.12
286.779	94.04
286.995	57.17
287.21	-32.94
287.425	79.7
287.64	-18.6
287.855	32.6
288.07	-67.75
288.285	40.79
288.5	67.41
288.715	44.88
288.93	81.75
289.145	16.21
289.36	8.02
289.575	65.36
289.79	196.43
290.004	26.45
290.219	102.23
290.434	-34.99
290.649	-28.84
290.864	32.6
291.079	32.6
291.294	83.8
291.509	36.69
291.724	83.8
291.938	-6.31
292.153	32.6
292.368	87.89
292.583	-0.17
292.798	126.8
293.012	73.56
293.227	57.17
293.442	5.97
293.657	128.85
293.871	98.13
294.086	34.64
294.301	151.38
294.516	106.32
294.73	69.46
294.945	-32.94
295.16	65.36
295.374	94.04
295.589	96.08
295.804	10.07
296.018	75.6
296.233	157.52
296.447	63.32
296.662	10.07
296.877	192.34
297.091	18.26
297.306	-6.31
297.52	-4.27
297.735	67.41
297.949	63.32
298.164	112.47
298.378	38.74
298.593	1.88
298.807	-18.6
299.022	67.41
299.236	188.24
299.451	59.22
299.665	-12.46
299.88	34.64
300.094	12.12
300.309	-8.36
300.523	87.89
300.737	18.26
300.952	151.38
301.166	120.66
301.381	-39.08
301.595	89.94
301.809	69.46
302.024	22.36
302.238	-14.51
302.452	114.52
302.667	20.31
302.881	135
303.095	151.38
303.309	34.64
303.524	-14.51
303.738	3.93
303.952	-26.79
304.166	81.75
304.381	-123.05
304.595	159.57
304.809	-6.31
305.023	77.65
305.237	67.41
305.452	-16.55
305.666	75.6
305.88	102.23
306.094	108.37
306.308	114.52
306.522	83.8
306.736	28.5
306.95	102.23
307.164	-39.08
307.379	14.17
307.593	91.99
307.807	153.43
308.021	85.84
308.235	81.75
308.449	-86.19
308.663	28.5
308.877	175.95
309.091	34.64
309.305	104.28
309.519	-43.18
309.733	79.7
309.947	-28.84
310.161	61.27
310.374	91.99
310.588	151.38
310.802	14.17
311.016	98.13
311.23	14.17
311.444	1.88
311.658	38.74
311.872	143.19
312.085	75.6
312.299	186.19
312.513	122.71
312.727	30.55
312.941	14.17
313.154	44.88
313.368	135
313.582	51.03
313.796	42.84
314.009	79.7
314.223	67.41
314.437	-34.99
314.651	124.76
314.864	-41.13
315.078	-30.89
315.292	-39.08
315.505	-22.7
315.719	145.24
315.933	79.7
316.146	-26.79
316.36	28.5
316.573	128.85
316.787	126.8
317.001	73.56
317.214	-53.42
317.428	65.36
317.641	55.12
317.855	-26.79
318.068	57.17
318.282	53.08
318.495	231.25
318.709	67.41
318.922	51.03
319.136	143.19
319.349	28.5
319.563	69.46
319.776	75.6
319.99	-67.75
320.203	104.28
320.417	-4.27
320.63	91.99
320.843	163.67
321.057	36.69
321.27	28.5
321.483	81.75
321.697	161.62
321.91	34.64
322.124	112.47
322.337	114.52
322.55	10.07
322.763	32.6
322.977	10.07
323.19	18.26
323.403	59.22
323.617	53.08
323.83	112.47
324.043	-20.65
324.256	40.79
324.469	-39.08
324.683	32.6
324.896	-51.37
325.109	-16.55
325.322	-43.18
325.535	46.93
325.748	87.89
325.962	73.56
326.175	98.13
326.388	-20.65
326.601	196.43
326.814	-0.17
327.027	67.41
327.24	247.63
327.453	3.93
327.666	132.95
327.879	57.17
328.092	114.52
328.305	77.65
328.518	26.45
328.731	34.64
328.944	96.08
329.157	63.32
329.37	8.02
329.583	218.96
329.796	106.32
330.009	22.36
330.222	132.95
330.435	130.9
330.648	63.32
330.861	79.7
331.073	48.98
331.286	8.02
331.499	79.7
331.712	-34.99
331.925	73.56
332.138	16.21
332.35	75.6
332.563	-0.17
332.776	118.61
332.989	10.07
333.202	-4.27
333.414	85.84
333.627	-14.51
333.84	77.65
334.053	102.23
334.265	34.64
334.478	-12.46
334.691	51.03
334.903	36.69
335.116	-30.89
335.329	8.02
335.541	63.32
335.754	128.85
335.966	-47.27
336.179	12.12
336.392	5.97
336.604	24.4
336.817	120.66
337.029	48.98
337.242	83.8
337.454	112.47
337.667	32.6
337.88	186.19
338.092	44.88
338.305	55.12
338.517	61.27
338.729	81.75
338.942	122.71
339.154	-55.47
339.367	-22.7
339.579	85.84
339.792	5.97
340.004	94.04
340.217	3.93
340.429	77.65
340.641	-18.6
340.854	-49.32
341.066	30.55
341.278	165.71
341.491	188.24
341.703	1.88
341.915	-22.7
342.128	122.71
342.34	87.89
342.552	-49.32
342.764	57.17
342.977	20.31
343.189	155.47
343.401	5.97
343.613	-53.42
343.826	102.23
344.038	-2.22
344.25	-0.17
344.462	14.17
344.674	30.55
344.886	38.74
345.099	18.26
345.311	16.21
345.523	28.5
345.735	-47.27
345.947	110.42
346.159	83.8
346.371	16.21
346.583	12.12
346.795	139.09
347.007	-12.46
347.219	61.27
347.431	75.6
347.643	143.19
347.855	53.08
348.067	178
348.279	24.4
348.491	53.08
348.703	124.76
348.915	69.46
349.127	-12.46
349.339	59.22
349.551	22.36
349.763	175.95
349.975	3.93
350.187	110.42
350.399	116.56
350.61	120.66
350.822	-22.7
351.034	-8.36
351.246	38.74
351.458	75.6
351.669	110.42
351.881	145.24
352.093	83.8
352.305	106.32
352.517	28.5
352.728	132.95
352.94	98.13
353.152	100.18
353.363	-28.84
353.575	44.88
353.787	116.56
353.999	94.04
354.21	161.62
354.422	5.97
354.633	-16.55
354.845	36.69
355.057	34.64
355.268	22.36
355.48	126.8
355.692	-129.19
355.903	89.94
356.115	-6.31
356.326	-80.04
356.538	126.8
356.749	126.8
356.961	182.1
357.172	-2.22
357.384	-127.14
357.595	253.78
357.807	-0.17
358.018	-34.99
358.23	-14.51
358.441	161.62
358.653	106.32
358.864	63.32
359.075	3.93
359.287	-16.55
359.498	139.09
359.709	120.66
359.921	94.04
360.132	38.74
360.344	69.46
360.555	51.03
360.766	71.51
360.977	36.69
361.189	173.91
361.4	18.26
361.611	159.57
361.823	126.8
362.034	147.28
362.245	-86.19
362.456	38.74
362.667	130.9
362.879	-20.65
363.09	22.36
363.301	98.13
363.512	14.17
363.723	59.22
363.935	-67.75
364.146	149.33
364.357	-39.08
364.568	110.42
364.779	-61.61
364.99	110.42
365.201	59.22
365.412	147.28
365.623	5.97
365.834	61.27
366.045	53.08
366.256	118.61
366.467	104.28
366.678	55.12
366.889	77.65
367.1	8.02
367.311	91.99
367.522	-39.08
367.733	32.6
367.944	153.43
368.155	-20.65
368.366	91.99
368.577	145.24
368.788	89.94
368.999	14.17
369.209	48.98
369.42	212.82
369.631	214.87
369.842	87.89
370.053	24.4
370.264	57.17
370.474	46.93
370.685	61.27
370.896	65.36
371.107	89.94
371.317	141.14
371.528	-55.47
371.739	139.09
371.95	132.95
372.16	85.84
372.371	-12.46
372.582	1.88
372.792	116.56
373.003	32.6
373.214	75.6
373.424	67.41
373.635	-67.75
373.846	167.76
374.056	96.08
374.267	118.61
374.477	55.12
374.688	-49.32
374.898	69.46
375.109	106.32
375.319	-18.6
375.53	122.71
375.74	153.43
375.951	-8.36
376.161	137.04
376.372	96.08
376.582	36.69
376.793	122.71
377.003	53.08
377.214	1.88
377.424	120.66
377.635	75.6
377.845	44.88
378.055	102.23
378.266	-59.56
378.476	8.02
378.686	87.89
378.897	81.75
379.107	149.33
379.317	126.8
379.528	34.64
379.738	118.61
379.948	-104.62
380.158	67.41
380.369	18.26
380.579	34.64
380.789	77.65
380.999	118.61
381.21	110.42
381.42	175.95
381.63	65.36
381.84	73.56
382.05	135
382.261	141.14
382.471	102.23
382.681	-22.7
382.891	153.43
383.101	16.21
383.311	10.07
383.521	3.93
383.731	69.46
383.941	96.08
384.151	67.41
384.361	26.45
384.571	28.5
384.781	79.7
384.991	139.09
385.201	149.33
385.411	139.09
385.621	59.22
385.831	46.93
386.041	34.64
386.251	40.79
386.461	122.71
386.671	24.4
386.881	75.6
387.091	67.41
387.301	87.89
387.511	126.8
387.72	130.9
387.93	51.03
388.14	-51.37
388.35	77.65
388.56	81.75
388.769	89.94
388.979	59.22
389.189	-55.47
389.399	104.28
389.609	178
389.818	87.89
390.028	79.7
390.238	120.66
390.447	-28.84
390.657	69.46
390.867	71.51
391.076	-71.85
391.286	51.03
391.496	34.64
391.705	-6.31
391.915	120.66
392.125	116.56
392.334	-65.71
392.544	141.14
392.753	114.52
392.963	24.4
393.172	-16.55
393.382	-14.51
393.591	190.29
393.801	26.45
394.01	141.14
394.22	141.14
394.429	116.56
394.639	12.12
394.848	104.28
395.058	53.08
395.267	32.6
395.477	32.6
395.686	38.74
395.895	186.19
396.105	155.47
396.314	141.14
396.524	57.17
396.733	20.31
396.942	139.09
397.152	149.33
397.361	48.98
397.57	98.13
397.78	-4.27
397.989	130.9
398.198	196.43
398.407	8.02
398.617	46.93
398.826	30.55
399.035	53.08
399.244	83.8
399.453	116.56
399.663	40.79
399.872	-51.37
400.081	16.21
400.29	112.47
400.499	5.97
400.708	75.6
400.917	94.04
401.127	46.93
401.336	-0.17
401.545	200.53
401.754	132.95
401.963	-12.46
402.172	-53.42
402.381	-86.19
402.59	34.64
402.799	91.99
403.008	118.61
403.217	-2.22
403.426	75.6
403.635	-20.65
403.844	59.22
404.053	-4.27
404.262	71.51
404.471	178
404.68	38.74
404.888	53.08
405.097	122.71
405.306	53.08
405.515	151.38
405.724	28.5
405.933	116.56
406.142	42.84
406.35	163.67
406.559	-10.41
406.768	12.12
406.977	89.94
407.185	104.28
407.394	96.08
407.603	-32.94
407.812	83.8
408.02	112.47
408.229	112.47
408.438	44.88
408.646	-77.99
408.855	38.74
409.064	59.22
409.272	-2.22
409.481	44.88
409.69	30.55
409.898	79.7
410.107	34.64
410.315	79.7
410.524	-18.6
410.733	53.08
410.941	-47.27
411.15	63.32
411.358	96.08
411.567	175.95
411.775	67.41
411.984	73.56
412.192	161.62
412.401	30.55
412.609	130.9
412.818	120.66
413.026	91.99
413.234	16.21
413.443	85.84
413.651	-2.22
413.86	-2.22
414.068	143.19
414.276	159.57
414.485	55.12
414.693	147.28
414.901	192.34
415.11	147.28
415.318	71.51
415.526	104.28
415.734	65.36
415.943	46.93
416.151	98.13
416.359	24.4
416.567	-16.55
416.776	51.03
416.984	149.33
417.192	198.48
417.4	-75.95
417.608	71.51
417.817	12.12
418.025	77.65
418.233	102.23
418.441	16.21
418.649	-0.17
418.857	59.22
419.065	102.23
419.273	-41.13
419.481	30.55
419.689	48.98
419.897	3.93
420.105	3.93
420.313	135
420.521	98.13
420.729	202.58
420.937	38.74
421.145	-61.61
421.353	106.32
421.561	218.96
421.769	102.23
421.977	8.02
422.185	116.56
422.393	20.31
422.601	112.47
422.809	53.08
423.017	91.99
423.224	61.27
423.432	87.89
423.64	40.79
423.848	184.15
424.056	65.36
424.263	118.61
424.471	55.12
424.679	122.71
424.887	1.88
425.094	161.62
425.302	85.84
425.51	14.17
425.718	91.99
425.925	51.03
426.133	28.5
426.341	153.43
426.548	63.32
426.756	75.6
426.964	128.85
427.171	44.88
427.379	53.08
427.586	59.22
427.794	69.46
428.001	104.28
428.209	34.64
428.417	165.71
428.624	89.94
428.832	40.79
429.039	63.32
429.247	94.04
429.454	124.76
429.662	190.29
429.869	126.8
430.076	81.75
430.284	135
430.491	190.29
430.699	198.48
430.906	178
431.114	163.67
431.321	153.43
431.528	98.13
431.736	96.08
431.943	137.04
432.15	135
432.358	159.57
432.565	233.3
432.772	32.6
432.979	264.02
433.187	89.94
433.394	175.95
433.601	141.14
433.808	229.2
434.016	249.68
434.223	204.63
434.43	225.11
434.637	304.98
434.844	212.82
435.052	184.15
435.259	261.97
435.466	286.54
435.673	221.01
435.88	251.73
436.087	266.07
436.294	327.5
436.501	292.69
436.708	229.2
436.915	214.87
437.122	337.74
437.329	243.54
437.537	266.07
437.743	323.41
437.95	378.7
438.157	335.7
438.364	327.5
438.571	337.74
438.778	345.94
438.985	421.71
439.192	456.53
439.399	345.94
439.606	507.73
439.813	464.72
440.02	636.75
440.227	530.25
440.433	440.14
440.64	425.81
440.847	388.94
441.054	567.12
441.261	644.94
441.467	489.29
441.674	552.78
441.881	675.66
442.088	579.4
442.294	677.71
442.501	702.28
442.708	720.71
442.914	663.37
443.121	771.91
443.328	696.14
443.534	771.91
443.741	681.8
443.948	657.23
444.154	950.09
444.361	984.9
444.568	876.36
444.774	859.98
444.981	839.5
445.187	1079.11
445.394	1075.01
445.6	1056.58
445.807	1238.85
446.013	1122.12
446.22	1101.64
446.426	1195.84
446.633	1292.1
446.839	1546.05
447.046	1105.73
447.252	1480.51
447.459	1419.07
447.665	1486.65
447.871	1548.09
448.078	1828.67
448.284	1670.97
448.491	1781.56
448.697	1902.39
448.903	1888.06
449.11	1922.87
449.316	1863.48
449.522	2101.05
449.728	2189.11
449.935	2342.71
450.141	2201.4
450.347	2432.82
450.553	2463.54
450.76	2479.92
450.966	2543.41
451.172	2615.09
451.378	2854.7
451.584	2809.64
451.791	3090.21
451.997	3143.46
452.203	3182.37
452.409	3258.15
452.615	3526.43
452.821	3428.13
453.027	3434.27
453.233	3952.41
453.44	3745.56
453.646	4024.09
453.852	4140.82
454.058	4255.51
454.264	4417.3
454.47	4720.4
454.676	4796.17
454.882	5162.76
455.088	4919.05
455.294	5144.33
455.5	5768.96
455.705	5818.11
455.911	5895.93
456.117	6004.47
456.323	6373.11
456.529	6264.57
456.735	6872.81
456.941	6997.74
457.147	7284.45
457.352	7485.16
457.558	7841.5
457.764	8081.11
457.97	8347.35
458.176	8830.67
458.381	9176.78
458.587	9490.12
458.793	9586.37
458.999	9647.81
459.204	11056.81
459.41	11435.69
459.616	11060.91
459.821	11744.93
460.027	12306.07
460.233	12828.31
460.438	13053.58
460.644	13762.18
460.85	13739.65
461.055	14345.85
461.261	15095.41
461.466	14769.78
461.672	14900.85
461.878	16537.18
462.083	16709.21
462.289	16760.41
462.494	17608.26
462.7	17784.39
462.905	17931.84
463.111	19498.54
463.316	20534.81
463.522	20450.85
463.727	21362.19
463.932	22418.94
464.138	23084.53
464.343	23645.68
464.549	23918.06
464.754	25902.54
464.959	26303.94
465.165	26774.97
465.37	26541.5
465.575	26658.24
465.781	28317.09
465.986	29080.99
466.191	28458.4
466.397	28878.24
466.602	28513.7
466.807	29769.1
467.012	30152.07
467.218	31090.04
467.423	30926.21
467.628	31829.36
467.833	33232.22
468.038	32566.63
468.244	31817.07
468.449	33447.25
468.654	32847.2
468.859	32791.9
469.064	32793.95
469.269	32316.78
469.474	32273.77
469.679	33178.97
469.885	32466.28
470.09	32632.16
470.295	32902.5
470.5	32040.3
470.705	32079.21
470.91	31550.84
471.115	31139.19
471.32	31620.47
471.525	31376.76
471.73	30379.4
471.935	30328.2
472.139	29097.37
472.344	28824.99
472.549	28734.88
472.754	27954.6
472.959	27903.4
473.164	26518.98
473.369	26090.95
473.574	26772.92
473.778	26416.58
473.983	26011.08
474.188	25576.91
474.393	24079.85
474.598	23918.06
474.802	23598.57
475.007	23438.83
475.212	23051.77
475.417	21970.44
475.621	21937.67
475.826	21911.05
476.031	21384.72
476.235	20688.41
476.44	20586.01
476.645	20229.66
476.849	20200.99
477.054	19578.41
477.259	19160.62
477.463	19174.96
477.668	18562.62
477.872	18722.36
478.077	18087.49
478.282	17495.63
478.486	17555.02
478.691	17131.09
478.895	17155.66
479.1	17010.26
479.304	17073.74
479.509	16447.07
479.713	16756.31
479.918	16213.6
480.122	15775.33
480.326	16029.28
480.531	16090.72
480.735	15797.86
480.94	15523.43
481.144	16158.3
481.348	15087.22
481.553	15548.01
481.757	14665.33
481.961	15031.92
482.166	15005.3
482.37	14964.34
482.574	14587.51
482.778	14446.2
482.983	14913.14
483.187	14515.83
483.391	14499.45
483.595	14145.15
483.8	14012.03
484.004	13991.55
484.208	14120.57
484.412	13950.59
484.616	13764.23
484.821	13403.78
485.025	13000.33
485.229	13137.55
485.433	12859.03
485.637	12736.15
485.841	12439.19
486.045	12547.73
486.249	12369.56
486.453	12177.05
486.657	11966.11
486.861	11574.95
487.065	11388.58
487.269	11468.45
487.473	10917.55
487.677	11124.4
487.881	11022
488.085	10749.62
488.289	10655.41
488.493	10167.99
488.697	10276.54
488.901	10110.65
489.105	9623.23
489.309	9524.93
489.512	9551.56
489.716	9381.57
489.92	9074.38
490.124	9088.71
490.328	9080.52
490.531	8611.54
490.735	8611.54
490.939	8341.21
491.143	8423.12
491.346	8144.6
491.55	8066.78
491.754	7900.89
491.958	7812.83
492.161	7608.03
492.365	7472.87
492.569	7300.84
492.772	7323.37
492.976	7108.33
493.18	7087.85
493.383	7175.91
493.587	6885.1
493.79	6885.1
493.994	6596.34
494.197	6700.78
494.401	6840.04
494.605	6534.9
494.808	6690.54
495.012	6612.72
495.215	6487.79
495.419	6493.94
495.622	6350.58
495.825	6205.17
496.029	6213.37
496.232	6491.89
496.436	6285.05
496.639	6201.08
496.843	6287.09
497.046	6305.53
497.249	6383.35
497.453	6143.74
497.656	6305.53
497.859	6115.06
498.063	6182.65
498.266	6317.81
498.469	6172.41
498.673	6156.02
498.876	6418.16
499.079	6389.49
499.282	6418.16
499.485	6479.6
499.689	6412.02
499.892	6520.56
500.095	6469.36
500.298	6536.95
500.501	6350.58
500.705	6665.97
500.908	6592.24
501.111	6821.61
501.314	6803.18
501.517	7034.6
501.72	6977.26
501.923	7001.83
502.126	7077.61
502.329	7311.08
502.532	7321.32
502.735	7356.13
502.938	7595.75
503.141	7524.07
503.344	7571.17
503.547	7628.51
503.75	7694.05
503.953	7923.42
504.156	8017.63
504.359	7952.09
504.562	8087.26
504.765	8371.93
504.968	8503
505.17	8695.5
505.373	8885.97
505.576	9055.95
505.779	8986.32
505.982	8916.69
506.185	9238.22
506.387	9244.36
506.59	9625.28
506.793	9782.98
506.996	9825.98
507.198	10331.83
507.401	10399.41
507.604	10389.17
507.807	10829.49
508.009	11167.4
508.212	11171.5
508.415	11630.24
508.617	11577
508.82	11884.19
509.022	11896.48
509.225	12195.48
509.428	12574.36
509.63	12715.67
509.833	12756.63
510.035	13401.74
510.238	13651.59
510.44	13766.28
510.643	14509.69
510.845	14616.18
511.048	14632.57
511.25	15210.09
511.453	15486.57
511.655	16158.3
511.858	16277.08
512.06	16864.85
512.262	16932.43
512.465	17126.99
512.667	17727.05
512.87	18017.86
513.072	18429.5
513.274	18791.99
513.477	19328.56
513.679	19693.1
513.881	20325.92
514.084	20897.3
514.286	21194.26
514.488	21679.63
514.69	22339.07
514.893	22423.04
515.095	22992.37
515.297	23596.53
515.499	24036.84
515.701	24688.09
515.904	25062.87
516.106	25587.15
516.308	26025.42
516.51	26691.01
516.712	26691.01
516.914	27934.12
517.116	27989.42
517.318	28906.91
517.52	29263.25
517.722	29871.5
517.925	30246.28
518.127	30891.39
518.329	31616.37
518.531	31671.67
518.733	32238.95
518.935	32845.15
519.136	33226.07
519.338	34153.8
519.54	34667.84
519.742	34946.37
519.944	35474.74
520.146	36617.51
520.348	36252.97
520.55	36939.04
520.752	37330.2
520.954	37823.76
521.155	37758.23
521.357	39060.74
521.559	39509.24
521.761	40148.21
521.963	39615.74
522.164	40340.72
522.366	40991.97
522.568	41293.02
522.77	41426.14
522.971	42548.43
523.173	42347.73
523.375	42194.13
523.576	42724.55
523.778	42400.97
523.98	42986.69
524.181	43148.48
524.383	43207.87
524.584	43787.45
524.786	43730.11
524.988	43435.2
525.189	43900.09
525.391	43875.51
525.592	44154.04
525.794	44108.98
525.995	43814.07
526.197	44004.53
526.398	43478.21
526.6	43580.6
526.801	43740.35
527.003	43494.59
527.204	43496.64
527.406	43744.44
527.607	42927.3
527.808	43373.76
528.01	42360.01
528.211	42228.94
528.412	42470.61
528.614	42155.22
528.815	42030.29
529.016	41635.03
529.218	41026.79
529.419	40889.57
529.62	40236.27
529.822	40172.78
530.023	39711.99
530.224	39623.93
530.425	38972.67
530.626	38337.8
530.828	37877.01
531.029	38524.17
531.23	37408.03
531.431	36904.23
531.632	36969.76
531.833	36173.1
532.035	36027.7
532.236	35507.51
532.437	35259.71
532.638	34671.94
532.839	34037.07
533.04	33822.03
533.241	32925.02
533.442	33373.53
533.643	32689.51
533.844	32230.76
534.045	31882.61
534.246	31272.31
534.447	30938.49
534.648	30295.43
534.849	30008.72
535.05	29535.63
535.251	29459.86
535.451	29132.18
535.652	29064.6
535.853	28042.67
536.054	27899.31
536.255	27295.16
536.456	26865.08
536.657	26871.23
536.857	26312.13
537.058	25818.57
537.259	25968.07
537.46	25556.43
537.66	25075.16
537.861	24763.87
538.062	23977.45
538.263	23959.02
538.463	23475.7
538.664	23338.48
538.865	23371.25
539.065	23428.59
539.266	22627.84
539.466	22697.47
539.667	21859.85
539.868	21952.01
540.068	21679.63
540.269	21184.02
540.469	21087.76
540.67	20758.04
540.87	20639.26
541.071	20168.23
541.271	20237.86
541.472	20375.07
541.672	19746.34
541.873	19322.41
542.073	18929.2
542.274	18935.35
542.474	18871.86
542.675	18245.18
542.875	18476.6
543.075	17794.63
543.276	17626.7
543.476	17815.11
543.676	17475.15
543.877	17358.41
544.077	17278.54
544.277	16877.14
544.478	16848.47
544.678	16752.21
544.878	16563.8
545.078	16238.17
545.279	15820.39
545.479	15752.8
545.679	15578.73
545.879	15449.71
546.079	15375.98
546.28	15040.11
546.48	14603.89
546.68	14710.39
546.88	14659.19
547.08	14349.95
547.28	14163.58
547.48	14061.18
547.68	14034.56
547.88	13608.58
548.081	13657.73
548.281	13358.73
548.481	13160.08
548.681	13069.97
548.881	13008.53
549.081	12801.68
549.28	12615.32
549.48	12506.77
549.68	12490.39
549.88	12082.84
550.08	11781.79
550.28	11857.57
550.48	11759.27
550.68	11652.77
550.88	11146.92
551.08	11040.43
551.279	11054.76
551.479	10593.97
551.679	10864.3
551.879	10493.62
552.079	10342.07
552.278	10024.64
552.478	10059.45
552.678	9817.79
552.878	9676.48
553.077	9514.69
553.277	9461.44
553.477	9258.7
553.676	9248.46
553.876	8941.26
554.076	8873.68
554.275	8603.35
554.475	8548.05
554.674	8527.57
554.874	8292.05
555.074	8247
555.273	8077.02
555.473	7984.86
555.672	7763.68
555.872	7585.51
556.071	7487.2
556.271	7558.88
556.47	7079.66
556.67	7030.51
556.869	6926.06
557.068	6784.75
557.268	6852.33
557.467	6842.09
557.667	6942.44
557.866	6371.06
558.065	6328.05
558.265	6131.45
558.464	6235.89
558.663	6233.85
558.863	5820.16
559.062	5924.6
559.261	5891.84
559.461	5832.44
559.66	5670.65
559.859	5558.02
560.058	5353.22
560.258	5181.19
560.457	5226.25
560.656	5299.97
560.855	4966.15
561.054	5076.74
561.253	4957.96
561.453	4996.87
561.652	4882.19
561.851	4630.29
562.05	4587.28
562.249	4380.43
562.448	4491.02
562.647	4454.16
562.846	4314.9
563.045	4427.54
563.244	4075.29
563.443	4271.89
563.642	4136.73
563.841	4071.19
564.04	4036.38
564.239	3960.6
564.438	3962.65
564.637	3751.71
564.836	3809.05
565.035	3632.93
565.234	3671.84
565.432	3725.08
565.631	3413.79
565.83	3610.4
566.029	3421.99
566.228	3360.55
566.427	3530.53
566.625	3249.96
566.824	3215.14
567.023	3178.28
567.222	3096.36
567.42	3082.02
567.619	3069.73
567.818	3006.25
568.016	3112.74
568.215	2928.42
568.414	2918.18
568.612	2811.69
568.811	2731.82
569.01	2813.74
569.208	2674.48
569.407	2582.32
569.605	2752.3
569.804	2602.8
570.002	2520.88
570.201	2447.15
570.4	2531.12
570.598	2352.95
570.797	2416.43
570.995	2295.6
571.193	2240.31
571.392	2342.71
571.59	2133.81
571.789	2307.89
571.987	2133.81
572.186	2228.02
572.384	2129.72
572.582	1992.5
572.781	2068.28
572.979	1943.35
573.177	1849.15
573.376	1908.54
573.574	1988.41
573.772	1869.62
573.971	1875.77
574.169	1662.78
574.367	1855.29
574.565	1718.08
574.763	1711.93
574.962	1767.23
575.16	1673.02
575.358	1529.66
575.556	1613.63
575.754	1619.77
575.952	1566.53
576.151	1582.91
576.349	1525.57
576.547	1437.5
576.745	1601.34
576.943	1527.61
577.141	1435.46
577.339	1283.91
577.537	1402.69
577.735	1544
577.933	1472.32
578.131	1259.33
578.329	1412.93
578.527	1261.38
578.725	1328.96
578.923	1048.39
579.121	1279.81
579.319	997.19
579.516	1161.03
579.714	1417.02
579.912	1212.23
580.11	1099.59
580.308	1072.96
580.506	1058.63
580.704	1003.33
580.901	1089.35
581.099	1064.77
581.297	1042.25
581.495	1025.86
581.692	956.23
581.89	1015.62
582.088	1032.01
582.285	1009.48
582.483	921.42
582.681	999.24
582.878	948.04
583.076	972.61
583.274	913.22
583.471	1034.05
583.669	892.74
583.866	812.87
584.064	821.06
584.262	819.02
584.459	782.15
584.657	831.3
584.854	950.09
585.052	868.17
585.249	720.71
585.447	827.21
585.644	692.04
585.841	839.5
586.039	702.28
586.236	751.43
586.434	673.61
586.631	642.89
586.828	589.64
587.026	694.09
587.223	661.32
587.42	610.12
587.618	626.51
587.815	769.87
588.012	565.07
588.21	591.69
588.407	728.91
588.604	624.46
588.801	560.97
588.999	616.27
589.196	679.75
589.393	442.19
589.59	649.04
589.787	644.94
589.984	608.08
590.182	671.56
590.379	491.34
590.576	573.26
590.773	538.45
590.97	624.46
591.167	616.27
591.364	632.65
591.561	538.45
591.758	683.85
591.955	606.03
592.152	511.82
592.349	513.87
592.546	567.12
592.743	456.53
592.94	548.68
593.137	556.88
593.334	552.78
593.531	595.79
593.727	640.84
593.924	517.97
594.121	565.07
594.318	507.73
594.515	589.64
594.712	667.47
594.908	644.94
595.105	462.67
595.302	669.52
595.499	595.79
595.696	776.01
595.892	505.68
596.089	724.81
596.286	583.5
596.482	704.33
596.679	655.18
596.876	640.84
597.072	823.11
597.269	685.9
597.466	753.48
597.662	821.06
597.859	673.61
598.055	771.91
598.252	810.82
598.448	845.64
598.645	978.76
598.841	972.61
599.038	1040.2
599.234	1058.63
599.431	1056.58
599.627	1062.73
599.824	1142.6
600.02	1144.64
600.217	1130.31
600.413	1281.86
600.609	1290.05
600.806	1644.35
601.002	1439.55
601.198	1382.21
601.395	1517.37
601.591	1564.48
601.787	1623.87
601.984	1605.44
602.18	1679.16
602.376	1691.45
602.572	2000.69
602.769	1963.83
602.965	1986.36
603.161	2096.95
603.357	2109.24
603.553	2187.06
603.75	2258.74
603.946	2326.32
604.142	2402.1
604.338	2654
604.534	2594.61
604.73	2674.48
604.926	2715.44
605.122	2883.37
605.318	2832.17
605.514	3116.84
605.71	3094.31
605.906	3129.13
606.102	3219.24
606.298	3471.14
606.494	3585.82
606.69	3643.17
606.886	3710.75
607.082	3774.24
607.278	3837.72
607.474	4015.9
607.67	4140.82
607.866	4173.59
608.062	4384.53
608.257	4574.99
608.453	4525.84
608.649	4661.01
608.845	4685.58
609.041	4798.22
609.236	5084.94
609.432	5236.49
609.628	5199.62
609.824	5609.22
610.019	5588.74
610.215	5930.75
610.411	5938.94
610.606	6164.22
610.802	6170.36
610.998	6549.23
611.193	6631.15
611.389	6547.19
611.584	6991.59
611.78	6993.64
611.976	7268.07
612.171	7532.26
612.367	7792.35
612.562	7786.21
612.758	7984.86
612.953	8144.6
613.149	8398.55
613.344	8623.83
613.539	8840.91
613.735	9182.92
613.93	9389.77
614.126	9584.32
614.321	10004.16
614.517	10141.37
614.712	10237.63
614.907	10692.27
615.103	10895.02
615.298	10995.37
615.493	11447.97
615.688	11552.42
615.884	12160.67
616.079	11923.1
616.274	12711.57
616.47	12930.7
616.665	13317.77
616.86	13491.85
617.055	13854.34
617.25	14186.11
617.445	14780.02
617.641	14769.78
617.836	15279.72
618.031	15484.52
618.226	16086.62
618.421	16299.61
618.616	16598.62
618.811	16901.72
619.006	17413.71
619.201	17632.84
619.396	18415.16
619.591	18308.67
619.786	19144.24
619.981	19330.61
620.176	19785.26
620.371	19930.66
620.566	20784.66
620.761	20950.55
620.956	21693.96
621.151	21835.27
621.346	22339.07
621.541	22324.74
621.735	23457.26
621.93	23150.07
622.125	23985.64
622.32	24194.53
622.515	25007.58
622.709	25226.71
622.904	25701.84
623.099	26168.77
623.294	26604.99
623.488	26920.38
623.683	27452.85
623.878	27366.84
624.072	28458.4
624.267	28829.09
624.462	29115.8
624.656	29463.96
624.851	30236.04
625.046	30367.11
625.24	30903.68
625.435	31047.04
625.629	31411.57
625.824	32171.37
626.018	32230.76
626.213	32451.94
626.407	33328.47
626.602	33107.29
626.796	33713.49
626.991	34008.4
627.185	34174.28
627.38	34145.61
627.574	34168.14
627.768	34630.98
627.963	34803.01
628.157	34626.88
628.352	35024.19
628.546	34788.67
628.74	35194.17
628.935	34585.93
629.129	35020.09
629.323	34258.25
629.517	34237.77
629.712	34258.25
629.906	33834.32
630.1	33119.58
630.294	33121.63
630.489	32271.72
630.683	32126.32
630.877	31319.42
631.071	30590.34
631.265	30344.58
631.459	29613.46
631.653	28738.97
631.848	28210.6
632.042	27233.72
632.236	27053.5
632.43	25720.27
632.624	25089.49
632.818	24626.65
633.012	23647.72
633.206	22986.23
633.4	22054.4
633.594	21282.32
633.788	20739.61
633.982	19893.8
634.176	19033.65
634.369	18378.3
634.563	17774.15
634.757	17028.69
634.951	16514.65
635.145	15982.18
635.339	14921.33
635.533	14497.4
635.726	13946.5
635.92	13141.64
636.114	13031.05
636.308	12179.1
636.501	11945.63
636.695	11482.79
636.889	10733.23
637.083	10460.85
637.276	9848.51
637.47	9590.47
637.664	9154.25
637.857	8779.47
638.051	8392.41
638.244	8052.44
638.438	7800.54
638.632	7530.21
638.825	6913.77
639.019	7055.08
639.212	6641.39
639.406	6489.84
639.599	6102.78
639.793	5936.89
639.986	5539.58
640.18	5504.77
640.373	5248.77
640.567	4939.53
640.76	4980.49
640.954	4757.26
641.147	4452.11
641.34	4364.05
641.534	4175.64
641.727	3913.5
641.92	3872.54
642.114	3768.09
642.307	3551.01
642.5	3440.42
642.694	3229.48
642.887	3204.9
643.08	3094.31
643.273	3022.63
643.467	2821.93
643.66	2697
643.853	2537.26
644.046	2455.34
644.239	2418.48
644.432	2379.57
644.626	2174.77
644.819	2133.81
645.012	2004.79
645.205	2068.28
645.398	2066.23
645.591	1972.02
645.784	1750.84
645.977	1646.4
646.17	1617.72
646.363	1582.91
646.556	1455.94
646.749	1251.14
646.942	1412.93
647.135	1414.98
647.328	1318.72
647.521	1220.42
647.714	1222.47
647.907	1267.52
648.099	1050.44
648.292	1054.53
648.485	1113.92
648.678	952.13
648.871	960.33
649.064	960.33
649.256	812.87
649.449	855.88
649.642	823.11
649.835	730.95
650.027	790.35
650.22	778.06
650.413	667.47
650.605	749.39
650.798	739.15
650.991	595.79
651.183	667.47
651.376	708.43
651.568	636.75
651.761	487.25
651.954	669.52
652.146	491.34
652.339	587.6
652.531	548.68
652.724	423.76
652.916	390.99
653.109	323.41
653.301	563.02
653.494	536.4
653.686	456.53
653.879	493.39
654.071	479.05
654.263	382.8
654.456	423.76
654.648	468.81
654.84	493.39
655.033	270.16
655.225	487.25
655.417	243.54
655.61	399.18
655.802	319.31
655.994	427.85
656.186	198.48
656.379	429.9
656.571	282.45
656.763	304.98
656.955	173.91
657.148	169.81
657.34	327.5
657.532	245.59
657.724	304.98
657.916	282.45
658.108	329.55
658.3	282.45
658.492	272.21
658.684	180.05
658.876	325.46
659.068	167.76
659.26	186.19
659.452	98.13
659.644	204.63
659.836	358.22
660.028	259.92
660.22	145.24
660.412	216.91
660.604	167.76
660.796	218.96
660.988	216.91
661.18	276.31
661.372	278.35
661.563	259.92
661.755	261.97
661.947	126.8
662.139	141.14
662.331	126.8
662.522	190.29
662.714	112.47
662.906	108.37
663.097	165.71
663.289	63.32
663.481	12.12
663.673	171.86
663.864	63.32
664.056	145.24
664.247	104.28
664.439	178
664.631	130.9
664.822	132.95
665.014	169.81
665.205	83.8
665.397	79.7
665.588	188.24
665.78	135
665.971	175.95
666.163	63.32
666.354	196.43
666.546	-10.41
666.737	141.14
666.929	104.28
667.12	126.8
667.311	194.39
667.503	67.41
667.694	161.62
667.885	178
668.077	212.82
668.268	122.71
668.459	161.62
668.651	91.99
668.842	157.52
669.033	38.74
669.224	65.36
669.416	325.46
669.607	96.08
669.798	-6.31
669.989	221.01
670.18	46.93
670.371	237.39
670.563	63.32
670.754	214.87
670.945	218.96
671.136	169.81
671.327	46.93
671.518	241.49
671.709	180.05
671.9	167.76
672.091	280.4
672.282	116.56
672.473	130.9
672.664	110.42
672.855	198.48
673.046	149.33
673.237	208.72
673.428	175.95
673.619	212.82
673.809	135
674	198.48
674.191	173.91
674.382	106.32
674.573	85.84
674.764	153.43
674.954	247.63
675.145	32.6
675.336	40.79
675.527	96.08
675.717	71.51
675.908	51.03
676.099	36.69
676.289	149.33
676.48	-2.22
676.671	94.04
676.861	110.42
677.052	151.38
677.243	167.76
677.433	96.08
677.624	245.59
677.814	165.71
678.005	135
678.195	292.69
678.386	116.56
678.576	225.11
678.767	149.33
678.957	173.91
679.148	175.95
679.338	182.1
679.529	261.97
679.719	118.61
679.909	178
680.1	253.78
680.29	247.63
680.481	22.36
680.671	288.59
680.861	182.1
681.052	259.92
681.242	155.47
681.432	227.15
681.622	159.57
681.813	71.51
682.003	155.47
682.193	143.19
682.383	208.72
682.573	120.66
682.764	165.71
682.954	218.96
683.144	362.32
683.334	149.33
683.524	206.67
683.714	173.91
683.904	309.07
684.094	182.1
684.284	255.83
684.474	253.78
684.664	237.39
684.854	268.11
685.044	304.98
685.234	206.67
685.424	223.06
685.614	188.24
685.804	290.64
685.994	247.63
686.184	190.29
686.374	280.4
686.564	184.15
686.753	175.95
686.943	116.56
687.133	91.99
687.323	141.14
687.513	233.3
687.702	212.82
687.892	233.3
688.082	218.96
688.272	313.17
688.461	153.43
688.651	311.12
688.841	347.98
689.03	167.76
689.22	206.67
689.41	200.53
689.599	257.87
689.789	118.61
689.979	352.08
690.168	167.76
690.358	274.26
690.547	243.54
690.737	214.87
690.926	202.58
691.116	218.96
691.305	182.1
691.495	182.1
691.684	147.28
691.874	153.43
692.063	202.58
692.252	180.05
692.442	317.26
692.631	167.76
692.82	171.86
693.01	214.87
693.199	169.81
693.388	259.92
693.578	124.76
693.767	169.81
693.956	182.1
694.146	233.3
694.335	214.87
694.524	178
694.713	214.87
694.902	165.71
695.092	143.19
695.281	227.15
695.47	145.24
695.659	132.95
695.848	200.53
696.037	161.62
696.226	208.72
696.415	147.28
696.604	253.78
696.793	266.07
696.982	132.95
697.171	317.26
697.36	135
697.549	192.34
697.738	96.08
697.927	274.26
698.116	91.99
698.305	274.26
698.494	196.43
698.683	155.47
698.872	362.32
699.061	186.19
699.25	165.71
699.438	188.24
699.627	169.81
699.816	288.59
700.005	100.18
700.193	175.95
700.382	241.49
700.571	210.77
700.76	167.76
700.948	294.74
701.137	225.11
701.326	196.43
701.514	247.63
701.703	259.92
701.892	241.49
702.08	280.4
702.269	184.15
702.457	143.19
702.646	192.34
702.834	200.53
703.023	286.54
703.212	147.28
703.4	204.63
703.589	178
703.777	225.11
703.965	141.14
704.154	165.71
704.342	48.98
704.531	128.85
704.719	251.73
704.907	270.16
705.096	110.42
705.284	112.47
705.472	188.24
705.661	243.54
705.849	243.54
706.037	235.35
706.226	233.3
706.414	149.33
706.602	63.32
706.79	202.58
706.979	126.8
707.167	182.1
707.355	67.41
707.543	184.15
707.731	247.63
707.919	153.43
708.107	157.52
708.296	118.61
708.484	59.22
708.672	173.91
708.86	227.15
709.048	233.3
709.236	120.66
709.424	241.49
709.612	251.73
709.8	87.89
709.988	278.35
710.176	202.58
710.364	302.93
710.551	206.67
710.739	186.19
710.927	188.24
711.115	112.47
711.303	266.07
711.491	274.26
711.679	81.75
711.866	282.45
712.054	155.47
712.242	266.07
712.43	288.59
712.617	137.04
712.805	333.65
712.993	239.44
713.181	55.12
713.368	249.68
713.556	210.77
713.744	139.09
713.931	321.36
714.119	239.44
714.306	130.9
714.494	196.43
714.682	198.48
714.869	163.67
715.057	247.63
715.244	1.88
715.432	218.96
715.619	200.53
715.807	178
715.994	114.52
716.182	169.81
716.369	210.77
716.556	266.07
716.744	157.52
716.931	71.51
717.119	218.96
717.306	157.52
717.493	216.91
717.681	186.19
717.868	157.52
718.055	229.2
718.242	212.82
718.43	272.21
718.617	261.97
718.804	151.38
718.991	304.98
719.179	231.25
719.366	198.48
719.553	243.54
719.74	143.19
719.927	251.73
720.114	251.73
720.301	196.43
720.488	178
720.676	175.95
720.863	245.59
721.05	378.7
721.237	206.67
721.424	321.36
721.611	206.67
721.798	130.9
721.985	180.05
722.172	251.73
722.358	194.39
722.545	286.54
722.732	237.39
722.919	290.64
723.106	231.25
723.293	239.44
723.48	231.25
723.667	178
723.853	264.02
724.04	321.36
724.227	309.07
724.414	147.28
724.6	182.1
724.787	333.65
724.974	356.18
725.161	221.01
725.347	161.62
725.534	274.26
725.72	290.64
725.907	319.31
726.094	325.46
726.28	206.67
726.467	282.45
726.653	274.26
726.84	270.16
727.027	323.41
727.213	255.83
727.4	276.31
727.586	401.23
727.773	196.43
727.959	276.31
728.145	241.49
728.332	309.07
728.518	216.91
728.705	302.93
728.891	325.46
729.077	268.11
729.264	104.28
729.45	233.3
729.636	300.88
729.823	300.88
730.009	329.55
730.195	245.59
730.382	218.96
730.568	206.67
730.754	288.59
730.94	257.87
731.126	302.93
731.313	364.37
731.499	261.97
731.685	309.07
731.871	321.36
732.057	225.11
732.243	323.41
732.429	325.46
732.615	358.22
732.801	298.83
732.987	284.5
733.173	259.92
733.359	180.05
733.545	360.27
733.731	358.22
733.917	331.6
734.103	276.31
734.289	331.6
734.475	227.15
734.661	397.14
734.847	290.64
735.033	235.35
735.219	300.88
735.404	302.93
735.59	276.31
735.776	214.87
735.962	329.55
736.148	321.36
736.333	407.38
736.519	284.5
736.705	204.63
736.89	331.6
737.076	251.73
737.262	255.83
737.447	163.67
737.633	264.02
737.819	399.18
738.004	132.95
738.19	300.88
738.375	345.94
738.561	397.14
738.747	282.45
738.932	155.47
739.118	446.29
739.303	376.66
739.489	366.42
739.674	268.11
739.859	169.81
740.045	386.9
740.23	337.74
740.416	178
740.601	214.87
740.786	347.98
740.972	282.45
741.157	212.82
741.342	274.26
741.528	233.3
741.713	436.05
741.898	243.54
742.084	298.83
742.269	251.73
742.454	374.61
742.639	331.6
742.824	247.63
743.01	327.5
743.195	403.28
743.38	366.42
743.565	319.31
743.75	266.07
743.935	325.46
744.12	380.75
744.305	198.48
744.49	284.5
744.675	354.13
744.86	270.16
745.045	307.02
745.23	327.5
745.415	257.87
745.6	331.6
745.785	221.01
745.97	380.75
746.155	261.97
746.34	352.08
746.525	196.43
746.71	352.08
746.895	280.4
747.079	192.34
747.264	245.59
747.449	221.01
747.634	280.4
747.819	198.48
748.003	202.58
748.188	218.96
748.373	335.7
748.557	227.15
748.742	204.63
748.927	208.72
749.111	239.44
749.296	280.4
749.481	284.5
749.665	229.2
749.85	163.67
750.034	274.26
750.219	294.74
750.404	212.82
750.588	302.93
750.773	141.14
750.957	212.82
751.141	190.29
751.326	247.63
751.51	110.42
751.695	149.33
751.879	173.91
752.064	354.13
752.248	257.87
752.432	397.14
752.617	288.59
752.801	374.61
752.985	216.91
753.17	288.59
753.354	259.92
753.538	192.34
753.722	204.63
753.907	122.71
754.091	155.47
754.275	266.07
754.459	206.67
754.643	157.52
754.828	221.01
755.012	221.01
755.196	128.85
755.38	290.64
755.564	175.95
755.748	210.77
755.932	259.92
756.116	221.01
756.3	282.45
756.484	153.43
756.668	264.02
756.852	51.03
757.036	118.61
757.22	143.19
757.404	145.24
757.588	190.29
757.772	169.81
757.956	208.72
758.14	253.78
758.323	151.38
758.507	243.54
758.691	100.18
758.875	280.4
759.059	313.17
759.242	106.32
759.426	139.09
759.61	155.47
759.794	118.61
759.977	229.2
760.161	331.6
760.345	194.39
760.528	214.87
760.712	192.34
760.895	135
761.079	157.52
761.263	178
761.446	14.17
761.63	79.7
761.813	247.63
761.997	59.22
762.18	132.95
762.364	253.78
762.547	42.84
762.731	106.32
762.914	149.33
763.098	124.76
763.281	126.8
763.464	42.84
763.648	155.47
763.831	96.08
764.015	55.12
764.198	147.28
764.381	112.47
764.564	173.91
764.748	188.24
764.931	171.86
765.114	102.23
765.297	204.63
765.481	114.52
765.664	46.93
765.847	141.14
766.03	198.48
766.213	112.47
766.397	171.86
766.58	-57.51
766.763	161.62
766.946	18.26
767.129	128.85
767.312	79.7
767.495	137.04
767.678	145.24
767.861	112.47
768.044	135
768.227	71.51
768.41	85.84
768.593	137.04
768.776	167.76
768.959	110.42
769.142	206.67
769.324	139.09
769.507	75.6
769.69	126.8
769.873	83.8
770.056	266.07
770.239	85.84
770.421	171.86
770.604	204.63
770.787	137.04
770.97	143.19
771.152	85.84
771.335	157.52
771.518	-6.31
771.7	175.95
771.883	167.76
772.066	-12.46
772.248	108.37
772.431	204.63
772.613	77.65
772.796	46.93
772.978	194.39
773.161	186.19
773.343	38.74
773.526	128.85
773.708	48.98
773.891	-2.22
774.073	104.28
774.256	28.5
774.438	284.5
774.621	-26.79
774.803	89.94
774.985	128.85
775.168	124.76
775.35	30.55
775.532	149.33
775.715	75.6
775.897	157.52
776.079	57.17
776.261	153.43
776.444	106.32
776.626	30.55
776.808	130.9
776.99	-4.27
777.173	30.55
777.355	79.7
777.537	81.75
777.719	48.98
777.901	30.55
778.083	55.12
778.265	-39.08
778.447	135
778.629	104.28
778.811	91.99
778.993	91.99
779.175	161.62
779.357	65.36
779.539	-16.55
779.721	98.13
779.903	108.37
780.085	83.8
780.267	155.47
780.449	3.93
780.631	182.1
780.812	120.66
780.994	53.08
781.176	8.02
781.358	-28.84
781.54	-18.6
781.721	159.57
781.903	91.99
782.085	42.84
782.267	218.96
782.448	20.31
782.63	-28.84
782.812	34.64
782.993	-28.84
783.175	128.85
783.357	36.69
783.538	83.8
783.72	26.45
783.901	85.84
784.083	124.76
784.264	104.28
784.446	-30.89
784.627	10.07
784.809	-12.46
784.99	-49.32
785.172	94.04
785.353	69.46
785.535	165.71
785.716	-18.6
785.897	-16.55
786.079	42.84
786.26	73.56
786.441	124.76
786.623	-37.03
786.804	-2.22
786.985	32.6
787.167	36.69
787.348	-22.7
787.529	98.13
787.71	206.67
787.891	83.8
788.073	24.4
788.254	-65.71
788.435	237.39
788.616	83.8
788.797	-10.41
788.978	22.36
789.159	14.17
789.34	32.6
789.522	40.79
789.703	-14.51
789.884	102.23
790.065	-0.17
790.246	155.47
790.427	48.98
790.607	206.67
790.788	87.89
790.969	44.88
791.15	73.56
791.331	-14.51
791.512	81.75
791.693	-14.51
791.874	36.69
792.054	169.81
792.235	26.45
792.416	-6.31
792.597	-8.36
792.778	61.27
792.958	75.6
793.139	-2.22
793.32	71.51
793.5	42.84
793.681	206.67
793.862	30.55
794.042	18.26
794.223	-110.76
794.404	34.64
794.584	-71.85
794.765	51.03
794.945	69.46
795.126	61.27
795.306	106.32
795.487	85.84
795.667	83.8
795.848	89.94
796.028	-20.65
796.209	20.31
796.389	83.8
796.57	83.8
796.75	8.02
796.93	14.17
797.111	65.36
797.291	22.36
797.471	71.51
797.652	-2.22
797.832	-73.9
798.012	71.51
798.192	-45.23
798.373	-127.14
798.553	30.55
798.733	36.69
798.913	-45.23
799.093	-32.94
799.274	5.97
799.454	26.45
799.634	83.8
799.814	67.41
799.994	36.69
800.174	89.94
800.354	53.08
800.534	-98.47
800.714	165.71
800.894	14.17
801.074	-37.03
801.254	-71.85
801.434	81.75
801.614	-16.55
801.794	14.17
801.974	1892.15
802.154	-12.46
802.334	89.94
802.514	34.64
802.693	-14.51
802.873	1.88
803.053	108.37
803.233	120.66
803.413	26.45
803.592	-8.36
803.772	-0.17
803.952	28.5
804.131	-73.9
804.311	118.61
804.491	98.13
804.67	26.45
804.85	-20.65
805.03	89.94
805.209	145.24
805.389	36.69
805.568	-30.89
805.748	26.45
805.928	26.45
806.107	98.13
806.287	28.5
806.466	16.21
806.646	-110.76
806.825	-18.6
807.004	22.36
807.184	5.97
807.363	22.36
807.543	-18.6
807.722	-80.04
807.901	87.89
808.081	42.84
808.26	-75.95
808.439	44.88
808.619	-10.41
808.798	34.64
808.977	38.74
809.156	112.47
809.336	16.21
809.515	69.46
809.694	-61.61
809.873	5.97
810.052	30.55
810.231	69.46
810.411	96.08
810.59	130.9
810.769	22.36
810.948	75.6
811.127	-53.42
811.306	-39.08
811.485	30.55
811.664	159.57
811.843	1.88
812.022	-20.65
812.201	65.36
812.38	48.98
812.559	-34.99
812.737	108.37
812.916	-65.71
813.095	-67.75
813.274	14.17
813.453	-86.19
813.632	34.64
813.811	46.93
813.989	-71.85
814.168	42.84
814.347	-55.47
814.526	10.07
814.704	163.67
814.883	108.37
815.062	-24.75
815.24	51.03
815.419	-57.51
815.598	-39.08
815.776	-143.53
815.955	8.02
816.133	-51.37
816.312	1.88
816.49	-0.17
816.669	91.99
816.847	3.93
817.026	108.37
817.204	59.22
817.383	55.12
817.561	-57.51
817.74	75.6
817.918	8.02
818.097	1.88
818.275	-55.47
818.453	69.46
818.632	12.12
818.81	3.93
818.988	-28.84
819.167	5.97
819.345	81.75
819.523	-28.84
819.701	61.27
819.879	63.32
820.058	24.4
820.236	-14.51
820.414	53.08
820.592	18.26
820.77	3.93
820.948	-20.65
821.127	-61.61
821.305	-8.36
821.483	87.89
821.661	59.22
821.839	-0.17
822.017	10.07
822.195	-22.7
822.373	73.56
822.551	1.88
822.729	114.52
822.907	-12.46
823.085	46.93
823.262	42.84
823.44	-18.6
823.618	18.26
823.796	36.69
823.974	26.45
824.152	-41.13
824.329	-41.13
824.507	44.88
824.685	83.8
824.863	69.46
825.04	-22.7
825.218	91.99
825.396	-30.89
825.574	57.17
825.751	67.41
825.929	63.32
826.107	-49.32
826.284	-45.23
826.462	91.99
826.639	-104.62
826.817	-88.23
826.994	-59.56
827.172	-32.94
827.349	145.24
827.527	34.64
827.704	3.93
827.882	42.84
828.059	24.4
828.237	71.51
828.414	73.56
828.591	-118.95
828.769	-8.36
828.946	-69.8
829.124	48.98
829.301	165.71
829.478	-24.75
829.655	-34.99
829.833	8.02
830.01	-98.47
830.187	10.07
830.364	14.17
830.542	-0.17
830.719	120.66
830.896	55.12
831.073	16.21
831.25	65.36
831.427	81.75
831.604	-6.31
831.782	46.93
831.959	-34.99
832.136	-98.47
832.313	-8.36
832.49	22.36
832.667	89.94
832.844	5.97
833.021	98.13
833.198	91.99
833.374	1.88
833.551	18.26
833.728	8.02
833.905	-8.36
834.082	-188.58
834.259	30.55
834.436	116.56
834.612	-53.42
834.789	-51.37
834.966	12.12
835.143	-18.6
835.319	-125.1
835.496	59.22
835.673	48.98
835.85	-16.55
836.026	-16.55
836.203	61.27
836.38	-53.42
836.556	-73.9
836.733	-26.79
836.909	128.85
837.086	48.98
837.262	-92.33
837.439	-63.66
837.616	-8.36
837.792	-24.75
837.968	-37.03
838.145	-110.76
838.321	-39.08
838.498	75.6
838.674	3.93
838.851	46.93
839.027	48.98
839.203	32.6
839.38	-16.55
839.556	-49.32
839.732	1.88
839.909	-63.66
840.085	55.12
840.261	-71.85
840.437	38.74
840.614	22.36
840.79	73.56
840.966	42.84
841.142	75.6
841.318	30.55
841.494	63.32
841.671	98.13
841.847	-8.36
842.023	-55.47
842.199	42.84
842.375	186.19
842.551	-65.71
842.727	-20.65
842.903	120.66
843.079	-51.37
843.255	91.99
843.431	34.64
843.607	108.37
843.783	-127.14
843.959	89.94
844.134	-34.99
844.31	102.23
844.486	18.26
844.662	-16.55
844.838	-98.47
845.013	73.56
845.189	124.76
845.365	12.12
845.541	55.12
845.716	69.46
845.892	10.07
846.068	-94.38
846.244	-4.27
846.419	26.45
846.595	-84.14
846.77	-8.36
846.946	126.8
847.122	-32.94
847.297	-43.18
847.473	118.61
847.648	-112.81
847.824	40.79
847.999	-77.99
848.175	22.36
848.35	12.12
848.526	69.46
848.701	48.98
848.876	46.93
849.052	63.32
849.227	28.5
849.403	-104.62
849.578	-14.51
849.753	26.45
849.929	30.55
850.104	-88.23
850.279	18.26
850.454	-6.31
850.63	48.98
850.805	-20.65
850.98	-14.51
851.155	-22.7
851.33	36.69
851.505	-16.55
851.681	85.84
851.856	-8.36
852.031	-2.22
852.206	26.45
852.381	-14.51
852.556	28.5
852.731	-6.31
852.906	22.36
853.081	18.26
853.256	67.41
853.431	-43.18
853.606	-22.7
853.781	-41.13
853.956	-153.77
854.131	-49.32
854.305	-65.71
854.48	-45.23
854.655	-39.08
854.83	-8.36
855.005	-12.46
855.18	75.6
855.354	48.98
855.529	-45.23
855.704	34.64
855.879	67.41
856.053	-71.85
856.228	-22.7
856.403	-37.03
856.577	85.84
856.752	-131.24
856.926	-28.84
857.101	-47.27
857.276	-30.89
857.45	34.64
857.625	36.69
857.799	28.5
857.974	-0.17
858.148	-102.57
858.323	69.46
858.497	-67.75
858.672	-6.31
858.846	12.12
859.02	61.27
859.195	-73.9
859.369	-32.94
859.543	-43.18
859.718	53.08
859.892	-55.47
860.066	-34.99
860.241	-34.99
860.415	-65.71
860.589	71.51
860.763	26.45
860.938	-43.18
861.112	12.12
861.286	28.5
861.46	20.31
861.634	26.45
861.808	104.28
861.982	-71.85
862.157	-106.67
862.331	8.02
862.505	-69.8
862.679	-77.99
862.853	-4.27
863.027	-10.41
863.201	151.38
863.375	40.79
863.549	28.5
863.722	-14.51
863.896	135
864.07	-90.28
864.244	-39.08
864.418	63.32
864.592	14.17
864.766	32.6
864.939	16.21
865.113	12.12
865.287	75.6
865.461	-37.03
865.634	-2.22
865.808	55.12
865.982	-47.27
866.156	-34.99
866.329	-10.41
866.503	-82.09
866.676	-6.31
866.85	51.03
867.024	-121
867.197	36.69
867.371	75.6
867.544	53.08
867.718	-71.85
867.891	122.71
868.065	-80.04
868.238	-28.84
868.412	96.08
868.585	48.98
868.759	-49.32
868.932	-26.79
869.105	-34.99
869.279	55.12
869.452	-10.41
869.625	75.6
869.799	-49.32
869.972	-0.17
870.145	-51.37
870.319	91.99
870.492	-98.47
870.665	-14.51
870.838	-47.27
871.011	-63.66
871.185	3.93
871.358	53.08
871.531	5.97
871.704	-26.79
871.877	-26.79
872.05	-53.42
872.223	-96.43
872.396	67.41
872.569	28.5
872.742	-41.13
872.915	-0.17
873.088	18.26
873.261	-75.95
873.434	18.26
873.607	48.98
873.78	65.36
873.953	-75.95
874.126	18.26
874.299	10.07
874.471	-34.99
874.644	-2.22
874.817	69.46
874.99	159.57
875.163	-41.13
875.335	-4.27
875.508	-43.18
875.681	110.42
875.853	-80.04
876.026	-61.61
876.199	132.95
876.371	20.31
876.544	-45.23
876.717	14.17
876.889	-20.65
877.062	75.6
877.234	-84.14
877.407	-0.17
877.579	-43.18
877.752	67.41
877.924	114.52
878.097	53.08
878.269	24.4
878.442	-30.89
878.614	-20.65
878.786	-14.51
878.959	-20.65
879.131	-32.94
879.303	-143.53
879.476	-59.56
879.648	87.89
879.82	-32.94
879.993	-30.89
880.165	-8.36
880.337	-121
880.509	-69.8
880.681	-92.33
880.854	-32.94
881.026	63.32
881.198	141.14
881.37	-34.99
881.542	26.45
881.714	-10.41
881.886	22.36
882.058	-2.22
882.23	53.08
882.402	-22.7
882.574	5.97
882.746	48.98
882.918	81.75
883.09	38.74
883.262	-20.65
883.434	24.4
883.606	-100.52
883.778	30.55
883.95	98.13
884.122	-14.51
884.293	51.03
884.465	-37.03
884.637	77.65
884.809	-32.94
884.98	10.07
885.152	30.55
885.324	5.97
885.496	-82.09
885.667	-84.14
885.839	-100.52
886.011	122.71
886.182	8.02
886.354	71.51
886.525	-53.42
886.697	55.12
886.869	-86.19
887.04	-34.99
887.212	135
887.383	112.47
887.555	3.93
887.726	-16.55
887.897	-67.75
888.069	42.84
888.24	65.36
888.412	40.79
888.583	-4.27
888.754	-102.57
888.926	-168.1
889.097	-6.31
889.268	-118.95
889.44	55.12
889.611	-77.99
889.782	-34.99
889.953	-92.33
890.125	61.27
890.296	-10.41
890.467	-98.47
890.638	-28.84
890.809	38.74
890.98	28.5
891.151	-20.65
891.323	81.75
891.494	-8.36
891.665	-39.08
891.836	-45.23
892.007	24.4
892.178	-49.32
892.349	14.17
892.52	-55.47
892.691	-12.46
892.862	-104.62
893.032	-73.9
893.203	-32.94
893.374	44.88
893.545	104.28
893.716	-55.47
893.887	22.36
894.057	-82.09
894.228	-0.17
894.399	-32.94
894.57	77.65
894.74	38.74
894.911	14.17
895.082	-41.13
895.253	-110.76
895.423	51.03
895.594	67.41
895.764	30.55
895.935	-73.9
896.106	46.93
896.276	-34.99
896.447	69.46
896.617	44.88
896.788	-32.94
896.958	-55.47
897.129	-6.31
897.299	-49.32
897.47	75.6
897.64	22.36
897.81	-22.7
897.981	-4.27
898.151	-84.14
898.322	-43.18
898.492	12.12
898.662	-16.55
898.832	-49.32
899.003	-118.95
899.173	-67.75
899.343	-104.62
899.513	-55.47
