Data from USB4F104151__35__09-27-18-009.txt Node

Date: Wed Feb 26 09:27:18 EST 2025
User: louis
Spectrometer: USB4F10415
Trigger mode: 4
Integration Time (sec): 1.000000E-1
Scans to average: 1
Electric dark correction enabled: true
Nonlinearity correction enabled: false
Boxcar width: 0
XAxis mode: Wavelengths
Number of Pixels in Spectrum: 3648
>>>>>Begin Spectral Data<<<<<
178.204	-406.52
178.424	-406.52
178.644	-406.52
178.864	-302.08
179.084	-306.17
179.304	-19.46
179.524	-56.32
179.744	-1.02
179.964	70.65
180.184	-3.07
180.404	13.31
180.624	-44.03
180.844	35.84
181.064	-46.08
181.283	3.07
181.503	-25.6
181.723	72.7
181.943	-121.85
182.163	187.39
182.383	21.5
182.602	70.65
182.822	166.91
183.042	130.05
183.262	-19.46
183.482	48.13
183.701	27.65
183.921	17.41
184.141	-107.52
184.361	109.57
184.58	-82.94
184.8	64.51
185.02	-13.31
185.239	109.57
185.459	87.04
185.679	58.37
185.898	-19.46
186.118	70.65
186.338	54.27
186.557	121.85
186.777	46.08
186.997	44.03
187.216	37.89
187.436	152.57
187.655	48.13
187.875	162.81
188.095	-3.07
188.314	70.65
188.534	109.57
188.753	-15.36
188.973	87.04
189.192	144.38
189.412	46.08
189.631	54.27
189.851	89.09
190.07	109.57
190.29	-19.46
190.509	-48.13
190.729	52.22
190.948	146.43
191.168	234.49
191.387	87.04
191.607	15.36
191.826	101.37
192.045	27.65
192.265	-25.6
192.484	105.47
192.704	-3.07
192.923	-25.6
193.142	211.96
193.362	168.96
193.581	123.9
193.8	50.18
194.02	173.05
194.239	29.7
194.458	41.98
194.678	31.74
194.897	70.65
195.116	58.37
195.335	-1.02
195.555	72.7
195.774	5.12
195.993	23.55
196.212	80.89
196.432	-9.22
196.651	66.56
196.87	-1.02
197.089	216.06
197.308	91.13
197.528	52.22
197.747	-41.98
197.966	78.85
198.185	113.66
198.404	17.41
198.623	87.04
198.842	146.43
199.062	103.42
199.281	76.8
199.5	39.94
199.719	82.94
199.938	111.61
200.157	101.37
200.376	54.27
200.595	19.46
200.814	-13.31
201.033	-46.08
201.252	128
201.471	76.8
201.69	72.7
201.909	62.46
202.128	80.89
202.347	-15.36
202.566	-5.12
202.785	-35.84
203.004	37.89
203.223	226.3
203.442	46.08
203.661	-5.12
203.879	52.22
204.098	46.08
204.317	-37.89
204.536	113.66
204.755	44.03
204.974	33.79
205.193	41.98
205.411	179.2
205.63	97.28
205.849	27.65
206.068	-7.17
206.287	58.37
206.505	84.99
206.724	5.12
206.943	-31.74
207.162	21.5
207.381	29.7
207.599	9.22
207.818	37.89
208.037	72.7
208.255	33.79
208.474	21.5
208.693	48.13
208.911	25.6
209.13	107.52
209.349	58.37
209.567	64.51
209.786	99.33
210.005	23.55
210.223	31.74
210.442	-31.74
210.661	-9.22
210.879	39.94
211.098	3.07
211.316	62.46
211.535	70.65
211.753	13.31
211.972	33.79
212.191	62.46
212.409	-13.31
212.628	76.8
212.846	50.18
213.065	89.09
213.283	103.42
213.502	-33.79
213.72	44.03
213.938	31.74
214.157	54.27
214.375	27.65
214.594	1.02
214.812	58.37
215.031	23.55
215.249	35.84
215.467	37.89
215.686	37.89
215.904	132.09
216.122	64.51
216.341	144.38
216.559	62.46
216.778	148.48
216.996	121.85
217.214	13.31
217.432	-37.89
217.651	23.55
217.869	-25.6
218.087	64.51
218.306	-35.84
218.524	25.6
218.742	-3.07
218.96	76.8
219.179	48.13
219.397	97.28
219.615	154.62
219.833	76.8
220.051	19.46
220.27	68.61
220.488	156.67
220.706	72.7
220.924	13.31
221.142	23.55
221.36	7.17
221.578	35.84
221.796	-19.46
222.015	29.7
222.233	54.27
222.451	166.91
222.669	-41.98
222.887	-21.5
223.105	-37.89
223.323	101.37
223.541	-82.94
223.759	7.17
223.977	78.85
224.195	164.86
224.413	109.57
224.631	35.84
224.849	56.32
225.067	195.58
225.285	46.08
225.503	25.6
225.721	-48.13
225.939	123.9
226.157	68.61
226.375	211.96
226.592	-9.22
226.81	5.12
227.028	138.24
227.246	160.77
227.464	31.74
227.682	117.76
227.9	39.94
228.117	89.09
228.335	29.7
228.553	52.22
228.771	-7.17
228.989	91.13
229.206	113.66
229.424	29.7
229.642	-72.7
229.86	-23.55
230.077	84.99
230.295	21.5
230.513	87.04
230.731	37.89
230.948	105.47
231.166	207.87
231.384	-48.13
231.601	25.6
231.819	152.57
232.037	-27.65
232.254	19.46
232.472	-27.65
232.689	-7.17
232.907	152.57
233.125	66.56
233.342	35.84
233.56	27.65
233.777	-3.07
233.995	9.22
234.213	19.46
234.43	95.23
234.648	-17.41
234.865	-1.02
235.083	56.32
235.3	-3.07
235.518	17.41
235.735	130.05
235.953	50.18
236.17	72.7
236.388	15.36
236.605	87.04
236.822	70.65
237.04	89.09
237.257	76.8
237.475	39.94
237.692	31.74
237.909	56.32
238.127	-44.03
238.344	5.12
238.562	52.22
238.779	-50.18
238.996	-35.84
239.214	113.66
239.431	105.47
239.648	48.13
239.865	123.9
240.083	-21.5
240.3	7.17
240.517	21.5
240.735	87.04
240.952	89.09
241.169	23.55
241.386	72.7
241.603	27.65
241.821	54.27
242.038	52.22
242.255	35.84
242.472	-25.6
242.689	115.71
242.907	99.33
243.124	23.55
243.341	64.51
243.558	-23.55
243.775	7.17
243.992	-58.37
244.209	-17.41
244.426	156.67
244.643	101.37
244.86	-84.99
245.078	111.61
245.295	-33.79
245.512	44.03
245.729	-44.03
245.946	107.52
246.163	13.31
246.38	37.89
246.597	3.07
246.814	91.13
247.031	48.13
247.248	97.28
247.464	121.85
247.681	-9.22
247.898	87.04
248.115	72.7
248.332	-64.51
248.549	209.92
248.766	97.28
248.983	84.99
249.2	84.99
249.417	97.28
249.633	44.03
249.85	89.09
250.067	56.32
250.284	29.7
250.501	37.89
250.717	101.37
250.934	-101.37
251.151	74.75
251.368	72.7
251.585	35.84
251.801	60.42
252.018	-27.65
252.235	62.46
252.451	-23.55
252.668	-9.22
252.885	107.52
253.102	68.61
253.318	7.17
253.535	5.12
253.752	15.36
253.968	-44.03
254.185	-50.18
254.401	80.89
254.618	78.85
254.835	5.12
255.051	136.19
255.268	78.85
255.484	164.86
255.701	46.08
255.917	62.46
256.134	-52.22
256.351	-17.41
256.567	-27.65
256.784	21.5
257	7.17
257.217	99.33
257.433	41.98
257.65	27.65
257.866	97.28
258.082	-74.75
258.299	-39.94
258.515	72.7
258.732	-13.31
258.948	-46.08
259.165	54.27
259.381	-17.41
259.597	58.37
259.814	15.36
260.03	91.13
260.246	68.61
260.463	70.65
260.679	78.85
260.895	15.36
261.112	48.13
261.328	54.27
261.544	-33.79
261.761	201.72
261.977	-5.12
262.193	-87.04
262.409	115.71
262.626	-1.02
262.842	93.18
263.058	17.41
263.274	7.17
263.49	56.32
263.707	130.05
263.923	11.26
264.139	-48.13
264.355	15.36
264.571	140.29
264.787	76.8
265.004	25.6
265.22	48.13
265.436	-21.5
265.652	-54.27
265.868	25.6
266.084	3.07
266.3	95.23
266.516	-78.85
266.732	105.47
266.948	13.31
267.164	-5.12
267.38	76.8
267.596	64.51
267.812	140.29
268.028	-5.12
268.244	7.17
268.46	91.13
268.676	9.22
268.892	125.95
269.108	-39.94
269.324	-27.65
269.54	-23.55
269.756	111.61
269.972	-1.02
270.188	60.42
270.403	70.65
270.619	17.41
270.835	48.13
271.051	-19.46
271.267	64.51
271.483	21.5
271.698	101.37
271.914	64.51
272.13	-23.55
272.346	74.75
272.562	-21.5
272.777	148.48
272.993	15.36
273.209	54.27
273.425	48.13
273.64	-46.08
273.856	62.46
274.072	-37.89
274.287	-19.46
274.503	78.85
274.719	78.85
274.934	-46.08
275.15	-60.42
275.366	60.42
275.581	48.13
275.797	7.17
276.012	78.85
276.228	64.51
276.444	15.36
276.659	144.38
276.875	37.89
277.09	41.98
277.306	-35.84
277.521	37.89
277.737	13.31
277.952	21.5
278.168	35.84
278.383	80.89
278.599	62.46
278.814	80.89
279.03	48.13
279.245	125.95
279.461	50.18
279.676	166.91
279.892	-70.65
280.107	-19.46
280.322	-41.98
280.538	80.89
280.753	72.7
280.969	128
281.184	23.55
281.399	41.98
281.615	105.47
281.83	76.8
282.045	9.22
282.26	-66.56
282.476	46.08
282.691	31.74
282.906	35.84
283.122	93.18
283.337	-9.22
283.552	80.89
283.767	27.65
283.983	78.85
284.198	-41.98
284.413	37.89
284.628	-44.03
284.843	48.13
285.058	-11.26
285.274	31.74
285.489	5.12
285.704	74.75
285.919	39.94
286.134	39.94
286.349	9.22
286.564	27.65
286.779	125.95
286.995	-74.75
287.21	-31.74
287.425	60.42
287.64	-9.22
287.855	39.94
288.07	-64.51
288.285	87.04
288.5	121.85
288.715	150.53
288.93	31.74
289.145	19.46
289.36	125.95
289.575	68.61
289.79	89.09
290.004	-33.79
290.219	109.57
290.434	33.79
290.649	-44.03
290.864	-50.18
291.079	3.07
291.294	66.56
291.509	25.6
291.724	17.41
291.938	-29.7
292.153	1.02
292.368	13.31
292.583	84.99
292.798	72.7
293.012	-19.46
293.227	125.95
293.442	31.74
293.657	64.51
293.871	56.32
294.086	39.94
294.301	158.72
294.516	19.46
294.73	58.37
294.945	31.74
295.16	-17.41
295.374	113.66
295.589	72.7
295.804	44.03
296.018	109.57
296.233	91.13
296.447	23.55
296.662	-7.17
296.877	130.05
297.091	33.79
297.306	-31.74
297.52	52.22
297.735	31.74
297.949	128
298.164	62.46
298.378	13.31
298.593	-17.41
298.807	-11.26
299.022	74.75
299.236	134.14
299.451	15.36
299.665	-54.27
299.88	7.17
300.094	82.94
300.309	-56.32
300.523	9.22
300.737	-50.18
300.952	23.55
301.166	41.98
301.381	-37.89
301.595	-5.12
301.809	27.65
302.024	5.12
302.238	-74.75
302.452	158.72
302.667	37.89
302.881	164.86
303.095	64.51
303.309	74.75
303.524	-11.26
303.738	-35.84
303.952	-29.7
304.166	64.51
304.381	-68.61
304.595	144.38
304.809	-41.98
305.023	5.12
305.237	-70.65
305.452	-25.6
305.666	103.42
305.88	70.65
306.094	68.61
306.308	142.33
306.522	80.89
306.736	50.18
306.95	97.28
307.164	1.02
307.379	23.55
307.593	128
307.807	105.47
308.021	23.55
308.235	48.13
308.449	-99.33
308.663	105.47
308.877	166.91
309.091	80.89
309.305	46.08
309.519	-50.18
309.733	80.89
309.947	-25.6
310.161	1.02
310.374	168.96
310.588	5.12
310.802	-25.6
311.016	48.13
311.23	25.6
311.444	-17.41
311.658	-21.5
311.872	119.81
312.085	105.47
312.299	97.28
312.513	107.52
312.727	7.17
312.941	52.22
313.154	41.98
313.368	72.7
313.582	25.6
313.796	-9.22
314.009	31.74
314.223	105.47
314.437	-25.6
314.651	62.46
314.864	-17.41
315.078	39.94
315.292	-107.52
315.505	-76.8
315.719	58.37
315.933	123.9
316.146	84.99
316.36	19.46
316.573	113.66
316.787	119.81
317.001	7.17
317.214	-58.37
317.428	62.46
317.641	5.12
317.855	64.51
318.068	84.99
318.282	17.41
318.495	140.29
318.709	7.17
318.922	44.03
319.136	168.96
319.349	76.8
319.563	15.36
319.776	19.46
319.99	-27.65
320.203	52.22
320.417	17.41
320.63	56.32
320.843	123.9
321.057	13.31
321.27	48.13
321.483	89.09
321.697	23.55
321.91	54.27
322.124	52.22
322.337	76.8
322.55	-17.41
322.763	9.22
322.977	99.33
323.19	64.51
323.403	48.13
323.617	60.42
323.83	52.22
324.043	-1.02
324.256	48.13
324.469	-74.75
324.683	84.99
324.896	-41.98
325.109	-13.31
325.322	-35.84
325.535	80.89
325.748	109.57
325.962	1.02
326.175	25.6
326.388	15.36
326.601	105.47
326.814	64.51
327.027	89.09
327.24	119.81
327.453	-29.7
327.666	121.85
327.879	195.58
328.092	21.5
328.305	138.24
328.518	-27.65
328.731	27.65
328.944	-33.79
329.157	70.65
329.37	1.02
329.583	162.81
329.796	128
330.009	-50.18
330.222	39.94
330.435	101.37
330.648	29.7
330.861	62.46
331.073	39.94
331.286	130.05
331.499	46.08
331.712	23.55
331.925	46.08
332.138	62.46
332.35	103.42
332.563	13.31
332.776	158.72
332.989	-33.79
333.202	48.13
333.414	72.7
333.627	-13.31
333.84	-33.79
334.053	70.65
334.265	15.36
334.478	3.07
334.691	54.27
334.903	89.09
335.116	-37.89
335.329	60.42
335.541	87.04
335.754	162.81
335.966	-15.36
336.179	39.94
336.392	-35.84
336.604	99.33
336.817	64.51
337.029	56.32
337.242	72.7
337.454	29.7
337.667	-27.65
337.88	115.71
338.092	50.18
338.305	68.61
338.517	39.94
338.729	142.33
338.942	64.51
339.154	-68.61
339.367	-27.65
339.579	87.04
339.792	41.98
340.004	156.67
340.217	64.51
340.429	-1.02
340.641	3.07
340.854	-58.37
341.066	-54.27
341.278	109.57
341.491	121.85
341.703	19.46
341.915	15.36
342.128	48.13
342.34	-21.5
342.552	31.74
342.764	87.04
342.977	-17.41
343.189	68.61
343.401	-7.17
343.613	-52.22
343.826	13.31
344.038	-58.37
344.25	-3.07
344.462	-33.79
344.674	31.74
344.886	-66.56
345.099	66.56
345.311	140.29
345.523	19.46
345.735	-78.85
345.947	27.65
346.159	39.94
346.371	11.26
346.583	35.84
346.795	146.43
347.007	3.07
347.219	87.04
347.431	-25.6
347.643	164.86
347.855	93.18
348.067	80.89
348.279	-29.7
348.491	-1.02
348.703	105.47
348.915	37.89
349.127	31.74
349.339	72.7
349.551	-35.84
349.763	31.74
349.975	11.26
350.187	62.46
350.399	99.33
350.61	58.37
350.822	-9.22
351.034	125.95
351.246	-19.46
351.458	119.81
351.669	78.85
351.881	132.09
352.093	103.42
352.305	23.55
352.517	60.42
352.728	128
352.94	-21.5
353.152	29.7
353.363	-68.61
353.575	46.08
353.787	72.7
353.999	58.37
354.21	181.25
354.422	19.46
354.633	23.55
354.845	60.42
355.057	44.03
355.268	41.98
355.48	17.41
355.692	-64.51
355.903	-31.74
356.115	5.12
356.326	-35.84
356.538	128
356.749	39.94
356.961	121.85
357.172	-35.84
357.384	-52.22
357.595	162.81
357.807	13.31
358.018	-19.46
358.23	68.61
358.441	168.96
358.653	5.12
358.864	17.41
359.075	68.61
359.287	89.09
359.498	74.75
359.709	80.89
359.921	29.7
360.132	31.74
360.344	-52.22
360.555	72.7
360.766	80.89
360.977	-44.03
361.189	68.61
361.4	9.22
361.611	148.48
361.823	105.47
362.034	31.74
362.245	-11.26
362.456	44.03
362.667	50.18
362.879	-44.03
363.09	80.89
363.301	119.81
363.512	11.26
363.723	64.51
363.935	-29.7
364.146	130.05
364.357	5.12
364.568	78.85
364.779	-87.04
364.99	168.96
365.201	13.31
365.412	150.53
365.623	-17.41
365.834	3.07
366.045	39.94
366.256	76.8
366.467	72.7
366.678	17.41
366.889	93.18
367.1	-1.02
367.311	97.28
367.522	37.89
367.733	105.47
367.944	121.85
368.155	66.56
368.366	113.66
368.577	44.03
368.788	158.72
368.999	39.94
369.209	29.7
369.42	201.72
369.631	203.77
369.842	-31.74
370.053	-13.31
370.264	99.33
370.474	-13.31
370.685	5.12
370.896	17.41
371.107	130.05
371.317	13.31
371.528	27.65
371.739	144.38
371.95	97.28
372.16	87.04
372.371	-50.18
372.582	74.75
372.792	117.76
373.003	78.85
373.214	31.74
373.424	54.27
373.635	70.65
373.846	89.09
374.056	80.89
374.267	54.27
374.477	23.55
374.688	17.41
374.898	21.5
375.109	46.08
375.319	33.79
375.53	105.47
375.74	136.19
375.951	13.31
376.161	95.23
376.372	148.48
376.582	5.12
376.793	128
377.003	-123.9
377.214	-13.31
377.424	105.47
377.635	-9.22
377.845	1.02
378.055	103.42
378.266	-35.84
378.476	5.12
378.686	119.81
378.897	15.36
379.107	82.94
379.317	-3.07
379.528	11.26
379.738	70.65
379.948	21.5
380.158	89.09
380.369	78.85
380.579	56.32
380.789	19.46
380.999	31.74
381.21	76.8
381.42	132.09
381.63	107.52
381.84	82.94
382.05	54.27
382.261	144.38
382.471	113.66
382.681	-74.75
382.891	175.1
383.101	44.03
383.311	29.7
383.521	31.74
383.731	111.61
383.941	125.95
384.151	9.22
384.361	33.79
384.571	103.42
384.781	52.22
384.991	105.47
385.201	162.81
385.411	80.89
385.621	41.98
385.831	97.28
386.041	-15.36
386.251	52.22
386.461	27.65
386.671	64.51
386.881	27.65
387.091	35.84
387.301	78.85
387.511	3.07
387.72	76.8
387.93	60.42
388.14	58.37
388.35	52.22
388.56	162.81
388.769	152.57
388.979	78.85
389.189	-54.27
389.399	41.98
389.609	62.46
389.818	97.28
390.028	130.05
390.238	72.7
390.447	37.89
390.657	39.94
390.867	13.31
391.076	-48.13
391.286	11.26
391.496	13.31
391.705	39.94
391.915	103.42
392.125	54.27
392.334	23.55
392.544	105.47
392.753	111.61
392.963	-44.03
393.172	3.07
393.382	-17.41
393.591	121.85
393.801	-5.12
394.01	91.13
394.22	130.05
394.429	39.94
394.639	-9.22
394.848	89.09
395.058	48.13
395.267	41.98
395.477	62.46
395.686	5.12
395.895	119.81
396.105	158.72
396.314	19.46
396.524	-50.18
396.733	27.65
396.942	95.23
397.152	48.13
397.361	31.74
397.57	13.31
397.78	80.89
397.989	177.15
398.198	203.77
398.407	39.94
398.617	44.03
398.826	68.61
399.035	21.5
399.244	113.66
399.453	64.51
399.663	41.98
399.872	29.7
400.081	15.36
400.29	115.71
400.499	19.46
400.708	64.51
400.917	1.02
401.127	35.84
401.336	-9.22
401.545	152.57
401.754	113.66
401.963	48.13
402.172	125.95
402.381	-68.61
402.59	64.51
402.799	101.37
403.008	109.57
403.217	31.74
403.426	50.18
403.635	-76.8
403.844	70.65
404.053	23.55
404.262	46.08
404.471	31.74
404.68	46.08
404.888	-7.17
405.097	-21.5
405.306	13.31
405.515	50.18
405.724	9.22
405.933	89.09
406.142	72.7
406.35	89.09
406.559	37.89
406.768	15.36
406.977	142.33
407.185	54.27
407.394	113.66
407.603	-50.18
407.812	52.22
408.02	52.22
408.229	72.7
408.438	-7.17
408.646	11.26
408.855	87.04
409.064	-29.7
409.272	54.27
409.481	27.65
409.69	-23.55
409.898	74.75
410.107	105.47
410.315	72.7
410.524	31.74
410.733	66.56
410.941	15.36
411.15	70.65
411.358	76.8
411.567	171.01
411.775	-13.31
411.984	-33.79
412.192	56.32
412.401	33.79
412.609	117.76
412.818	109.57
413.026	25.6
413.234	-11.26
413.443	-35.84
413.651	17.41
413.86	91.13
414.068	187.39
414.276	138.24
414.485	-19.46
414.693	105.47
414.901	111.61
415.11	56.32
415.318	54.27
415.526	5.12
415.734	97.28
415.943	3.07
416.151	70.65
416.359	-3.07
416.567	33.79
416.776	162.81
416.984	121.85
417.192	179.2
417.4	-54.27
417.608	11.26
417.817	-58.37
418.025	130.05
418.233	113.66
418.441	52.22
418.649	35.84
418.857	64.51
419.065	68.61
419.273	-107.52
419.481	123.9
419.689	58.37
419.897	21.5
420.105	-1.02
420.313	115.71
420.521	87.04
420.729	54.27
420.937	-70.65
421.145	25.6
421.353	62.46
421.561	130.05
421.769	11.26
421.977	-17.41
422.185	60.42
422.393	109.57
422.601	103.42
422.809	105.47
423.017	23.55
423.224	89.09
423.432	62.46
423.64	87.04
423.848	117.76
424.056	29.7
424.263	58.37
424.471	60.42
424.679	123.9
424.887	-13.31
425.094	115.71
425.302	41.98
425.51	5.12
425.718	132.09
425.925	68.61
426.133	64.51
426.341	179.2
426.548	19.46
426.756	7.17
426.964	-5.12
427.171	-9.22
427.379	56.32
427.586	103.42
427.794	111.61
428.001	138.24
428.209	66.56
428.417	154.62
428.624	82.94
428.832	154.62
429.039	80.89
429.247	107.52
429.454	19.46
429.662	146.43
429.869	68.61
430.076	29.7
430.284	97.28
430.491	185.34
430.699	113.66
430.906	148.48
431.114	142.33
431.321	80.89
431.528	76.8
431.736	105.47
431.943	136.19
432.15	144.38
432.358	154.62
432.565	242.68
432.772	-1.02
432.979	179.2
433.187	125.95
433.394	175.1
433.601	134.14
433.808	195.58
434.016	175.1
434.223	140.29
434.43	134.14
434.637	130.05
434.844	326.65
435.052	193.53
435.259	191.49
435.466	154.62
435.673	191.49
435.88	265.21
436.087	195.58
436.294	193.53
436.501	242.68
436.708	201.72
436.915	250.88
437.122	267.26
437.329	199.68
437.537	232.44
437.743	211.96
437.95	332.79
438.157	273.4
438.364	257.02
438.571	224.25
438.778	257.02
438.985	306.17
439.192	291.84
439.399	273.4
439.606	230.4
439.813	332.79
440.02	470.01
440.227	467.96
440.433	418.81
440.64	336.89
440.847	277.5
441.054	416.76
441.261	568.31
441.467	445.43
441.674	390.14
441.881	381.95
442.088	375.8
442.294	547.83
442.501	580.6
442.708	459.77
442.914	553.98
443.121	547.83
443.328	617.46
443.534	594.93
443.741	537.59
443.948	480.25
444.154	666.61
444.361	736.24
444.568	670.71
444.774	613.37
444.981	619.51
445.187	838.64
445.394	744.44
445.6	738.29
445.807	910.32
446.013	898.03
446.22	838.64
446.426	930.8
446.633	1041.39
446.839	1094.64
447.046	912.37
447.252	1102.83
447.459	1047.54
447.665	1051.63
447.871	1117.17
448.078	1319.92
448.284	1258.48
448.491	1362.92
448.697	1371.12
448.903	1410.03
449.11	1522.66
449.316	1500.14
449.522	1582.06
449.728	1704.93
449.935	1733.61
450.141	1555.43
450.347	1807.33
450.553	1856.48
450.76	1782.76
450.966	1899.49
451.172	1874.92
451.378	2051.04
451.584	2048.99
451.791	2358.24
451.997	2337.76
452.203	2280.41
452.409	2634.71
452.615	2647
452.821	2444.25
453.027	2517.98
453.233	3128.27
453.44	2718.68
453.646	2878.42
453.852	3040.21
454.058	3142.61
454.264	3326.93
454.47	3408.84
454.676	3460.04
454.882	3857.35
455.088	3767.24
455.294	3912.64
455.5	4049.86
455.705	4271.04
455.911	4344.77
456.117	4430.78
456.323	4471.74
456.529	4721.59
456.735	5055.41
456.941	5176.24
457.147	5358.51
457.352	5424.05
457.558	5645.23
457.764	5981.09
457.97	6032.29
458.176	6380.45
458.381	6828.95
458.587	6755.22
458.793	7203.73
458.999	7152.53
459.204	7932.81
459.41	8156.04
459.616	8283.01
459.821	8706.94
460.027	9091.96
460.233	9562.99
460.438	9513.84
460.644	9945.96
460.85	10232.68
461.055	10400.61
461.261	11213.65
461.466	10812.25
461.672	11004.76
461.878	12505.92
462.083	12186.44
462.289	12405.57
462.494	12770.11
462.7	13157.18
462.905	13331.25
463.111	14490.4
463.316	14889.76
463.522	15217.43
463.727	15520.53
463.932	16173.83
464.138	16562.95
464.343	17421.05
464.549	17744.63
464.754	18813.66
464.959	19110.62
465.165	19813.07
465.37	19555.03
465.575	19782.35
465.781	21068.48
465.986	21394.11
466.191	21215.93
466.397	21439.16
466.602	20869.83
466.807	21942.96
467.012	22330.03
467.218	22483.62
467.423	22672.04
467.628	23509.66
467.833	24404.62
468.038	24035.99
468.244	23675.54
468.449	24945.28
468.654	24232.59
468.859	24629.9
469.064	24556.17
469.269	24107.66
469.474	24291.98
469.679	25043.59
469.885	24058.51
470.09	24400.52
470.295	24382.09
470.5	24169.1
470.705	24087.18
470.91	23349.92
471.115	22995.62
471.32	23689.88
471.525	23319.2
471.73	22901.41
471.935	22788.77
472.139	21697.2
472.344	22110.89
472.549	21750.45
472.754	21269.18
472.959	20918.98
473.164	20079.31
473.369	19868.37
473.574	20566.73
473.778	19804.88
473.983	19659.48
474.188	19268.31
474.393	18340.58
474.598	18041.58
474.802	17670.9
475.007	17691.38
475.212	17375.99
475.417	16835.33
475.621	16689.92
475.826	16464.64
476.031	16165.64
476.235	15696.66
476.44	15751.95
476.645	15127.32
476.849	15203.1
477.054	14971.68
477.259	14351.14
477.463	14582.56
477.668	14093.1
477.872	14091.05
478.077	13822.77
478.282	13409.08
478.486	13325.11
478.691	13204.28
478.895	12909.37
479.1	12983.1
479.304	13110.07
479.509	12442.43
479.713	12706.62
479.918	12237.64
480.122	12153.67
480.326	12147.53
480.531	12055.37
480.735	12028.74
480.94	11703.12
481.144	11963.21
481.348	11617.1
481.553	11596.62
481.757	11027.29
481.961	11281.24
482.166	11205.46
482.37	11234.13
482.574	11031.38
482.778	10924.89
482.983	10906.46
483.187	10926.94
483.391	10787.68
483.595	10445.66
483.8	10636.13
484.004	10527.58
484.208	10552.16
484.412	10546.02
484.616	10136.42
484.821	10171.24
485.025	9718.64
485.229	9864.04
485.433	9657.2
485.637	9614.19
485.841	9345.91
486.045	9495.41
486.249	9253.75
486.453	9057.14
486.657	9073.53
486.861	8934.26
487.065	8862.58
487.269	8688.51
487.473	8502.14
487.677	8328.06
487.881	8336.26
488.085	8082.31
488.289	7984.01
488.493	7631.76
488.697	7879.56
488.901	7709.58
489.105	7484.3
489.309	7197.59
489.512	7273.36
489.716	7146.39
489.92	6921.11
490.124	6847.38
490.328	6945.69
490.531	6632.35
490.735	6693.79
490.939	6450.08
491.143	6294.43
491.346	6181.79
491.55	6413.21
491.754	6056.87
491.958	5989.28
492.161	5893.03
492.365	5708.71
492.569	5780.39
492.772	5682.09
492.976	5708.71
493.18	5321.65
493.383	5585.83
493.587	5303.22
493.79	5438.38
493.994	5206.96
494.197	5088.18
494.401	5118.9
494.605	5082.03
494.808	5079.99
495.012	5045.17
495.215	5079.99
495.419	4977.59
495.622	4938.68
495.825	4875.19
496.029	4844.47
496.232	4903.86
496.436	4838.33
496.639	4993.97
496.843	4844.47
497.046	4897.72
497.249	5104.56
497.453	4907.96
497.656	4729.78
497.859	5112.75
498.063	4922.29
498.266	5010.36
498.469	4905.91
498.673	5002.16
498.876	5118.9
499.079	4871.09
499.282	4914.1
499.485	5190.58
499.689	5198.77
499.892	5215.15
500.095	5102.51
500.298	5200.82
500.501	4918.2
500.705	5258.16
500.908	5272.5
501.111	5350.32
501.314	5401.52
501.517	5620.65
501.72	5665.71
501.923	5565.36
502.126	5651.37
502.329	5882.79
502.532	5852.07
502.735	5909.41
502.938	5841.83
503.141	6071.2
503.344	5905.32
503.547	6208.42
503.75	6198.18
503.953	6280.1
504.156	6359.97
504.359	6493.08
504.562	6505.37
504.765	6728.6
504.968	6781.85
505.17	6937.49
505.373	7093.14
505.576	7228.31
505.779	7224.21
505.982	7134.1
506.185	7543.69
506.387	7666.57
506.59	7736.2
506.793	8086.4
506.996	7953.29
507.198	8285.06
507.401	8491.9
507.604	8653.69
507.807	8862.58
508.009	9083.77
508.212	9034.61
508.415	9288.56
508.617	9462.64
508.82	9667.44
509.022	9929.58
509.225	10185.57
509.428	10382.18
509.63	10431.33
509.833	10697.56
510.035	11230.04
510.238	11088.73
510.44	11457.36
510.643	11623.25
510.845	12022.6
511.048	12073.8
511.25	12516.16
511.453	12694.33
511.655	13167.42
511.858	13329.2
512.06	13824.81
512.262	13929.26
512.465	14222.12
512.667	14609.19
512.87	14740.26
513.072	15233.82
513.274	15604.5
513.477	16071.43
513.679	16399.11
513.881	16886.53
514.084	17195.77
514.286	17412.85
514.488	17672.95
514.69	18574.05
514.893	18563.81
515.095	19163.87
515.297	19395.29
515.499	19702.48
515.701	20335.31
515.904	20853.44
516.106	21248.7
516.308	21830.32
516.51	22139.57
516.712	22356.65
516.914	22909.6
517.116	23419.55
517.318	24011.41
517.52	24558.22
517.722	24773.25
517.925	25244.29
518.127	26006.13
518.329	26495.6
518.531	26223.22
518.733	27484.76
518.935	27660.89
519.136	27986.52
519.338	28557.9
519.54	28830.28
519.742	29669.95
519.944	29798.97
520.146	30648.88
520.348	30683.69
520.55	31617.57
520.752	31666.72
520.954	32424.47
521.155	32027.16
521.357	33092.1
521.559	33706.49
521.761	33942.01
521.963	34054.65
522.164	34499.06
522.366	34757.1
522.568	35383.78
522.77	35590.62
522.971	36065.75
523.173	35854.81
523.375	36463.06
523.576	36745.68
523.778	36628.95
523.98	37247.43
524.181	37358.02
524.383	37048.78
524.584	37994.94
524.786	37716.42
524.988	37554.63
525.189	38156.73
525.391	38031.8
525.592	38181.31
525.794	38521.27
525.995	38236.6
526.197	38083
526.398	38523.32
526.6	38218.17
526.801	38328.76
527.003	38209.98
527.204	37923.26
527.406	38046.14
527.607	37941.69
527.808	37659.07
528.01	37040.59
528.211	37251.53
528.412	37513.67
528.614	37233.1
528.815	37018.06
529.016	37237.19
529.218	36155.86
529.419	35996.12
529.62	35774.94
529.822	35795.42
530.023	35385.83
530.224	35029.48
530.425	34517.49
530.626	34175.48
530.828	33690.11
531.029	34294.26
531.23	33137.16
531.431	33190.41
531.632	32786.96
531.833	32377.36
532.035	31844.89
532.236	31791.64
532.437	31296.03
532.638	31085.09
532.839	30769.71
533.04	30224.95
533.241	29723.19
533.442	29567.55
533.643	28826.18
533.844	28774.98
534.045	28369.49
534.246	27650.65
534.447	28084.82
534.648	27368.03
534.849	26899.05
535.05	26602.09
535.251	26317.42
535.451	25836.15
535.652	25518.71
535.853	25148.03
536.054	24801.93
536.255	24623.75
536.456	24033.94
536.657	24031.89
536.857	23618.2
537.058	23216.8
537.259	22971.04
537.46	22725.29
537.66	22332.08
537.861	22475.43
538.062	21506.74
538.263	21600.95
538.463	21316.28
538.664	21025.47
538.865	20628.17
539.065	20529.86
539.266	20011.73
539.466	20353.74
539.667	19706.58
539.868	19602.13
540.068	19272.41
540.269	19122.91
540.469	18942.69
540.67	18744.03
540.87	18449.13
541.071	18008.81
541.271	17865.46
541.472	18072.3
541.672	17361.66
541.873	17531.64
542.073	16866.05
542.274	17279.74
542.474	16894.72
542.675	16546.56
542.875	16691.97
543.075	16560.9
543.276	16163.59
543.476	16003.85
543.676	15545.11
543.877	15702.8
544.077	15381.27
544.277	15190.81
544.478	15067.93
544.678	15035.16
544.878	14822.17
545.078	14662.43
545.279	14306.09
545.479	13986.6
545.679	14428.96
545.879	14007.08
546.079	13728.56
546.28	13257.53
546.48	13392.69
546.68	13447.99
546.88	12970.81
547.08	13108.02
547.28	12913.47
547.48	12426.05
547.68	12579.65
547.88	12407.62
548.081	12477.25
548.281	11869
548.481	11608.91
548.681	11707.21
548.881	11582.29
549.081	11416.4
549.28	11410.26
549.48	11203.41
549.68	10984.28
549.88	11146.07
550.08	10597.21
550.28	10728.28
550.48	10500.96
550.68	10283.88
550.88	10101.61
551.08	10070.89
551.279	9997.16
551.479	9689.96
551.679	9608.05
551.879	9462.64
552.079	9407.34
552.278	9245.55
552.478	9188.21
552.678	8936.31
552.878	9030.52
553.077	8653.69
553.277	8438.66
553.477	8369.02
553.676	8311.68
553.876	8117.12
554.076	7865.22
554.275	7846.79
554.475	7633.8
554.674	7773.07
554.874	7566.22
555.074	7414.67
555.273	7238.55
555.473	7048.08
555.672	7015.32
555.872	6921.11
556.071	6794.14
556.271	6699.93
556.47	6738.84
556.67	6439.84
556.869	6284.19
557.068	6325.15
557.268	6380.45
557.467	6161.31
557.667	5985.19
557.866	5979.04
558.065	5641.13
558.265	5561.26
558.464	5567.4
558.663	5444.52
558.863	5475.24
559.062	5618.6
559.261	5335.98
559.461	5215.15
559.66	4881.33
559.859	4922.29
560.058	4965.3
560.258	4766.65
560.457	4754.36
560.656	4840.37
560.855	4619.19
561.054	4717.5
561.253	4494.27
561.453	4223.94
561.652	4348.86
561.851	4367.29
562.05	4086.72
562.249	4058.05
562.448	3969.99
562.647	3865.54
562.846	3926.98
563.045	3965.89
563.244	3734.47
563.443	3873.73
563.642	3716.04
563.841	3718.09
564.04	3677.13
564.239	3435.47
564.438	3431.37
564.637	3378.12
564.836	3435.47
565.035	3316.69
565.234	3242.96
565.432	3343.31
565.631	3171.28
565.83	3070.93
566.029	3017.68
566.228	2956.24
566.427	3070.93
566.625	2806.74
566.824	2849.75
567.023	2874.32
567.222	2778.07
567.42	2702.29
567.619	2661.34
567.818	2698.2
568.016	2888.66
568.215	2593.75
568.414	2608.09
568.612	2448.35
568.811	2309.08
569.01	2393.05
569.208	2304.99
569.407	2333.66
569.605	2343.9
569.804	2171.87
570.002	2286.56
570.201	2055.14
570.4	2165.73
570.598	2096.1
570.797	2085.86
570.995	1956.83
571.193	2042.85
571.392	1948.64
571.59	1922.02
571.789	2022.37
571.987	2018.27
572.186	2022.37
572.384	1815.52
572.582	1827.81
572.781	1846.24
572.979	1651.69
573.177	1797.09
573.376	1698.79
573.574	1666.02
573.772	1723.37
573.971	1543.14
574.169	1661.93
574.367	1666.02
574.565	1553.38
574.763	1588.2
574.962	1522.66
575.16	1426.41
575.358	1453.03
575.556	1444.84
575.754	1539.05
575.952	1371.12
576.151	1424.36
576.349	1338.35
576.547	1281
576.745	1293.29
576.943	1367.02
577.141	1272.81
577.339	1080.3
577.537	1305.58
577.735	1291.24
577.933	1229.81
578.131	1217.52
578.329	1154.03
578.527	1035.25
578.725	1192.94
578.923	965.62
579.121	1096.69
579.319	973.81
579.516	1094.64
579.714	1170.41
579.912	1061.87
580.11	859.12
580.308	986.1
580.506	959.47
580.704	881.65
580.901	889.84
581.099	1061.87
581.297	926.71
581.495	926.71
581.692	848.88
581.89	949.23
582.088	840.69
582.285	871.41
582.483	785.4
582.681	785.4
582.878	818.16
583.076	812.02
583.274	762.87
583.471	840.69
583.669	746.48
583.866	705.53
584.064	603.13
584.262	637.94
584.459	662.52
584.657	754.68
584.854	769.01
585.052	662.52
585.249	678.9
585.447	723.96
585.644	627.7
585.841	746.48
586.039	676.85
586.236	642.04
586.434	650.23
586.631	519.16
586.828	570.36
587.026	650.23
587.223	500.73
587.42	429.05
587.618	510.97
587.815	588.79
588.012	592.89
588.21	513.02
588.407	652.28
588.604	531.45
588.801	494.58
588.999	588.79
589.196	594.93
589.393	451.58
589.59	535.54
589.787	443.39
589.984	445.43
590.182	472.06
590.379	449.53
590.576	482.3
590.773	418.81
590.97	496.63
591.167	543.74
591.364	478.2
591.561	461.82
591.758	547.83
591.955	568.31
592.152	488.44
592.349	377.85
592.546	433.15
592.743	433.15
592.94	482.3
593.137	506.87
593.334	506.87
593.531	492.54
593.727	470.01
593.924	523.26
594.121	474.1
594.318	467.96
594.515	486.39
594.712	506.87
594.908	510.97
595.105	457.72
595.302	513.02
595.499	521.21
595.696	621.56
595.892	482.3
596.089	553.98
596.286	541.69
596.482	603.13
596.679	549.88
596.876	476.15
597.072	537.59
597.269	578.55
597.466	670.71
597.662	629.75
597.859	568.31
598.055	662.52
598.252	639.99
598.448	764.92
598.645	693.24
598.841	693.24
599.038	930.8
599.234	906.23
599.431	824.31
599.627	748.53
599.824	916.47
600.02	752.63
600.217	879.6
600.413	916.47
600.609	949.23
600.806	1235.95
601.002	1119.21
601.198	990.19
601.395	1213.42
601.591	1176.56
601.787	1262.57
601.984	1379.31
602.18	1246.19
602.376	1346.54
602.572	1489.9
602.769	1557.48
602.965	1453.03
603.161	1686.5
603.357	1639.4
603.553	1797.09
603.75	1627.11
603.946	1819.62
604.142	1817.57
604.338	1922.02
604.534	1948.64
604.73	2003.94
604.926	2141.15
605.122	2259.93
605.318	2212.83
605.514	2206.69
605.71	2397.15
605.906	2497.5
606.102	2530.27
606.298	2673.62
606.494	2591.7
606.69	2780.12
606.886	2833.36
607.082	2788.31
607.278	2923.48
607.474	3066.83
607.67	3144.66
607.866	3255.25
608.062	3417.04
608.257	3324.88
608.453	3453.9
608.649	3611.59
608.845	3623.88
609.041	3668.94
609.236	4002.75
609.432	3976.13
609.628	4146.11
609.824	4297.66
610.019	4225.98
610.215	4322.24
610.411	4545.47
610.606	4715.45
610.802	4660.15
610.998	4967.35
611.193	5024.69
611.389	5159.86
611.584	5258.16
611.78	5520.3
611.976	5440.43
612.171	5870.5
612.367	5903.27
612.562	5911.46
612.758	6155.17
612.953	6112.16
613.149	6263.71
613.344	6552.48
613.539	6871.96
613.735	7050.13
613.93	7097.24
614.126	7119.76
614.321	7564.17
614.517	7822.22
614.712	7816.07
614.907	8047.49
615.103	8115.08
615.298	8436.61
615.493	8649.6
615.688	8620.92
615.884	9290.61
616.079	9384.82
616.274	9634.67
616.47	9749.36
616.665	9825.13
616.86	10142.57
617.055	10533.73
617.25	10881.88
617.445	11029.34
617.641	11127.64
617.836	11715.41
618.031	11596.62
618.226	12092.23
618.421	12364.61
618.616	12710.72
618.811	12655.42
619.006	13302.58
619.201	13540.15
619.396	13843.24
619.591	13714.22
619.786	14482.21
619.981	14365.48
620.176	15045.4
620.371	15000.35
620.566	15624.98
620.761	15981.32
620.956	16012.04
621.151	16478.98
621.346	17056.51
621.541	17193.72
621.735	17722.1
621.93	17527.54
622.125	17857.26
622.32	18146.03
622.515	18766.56
622.709	18926.3
622.904	19444.44
623.099	19542.74
623.294	20214.48
623.488	20548.29
623.683	20839.11
623.878	21154.49
624.072	21449.4
624.267	21582.52
624.462	22037.17
624.656	22012.59
624.851	22713
625.046	22870.69
625.24	23407.26
625.435	23501.47
625.629	24101.52
625.824	24160.91
626.018	24461.96
626.213	24382.09
626.407	25193.09
626.602	25473.66
626.796	25453.18
626.991	25940.6
627.185	26024.56
627.38	26133.11
627.574	26559.08
627.768	26462.83
627.963	26804.84
628.157	26530.41
628.352	26978.92
628.546	26360.43
628.74	27265.63
628.935	26583.66
629.129	26976.87
629.323	26444.4
629.517	26641
629.712	26542.7
629.906	26219.12
630.1	26042.99
630.294	26135.15
630.489	25541.24
630.683	25451.13
630.877	24613.51
631.071	24347.28
631.265	24396.43
631.459	23708.31
631.653	23071.39
631.848	22925.99
632.042	22002.35
632.236	21815.99
632.43	20871.87
632.624	20216.52
632.818	19884.75
633.012	19641.04
633.206	18623.2
633.4	18397.93
633.594	17554.16
633.788	17005.31
633.982	16581.38
634.176	16141.07
634.369	15180.57
634.563	14727.97
634.757	14177.06
634.951	13486.9
635.145	13269.81
635.339	12581.7
635.533	12092.23
635.726	11414.35
635.92	11094.87
636.114	10562.4
636.308	10466.14
636.501	9886.57
636.695	9358.19
636.889	9005.94
637.083	8584.06
637.276	8336.26
637.47	7924.62
637.664	7527.31
637.857	7330.7
638.051	7138.2
638.244	6835.1
638.438	6417.31
638.632	6284.19
638.825	5915.56
639.019	5903.27
639.212	5497.77
639.406	5362.61
639.599	5196.72
639.793	4912.05
639.986	4742.07
640.18	4488.12
640.373	4395.96
640.567	4172.74
640.76	4064.19
640.954	3816.39
641.147	3627.98
641.34	3646.41
641.534	3455.95
641.727	3539.91
641.92	3111.89
642.114	3130.32
642.307	2956.24
642.5	2841.56
642.694	2708.44
642.887	2556.89
643.08	2708.44
643.273	2483.16
643.467	2376.67
643.66	2237.41
643.853	2081.76
644.046	2081.76
644.239	1983.46
644.432	1799.14
644.626	1790.95
644.819	1838.05
645.012	1768.42
645.205	1668.07
645.398	1510.38
645.591	1588.2
645.784	1416.17
645.977	1432.55
646.17	1369.07
646.363	1354.73
646.556	1211.37
646.749	1162.22
646.942	1264.62
647.135	1192.94
647.328	1047.54
647.521	1127.41
647.714	1080.3
647.907	965.62
648.099	957.43
648.292	848.88
648.485	871.41
648.678	783.35
648.871	781.3
649.064	685.05
649.256	668.66
649.449	705.53
649.642	662.52
649.835	619.51
650.027	658.42
650.22	740.34
650.413	572.41
650.605	619.51
650.798	543.74
650.991	607.22
651.183	515.06
651.376	592.89
651.568	523.26
651.761	429.05
651.954	502.78
652.146	408.57
652.339	517.11
652.531	486.39
652.724	289.79
652.916	363.51
653.109	261.12
653.301	467.96
653.494	338.94
653.686	424.95
653.879	424.95
654.071	410.62
654.263	291.84
654.456	252.92
654.648	326.65
654.84	302.08
655.033	269.31
655.225	431.1
655.417	240.64
655.61	318.46
655.802	291.84
655.994	357.37
656.186	203.77
656.379	234.49
656.571	224.25
656.763	195.58
656.955	203.77
657.148	193.53
657.34	338.94
657.532	218.11
657.724	234.49
657.916	261.12
658.108	240.64
658.3	267.26
658.492	195.58
658.684	166.91
658.876	257.02
659.068	132.09
659.26	105.47
659.452	187.39
659.644	187.39
659.836	297.98
660.028	168.96
660.22	117.76
660.412	183.29
660.604	132.09
660.796	191.49
660.988	281.6
661.18	236.54
661.372	269.31
661.563	138.24
661.755	175.1
661.947	74.75
662.139	101.37
662.331	109.57
662.522	80.89
662.714	138.24
662.906	78.85
663.097	109.57
663.289	48.13
663.481	70.65
663.673	105.47
663.864	201.72
664.056	181.25
664.247	105.47
664.439	173.05
664.631	105.47
664.822	162.81
665.014	136.19
665.205	52.22
665.397	95.23
665.588	58.37
665.78	187.39
665.971	160.77
666.163	87.04
666.354	199.68
666.546	130.05
666.737	29.7
666.929	80.89
667.12	97.28
667.311	109.57
667.503	-1.02
667.694	171.01
667.885	111.61
668.077	148.48
668.268	-11.26
668.459	136.19
668.651	103.42
668.842	160.77
669.033	60.42
669.224	-7.17
669.416	168.96
669.607	17.41
669.798	103.42
669.989	199.68
670.18	39.94
670.371	111.61
670.563	3.07
670.754	248.83
670.945	160.77
671.136	138.24
671.327	105.47
671.518	177.15
671.709	238.59
671.9	121.85
672.091	168.96
672.282	121.85
672.473	177.15
672.664	111.61
672.855	164.86
673.046	99.33
673.237	216.06
673.428	115.71
673.619	191.49
673.809	109.57
674	191.49
674.191	160.77
674.382	142.33
674.573	117.76
674.764	138.24
674.954	207.87
675.145	91.13
675.336	115.71
675.527	91.13
675.717	60.42
675.908	162.81
676.099	62.46
676.289	179.2
676.48	-9.22
676.671	68.61
676.861	154.62
677.052	134.14
677.243	130.05
677.433	185.34
677.624	185.34
677.814	199.68
678.005	209.92
678.195	156.67
678.386	80.89
678.576	177.15
678.767	115.71
678.957	144.38
679.148	162.81
679.338	261.12
679.529	197.63
679.719	175.1
679.909	273.4
680.1	226.3
680.29	220.16
680.481	87.04
680.671	232.44
680.861	187.39
681.052	171.01
681.242	121.85
681.432	195.58
681.622	226.3
681.813	152.57
682.003	228.35
682.193	84.99
682.383	166.91
682.573	150.53
682.764	146.43
682.954	179.2
683.144	349.18
683.334	218.11
683.524	154.62
683.714	203.77
683.904	195.58
684.094	179.2
684.284	259.07
684.474	330.75
684.664	273.4
684.854	283.64
685.044	197.63
685.234	236.54
685.424	308.22
685.614	142.33
685.804	330.75
685.994	207.87
686.184	203.77
686.374	154.62
686.564	252.92
686.753	179.2
686.943	171.01
687.133	128
687.323	183.29
687.513	216.06
687.702	187.39
687.892	152.57
688.082	269.31
688.272	275.45
688.461	148.48
688.651	359.42
688.841	193.53
689.03	211.96
689.22	203.77
689.41	230.4
689.599	242.68
689.789	187.39
689.979	250.88
690.168	187.39
690.358	228.35
690.547	142.33
690.737	261.12
690.926	228.35
691.116	185.34
691.305	310.27
691.495	281.6
691.684	142.33
691.874	179.2
692.063	201.72
692.252	291.84
692.442	232.44
692.631	222.2
692.82	201.72
693.01	158.72
693.199	128
693.388	224.25
693.578	70.65
693.767	201.72
693.956	275.45
694.146	216.06
694.335	187.39
694.524	142.33
694.713	232.44
694.902	152.57
695.092	142.33
695.281	199.68
695.47	179.2
695.659	252.92
695.848	224.25
696.037	148.48
696.226	279.55
696.415	250.88
696.604	304.12
696.793	269.31
696.982	152.57
697.171	265.21
697.36	171.01
697.549	179.2
697.738	101.37
697.927	164.86
698.116	201.72
698.305	240.64
698.494	146.43
698.683	179.2
698.872	316.41
699.061	142.33
699.25	146.43
699.438	168.96
699.627	166.91
699.816	353.27
700.005	138.24
700.193	99.33
700.382	234.49
700.571	173.05
700.76	203.77
700.948	216.06
701.137	187.39
701.326	158.72
701.514	84.99
701.703	160.77
701.892	236.54
702.08	273.4
702.269	175.1
702.457	148.48
702.646	191.49
702.834	130.05
703.023	148.48
703.212	252.92
703.4	171.01
703.589	125.95
703.777	158.72
703.965	138.24
704.154	97.28
704.342	84.99
704.531	197.63
704.719	199.68
704.907	205.82
705.096	60.42
705.284	121.85
705.472	166.91
705.661	220.16
705.849	187.39
706.037	242.68
706.226	265.21
706.414	117.76
706.602	68.61
706.79	273.4
706.979	121.85
707.167	175.1
707.355	93.18
707.543	263.16
707.731	248.83
707.919	197.63
708.107	158.72
708.296	138.24
708.484	60.42
708.672	168.96
708.86	254.97
709.048	238.59
709.236	173.05
709.424	230.4
709.612	209.92
709.8	87.04
709.988	125.95
710.176	166.91
710.364	353.27
710.551	195.58
710.739	158.72
710.927	248.83
711.115	209.92
711.303	275.45
711.491	259.07
711.679	166.91
711.866	185.34
712.054	168.96
712.242	259.07
712.43	275.45
712.617	130.05
712.805	211.96
712.993	152.57
713.181	123.9
713.368	207.87
713.556	171.01
713.744	144.38
713.931	349.18
714.119	259.07
714.306	138.24
714.494	275.45
714.682	209.92
714.869	146.43
715.057	177.15
715.244	97.28
715.432	191.49
715.619	107.52
715.807	207.87
715.994	187.39
716.182	232.44
716.369	175.1
716.556	224.25
716.744	128
716.931	72.7
717.119	261.12
717.306	232.44
717.493	187.39
717.681	181.25
717.868	144.38
718.055	228.35
718.242	158.72
718.43	224.25
718.617	234.49
718.804	236.54
718.991	269.31
719.179	209.92
719.366	248.83
719.553	232.44
719.74	250.88
719.927	171.01
720.114	287.74
720.301	148.48
720.488	207.87
720.676	214.01
720.863	322.56
721.05	334.84
721.237	166.91
721.424	267.26
721.611	189.44
721.798	93.18
721.985	228.35
722.172	209.92
722.358	160.77
722.545	302.08
722.732	271.36
722.919	232.44
723.106	345.08
723.293	218.11
723.48	265.21
723.667	214.01
723.853	293.88
724.04	228.35
724.227	224.25
724.414	191.49
724.6	252.92
724.787	361.47
724.974	353.27
725.161	105.47
725.347	171.01
725.534	244.73
725.72	183.29
725.907	277.5
726.094	318.46
726.28	308.22
726.467	244.73
726.653	162.81
726.84	388.09
727.027	441.34
727.213	259.07
727.4	250.88
727.586	250.88
727.773	283.64
727.959	207.87
728.145	310.27
728.332	252.92
728.518	150.53
728.705	383.99
728.891	246.78
729.077	277.5
729.264	123.9
729.45	216.06
729.636	269.31
729.823	236.54
730.009	375.8
730.195	334.84
730.382	261.12
730.568	197.63
730.754	242.68
730.94	318.46
731.126	218.11
731.313	338.94
731.499	199.68
731.685	318.46
731.871	236.54
732.057	275.45
732.243	297.98
732.429	322.56
732.615	367.61
732.801	355.32
732.987	244.73
733.173	189.44
733.359	193.53
733.545	318.46
733.731	209.92
733.917	359.42
734.103	285.69
734.289	310.27
734.475	324.6
734.661	424.95
734.847	322.56
735.033	257.02
735.219	312.32
735.404	173.05
735.59	263.16
735.776	246.78
735.962	224.25
736.148	316.41
736.333	392.19
736.519	310.27
736.705	347.13
736.89	214.01
737.076	228.35
737.262	265.21
737.447	187.39
737.633	289.79
737.819	281.6
738.004	371.71
738.19	248.83
738.375	259.07
738.561	351.23
738.747	281.6
738.932	205.82
739.118	441.34
739.303	330.75
739.489	310.27
739.674	302.08
739.859	248.83
740.045	306.17
740.23	351.23
740.416	216.06
740.601	300.03
740.786	265.21
740.972	168.96
741.157	273.4
741.342	218.11
741.528	203.77
741.713	302.08
741.898	248.83
742.084	328.7
742.269	357.37
742.454	281.6
742.639	279.55
742.824	248.83
743.01	367.61
743.195	396.28
743.38	338.94
743.565	244.73
743.75	373.75
743.935	275.45
744.12	285.69
744.305	152.57
744.49	228.35
744.675	261.12
744.86	203.77
745.045	347.13
745.23	240.64
745.415	269.31
745.6	302.08
745.785	220.16
745.97	310.27
746.155	279.55
746.34	326.65
746.525	330.75
746.71	300.03
746.895	181.25
747.079	214.01
747.264	162.81
747.449	281.6
747.634	181.25
747.819	207.87
748.003	316.41
748.188	195.58
748.373	283.64
748.557	209.92
748.742	226.3
748.927	236.54
749.111	226.3
749.296	181.25
749.481	310.27
749.665	242.68
749.85	242.68
750.034	316.41
750.219	322.56
750.404	218.11
750.588	281.6
750.773	279.55
750.957	326.65
751.141	287.74
751.326	275.45
751.51	97.28
751.695	179.2
751.879	162.81
752.064	310.27
752.248	179.2
752.432	289.79
752.617	343.03
752.801	310.27
752.985	211.96
753.17	238.59
753.354	248.83
753.538	216.06
753.722	189.44
753.907	224.25
754.091	70.65
754.275	316.41
754.459	125.95
754.643	105.47
754.828	261.12
755.012	240.64
755.196	146.43
755.38	144.38
755.564	181.25
755.748	187.39
755.932	254.97
756.116	171.01
756.3	173.05
756.484	109.57
756.668	236.54
756.852	107.52
757.036	168.96
757.22	236.54
757.404	117.76
757.588	187.39
757.772	248.83
757.956	197.63
758.14	250.88
758.323	185.34
758.507	242.68
758.691	158.72
758.875	160.77
759.059	252.92
759.242	144.38
759.426	128
759.61	152.57
759.794	115.71
759.977	246.78
760.161	439.29
760.345	228.35
760.528	175.1
760.712	146.43
760.895	152.57
761.079	160.77
761.263	95.23
761.446	89.09
761.63	119.81
761.813	242.68
761.997	64.51
762.18	189.44
762.364	265.21
762.547	70.65
762.731	168.96
762.914	125.95
763.098	201.72
763.281	72.7
763.464	150.53
763.648	136.19
763.831	144.38
764.015	113.66
764.198	216.06
764.381	121.85
764.564	177.15
764.748	138.24
764.931	117.76
765.114	64.51
765.297	156.67
765.481	74.75
765.664	216.06
765.847	101.37
766.03	187.39
766.213	175.1
766.397	99.33
766.58	46.08
766.763	160.77
766.946	136.19
767.129	60.42
767.312	66.56
767.495	113.66
767.678	109.57
767.861	171.01
768.044	101.37
768.227	82.94
768.41	70.65
768.593	64.51
768.776	140.29
768.959	41.98
769.142	216.06
769.324	15.36
769.507	78.85
769.69	80.89
769.873	64.51
770.056	269.31
770.239	166.91
770.421	154.62
770.604	87.04
770.787	107.52
770.97	117.76
771.152	31.74
771.335	84.99
771.518	33.79
771.7	183.29
771.883	130.05
772.066	50.18
772.248	27.65
772.431	101.37
772.613	152.57
772.796	39.94
772.978	168.96
773.161	199.68
773.343	35.84
773.526	64.51
773.708	-54.27
773.891	52.22
774.073	23.55
774.256	95.23
774.438	250.88
774.621	103.42
774.803	76.8
774.985	199.68
775.168	164.86
775.35	48.13
775.532	117.76
775.715	46.08
775.897	48.13
776.079	76.8
776.261	72.7
776.444	97.28
776.626	56.32
776.808	99.33
776.99	-11.26
777.173	48.13
777.355	-9.22
777.537	80.89
777.719	109.57
777.901	70.65
778.083	9.22
778.265	68.61
778.447	128
778.629	-82.94
778.811	72.7
778.993	84.99
779.175	111.61
779.357	162.81
779.539	11.26
779.721	52.22
779.903	97.28
780.085	70.65
780.267	72.7
780.449	162.81
780.631	64.51
780.812	168.96
780.994	19.46
781.176	23.55
781.358	132.09
781.54	115.71
781.721	31.74
781.903	64.51
782.085	87.04
782.267	136.19
782.448	15.36
782.63	21.5
782.812	93.18
782.993	93.18
783.175	46.08
783.357	35.84
783.538	128
783.72	-46.08
783.901	68.61
784.083	142.33
784.264	72.7
784.446	29.7
784.627	5.12
784.809	19.46
784.99	1.02
785.172	70.65
785.353	50.18
785.535	62.46
785.716	66.56
785.897	54.27
786.079	19.46
786.26	25.6
786.441	121.85
786.623	19.46
786.804	52.22
786.985	68.61
787.167	52.22
787.348	3.07
787.529	64.51
787.71	150.53
787.891	132.09
788.073	-11.26
788.254	-19.46
788.435	125.95
788.616	29.7
788.797	-66.56
788.978	48.13
789.159	23.55
789.34	46.08
789.522	64.51
789.703	-33.79
789.884	37.89
790.065	121.85
790.246	123.9
790.427	39.94
790.607	99.33
790.788	109.57
790.969	9.22
791.15	70.65
791.331	62.46
791.512	-15.36
791.693	-1.02
791.874	70.65
792.054	187.39
792.235	121.85
792.416	-9.22
792.597	-17.41
792.778	72.7
792.958	87.04
793.139	11.26
793.32	-33.79
793.5	-17.41
793.681	101.37
793.862	11.26
794.042	-7.17
794.223	-1.02
794.404	62.46
794.584	-15.36
794.765	11.26
794.945	23.55
795.126	70.65
795.306	162.81
795.487	27.65
795.667	7.17
795.848	13.31
796.028	-1.02
796.209	78.85
796.389	31.74
796.57	21.5
796.75	35.84
796.93	-11.26
797.111	-41.98
797.291	-37.89
797.471	31.74
797.652	62.46
797.832	-5.12
798.012	72.7
798.192	-50.18
798.373	-46.08
798.553	35.84
798.733	50.18
798.913	-46.08
799.093	-41.98
799.274	48.13
799.454	60.42
799.634	121.85
799.814	97.28
799.994	121.85
800.174	66.56
800.354	39.94
800.534	-39.94
800.714	84.99
800.894	-48.13
801.074	-72.7
801.254	19.46
801.434	97.28
801.614	-27.65
801.794	-74.75
801.974	1756.13
802.154	48.13
802.334	72.7
802.514	-93.18
802.693	-25.6
802.873	23.55
803.053	56.32
803.233	-13.31
803.413	78.85
803.592	-41.98
803.772	-21.5
803.952	72.7
804.131	-15.36
804.311	68.61
804.491	105.47
804.67	-95.23
804.85	-3.07
805.03	74.75
805.209	70.65
805.389	46.08
805.568	39.94
805.748	-25.6
805.928	41.98
806.107	13.31
806.287	-3.07
806.466	17.41
806.646	-3.07
806.825	39.94
807.004	19.46
807.184	89.09
807.363	44.03
807.543	62.46
807.722	19.46
807.901	103.42
808.081	-25.6
808.26	-107.52
808.439	82.94
808.619	76.8
808.798	-11.26
808.977	3.07
809.156	89.09
809.336	-11.26
809.515	107.52
809.694	-1.02
809.873	-62.46
810.052	13.31
810.231	160.77
810.411	37.89
810.59	15.36
810.769	-15.36
810.948	50.18
811.127	-181.25
811.306	-13.31
811.485	-25.6
811.664	105.47
811.843	-25.6
812.022	-15.36
812.201	7.17
812.38	33.79
812.559	3.07
812.737	66.56
812.916	-54.27
813.095	-54.27
813.274	68.61
813.453	23.55
813.632	-11.26
813.811	105.47
813.989	-7.17
814.168	37.89
814.347	-27.65
814.526	35.84
814.704	70.65
814.883	87.04
815.062	-25.6
815.24	19.46
815.419	-9.22
815.598	62.46
815.776	-84.99
815.955	25.6
816.133	-119.81
816.312	15.36
816.49	9.22
816.669	50.18
816.847	-1.02
817.026	52.22
817.204	-1.02
817.383	5.12
817.561	-25.6
817.74	23.55
817.918	113.66
818.097	-29.7
818.275	13.31
818.453	87.04
818.632	27.65
818.81	9.22
818.988	-48.13
819.167	-1.02
819.345	-41.98
819.523	37.89
819.701	41.98
819.879	19.46
820.058	3.07
820.236	19.46
820.414	-3.07
820.592	7.17
820.77	-15.36
820.948	-5.12
821.127	-27.65
821.305	23.55
821.483	-58.37
821.661	72.7
821.839	-5.12
822.017	-82.94
822.195	-113.66
822.373	21.5
822.551	39.94
822.729	80.89
822.907	19.46
823.085	56.32
823.262	54.27
823.44	-37.89
823.618	-21.5
823.796	-13.31
823.974	13.31
824.152	-58.37
824.329	-95.23
824.507	-7.17
824.685	46.08
824.863	-23.55
825.04	93.18
825.218	-13.31
825.396	66.56
825.574	13.31
825.751	1.02
825.929	60.42
826.107	-76.8
826.284	50.18
826.462	23.55
826.639	13.31
826.817	-70.65
826.994	-17.41
827.172	-1.02
827.349	171.01
827.527	60.42
827.704	46.08
827.882	66.56
828.059	84.99
828.237	-33.79
828.414	66.56
828.591	-95.23
828.769	3.07
828.946	-33.79
829.124	17.41
829.301	72.7
829.478	70.65
829.655	5.12
829.833	54.27
830.01	-119.81
830.187	68.61
830.364	1.02
830.542	1.02
830.719	66.56
830.896	11.26
831.073	66.56
831.25	-25.6
831.427	15.36
831.604	-25.6
831.782	-99.33
831.959	-11.26
832.136	-74.75
832.313	62.46
832.49	3.07
832.667	1.02
832.844	-35.84
833.021	105.47
833.198	19.46
833.374	29.7
833.551	62.46
833.728	7.17
833.905	52.22
834.082	-17.41
834.259	72.7
834.436	138.24
834.612	-82.94
834.789	37.89
834.966	113.66
835.143	64.51
835.319	27.65
835.496	31.74
835.673	-17.41
835.85	113.66
836.026	72.7
836.203	41.98
836.38	21.5
836.556	-11.26
836.733	78.85
836.909	60.42
837.086	-3.07
837.262	31.74
837.439	31.74
837.616	7.17
837.792	-3.07
837.968	-19.46
838.145	-99.33
838.321	-27.65
838.498	31.74
838.674	11.26
838.851	29.7
839.027	-87.04
839.203	44.03
839.38	62.46
839.556	-35.84
839.732	39.94
839.909	19.46
840.085	80.89
840.261	21.5
840.437	-23.55
840.614	-31.74
840.79	93.18
840.966	27.65
841.142	-29.7
841.318	3.07
841.494	72.7
841.671	-9.22
841.847	-80.89
842.023	-11.26
842.199	1.02
842.375	64.51
842.551	-70.65
842.727	-93.18
842.903	173.05
843.079	23.55
843.255	56.32
843.431	13.31
843.607	9.22
843.783	-95.23
843.959	93.18
844.134	-41.98
844.31	78.85
844.486	-17.41
844.662	-25.6
844.838	62.46
845.013	-15.36
845.189	82.94
845.365	-1.02
845.541	-21.5
845.716	54.27
845.892	3.07
846.068	-46.08
846.244	-3.07
846.419	-5.12
846.595	-62.46
846.77	-93.18
846.946	46.08
847.122	-13.31
847.297	-9.22
847.473	64.51
847.648	-25.6
847.824	35.84
847.999	-29.7
848.175	-52.22
848.35	78.85
848.526	80.89
848.701	125.95
848.876	50.18
849.052	21.5
849.227	5.12
849.403	-33.79
849.578	-64.51
849.753	13.31
849.929	9.22
850.104	-82.94
850.279	29.7
850.454	-29.7
850.63	103.42
850.805	7.17
850.98	5.12
851.155	-11.26
851.33	37.89
851.505	-52.22
851.681	52.22
851.856	29.7
852.031	64.51
852.206	39.94
852.381	-9.22
852.556	-23.55
852.731	-41.98
852.906	111.61
853.081	23.55
853.256	62.46
853.431	97.28
853.606	-52.22
853.781	-29.7
853.956	-91.13
854.131	23.55
854.305	-74.75
854.48	-5.12
854.655	-44.03
854.83	-60.42
855.005	11.26
855.18	29.7
855.354	-25.6
855.529	9.22
855.704	13.31
855.879	27.65
856.053	-62.46
856.228	33.79
856.403	-3.07
856.577	48.13
856.752	-74.75
856.926	35.84
857.101	39.94
857.276	-72.7
857.45	-60.42
857.625	15.36
857.799	5.12
857.974	-3.07
858.148	-91.13
858.323	56.32
858.497	-27.65
858.672	-37.89
858.846	-70.65
859.02	109.57
859.195	-54.27
859.369	60.42
859.543	1.02
859.718	56.32
859.892	21.5
860.066	-68.61
860.241	-17.41
860.415	-66.56
860.589	-44.03
860.763	44.03
860.938	-25.6
861.112	35.84
861.286	-11.26
861.46	-21.5
861.634	-41.98
861.808	35.84
861.982	-76.8
862.157	-9.22
862.331	-21.5
862.505	-76.8
862.679	-136.19
862.853	-17.41
863.027	-56.32
863.201	121.85
863.375	-80.89
863.549	54.27
863.722	-58.37
863.896	89.09
864.07	-62.46
864.244	97.28
864.418	-46.08
864.592	-37.89
864.766	37.89
864.939	-52.22
865.113	31.74
865.287	27.65
865.461	-87.04
865.634	23.55
865.808	-84.99
865.982	-68.61
866.156	-74.75
866.329	-80.89
866.503	41.98
866.676	39.94
866.85	7.17
867.024	-11.26
867.197	29.7
867.371	-11.26
867.544	78.85
867.718	-13.31
867.891	35.84
868.065	-68.61
868.238	-3.07
868.412	109.57
868.585	3.07
868.759	-87.04
868.932	-78.85
869.105	-21.5
869.279	-29.7
869.452	27.65
869.625	-66.56
869.799	95.23
869.972	-25.6
870.145	-52.22
870.319	64.51
870.492	23.55
870.665	25.6
870.838	-19.46
871.011	-130.05
871.185	-11.26
871.358	-15.36
871.531	23.55
871.704	-9.22
871.877	-48.13
872.05	-1.02
872.223	-109.57
872.396	23.55
872.569	-68.61
872.742	-19.46
872.915	15.36
873.088	-1.02
873.261	-70.65
873.434	107.52
873.607	-44.03
873.78	101.37
873.953	-66.56
874.126	-11.26
874.299	60.42
874.471	15.36
874.644	-17.41
874.817	-5.12
874.99	93.18
875.163	7.17
875.335	27.65
875.508	-52.22
875.681	82.94
875.853	19.46
876.026	-5.12
876.199	5.12
876.371	25.6
876.544	-9.22
876.717	27.65
876.889	-13.31
877.062	7.17
877.234	-29.7
877.407	-48.13
877.579	50.18
877.752	-41.98
877.924	23.55
878.097	56.32
878.269	-35.84
878.442	19.46
878.614	-7.17
878.786	-29.7
878.959	15.36
879.131	66.56
879.303	-87.04
879.476	-13.31
879.648	89.09
879.82	15.36
879.993	-41.98
880.165	33.79
880.337	-156.67
880.509	-17.41
880.681	-23.55
880.854	-5.12
881.026	29.7
881.198	93.18
881.37	-27.65
881.542	-19.46
881.714	35.84
881.886	-17.41
882.058	37.89
882.23	66.56
882.402	-35.84
882.574	52.22
882.746	37.89
882.918	39.94
883.09	13.31
883.262	-46.08
883.434	23.55
883.606	-84.99
883.778	15.36
883.95	89.09
884.122	44.03
884.293	9.22
884.465	-13.31
884.637	76.8
884.809	-17.41
884.98	11.26
885.152	62.46
885.324	23.55
885.496	-121.85
885.667	-46.08
885.839	-11.26
886.011	84.99
886.182	23.55
886.354	99.33
886.525	7.17
886.697	60.42
886.869	-91.13
887.04	-29.7
887.212	-5.12
887.383	128
887.555	19.46
887.726	-52.22
887.897	-66.56
888.069	58.37
888.24	74.75
888.412	-11.26
888.583	35.84
888.754	-9.22
888.926	-74.75
889.097	-54.27
889.268	-115.71
889.44	-17.41
889.611	-109.57
889.782	-19.46
889.953	-70.65
890.125	84.99
890.296	-1.02
890.467	-62.46
890.638	-13.31
890.809	-31.74
890.98	-35.84
891.151	39.94
891.323	60.42
891.494	21.5
891.665	56.32
891.836	39.94
892.007	21.5
892.178	17.41
892.349	-13.31
892.52	-15.36
892.691	19.46
892.862	-9.22
893.032	-25.6
893.203	-37.89
893.374	-23.55
893.545	60.42
893.716	-13.31
893.887	72.7
894.057	-33.79
894.228	35.84
894.399	-41.98
894.57	72.7
894.74	3.07
894.911	-17.41
895.082	-27.65
895.253	-25.6
895.423	23.55
895.594	109.57
895.764	21.5
895.935	-74.75
896.106	-13.31
896.276	23.55
896.447	-46.08
896.617	-17.41
896.788	-164.86
896.958	-52.22
897.129	87.04
897.299	-44.03
897.47	105.47
897.64	-17.41
897.81	-1.02
897.981	11.26
898.151	-64.51
898.322	-3.07
898.492	29.7
898.662	-89.09
898.832	-35.84
899.003	-41.98
899.173	87.04
899.343	5.12
899.513	-70.65
