Data from USB4F104151__0__10-21-52-475.txt Node

Date: Wed Feb 26 10:21:52 EST 2025
User: louis
Spectrometer: USB4F10415
Trigger mode: 4
Integration Time (sec): 1.000000E-1
Scans to average: 1
Electric dark correction enabled: true
Nonlinearity correction enabled: false
Boxcar width: 0
XAxis mode: Wavelengths
Number of Pixels in Spectrum: 3648
>>>>>Begin Spectral Data<<<<<
178.204	-418.98
178.424	-418.98
178.644	-418.98
178.864	-378.02
179.084	-324.77
179.304	7
179.524	0.85
179.744	-58.54
179.964	52.05
180.184	-17.58
180.404	-33.96
180.624	27.48
180.844	-27.82
181.064	-7.34
181.283	78.68
181.503	-7.34
181.723	-13.48
181.943	-56.49
182.163	138.07
182.383	-38.06
182.602	72.53
182.822	105.3
183.042	-11.43
183.262	-29.87
183.482	7
183.701	54.1
183.921	-1.19
184.141	-48.3
184.361	109.4
184.58	86.87
184.8	78.68
185.02	-5.29
185.239	113.49
185.459	93.01
185.679	68.44
185.898	33.62
186.118	50
186.338	136.02
186.557	101.2
186.777	-7.34
186.997	41.81
187.216	70.48
187.436	181.07
187.655	4.95
187.875	107.35
188.095	70.48
188.314	203.6
188.534	127.83
188.753	-29.87
188.973	152.4
189.192	117.59
189.412	-13.48
189.631	66.39
189.851	29.52
190.07	148.31
190.29	-7.34
190.509	-60.59
190.729	72.53
190.948	183.12
191.168	349.01
191.387	54.1
191.607	9.05
191.826	78.68
192.045	58.2
192.265	23.38
192.484	121.68
192.704	11.09
192.923	21.33
193.142	226.13
193.362	39.76
193.581	176.98
193.8	-13.48
194.02	62.29
194.239	35.67
194.458	162.64
194.678	4.95
194.897	9.05
195.116	88.92
195.335	-56.49
195.555	13.14
195.774	-15.53
195.993	99.16
196.212	0.85
196.432	60.24
196.651	0.85
196.87	70.48
197.089	250.71
197.308	35.67
197.528	88.92
197.747	-23.72
197.966	64.34
198.185	119.64
198.404	21.33
198.623	162.64
198.842	76.63
199.062	140.12
199.281	99.16
199.5	43.86
199.719	50
199.938	131.92
200.157	99.16
200.376	133.97
200.595	68.44
200.814	66.39
201.033	9.05
201.252	166.74
201.471	82.77
201.69	136.02
201.909	39.76
202.128	58.2
202.347	123.73
202.566	39.76
202.785	-97.45
203.004	-19.63
203.223	318.29
203.442	35.67
203.661	-85.16
203.879	119.64
204.098	238.42
204.317	-38.06
204.536	109.4
204.755	70.48
204.974	107.35
205.193	37.72
205.411	191.31
205.63	97.11
205.849	82.77
206.068	74.58
206.287	80.72
206.505	109.4
206.724	-23.72
206.943	43.86
207.162	-44.2
207.381	107.35
207.599	88.92
207.818	-48.3
208.037	-11.43
208.255	111.44
208.474	9.05
208.693	103.25
208.911	-7.34
209.13	93.01
209.349	27.48
209.567	78.68
209.786	109.4
210.005	111.44
210.223	64.34
210.442	-76.97
210.661	88.92
210.879	-66.73
211.098	-15.53
211.316	107.35
211.535	54.1
211.753	64.34
211.972	43.86
212.191	93.01
212.409	82.77
212.628	107.35
212.846	-58.54
213.065	43.86
213.283	93.01
213.502	33.62
213.72	54.1
213.938	70.48
214.157	62.29
214.375	68.44
214.594	29.52
214.812	60.24
215.031	101.2
215.249	50
215.467	68.44
215.686	-5.29
215.904	33.62
216.122	121.68
216.341	111.44
216.559	193.36
216.778	107.35
216.996	185.17
217.214	-17.58
217.432	-44.2
217.651	37.72
217.869	50
218.087	117.59
218.306	31.57
218.524	93.01
218.742	-3.24
218.96	129.88
219.179	25.43
219.397	68.44
219.615	160.59
219.833	176.98
220.051	-19.63
220.27	76.63
220.488	41.81
220.706	33.62
220.924	2.9
221.142	15.19
221.36	93.01
221.578	80.72
221.796	37.72
222.015	35.67
222.233	23.38
222.451	127.83
222.669	-13.48
222.887	68.44
223.105	2.9
223.323	62.29
223.541	-17.58
223.759	115.54
223.977	76.63
224.195	117.59
224.413	103.25
224.631	60.24
224.849	125.78
225.067	162.64
225.285	-38.06
225.503	-25.77
225.721	-40.11
225.939	93.01
226.157	66.39
226.375	207.7
226.592	50
226.81	70.48
227.028	99.16
227.246	146.26
227.464	76.63
227.682	99.16
227.9	35.67
228.117	-7.34
228.335	76.63
228.553	39.76
228.771	74.58
228.989	93.01
229.206	80.72
229.424	109.4
229.642	-23.72
229.86	-44.2
230.077	123.73
230.295	39.76
230.513	160.59
230.731	60.24
230.948	234.32
231.166	185.17
231.384	-29.87
231.601	39.76
231.819	121.68
232.037	-70.83
232.254	-42.15
232.472	33.62
232.689	41.81
232.907	123.73
233.125	86.87
233.342	21.33
233.56	27.48
233.777	43.86
233.995	-42.15
234.213	68.44
234.43	133.97
234.648	13.14
234.865	29.52
235.083	54.1
235.3	33.62
235.518	70.48
235.735	156.5
235.953	29.52
236.17	33.62
236.388	-42.15
236.605	52.05
236.822	93.01
237.04	84.82
237.257	33.62
237.475	4.95
237.692	-27.82
237.909	7
238.127	2.9
238.344	68.44
238.562	58.2
238.779	-42.15
238.996	0.85
239.214	9.05
239.431	74.58
239.648	17.24
239.865	125.78
240.083	144.21
240.3	21.33
240.517	-42.15
240.735	54.1
240.952	172.88
241.169	76.63
241.386	52.05
241.603	37.72
241.821	-7.34
242.038	103.25
242.255	138.07
242.472	15.19
242.689	80.72
242.907	90.96
243.124	140.12
243.341	29.52
243.558	27.48
243.775	-23.72
243.992	-27.82
244.209	23.38
244.426	142.16
244.643	19.29
244.86	-25.77
245.078	60.24
245.295	84.82
245.512	33.62
245.729	15.19
245.946	25.43
246.163	52.05
246.38	45.91
246.597	58.2
246.814	56.15
247.031	52.05
247.248	11.09
247.464	50
247.681	56.15
247.898	166.74
248.115	84.82
248.332	-46.25
248.549	133.97
248.766	185.17
248.983	105.3
249.2	109.4
249.417	103.25
249.633	39.76
249.85	62.29
250.067	-13.48
250.284	50
250.501	109.4
250.717	41.81
250.934	-29.87
251.151	29.52
251.368	0.85
251.585	84.82
251.801	82.77
252.018	-27.82
252.235	176.98
252.451	-115.88
252.668	19.29
252.885	129.88
253.102	62.29
253.318	15.19
253.535	17.24
253.752	39.76
253.968	-1.19
254.185	-79.02
254.401	105.3
254.618	72.53
254.835	11.09
255.051	107.35
255.268	43.86
255.484	62.29
255.701	23.38
255.917	68.44
256.134	0.85
256.351	95.06
256.567	-3.24
256.784	-13.48
257	19.29
257.217	52.05
257.433	66.39
257.65	19.29
257.866	125.78
258.082	50
258.299	-48.3
258.515	19.29
258.732	50
258.948	-48.3
259.165	74.58
259.381	-31.91
259.597	52.05
259.814	39.76
260.03	107.35
260.246	66.39
260.463	150.36
260.679	133.97
260.895	19.29
261.112	41.81
261.328	23.38
261.544	-29.87
261.761	90.96
261.977	-13.48
262.193	-42.15
262.409	197.46
262.626	62.29
262.842	35.67
263.058	29.52
263.274	113.49
263.49	52.05
263.707	105.3
263.923	47.96
264.139	2.9
264.355	29.52
264.571	129.88
264.787	105.3
265.004	133.97
265.22	19.29
265.436	-52.39
265.652	15.19
265.868	136.02
266.084	-140.46
266.3	43.86
266.516	-19.63
266.732	52.05
266.948	27.48
267.164	19.29
267.38	99.16
267.596	82.77
267.812	119.64
268.028	43.86
268.244	88.92
268.46	60.24
268.676	72.53
268.892	72.53
269.108	0.85
269.324	17.24
269.54	-101.55
269.756	123.73
269.972	-25.77
270.188	2.9
270.403	23.38
270.619	37.72
270.835	123.73
271.051	84.82
271.267	0.85
271.483	-15.53
271.698	88.92
271.914	68.44
272.13	93.01
272.346	-33.96
272.562	93.01
272.777	58.2
272.993	-44.2
273.209	9.05
273.425	148.31
273.64	-72.87
273.856	45.91
274.072	68.44
274.287	76.63
274.503	70.48
274.719	56.15
274.934	60.24
275.15	-79.02
275.366	41.81
275.581	43.86
275.797	35.67
276.012	19.29
276.228	-13.48
276.444	54.1
276.659	129.88
276.875	-13.48
277.09	-23.72
277.306	9.05
277.521	35.67
277.737	15.19
277.952	60.24
278.168	19.29
278.383	86.87
278.599	82.77
278.814	72.53
279.03	17.24
279.245	95.06
279.461	29.52
279.676	74.58
279.892	-19.63
280.107	-3.24
280.322	-17.58
280.538	27.48
280.753	-40.11
280.969	62.29
281.184	23.38
281.399	105.3
281.615	-11.43
281.83	9.05
282.045	-27.82
282.26	-17.58
282.476	52.05
282.691	70.48
282.906	117.59
283.122	47.96
283.337	-19.63
283.552	56.15
283.767	60.24
283.983	99.16
284.198	31.57
284.413	74.58
284.628	-31.91
284.843	66.39
285.058	64.34
285.274	-52.39
285.489	54.1
285.704	60.24
285.919	41.81
286.134	15.19
286.349	58.2
286.564	29.52
286.779	113.49
286.995	50
287.21	-142.5
287.425	82.77
287.64	43.86
287.855	58.2
288.07	-76.97
288.285	101.2
288.5	23.38
288.715	101.2
288.93	95.06
289.145	56.15
289.36	84.82
289.575	29.52
289.79	76.63
290.004	-25.77
290.219	133.97
290.434	41.81
290.649	78.68
290.864	15.19
291.079	17.24
291.294	105.3
291.509	88.92
291.724	-1.19
291.938	27.48
292.153	117.59
292.368	37.72
292.583	103.25
292.798	86.87
293.012	93.01
293.227	84.82
293.442	33.62
293.657	109.4
293.871	136.02
294.086	29.52
294.301	58.2
294.516	125.78
294.73	33.62
294.945	11.09
295.16	119.64
295.374	123.73
295.589	107.35
295.804	-19.63
296.018	43.86
296.233	82.77
296.447	27.48
296.662	-48.3
296.877	84.82
297.091	136.02
297.306	19.29
297.52	15.19
297.735	90.96
297.949	41.81
298.164	72.53
298.378	19.29
298.593	72.53
298.807	-15.53
299.022	43.86
299.236	142.16
299.451	2.9
299.665	35.67
299.88	27.48
300.094	97.11
300.309	37.72
300.523	103.25
300.737	-29.87
300.952	25.43
301.166	58.2
301.381	4.95
301.595	47.96
301.809	27.48
302.024	17.24
302.238	97.11
302.452	162.64
302.667	15.19
302.881	84.82
303.095	105.3
303.309	64.34
303.524	41.81
303.738	35.67
303.952	-70.83
304.166	133.97
304.381	-128.17
304.595	174.93
304.809	52.05
305.023	25.43
305.237	-5.29
305.452	-3.24
305.666	97.11
305.88	33.62
306.094	148.31
306.308	76.63
306.522	78.68
306.736	45.91
306.95	168.79
307.164	125.78
307.379	93.01
307.593	219.99
307.807	99.16
308.021	138.07
308.235	86.87
308.449	-42.15
308.663	72.53
308.877	138.07
309.091	64.34
309.305	136.02
309.519	-79.02
309.733	119.64
309.947	-60.59
310.161	138.07
310.374	121.68
310.588	131.92
310.802	-9.39
311.016	-54.44
311.23	105.3
311.444	37.72
311.658	72.53
311.872	117.59
312.085	174.93
312.299	152.4
312.513	117.59
312.727	56.15
312.941	11.09
313.154	50
313.368	113.49
313.582	84.82
313.796	64.34
314.009	-9.39
314.223	66.39
314.437	54.1
314.651	62.29
314.864	-7.34
315.078	13.14
315.292	-1.19
315.505	19.29
315.719	95.06
315.933	-7.34
316.146	-25.77
316.36	-25.77
316.573	138.07
316.787	136.02
317.001	76.63
317.214	-7.34
317.428	72.53
317.641	-62.63
317.855	-85.16
318.068	31.57
318.282	0.85
318.495	199.51
318.709	109.4
318.922	80.72
319.136	103.25
319.349	185.17
319.563	-13.48
319.776	138.07
319.99	25.43
320.203	80.72
320.417	97.11
320.63	72.53
320.843	142.16
321.057	2.9
321.27	2.9
321.483	52.05
321.697	162.64
321.91	0.85
322.124	27.48
322.337	142.16
322.55	11.09
322.763	-1.19
322.977	25.43
323.19	35.67
323.403	95.06
323.617	-9.39
323.83	142.16
324.043	68.44
324.256	-29.87
324.469	-7.34
324.683	74.58
324.896	23.38
325.109	23.38
325.322	-68.78
325.535	113.49
325.748	113.49
325.962	19.29
326.175	105.3
326.388	45.91
326.601	84.82
326.814	17.24
327.027	64.34
327.24	146.26
327.453	-11.43
327.666	129.88
327.879	93.01
328.092	117.59
328.305	129.88
328.518	7
328.731	25.43
328.944	64.34
329.157	76.63
329.37	-79.02
329.583	70.48
329.796	68.44
330.009	31.57
330.222	138.07
330.435	43.86
330.648	113.49
330.861	70.48
331.073	11.09
331.286	72.53
331.499	37.72
331.712	-72.87
331.925	56.15
332.138	136.02
332.35	136.02
332.563	13.14
332.776	105.3
332.989	-13.48
333.202	27.48
333.414	107.35
333.627	-40.11
333.84	54.1
334.053	148.31
334.265	90.96
334.478	-3.24
334.691	50
334.903	50
335.116	78.68
335.329	88.92
335.541	76.63
335.754	117.59
335.966	17.24
336.179	115.54
336.392	37.72
336.604	62.29
336.817	119.64
337.029	111.44
337.242	58.2
337.454	168.79
337.667	-27.82
337.88	195.41
338.092	101.2
338.305	115.54
338.517	33.62
338.729	119.64
338.942	76.63
339.154	-25.77
339.367	-66.73
339.579	-5.29
339.792	27.48
340.004	80.72
340.217	-29.87
340.429	45.91
340.641	64.34
340.854	-3.24
341.066	47.96
341.278	136.02
341.491	193.36
341.703	37.72
341.915	72.53
342.128	43.86
342.34	43.86
342.552	-44.2
342.764	9.05
342.977	-1.19
343.189	123.73
343.401	70.48
343.613	-46.25
343.826	105.3
344.038	45.91
344.25	43.86
344.462	9.05
344.674	43.86
344.886	113.49
345.099	109.4
345.311	21.33
345.523	-50.35
345.735	-126.12
345.947	21.33
346.159	39.76
346.371	62.29
346.583	74.58
346.795	203.6
347.007	113.49
347.219	80.72
347.431	47.96
347.643	115.54
347.855	19.29
348.067	142.16
348.279	-76.97
348.491	27.48
348.703	107.35
348.915	64.34
349.127	-48.3
349.339	21.33
349.551	19.29
349.763	127.83
349.975	31.57
350.187	21.33
350.399	88.92
350.61	45.91
350.822	-17.58
351.034	31.57
351.246	74.58
351.458	11.09
351.669	109.4
351.881	125.78
352.093	176.98
352.305	123.73
352.517	101.2
352.728	99.16
352.94	99.16
353.152	68.44
353.363	21.33
353.575	-9.39
353.787	160.59
353.999	74.58
354.21	181.07
354.422	15.19
354.633	13.14
354.845	33.62
355.057	74.58
355.268	95.06
355.48	138.07
355.692	-60.59
355.903	21.33
356.115	19.29
356.326	-101.55
356.538	166.74
356.749	41.81
356.961	123.73
357.172	72.53
357.384	35.67
357.595	168.79
357.807	62.29
358.018	-3.24
358.23	-21.67
358.441	95.06
358.653	50
358.864	-27.82
359.075	-81.07
359.287	56.15
359.498	52.05
359.709	39.76
359.921	-11.43
360.132	95.06
360.344	33.62
360.555	15.19
360.766	90.96
360.977	41.81
361.189	193.36
361.4	7
361.611	154.45
361.823	121.68
362.034	2.9
362.245	-83.11
362.456	27.48
362.667	101.2
362.879	58.2
363.09	52.05
363.301	117.59
363.512	21.33
363.723	11.09
363.935	45.91
364.146	179.03
364.357	35.67
364.568	72.53
364.779	-62.63
364.99	154.45
365.201	2.9
365.412	103.25
365.623	-31.91
365.834	113.49
366.045	21.33
366.256	107.35
366.467	78.68
366.678	60.24
366.889	29.52
367.1	25.43
367.311	99.16
367.522	-7.34
367.733	60.24
367.944	107.35
368.155	50
368.366	183.12
368.577	76.63
368.788	76.63
368.999	-13.48
369.209	64.34
369.42	152.4
369.631	201.55
369.842	99.16
370.053	25.43
370.264	119.64
370.474	-31.91
370.685	39.76
370.896	47.96
371.107	189.27
371.317	99.16
371.528	9.05
371.739	109.4
371.95	129.88
372.16	97.11
372.371	-5.29
372.582	0.85
372.792	50
373.003	15.19
373.214	50
373.424	37.72
373.635	-66.73
373.846	129.88
374.056	-5.29
374.267	72.53
374.477	25.43
374.688	0.85
374.898	35.67
375.109	-3.24
375.319	62.29
375.53	72.53
375.74	78.68
375.951	50
376.161	162.64
376.372	144.21
376.582	21.33
376.793	64.34
377.003	23.38
377.214	72.53
377.424	58.2
377.635	35.67
377.845	7
378.055	219.99
378.266	-25.77
378.476	76.63
378.686	70.48
378.897	80.72
379.107	54.1
379.317	117.59
379.528	74.58
379.738	117.59
379.948	-56.49
380.158	95.06
380.369	90.96
380.579	64.34
380.789	9.05
380.999	113.49
381.21	93.01
381.42	162.64
381.63	-15.53
381.84	72.53
382.05	68.44
382.261	78.68
382.471	111.44
382.681	-74.92
382.891	150.36
383.101	90.96
383.311	-91.31
383.521	-33.96
383.731	164.69
383.941	21.33
384.151	72.53
384.361	19.29
384.571	136.02
384.781	-3.24
384.991	219.99
385.201	150.36
385.411	86.87
385.621	144.21
385.831	72.53
386.041	70.48
386.251	4.95
386.461	72.53
386.671	-19.63
386.881	35.67
387.091	78.68
387.301	115.54
387.511	86.87
387.72	121.68
387.93	86.87
388.14	-87.21
388.35	82.77
388.56	80.72
388.769	125.78
388.979	2.9
389.189	27.48
389.399	74.58
389.609	54.1
389.818	103.25
390.028	31.57
390.238	39.76
390.447	-9.39
390.657	43.86
390.867	66.39
391.076	-107.69
391.286	99.16
391.496	58.2
391.705	-13.48
391.915	117.59
392.125	113.49
392.334	-52.39
392.544	183.12
392.753	93.01
392.963	-83.11
393.172	58.2
393.382	-11.43
393.591	166.74
393.801	25.43
394.01	226.13
394.22	107.35
394.429	37.72
394.639	50
394.848	154.45
395.058	50
395.267	64.34
395.477	58.2
395.686	-15.53
395.895	215.89
396.105	131.92
396.314	-11.43
396.524	60.24
396.733	-21.67
396.942	131.92
397.152	86.87
397.361	170.83
397.57	111.44
397.78	70.48
397.989	150.36
398.198	209.75
398.407	58.2
398.617	29.52
398.826	109.4
399.035	19.29
399.244	179.03
399.453	103.25
399.663	39.76
399.872	113.49
400.081	-21.67
400.29	107.35
400.499	-1.19
400.708	99.16
400.917	23.38
401.127	15.19
401.336	60.24
401.545	258.9
401.754	121.68
401.963	133.97
402.172	43.86
402.381	-27.82
402.59	15.19
402.799	4.95
403.008	99.16
403.217	84.82
403.426	95.06
403.635	-85.16
403.844	11.09
404.053	-33.96
404.262	72.53
404.471	164.69
404.68	144.21
404.888	-15.53
405.097	35.67
405.306	78.68
405.515	84.82
405.724	0.85
405.933	72.53
406.142	121.68
406.35	97.11
406.559	11.09
406.768	64.34
406.977	111.44
407.185	183.12
407.394	109.4
407.603	35.67
407.812	70.48
408.02	117.59
408.229	123.73
408.438	111.44
408.646	50
408.855	-9.39
409.064	27.48
409.272	2.9
409.481	84.82
409.69	-5.29
409.898	-25.77
410.107	117.59
410.315	148.31
410.524	23.38
410.733	86.87
410.941	80.72
411.15	127.83
411.358	99.16
411.567	168.79
411.775	78.68
411.984	41.81
412.192	82.77
412.401	23.38
412.609	191.31
412.818	142.16
413.026	90.96
413.234	-19.63
413.443	62.29
413.651	-38.06
413.86	82.77
414.068	64.34
414.276	205.65
414.485	-52.39
414.693	176.98
414.901	203.6
415.11	82.77
415.318	76.63
415.526	66.39
415.734	131.92
415.943	78.68
416.151	117.59
416.359	-46.25
416.567	60.24
416.776	205.65
416.984	31.57
417.192	207.7
417.4	41.81
417.608	111.44
417.817	31.57
418.025	117.59
418.233	199.51
418.441	4.95
418.649	-46.25
418.857	56.15
419.065	156.5
419.273	9.05
419.481	74.58
419.689	37.72
419.897	78.68
420.105	-66.73
420.313	136.02
420.521	113.49
420.729	162.64
420.937	35.67
421.145	78.68
421.353	156.5
421.561	136.02
421.769	13.14
421.977	-25.77
422.185	117.59
422.393	0.85
422.601	88.92
422.809	45.91
423.017	39.76
423.224	35.67
423.432	117.59
423.64	7
423.848	222.03
424.056	72.53
424.263	136.02
424.471	88.92
424.679	219.99
424.887	23.38
425.094	136.02
425.302	162.64
425.51	64.34
425.718	123.73
425.925	78.68
426.133	21.33
426.341	183.12
426.548	138.07
426.756	23.38
426.964	109.4
427.171	25.43
427.379	78.68
427.586	60.24
427.794	170.83
428.001	86.87
428.209	158.55
428.417	191.31
428.624	125.78
428.832	15.19
429.039	-11.43
429.247	99.16
429.454	170.83
429.662	162.64
429.869	191.31
430.076	140.12
430.284	166.74
430.491	179.03
430.699	64.34
430.906	217.94
431.114	37.72
431.321	174.93
431.528	150.36
431.736	166.74
431.943	211.79
432.15	197.46
432.358	205.65
432.565	281.43
432.772	-27.82
432.979	252.75
433.187	209.75
433.394	240.47
433.601	121.68
433.808	201.55
434.016	219.99
434.223	232.27
434.43	199.51
434.637	228.18
434.844	289.62
435.052	232.27
435.259	248.66
435.466	244.56
435.673	287.57
435.88	306
436.087	342.86
436.294	279.38
436.501	308.05
436.708	269.14
436.915	306
437.122	420.69
437.329	250.71
437.537	357.2
437.743	285.52
437.95	490.32
438.157	334.67
438.364	332.62
438.571	344.91
438.778	355.15
438.985	420.69
439.192	473.93
439.399	342.86
439.606	447.31
439.813	537.42
440.02	568.14
440.227	654.16
440.433	617.29
440.64	543.57
440.847	432.97
441.054	592.72
441.261	652.11
441.467	658.25
441.674	543.57
441.881	682.83
442.088	576.33
442.294	631.63
442.501	836.42
442.708	822.09
442.914	668.49
443.121	830.28
443.328	803.66
443.534	867.14
443.741	856.9
443.948	731.98
444.154	985.93
444.361	1145.67
444.568	930.63
444.774	938.82
444.981	959.3
445.187	1162.05
445.394	1184.58
445.6	1039.17
445.807	1317.7
446.013	1309.51
446.22	1184.58
446.426	1319.75
446.633	1387.33
446.839	1588.03
447.046	1325.89
447.252	1489.73
447.459	1459.01
447.665	1551.17
447.871	1788.73
448.078	1864.5
448.284	1823.55
448.491	1911.61
448.697	2052.92
448.903	2044.73
449.11	2251.57
449.316	2147.12
449.522	2335.54
449.728	2409.26
449.935	2429.74
450.141	2485.04
450.347	2478.9
450.553	2511.66
450.76	2667.31
450.966	2779.95
451.172	2978.6
451.378	2978.6
451.584	3068.71
451.791	3277.6
451.997	3492.64
452.203	3472.16
452.409	3644.19
452.615	3738.4
452.821	3722.01
453.027	3775.26
453.233	4240.15
453.44	4031.26
453.646	4301.59
453.852	4492.05
454.058	4483.86
454.264	4791.05
454.47	5126.92
454.676	5128.97
454.882	5593.86
455.088	5282.56
455.294	5606.14
455.5	6007.55
455.705	6404.85
455.911	6292.21
456.117	6386.42
456.323	6781.68
456.529	6652.66
456.735	7480.04
456.941	7477.99
457.147	7910.11
457.352	7975.64
457.558	8196.82
457.764	8788.69
457.97	8889.04
458.176	9312.97
458.381	9648.83
458.587	9779.9
458.793	10564.28
458.999	10508.98
459.204	11748
459.41	12049.05
459.616	12110.49
459.821	12845.71
460.027	13124.24
460.233	13943.42
460.438	13714.05
460.644	14703.22
460.85	14721.65
461.055	15342.19
461.261	16249.44
461.466	15850.08
461.672	16179.81
461.878	18006.59
462.083	17820.23
462.289	18145.86
462.494	19120.69
462.7	19493.42
462.905	19298.86
463.111	21021.2
463.316	21907.98
463.522	22399.49
463.727	22938.1
463.932	23718.38
464.138	24314.34
464.343	25371.09
464.549	25815.5
464.754	27478.45
464.959	28535.2
465.165	28950.94
465.37	29036.95
465.575	28821.92
465.781	30552.45
465.986	31570.29
466.191	30996.86
466.397	31379.83
466.602	30718.34
466.807	32282.98
467.012	33100.12
467.218	33423.7
467.423	33898.83
467.628	34722.12
467.833	36682.02
468.038	35752.24
468.244	34801.99
468.449	36962.59
468.654	35828.02
468.859	35799.35
469.064	36340.01
469.269	35268.92
469.474	35230.01
469.679	36378.92
469.885	35264.83
470.09	35901.75
470.295	36561.19
470.5	35176.76
470.705	35453.24
470.91	34371.91
471.115	34228.56
471.32	34548.04
471.525	34287.95
471.73	33573.21
471.935	33419.61
472.139	32117.1
472.344	32049.52
472.549	32170.35
472.754	31353.21
472.959	30830.97
473.164	29321.62
473.369	29125.02
473.574	30099.85
473.778	29196.7
473.983	29006.23
474.188	28541.35
474.393	27062.71
474.598	26913.21
474.802	26264
475.007	26239.43
475.212	25702.86
475.417	24783.32
475.621	24648.16
475.826	24351.2
476.031	23702
476.235	23134.71
476.44	23480.82
476.645	22800.89
476.849	22510.08
477.054	21766.67
477.259	21658.12
477.463	21629.45
477.668	20898.33
477.872	21115.41
478.077	20390.43
478.282	19522.09
478.486	19681.83
478.691	19372.59
478.895	19300.91
479.1	19278.38
479.304	19053.11
479.509	18383.42
479.713	18612.79
479.918	18289.21
480.122	17627.72
480.326	18164.29
480.531	18055.75
480.735	17887.81
480.94	17242.7
481.144	17756.74
481.348	17101.39
481.553	17105.49
481.757	16644.7
481.961	16665.18
482.166	17027.67
482.37	16669.27
482.574	16325.21
482.778	16368.22
482.983	16552.54
483.187	16147.04
483.391	16018.02
483.595	15798.88
483.8	15555.18
484.004	15788.64
484.208	15620.71
484.412	15383.15
484.616	15342.19
484.821	14959.22
485.025	14592.63
485.229	15026.8
485.433	14471.8
485.637	14129.79
485.841	14330.49
486.045	13988.48
486.249	13937.28
486.453	13519.5
486.657	13345.42
486.861	12939.92
487.065	12751.51
487.269	12735.12
487.473	12247.71
487.677	12591.77
487.881	12505.75
488.085	11942.56
488.289	12028.57
488.493	11641.51
488.697	11807.39
488.901	11193
489.105	11266.73
489.309	10994.35
489.512	10818.22
489.716	10549.94
489.92	10470.07
490.124	10328.76
490.328	10222.27
490.531	9870.01
490.735	9865.92
490.939	9495.24
491.143	9288.39
491.346	9138.89
491.55	9081.55
491.754	9032.4
491.958	8977.1
492.161	8680.14
492.365	8819.41
492.569	8508.12
492.772	8327.89
492.976	8307.41
493.18	8037.08
493.383	8215.26
493.587	7899.87
493.79	8080.09
493.994	7594.72
494.197	7635.68
494.401	7555.81
494.605	7715.55
494.808	7852.77
495.012	7432.93
495.215	7674.59
495.419	7465.7
495.622	7201.51
495.825	7088.87
496.029	7271.14
496.232	7400.16
496.436	7119.59
496.639	7293.67
496.843	7074.54
497.046	7164.65
497.249	7271.14
497.453	7123.69
497.656	7146.22
497.859	7060.2
498.063	7252.71
498.266	7439.08
498.469	7146.22
498.673	7234.28
498.876	7258.85
499.079	7607.01
499.282	7439.08
499.485	7709.41
499.689	7660.26
499.892	7766.75
500.095	7520.99
500.298	7824.09
500.501	7320.29
500.705	7981.79
500.908	7922.4
501.111	7834.33
501.314	8317.65
501.517	8381.14
501.72	8241.88
501.923	8157.91
502.126	8522.45
502.329	8655.57
502.532	8544.98
502.735	8577.75
502.938	8952.52
503.141	8936.14
503.344	8979.15
503.547	9032.4
503.75	9128.65
503.953	9253.58
504.156	9454.28
504.359	9521.86
504.562	9677.51
504.765	9990.84
504.968	10021.56
505.17	10318.52
505.373	10300.09
505.576	10846.9
505.779	10422.97
505.982	10619.57
506.185	11096.75
506.387	11000.49
506.59	11356.84
506.793	11915.94
506.996	11616.93
507.198	12180.12
507.401	12280.47
507.604	12827.28
507.807	12814.99
508.009	13068.94
508.212	13298.31
508.415	13374.09
508.617	13683.33
508.82	13943.42
509.022	13742.72
509.225	14523
509.428	14641.78
509.63	15223.41
509.833	15342.19
510.035	15966.82
510.238	16034.4
510.44	16032.35
510.643	16728.66
510.845	17535.56
511.048	17465.93
511.25	17814.09
511.453	18133.57
511.655	18983.48
511.858	19200.56
512.06	19343.92
512.262	19853.86
512.465	20175.39
512.667	20505.12
512.87	21185.04
513.072	21269.01
513.274	22309.38
513.477	22739.45
513.679	23044.6
513.881	23751.15
514.084	24142.31
514.286	24173.03
514.488	24959.45
514.69	25905.61
514.893	26108.36
515.095	26757.57
515.297	27281.85
515.499	27580.85
515.701	28377.51
515.904	28600.74
516.106	29493.65
516.308	30120.33
516.51	30732.67
516.712	31064.44
516.914	31881.58
517.116	32008.56
517.318	33001.82
517.52	33306.97
517.722	33749.33
517.925	34507.08
518.127	35184.96
518.329	35879.22
518.531	35647.8
518.733	36550.95
518.935	37175.58
519.136	37896.47
519.338	38351.12
519.54	39078.15
519.742	39940.34
519.944	39885.04
520.146	40755.43
520.348	40876.26
520.55	41730.26
520.752	41994.45
520.954	42807.5
521.155	42500.3
521.357	43413.69
521.559	44320.95
521.761	44775.59
521.963	44642.48
522.164	44857.51
522.366	45191.33
522.568	45830.3
522.77	46399.63
522.971	46751.88
523.173	46174.36
523.375	47241.35
523.576	47022.22
523.778	46833.8
523.98	47579.26
524.181	47446.15
524.383	47831.16
524.584	48214.13
524.786	48275.57
524.988	47696
525.189	48554.1
525.391	48160.89
525.592	48332.92
525.794	48435.31
525.995	48148.6
526.197	48459.89
526.398	48175.22
526.6	48234.61
526.801	47911.03
527.003	47599.74
527.204	47270.02
527.406	47454.34
527.607	47253.64
527.808	47493.25
528.01	45992.09
528.211	46794.89
528.412	46606.48
528.614	45973.66
528.815	45711.52
529.016	45822.11
529.218	44978.34
529.419	44998.82
529.62	44146.87
529.822	43929.78
530.023	43464.89
530.224	43430.08
530.425	42737.87
530.626	41756.89
530.828	41427.17
531.029	41736.41
531.23	40784.1
531.431	40298.73
531.632	40251.63
531.833	39434.49
532.035	38977.79
532.236	38250.77
532.437	38226.19
532.638	37716.25
532.839	37333.28
533.04	36962.59
533.241	36129.07
533.442	35965.23
533.643	35258.68
533.844	35103.04
534.045	34652.48
534.246	33425.75
534.447	33483.09
534.648	33010.01
534.849	32778.59
535.05	32213.35
535.251	31754.61
535.451	31142.27
535.652	31125.88
535.853	30515.59
536.054	30126.47
536.255	29921.68
536.456	28975.52
536.657	29366.68
536.857	28252.58
537.058	27611.57
537.259	27734.45
537.46	27406.77
537.66	26943.93
537.861	26515.9
538.062	26034.63
538.263	25723.34
538.463	25608.65
538.664	25453.01
538.865	24893.91
539.065	24480.22
539.266	24252.9
539.466	24254.95
539.667	23165.43
539.868	23751.15
540.068	23060.98
540.269	22968.82
540.469	22686.2
540.67	22360.58
540.87	22321.66
541.071	21963.27
541.271	21709.32
541.472	21420.56
541.672	21078.55
541.873	20650.52
542.073	20472.35
542.274	20681.24
542.474	20288.03
542.675	20064.8
542.875	19739.18
543.075	19608.11
543.276	19116.59
543.476	19008.05
543.676	19010.1
543.877	18610.75
544.077	18485.82
544.277	18307.65
544.478	17969.73
544.678	17758.79
544.878	17660.49
545.078	17375.82
545.279	16859.73
545.479	16738.9
545.679	16990.8
545.879	16706.13
546.079	16472.67
546.28	16167.52
546.48	16069.22
546.68	16009.83
546.88	15805.03
547.08	15551.08
547.28	15268.46
547.48	14799.48
547.68	15084.14
547.88	14707.32
548.081	14729.84
548.281	14269.05
548.481	13986.43
548.681	14217.85
548.881	13712
549.081	13728.39
549.28	13556.36
549.48	13429.38
549.68	13222.54
549.88	12812.95
550.08	12622.48
550.28	12653.2
550.48	12761.75
550.68	12446.36
550.88	12192.41
551.08	11745.95
551.279	11995.81
551.479	11555.49
551.679	11565.73
551.879	11422.38
552.079	11057.84
552.278	10822.32
552.478	10846.9
552.678	10601.14
552.878	10379.96
553.077	10255.03
553.277	10023.61
553.477	10138.3
553.676	9884.35
553.876	9849.54
554.076	9380.55
554.275	9372.36
554.475	9282.25
554.674	9349.83
554.874	8977.1
555.074	8661.71
555.273	8592.08
555.473	8573.65
555.672	8319.7
555.872	8219.35
556.071	8116.95
556.271	8137.43
556.47	7713.5
556.67	7490.28
556.869	7557.86
557.068	7387.88
557.268	7348.97
557.467	7359.21
557.667	7121.64
557.866	7090.92
558.065	6836.97
558.265	6753.01
558.464	6380.28
558.663	6646.51
558.863	6531.83
559.062	6433.52
559.261	6128.38
559.461	6159.1
559.66	6089.46
559.859	5747.45
560.058	5778.17
560.258	5683.97
560.457	5649.15
560.656	5610.24
560.855	5311.24
561.054	5436.16
561.253	5202.69
561.453	5288.71
561.652	5221.13
561.851	4983.56
562.05	5014.28
562.249	4799.24
562.448	5004.04
562.647	4846.35
562.846	4823.82
563.045	4672.27
563.244	4659.98
563.443	4537.1
563.642	4311.83
563.841	4383.51
564.04	4274.96
564.239	4256.53
564.438	4231.96
564.637	3957.53
564.836	4074.26
565.035	3918.62
565.234	3967.77
565.432	3918.62
565.631	4000.54
565.83	3867.42
566.029	3703.58
566.228	3623.71
566.427	3676.96
566.625	3498.78
566.824	3365.67
567.023	3535.65
567.222	3427.11
567.42	3359.52
567.619	3363.62
567.818	3363.62
568.016	3361.57
568.215	3285.8
568.414	3191.59
568.612	3171.11
568.811	3171.11
569.01	3042.09
569.208	2954.02
569.407	3070.76
569.605	2902.83
569.804	2847.53
570.002	2808.62
570.201	2763.56
570.4	2825
570.598	2648.88
570.797	2732.84
570.995	2480.94
571.193	2550.57
571.392	2601.77
571.59	2343.73
571.789	2536.24
571.987	2601.77
572.186	2415.41
572.384	2272.05
572.582	2362.16
572.781	2376.5
572.979	2196.28
573.177	2218.8
573.376	2157.36
573.574	2337.59
573.772	2112.31
573.971	2005.81
574.169	2054.97
574.367	2186.04
574.565	1979.19
574.763	1903.42
574.962	1968.95
575.16	1954.62
575.358	1891.13
575.556	1796.92
575.754	1860.41
575.952	1794.87
576.151	1827.64
576.349	1860.41
576.547	1585.98
576.745	1706.81
576.943	1755.96
577.141	1528.64
577.339	1514.3
577.537	1663.8
577.735	1594.17
577.933	1506.11
578.131	1514.3
578.329	1616.7
578.527	1450.82
578.725	1493.82
578.923	1401.66
579.121	1528.64
579.319	1334.08
579.516	1375.04
579.714	1696.57
579.912	1393.47
580.11	1188.68
580.308	1344.32
580.506	1276.74
580.704	1092.42
580.901	1207.11
581.099	1291.07
581.297	1162.05
581.495	1278.79
581.692	1160
581.89	1284.93
582.088	1086.28
582.285	1182.53
582.483	1065.8
582.681	998.21
582.878	1108.8
583.076	1067.85
583.274	1086.28
583.471	1100.61
583.669	936.78
583.866	846.66
584.064	959.3
584.262	846.66
584.459	861
584.657	1012.55
584.854	1012.55
585.052	922.44
585.249	971.59
585.447	930.63
585.644	774.99
585.841	869.19
586.039	875.34
586.236	899.91
586.434	815.94
586.631	787.27
586.828	758.6
587.026	844.62
587.223	645.96
587.42	752.46
587.618	803.66
587.815	869.19
588.012	781.13
588.21	688.97
588.407	797.51
588.604	768.84
588.801	678.73
588.999	635.72
589.196	729.93
589.393	611.15
589.59	615.24
589.787	660.3
589.984	727.88
590.182	711.5
590.379	641.87
590.576	629.58
590.773	656.2
590.97	668.49
591.167	709.45
591.364	701.26
591.561	697.16
591.758	703.31
591.955	605
592.152	703.31
592.349	574.28
592.546	635.72
592.743	533.33
592.94	684.87
593.137	711.5
593.334	652.11
593.531	738.12
593.727	678.73
593.924	590.67
594.121	652.11
594.318	680.78
594.515	652.11
594.712	777.03
594.908	723.79
595.105	449.36
595.302	648.01
595.499	709.45
595.696	834.38
595.892	701.26
596.089	824.14
596.286	715.59
596.482	805.71
596.679	768.84
596.876	777.03
597.072	822.09
597.269	834.38
597.466	842.57
597.662	809.8
597.859	840.52
598.055	863.05
598.252	975.69
598.448	992.07
598.645	1037.13
598.841	1073.99
599.038	1227.59
599.234	1090.37
599.431	1194.82
599.627	1082.18
599.824	1250.11
600.02	1321.79
600.217	1272.64
600.413	1385.28
600.609	1401.66
600.806	1741.63
601.002	1459.01
601.198	1450.82
601.395	1790.78
601.591	1680.19
601.787	1700.67
601.984	1749.82
602.18	1854.27
602.376	1813.31
602.572	2057.01
602.769	2194.23
602.965	2065.21
603.161	2286.39
603.357	2331.44
603.553	2386.74
603.75	2413.36
603.946	2491.18
604.142	2544.43
604.338	2913.06
604.534	2728.75
604.73	2843.43
604.926	2786.09
605.122	3093.29
605.318	3074.85
605.514	3246.88
605.71	3357.47
605.906	3420.96
606.102	3621.66
606.298	3676.96
606.494	3754.78
606.69	3935
606.886	3980.06
607.082	3994.39
607.278	4086.55
607.474	4330.26
607.67	4424.47
607.866	4401.94
608.062	4807.44
608.257	4834.06
608.453	4848.4
608.649	5124.87
608.845	5182.21
609.041	5284.61
609.236	5554.94
609.432	5485.31
609.628	5761.79
609.824	5810.94
610.019	5987.07
610.215	6265.59
610.411	6494.96
610.606	6554.35
610.802	6687.47
610.998	7002.86
611.193	7240.42
611.389	7191.27
611.584	7508.71
611.78	7424.74
611.976	7793.37
612.171	8078.04
612.367	8166.1
612.562	8497.88
612.758	8610.51
612.953	8768.21
613.149	9265.86
613.344	9489.09
613.539	9511.62
613.735	10019.52
613.93	10216.12
614.126	10259.13
614.321	10824.37
614.517	11082.41
614.712	11195.05
614.907	11475.62
615.103	11899.55
615.298	11926.18
615.493	12266.14
615.688	12556.95
615.884	13146.76
616.079	13251.21
616.274	13873.79
616.47	14006.91
616.665	14512.76
616.86	14846.58
617.055	15110.77
617.25	15293.04
617.445	15985.25
617.641	15911.52
617.836	16546.39
618.031	16990.8
618.226	17310.29
618.421	17824.33
618.616	18512.44
618.811	18379.32
619.006	19223.09
619.201	19302.96
619.396	19976.74
619.591	20017.7
619.786	20697.63
619.981	21385.74
620.176	21948.93
620.371	22030.85
620.566	22870.52
620.761	23177.72
620.956	23734.76
621.151	23765.48
621.346	24926.68
621.541	24830.43
621.735	25629.13
621.93	25670.09
622.125	26255.81
622.32	26581.44
622.515	27580.85
622.709	28029.35
622.904	28295.59
623.099	28492.19
623.294	29354.39
623.488	29467.03
623.683	30437.76
623.878	30517.64
624.072	31048.06
624.267	31957.36
624.462	32153.96
624.656	32510.31
624.851	33415.51
625.046	33620.31
625.24	34109.77
625.435	34511.17
625.629	35193.15
625.824	35404.09
626.018	35981.62
626.213	35658.04
626.407	36983.07
626.602	36522.28
626.796	37531.93
626.991	38000.91
627.185	38174.99
627.38	38174.99
627.574	38652.17
627.768	38850.82
627.963	38723.85
628.157	38830.34
628.352	39260.41
628.546	38953.22
628.74	39522.55
628.935	39104.77
629.129	39311.61
629.323	39069.95
629.517	38676.74
629.712	38490.38
629.906	38756.61
630.1	37683.48
630.294	37806.36
630.489	37308.7
630.683	37036.32
630.877	36352.3
631.071	35608.89
631.265	35047.74
631.459	34558.28
631.653	33978.7
631.848	33163.61
632.042	32389.48
632.236	31746.42
632.43	30826.88
632.624	30140.81
632.818	28934.56
633.012	27929
633.206	27179.45
633.4	26630.59
633.594	25516.5
633.788	24826.33
633.982	24050.15
634.176	22786.55
634.369	22538.75
634.563	21418.51
634.757	20814.36
634.951	20070.95
635.145	19118.64
635.339	18596.41
635.533	17687.11
635.726	17209.93
635.92	16087.65
636.114	15678.05
636.308	14770.8
636.501	14471.8
636.695	13744.77
636.889	12964.5
637.083	12704.4
637.276	12083.87
637.47	11631.27
637.664	11180.71
637.857	10967.73
638.051	10461.88
638.244	9951.93
638.438	9482.95
638.632	9358.02
638.825	8524.5
639.019	8518.36
639.212	8256.22
639.406	7942.88
639.599	7467.75
639.793	7305.96
639.986	6816.49
640.18	6759.15
640.373	6470.39
640.567	6163.19
640.76	5960.44
640.954	5880.57
641.147	5411.59
641.34	5380.87
641.534	5061.38
641.727	5016.33
641.92	4760.33
642.114	4432.66
642.307	4432.66
642.5	4461.33
642.694	4076.31
642.887	3826.46
643.08	3844.89
643.273	3636
643.467	3468.06
643.66	3287.84
643.853	3320.61
644.046	3255.08
644.239	2933.54
644.432	2886.44
644.626	2675.5
644.819	2540.33
645.012	2556.72
645.205	2659.12
645.398	2464.56
645.591	2296.63
645.784	2153.27
645.977	2034.49
646.17	1962.81
646.363	2026.29
646.556	1901.37
646.749	1776.44
646.942	1772.35
647.135	1801.02
647.328	1594.17
647.521	1575.74
647.714	1405.76
647.907	1471.29
648.099	1418.05
648.292	1420.1
648.485	1377.09
648.678	1241.92
648.871	1063.75
649.064	1190.72
649.256	1063.75
649.449	1076.04
649.642	918.34
649.835	934.73
650.027	961.35
650.22	992.07
650.413	934.73
650.605	967.49
650.798	863.05
650.991	762.7
651.183	772.94
651.376	830.28
651.568	811.85
651.761	674.64
651.954	793.42
652.146	740.17
652.339	652.11
652.531	695.11
652.724	611.15
652.916	629.58
653.109	430.93
653.301	699.21
653.494	580.43
653.686	486.22
653.879	582.48
654.071	531.28
654.263	406.35
654.456	510.8
654.648	547.66
654.84	518.99
655.033	369.49
655.225	525.13
655.417	293.71
655.61	478.03
655.802	437.07
655.994	527.18
656.186	254.8
656.379	508.75
656.571	224.08
656.763	332.62
656.955	324.43
657.148	314.19
657.34	416.59
657.532	289.62
657.724	289.62
657.916	248.66
658.108	383.82
658.3	318.29
658.492	312.14
658.684	215.89
658.876	369.49
659.068	254.8
659.26	90.96
659.452	273.23
659.644	265.04
659.836	402.26
660.028	320.34
660.22	254.8
660.412	224.08
660.604	232.27
660.796	328.53
660.988	361.3
661.18	215.89
661.372	279.38
661.563	238.42
661.755	254.8
661.947	158.55
662.139	119.64
662.331	152.4
662.522	146.26
662.714	107.35
662.906	150.36
663.097	162.64
663.289	138.07
663.481	99.16
663.673	168.79
663.864	105.3
664.056	183.12
664.247	82.77
664.439	258.9
664.631	201.55
664.822	242.51
665.014	246.61
665.205	29.52
665.397	154.45
665.588	197.46
665.78	138.07
665.971	230.23
666.163	111.44
666.354	160.59
666.546	70.48
666.737	95.06
666.929	45.91
667.12	133.97
667.311	146.26
667.503	148.31
667.694	117.59
667.885	156.5
668.077	144.21
668.268	119.64
668.459	62.29
668.651	93.01
668.842	121.68
669.033	60.24
669.224	23.38
669.416	256.85
669.607	103.25
669.798	82.77
669.989	160.59
670.18	234.32
670.371	119.64
670.563	54.1
670.754	133.97
670.945	129.88
671.136	148.31
671.327	-21.67
671.518	187.22
671.709	248.66
671.9	148.31
672.091	328.53
672.282	144.21
672.473	189.27
672.664	33.62
672.855	181.07
673.046	179.03
673.237	203.6
673.428	168.79
673.619	187.22
673.809	-7.34
674	195.41
674.191	140.12
674.382	82.77
674.573	99.16
674.764	99.16
674.954	146.26
675.145	13.14
675.336	129.88
675.527	50
675.717	107.35
675.908	160.59
676.099	113.49
676.289	90.96
676.48	-23.72
676.671	172.88
676.861	95.06
677.052	211.79
677.243	133.97
677.433	90.96
677.624	144.21
677.814	244.56
678.005	97.11
678.195	224.08
678.386	52.05
678.576	162.64
678.767	47.96
678.957	187.22
679.148	152.4
679.338	279.38
679.529	123.73
679.719	131.92
679.909	232.27
680.1	154.45
680.29	162.64
680.481	11.09
680.671	185.17
680.861	230.23
681.052	168.79
681.242	39.76
681.432	306
681.622	207.7
681.813	86.87
682.003	150.36
682.193	131.92
682.383	240.47
682.573	84.82
682.764	101.2
682.954	199.51
683.144	246.61
683.334	105.3
683.524	172.88
683.714	195.41
683.904	170.83
684.094	127.83
684.284	207.7
684.474	260.95
684.664	164.69
684.854	172.88
685.044	72.53
685.234	176.98
685.424	185.17
685.614	129.88
685.804	303.95
685.994	238.42
686.184	199.51
686.374	260.95
686.564	189.27
686.753	150.36
686.943	27.48
687.133	121.68
687.323	107.35
687.513	140.12
687.702	166.74
687.892	170.83
688.082	240.47
688.272	256.85
688.461	146.26
688.651	283.47
688.841	185.17
689.03	105.3
689.22	144.21
689.41	189.27
689.599	164.69
689.789	62.29
689.979	269.14
690.168	166.74
690.358	215.89
690.547	107.35
690.737	207.7
690.926	168.79
691.116	142.16
691.305	240.47
691.495	148.31
691.684	142.16
691.874	74.58
692.063	129.88
692.252	316.24
692.442	269.14
692.631	111.44
692.82	117.59
693.01	127.83
693.199	76.63
693.388	185.17
693.578	133.97
693.767	262.99
693.956	189.27
694.146	156.5
694.335	154.45
694.524	187.22
694.713	203.6
694.902	181.07
695.092	195.41
695.281	191.31
695.47	168.79
695.659	117.59
695.848	222.03
696.037	80.72
696.226	256.85
696.415	222.03
696.604	248.66
696.793	256.85
696.982	127.83
697.171	291.66
697.36	150.36
697.549	142.16
697.738	47.96
697.927	174.93
698.116	47.96
698.305	207.7
698.494	230.23
698.683	131.92
698.872	316.24
699.061	121.68
699.25	246.61
699.438	183.12
699.627	31.57
699.816	252.75
700.005	117.59
700.193	140.12
700.382	219.99
700.571	219.99
700.76	160.59
700.948	195.41
701.137	179.03
701.326	250.71
701.514	162.64
701.703	131.92
701.892	168.79
702.08	346.96
702.269	146.26
702.457	107.35
702.646	228.18
702.834	189.27
703.023	168.79
703.212	195.41
703.4	174.93
703.589	199.51
703.777	129.88
703.965	129.88
704.154	70.48
704.342	80.72
704.531	90.96
704.719	140.12
704.907	240.47
705.096	158.55
705.284	113.49
705.472	240.47
705.661	138.07
705.849	256.85
706.037	224.08
706.226	162.64
706.414	205.65
706.602	60.24
706.79	154.45
706.979	86.87
707.167	138.07
707.355	4.95
707.543	172.88
707.731	160.59
707.919	156.5
708.107	29.52
708.296	152.4
708.484	4.95
708.672	174.93
708.86	185.17
709.048	99.16
709.236	115.54
709.424	117.59
709.612	168.79
709.8	47.96
709.988	140.12
710.176	179.03
710.364	205.65
710.551	121.68
710.739	107.35
710.927	199.51
711.115	123.73
711.303	277.33
711.491	179.03
711.679	74.58
711.866	258.9
712.054	123.73
712.242	107.35
712.43	162.64
712.617	129.88
712.805	232.27
712.993	148.31
713.181	179.03
713.368	181.07
713.556	166.74
713.744	160.59
713.931	213.84
714.119	162.64
714.306	168.79
714.494	136.02
714.682	140.12
714.869	123.73
715.057	146.26
715.244	2.9
715.432	164.69
715.619	107.35
715.807	140.12
715.994	74.58
716.182	160.59
716.369	232.27
716.556	219.99
716.744	41.81
716.931	76.63
717.119	238.42
717.306	191.31
717.493	197.46
717.681	78.68
717.868	160.59
718.055	203.6
718.242	168.79
718.43	195.41
718.617	250.71
718.804	197.46
718.991	320.34
719.179	228.18
719.366	236.37
719.553	121.68
719.74	158.55
719.927	166.74
720.114	187.22
720.301	117.59
720.488	93.01
720.676	185.17
720.863	240.47
721.05	209.75
721.237	205.65
721.424	295.76
721.611	162.64
721.798	111.44
721.985	138.07
722.172	197.46
722.358	136.02
722.545	289.62
722.732	248.66
722.919	195.41
723.106	240.47
723.293	136.02
723.48	150.36
723.667	181.07
723.853	289.62
724.04	211.79
724.227	267.09
724.414	187.22
724.6	310.1
724.787	297.81
724.974	357.2
725.161	234.32
725.347	127.83
725.534	152.4
725.72	211.79
725.907	322.38
726.094	238.42
726.28	217.94
726.467	213.84
726.653	121.68
726.84	351.06
727.027	340.82
727.213	230.23
727.4	277.33
727.586	211.79
727.773	289.62
727.959	262.99
728.145	217.94
728.332	289.62
728.518	217.94
728.705	271.19
728.891	209.75
729.077	275.28
729.264	164.69
729.45	187.22
729.636	303.95
729.823	213.84
730.009	299.86
730.195	254.8
730.382	310.1
730.568	203.6
730.754	236.37
730.94	226.13
731.126	222.03
731.313	262.99
731.499	242.51
731.685	283.47
731.871	355.15
732.057	248.66
732.243	246.61
732.429	375.63
732.615	371.54
732.801	299.86
732.987	279.38
733.173	283.47
733.359	185.17
733.545	224.08
733.731	303.95
733.917	340.82
734.103	308.05
734.289	219.99
734.475	258.9
734.661	484.17
734.847	228.18
735.033	232.27
735.219	330.58
735.404	232.27
735.59	244.56
735.776	242.51
735.962	267.09
736.148	340.82
736.333	375.63
736.519	246.61
736.705	303.95
736.89	318.29
737.076	283.47
737.262	166.74
737.447	269.14
737.633	193.36
737.819	349.01
738.004	273.23
738.19	285.52
738.375	269.14
738.561	306
738.747	359.25
738.932	154.45
739.118	435.02
739.303	297.81
739.489	385.87
739.674	246.61
739.859	174.93
740.045	371.54
740.23	289.62
740.416	185.17
740.601	338.77
740.786	275.28
740.972	205.65
741.157	281.43
741.342	158.55
741.528	234.32
741.713	332.62
741.898	308.05
742.084	271.19
742.269	267.09
742.454	322.38
742.639	359.25
742.824	291.66
743.01	394.06
743.195	396.11
743.38	324.43
743.565	230.23
743.75	322.38
743.935	344.91
744.12	437.07
744.305	195.41
744.49	269.14
744.675	275.28
744.86	301.9
745.045	361.3
745.23	265.04
745.415	252.75
745.6	355.15
745.785	279.38
745.97	269.14
746.155	281.43
746.34	392.02
746.525	281.43
746.71	289.62
746.895	267.09
747.079	187.22
747.264	232.27
747.449	299.86
747.634	306
747.819	375.63
748.003	254.8
748.188	228.18
748.373	254.8
748.557	260.95
748.742	244.56
748.927	244.56
749.111	209.75
749.296	258.9
749.481	262.99
749.665	256.85
749.85	217.94
750.034	262.99
750.219	318.29
750.404	217.94
750.588	179.03
750.773	168.79
750.957	244.56
751.141	250.71
751.326	312.14
751.51	105.3
751.695	328.53
751.879	269.14
752.064	359.25
752.248	240.47
752.432	308.05
752.617	359.25
752.801	281.43
752.985	164.69
753.17	355.15
753.354	289.62
753.538	246.61
753.722	179.03
753.907	123.73
754.091	201.55
754.275	260.95
754.459	242.51
754.643	123.73
754.828	215.89
755.012	322.38
755.196	142.16
755.38	183.12
755.564	156.5
755.748	156.5
755.932	222.03
756.116	265.04
756.3	226.13
756.484	172.88
756.668	246.61
756.852	109.4
757.036	164.69
757.22	185.17
757.404	156.5
757.588	189.27
757.772	199.51
757.956	101.2
758.14	318.29
758.323	136.02
758.507	203.6
758.691	111.44
758.875	267.09
759.059	265.04
759.242	168.79
759.426	123.73
759.61	236.37
759.794	181.07
759.977	209.75
760.161	410.45
760.345	293.71
760.528	281.43
760.712	187.22
760.895	246.61
761.079	154.45
761.263	123.73
761.446	158.55
761.63	199.51
761.813	168.79
761.997	136.02
762.18	129.88
762.364	217.94
762.547	60.24
762.731	191.31
762.914	144.21
763.098	111.44
763.281	136.02
763.464	179.03
763.648	97.11
763.831	129.88
764.015	164.69
764.198	136.02
764.381	121.68
764.564	166.74
764.748	215.89
764.931	203.6
765.114	117.59
765.297	170.83
765.481	86.87
765.664	47.96
765.847	142.16
766.03	262.99
766.213	70.48
766.397	131.92
766.58	66.39
766.763	215.89
766.946	168.79
767.129	105.3
767.312	62.29
767.495	72.53
767.678	90.96
767.861	133.97
768.044	166.74
768.227	109.4
768.41	125.78
768.593	185.17
768.776	80.72
768.959	119.64
769.142	160.59
769.324	103.25
769.507	76.63
769.69	127.83
769.873	105.3
770.056	205.65
770.239	105.3
770.421	166.74
770.604	119.64
770.787	93.01
770.97	224.08
771.152	13.14
771.335	119.64
771.518	90.96
771.7	162.64
771.883	174.93
772.066	88.92
772.248	162.64
772.431	271.19
772.613	217.94
772.796	78.68
772.978	187.22
773.161	183.12
773.343	93.01
773.526	29.52
773.708	-7.34
773.891	23.38
774.073	39.76
774.256	-13.48
774.438	279.38
774.621	-17.58
774.803	152.4
774.985	74.58
775.168	86.87
775.35	62.29
775.532	146.26
775.715	27.48
775.897	174.93
776.079	15.19
776.261	74.58
776.444	47.96
776.626	47.96
776.808	27.48
776.99	93.01
777.173	66.39
777.355	74.58
777.537	78.68
777.719	133.97
777.901	62.29
778.083	99.16
778.265	17.24
778.447	127.83
778.629	-33.96
778.811	78.68
778.993	131.92
779.175	166.74
779.357	82.77
779.539	-1.19
779.721	35.67
779.903	103.25
780.085	95.06
780.267	113.49
780.449	70.48
780.631	82.77
780.812	240.47
780.994	56.15
781.176	99.16
781.358	72.53
781.54	125.78
781.721	219.99
781.903	86.87
782.085	76.63
782.267	136.02
782.448	29.52
782.63	17.24
782.812	37.72
782.993	72.53
783.175	78.68
783.357	47.96
783.538	39.76
783.72	47.96
783.901	56.15
784.083	125.78
784.264	45.91
784.446	9.05
784.627	47.96
784.809	19.29
784.99	-36.01
785.172	156.5
785.353	56.15
785.535	80.72
785.716	-5.29
785.897	-11.43
786.079	72.53
786.26	105.3
786.441	29.52
786.623	-27.82
786.804	-15.53
786.985	82.77
787.167	103.25
787.348	13.14
787.529	-48.3
787.71	181.07
787.891	181.07
788.073	-48.3
788.254	-21.67
788.435	115.54
788.616	74.58
788.797	-31.91
788.978	-36.01
789.159	-54.44
789.34	35.67
789.522	25.43
789.703	-7.34
789.884	52.05
790.065	25.43
790.246	209.75
790.427	-31.91
790.607	115.54
790.788	95.06
790.969	-9.39
791.15	41.81
791.331	-29.87
791.512	47.96
791.693	-132.26
791.874	84.82
792.054	252.75
792.235	170.83
792.416	-7.34
792.597	11.09
792.778	74.58
792.958	86.87
793.139	9.05
793.32	33.62
793.5	-7.34
793.681	207.7
793.862	56.15
794.042	-5.29
794.223	-46.25
794.404	-7.34
794.584	-99.5
794.765	33.62
794.945	52.05
795.126	41.81
795.306	76.63
795.487	-9.39
795.667	33.62
795.848	62.29
796.028	76.63
796.209	-3.24
796.389	93.01
796.57	60.24
796.75	68.44
796.93	2.9
797.111	11.09
797.291	72.53
797.471	80.72
797.652	37.72
797.832	-33.96
798.012	47.96
798.192	-11.43
798.373	-60.59
798.553	-58.54
798.733	56.15
798.913	-33.96
799.093	-33.96
799.274	-23.72
799.454	43.86
799.634	95.06
799.814	103.25
799.994	-21.67
800.174	76.63
800.354	39.76
800.534	-50.35
800.714	21.33
800.894	-50.35
801.074	-62.63
801.254	-66.73
801.434	119.64
801.614	68.44
801.794	-56.49
801.974	1758.01
802.154	52.05
802.334	82.77
802.514	-91.31
802.693	41.81
802.873	-11.43
803.053	129.88
803.233	31.57
803.413	-3.24
803.592	-74.92
803.772	68.44
803.952	13.14
804.131	-81.07
804.311	50
804.491	70.48
804.67	-46.25
804.85	7
805.03	127.83
805.209	101.2
805.389	-13.48
805.568	-31.91
805.748	-9.39
805.928	13.14
806.107	31.57
806.287	25.43
806.466	-9.39
806.646	0.85
806.825	29.52
807.004	15.19
807.184	68.44
807.363	2.9
807.543	47.96
807.722	-111.78
807.901	80.72
808.081	72.53
808.26	-105.64
808.439	33.62
808.619	31.57
808.798	-25.77
808.977	103.25
809.156	162.64
809.336	23.38
809.515	37.72
809.694	-31.91
809.873	72.53
810.052	72.53
810.231	101.2
810.411	56.15
810.59	50
810.769	41.81
810.948	84.82
811.127	-150.7
811.306	-23.72
811.485	-66.73
811.664	142.16
811.843	29.52
812.022	-25.77
812.201	25.43
812.38	11.09
812.559	-52.39
812.737	41.81
812.916	-138.41
813.095	-21.67
813.274	117.59
813.453	-21.67
813.632	-38.06
813.811	68.44
813.989	-33.96
814.168	19.29
814.347	-54.44
814.526	7
814.704	156.5
814.883	76.63
815.062	-46.25
815.24	60.24
815.419	7
815.598	35.67
815.776	-48.3
815.955	-7.34
816.133	-128.17
816.312	-29.87
816.49	-44.2
816.669	23.38
816.847	-29.87
817.026	21.33
817.204	-38.06
817.383	-38.06
817.561	7
817.74	76.63
817.918	41.81
818.097	-11.43
818.275	-70.83
818.453	13.14
818.632	37.72
818.81	4.95
818.988	-1.19
819.167	21.33
819.345	4.95
819.523	-46.25
819.701	154.45
819.879	-5.29
820.058	33.62
820.236	103.25
820.414	29.52
820.592	-60.59
820.77	54.1
820.948	-68.78
821.127	-5.29
821.305	60.24
821.483	-25.77
821.661	121.68
821.839	84.82
822.017	-66.73
822.195	15.19
822.373	136.02
822.551	19.29
822.729	84.82
822.907	50
823.085	37.72
823.262	45.91
823.44	-70.83
823.618	-17.58
823.796	17.24
823.974	47.96
824.152	39.76
824.329	-36.01
824.507	9.05
824.685	43.86
824.863	-11.43
825.04	25.43
825.218	27.48
825.396	-1.19
825.574	47.96
825.751	-25.77
825.929	43.86
826.107	-76.97
826.284	-25.77
826.462	29.52
826.639	-33.96
826.817	-64.68
826.994	-25.77
827.172	-93.35
827.349	111.44
827.527	84.82
827.704	21.33
827.882	11.09
828.059	-29.87
828.237	-52.39
828.414	80.72
828.591	-60.59
828.769	29.52
828.946	2.9
829.124	70.48
829.301	84.82
829.478	11.09
829.655	15.19
829.833	15.19
830.01	-117.93
830.187	107.35
830.364	-11.43
830.542	2.9
830.719	111.44
830.896	50
831.073	-29.87
831.25	25.43
831.427	97.11
831.604	37.72
831.782	2.9
831.959	41.81
832.136	-44.2
832.313	54.1
832.49	-68.78
832.667	45.91
832.844	-38.06
833.021	76.63
833.198	19.29
833.374	17.24
833.551	31.57
833.728	-42.15
833.905	41.81
834.082	-21.67
834.259	-9.39
834.436	117.59
834.612	-27.82
834.789	64.34
834.966	25.43
835.143	7
835.319	-76.97
835.496	58.2
835.673	35.67
835.85	70.48
836.026	35.67
836.203	115.54
836.38	-31.91
836.556	-17.58
836.733	-72.87
836.909	74.58
837.086	-11.43
837.262	-36.01
837.439	47.96
837.616	-23.72
837.792	-33.96
837.968	2.9
838.145	-185.51
838.321	39.76
838.498	-36.01
838.674	21.33
838.851	23.38
839.027	-25.77
839.203	-11.43
839.38	37.72
839.556	13.14
839.732	88.92
839.909	-54.44
840.085	27.48
840.261	-70.83
840.437	31.57
840.614	0.85
840.79	170.83
840.966	-42.15
841.142	35.67
841.318	-40.11
841.494	13.14
841.671	47.96
841.847	-38.06
842.023	-29.87
842.199	-7.34
842.375	185.17
842.551	-54.44
842.727	-31.91
842.903	109.4
843.079	-40.11
843.255	142.16
843.431	-97.45
843.607	54.1
843.783	-138.41
843.959	29.52
844.134	-58.54
844.31	193.36
844.486	0.85
844.662	-17.58
844.838	-9.39
845.013	-7.34
845.189	99.16
845.365	35.67
845.541	-19.63
845.716	64.34
845.892	23.38
846.068	-111.78
846.244	54.1
846.419	-23.72
846.595	-87.21
846.77	-31.91
846.946	21.33
847.122	-1.19
847.297	-23.72
847.473	138.07
847.648	-64.68
847.824	54.1
847.999	-140.46
848.175	-27.82
848.35	52.05
848.526	52.05
848.701	117.59
848.876	111.44
849.052	35.67
849.227	27.48
849.403	9.05
849.578	-1.19
849.753	62.29
849.929	146.26
850.104	-58.54
850.279	17.24
850.454	37.72
850.63	17.24
850.805	-1.19
850.98	4.95
851.155	-23.72
851.33	-5.29
851.505	-83.11
851.681	115.54
851.856	-19.63
852.031	39.76
852.206	66.39
852.381	-44.2
852.556	-9.39
852.731	27.48
852.906	-33.96
853.081	9.05
853.256	82.77
853.431	-25.77
853.606	-38.06
853.781	-66.73
853.956	-74.92
854.131	-38.06
854.305	-119.98
854.48	2.9
854.655	-44.2
854.83	-1.19
855.005	15.19
855.18	17.24
855.354	-3.24
855.529	86.87
855.704	-111.78
855.879	60.24
856.053	9.05
856.228	-1.19
856.403	-72.87
856.577	101.2
856.752	-83.11
856.926	-21.67
857.101	19.29
857.276	-124.07
857.45	64.34
857.625	72.53
857.799	39.76
857.974	-25.77
858.148	-72.87
858.323	72.53
858.497	9.05
858.672	-33.96
858.846	-126.12
859.02	156.5
859.195	-109.74
859.369	11.09
859.543	21.33
859.718	-15.53
859.892	-44.2
860.066	72.53
860.241	-46.25
860.415	-48.3
860.589	-68.78
860.763	17.24
860.938	39.76
861.112	64.34
861.286	66.39
861.46	-33.96
861.634	-19.63
861.808	97.11
861.982	13.14
862.157	-56.49
862.331	-36.01
862.505	-7.34
862.679	-68.78
862.853	27.48
863.027	-23.72
863.201	131.92
863.375	7
863.549	41.81
863.722	-3.24
863.896	125.78
864.07	-11.43
864.244	-42.15
864.418	58.2
864.592	-13.48
864.766	-27.82
864.939	-40.11
865.113	-44.2
865.287	88.92
865.461	-40.11
865.634	11.09
865.808	-3.24
865.982	-25.77
866.156	-81.07
866.329	-60.59
866.503	78.68
866.676	7
866.85	7
867.024	-15.53
867.197	93.01
867.371	9.05
867.544	9.05
867.718	-111.78
867.891	56.15
868.065	-56.49
868.238	37.72
868.412	29.52
868.585	-13.48
868.759	-56.49
868.932	2.9
869.105	-91.31
869.279	-52.39
869.452	-7.34
869.625	60.24
869.799	29.52
869.972	-56.49
870.145	-33.96
870.319	99.16
870.492	-60.59
870.665	-60.59
870.838	-23.72
871.011	-218.28
871.185	-9.39
871.358	-38.06
871.531	52.05
871.704	4.95
871.877	11.09
872.05	-11.43
872.223	15.19
872.396	-7.34
872.569	35.67
872.742	-126.12
872.915	41.81
873.088	-79.02
873.261	-21.67
873.434	74.58
873.607	41.81
873.78	131.92
873.953	-46.25
874.126	62.29
874.299	103.25
874.471	-29.87
874.644	68.44
874.817	31.57
874.99	138.07
875.163	-62.63
875.335	19.29
875.508	-54.44
875.681	41.81
875.853	-1.19
876.026	-11.43
876.199	95.06
876.371	-5.29
876.544	-60.59
876.717	-25.77
876.889	-9.39
877.062	-1.19
877.234	-81.07
877.407	-3.24
877.579	-5.29
877.752	-3.24
877.924	72.53
878.097	9.05
878.269	-13.48
878.442	21.33
878.614	-11.43
878.786	15.19
878.959	64.34
879.131	43.86
879.303	-113.83
879.476	4.95
879.648	82.77
879.82	45.91
879.993	-21.67
880.165	-17.58
880.337	-85.16
880.509	-17.58
880.681	-83.11
880.854	-19.63
881.026	56.15
881.198	107.35
881.37	-11.43
881.542	2.9
881.714	-9.39
881.886	33.62
882.058	-31.91
882.23	-17.58
882.402	-17.58
882.574	72.53
882.746	78.68
882.918	103.25
883.09	123.73
883.262	-76.97
883.434	-1.19
883.606	-44.2
883.778	35.67
883.95	117.59
884.122	2.9
884.293	185.17
884.465	-13.48
884.637	164.69
884.809	-38.06
884.98	43.86
885.152	31.57
885.324	95.06
885.496	-91.31
885.667	-33.96
885.839	-17.58
886.011	119.64
886.182	-44.2
886.354	56.15
886.525	0.85
886.697	35.67
886.869	-11.43
887.04	-5.29
887.212	-9.39
887.383	111.44
887.555	-42.15
887.726	39.76
887.897	0.85
888.069	-9.39
888.24	95.06
888.412	-58.54
888.583	-62.63
888.754	43.86
888.926	-89.26
889.097	35.67
889.268	-113.83
889.44	9.05
889.611	-56.49
889.782	-87.21
889.953	41.81
890.125	19.29
890.296	-115.88
890.467	-58.54
890.638	-54.44
890.809	43.86
890.98	-21.67
891.151	-1.19
891.323	52.05
891.494	-52.39
891.665	-9.39
891.836	-1.19
892.007	19.29
892.178	7
892.349	64.34
892.52	2.9
892.691	4.95
892.862	2.9
893.032	-31.91
893.203	-33.96
893.374	-21.67
893.545	29.52
893.716	-15.53
893.887	29.52
894.057	-13.48
894.228	-40.11
894.399	-5.29
894.57	-54.44
894.74	-56.49
894.911	31.57
895.082	-83.11
895.253	-50.35
895.423	-38.06
895.594	23.38
895.764	27.48
895.935	-119.98
896.106	-7.34
896.276	-76.97
896.447	4.95
896.617	-38.06
896.788	-68.78
896.958	-15.53
897.129	-13.48
897.299	-21.67
897.47	150.36
897.64	13.14
897.81	-89.26
897.981	17.24
898.151	-48.3
898.322	31.57
898.492	41.81
898.662	-17.58
898.832	-76.97
899.003	-42.15
899.173	15.19
899.343	-97.45
899.513	-113.83
