Data from USB4F104151__18__10-23-32-047.txt Node

Date: Wed Feb 26 10:23:32 EST 2025
User: louis
Spectrometer: USB4F10415
Trigger mode: 4
Integration Time (sec): 1.000000E-1
Scans to average: 1
Electric dark correction enabled: true
Nonlinearity correction enabled: false
Boxcar width: 0
XAxis mode: Wavelengths
Number of Pixels in Spectrum: 3648
>>>>>Begin Spectral Data<<<<<
178.204	-380.92
178.424	-380.92
178.644	-380.92
178.864	-397.31
179.084	-387.07
179.304	-24.58
179.524	-71.68
179.744	55.3
179.964	90.11
180.184	24.58
180.404	-61.44
180.624	28.67
180.844	-100.35
181.064	-22.53
181.283	51.2
181.503	20.48
181.723	10.24
181.943	-129.02
182.163	219.13
182.383	-18.43
182.602	22.53
182.822	104.45
183.042	112.64
183.262	-59.39
183.482	20.48
183.701	20.48
183.921	49.15
184.141	-69.63
184.361	81.92
184.58	81.92
184.8	114.69
185.02	-131.07
185.239	100.35
185.459	40.96
185.679	169.98
185.898	-86.01
186.118	92.16
186.338	-38.91
186.557	94.21
186.777	-61.44
186.997	-12.29
187.216	28.67
187.436	174.08
187.655	26.62
187.875	135.17
188.095	20.48
188.314	141.31
188.534	143.36
188.753	-114.69
188.973	145.41
189.192	106.49
189.412	0
189.631	2.05
189.851	108.54
190.07	184.32
190.29	-32.77
190.509	-30.72
190.729	110.59
190.948	149.5
191.168	208.89
191.387	133.12
191.607	-14.34
191.826	61.44
192.045	-10.24
192.265	-20.48
192.484	40.96
192.704	38.91
192.923	-34.82
193.142	262.14
193.362	147.45
193.581	143.36
193.8	88.06
194.02	4.1
194.239	90.11
194.458	110.59
194.678	-6.14
194.897	-32.77
195.116	49.15
195.335	10.24
195.555	90.11
195.774	14.34
195.993	157.69
196.212	45.06
196.432	14.34
196.651	-32.77
196.87	26.62
197.089	186.37
197.308	59.39
197.528	59.39
197.747	-55.3
197.966	49.15
198.185	122.88
198.404	-51.2
198.623	102.4
198.842	133.12
199.062	116.73
199.281	65.54
199.5	32.77
199.719	100.35
199.938	102.4
200.157	67.58
200.376	129.02
200.595	98.3
200.814	4.1
201.033	24.58
201.252	143.36
201.471	38.91
201.69	55.3
201.909	22.53
202.128	90.11
202.347	67.58
202.566	-28.67
202.785	-110.59
203.004	-73.73
203.223	237.56
203.442	98.3
203.661	-71.68
203.879	94.21
204.098	131.07
204.317	-32.77
204.536	88.06
204.755	12.29
204.974	88.06
205.193	65.54
205.411	165.89
205.63	63.49
205.849	102.4
206.068	18.43
206.287	22.53
206.505	79.87
206.724	-24.58
206.943	-45.06
207.162	-36.86
207.381	75.77
207.599	-24.58
207.818	55.3
208.037	-63.49
208.255	8.19
208.474	51.2
208.693	4.1
208.911	30.72
209.13	77.82
209.349	81.92
209.567	135.17
209.786	92.16
210.005	-14.34
210.223	-24.58
210.442	-40.96
210.661	-12.29
210.879	36.86
211.098	26.62
211.316	106.49
211.535	126.97
211.753	45.06
211.972	30.72
212.191	-20.48
212.409	47.1
212.628	65.54
212.846	-6.14
213.065	-6.14
213.283	131.07
213.502	-38.91
213.72	55.3
213.938	57.34
214.157	2.05
214.375	69.63
214.594	-32.77
214.812	28.67
215.031	-45.06
215.249	-24.58
215.467	77.82
215.686	22.53
215.904	96.25
216.122	14.34
216.341	145.41
216.559	4.1
216.778	83.97
216.996	77.82
217.214	-57.34
217.432	36.86
217.651	-63.49
217.869	100.35
218.087	57.34
218.306	-81.92
218.524	51.2
218.742	-6.14
218.96	96.25
219.179	-38.91
219.397	20.48
219.615	180.22
219.833	79.87
220.051	-51.2
220.27	10.24
220.488	77.82
220.706	12.29
220.924	-65.53
221.142	-51.2
221.36	55.3
221.578	75.77
221.796	-26.62
222.015	-51.2
222.233	79.87
222.451	217.08
222.669	-30.72
222.887	65.54
223.105	-47.1
223.323	10.24
223.541	-57.34
223.759	24.58
223.977	-20.48
224.195	122.88
224.413	131.07
224.631	8.19
224.849	63.49
225.067	133.12
225.285	40.96
225.503	16.38
225.721	-92.16
225.939	22.53
226.157	100.35
226.375	143.36
226.592	2.05
226.81	-32.77
227.028	45.06
227.246	83.97
227.464	110.59
227.682	133.12
227.9	118.78
228.117	20.48
228.335	86.01
228.553	24.58
228.771	4.1
228.989	40.96
229.206	67.58
229.424	45.06
229.642	12.29
229.86	-8.19
230.077	65.54
230.295	26.62
230.513	86.01
230.731	94.21
230.948	204.8
231.166	126.97
231.384	40.96
231.601	-12.29
231.819	163.84
232.037	14.34
232.254	-18.43
232.472	26.62
232.689	16.38
232.907	57.34
233.125	-8.19
233.342	-24.58
233.56	43.01
233.777	12.29
233.995	61.44
234.213	55.3
234.43	53.25
234.648	94.21
234.865	49.15
235.083	16.38
235.3	145.41
235.518	61.44
235.735	135.17
235.953	18.43
236.17	2.05
236.388	10.24
236.605	24.58
236.822	129.02
237.04	165.89
237.257	73.73
237.475	18.43
237.692	18.43
237.909	57.34
238.127	-2.05
238.344	88.06
238.562	71.68
238.779	-65.53
238.996	-67.58
239.214	-14.34
239.431	18.43
239.648	45.06
239.865	94.21
240.083	53.25
240.3	-28.67
240.517	10.24
240.735	32.77
240.952	88.06
241.169	49.15
241.386	40.96
241.603	83.97
241.821	-18.43
242.038	79.87
242.255	124.93
242.472	-30.72
242.689	38.91
242.907	71.68
243.124	8.19
243.341	10.24
243.558	8.19
243.775	-34.82
243.992	-110.59
244.209	22.53
244.426	133.12
244.643	79.87
244.86	-32.77
245.078	118.78
245.295	98.3
245.512	12.29
245.729	-16.38
245.946	45.06
246.163	24.58
246.38	36.86
246.597	79.87
246.814	4.1
247.031	4.1
247.248	6.14
247.464	102.4
247.681	24.58
247.898	81.92
248.115	92.16
248.332	-4.1
248.549	157.69
248.766	110.59
248.983	100.35
249.2	51.2
249.417	120.83
249.633	-71.68
249.85	86.01
250.067	-12.29
250.284	61.44
250.501	118.78
250.717	57.34
250.934	-67.58
251.151	20.48
251.368	75.77
251.585	12.29
251.801	55.3
252.018	-40.96
252.235	106.49
252.451	-16.38
252.668	-32.77
252.885	143.36
253.102	28.67
253.318	2.05
253.535	-26.62
253.752	-12.29
253.968	63.49
254.185	-4.1
254.401	20.48
254.618	98.3
254.835	-59.39
255.051	55.3
255.268	16.38
255.484	120.83
255.701	65.54
255.917	10.24
256.134	0
256.351	24.58
256.567	-6.14
256.784	16.38
257	-24.58
257.217	8.19
257.433	137.21
257.65	79.87
257.866	141.31
258.082	-6.14
258.299	-59.39
258.515	81.92
258.732	-30.72
258.948	-32.77
259.165	102.4
259.381	-12.29
259.597	22.53
259.814	-12.29
260.03	-32.77
260.246	-100.35
260.463	53.25
260.679	77.82
260.895	-20.48
261.112	88.06
261.328	-20.48
261.544	-77.82
261.761	217.08
261.977	-12.29
262.193	-18.43
262.409	94.21
262.626	67.58
262.842	-28.67
263.058	-36.86
263.274	98.3
263.49	51.2
263.707	59.39
263.923	61.44
264.139	-96.25
264.355	-6.14
264.571	102.4
264.787	51.2
265.004	104.45
265.22	-24.58
265.436	-20.48
265.652	-71.68
265.868	94.21
266.084	6.14
266.3	2.05
266.516	-49.15
266.732	-4.1
266.948	-61.44
267.164	2.05
267.38	90.11
267.596	-4.1
267.812	86.01
268.028	61.44
268.244	-6.14
268.46	61.44
268.676	24.58
268.892	30.72
269.108	-57.34
269.324	-73.73
269.54	-38.91
269.756	47.1
269.972	-36.86
270.188	16.38
270.403	-12.29
270.619	94.21
270.835	86.01
271.051	8.19
271.267	-55.3
271.483	-59.39
271.698	73.73
271.914	110.59
272.13	4.1
272.346	-92.16
272.562	43.01
272.777	126.97
272.993	-34.82
273.209	-20.48
273.425	45.06
273.64	-47.1
273.856	65.54
274.072	-49.15
274.287	-51.2
274.503	51.2
274.719	67.58
274.934	-63.49
275.15	-16.38
275.366	43.01
275.581	-10.24
275.797	30.72
276.012	67.58
276.228	-45.06
276.444	47.1
276.659	94.21
276.875	14.34
277.09	16.38
277.306	-8.19
277.521	69.63
277.737	53.25
277.952	75.77
278.168	20.48
278.383	32.77
278.599	47.1
278.814	59.39
279.03	-24.58
279.245	81.92
279.461	36.86
279.676	51.2
279.892	-53.25
280.107	-14.34
280.322	-8.19
280.538	86.01
280.753	51.2
280.969	-32.77
281.184	32.77
281.399	153.6
281.615	71.68
281.83	2.05
282.045	-63.49
282.26	-10.24
282.476	-2.05
282.691	92.16
282.906	61.44
283.122	104.45
283.337	-92.16
283.552	108.54
283.767	-53.25
283.983	20.48
284.198	6.14
284.413	73.73
284.628	-49.15
284.843	34.82
285.058	43.01
285.274	10.24
285.489	6.14
285.704	112.64
285.919	30.72
286.134	-12.29
286.349	10.24
286.564	28.67
286.779	102.4
286.995	-8.19
287.21	-114.69
287.425	4.1
287.64	4.1
287.855	36.86
288.07	-28.67
288.285	153.6
288.5	65.54
288.715	83.97
288.93	45.06
289.145	55.3
289.36	120.83
289.575	-34.82
289.79	116.73
290.004	36.86
290.219	147.45
290.434	-51.2
290.649	-61.44
290.864	24.58
291.079	59.39
291.294	36.86
291.509	14.34
291.724	16.38
291.938	20.48
292.153	67.58
292.368	-26.62
292.583	-12.29
292.798	129.02
293.012	-10.24
293.227	69.63
293.442	-14.34
293.657	94.21
293.871	135.17
294.086	10.24
294.301	135.17
294.516	118.78
294.73	94.21
294.945	26.62
295.16	26.62
295.374	141.31
295.589	92.16
295.804	-49.15
296.018	108.54
296.233	114.69
296.447	-22.53
296.662	43.01
296.877	163.84
297.091	77.82
297.306	88.06
297.52	-4.1
297.735	69.63
297.949	55.3
298.164	32.77
298.378	-4.1
298.593	22.53
298.807	-122.88
299.022	-4.1
299.236	102.4
299.451	-59.39
299.665	55.3
299.88	28.67
300.094	83.97
300.309	0
300.523	18.43
300.737	-32.77
300.952	92.16
301.166	14.34
301.381	-47.1
301.595	-61.44
301.809	102.4
302.024	102.4
302.238	16.38
302.452	139.26
302.667	38.91
302.881	100.35
303.095	90.11
303.309	8.19
303.524	-4.1
303.738	-36.86
303.952	-34.82
304.166	47.1
304.381	-69.63
304.595	135.17
304.809	22.53
305.023	67.58
305.237	-28.67
305.452	32.77
305.666	22.53
305.88	24.58
306.094	108.54
306.308	88.06
306.522	57.34
306.736	-2.05
306.95	106.49
307.164	75.77
307.379	-20.48
307.593	110.59
307.807	88.06
308.021	65.54
308.235	6.14
308.449	-43.01
308.663	40.96
308.877	231.42
309.091	108.54
309.305	32.77
309.519	-118.78
309.733	137.21
309.947	-20.48
310.161	63.49
310.374	73.73
310.588	63.49
310.802	-26.62
311.016	8.19
311.23	26.62
311.444	-67.58
311.658	79.87
311.872	79.87
312.085	106.49
312.299	204.8
312.513	124.93
312.727	34.82
312.941	-4.1
313.154	59.39
313.368	77.82
313.582	16.38
313.796	57.34
314.009	22.53
314.223	106.49
314.437	90.11
314.651	81.92
314.864	53.25
315.078	4.1
315.292	-36.86
315.505	67.58
315.719	81.92
315.933	71.68
316.146	22.53
316.36	-51.2
316.573	116.73
316.787	34.82
317.001	67.58
317.214	-51.2
317.428	43.01
317.641	2.05
317.855	36.86
318.068	10.24
318.282	65.54
318.495	102.4
318.709	141.31
318.922	122.88
319.136	65.54
319.349	83.97
319.563	-14.34
319.776	32.77
319.99	-98.3
320.203	83.97
320.417	-100.35
320.63	57.34
320.843	161.79
321.057	59.39
321.27	81.92
321.483	69.63
321.697	133.12
321.91	47.1
322.124	2.05
322.337	73.73
322.55	-8.19
322.763	-22.53
322.977	-4.1
323.19	4.1
323.403	36.86
323.617	77.82
323.83	135.17
324.043	122.88
324.256	-26.62
324.469	-30.72
324.683	172.03
324.896	24.58
325.109	-26.62
325.322	-32.77
325.535	-28.67
325.748	63.49
325.962	30.72
326.175	69.63
326.388	40.96
326.601	102.4
326.814	-51.2
327.027	73.73
327.24	157.69
327.453	-40.96
327.666	63.49
327.879	122.88
328.092	32.77
328.305	38.91
328.518	24.58
328.731	16.38
328.944	10.24
329.157	-4.1
329.37	10.24
329.583	167.93
329.796	129.02
330.009	-124.93
330.222	28.67
330.435	149.5
330.648	49.15
330.861	24.58
331.073	55.3
331.286	155.65
331.499	71.68
331.712	-71.68
331.925	40.96
332.138	61.44
332.35	110.59
332.563	30.72
332.776	102.4
332.989	14.34
333.202	-53.25
333.414	38.91
333.627	22.53
333.84	-55.3
334.053	53.25
334.265	-24.58
334.478	61.44
334.691	-79.87
334.903	77.82
335.116	-49.15
335.329	61.44
335.541	49.15
335.754	184.32
335.966	-49.15
336.179	12.29
336.392	-2.05
336.604	14.34
336.817	131.07
337.029	59.39
337.242	104.45
337.454	104.45
337.667	16.38
337.88	124.93
338.092	-6.14
338.305	184.32
338.517	-73.73
338.729	71.68
338.942	67.58
339.154	-61.44
339.367	-61.44
339.579	120.83
339.792	-36.86
340.004	104.45
340.217	28.67
340.429	12.29
340.641	-28.67
340.854	-55.3
341.066	49.15
341.278	188.41
341.491	176.13
341.703	59.39
341.915	-28.67
342.128	71.68
342.34	-4.1
342.552	-55.3
342.764	-24.58
342.977	40.96
343.189	43.01
343.401	43.01
343.613	28.67
343.826	-12.29
344.038	-16.38
344.25	10.24
344.462	-51.2
344.674	53.25
344.886	-49.15
345.099	26.62
345.311	30.72
345.523	4.1
345.735	-98.3
345.947	-16.38
346.159	79.87
346.371	8.19
346.583	32.77
346.795	225.28
347.007	73.73
347.219	67.58
347.431	71.68
347.643	83.97
347.855	20.48
348.067	90.11
348.279	-22.53
348.491	79.87
348.703	32.77
348.915	-22.53
349.127	61.44
349.339	59.39
349.551	2.05
349.763	106.49
349.975	73.73
350.187	135.17
350.399	157.69
350.61	98.3
350.822	18.43
351.034	28.67
351.246	40.96
351.458	65.54
351.669	36.86
351.881	14.34
352.093	139.26
352.305	126.97
352.517	4.1
352.728	104.45
352.94	67.58
353.152	-14.34
353.363	-47.1
353.575	28.67
353.787	133.12
353.999	110.59
354.21	137.21
354.422	40.96
354.633	30.72
354.845	32.77
355.057	47.1
355.268	40.96
355.48	120.83
355.692	-65.53
355.903	71.68
356.115	-63.49
356.326	-65.53
356.538	81.92
356.749	30.72
356.961	161.79
357.172	30.72
357.384	4.1
357.595	231.42
357.807	-34.82
358.018	16.38
358.23	22.53
358.441	96.25
358.653	18.43
358.864	65.54
359.075	-43.01
359.287	110.59
359.498	94.21
359.709	98.3
359.921	-12.29
360.132	-6.14
360.344	81.92
360.555	4.1
360.766	94.21
360.977	32.77
361.189	137.21
361.4	0
361.611	106.49
361.823	73.73
362.034	79.87
362.245	-28.67
362.456	-22.53
362.667	79.87
362.879	-18.43
363.09	98.3
363.301	40.96
363.512	18.43
363.723	36.86
363.935	-45.06
364.146	51.2
364.357	61.44
364.568	-10.24
364.779	-40.96
364.99	131.07
365.201	-53.25
365.412	94.21
365.623	-86.01
365.834	-14.34
366.045	69.63
366.256	135.17
366.467	102.4
366.678	28.67
366.889	92.16
367.1	-36.86
367.311	65.54
367.522	-40.96
367.733	36.86
367.944	49.15
368.155	36.86
368.366	75.77
368.577	112.64
368.788	163.84
368.999	-28.67
369.209	-34.82
369.42	241.66
369.631	223.23
369.842	45.06
370.053	40.96
370.264	98.3
370.474	57.34
370.685	129.02
370.896	61.44
371.107	104.45
371.317	40.96
371.528	-18.43
371.739	55.3
371.95	112.64
372.16	32.77
372.371	47.1
372.582	49.15
372.792	65.54
373.003	6.14
373.214	22.53
373.424	104.45
373.635	-8.19
373.846	129.02
374.056	65.54
374.267	38.91
374.477	86.01
374.688	-34.82
374.898	16.38
375.109	26.62
375.319	65.54
375.53	65.54
375.74	149.5
375.951	-38.91
376.161	36.86
376.372	98.3
376.582	20.48
376.793	51.2
377.003	-61.44
377.214	-30.72
377.424	59.39
377.635	14.34
377.845	-49.15
378.055	94.21
378.266	-88.06
378.476	-69.63
378.686	79.87
378.897	26.62
379.107	135.17
379.317	40.96
379.528	6.14
379.738	57.34
379.948	-26.62
380.158	63.49
380.369	24.58
380.579	75.77
380.789	-20.48
380.999	126.97
381.21	120.83
381.42	169.98
381.63	26.62
381.84	77.82
382.05	0
382.261	135.17
382.471	102.4
382.681	-8.19
382.891	102.4
383.101	65.54
383.311	-34.82
383.521	-53.25
383.731	163.84
383.941	71.68
384.151	77.82
384.361	-73.73
384.571	98.3
384.781	24.58
384.991	104.45
385.201	180.22
385.411	161.79
385.621	57.34
385.831	34.82
386.041	-4.1
386.251	49.15
386.461	163.84
386.671	8.19
386.881	-2.05
387.091	-32.77
387.301	108.54
387.511	28.67
387.72	73.73
387.93	116.73
388.14	10.24
388.35	12.29
388.56	77.82
388.769	86.01
388.979	-6.14
389.189	-24.58
389.399	67.58
389.609	90.11
389.818	53.25
390.028	57.34
390.238	59.39
390.447	-34.82
390.657	38.91
390.867	-28.67
391.076	-14.34
391.286	-12.29
391.496	49.15
391.705	-8.19
391.915	180.22
392.125	133.12
392.334	53.25
392.544	133.12
392.753	-12.29
392.963	-47.1
393.172	36.86
393.382	30.72
393.591	165.89
393.801	45.06
394.01	190.46
394.22	90.11
394.429	90.11
394.639	90.11
394.848	-2.05
395.058	-24.58
395.267	-86.01
395.477	124.93
395.686	40.96
395.895	172.03
396.105	104.45
396.314	24.58
396.524	61.44
396.733	-6.14
396.942	151.55
397.152	83.97
397.361	124.93
397.57	26.62
397.78	-4.1
397.989	65.54
398.198	243.71
398.407	14.34
398.617	43.01
398.826	22.53
399.035	34.82
399.244	104.45
399.453	18.43
399.663	104.45
399.872	57.34
400.081	-20.48
400.29	106.49
400.499	-94.21
400.708	112.64
400.917	12.29
401.127	57.34
401.336	16.38
401.545	231.42
401.754	40.96
401.963	47.1
402.172	-43.01
402.381	-129.02
402.59	79.87
402.799	4.1
403.008	104.45
403.217	-4.1
403.426	133.12
403.635	-129.02
403.844	-6.14
404.053	-2.05
404.262	-4.1
404.471	167.93
404.68	10.24
404.888	-6.14
405.097	14.34
405.306	36.86
405.515	169.98
405.724	32.77
405.933	155.65
406.142	18.43
406.35	96.25
406.559	-6.14
406.768	47.1
406.977	120.83
407.185	77.82
407.394	88.06
407.603	-53.25
407.812	-6.14
408.02	172.03
408.229	67.58
408.438	18.43
408.646	26.62
408.855	36.86
409.064	49.15
409.272	-55.3
409.481	-43.01
409.69	-4.1
409.898	4.1
410.107	67.58
410.315	116.73
410.524	51.2
410.733	-6.14
410.941	43.01
411.15	30.72
411.358	71.68
411.567	116.73
411.775	4.1
411.984	73.73
412.192	65.54
412.401	-45.06
412.609	153.6
412.818	106.49
413.026	102.4
413.234	-26.62
413.443	120.83
413.651	28.67
413.86	67.58
414.068	112.64
414.276	210.94
414.485	57.34
414.693	108.54
414.901	94.21
415.11	112.64
415.318	34.82
415.526	-2.05
415.734	108.54
415.943	47.1
416.151	198.65
416.359	2.05
416.567	100.35
416.776	114.69
416.984	86.01
417.192	147.45
417.4	65.54
417.608	32.77
417.817	-75.77
418.025	26.62
418.233	126.97
418.441	-10.24
418.649	34.82
418.857	86.01
419.065	18.43
419.273	18.43
419.481	14.34
419.689	-4.1
419.897	12.29
420.105	20.48
420.313	178.17
420.521	131.07
420.729	141.31
420.937	-79.87
421.145	-53.25
421.353	114.69
421.561	157.69
421.769	86.01
421.977	-36.86
422.185	6.14
422.393	71.68
422.601	114.69
422.809	104.45
423.017	120.83
423.224	141.31
423.432	96.25
423.64	22.53
423.848	188.41
424.056	-20.48
424.263	90.11
424.471	32.77
424.679	131.07
424.887	51.2
425.094	104.45
425.302	94.21
425.51	53.25
425.718	71.68
425.925	75.77
426.133	32.77
426.341	169.98
426.548	12.29
426.756	20.48
426.964	100.35
427.171	36.86
427.379	63.49
427.586	116.73
427.794	114.69
428.001	200.7
428.209	57.34
428.417	126.97
428.624	38.91
428.832	81.92
429.039	100.35
429.247	40.96
429.454	75.77
429.662	221.18
429.869	141.31
430.076	159.74
430.284	198.65
430.491	245.76
430.699	49.15
430.906	260.09
431.114	192.51
431.321	120.83
431.528	145.41
431.736	172.03
431.943	192.51
432.15	212.99
432.358	174.08
432.565	292.86
432.772	90.11
432.979	210.94
433.187	141.31
433.394	280.57
433.601	0
433.808	270.33
434.016	256
434.223	237.56
434.43	217.08
434.637	270.33
434.844	317.44
435.052	296.96
435.259	282.62
435.466	280.57
435.673	223.23
435.88	307.2
436.087	294.91
436.294	311.29
436.501	319.48
436.708	360.44
436.915	329.72
437.122	360.44
437.329	272.38
437.537	286.72
437.743	409.59
437.95	430.07
438.157	421.88
438.364	464.89
438.571	309.24
438.778	581.62
438.985	503.8
439.192	475.13
439.399	419.83
439.606	567.29
439.813	542.71
440.02	620.53
440.227	659.45
440.433	624.63
440.64	546.81
440.847	511.99
441.054	610.29
441.261	772.08
441.467	663.54
441.674	645.11
441.881	759.8
442.088	634.87
442.294	780.28
442.501	872.43
442.708	897.01
442.914	880.63
443.121	921.59
443.328	856.05
443.534	1028.08
443.741	989.17
443.948	966.64
444.154	1001.46
444.361	1202.16
444.568	1148.91
444.774	1036.27
444.981	1128.43
445.187	1337.32
445.394	1222.64
445.6	1267.69
445.807	1462.25
446.013	1382.38
446.22	1327.08
446.426	1523.69
446.633	1634.28
446.839	1777.64
447.046	1503.21
447.252	1798.12
447.459	1724.39
447.665	1716.2
447.871	1986.53
448.078	2035.68
448.284	2144.22
448.491	2168.8
448.697	2291.68
448.903	2367.45
449.11	2504.67
449.316	2379.74
449.522	2719.7
449.728	2678.74
449.935	2729.94
450.141	2637.78
450.347	3037.14
450.553	2940.88
450.76	3063.76
450.966	3098.58
451.172	3313.61
451.378	3356.62
451.584	3518.41
451.791	3809.22
451.997	3915.72
452.203	3874.76
452.409	4149.18
452.615	4452.28
452.821	4267.97
453.027	4110.27
453.233	4841.4
453.44	4642.75
453.646	4857.78
453.852	4970.42
454.058	5312.43
454.264	5441.45
454.47	5826.47
454.676	5873.57
454.882	6322.08
455.088	6074.28
455.294	6330.27
455.5	6922.13
455.705	7190.42
455.911	7159.7
456.117	7460.75
456.323	7780.23
456.529	7602.06
456.735	8322.94
456.941	8478.59
457.147	8898.42
457.352	9060.21
457.558	9275.25
457.764	9916.26
457.97	10114.92
458.176	10657.63
458.381	11040.6
458.587	11536.21
458.793	11722.57
458.999	11988.81
459.204	13301.56
459.41	13846.32
459.616	13524.79
459.821	14393.12
460.027	14941.98
460.233	15722.26
460.438	15613.71
460.644	16848.64
460.85	16951.04
461.055	17286.9
461.261	18431.72
461.466	17927.92
461.672	18292.46
461.878	20444.87
462.083	20188.88
462.289	20854.47
462.494	21675.7
462.7	21313.21
462.905	21823.15
463.111	23766.68
463.316	24964.74
463.522	25300.61
463.727	26050.16
463.932	27199.07
464.138	28241.49
464.343	28980.81
464.549	29226.56
464.754	31297.06
464.959	32163.35
465.165	32701.97
465.37	32273.94
465.575	32810.51
465.781	34285.04
465.986	35669.47
466.191	34964.97
466.397	35251.69
466.602	34633.2
466.807	36533.71
467.012	37141.96
467.218	37825.98
467.423	38063.55
467.628	38739.38
467.833	40484.25
468.038	40109.47
468.244	39388.58
468.449	41289.1
468.654	40504.73
468.859	40713.62
469.064	40893.84
469.269	40119.71
469.474	39826.85
469.679	40961.42
469.885	40166.81
470.09	40471.96
470.295	40627.6
470.5	39703.97
470.705	39964.06
470.91	39007.66
471.115	38753.71
471.32	38688.18
471.525	38923.69
471.73	37725.63
471.935	37666.24
472.139	36247
472.344	36482.52
472.549	36269.53
472.754	35489.25
472.959	34706.93
473.164	33764.86
473.369	33193.48
473.574	33732.09
473.778	33351.17
473.983	32329.23
474.188	32235.03
474.393	30684.72
474.598	30432.82
474.802	29900.34
475.007	29578.81
475.212	29249.09
475.417	27829.85
475.621	27776.6
475.826	27428.45
476.031	26900.07
476.235	26291.82
476.44	26293.87
476.645	25497.21
476.849	25237.12
477.054	25017.99
477.259	24090.26
477.463	24598.15
477.668	23537.3
477.872	23713.43
478.077	23004.83
478.282	22128.3
478.486	22183.6
478.691	22030
478.895	21704.37
479.1	21382.84
479.304	21300.92
479.509	20592.33
479.713	21022.4
479.918	20342.47
480.122	19955.41
480.326	20156.11
480.531	20319.95
480.735	20090.57
480.94	19635.92
481.144	20002.51
481.348	19025.63
481.553	18925.28
481.757	19007.2
481.961	18710.24
482.166	19064.54
482.37	19019.49
482.574	18448.1
482.778	18271.98
482.983	18439.91
483.187	18110.19
483.391	18050.8
483.595	18011.89
483.8	17651.44
484.004	17506.04
484.208	17581.81
484.412	17364.73
484.616	17100.54
484.821	17180.41
485.025	16289.54
485.229	16469.76
485.433	16396.04
485.637	16140.04
485.841	15865.61
486.045	15660.82
486.249	15580.95
486.453	15263.51
486.657	15464.21
486.861	14954.27
487.065	14552.87
487.269	14565.15
487.473	13856.56
487.677	14274.34
487.881	14106.41
488.085	13279.03
488.289	13766.45
488.493	12994.36
488.697	12965.69
488.901	12851
489.105	12603.2
489.309	12455.75
489.512	12183.37
489.716	12214.09
489.92	11611.98
490.124	11497.3
490.328	11634.51
490.531	11083.61
490.735	11151.19
490.939	10846.04
491.143	10401.63
491.346	10389.35
491.55	10293.09
491.754	10262.37
491.958	10067.81
492.161	9736.04
492.365	9717.61
492.569	9469.81
492.772	9103.22
492.976	9471.86
493.18	9154.42
493.383	8800.12
493.587	9068.41
493.79	8875.9
493.994	8464.25
494.197	8398.72
494.401	8480.64
494.605	8374.14
494.808	8468.35
495.012	8587.13
495.215	8433.54
495.419	8408.96
495.622	8116.1
495.825	8083.33
496.029	8079.24
496.232	8273.79
496.436	8021.89
496.639	8241.03
496.843	8112
497.046	8107.91
497.249	8085.38
497.453	8124.29
497.656	7954.31
497.859	7968.65
498.063	8081.28
498.266	8138.63
498.469	8052.61
498.673	8109.96
498.876	8066.95
499.079	7966.6
499.282	8306.56
499.485	8458.11
499.689	8310.66
499.892	8662.91
500.095	8306.56
500.298	8603.52
500.501	8224.64
500.705	8593.28
500.908	8765.31
501.111	8800.12
501.314	8839.03
501.517	9172.85
501.72	9127.8
501.923	8959.86
502.126	9031.54
502.329	9492.34
502.532	9269.11
502.735	9484.14
502.938	9682.8
503.141	10024.81
503.344	9813.87
503.547	10073.96
503.75	10106.73
503.953	10170.21
504.156	10514.27
504.359	10327.91
504.562	10563.42
504.765	10800.99
504.968	10852.19
505.17	11251.54
505.373	11333.46
505.576	11454.29
505.779	11753.29
505.982	11902.79
506.185	12080.97
506.387	12048.2
506.59	12535.62
506.793	12707.65
506.996	12885.82
507.198	13279.03
507.401	13422.39
507.604	13657.9
507.807	13989.67
508.009	14325.54
508.212	14298.92
508.415	14638.88
508.617	14913.31
508.82	15410.96
509.022	15433.49
509.225	15980.3
509.428	15974.16
509.63	16410.37
509.833	16566.02
510.035	17469.17
510.238	17485.56
510.44	18065.13
510.643	18370.28
510.845	18781.92
511.048	18691.81
511.25	19154.65
511.453	19660.5
511.655	20608.71
511.858	20795.07
512.06	21061.31
512.262	21532.34
512.465	21888.69
512.667	22396.59
512.87	22879.91
513.072	23436.95
513.274	24157.84
513.477	24805
513.679	25030.27
513.881	25738.87
514.084	26179.18
514.286	26685.03
514.488	27088.48
514.69	28231.25
514.893	28347.98
515.095	28769.86
515.297	29468.22
515.499	30068.28
515.701	30725.68
515.904	31350.31
516.106	31772.19
516.308	32550.42
516.51	33207.81
516.712	33859.07
516.914	34485.75
517.116	34883.05
517.318	35517.92
517.52	35886.56
517.722	36533.71
517.925	37053.9
518.127	38514.1
518.329	38561.2
518.531	39005.61
518.733	40191.39
518.935	40293.79
519.136	40969.61
519.338	41467.27
519.54	42616.18
519.742	42655.09
519.944	43355.5
520.146	44031.33
520.348	44707.16
520.55	45112.66
520.752	45714.76
520.954	46531.9
521.155	46118.21
521.357	47142.19
521.559	47772.97
521.761	48629.02
521.963	48520.48
522.164	48858.39
522.366	48749.85
522.568	49585.42
522.77	49532.17
522.971	50644.22
523.173	49956.1
523.375	50865.4
523.576	50875.64
523.778	51135.73
523.98	51889.38
524.181	52120.8
524.383	51817.71
524.584	51995.88
524.786	52065.51
524.988	52042.98
525.189	52333.79
525.391	52376.8
525.592	52405.47
525.794	52458.72
525.995	52022.5
526.197	51838.18
526.398	52083.94
526.6	51995.88
526.801	52225.25
527.003	51928.3
527.204	51139.83
527.406	51768.55
527.607	50904.31
527.808	51229.94
528.01	50294.02
528.211	50406.65
528.412	50840.82
528.614	50185.47
528.815	49929.48
529.016	49933.57
529.218	48792.86
529.419	48635.16
529.62	47973.67
529.822	47476.01
530.023	46830.9
530.224	46683.45
530.425	46595.39
530.626	45503.82
530.828	44979.54
531.029	45270.35
531.23	43945.31
531.431	43564.39
531.632	43464.04
531.833	43197.8
532.035	42646.9
532.236	42182.01
532.437	41565.57
532.638	40768.91
532.839	40781.2
533.04	40080.8
533.241	39443.88
533.442	39251.37
533.643	38653.36
533.844	38192.57
534.045	37787.07
534.246	36699.6
534.447	36158.94
534.648	36191.7
534.849	35571.17
535.05	34838
535.251	34627.06
535.451	33844.73
535.652	33920.51
535.853	33199.62
536.054	32757.26
536.255	32523.79
536.456	31913.5
536.657	31794.71
536.857	31213.09
537.058	30311.99
537.259	30887.46
537.46	30041.65
537.66	29437.5
537.861	29392.45
538.062	28640.84
538.263	28573.26
538.463	28141.14
538.664	27801.18
538.865	27178.59
539.065	26898.02
539.266	26410.6
539.466	26660.46
539.667	26166.9
539.868	25908.85
540.068	25607.8
540.269	25224.83
540.469	24626.82
540.67	24569.48
540.87	24131.22
541.071	23819.92
541.271	23678.61
541.472	23561.88
541.672	23332.51
541.873	22777.51
542.073	22099.63
542.274	22660.77
542.474	22380.2
542.675	21448.38
542.875	21782.2
543.075	21272.25
543.276	20856.51
543.476	21098.17
543.676	20580.04
543.877	20426.44
544.077	20086.48
544.277	19816.15
544.478	19875.54
544.678	19814.1
544.878	19433.18
545.078	18960.09
545.279	18665.19
545.479	18454.25
545.679	18431.72
545.879	18079.47
546.079	17848.05
546.28	17440.5
546.48	17776.37
546.68	17377.01
546.88	17094.4
547.08	17260.28
547.28	16869.12
547.48	16512.77
547.68	16480
547.88	16211.72
548.081	15859.47
548.281	15582.99
548.481	15486.74
548.681	15669.01
548.881	15439.64
549.081	14896.92
549.28	14524.19
549.48	14552.87
549.68	14536.48
549.88	14411.56
550.08	13874.99
550.28	13823.79
550.48	13651.76
550.68	13573.94
550.88	13457.2
551.08	13061.94
551.279	13283.13
551.479	12603.2
551.679	12744.51
551.879	12322.63
552.079	12420.93
552.278	11929.42
552.478	11894.6
552.678	11732.81
552.878	11556.69
553.077	11388.75
553.277	11179.86
553.477	11147.09
553.676	10893.15
553.876	10686.3
554.076	10510.18
554.275	10194.79
554.475	10196.84
554.674	10139.49
554.874	9779.05
555.074	9482.1
555.273	9514.86
555.473	9238.39
555.672	9154.42
555.872	9031.54
556.071	8970.1
556.271	8867.7
556.47	8925.05
556.67	8486.78
556.869	8394.62
557.068	8134.53
557.268	8079.24
557.467	8060.81
557.667	8105.86
557.866	7813
558.065	7573.39
558.265	7528.33
558.464	7296.91
558.663	7479.18
558.863	7133.08
559.062	6991.77
559.261	6829.98
559.461	7034.77
559.66	6545.31
559.859	6580.12
560.058	6545.31
560.258	6320.03
560.457	6231.97
560.656	6387.61
560.855	5975.97
561.054	6051.75
561.253	5951.4
561.453	5955.49
561.652	5908.39
561.851	5824.42
562.05	5613.48
562.249	5390.25
562.448	5435.31
562.647	5242.8
562.846	5259.18
563.045	5373.87
563.244	5113.78
563.443	5146.55
563.642	4902.84
563.841	4837.3
564.04	4716.47
564.239	4818.87
564.438	4655.03
564.637	4630.46
564.836	4550.59
565.035	4433.85
565.234	4315.07
565.432	4399.04
565.631	4394.94
565.83	4175.81
566.029	4136.9
566.228	4081.6
566.427	4167.62
566.625	3860.42
566.824	3964.87
567.023	3932.1
567.222	3817.41
567.42	3753.93
567.619	3590.09
567.818	3676.1
568.016	3751.88
568.215	3731.4
568.414	3643.34
568.612	3416.01
568.811	3272.65
569.01	3334.09
569.208	3286.99
569.407	3327.95
569.605	3268.56
569.804	3184.59
570.002	3090.38
570.201	3043.28
570.4	3084.24
570.598	2990.03
570.797	2961.36
570.995	2891.73
571.193	2801.62
571.392	2836.44
571.59	2777.05
571.789	2719.7
571.987	2768.85
572.186	2818.01
572.384	2545.63
572.582	2519
572.781	2697.17
572.979	2387.93
573.177	2625.5
573.376	2539.48
573.574	2478.04
573.772	2361.31
573.971	2308.06
574.169	2236.38
574.367	2238.43
574.565	2285.53
574.763	2113.5
574.962	2152.42
575.16	2256.86
575.358	1966.05
575.556	2066.4
575.754	2056.16
575.952	1892.32
576.151	1937.38
576.349	2015.2
576.547	1802.21
576.745	2011.11
576.943	1855.46
577.141	1757.16
577.339	1787.88
577.537	1771.49
577.735	1783.78
577.933	1722.34
578.131	1619.94
578.329	1753.06
578.527	1589.22
578.725	1681.38
578.923	1460.2
579.121	1607.66
579.319	1337.32
579.516	1478.63
579.714	1697.77
579.912	1507.3
580.11	1298.41
580.308	1456.11
580.506	1341.42
580.704	1214.45
580.901	1206.25
581.099	1447.91
581.297	1212.4
581.495	1386.47
581.692	1406.95
581.89	1392.62
582.088	1316.84
582.285	1191.92
582.483	1198.06
582.681	1282.03
582.878	1175.53
583.076	1159.15
583.274	1107.95
583.471	1302.51
583.669	1097.71
583.866	1050.61
584.064	1050.61
584.262	989.17
584.459	1026.03
584.657	1069.04
584.854	1089.52
585.052	991.22
585.249	1118.19
585.447	968.69
585.644	847.86
585.841	1017.84
586.039	942.07
586.236	1011.7
586.434	851.95
586.631	845.81
586.828	929.78
587.026	913.39
587.223	833.52
587.42	917.49
587.618	800.76
587.815	913.39
588.012	827.38
588.21	862.19
588.407	804.85
588.604	894.96
588.801	692.21
588.999	667.64
589.196	831.48
589.393	724.98
589.59	755.7
589.787	747.51
589.984	772.08
590.182	729.08
590.379	614.39
590.576	839.67
590.773	720.89
590.97	641.01
591.167	716.79
591.364	743.41
591.561	747.51
591.758	780.28
591.955	755.7
592.152	733.17
592.349	643.06
592.546	649.21
592.743	700.41
592.94	684.02
593.137	667.64
593.334	798.71
593.531	694.26
593.727	706.55
593.924	669.69
594.121	696.31
594.318	641.01
594.515	808.95
594.712	729.08
594.908	866.29
595.105	665.59
595.302	788.47
595.499	755.7
595.696	790.52
595.892	720.89
596.089	901.11
596.286	782.32
596.482	917.49
596.679	913.39
596.876	774.13
597.072	837.62
597.269	880.63
597.466	864.24
597.662	946.16
597.859	899.06
598.055	970.74
598.252	1087.47
598.448	1042.42
598.645	1169.39
598.841	1187.82
599.038	1228.78
599.234	1351.66
599.431	1284.08
599.627	1380.33
599.824	1273.84
600.02	1314.8
600.217	1503.21
600.413	1431.53
600.609	1699.81
600.806	1845.22
601.002	1681.38
601.198	1648.61
601.395	1877.99
601.591	1892.32
601.787	1904.61
601.984	1974.24
602.18	2138.08
602.376	2047.97
602.572	2314.2
602.769	2428.89
602.965	2383.84
603.161	2650.07
603.357	2660.31
603.553	2785.24
603.75	2693.08
603.946	2742.23
604.142	2899.92
604.338	3157.97
604.534	3112.91
604.73	3217.36
604.926	3375.05
605.122	3616.71
605.318	3461.07
605.514	3729.35
605.71	3817.41
605.906	4028.35
606.102	4071.36
606.298	4059.07
606.494	4274.11
606.69	4540.35
606.886	4562.87
607.082	4739
607.278	4689.85
607.474	4921.27
607.67	5089.2
607.866	5183.41
608.062	5472.17
608.257	5529.52
608.453	5595.05
608.649	5894.05
608.845	5902.25
609.041	6029.22
609.236	6281.12
609.432	6647.71
609.628	6524.83
609.824	6856.6
610.019	6954.9
610.215	7200.66
610.411	7473.04
610.606	7552.91
610.802	7737.23
610.998	7909.26
611.193	8396.67
611.389	8236.93
611.584	8626.04
611.78	8777.59
611.976	9045.88
612.171	9248.63
612.367	9473.9
612.562	9883.5
612.758	9844.59
612.953	10172.26
613.149	10610.53
613.344	10776.41
613.539	11081.56
613.735	11749.2
613.93	11716.43
614.126	11915.08
614.321	12441.41
614.517	12734.27
614.712	12842.81
614.907	13172.53
615.103	13643.57
615.298	13887.28
615.493	14325.54
615.688	14313.25
615.884	15275.8
616.079	15107.87
616.274	16054.03
616.47	16199.43
616.665	16682.75
616.86	17004.28
617.055	17178.36
617.25	18122.48
617.445	18419.43
617.641	18468.58
617.836	19359.45
618.031	19277.53
618.226	20283.08
618.421	20651.72
618.616	20997.82
618.811	21380.79
619.006	22255.28
619.201	22533.8
619.396	22879.91
619.591	23471.77
619.786	23994
619.981	24309.39
620.176	25069.19
620.371	25538.17
620.566	25900.66
620.761	26396.27
620.956	27242.08
621.151	27813.46
621.346	28757.58
621.541	28534.35
621.735	29419.07
621.93	29771.32
622.125	30402.1
622.32	30404.14
622.515	31280.67
622.709	31942.17
622.904	32618
623.099	33170.95
623.294	33859.07
623.488	33902.07
623.683	35091.94
623.878	35395.04
624.072	35739.1
624.267	36617.68
624.462	37004.75
624.656	37238.22
624.851	38204.86
625.046	38444.47
625.24	38974.89
625.435	39521.7
625.629	40078.75
625.824	40648.08
626.018	41411.98
626.213	40920.46
626.407	42210.68
626.602	42145.15
626.796	43093.36
626.991	43230.57
627.185	43748.71
627.38	43828.58
627.574	44612.95
627.768	44117.34
627.963	44719.45
628.157	44776.79
628.352	45307.21
628.546	44676.44
628.74	45403.47
628.935	44615
629.129	45200.72
629.323	44647.77
629.517	44531.03
629.712	44457.31
629.906	44090.72
630.1	43169.13
630.294	43408.75
630.489	42716.53
630.683	42894.71
630.877	41555.33
631.071	41129.36
631.265	40822.16
631.459	39632.29
631.653	39032.24
631.848	38143.42
632.042	37463.49
632.236	36767.18
632.43	35511.78
632.624	34917.87
632.818	33570.3
633.012	32560.66
633.206	31223.33
633.4	30785.07
633.594	29546.05
633.788	28737.1
633.982	27821.66
634.176	26875.49
634.369	25353.85
634.563	25007.75
634.757	23699.09
634.951	23006.88
635.145	22435.5
635.339	21161.66
635.533	20414.15
635.726	19738.32
635.92	18712.29
636.114	18067.18
636.308	17211.13
636.501	16543.49
636.695	16152.33
636.889	15531.8
637.083	14909.21
637.276	14114.6
637.47	13494.07
637.664	12998.46
637.857	12451.65
638.051	12095.3
638.244	11464.53
638.438	10981.21
638.632	10493.79
638.825	10114.92
639.019	10080.1
639.212	9217.91
639.406	9092.98
639.599	8873.85
639.793	8615.8
639.986	7993.22
640.18	7790.47
640.373	7407.5
640.567	7077.78
640.76	6905.75
640.954	6555.55
641.147	6336.42
641.34	6096.8
641.534	5975.97
641.727	5842.85
641.92	5543.85
642.114	5308.34
642.307	5021.62
642.5	4839.35
642.694	4618.17
642.887	4530.11
643.08	4575.16
643.273	4091.84
643.467	3936.2
643.66	3909.57
643.853	3758.02
644.046	3563.47
644.239	3571.66
644.432	3272.65
644.626	3123.15
644.819	3096.53
645.012	3059.67
645.205	2861.01
645.398	2838.48
645.591	2562.01
645.784	2412.51
645.977	2424.8
646.17	2271.2
646.363	2203.61
646.556	2316.25
646.749	1953.76
646.942	1990.63
647.135	2072.54
647.328	1769.45
647.521	1939.43
647.714	1701.86
647.907	1765.35
648.099	1603.56
648.292	1435.63
648.485	1542.12
648.678	1458.15
648.871	1333.23
649.064	1345.52
649.256	1318.89
649.449	1138.67
649.642	1085.42
649.835	1120.24
650.027	1048.56
650.22	1114.1
650.413	1062.9
650.605	1021.94
650.798	878.58
650.991	847.86
651.183	925.68
651.376	956.4
651.568	950.26
651.761	731.12
651.954	808.95
652.146	739.32
652.339	761.84
652.531	741.36
652.724	612.34
652.916	671.73
653.109	624.63
653.301	749.56
653.494	671.73
653.686	620.53
653.879	739.32
654.071	532.47
654.263	585.72
654.456	481.27
654.648	618.49
654.84	522.23
655.033	495.61
655.225	622.58
655.417	315.39
655.61	573.43
655.802	591.86
655.994	544.76
656.186	286.72
656.379	524.28
656.571	387.07
656.763	360.44
656.955	331.77
657.148	401.4
657.34	438.27
657.532	309.24
657.724	229.37
657.916	382.97
658.108	391.16
658.3	360.44
658.492	442.36
658.684	233.47
658.876	415.74
659.068	204.8
659.26	180.22
659.452	301.05
659.644	243.71
659.836	368.63
660.028	233.47
660.22	192.51
660.412	253.95
660.604	256
660.796	282.62
660.988	268.28
661.18	239.61
661.372	237.56
661.563	124.93
661.755	223.23
661.947	112.64
662.139	143.36
662.331	196.61
662.522	227.32
662.714	139.26
662.906	196.61
663.097	178.17
663.289	210.94
663.481	151.55
663.673	143.36
663.864	182.27
664.056	190.46
664.247	120.83
664.439	235.52
664.631	212.99
664.822	198.65
665.014	131.07
665.205	161.79
665.397	149.5
665.588	180.22
665.78	100.35
665.971	180.22
666.163	81.92
666.354	114.69
666.546	167.93
666.737	108.54
666.929	114.69
667.12	92.16
667.311	159.74
667.503	124.93
667.694	196.61
667.885	204.8
668.077	139.26
668.268	51.2
668.459	108.54
668.651	145.41
668.842	96.25
669.033	59.39
669.224	118.78
669.416	301.05
669.607	77.82
669.798	126.97
669.989	231.42
670.18	77.82
670.371	96.25
670.563	110.59
670.754	225.28
670.945	57.34
671.136	180.22
671.327	118.78
671.518	182.27
671.709	221.18
671.9	215.04
672.091	184.32
672.282	159.74
672.473	135.17
672.664	26.62
672.855	59.39
673.046	139.26
673.237	110.59
673.428	137.21
673.619	219.13
673.809	57.34
674	229.37
674.191	153.6
674.382	118.78
674.573	131.07
674.764	153.6
674.954	147.45
675.145	65.54
675.336	108.54
675.527	34.82
675.717	133.12
675.908	102.4
676.099	100.35
676.289	102.4
676.48	24.58
676.671	141.31
676.861	126.97
677.052	133.12
677.243	126.97
677.433	67.58
677.624	151.55
677.814	178.17
678.005	34.82
678.195	272.38
678.386	43.01
678.576	98.3
678.767	55.3
678.957	61.44
679.148	147.45
679.338	243.71
679.529	53.25
679.719	112.64
679.909	182.27
680.1	139.26
680.29	180.22
680.481	122.88
680.671	149.5
680.861	190.46
681.052	104.45
681.242	116.73
681.432	155.65
681.622	141.31
681.813	28.67
682.003	159.74
682.193	116.73
682.383	180.22
682.573	186.37
682.764	133.12
682.954	147.45
683.144	278.52
683.334	174.08
683.524	163.84
683.714	151.55
683.904	169.98
684.094	51.2
684.284	176.13
684.474	241.66
684.664	188.41
684.854	165.89
685.044	133.12
685.234	206.84
685.424	223.23
685.614	108.54
685.804	251.9
685.994	200.7
686.184	116.73
686.374	190.46
686.564	192.51
686.753	133.12
686.943	63.49
687.133	165.89
687.323	96.25
687.513	233.47
687.702	94.21
687.892	73.73
688.082	131.07
688.272	247.8
688.461	225.28
688.651	274.43
688.841	186.37
689.03	188.41
689.22	188.41
689.41	192.51
689.599	155.65
689.789	83.97
689.979	274.43
690.168	139.26
690.358	194.56
690.547	239.61
690.737	149.5
690.926	129.02
691.116	174.08
691.305	217.08
691.495	155.65
691.684	83.97
691.874	153.6
692.063	131.07
692.252	169.98
692.442	245.76
692.631	114.69
692.82	198.65
693.01	94.21
693.199	69.63
693.388	247.8
693.578	88.06
693.767	274.43
693.956	243.71
694.146	176.13
694.335	231.42
694.524	94.21
694.713	221.18
694.902	73.73
695.092	81.92
695.281	165.89
695.47	141.31
695.659	81.92
695.848	174.08
696.037	79.87
696.226	225.28
696.415	81.92
696.604	256
696.793	190.46
696.982	122.88
697.171	284.67
697.36	139.26
697.549	102.4
697.738	110.59
697.927	155.65
698.116	116.73
698.305	143.36
698.494	174.08
698.683	88.06
698.872	276.48
699.061	126.97
699.25	53.25
699.438	200.7
699.627	24.58
699.816	202.75
700.005	92.16
700.193	75.77
700.382	159.74
700.571	163.84
700.76	112.64
700.948	182.27
701.137	122.88
701.326	235.52
701.514	-4.1
701.703	215.04
701.892	53.25
702.08	299
702.269	157.69
702.457	40.96
702.646	147.45
702.834	106.49
703.023	184.32
703.212	225.28
703.4	233.47
703.589	135.17
703.777	141.31
703.965	57.34
704.154	49.15
704.342	131.07
704.531	34.82
704.719	169.98
704.907	155.65
705.096	90.11
705.284	92.16
705.472	235.52
705.661	190.46
705.849	284.67
706.037	172.03
706.226	196.61
706.414	194.56
706.602	71.68
706.79	192.51
706.979	81.92
707.167	155.65
707.355	83.97
707.543	151.55
707.731	182.27
707.919	184.32
708.107	120.83
708.296	63.49
708.484	69.63
708.672	155.65
708.86	167.93
709.048	176.13
709.236	77.82
709.424	194.56
709.612	102.4
709.8	63.49
709.988	188.41
710.176	280.57
710.364	184.32
710.551	96.25
710.739	190.46
710.927	126.97
711.115	153.6
711.303	233.47
711.491	276.48
711.679	49.15
711.866	172.03
712.054	172.03
712.242	210.94
712.43	276.48
712.617	116.73
712.805	198.65
712.993	124.93
713.181	90.11
713.368	190.46
713.556	122.88
713.744	104.45
713.931	309.24
714.119	155.65
714.306	20.48
714.494	106.49
714.682	120.83
714.869	139.26
715.057	172.03
715.244	83.97
715.432	186.37
715.619	167.93
715.807	118.78
715.994	57.34
716.182	180.22
716.369	311.29
716.556	274.43
716.744	137.21
716.931	120.83
717.119	256
717.306	151.55
717.493	274.43
717.681	208.89
717.868	182.27
718.055	223.23
718.242	208.89
718.43	225.28
718.617	227.32
718.804	161.79
718.991	223.23
719.179	194.56
719.366	231.42
719.553	186.37
719.74	153.6
719.927	266.24
720.114	176.13
720.301	81.92
720.488	135.17
720.676	106.49
720.863	196.61
721.05	253.95
721.237	239.61
721.424	272.38
721.611	208.89
721.798	145.41
721.985	182.27
722.172	178.17
722.358	90.11
722.545	227.32
722.732	202.75
722.919	192.51
723.106	284.67
723.293	188.41
723.48	161.79
723.667	106.49
723.853	227.32
724.04	200.7
724.227	204.8
724.414	174.08
724.6	202.75
724.787	360.44
724.974	374.78
725.161	155.65
725.347	161.79
725.534	169.98
725.72	266.24
725.907	274.43
726.094	247.8
726.28	182.27
726.467	270.33
726.653	215.04
726.84	290.81
727.027	309.24
727.213	118.78
727.4	286.72
727.586	227.32
727.773	217.08
727.959	147.45
728.145	219.13
728.332	280.57
728.518	98.3
728.705	180.22
728.891	241.66
729.077	247.8
729.264	198.65
729.45	196.61
729.636	376.83
729.823	247.8
730.009	362.49
730.195	194.56
730.382	299
730.568	196.61
730.754	303.1
730.94	303.1
731.126	251.9
731.313	264.19
731.499	157.69
731.685	245.76
731.871	210.94
732.057	284.67
732.243	305.15
732.429	237.56
732.615	327.68
732.801	237.56
732.987	313.34
733.173	229.37
733.359	161.79
733.545	296.96
733.731	264.19
733.917	317.44
734.103	249.85
734.289	327.68
734.475	100.35
734.661	335.87
734.847	184.32
735.033	247.8
735.219	319.48
735.404	268.28
735.59	204.8
735.776	192.51
735.962	272.38
736.148	280.57
736.333	368.63
736.519	286.72
736.705	237.56
736.89	249.85
737.076	262.14
737.262	169.98
737.447	180.22
737.633	225.28
737.819	317.44
738.004	296.96
738.19	217.08
738.375	313.34
738.561	442.36
738.747	258.04
738.932	212.99
739.118	436.22
739.303	278.52
739.489	382.97
739.674	233.47
739.859	202.75
740.045	368.63
740.23	280.57
740.416	141.31
740.601	258.04
740.786	325.63
740.972	256
741.157	303.1
741.342	208.89
741.528	176.13
741.713	356.35
741.898	346.11
742.084	292.86
742.269	247.8
742.454	264.19
742.639	358.39
742.824	274.43
743.01	358.39
743.195	421.88
743.38	237.56
743.565	264.19
743.75	315.39
743.935	342.01
744.12	391.16
744.305	268.28
744.49	270.33
744.675	219.13
744.86	237.56
745.045	290.81
745.23	210.94
745.415	350.2
745.6	342.01
745.785	296.96
745.97	360.44
746.155	245.76
746.34	350.2
746.525	325.63
746.71	374.78
746.895	239.61
747.079	241.66
747.264	223.23
747.449	333.82
747.634	286.72
747.819	258.04
748.003	303.1
748.188	194.56
748.373	352.25
748.557	272.38
748.742	245.76
748.927	239.61
749.111	229.37
749.296	239.61
749.481	282.62
749.665	210.94
749.85	237.56
750.034	229.37
750.219	260.09
750.404	159.74
750.588	223.23
750.773	149.5
750.957	182.27
751.141	247.8
751.326	233.47
751.51	210.94
751.695	192.51
751.879	313.34
752.064	354.3
752.248	176.13
752.432	264.19
752.617	317.44
752.801	307.2
752.985	237.56
753.17	296.96
753.354	239.61
753.538	286.72
753.722	149.5
753.907	182.27
754.091	167.93
754.275	270.33
754.459	43.01
754.643	129.02
754.828	172.03
755.012	92.16
755.196	114.69
755.38	208.89
755.564	149.5
755.748	155.65
755.932	233.47
756.116	276.48
756.3	276.48
756.484	145.41
756.668	215.04
756.852	141.31
757.036	112.64
757.22	178.17
757.404	133.12
757.588	120.83
757.772	223.23
757.956	208.89
758.14	284.67
758.323	100.35
758.507	200.7
758.691	98.3
758.875	163.84
759.059	239.61
759.242	129.02
759.426	145.41
759.61	151.55
759.794	63.49
759.977	145.41
760.161	342.01
760.345	272.38
760.528	239.61
760.712	182.27
760.895	282.62
761.079	196.61
761.263	73.73
761.446	145.41
761.63	184.32
761.813	198.65
761.997	92.16
762.18	178.17
762.364	106.49
762.547	8.19
762.731	106.49
762.914	94.21
763.098	65.54
763.281	116.73
763.464	24.58
763.648	122.88
763.831	135.17
764.015	139.26
764.198	215.04
764.381	96.25
764.564	172.03
764.748	143.36
764.931	192.51
765.114	122.88
765.297	165.89
765.481	94.21
765.664	131.07
765.847	67.58
766.03	258.04
766.213	102.4
766.397	90.11
766.58	77.82
766.763	198.65
766.946	61.44
767.129	149.5
767.312	69.63
767.495	98.3
767.678	161.79
767.861	176.13
768.044	106.49
768.227	194.56
768.41	143.36
768.593	114.69
768.776	161.79
768.959	-30.72
769.142	196.61
769.324	77.82
769.507	96.25
769.69	165.89
769.873	79.87
770.056	210.94
770.239	94.21
770.421	210.94
770.604	124.93
770.787	106.49
770.97	176.13
771.152	6.14
771.335	81.92
771.518	86.01
771.7	172.03
771.883	223.23
772.066	120.83
772.248	141.31
772.431	167.93
772.613	114.69
772.796	73.73
772.978	67.58
773.161	225.28
773.343	61.44
773.526	57.34
773.708	43.01
773.891	0
774.073	112.64
774.256	83.97
774.438	194.56
774.621	59.39
774.803	120.83
774.985	83.97
775.168	83.97
775.35	86.01
775.532	86.01
775.715	22.53
775.897	159.74
776.079	16.38
776.261	108.54
776.444	106.49
776.626	77.82
776.808	30.72
776.99	-32.77
777.173	102.4
777.355	30.72
777.537	43.01
777.719	126.97
777.901	77.82
778.083	-6.14
778.265	45.06
778.447	210.94
778.629	-53.25
778.811	94.21
778.993	145.41
779.175	155.65
779.357	141.31
779.539	0
779.721	18.43
779.903	55.3
780.085	65.54
780.267	186.37
780.449	-12.29
780.631	79.87
780.812	45.06
780.994	8.19
781.176	38.91
781.358	69.63
781.54	96.25
781.721	126.97
781.903	149.5
782.085	10.24
782.267	94.21
782.448	-30.72
782.63	-6.14
782.812	94.21
782.993	40.96
783.175	57.34
783.357	2.05
783.538	63.49
783.72	-6.14
783.901	120.83
784.083	40.96
784.264	135.17
784.446	12.29
784.627	18.43
784.809	2.05
784.99	51.2
785.172	90.11
785.353	63.49
785.535	8.19
785.716	12.29
785.897	-59.39
786.079	65.54
786.26	14.34
786.441	79.87
786.623	-69.63
786.804	-4.1
786.985	8.19
787.167	90.11
787.348	45.06
787.529	12.29
787.71	161.79
787.891	92.16
788.073	16.38
788.254	-47.1
788.435	51.2
788.616	147.45
788.797	-24.58
788.978	-53.25
789.159	-55.3
789.34	108.54
789.522	51.2
789.703	-20.48
789.884	49.15
790.065	75.77
790.246	165.89
790.427	22.53
790.607	53.25
790.788	141.31
790.969	34.82
791.15	137.21
791.331	-32.77
791.512	-26.62
791.693	32.77
791.874	-14.34
792.054	149.5
792.235	116.73
792.416	-43.01
792.597	-20.48
792.778	92.16
792.958	47.1
793.139	30.72
793.32	77.82
793.5	2.05
793.681	108.54
793.862	90.11
794.042	6.14
794.223	-57.34
794.404	-16.38
794.584	-63.49
794.765	0
794.945	38.91
795.126	83.97
795.306	53.25
795.487	34.82
795.667	-36.86
795.848	8.19
796.028	16.38
796.209	-22.53
796.389	163.84
796.57	16.38
796.75	-6.14
796.93	-12.29
797.111	-8.19
797.291	-6.14
797.471	81.92
797.652	34.82
797.832	-61.44
798.012	75.77
798.192	-26.62
798.373	-94.21
798.553	-36.86
798.733	59.39
798.913	-73.73
799.093	-98.3
799.274	73.73
799.454	86.01
799.634	100.35
799.814	126.97
799.994	57.34
800.174	26.62
800.354	2.05
800.534	-75.77
800.714	90.11
800.894	-71.68
801.074	-12.29
801.254	-49.15
801.434	176.13
801.614	-6.14
801.794	-55.3
801.974	1929.19
802.154	24.58
802.334	81.92
802.514	-18.43
802.693	43.01
802.873	49.15
803.053	75.77
803.233	49.15
803.413	6.14
803.592	-55.3
803.772	-43.01
803.952	36.86
804.131	-57.34
804.311	55.3
804.491	106.49
804.67	-94.21
804.85	-71.68
805.03	14.34
805.209	51.2
805.389	-49.15
805.568	30.72
805.748	-32.77
805.928	-30.72
806.107	0
806.287	38.91
806.466	30.72
806.646	24.58
806.825	-61.44
807.004	-69.63
807.184	73.73
807.363	40.96
807.543	73.73
807.722	-24.58
807.901	122.88
808.081	75.77
808.26	-114.69
808.439	32.77
808.619	-10.24
808.798	28.67
808.977	75.77
809.156	141.31
809.336	67.58
809.515	116.73
809.694	-45.06
809.873	49.15
810.052	71.68
810.231	155.65
810.411	28.67
810.59	53.25
810.769	22.53
810.948	-16.38
811.127	-98.3
811.306	43.01
811.485	-45.06
811.664	77.82
811.843	-24.58
812.022	65.54
812.201	-12.29
812.38	-67.58
812.559	-32.77
812.737	8.19
812.916	-71.68
813.095	-86.01
813.274	43.01
813.453	-73.73
813.632	2.05
813.811	102.4
813.989	-57.34
814.168	38.91
814.347	-22.53
814.526	-49.15
814.704	88.06
814.883	106.49
815.062	-86.01
815.24	120.83
815.419	-83.97
815.598	43.01
815.776	-63.49
815.955	14.34
816.133	-143.36
816.312	43.01
816.49	-55.3
816.669	-47.1
816.847	14.34
817.026	53.25
817.204	-14.34
817.383	-75.77
817.561	-28.67
817.74	24.58
817.918	14.34
818.097	-45.06
818.275	43.01
818.453	86.01
818.632	59.39
818.81	-32.77
818.988	-16.38
819.167	4.1
819.345	63.49
819.523	-34.82
819.701	16.38
819.879	104.45
820.058	-14.34
820.236	88.06
820.414	12.29
820.592	-53.25
820.77	-63.49
820.948	-36.86
821.127	-26.62
821.305	28.67
821.483	-51.2
821.661	114.69
821.839	8.19
822.017	-6.14
822.195	16.38
822.373	71.68
822.551	-43.01
822.729	67.58
822.907	-14.34
823.085	69.63
823.262	-8.19
823.44	-102.4
823.618	16.38
823.796	24.58
823.974	-40.96
824.152	-49.15
824.329	-10.24
824.507	81.92
824.685	10.24
824.863	-28.67
825.04	-18.43
825.218	75.77
825.396	-40.96
825.574	-36.86
825.751	-8.19
825.929	26.62
826.107	-75.77
826.284	8.19
826.462	-6.14
826.639	-47.1
826.817	-73.73
826.994	38.91
827.172	-47.1
827.349	65.54
827.527	81.92
827.704	88.06
827.882	77.82
828.059	-30.72
828.237	-10.24
828.414	20.48
828.591	-110.59
828.769	32.77
828.946	-24.58
829.124	73.73
829.301	43.01
829.478	26.62
829.655	22.53
829.833	18.43
830.01	-151.55
830.187	12.29
830.364	47.1
830.542	0
830.719	120.83
830.896	126.97
831.073	16.38
831.25	20.48
831.427	10.24
831.604	26.62
831.782	-77.82
831.959	14.34
832.136	-6.14
832.313	-36.86
832.49	-57.34
832.667	-49.15
832.844	-118.78
833.021	100.35
833.198	-55.3
833.374	-51.2
833.551	0
833.728	-65.53
833.905	53.25
834.082	-139.26
834.259	-26.62
834.436	36.86
834.612	-135.17
834.789	-36.86
834.966	57.34
835.143	-6.14
835.319	-110.59
835.496	38.91
835.673	24.58
835.85	-92.16
836.026	-24.58
836.203	116.73
836.38	-36.86
836.556	49.15
836.733	45.06
836.909	147.45
837.086	-8.19
837.262	-88.06
837.439	-63.49
837.616	-40.96
837.792	28.67
837.968	26.62
838.145	-100.35
838.321	51.2
838.498	73.73
838.674	43.01
838.851	124.93
839.027	-30.72
839.203	38.91
839.38	20.48
839.556	-36.86
839.732	104.45
839.909	-28.67
840.085	14.34
840.261	-24.58
840.437	-30.72
840.614	-92.16
840.79	114.69
840.966	108.54
841.142	32.77
841.318	32.77
841.494	-38.91
841.671	75.77
841.847	-114.69
842.023	-180.22
842.199	79.87
842.375	90.11
842.551	-94.21
842.727	22.53
842.903	133.12
843.079	-12.29
843.255	61.44
843.431	-47.1
843.607	14.34
843.783	-206.84
843.959	-36.86
844.134	-14.34
844.31	104.45
844.486	-61.44
844.662	-71.68
844.838	12.29
845.013	69.63
845.189	6.14
845.365	20.48
845.541	28.67
845.716	-36.86
845.892	65.54
846.068	-73.73
846.244	-92.16
846.419	-32.77
846.595	-24.58
846.77	2.05
846.946	161.79
847.122	-36.86
847.297	-59.39
847.473	40.96
847.648	-30.72
847.824	-8.19
847.999	-43.01
848.175	-20.48
848.35	-43.01
848.526	38.91
848.701	28.67
848.876	59.39
849.052	53.25
849.227	-53.25
849.403	-32.77
849.578	-61.44
849.753	49.15
849.929	-18.43
850.104	-118.78
850.279	12.29
850.454	-6.14
850.63	20.48
850.805	-40.96
850.98	-51.2
851.155	-36.86
851.33	-2.05
851.505	-131.07
851.681	100.35
851.856	-18.43
852.031	69.63
852.206	-30.72
852.381	-40.96
852.556	-24.58
852.731	2.05
852.906	0
853.081	-30.72
853.256	184.32
853.431	-81.92
853.606	-79.87
853.781	-47.1
853.956	-135.17
854.131	4.1
854.305	-57.34
854.48	-16.38
854.655	-63.49
854.83	-55.3
855.005	-24.58
855.18	-61.44
855.354	-49.15
855.529	12.29
855.704	10.24
855.879	20.48
856.053	-102.4
856.228	38.91
856.403	-49.15
856.577	34.82
856.752	-65.53
856.926	-67.58
857.101	-55.3
857.276	-131.07
857.45	49.15
857.625	75.77
857.799	51.2
857.974	10.24
858.148	-139.26
858.323	28.67
858.497	26.62
858.672	-65.53
858.846	-38.91
859.02	26.62
859.195	-57.34
859.369	-40.96
859.543	-10.24
859.718	38.91
859.892	-2.05
860.066	-24.58
860.241	-49.15
860.415	-12.29
860.589	-24.58
860.763	6.14
860.938	-100.35
861.112	-10.24
861.286	-57.34
861.46	4.1
861.634	32.77
861.808	18.43
861.982	-79.87
862.157	-143.36
862.331	-57.34
862.505	-61.44
862.679	-81.92
862.853	-18.43
863.027	-24.58
863.201	106.49
863.375	-131.07
863.549	8.19
863.722	-49.15
863.896	38.91
864.07	-20.48
864.244	18.43
864.418	81.92
864.592	57.34
864.766	-65.53
864.939	-53.25
865.113	-59.39
865.287	43.01
865.461	-114.69
865.634	92.16
865.808	-24.58
865.982	-86.01
866.156	-57.34
866.329	-126.97
866.503	34.82
866.676	83.97
866.85	2.05
867.024	-86.01
867.197	26.62
867.371	63.49
867.544	45.06
867.718	-110.59
867.891	45.06
868.065	-88.06
868.238	-55.3
868.412	38.91
868.585	8.19
868.759	-57.34
868.932	-20.48
869.105	-77.82
869.279	-8.19
869.452	-73.73
869.625	-10.24
869.799	-43.01
869.972	-94.21
870.145	10.24
870.319	92.16
870.492	-18.43
870.665	-61.44
870.838	-30.72
871.011	-135.17
871.185	0
871.358	-71.68
871.531	34.82
871.704	-43.01
871.877	-36.86
872.05	-49.15
872.223	-73.73
872.396	79.87
872.569	26.62
872.742	-63.49
872.915	-18.43
873.088	-55.3
873.261	-36.86
873.434	40.96
873.607	-57.34
873.78	77.82
873.953	-129.02
874.126	2.05
874.299	14.34
874.471	-30.72
874.644	-45.06
874.817	16.38
874.99	36.86
875.163	14.34
875.335	-26.62
875.508	6.14
875.681	88.06
875.853	-67.58
876.026	-36.86
876.199	-40.96
876.371	59.39
876.544	32.77
876.717	-59.39
876.889	32.77
877.062	0
877.234	-92.16
877.407	-57.34
877.579	-98.3
877.752	34.82
877.924	63.49
878.097	-10.24
878.269	8.19
878.442	47.1
878.614	-16.38
878.786	26.62
878.959	32.77
879.131	-6.14
879.303	-43.01
879.476	-22.53
879.648	120.83
879.82	4.1
879.993	-53.25
880.165	0
880.337	-112.64
880.509	-57.34
880.681	-43.01
880.854	-51.2
881.026	18.43
881.198	104.45
881.37	-88.06
881.542	-45.06
881.714	-40.96
881.886	-118.78
882.058	30.72
882.23	45.06
882.402	-43.01
882.574	-16.38
882.746	-32.77
882.918	40.96
883.09	79.87
883.262	-4.1
883.434	-28.67
883.606	-96.25
883.778	-8.19
883.95	77.82
884.122	-61.44
884.293	65.54
884.465	-32.77
884.637	-22.53
884.809	-14.34
884.98	-4.1
885.152	34.82
885.324	88.06
885.496	-108.54
885.667	-45.06
885.839	-36.86
886.011	122.88
886.182	61.44
886.354	-24.58
886.525	-30.72
886.697	28.67
886.869	-36.86
887.04	-57.34
887.212	51.2
887.383	147.45
887.555	-69.63
887.726	-106.49
887.897	-102.4
888.069	-28.67
888.24	79.87
888.412	-77.82
888.583	-83.97
888.754	-69.63
888.926	-94.21
889.097	-77.82
889.268	-40.96
889.44	-40.96
889.611	-92.16
889.782	-53.25
889.953	-16.38
890.125	102.4
890.296	-163.84
890.467	-61.44
890.638	-118.78
890.809	-34.82
890.98	-8.19
891.151	-67.58
891.323	124.93
891.494	-24.58
891.665	-30.72
891.836	-65.53
892.007	-67.58
892.178	53.25
892.349	-16.38
892.52	-53.25
892.691	-6.14
892.862	-61.44
893.032	-215.04
893.203	-53.25
893.374	81.92
893.545	102.4
893.716	2.05
893.887	-45.06
894.057	-102.4
894.228	-47.1
894.399	-8.19
894.57	65.54
894.74	-40.96
894.911	-30.72
895.082	-8.19
895.253	-47.1
895.423	-6.14
895.594	71.68
895.764	2.05
895.935	-45.06
896.106	90.11
896.276	-6.14
896.447	-2.05
896.617	-59.39
896.788	-36.86
896.958	-51.2
897.129	-57.34
897.299	-45.06
897.47	104.45
897.64	106.49
897.81	-75.77
897.981	-55.3
898.151	-43.01
898.322	92.16
898.492	2.05
898.662	-129.02
898.832	-49.15
899.003	-102.4
899.173	-4.1
899.343	-12.29
899.513	-53.25
