Data from USB4F104151__107__10-35-56-024.txt Node

Date: Wed Feb 26 10:35:56 EST 2025
User: louis
Spectrometer: USB4F10415
Trigger mode: 4
Integration Time (sec): 1.000000E-1
Scans to average: 1
Electric dark correction enabled: true
Nonlinearity correction enabled: false
Boxcar width: 0
XAxis mode: Wavelengths
Number of Pixels in Spectrum: 3648
>>>>>Begin Spectral Data<<<<<
178.204	-450.89
178.424	-450.89
178.644	-450.89
178.864	-450.89
179.084	-446.8
179.304	18.09
179.524	5.8
179.744	-4.44
179.964	11.95
180.184	67.24
180.404	48.81
180.624	-6.49
180.844	83.63
181.064	-115.03
181.283	-47.44
181.503	-76.12
181.723	13.99
181.943	-84.31
182.163	136.87
182.383	-74.07
182.602	9.9
182.822	83.63
183.042	52.91
183.262	-51.54
183.482	-98.64
183.701	7.85
183.921	71.34
184.141	-6.49
184.361	54.95
184.58	3.75
184.8	20.14
185.02	-22.87
185.239	18.09
185.459	42.67
185.679	79.53
185.898	-49.49
186.118	-20.82
186.338	-43.35
186.557	130.73
186.777	-90.45
186.997	-98.64
187.216	-72.02
187.436	118.44
187.655	-16.73
187.875	124.58
188.095	9.9
188.314	161.45
188.534	91.82
188.753	-33.11
188.973	63.15
189.192	91.82
189.412	13.99
189.631	-18.77
189.851	24.23
190.07	100.01
190.29	-115.03
190.509	-76.12
190.729	5.8
190.948	100.01
191.168	253.61
191.387	30.38
191.607	-14.68
191.826	5.8
192.045	-84.31
192.265	-35.16
192.484	63.15
192.704	-31.06
192.923	-67.92
193.142	159.4
193.362	110.25
193.581	114.34
193.8	-63.83
194.02	61.1
194.239	11.95
194.458	40.62
194.678	-4.44
194.897	-31.06
195.116	-31.06
195.335	95.91
195.555	38.57
195.774	-24.92
195.993	97.96
196.212	-55.64
196.432	-43.35
196.651	-41.3
196.87	13.99
197.089	128.68
197.308	36.52
197.528	-8.53
197.747	-106.84
197.966	67.24
198.185	167.59
198.404	-145.75
198.623	81.58
198.842	59.05
199.062	79.53
199.281	79.53
199.5	48.81
199.719	36.52
199.938	9.9
200.157	77.48
200.376	16.04
200.595	-31.06
200.814	130.73
201.033	-39.25
201.252	140.97
201.471	46.76
201.69	-8.53
201.909	13.99
202.128	126.63
202.347	93.87
202.566	40.62
202.785	-78.16
203.004	-117.08
203.223	222.89
203.442	-49.49
203.661	-63.83
203.879	106.15
204.098	120.49
204.317	-41.3
204.536	-6.49
204.755	67.24
204.974	30.38
205.193	-47.44
205.411	118.44
205.63	81.58
205.849	11.95
206.068	30.38
206.287	1.71
206.505	110.25
206.724	16.04
206.943	-16.73
207.162	-80.21
207.381	38.57
207.599	16.04
207.818	79.53
208.037	-90.45
208.255	-2.39
208.474	18.09
208.693	9.9
208.911	7.85
209.13	91.82
209.349	57
209.567	20.14
209.786	38.57
210.005	-55.64
210.223	54.95
210.442	-67.92
210.661	50.86
210.879	67.24
211.098	44.71
211.316	42.67
211.535	-0.34
211.753	22.19
211.972	61.1
212.191	69.29
212.409	22.19
212.628	52.91
212.846	1.71
213.065	71.34
213.283	126.63
213.502	48.81
213.72	-47.44
213.938	-43.35
214.157	-26.96
214.375	93.87
214.594	7.85
214.812	30.38
215.031	-10.58
215.249	26.28
215.467	81.58
215.686	-14.68
215.904	85.67
216.122	-2.39
216.341	132.78
216.559	44.71
216.778	116.39
216.996	167.59
217.214	-20.82
217.432	1.71
217.651	-63.83
217.869	16.04
218.087	16.04
218.306	-12.63
218.524	91.82
218.742	61.1
218.96	50.86
219.179	36.52
219.397	-12.63
219.615	159.4
219.833	112.3
220.051	-4.44
220.27	67.24
220.488	26.28
220.706	-4.44
220.924	-82.26
221.142	-12.63
221.36	-22.87
221.578	13.99
221.796	-24.92
222.015	32.43
222.233	-6.49
222.451	34.47
222.669	-82.26
222.887	-14.68
223.105	-67.92
223.323	-12.63
223.541	-49.49
223.759	11.95
223.977	42.67
224.195	136.87
224.413	34.47
224.631	7.85
224.849	67.24
225.067	122.54
225.285	-26.96
225.503	3.75
225.721	-110.93
225.939	48.81
226.157	-4.44
226.375	208.55
226.592	-8.53
226.81	-82.26
227.028	124.58
227.246	102.06
227.464	-43.35
227.682	61.1
227.9	52.91
228.117	46.76
228.335	3.75
228.553	-43.35
228.771	28.33
228.989	1.71
229.206	59.05
229.424	24.23
229.642	-33.11
229.86	-12.63
230.077	114.34
230.295	-4.44
230.513	73.39
230.731	63.15
230.948	159.4
231.166	128.68
231.384	-14.68
231.601	-51.54
231.819	120.49
232.037	-2.39
232.254	-108.88
232.472	5.8
232.689	44.71
232.907	-14.68
233.125	-26.96
233.342	-49.49
233.56	11.95
233.777	-31.06
233.995	5.8
234.213	106.15
234.43	22.19
234.648	30.38
234.865	-41.3
235.083	75.43
235.3	28.33
235.518	75.43
235.735	71.34
235.953	69.29
236.17	24.23
236.388	20.14
236.605	-39.25
236.822	50.86
237.04	67.24
237.257	52.91
237.475	-61.78
237.692	40.62
237.909	61.1
238.127	13.99
238.344	50.86
238.562	18.09
238.779	-39.25
238.996	-67.92
239.214	-53.59
239.431	71.34
239.648	-61.78
239.865	114.34
240.083	75.43
240.3	-53.59
240.517	-102.74
240.735	63.15
240.952	-0.34
241.169	48.81
241.386	97.96
241.603	11.95
241.821	-86.36
242.038	87.72
242.255	106.15
242.472	-100.69
242.689	48.81
242.907	83.63
243.124	46.76
243.341	-0.34
243.558	-57.68
243.775	5.8
243.992	-90.45
244.209	28.33
244.426	134.82
244.643	65.19
244.86	9.9
245.078	54.95
245.295	102.06
245.512	5.8
245.729	-0.34
245.946	-20.82
246.163	5.8
246.38	-6.49
246.597	26.28
246.814	63.15
247.031	-10.58
247.248	7.85
247.464	65.19
247.681	130.73
247.898	9.9
248.115	7.85
248.332	-117.08
248.549	102.06
248.766	50.86
248.983	93.87
249.2	85.67
249.417	71.34
249.633	38.57
249.85	18.09
250.067	13.99
250.284	-31.06
250.501	104.11
250.717	16.04
250.934	-43.35
251.151	9.9
251.368	-33.11
251.585	20.14
251.801	24.23
252.018	-6.49
252.235	122.54
252.451	-33.11
252.668	-47.44
252.885	102.06
253.102	-4.44
253.318	67.24
253.535	-45.4
253.752	-53.59
253.968	13.99
254.185	-155.99
254.401	-74.07
254.618	93.87
254.835	-35.16
255.051	91.82
255.268	89.77
255.484	114.34
255.701	65.19
255.917	63.15
256.134	-123.22
256.351	-2.39
256.567	-35.16
256.784	-88.4
257	-96.6
257.217	126.63
257.433	44.71
257.65	57
257.866	134.82
258.082	-67.92
258.299	-33.11
258.515	40.62
258.732	-8.53
258.948	3.75
259.165	38.57
259.381	87.72
259.597	54.95
259.814	-8.53
260.03	-33.11
260.246	-10.58
260.463	124.58
260.679	46.76
260.895	7.85
261.112	9.9
261.328	3.75
261.544	-63.83
261.761	85.67
261.977	-100.69
262.193	-86.36
262.409	71.34
262.626	61.1
262.842	77.48
263.058	-24.92
263.274	112.3
263.49	57
263.707	26.28
263.923	-12.63
264.139	-108.88
264.355	20.14
264.571	48.81
264.787	54.95
265.004	59.05
265.22	-29.01
265.436	-0.34
265.652	-53.59
265.868	11.95
266.084	-14.68
266.3	3.75
266.516	-24.92
266.732	-20.82
266.948	77.48
267.164	-125.27
267.38	65.19
267.596	-6.49
267.812	91.82
268.028	-10.58
268.244	-35.16
268.46	36.52
268.676	-29.01
268.892	102.06
269.108	7.85
269.324	-16.73
269.54	-49.49
269.756	85.67
269.972	-51.54
270.188	71.34
270.403	-55.64
270.619	-31.06
270.835	87.72
271.051	11.95
271.267	-74.07
271.483	44.71
271.698	52.91
271.914	63.15
272.13	13.99
272.346	-33.11
272.562	26.28
272.777	155.3
272.993	-74.07
273.209	-92.5
273.425	40.62
273.64	7.85
273.856	-16.73
274.072	-100.69
274.287	-72.02
274.503	34.47
274.719	71.34
274.934	-55.64
275.15	-78.16
275.366	-2.39
275.581	-8.53
275.797	-8.53
276.012	-10.58
276.228	-33.11
276.444	83.63
276.659	46.76
276.875	-43.35
277.09	24.23
277.306	28.33
277.521	38.57
277.737	-0.34
277.952	28.33
278.168	44.71
278.383	-8.53
278.599	34.47
278.814	118.44
279.03	-65.88
279.245	79.53
279.461	-39.25
279.676	-20.82
279.892	-100.69
280.107	-141.65
280.322	-78.16
280.538	-12.63
280.753	20.14
280.969	9.9
281.184	28.33
281.399	149.16
281.615	65.19
281.83	5.8
282.045	-74.07
282.26	-14.68
282.476	57
282.691	18.09
282.906	89.77
283.122	16.04
283.337	-31.06
283.552	11.95
283.767	-18.77
283.983	112.3
284.198	-29.01
284.413	73.39
284.628	-65.88
284.843	40.62
285.058	20.14
285.274	-29.01
285.489	-96.6
285.704	-35.16
285.919	-24.92
286.134	24.23
286.349	-8.53
286.564	-37.2
286.779	89.77
286.995	-35.16
287.21	3.75
287.425	36.52
287.64	-14.68
287.855	11.95
288.07	-123.22
288.285	138.92
288.5	108.2
288.715	87.72
288.93	102.06
289.145	-2.39
289.36	65.19
289.575	-84.31
289.79	52.91
290.004	-24.92
290.219	28.33
290.434	-35.16
290.649	-59.73
290.864	-29.01
291.079	7.85
291.294	3.75
291.509	32.43
291.724	18.09
291.938	-2.39
292.153	-88.4
292.368	46.76
292.583	22.19
292.798	67.24
293.012	30.38
293.227	26.28
293.442	-24.92
293.657	71.34
293.871	67.24
294.086	112.3
294.301	159.4
294.516	61.1
294.73	44.71
294.945	-63.83
295.16	-22.87
295.374	30.38
295.589	173.74
295.804	-8.53
296.018	-59.73
296.233	71.34
296.447	91.82
296.662	-14.68
296.877	89.77
297.091	1.71
297.306	-16.73
297.52	-2.39
297.735	79.53
297.949	-16.73
298.164	46.76
298.378	3.75
298.593	-92.5
298.807	-57.68
299.022	-14.68
299.236	120.49
299.451	-22.87
299.665	-43.35
299.88	50.86
300.094	77.48
300.309	-10.58
300.523	26.28
300.737	-22.87
300.952	32.43
301.166	118.44
301.381	-6.49
301.595	24.23
301.809	85.67
302.024	-31.06
302.238	-69.97
302.452	120.49
302.667	5.8
302.881	124.58
303.095	42.67
303.309	54.95
303.524	38.57
303.738	-59.73
303.952	-14.68
304.166	26.28
304.381	-37.2
304.595	79.53
304.809	-16.73
305.023	48.81
305.237	-31.06
305.452	13.99
305.666	36.52
305.88	77.48
306.094	-65.88
306.308	-16.73
306.522	-6.49
306.736	28.33
306.95	83.63
307.164	-49.49
307.379	52.91
307.593	165.54
307.807	79.53
308.021	-10.58
308.235	52.91
308.449	-59.73
308.663	-26.96
308.877	208.55
309.091	36.52
309.305	5.8
309.519	-104.79
309.733	198.31
309.947	-67.92
310.161	108.2
310.374	40.62
310.588	126.63
310.802	-65.88
311.016	-18.77
311.23	26.28
311.444	-67.92
311.658	-24.92
311.872	126.63
312.085	114.34
312.299	97.96
312.513	138.92
312.727	-18.77
312.941	-78.16
313.154	13.99
313.368	-4.44
313.582	-2.39
313.796	9.9
314.009	16.04
314.223	157.35
314.437	50.86
314.651	75.43
314.864	-47.44
315.078	-98.64
315.292	-37.2
315.505	-43.35
315.719	108.2
315.933	22.19
316.146	-67.92
316.36	-78.16
316.573	54.95
316.787	36.52
317.001	-12.63
317.214	-31.06
317.428	34.47
317.641	-20.82
317.855	-6.49
318.068	-10.58
318.282	-72.02
318.495	83.63
318.709	54.95
318.922	1.71
319.136	173.74
319.349	22.19
319.563	-80.21
319.776	-31.06
319.99	-63.83
320.203	83.63
320.417	-26.96
320.63	93.87
320.843	190.12
321.057	40.62
321.27	-6.49
321.483	40.62
321.697	120.49
321.91	87.72
322.124	61.1
322.337	-18.77
322.55	-72.02
322.763	-8.53
322.977	-8.53
323.19	-67.92
323.403	46.76
323.617	52.91
323.83	138.92
324.043	-20.82
324.256	1.71
324.469	-92.5
324.683	57
324.896	24.23
325.109	42.67
325.322	-119.12
325.535	83.63
325.748	34.47
325.962	-0.34
326.175	11.95
326.388	140.97
326.601	48.81
326.814	52.91
327.027	46.76
327.24	93.87
327.453	-84.31
327.666	-0.34
327.879	163.5
328.092	28.33
328.305	44.71
328.518	1.71
328.731	13.99
328.944	-26.96
329.157	61.1
329.37	-35.16
329.583	59.05
329.796	102.06
330.009	-108.88
330.222	22.19
330.435	149.16
330.648	52.91
330.861	69.29
331.073	116.39
331.286	71.34
331.499	7.85
331.712	9.9
331.925	65.19
332.138	22.19
332.35	22.19
332.563	-45.4
332.776	34.47
332.989	-4.44
333.202	-31.06
333.414	20.14
333.627	3.75
333.84	-74.07
334.053	85.67
334.265	16.04
334.478	-61.78
334.691	-22.87
334.903	9.9
335.116	-59.73
335.329	-8.53
335.541	11.95
335.754	26.28
335.966	42.67
336.179	-43.35
336.392	52.91
336.604	16.04
336.817	54.95
337.029	75.43
337.242	32.43
337.454	32.43
337.667	-43.35
337.88	216.74
338.092	-29.01
338.305	50.86
338.517	-53.59
338.729	77.48
338.942	167.59
339.154	-119.12
339.367	-112.98
339.579	159.4
339.792	44.71
340.004	24.23
340.217	-39.25
340.429	5.8
340.641	-98.64
340.854	-127.32
341.066	-39.25
341.278	114.34
341.491	192.17
341.703	-18.77
341.915	-59.73
342.128	54.95
342.34	77.48
342.552	34.47
342.764	67.24
342.977	-12.63
343.189	-63.83
343.401	54.95
343.613	-155.99
343.826	-37.2
344.038	-59.73
344.25	59.05
344.462	-65.88
344.674	-6.49
344.886	24.23
345.099	36.52
345.311	22.19
345.523	-76.12
345.735	-90.45
345.947	1.71
346.159	48.81
346.371	-31.06
346.583	-20.82
346.795	237.22
347.007	38.57
347.219	77.48
347.431	-18.77
347.643	91.82
347.855	-10.58
348.067	87.72
348.279	-67.92
348.491	-29.01
348.703	24.23
348.915	-33.11
349.127	-0.34
349.339	-0.34
349.551	28.33
349.763	67.24
349.975	57
350.187	42.67
350.399	73.39
350.61	112.3
350.822	-106.84
351.034	102.06
351.246	65.19
351.458	67.24
351.669	40.62
351.881	97.96
352.093	38.57
352.305	63.15
352.517	85.67
352.728	108.2
352.94	120.49
353.152	71.34
353.363	-65.88
353.575	-2.39
353.787	83.63
353.999	77.48
354.21	202.41
354.422	-76.12
354.633	-10.58
354.845	-26.96
355.057	63.15
355.268	65.19
355.48	81.58
355.692	-61.78
355.903	7.85
356.115	-100.69
356.326	-170.32
356.538	173.74
356.749	77.48
356.961	106.15
357.172	73.39
357.384	-108.88
357.595	206.5
357.807	-18.77
358.018	42.67
358.23	-26.96
358.441	87.72
358.653	63.15
358.864	-26.96
359.075	-104.79
359.287	61.1
359.498	124.58
359.709	89.77
359.921	16.04
360.132	7.85
360.344	26.28
360.555	-127.32
360.766	-6.49
360.977	-39.25
361.189	50.86
361.4	50.86
361.611	89.77
361.823	149.16
362.034	42.67
362.245	-57.68
362.456	3.75
362.667	48.81
362.879	16.04
363.09	-47.44
363.301	161.45
363.512	9.9
363.723	-12.63
363.935	-88.4
364.146	11.95
364.357	26.28
364.568	-49.49
364.779	-37.2
364.99	42.67
365.201	-2.39
365.412	22.19
365.623	-55.64
365.834	59.05
366.045	63.15
366.256	120.49
366.467	34.47
366.678	38.57
366.889	73.39
367.1	16.04
367.311	22.19
367.522	30.38
367.733	81.58
367.944	52.91
368.155	-31.06
368.366	5.8
368.577	181.93
368.788	32.43
368.999	28.33
369.209	9.9
369.42	188.07
369.631	190.12
369.842	100.01
370.053	-80.21
370.264	30.38
370.474	-84.31
370.685	54.95
370.896	22.19
371.107	48.81
371.317	75.43
371.528	48.81
371.739	128.68
371.95	48.81
372.16	69.29
372.371	-20.82
372.582	-37.2
372.792	1.71
373.003	16.04
373.214	-20.82
373.424	-43.35
373.635	-16.73
373.846	118.44
374.056	91.82
374.267	87.72
374.477	26.28
374.688	-45.4
374.898	-10.58
375.109	26.28
375.319	30.38
375.53	93.87
375.74	-14.68
375.951	-2.39
376.161	71.34
376.372	22.19
376.582	-33.11
376.793	5.8
377.003	-84.31
377.214	16.04
377.424	40.62
377.635	54.95
377.845	-2.39
378.055	91.82
378.266	-63.83
378.476	-18.77
378.686	46.76
378.897	16.04
379.107	126.63
379.317	48.81
379.528	-41.3
379.738	106.15
379.948	-82.26
380.158	40.62
380.369	7.85
380.579	20.14
380.789	20.14
380.999	61.1
381.21	13.99
381.42	222.89
381.63	20.14
381.84	11.95
382.05	48.81
382.261	89.77
382.471	151.21
382.681	18.09
382.891	108.2
383.101	44.71
383.311	-80.21
383.521	-65.88
383.731	22.19
383.941	91.82
384.151	79.53
384.361	-26.96
384.571	52.91
384.781	24.23
384.991	153.26
385.201	128.68
385.411	59.05
385.621	77.48
385.831	-41.3
386.041	75.43
386.251	77.48
386.461	124.58
386.671	-63.83
386.881	1.71
387.091	36.52
387.301	138.92
387.511	24.23
387.72	-22.87
387.93	81.58
388.14	-72.02
388.35	42.67
388.56	200.36
388.769	112.3
388.979	30.38
389.189	-16.73
389.399	5.8
389.609	40.62
389.818	3.75
390.028	57
390.238	3.75
390.447	-78.16
390.657	30.38
390.867	-6.49
391.076	-10.58
391.286	30.38
391.496	36.52
391.705	-20.82
391.915	190.12
392.125	143.02
392.334	-69.97
392.544	171.69
392.753	-14.68
392.963	5.8
393.172	-4.44
393.382	3.75
393.591	157.35
393.801	-41.3
394.01	145.06
394.22	71.34
394.429	26.28
394.639	-24.92
394.848	81.58
395.058	65.19
395.267	-4.44
395.477	36.52
395.686	46.76
395.895	171.69
396.105	179.88
396.314	116.39
396.524	26.28
396.733	16.04
396.942	57
397.152	77.48
397.361	110.25
397.57	48.81
397.78	5.8
397.989	46.76
398.198	175.78
398.407	-43.35
398.617	7.85
398.826	48.81
399.035	-14.68
399.244	97.96
399.453	-20.82
399.663	136.87
399.872	75.43
400.081	-65.88
400.29	73.39
400.499	-53.59
400.708	157.35
400.917	26.28
401.127	-16.73
401.336	38.57
401.545	63.15
401.754	75.43
401.963	126.63
402.172	7.85
402.381	-55.64
402.59	65.19
402.799	28.33
403.008	81.58
403.217	54.95
403.426	40.62
403.635	-49.49
403.844	18.09
404.053	36.52
404.262	-86.36
404.471	149.16
404.68	11.95
404.888	24.23
405.097	-41.3
405.306	26.28
405.515	34.47
405.724	9.9
405.933	77.48
406.142	9.9
406.35	130.73
406.559	22.19
406.768	32.43
406.977	169.64
407.185	89.77
407.394	95.91
407.603	-149.84
407.812	36.52
408.02	155.3
408.229	-8.53
408.438	65.19
408.646	-86.36
408.855	-4.44
409.064	38.57
409.272	22.19
409.481	34.47
409.69	-61.78
409.898	-26.96
410.107	108.2
410.315	112.3
410.524	52.91
410.733	38.57
410.941	-26.96
411.15	85.67
411.358	61.1
411.567	153.26
411.775	-26.96
411.984	-2.39
412.192	22.19
412.401	30.38
412.609	173.74
412.818	79.53
413.026	13.99
413.234	-8.53
413.443	5.8
413.651	-67.92
413.86	52.91
414.068	134.82
414.276	124.58
414.485	-63.83
414.693	153.26
414.901	134.82
415.11	102.06
415.318	-10.58
415.526	73.39
415.734	95.91
415.943	42.67
416.151	75.43
416.359	59.05
416.567	67.24
416.776	22.19
416.984	52.91
417.192	122.54
417.4	-59.73
417.608	38.57
417.817	30.38
418.025	93.87
418.233	104.11
418.441	-8.53
418.649	-33.11
418.857	48.81
419.065	177.83
419.273	-14.68
419.481	40.62
419.689	5.8
419.897	11.95
420.105	-104.79
420.313	18.09
420.521	54.95
420.729	157.35
420.937	24.23
421.145	-67.92
421.353	57
421.561	181.93
421.769	30.38
421.977	-22.87
422.185	122.54
422.393	3.75
422.601	93.87
422.809	34.47
423.017	100.01
423.224	52.91
423.432	140.97
423.64	65.19
423.848	93.87
424.056	11.95
424.263	87.72
424.471	57
424.679	83.63
424.887	-63.83
425.094	59.05
425.302	93.87
425.51	9.9
425.718	57
425.925	128.68
426.133	-45.4
426.341	167.59
426.548	46.76
426.756	50.86
426.964	100.01
427.171	-45.4
427.379	32.43
427.586	59.05
427.794	120.49
428.001	116.39
428.209	97.96
428.417	157.35
428.624	-2.39
428.832	61.1
429.039	34.47
429.247	52.91
429.454	67.24
429.662	136.87
429.869	73.39
430.076	54.95
430.284	83.63
430.491	177.83
430.699	159.4
430.906	165.54
431.114	50.86
431.321	118.44
431.528	91.82
431.736	100.01
431.943	100.01
432.15	118.44
432.358	110.25
432.565	167.59
432.772	-63.83
432.979	206.5
433.187	63.15
433.394	147.11
433.601	75.43
433.808	231.08
434.016	235.18
434.223	190.12
434.43	165.54
434.637	315.05
434.844	284.33
435.052	231.08
435.259	241.32
435.466	224.94
435.673	265.89
435.88	212.65
436.087	220.84
436.294	327.33
436.501	265.89
436.708	153.26
436.915	296.61
437.122	296.61
437.329	102.06
437.537	349.86
437.743	319.14
437.95	433.83
438.157	308.9
438.364	489.12
438.571	390.82
438.778	358.05
438.985	411.3
439.192	503.46
439.399	419.49
439.606	476.84
439.813	530.08
440.02	644.77
440.227	648.86
440.433	521.89
440.64	476.84
440.847	464.55
441.054	562.85
441.261	691.87
441.467	601.76
441.674	534.18
441.881	691.87
442.088	644.77
442.294	755.36
442.501	802.46
442.708	816.8
442.914	808.61
443.121	792.22
443.328	837.28
443.534	974.49
443.741	868
443.948	792.22
444.154	958.11
444.361	1107.61
444.568	1093.27
444.774	1021.6
444.981	921.24
445.187	1136.28
445.394	1109.66
445.6	1136.28
445.807	1267.35
446.013	1265.3
446.22	1287.83
446.426	1400.47
446.633	1490.58
446.839	1652.37
447.046	1406.61
447.252	1662.61
447.459	1621.65
447.665	1674.9
447.871	1791.63
448.078	1910.41
448.284	1949.32
448.491	1994.38
448.697	2094.73
448.903	2150.03
449.11	2174.6
449.316	2074.25
449.522	2317.96
449.728	2475.65
449.935	2551.43
450.141	2432.65
450.347	2694.79
450.553	2715.27
450.76	2770.56
450.966	3044.99
451.172	2926.21
451.378	3110.52
451.584	3139.19
451.791	3444.34
451.997	3655.28
452.203	3643
452.409	3743.35
452.615	3972.72
452.821	3763.83
453.027	3812.98
453.233	4327.02
453.44	4310.63
453.646	4435.56
453.852	4828.77
454.058	5004.89
454.264	5037.66
454.47	5205.6
454.676	5346.91
454.882	5752.4
455.088	5619.28
455.294	5848.66
455.5	6153.8
455.705	6573.64
455.911	6549.06
456.117	6805.06
456.323	7259.71
456.529	6995.52
456.735	7710.26
456.941	7925.3
457.147	8361.52
457.352	8281.64
457.558	8654.37
457.764	9104.93
457.97	9457.18
458.176	9770.52
458.381	10206.73
458.587	10452.49
458.793	10966.53
458.999	10923.52
459.204	12248.56
459.41	12778.98
459.616	12484.08
459.821	13235.68
460.027	13807.06
460.233	14493.13
460.438	14493.13
460.644	15320.51
460.85	15676.86
461.055	16373.17
461.261	17010.09
461.466	16663.98
461.672	16987.56
461.878	18746.76
462.083	18752.91
462.289	19002.76
462.494	19824
462.7	20008.31
462.905	20266.36
463.111	21753.18
463.316	22938.96
463.522	23117.13
463.727	23954.75
463.932	25244.97
464.138	25750.82
464.343	26756.37
464.549	27032.85
464.754	29361.39
464.959	30037.22
465.165	30045.41
465.37	29744.36
465.575	30125.28
465.781	32060.61
465.986	33029.3
466.191	32720.06
466.397	32767.16
466.602	32257.21
466.807	34038.95
467.012	34667.67
467.218	35212.43
467.423	35241.1
467.628	36129.92
467.833	38024.29
468.038	37203.06
468.244	36623.48
468.449	38282.34
468.654	37471.34
468.859	37932.14
469.064	38063.21
469.269	36678.78
469.474	37293.17
469.679	38456.42
469.885	37414
470.09	37368.94
470.295	37964.9
470.5	37037.17
470.705	37041.27
470.91	36256.9
471.115	35626.12
471.32	36531.33
471.525	36162.69
471.73	35253.39
471.935	34784.41
472.139	33469.61
472.344	33895.59
472.549	33658.03
472.754	32855.22
472.959	32124.1
473.164	30919.89
473.369	30514.39
473.574	31691.98
473.778	30717.14
473.983	30094.56
474.188	29955.3
474.393	28304.63
474.598	28314.87
474.802	27723.01
475.007	27391.24
475.212	26942.74
475.417	26150.17
475.621	25820.45
475.826	25640.23
476.031	24827.18
476.235	24460.6
476.44	24612.15
476.645	23772.48
476.849	23354.69
477.054	23080.27
477.259	22535.51
477.463	22492.5
477.668	21486.95
477.872	21640.54
478.077	21169.51
478.282	20780.4
478.486	20387.19
478.691	20379
478.895	20213.11
479.1	19953.02
479.304	19826.04
479.509	19119.49
479.713	19381.63
479.918	18898.31
480.122	18795.92
480.326	18763.15
480.531	18605.45
480.735	18339.22
480.94	18230.68
481.144	18501.01
481.348	17647.01
481.553	17855.9
481.757	17268.13
481.961	17632.67
482.166	17780.12
482.37	17202.6
482.574	16913.83
482.778	17116.58
482.983	17290.66
483.187	16696.75
483.391	16637.36
483.595	16750
483.8	16502.19
484.004	16166.32
484.208	16149.94
484.412	16033.21
484.616	15955.38
484.821	15611.32
485.025	15457.73
485.229	15289.79
485.433	14865.86
485.637	14941.64
485.841	14708.17
486.045	14486.99
486.249	14609.87
486.453	13958.61
486.657	13972.95
486.861	13798.87
487.065	13563.36
487.269	13327.84
487.473	12987.88
487.677	13090.27
487.881	13153.76
488.085	12500.46
488.289	12461.55
488.493	12002.8
488.697	12240.37
488.901	11793.91
489.105	11542.01
489.309	11185.66
489.512	11359.74
489.716	11050.5
489.92	10884.61
490.124	10397.2
490.328	10612.23
490.531	10096.14
490.735	10169.87
490.939	9942.55
491.143	9649.69
491.346	9508.38
491.55	9461.27
491.754	9334.3
491.958	9279.01
492.161	8857.12
492.365	8881.7
492.569	8805.92
492.772	8724.01
492.976	8543.78
493.18	8381.99
493.383	8543.78
493.587	8283.69
493.79	8070.7
493.994	7818.8
494.197	7845.43
494.401	7919.15
494.605	7843.38
494.808	7904.82
495.012	7673.4
495.215	7626.29
495.419	7626.29
495.622	7341.63
495.825	7423.55
496.029	7370.3
496.232	7607.86
496.436	7403.07
496.639	7550.52
496.843	7276.09
497.046	7394.87
497.249	7421.5
497.453	7431.74
497.656	7206.46
497.859	7317.05
498.063	7558.71
498.266	7501.37
498.469	7358.01
498.673	7390.78
498.876	7437.88
499.079	7599.67
499.282	7513.66
499.485	8087.09
499.689	7714.36
499.892	7700.02
500.095	7687.73
500.298	7753.27
500.501	7818.8
500.705	7882.29
500.908	7906.87
501.111	7851.57
501.314	8214.06
501.517	8166.96
501.72	8425
501.923	8216.11
502.126	8492.59
502.329	8607.27
502.532	8650.28
502.735	8814.12
502.938	8912.42
503.141	9076.26
503.344	8908.32
503.547	9066.02
503.75	9190.94
503.953	9455.13
504.156	9526.81
504.359	9621.02
504.562	9602.58
504.765	10061.33
504.968	10186.26
505.17	10243.6
505.373	10698.25
505.576	10800.65
505.779	10507.79
505.982	10733.06
506.185	11048.45
506.387	11355.65
506.59	11515.39
506.793	11793.91
506.996	11656.7
507.198	12285.42
507.401	12369.39
507.604	12776.94
507.807	12770.79
508.009	13135.33
508.212	13149.67
508.415	13282.78
508.617	13495.77
508.82	14056.92
509.022	14204.37
509.225	14831.05
509.428	14710.22
509.63	15314.37
509.833	15506.88
510.035	16127.41
510.238	16180.66
510.44	16412.08
510.643	16981.42
510.845	17450.4
511.048	17253.8
511.25	18072.98
511.453	18228.63
511.655	18918.79
511.858	19023.24
512.06	19799.42
512.262	20149.62
512.465	20166.01
512.667	20913.52
512.87	21480.8
513.072	21677.41
513.274	22287.7
513.477	22537.55
513.679	23418.18
513.881	23944.51
514.084	24644.91
514.286	24675.63
514.488	25406.76
514.69	26043.68
514.893	26301.72
515.095	27010.32
515.297	27677.96
515.499	27888.9
515.701	28646.65
515.904	29242.6
516.106	29857
516.308	30610.65
516.51	30954.71
516.712	31413.45
516.914	32060.61
517.116	33217.71
517.318	33494.19
517.52	33545.39
517.722	34225.31
517.925	34847.89
518.127	35910.79
518.329	36623.48
518.531	36617.34
518.733	37659.76
518.935	38061.16
519.136	38509.66
519.338	39638.09
519.54	39758.92
519.742	40463.43
519.944	40758.33
520.146	41841.71
520.348	42015.79
520.55	42804.25
520.752	42988.57
520.954	43641.87
521.155	43670.54
521.357	44338.18
521.559	44909.57
521.761	46033.9
521.963	45796.34
522.164	46240.75
522.366	46384.1
522.568	47143.9
522.77	47104.99
522.971	48493.51
523.173	47623.12
523.375	48128.97
523.576	48182.22
523.778	48581.57
523.98	49183.68
524.181	49089.47
524.383	49548.21
524.584	49699.76
524.786	49564.6
524.988	49378.23
525.189	49871.79
525.391	49937.33
525.592	49879.99
525.794	50494.38
525.995	49476.54
526.197	49691.57
526.398	49544.12
526.6	49855.41
526.801	50002.86
527.003	49417.14
527.204	48991.17
527.406	49642.42
527.607	48427.98
527.808	49083.33
528.01	47680.47
528.211	48022.48
528.412	48401.35
528.614	47602.64
528.815	47379.42
529.016	47596.5
529.218	46611.43
529.419	46599.14
529.62	45741.04
529.822	45538.29
530.023	45290.49
530.224	44532.74
530.425	44297.22
530.626	43510.8
530.828	43179.03
531.029	43748.37
531.23	42284.07
531.431	41686.06
531.632	41700.4
531.833	41702.45
532.035	40516.67
532.236	39881.8
532.437	39742.54
532.638	39021.66
532.839	38493.28
533.04	38194.28
533.241	37514.35
533.442	37670
533.643	36766.84
533.844	36387.97
534.045	35945.61
534.246	34829.46
534.447	35130.51
534.648	34108.58
534.849	34147.49
535.05	33172.66
535.251	32879.8
535.451	32703.67
535.652	32044.23
535.853	32025.79
536.054	31552.71
536.255	31038.67
536.456	30624.98
536.657	30473.43
536.857	29566.18
537.058	28919.03
537.259	29109.49
537.46	28499.19
537.66	27892.99
537.861	27852.03
538.062	27272.46
538.263	26846.48
538.463	26559.77
538.664	26258.71
538.865	26004.77
539.065	25701.67
539.266	25345.32
539.466	25158.95
539.667	24474.93
539.868	24775.98
540.068	23938.37
540.269	23477.57
540.469	23670.08
540.67	23338.31
540.87	23141.71
541.071	22603.09
541.271	22543.7
541.472	22191.45
541.672	22064.47
541.873	21802.33
542.073	21316.97
542.274	21259.62
542.474	21073.26
542.675	20729.2
542.875	20366.71
543.075	20297.08
543.276	19944.83
543.476	19889.53
543.676	19453.31
543.877	19490.18
544.077	19150.21
544.277	19088.78
544.478	18623.89
544.678	18818.44
544.878	18431.38
545.078	18134.42
545.279	17522.08
545.479	17313.19
545.679	17302.95
545.879	17233.32
546.079	16973.22
546.28	16684.46
546.48	16541.1
546.68	16627.12
546.88	16588.21
547.08	16094.65
547.28	16018.87
547.48	15648.19
547.68	15543.74
547.88	15365.57
548.081	15304.13
548.281	15025.61
548.481	14525.9
548.681	14714.31
548.881	14437.84
549.081	14355.92
549.28	14028.24
549.48	14005.72
549.68	13522.4
549.88	13514.2
550.08	13147.62
550.28	13305.31
550.48	13151.71
550.68	12944.87
550.88	12588.52
551.08	12166.64
551.279	12285.42
551.479	11939.32
551.679	11892.21
551.879	11642.36
552.079	11603.45
552.278	11421.18
552.478	11544.06
552.678	11050.5
552.878	10931.72
553.077	10640.9
553.277	10413.58
553.477	10495.5
553.676	10208.78
553.876	10151.44
554.076	9637.4
554.275	9672.22
554.475	9385.5
554.674	9578.01
554.874	9260.57
555.074	8963.62
555.273	8865.32
555.473	9201.18
555.672	8572.46
555.872	8498.73
556.071	8537.64
556.271	8574.5
556.47	8257.07
556.67	7878.19
556.869	7904.82
557.068	7816.76
557.268	7591.48
557.467	7505.46
557.667	7585.33
557.866	7323.19
558.065	7032.38
558.265	6989.38
558.464	7136.83
558.663	6946.37
558.863	6606.41
559.062	6860.35
559.261	6481.48
559.461	6487.62
559.66	6250.06
559.859	6301.26
560.058	6032.97
560.258	5860.95
560.457	5785.17
560.656	5951.06
560.855	5650
561.054	5799.51
561.253	5674.58
561.453	5574.23
561.652	5459.54
561.851	5537.37
562.05	5281.37
562.249	5246.55
562.448	5105.24
562.647	4812.39
562.846	4765.28
563.045	4916.83
563.244	4718.18
563.443	4707.94
563.642	4621.92
563.841	4531.81
564.04	4560.49
564.239	4537.96
564.438	4271.72
564.637	4398.7
564.836	4238.95
565.035	4183.66
565.234	4214.38
565.432	4148.84
565.631	4191.85
565.83	4015.73
566.029	3911.28
566.228	3817.07
566.427	3882.61
566.625	3679.86
566.824	3720.82
567.023	3473.01
567.222	3700.34
567.42	3497.59
567.619	3505.78
567.818	3487.35
568.016	3468.92
568.215	3286.65
568.414	3305.08
568.612	3188.35
568.811	3176.06
569.01	3075.71
569.208	3200.63
569.407	3182.2
569.605	2918.01
569.804	2922.11
570.002	2868.86
570.201	2815.62
570.4	2821.76
570.598	2850.43
570.797	2791.04
570.995	2633.35
571.193	2635.39
571.392	2686.59
571.59	2498.18
571.789	2637.44
571.987	2569.86
572.186	2545.28
572.384	2463.37
572.582	2547.33
572.781	2494.08
572.979	2266.76
573.177	2303.62
573.376	2350.73
573.574	2334.34
573.772	2244.23
573.971	2104.97
574.169	2104.97
574.367	2123.4
574.565	2092.68
574.763	2031.24
574.962	1937.04
575.16	2016.91
575.358	1818.25
575.556	1881.74
575.754	1820.3
575.952	1814.16
576.151	1887.89
576.349	1863.31
576.547	1666.71
576.745	1748.62
576.943	1797.78
577.141	1722
577.339	1541.78
577.537	1670.8
577.735	1687.18
577.933	1541.78
578.131	1437.33
578.329	1703.57
578.527	1525.4
578.725	1568.4
578.923	1373.85
579.121	1457.81
579.319	1298.07
579.516	1357.46
579.714	1566.35
579.912	1367.7
580.11	1238.68
580.308	1332.89
580.506	1216.15
580.704	1132.19
580.901	1201.82
581.099	1386.13
581.297	1154.71
581.495	1259.16
581.692	1111.71
581.89	1310.36
582.088	1134.23
582.285	1167
582.483	1095.32
582.681	1076.89
582.878	1009.31
583.076	1107.61
583.274	1113.75
583.471	1136.28
583.669	994.97
583.866	931.48
584.064	1009.31
584.262	865.95
584.459	960.16
584.657	911
584.854	874.14
585.052	937.63
585.249	888.48
585.447	951.96
585.644	679.58
585.841	913.05
586.039	796.32
586.236	810.65
586.434	894.62
586.631	798.37
586.828	792.22
587.026	808.61
587.223	687.78
587.42	700.06
587.618	718.5
587.815	882.33
588.012	786.08
588.21	763.55
588.407	851.61
588.604	808.61
588.801	630.43
588.999	693.92
589.196	710.3
589.393	689.82
589.59	802.46
589.787	669.34
589.984	741.02
590.182	720.54
590.379	591.52
590.576	612
590.773	599.71
590.97	564.9
591.167	642.72
591.364	732.83
591.561	632.48
591.758	738.98
591.955	650.91
592.152	618.15
592.349	603.81
592.546	640.67
592.743	601.76
592.94	581.28
593.137	601.76
593.334	607.91
593.531	638.62
593.727	634.53
593.924	599.71
594.121	517.79
594.318	517.79
594.515	683.68
594.712	786.08
594.908	681.63
595.105	583.33
595.302	704.16
595.499	634.53
595.696	794.27
595.892	568.99
596.089	743.07
596.286	646.82
596.482	810.65
596.679	824.99
596.876	720.54
597.072	851.61
597.269	822.94
597.466	792.22
597.662	712.35
597.859	765.6
598.055	827.04
598.252	931.48
598.448	980.64
598.645	1033.88
598.841	1037.98
599.038	1130.14
599.234	1158.81
599.431	1185.43
599.627	1167
599.824	1242.78
600.02	1240.73
600.217	1255.06
600.413	1402.52
600.609	1365.65
600.806	1760.91
601.002	1570.45
601.198	1484.44
601.395	1633.94
601.591	1687.18
601.787	1722
601.984	1822.35
602.18	1879.69
602.376	1914.51
602.572	2039.44
602.769	2258.57
602.965	2092.68
603.161	2240.14
603.357	2348.68
603.553	2444.93
603.75	2455.17
603.946	2475.65
604.142	2580.1
604.338	2889.34
604.534	2885.25
604.73	2924.16
604.926	2979.45
605.122	3180.15
605.318	3120.76
605.514	3415.67
605.71	3450.49
605.906	3511.93
606.102	3485.3
606.298	3886.7
606.494	3849.84
606.69	4068.97
606.886	4128.36
607.082	4161.13
607.278	4187.75
607.474	4388.46
607.67	4636.26
607.866	4453.99
608.062	4875.87
608.257	5097.05
608.453	5035.61
608.649	5209.69
608.845	5176.92
609.041	5484.12
609.236	5658.2
609.432	5932.62
609.628	5860.95
609.824	6291.02
610.019	6299.21
610.215	6370.89
610.411	6645.32
610.606	6786.63
610.802	6946.37
610.998	7198.27
611.193	7390.78
611.389	7257.66
611.584	7796.28
611.78	7978.54
611.976	8074.8
612.171	8572.46
612.367	8500.78
612.562	8711.72
612.758	9037.34
612.953	9012.77
613.149	9322.01
613.344	9614.87
613.539	9917.97
613.735	10296.85
613.93	10481.16
614.126	10622.47
614.321	10923.52
614.517	11298.3
614.712	11521.53
614.907	11912.69
615.103	12383.73
615.298	12240.37
615.493	12643.82
615.688	13077.99
615.884	13710.81
616.079	13528.54
616.274	14130.64
616.47	14343.63
616.665	14935.49
616.86	15320.51
617.055	15658.43
617.25	15926.71
617.445	16758.19
617.641	16512.43
617.836	17278.37
618.031	17401.25
618.226	18005.4
618.421	18453.91
618.616	19006.86
618.811	19037.58
619.006	19793.28
619.201	20331.89
619.396	20870.51
619.591	20725.1
619.786	21499.23
619.981	21962.08
620.176	22598.99
620.371	22611.28
620.566	23498.05
620.761	23944.51
620.956	24513.84
621.151	24595.76
621.346	25337.13
621.541	25683.23
621.735	26352.92
621.93	26424.6
622.125	27337.99
622.32	27544.84
622.515	28300.54
622.709	28964.08
622.904	29148.4
623.099	29838.56
623.294	30645.46
623.488	30592.22
623.683	31403.21
623.878	31581.38
624.072	32472.25
624.267	33045.68
624.462	33137.84
624.656	33490.09
624.851	34542.75
625.046	34200.74
625.24	35308.69
625.435	35671.18
625.629	36529.28
625.824	36265.09
626.018	36934.78
626.213	36867.19
626.407	37565.55
626.602	37930.09
626.796	38765.66
626.991	38767.71
627.185	39269.46
627.38	39048.28
627.574	39668.81
627.768	39541.84
627.963	39732.3
628.157	39791.69
628.352	40784.96
628.546	39785.55
628.74	40668.22
628.935	40234.05
629.129	40229.96
629.323	39758.92
629.517	39724.11
629.712	39820.36
629.906	39394.39
630.1	39076.95
630.294	38603.87
630.489	38167.65
630.683	38179.94
630.877	37059.7
631.071	36541.57
631.265	35908.74
631.459	35310.74
631.653	34475.16
631.848	34110.63
632.042	32998.58
632.236	32267.45
632.43	31288.53
632.624	31059.15
632.818	29975.78
633.012	28775.67
633.206	27999.49
633.4	27102.48
633.594	25916.7
633.788	25421.09
633.982	24665.39
634.176	23643.46
634.369	22748.5
634.563	22275.41
634.757	20993.39
634.951	20571.5
635.145	19457.41
635.339	18992.52
635.533	18064.79
635.726	17292.71
635.92	16504.24
636.114	15754.68
636.308	15142.34
636.501	14712.27
636.695	14216.66
636.889	13065.7
637.083	13026.79
637.276	12305.9
637.47	11798.01
637.664	11253.25
637.857	10917.38
638.051	10804.74
638.244	10053.14
638.438	9688.6
638.632	9516.57
638.825	8734.25
639.019	8508.97
639.212	8214.06
639.406	7849.52
639.599	7560.76
639.793	7439.93
639.986	7028.29
640.18	6645.32
640.373	6495.82
640.567	6327.88
640.76	5953.1
640.954	5811.79
641.147	5576.28
641.34	5383.77
641.534	5213.79
641.727	4769.38
641.92	4793.95
642.114	4703.84
642.307	4591.2
642.5	4118.12
642.694	3987.05
642.887	4062.83
643.08	3978.86
643.273	3765.87
643.467	3573.36
643.66	3249.79
643.853	3223.16
644.046	3247.74
644.239	3083.9
644.432	2832
644.626	2733.7
644.819	2633.35
645.012	2494.08
645.205	2588.29
645.398	2467.46
645.591	2168.46
645.784	2129.55
645.977	2010.76
646.17	1951.37
646.363	1943.18
646.556	1805.97
646.749	1631.89
646.942	1734.29
647.135	1752.72
647.328	1570.45
647.521	1560.21
647.714	1494.68
647.907	1347.22
648.099	1402.52
648.292	1363.61
648.485	1382.04
648.678	1191.58
648.871	1164.95
649.064	1142.43
649.256	968.35
649.449	992.92
649.642	966.3
649.835	880.29
650.027	915.1
650.22	1015.45
650.413	904.86
650.605	923.29
650.798	820.89
650.991	741.02
651.183	741.02
651.376	765.6
651.568	687.78
651.761	642.72
651.954	655.01
652.146	708.26
652.339	632.48
652.531	730.78
652.724	612
652.916	499.36
653.109	372.39
653.301	607.91
653.494	550.56
653.686	462.5
653.879	571.04
654.071	456.36
654.263	411.3
654.456	407.2
654.648	509.6
654.84	497.32
655.033	323.24
655.225	405.16
655.417	345.77
655.61	480.93
655.802	456.36
655.994	472.74
656.186	313
656.379	466.6
656.571	315.05
656.763	302.76
656.955	255.65
657.148	321.19
657.34	394.92
657.532	284.33
657.724	321.19
657.916	226.98
658.108	423.59
658.3	317.09
658.492	337.57
658.684	110.25
658.876	249.51
659.068	175.78
659.26	130.73
659.452	128.68
659.644	278.18
659.836	349.86
660.028	245.41
660.22	169.64
660.412	181.93
660.604	198.31
660.796	126.63
660.988	255.65
661.18	245.41
661.372	196.26
661.563	210.6
661.755	194.22
661.947	3.75
662.139	75.43
662.331	89.77
662.522	104.11
662.714	77.48
662.906	108.2
663.097	22.19
663.289	46.76
663.481	85.67
663.673	145.06
663.864	108.2
664.056	169.64
664.247	63.15
664.439	218.79
664.631	132.78
664.822	167.59
665.014	179.88
665.205	85.67
665.397	122.54
665.588	69.29
665.78	136.87
665.971	200.36
666.163	95.91
666.354	147.11
666.546	83.63
666.737	118.44
666.929	114.34
667.12	116.39
667.311	175.78
667.503	143.02
667.694	126.63
667.885	73.39
668.077	114.34
668.268	-4.44
668.459	85.67
668.651	87.72
668.842	161.45
669.033	-6.49
669.224	-47.44
669.416	280.23
669.607	22.19
669.798	50.86
669.989	175.78
670.18	52.91
670.371	153.26
670.563	67.24
670.754	206.5
670.945	140.97
671.136	120.49
671.327	-35.16
671.518	112.3
671.709	218.79
671.9	130.73
672.091	216.74
672.282	93.87
672.473	140.97
672.664	22.19
672.855	149.16
673.046	42.67
673.237	87.72
673.428	145.06
673.619	194.22
673.809	75.43
674	81.58
674.191	108.2
674.382	93.87
674.573	104.11
674.764	167.59
674.954	114.34
675.145	36.52
675.336	26.28
675.527	77.48
675.717	63.15
675.908	116.39
676.099	-39.25
676.289	120.49
676.48	26.28
676.671	102.06
676.861	48.81
677.052	59.05
677.243	52.91
677.433	108.2
677.624	149.16
677.814	126.63
678.005	16.04
678.195	163.5
678.386	50.86
678.576	202.41
678.767	28.33
678.957	54.95
679.148	206.5
679.338	212.65
679.529	175.78
679.719	100.01
679.909	140.97
680.1	124.58
680.29	177.83
680.481	-22.87
680.671	186.02
680.861	136.87
681.052	159.4
681.242	124.58
681.432	118.44
681.622	188.07
681.813	42.67
682.003	77.48
682.193	9.9
682.383	112.3
682.573	81.58
682.764	100.01
682.954	52.91
683.144	112.3
683.334	50.86
683.524	120.49
683.714	155.3
683.904	173.74
684.094	36.52
684.284	136.87
684.474	204.46
684.664	210.6
684.854	134.82
685.044	157.35
685.234	134.82
685.424	136.87
685.614	67.24
685.804	343.72
685.994	276.13
686.184	83.63
686.374	231.08
686.564	102.06
686.753	186.02
686.943	93.87
687.133	112.3
687.323	136.87
687.513	161.45
687.702	124.58
687.892	124.58
688.082	214.7
688.272	231.08
688.461	159.4
688.651	276.13
688.841	181.93
689.03	102.06
689.22	136.87
689.41	206.5
689.599	77.48
689.789	69.29
689.979	341.67
690.168	87.72
690.358	200.36
690.547	112.3
690.737	136.87
690.926	171.69
691.116	110.25
691.305	192.17
691.495	243.37
691.684	22.19
691.874	91.82
692.063	116.39
692.252	177.83
692.442	237.22
692.631	46.76
692.82	13.99
693.01	194.22
693.199	100.01
693.388	116.39
693.578	65.19
693.767	159.4
693.956	134.82
694.146	69.29
694.335	216.74
694.524	120.49
694.713	161.45
694.902	69.29
695.092	97.96
695.281	173.74
695.47	67.24
695.659	44.71
695.848	40.62
696.037	149.16
696.226	140.97
696.415	83.63
696.604	192.17
696.793	183.98
696.982	54.95
697.171	175.78
697.36	69.29
697.549	87.72
697.738	-31.06
697.927	124.58
698.116	-29.01
698.305	143.02
698.494	24.23
698.683	120.49
698.872	190.12
699.061	169.64
699.25	114.34
699.438	112.3
699.627	52.91
699.816	222.89
700.005	59.05
700.193	77.48
700.382	169.64
700.571	179.88
700.76	120.49
700.948	130.73
701.137	220.84
701.326	93.87
701.514	-8.53
701.703	138.92
701.892	114.34
702.08	239.27
702.269	89.77
702.457	73.39
702.646	149.16
702.834	116.39
703.023	147.11
703.212	163.5
703.4	112.3
703.589	188.07
703.777	97.96
703.965	-49.49
704.154	138.92
704.342	1.71
704.531	81.58
704.719	190.12
704.907	210.6
705.096	9.9
705.284	44.71
705.472	204.46
705.661	93.87
705.849	155.3
706.037	136.87
706.226	100.01
706.414	177.83
706.602	100.01
706.79	210.6
706.979	97.96
707.167	95.91
707.355	16.04
707.543	183.98
707.731	134.82
707.919	130.73
708.107	145.06
708.296	95.91
708.484	93.87
708.672	79.53
708.86	155.3
709.048	97.96
709.236	104.11
709.424	108.2
709.612	104.11
709.8	67.24
709.988	124.58
710.176	167.59
710.364	243.37
710.551	138.92
710.739	97.96
710.927	140.97
711.115	128.68
711.303	255.65
711.491	198.31
711.679	93.87
711.866	145.06
712.054	61.1
712.242	83.63
712.43	212.65
712.617	147.11
712.805	181.93
712.993	169.64
713.181	42.67
713.368	181.93
713.556	22.19
713.744	36.52
713.931	308.9
714.119	208.55
714.306	100.01
714.494	163.5
714.682	81.58
714.869	97.96
715.057	208.55
715.244	46.76
715.432	169.64
715.619	81.58
715.807	30.38
715.994	46.76
716.182	75.43
716.369	169.64
716.556	157.35
716.744	-37.2
716.931	11.95
717.119	108.2
717.306	161.45
717.493	169.64
717.681	75.43
717.868	85.67
718.055	134.82
718.242	95.91
718.43	130.73
718.617	194.22
718.804	104.11
718.991	280.23
719.179	130.73
719.366	245.41
719.553	153.26
719.74	106.15
719.927	181.93
720.114	143.02
720.301	108.2
720.488	143.02
720.676	134.82
720.863	196.26
721.05	347.81
721.237	134.82
721.424	210.6
721.611	106.15
721.798	13.99
721.985	97.96
722.172	108.2
722.358	102.06
722.545	194.22
722.732	218.79
722.919	263.85
723.106	188.07
723.293	130.73
723.48	202.41
723.667	75.43
723.853	265.89
724.04	229.03
724.227	247.46
724.414	81.58
724.6	218.79
724.787	247.46
724.974	315.05
725.161	128.68
725.347	75.43
725.534	143.02
725.72	136.87
725.907	183.98
726.094	245.41
726.28	188.07
726.467	95.91
726.653	161.45
726.84	333.48
727.027	310.95
727.213	202.41
727.4	208.55
727.586	134.82
727.773	206.5
727.959	153.26
728.145	239.27
728.332	124.58
728.518	124.58
728.705	257.7
728.891	226.98
729.077	159.4
729.264	91.82
729.45	204.46
729.636	194.22
729.823	218.79
730.009	220.84
730.195	120.49
730.382	190.12
730.568	69.29
730.754	128.68
730.94	243.37
731.126	214.7
731.313	116.39
731.499	192.17
731.685	243.37
731.871	226.98
732.057	188.07
732.243	237.22
732.429	202.41
732.615	284.33
732.801	177.83
732.987	210.6
733.173	202.41
733.359	77.48
733.545	194.22
733.731	188.07
733.917	356.01
734.103	192.17
734.289	163.5
734.475	175.78
734.661	282.28
734.847	241.32
735.033	194.22
735.219	261.8
735.404	249.51
735.59	179.88
735.776	212.65
735.962	251.56
736.148	263.85
736.333	292.52
736.519	210.6
736.705	140.97
736.89	208.55
737.076	108.2
737.262	143.02
737.447	233.13
737.633	222.89
737.819	288.42
738.004	245.41
738.19	218.79
738.375	296.61
738.561	237.22
738.747	253.61
738.932	128.68
739.118	339.62
739.303	300.71
739.489	329.38
739.674	138.92
739.859	143.02
740.045	171.69
740.23	136.87
740.416	110.25
740.601	153.26
740.786	218.79
740.972	132.78
741.157	310.95
741.342	61.1
741.528	100.01
741.713	347.81
741.898	212.65
742.084	198.31
742.269	212.65
742.454	218.79
742.639	222.89
742.824	204.46
743.01	308.9
743.195	417.44
743.38	161.45
743.565	202.41
743.75	288.42
743.935	280.23
744.12	259.75
744.305	179.88
744.49	206.5
744.675	204.46
744.86	140.97
745.045	224.94
745.23	169.64
745.415	140.97
745.6	294.57
745.785	149.16
745.97	319.14
746.155	278.18
746.34	278.18
746.525	145.06
746.71	405.16
746.895	124.58
747.079	157.35
747.264	190.12
747.449	345.77
747.634	296.61
747.819	265.89
748.003	255.65
748.188	112.3
748.373	130.73
748.557	198.31
748.742	206.5
748.927	263.85
749.111	190.12
749.296	198.31
749.481	269.99
749.665	229.03
749.85	210.6
750.034	194.22
750.219	235.18
750.404	151.21
750.588	202.41
750.773	196.26
750.957	241.32
751.141	147.11
751.326	267.94
751.51	38.57
751.695	153.26
751.879	259.75
752.064	276.13
752.248	169.64
752.432	265.89
752.617	243.37
752.801	157.35
752.985	79.53
753.17	229.03
753.354	177.83
753.538	233.13
753.722	83.63
753.907	165.54
754.091	120.49
754.275	251.56
754.459	85.67
754.643	44.71
754.828	147.11
755.012	206.5
755.196	69.29
755.38	253.61
755.564	42.67
755.748	102.06
755.932	181.93
756.116	153.26
756.3	181.93
756.484	190.12
756.668	210.6
756.852	81.58
757.036	147.11
757.22	212.65
757.404	122.54
757.588	77.48
757.772	202.41
757.956	116.39
758.14	222.89
758.323	77.48
758.507	192.17
758.691	-31.06
758.875	229.03
759.059	224.94
759.242	100.01
759.426	194.22
759.61	183.98
759.794	-4.44
759.977	128.68
760.161	333.48
760.345	206.5
760.528	226.98
760.712	155.3
760.895	118.44
761.079	138.92
761.263	87.72
761.446	77.48
761.63	138.92
761.813	171.69
761.997	9.9
762.18	75.43
762.364	237.22
762.547	38.57
762.731	77.48
762.914	48.81
763.098	95.91
763.281	11.95
763.464	73.39
763.648	134.82
763.831	34.47
764.015	106.15
764.198	177.83
764.381	108.2
764.564	71.34
764.748	112.3
764.931	128.68
765.114	77.48
765.297	157.35
765.481	-65.88
765.664	100.01
765.847	120.49
766.03	200.36
766.213	-2.39
766.397	69.29
766.58	42.67
766.763	143.02
766.946	67.24
767.129	28.33
767.312	46.76
767.495	54.95
767.678	34.47
767.861	75.43
768.044	61.1
768.227	3.75
768.41	61.1
768.593	122.54
768.776	89.77
768.959	95.91
769.142	83.63
769.324	40.62
769.507	61.1
769.69	20.14
769.873	87.72
770.056	284.33
770.239	97.96
770.421	192.17
770.604	126.63
770.787	65.19
770.97	100.01
771.152	18.09
771.335	120.49
771.518	-18.77
771.7	52.91
771.883	138.92
772.066	-20.82
772.248	104.11
772.431	138.92
772.613	106.15
772.796	34.47
772.978	97.96
773.161	226.98
773.343	100.01
773.526	26.28
773.708	-2.39
773.891	-33.11
774.073	-0.34
774.256	-8.53
774.438	169.64
774.621	48.81
774.803	59.05
774.985	46.76
775.168	24.23
775.35	-24.92
775.532	97.96
775.715	-0.34
775.897	93.87
776.079	52.91
776.261	87.72
776.444	54.95
776.626	-26.96
776.808	83.63
776.99	-2.39
777.173	38.57
777.355	93.87
777.537	38.57
777.719	-4.44
777.901	54.95
778.083	48.81
778.265	-51.54
778.447	95.91
778.629	7.85
778.811	46.76
778.993	71.34
779.175	175.78
779.357	30.38
779.539	22.19
779.721	112.3
779.903	46.76
780.085	-53.59
780.267	63.15
780.449	108.2
780.631	71.34
780.812	118.44
780.994	46.76
781.176	1.71
781.358	-0.34
781.54	-55.64
781.721	59.05
781.903	112.3
782.085	63.15
782.267	151.21
782.448	-49.49
782.63	-129.36
782.812	59.05
782.993	67.24
783.175	-31.06
783.357	-16.73
783.538	83.63
783.72	-10.58
783.901	-49.49
784.083	46.76
784.264	85.67
784.446	-26.96
784.627	-29.01
784.809	95.91
784.99	-0.34
785.172	63.15
785.353	1.71
785.535	81.58
785.716	5.8
785.897	-86.36
786.079	-59.73
786.26	67.24
786.441	79.53
786.623	-10.58
786.804	-61.78
786.985	3.75
787.167	85.67
787.348	32.43
787.529	-14.68
787.71	104.11
787.891	11.95
788.073	5.8
788.254	-47.44
788.435	163.5
788.616	102.06
788.797	-110.93
788.978	-22.87
789.159	-20.82
789.34	77.48
789.522	-51.54
789.703	-86.36
789.884	-24.92
790.065	97.96
790.246	200.36
790.427	-10.58
790.607	132.78
790.788	85.67
790.969	-55.64
791.15	122.54
791.331	-2.39
791.512	-0.34
791.693	-115.03
791.874	40.62
792.054	124.58
792.235	48.81
792.416	-51.54
792.597	-22.87
792.778	46.76
792.958	22.19
793.139	50.86
793.32	44.71
793.5	-4.44
793.681	93.87
793.862	40.62
794.042	61.1
794.223	-65.88
794.404	-14.68
794.584	-10.58
794.765	63.15
794.945	73.39
795.126	28.33
795.306	126.63
795.487	-35.16
795.667	-0.34
795.848	34.47
796.028	-39.25
796.209	-49.49
796.389	85.67
796.57	11.95
796.75	-39.25
796.93	-24.92
797.111	-61.78
797.291	-82.26
797.471	67.24
797.652	3.75
797.832	-51.54
798.012	100.01
798.192	-4.44
798.373	-35.16
798.553	-47.44
798.733	-6.49
798.913	-84.31
799.093	-41.3
799.274	36.52
799.454	-0.34
799.634	54.95
799.814	18.09
799.994	28.33
800.174	-8.53
800.354	38.57
800.534	-43.35
800.714	18.09
800.894	-43.35
801.074	-92.5
801.254	-84.31
801.434	32.43
801.614	-90.45
801.794	-74.07
801.974	1920.65
802.154	-80.21
802.334	32.43
802.514	-80.21
802.693	-16.73
802.873	-4.44
803.053	95.91
803.233	11.95
803.413	5.8
803.592	-82.26
803.772	-47.44
803.952	-51.54
804.131	-112.98
804.311	24.23
804.491	40.62
804.67	-35.16
804.85	-63.83
805.03	50.86
805.209	106.15
805.389	-39.25
805.568	-29.01
805.748	54.95
805.928	-41.3
806.107	24.23
806.287	26.28
806.466	65.19
806.646	-51.54
806.825	30.38
807.004	-26.96
807.184	-47.44
807.363	38.57
807.543	42.67
807.722	-158.03
807.901	87.72
808.081	-8.53
808.26	-147.8
808.439	30.38
808.619	-59.73
808.798	-4.44
808.977	34.47
809.156	87.72
809.336	-18.77
809.515	30.38
809.694	-88.4
809.873	-43.35
810.052	-37.2
810.231	1.71
810.411	-39.25
810.59	32.43
810.769	-22.87
810.948	3.75
811.127	-123.22
811.306	-39.25
811.485	-33.11
811.664	77.48
811.843	-65.88
812.022	7.85
812.201	-102.74
812.38	-72.02
812.559	-20.82
812.737	-12.63
812.916	-74.07
813.095	-47.44
813.274	24.23
813.453	-102.74
813.632	5.8
813.811	36.52
813.989	-102.74
814.168	-31.06
814.347	-76.12
814.526	-39.25
814.704	128.68
814.883	63.15
815.062	-92.5
815.24	-63.83
815.419	-96.6
815.598	38.57
815.776	-125.27
815.955	34.47
816.133	-141.65
816.312	16.04
816.49	-82.26
816.669	-78.16
816.847	-57.68
817.026	54.95
817.204	-121.17
817.383	-96.6
817.561	-92.5
817.74	48.81
817.918	-33.11
818.097	16.04
818.275	-78.16
818.453	42.67
818.632	67.24
818.81	-65.88
818.988	-65.88
819.167	-18.77
819.345	-8.53
819.523	-37.2
819.701	-26.96
819.879	93.87
820.058	34.47
820.236	-49.49
820.414	-22.87
820.592	-43.35
820.77	38.57
820.948	-39.25
821.127	-76.12
821.305	-63.83
821.483	-100.69
821.661	22.19
821.839	40.62
822.017	-4.44
822.195	-39.25
822.373	18.09
822.551	24.23
822.729	52.91
822.907	-65.88
823.085	50.86
823.262	-43.35
823.44	-57.68
823.618	-55.64
823.796	-33.11
823.974	-125.27
824.152	-63.83
824.329	-90.45
824.507	20.14
824.685	1.71
824.863	32.43
825.04	-8.53
825.218	61.1
825.396	-127.32
825.574	-110.93
825.751	-29.01
825.929	-78.16
826.107	-8.53
826.284	-45.4
826.462	46.76
826.639	-80.21
826.817	-90.45
826.994	-45.4
827.172	-151.89
827.349	50.86
827.527	89.77
827.704	-24.92
827.882	38.57
828.059	38.57
828.237	-115.03
828.414	-20.82
828.591	-92.5
828.769	63.15
828.946	-110.93
829.124	-6.49
829.301	108.2
829.478	-69.97
829.655	34.47
829.833	-80.21
830.01	-84.31
830.187	-37.2
830.364	-35.16
830.542	-55.64
830.719	50.86
830.896	42.67
831.073	-35.16
831.25	-29.01
831.427	52.91
831.604	-43.35
831.782	-63.83
831.959	-47.44
832.136	-8.53
832.313	-6.49
832.49	-55.64
832.667	-18.77
832.844	-55.64
833.021	93.87
833.198	11.95
833.374	-24.92
833.551	-59.73
833.728	-33.11
833.905	11.95
834.082	-127.32
834.259	-47.44
834.436	122.54
834.612	-16.73
834.789	40.62
834.966	7.85
835.143	48.81
835.319	-49.49
835.496	-33.11
835.673	9.9
835.85	48.81
836.026	38.57
836.203	83.63
836.38	-106.84
836.556	-20.82
836.733	-98.64
836.909	65.19
837.086	-53.59
837.262	-76.12
837.439	-82.26
837.616	-96.6
837.792	-37.2
837.968	-78.16
838.145	-149.84
838.321	71.34
838.498	-12.63
838.674	30.38
838.851	13.99
839.027	-47.44
839.203	13.99
839.38	16.04
839.556	-16.73
839.732	32.43
839.909	-24.92
840.085	-39.25
840.261	-69.97
840.437	-90.45
840.614	-74.07
840.79	91.82
840.966	26.28
841.142	18.09
841.318	-33.11
841.494	-47.44
841.671	63.15
841.847	-67.92
842.023	-88.4
842.199	5.8
842.375	-6.49
842.551	-57.68
842.727	-29.01
842.903	95.91
843.079	-139.6
843.255	22.19
843.431	-65.88
843.607	11.95
843.783	-182.61
843.959	-104.79
844.134	-78.16
844.31	118.44
844.486	-72.02
844.662	-151.89
844.838	28.33
845.013	-29.01
845.189	54.95
845.365	11.95
845.541	-6.49
845.716	-94.55
845.892	79.53
846.068	-72.02
846.244	-49.49
846.419	-45.4
846.595	-88.4
846.77	-59.73
846.946	32.43
847.122	-24.92
847.297	-108.88
847.473	-2.39
847.648	-29.01
847.824	-74.07
847.999	-135.51
848.175	-35.16
848.35	-24.92
848.526	52.91
848.701	38.57
848.876	38.57
849.052	-2.39
849.227	-49.49
849.403	22.19
849.578	-121.17
849.753	9.9
849.929	-59.73
850.104	-47.44
850.279	5.8
850.454	-20.82
850.63	5.8
850.805	-90.45
850.98	-10.58
851.155	-8.53
851.33	-98.64
851.505	-141.65
851.681	50.86
851.856	-53.59
852.031	-45.4
852.206	28.33
852.381	-88.4
852.556	-117.08
852.731	-24.92
852.906	-6.49
853.081	42.67
853.256	65.19
853.431	-104.79
853.606	-149.84
853.781	-115.03
853.956	-112.98
854.131	50.86
854.305	-57.68
854.48	-6.49
854.655	-57.68
854.83	-98.64
855.005	-92.5
855.18	106.15
855.354	-26.96
855.529	36.52
855.704	22.19
855.879	38.57
856.053	-65.88
856.228	3.75
856.403	-94.55
856.577	69.29
856.752	-121.17
856.926	-47.44
857.101	-49.49
857.276	-78.16
857.45	-0.34
857.625	46.76
857.799	30.38
857.974	11.95
858.148	-100.69
858.323	-18.77
858.497	-78.16
858.672	7.85
858.846	-61.78
859.02	26.28
859.195	-84.31
859.369	-53.59
859.543	52.91
859.718	-31.06
859.892	20.14
860.066	-82.26
860.241	-88.4
860.415	-72.02
860.589	-61.78
860.763	-41.3
860.938	-86.36
861.112	-31.06
861.286	-72.02
861.46	34.47
861.634	-80.21
861.808	-45.4
861.982	-84.31
862.157	-88.4
862.331	-119.12
862.505	-141.65
862.679	-88.4
862.853	-72.02
863.027	13.99
863.201	145.06
863.375	-153.94
863.549	-69.97
863.722	-8.53
863.896	1.71
864.07	-125.27
864.244	-57.68
864.418	22.19
864.592	-18.77
864.766	57
864.939	-53.59
865.113	-119.12
865.287	112.3
865.461	-59.73
865.634	-29.01
865.808	-29.01
865.982	-65.88
866.156	-65.88
866.329	-139.6
866.503	-0.34
866.676	-10.58
866.85	-41.3
867.024	-145.75
867.197	44.71
867.371	16.04
867.544	-24.92
867.718	-166.23
867.891	71.34
868.065	-174.42
868.238	-45.4
868.412	83.63
868.585	-110.93
868.759	-98.64
868.932	-65.88
869.105	-43.35
869.279	-4.44
869.452	-115.03
869.625	-88.4
869.799	-20.82
869.972	-110.93
870.145	-26.96
870.319	67.24
870.492	-47.44
870.665	-16.73
870.838	-69.97
871.011	-143.7
871.185	-6.49
871.358	-117.08
871.531	-57.68
871.704	-76.12
871.877	11.95
872.05	-65.88
872.223	-129.36
872.396	-45.4
872.569	40.62
872.742	-129.36
872.915	-12.63
873.088	-96.6
873.261	-125.27
873.434	61.1
873.607	-88.4
873.78	97.96
873.953	-178.51
874.126	-121.17
874.299	48.81
874.471	-31.06
874.644	-55.64
874.817	-4.44
874.99	24.23
875.163	1.71
875.335	-31.06
875.508	-43.35
875.681	-47.44
875.853	-117.08
876.026	-104.79
876.199	108.2
876.371	-4.44
876.544	-61.78
876.717	22.19
876.889	-26.96
877.062	7.85
877.234	-115.03
877.407	-67.92
877.579	-53.59
877.752	36.52
877.924	32.43
878.097	-12.63
878.269	-41.3
878.442	-2.39
878.614	1.71
878.786	-55.64
878.959	-59.73
879.131	-20.82
879.303	-119.12
879.476	16.04
879.648	-6.49
879.82	-53.59
879.993	-76.12
880.165	-55.64
880.337	-106.84
880.509	-26.96
880.681	-194.9
880.854	-127.32
881.026	5.8
881.198	87.72
881.37	30.38
881.542	-69.97
881.714	-88.4
881.886	-45.4
882.058	-33.11
882.23	-16.73
882.402	-22.87
882.574	-0.34
882.746	-55.64
882.918	61.1
883.09	-14.68
883.262	-55.64
883.434	-20.82
883.606	-170.32
883.778	-86.36
883.95	7.85
884.122	-61.78
884.293	30.38
884.465	-55.64
884.637	26.28
884.809	-131.41
884.98	28.33
885.152	7.85
885.324	22.19
885.496	-106.84
885.667	-69.97
885.839	11.95
886.011	91.82
886.182	-2.39
886.354	32.43
886.525	-16.73
886.697	-45.4
886.869	-143.7
887.04	-80.21
887.212	73.39
887.383	79.53
887.555	-92.5
887.726	-33.11
887.897	-72.02
888.069	-20.82
888.24	-18.77
888.412	-47.44
888.583	11.95
888.754	-117.08
888.926	-186.71
889.097	-10.58
889.268	-106.84
889.44	-39.25
889.611	-160.08
889.782	-112.98
889.953	7.85
890.125	48.81
890.296	-94.55
890.467	-47.44
890.638	-92.5
890.809	-37.2
890.98	-121.17
891.151	-82.26
891.323	81.58
891.494	-26.96
891.665	40.62
891.836	-10.58
892.007	-26.96
892.178	28.33
892.349	-49.49
892.52	-26.96
892.691	28.33
892.862	-92.5
893.032	-106.84
893.203	-100.69
893.374	-24.92
893.545	-51.54
893.716	-31.06
893.887	-16.73
894.057	-8.53
894.228	-18.77
894.399	-51.54
894.57	22.19
894.74	-69.97
894.911	-14.68
895.082	-6.49
895.253	-82.26
895.423	-39.25
895.594	32.43
895.764	-29.01
895.935	-170.32
896.106	1.71
896.276	-45.4
896.447	1.71
896.617	-65.88
896.788	-88.4
896.958	-117.08
897.129	-61.78
897.299	-117.08
897.47	44.71
897.64	16.04
897.81	-8.53
897.981	-31.06
898.151	-102.74
898.322	42.67
898.492	24.23
898.662	-72.02
898.832	-78.16
899.003	-51.54
899.173	-14.68
899.343	-102.74
899.513	-65.88
