Data from USB4F104151__65__09-29-19-596.txt Node

Date: Wed Feb 26 09:29:19 EST 2025
User: louis
Spectrometer: USB4F10415
Trigger mode: 4
Integration Time (sec): 1.000000E-1
Scans to average: 1
Electric dark correction enabled: true
Nonlinearity correction enabled: false
Boxcar width: 0
XAxis mode: Wavelengths
Number of Pixels in Spectrum: 3648
>>>>>Begin Spectral Data<<<<<
178.204	-329.38
178.424	-329.38
178.644	-329.38
178.864	-409.25
179.084	-372.39
179.304	31.06
179.524	-67.24
179.744	-46.76
179.964	51.54
180.184	18.77
180.404	26.96
180.624	-30.38
180.844	-83.63
181.064	-26.28
181.283	106.84
181.503	-5.8
181.723	24.92
181.943	-100.01
182.163	143.7
182.383	18.77
182.602	47.44
182.822	100.69
183.042	24.92
183.262	-28.33
183.482	-22.19
183.701	-3.75
183.921	33.11
184.141	-95.91
184.361	67.92
184.58	82.26
184.8	4.44
185.02	55.64
185.239	82.26
185.459	24.92
185.679	84.31
185.898	-46.76
186.118	98.64
186.338	14.68
186.557	84.31
186.777	-46.76
186.997	-38.57
187.216	53.59
187.436	172.37
187.655	26.96
187.875	35.16
188.095	39.25
188.314	121.17
188.534	104.79
188.753	-65.19
188.973	35.16
189.192	84.31
189.412	29.01
189.631	-5.8
189.851	53.59
190.07	115.03
190.29	-28.33
190.509	14.68
190.729	16.73
190.948	108.88
191.168	153.94
191.387	59.73
191.607	14.68
191.826	39.25
192.045	-9.9
192.265	-32.43
192.484	65.88
192.704	-3.75
192.923	-179.88
193.142	125.27
193.362	102.74
193.581	121.17
193.8	-3.75
194.02	96.6
194.239	29.01
194.458	127.32
194.678	6.49
194.897	2.39
195.116	43.35
195.335	72.02
195.555	24.92
195.774	10.58
195.993	31.06
196.212	26.96
196.432	-40.62
196.651	-13.99
196.87	8.53
197.089	203.09
197.308	33.11
197.528	55.64
197.747	-3.75
197.966	37.2
198.185	125.27
198.404	-38.57
198.623	92.5
198.842	69.97
199.062	76.12
199.281	96.6
199.5	72.02
199.719	2.39
199.938	-46.76
200.157	104.79
200.376	-11.95
200.595	121.17
200.814	98.64
201.033	-5.8
201.252	125.27
201.471	88.4
201.69	90.45
201.909	-1.71
202.128	53.59
202.347	90.45
202.566	-34.47
202.785	-57
203.004	0.34
203.223	223.57
203.442	18.77
203.661	-13.99
203.879	16.73
204.098	125.27
204.317	-52.91
204.536	100.69
204.755	74.07
204.974	123.22
205.193	53.59
205.411	162.13
205.63	67.92
205.849	2.39
206.068	-32.43
206.287	2.39
206.505	49.49
206.724	6.49
206.943	31.06
207.162	-75.43
207.381	96.6
207.599	57.68
207.818	16.73
208.037	39.25
208.255	12.63
208.474	31.06
208.693	47.44
208.911	-1.71
209.13	80.21
209.349	98.64
209.567	49.49
209.786	22.87
210.005	67.92
210.223	-67.24
210.442	-85.67
210.661	59.73
210.879	-5.8
211.098	43.35
211.316	14.68
211.535	84.31
211.753	-30.38
211.972	49.49
212.191	22.87
212.409	10.58
212.628	80.21
212.846	-22.19
213.065	92.5
213.283	96.6
213.502	-38.57
213.72	-34.47
213.938	57.68
214.157	8.53
214.375	139.6
214.594	115.03
214.812	18.77
215.031	-71.34
215.249	-22.19
215.467	39.25
215.686	-42.67
215.904	8.53
216.122	20.82
216.341	129.36
216.559	61.78
216.778	100.69
216.996	84.31
217.214	-44.71
217.432	-79.53
217.651	-79.53
217.869	24.92
218.087	10.58
218.306	12.63
218.524	2.39
218.742	86.36
218.96	74.07
219.179	-18.09
219.397	-40.62
219.615	162.13
219.833	112.98
220.051	-83.63
220.27	137.56
220.488	160.08
220.706	76.12
220.924	-26.28
221.142	8.53
221.36	24.92
221.578	12.63
221.796	45.4
222.015	-18.09
222.233	43.35
222.451	158.03
222.669	-83.63
222.887	26.96
223.105	-42.67
223.323	47.44
223.541	43.35
223.759	65.88
223.977	-5.8
224.195	131.41
224.413	67.92
224.631	92.5
224.849	39.25
225.067	227.67
225.285	-83.63
225.503	-38.57
225.721	-110.25
225.939	-22.19
226.157	14.68
226.375	153.94
226.592	-18.09
226.81	-20.14
227.028	82.26
227.246	84.31
227.464	26.96
227.682	18.77
227.9	172.37
228.117	69.97
228.335	4.44
228.553	-34.47
228.771	14.68
228.989	31.06
229.206	31.06
229.424	-83.63
229.642	80.21
229.86	-48.81
230.077	80.21
230.295	-16.04
230.513	112.98
230.731	84.31
230.948	119.12
231.166	108.88
231.384	59.73
231.601	-26.28
231.819	108.88
232.037	26.96
232.254	-44.71
232.472	10.58
232.689	43.35
232.907	8.53
233.125	-1.71
233.342	16.73
233.56	-26.28
233.777	-13.99
233.995	8.53
234.213	115.03
234.43	10.58
234.648	-24.23
234.865	2.39
235.083	33.11
235.3	31.06
235.518	98.64
235.735	84.31
235.953	31.06
236.17	16.73
236.388	-28.33
236.605	26.96
236.822	35.16
237.04	153.94
237.257	33.11
237.475	-71.34
237.692	53.59
237.909	39.25
238.127	74.07
238.344	45.4
238.562	2.39
238.779	-106.15
238.996	-132.78
239.214	63.83
239.431	84.31
239.648	12.63
239.865	88.4
240.083	43.35
240.3	18.77
240.517	-57
240.735	-7.85
240.952	123.22
241.169	14.68
241.386	65.88
241.603	26.96
241.821	-87.72
242.038	24.92
242.255	84.31
242.472	2.39
242.689	-11.95
242.907	65.88
243.124	59.73
243.341	-69.29
243.558	74.07
243.775	-38.57
243.992	-81.58
244.209	90.45
244.426	186.71
244.643	74.07
244.86	-9.9
245.078	84.31
245.295	51.54
245.512	31.06
245.729	-32.43
245.946	41.3
246.163	16.73
246.38	0.34
246.597	39.25
246.814	-42.67
247.031	10.58
247.248	-13.99
247.464	102.74
247.681	6.49
247.898	16.73
248.115	61.78
248.332	-5.8
248.549	108.88
248.766	96.6
248.983	-16.04
249.2	47.44
249.417	43.35
249.633	18.77
249.85	78.16
250.067	-26.28
250.284	16.73
250.501	80.21
250.717	53.59
250.934	-54.95
251.151	-9.9
251.368	-42.67
251.585	2.39
251.801	-9.9
252.018	-85.67
252.235	-5.8
252.451	-81.58
252.668	0.34
252.885	96.6
253.102	49.49
253.318	-73.39
253.535	-38.57
253.752	-75.43
253.968	-81.58
254.185	-67.24
254.401	31.06
254.618	110.93
254.835	2.39
255.051	96.6
255.268	65.88
255.484	39.25
255.701	-26.28
255.917	65.88
256.134	-42.67
256.351	-7.85
256.567	-50.86
256.784	-1.71
257	-54.95
257.217	26.96
257.433	43.35
257.65	22.87
257.866	115.03
258.082	-75.43
258.299	31.06
258.515	-18.09
258.732	-54.95
258.948	10.58
259.165	84.31
259.381	-5.8
259.597	55.64
259.814	14.68
260.03	12.63
260.246	76.12
260.463	41.3
260.679	67.92
260.895	2.39
261.112	8.53
261.328	12.63
261.544	-97.96
261.761	92.5
261.977	10.58
262.193	-34.47
262.409	63.83
262.626	151.89
262.842	80.21
263.058	-54.95
263.274	-11.95
263.49	61.78
263.707	16.73
263.923	84.31
264.139	-16.04
264.355	4.44
264.571	96.6
264.787	16.73
265.004	33.11
265.22	47.44
265.436	-18.09
265.652	-13.99
265.868	18.77
266.084	0.34
266.3	-30.38
266.516	-97.96
266.732	8.53
266.948	-46.76
267.164	-7.85
267.38	53.59
267.596	-42.67
267.812	219.47
268.028	43.35
268.244	-63.15
268.46	47.44
268.676	-59.05
268.892	10.58
269.108	45.4
269.324	18.77
269.54	-63.15
269.756	26.96
269.972	-67.24
270.188	41.3
270.403	4.44
270.619	-40.62
270.835	84.31
271.051	-22.19
271.267	-57
271.483	-40.62
271.698	72.02
271.914	49.49
272.13	59.73
272.346	20.82
272.562	12.63
272.777	98.64
272.993	-24.23
273.209	-30.38
273.425	96.6
273.64	8.53
273.856	65.88
274.072	8.53
274.287	-22.19
274.503	59.73
274.719	82.26
274.934	-83.63
275.15	-67.24
275.366	26.96
275.581	-9.9
275.797	76.12
276.012	-22.19
276.228	31.06
276.444	0.34
276.659	100.69
276.875	-71.34
277.09	26.96
277.306	-30.38
277.521	63.83
277.737	76.12
277.952	0.34
278.168	4.44
278.383	6.49
278.599	35.16
278.814	26.96
279.03	55.64
279.245	119.12
279.461	67.92
279.676	92.5
279.892	-65.19
280.107	-38.57
280.322	-75.43
280.538	82.26
280.753	-52.91
280.969	20.82
281.184	-16.04
281.399	72.02
281.615	31.06
281.83	55.64
282.045	-89.77
282.26	-9.9
282.476	35.16
282.691	18.77
282.906	-38.57
283.122	100.69
283.337	47.44
283.552	65.88
283.767	-24.23
283.983	35.16
284.198	2.39
284.413	98.64
284.628	-26.28
284.843	133.46
285.058	37.2
285.274	6.49
285.489	-13.99
285.704	147.8
285.919	20.82
286.134	10.58
286.349	29.01
286.564	-34.47
286.779	39.25
286.995	-9.9
287.21	-114.34
287.425	-9.9
287.64	18.77
287.855	51.54
288.07	-24.23
288.285	-34.47
288.5	10.58
288.715	6.49
288.93	12.63
289.145	-42.67
289.36	69.97
289.575	-69.29
289.79	90.45
290.004	-48.81
290.219	127.32
290.434	-100.01
290.649	-75.43
290.864	0.34
291.079	-9.9
291.294	35.16
291.509	43.35
291.724	43.35
291.938	31.06
292.153	45.4
292.368	-20.14
292.583	74.07
292.798	47.44
293.012	55.64
293.227	65.88
293.442	-11.95
293.657	90.45
293.871	92.5
294.086	43.35
294.301	141.65
294.516	127.32
294.73	0.34
294.945	-40.62
295.16	22.87
295.374	35.16
295.589	80.21
295.804	-50.86
296.018	-24.23
296.233	18.77
296.447	-34.47
296.662	12.63
296.877	59.73
297.091	80.21
297.306	69.97
297.52	4.44
297.735	6.49
297.949	51.54
298.164	2.39
298.378	-63.15
298.593	-52.91
298.807	-36.52
299.022	2.39
299.236	100.69
299.451	20.82
299.665	31.06
299.88	-26.28
300.094	74.07
300.309	31.06
300.523	51.54
300.737	-32.43
300.952	80.21
301.166	51.54
301.381	-112.3
301.595	-26.28
301.809	31.06
302.024	-48.81
302.238	26.96
302.452	131.41
302.667	-5.8
302.881	72.02
303.095	67.92
303.309	12.63
303.524	-30.38
303.738	-13.99
303.952	10.58
304.166	92.5
304.381	-159.4
304.595	164.18
304.809	33.11
305.023	49.49
305.237	-13.99
305.452	-1.71
305.666	108.88
305.88	33.11
306.094	84.31
306.308	-9.9
306.522	37.2
306.736	8.53
306.95	92.5
307.164	-11.95
307.379	26.96
307.593	115.03
307.807	127.32
308.021	55.64
308.235	-63.15
308.449	-114.34
308.663	2.39
308.877	178.51
309.091	26.96
309.305	37.2
309.519	-89.77
309.733	82.26
309.947	-71.34
310.161	26.96
310.374	39.25
310.588	94.55
310.802	-3.75
311.016	-44.71
311.23	100.69
311.444	-38.57
311.658	12.63
311.872	94.55
312.085	72.02
312.299	53.59
312.513	57.68
312.727	67.92
312.941	-28.33
313.154	76.12
313.368	0.34
313.582	35.16
313.796	59.73
314.009	-22.19
314.223	108.88
314.437	14.68
314.651	57.68
314.864	-89.77
315.078	2.39
315.292	-65.19
315.505	-11.95
315.719	53.59
315.933	108.88
316.146	18.77
316.36	-71.34
316.573	92.5
316.787	16.73
317.001	-7.85
317.214	-83.63
317.428	57.68
317.641	4.44
317.855	-24.23
318.068	-46.76
318.282	53.59
318.495	139.6
318.709	108.88
318.922	-5.8
319.136	86.36
319.349	127.32
319.563	-50.86
319.776	63.83
319.99	-67.24
320.203	43.35
320.417	-40.62
320.63	76.12
320.843	117.08
321.057	67.92
321.27	37.2
321.483	47.44
321.697	100.69
321.91	49.49
322.124	-1.71
322.337	33.11
322.55	-50.86
322.763	37.2
322.977	-81.58
323.19	8.53
323.403	16.73
323.617	67.92
323.83	76.12
324.043	14.68
324.256	39.25
324.469	-95.91
324.683	90.45
324.896	-18.09
325.109	55.64
325.322	-67.24
325.535	78.16
325.748	14.68
325.962	-3.75
326.175	-13.99
326.388	53.59
326.601	55.64
326.814	10.58
327.027	37.2
327.24	164.18
327.453	-71.34
327.666	57.68
327.879	137.56
328.092	-36.52
328.305	18.77
328.518	-7.85
328.731	10.58
328.944	104.79
329.157	8.53
329.37	45.4
329.583	135.51
329.796	119.12
330.009	22.87
330.222	26.96
330.435	57.68
330.648	12.63
330.861	33.11
331.073	-34.47
331.286	84.31
331.499	72.02
331.712	-79.53
331.925	37.2
332.138	20.82
332.35	84.31
332.563	-11.95
332.776	149.84
332.989	-34.47
333.202	-7.85
333.414	-5.8
333.627	59.73
333.84	-28.33
334.053	117.08
334.265	-30.38
334.478	33.11
334.691	33.11
334.903	45.4
335.116	-73.39
335.329	-20.14
335.541	10.58
335.754	45.4
335.966	-30.38
336.179	39.25
336.392	-52.91
336.604	-36.52
336.817	108.88
337.029	8.53
337.242	-34.47
337.454	39.25
337.667	-7.85
337.88	2.39
338.092	125.27
338.305	18.77
338.517	-54.95
338.729	20.82
338.942	131.41
339.154	41.3
339.367	-40.62
339.579	49.49
339.792	-38.57
340.004	72.02
340.217	6.49
340.429	78.16
340.641	-73.39
340.854	-24.23
341.066	-7.85
341.278	127.32
341.491	184.66
341.703	72.02
341.915	-11.95
342.128	51.54
342.34	35.16
342.552	-7.85
342.764	-16.04
342.977	-18.09
343.189	63.83
343.401	26.96
343.613	-108.2
343.826	-16.04
344.038	26.96
344.25	-22.19
344.462	-38.57
344.674	12.63
344.886	24.92
345.099	14.68
345.311	67.92
345.523	31.06
345.735	-100.01
345.947	67.92
346.159	72.02
346.371	63.83
346.583	-71.34
346.795	164.18
347.007	51.54
347.219	18.77
347.431	-1.71
347.643	92.5
347.855	-20.14
348.067	125.27
348.279	-65.19
348.491	39.25
348.703	84.31
348.915	49.49
349.127	35.16
349.339	2.39
349.551	-71.34
349.763	94.55
349.975	-5.8
350.187	80.21
350.399	158.03
350.61	12.63
350.822	-5.8
351.034	22.87
351.246	2.39
351.458	-5.8
351.669	123.22
351.881	131.41
352.093	88.4
352.305	67.92
352.517	65.88
352.728	43.35
352.94	43.35
353.152	57.68
353.363	-11.95
353.575	53.59
353.787	147.8
353.999	14.68
354.21	76.12
354.422	31.06
354.633	-24.23
354.845	-3.75
355.057	-9.9
355.268	-30.38
355.48	63.83
355.692	29.01
355.903	51.54
356.115	-9.9
356.326	-69.29
356.538	96.6
356.749	10.58
356.961	117.08
357.172	-13.99
357.384	-57
357.595	131.41
357.807	8.53
358.018	-71.34
358.23	-28.33
358.441	98.64
358.653	55.64
358.864	67.92
359.075	-36.52
359.287	45.4
359.498	51.54
359.709	2.39
359.921	41.3
360.132	14.68
360.344	80.21
360.555	20.82
360.766	20.82
360.977	-16.04
361.189	119.12
361.4	-48.81
361.611	29.01
361.823	-46.76
362.034	24.92
362.245	-38.57
362.456	35.16
362.667	31.06
362.879	-69.29
363.09	26.96
363.301	-11.95
363.512	-95.91
363.723	-50.86
363.935	-46.76
364.146	51.54
364.357	-40.62
364.568	8.53
364.779	-116.39
364.99	94.55
365.201	-67.24
365.412	76.12
365.623	-108.2
365.834	-108.2
366.045	2.39
366.256	22.87
366.467	74.07
366.678	10.58
366.889	-3.75
367.1	6.49
367.311	82.26
367.522	-1.71
367.733	-22.19
367.944	74.07
368.155	45.4
368.366	176.47
368.577	37.2
368.788	31.06
368.999	-30.38
369.209	-28.33
369.42	186.71
369.631	115.03
369.842	76.12
370.053	37.2
370.264	31.06
370.474	-54.95
370.685	76.12
370.896	-34.47
371.107	67.92
371.317	76.12
371.528	-34.47
371.739	137.56
371.95	67.92
372.16	22.87
372.371	-24.23
372.582	61.78
372.792	43.35
373.003	94.55
373.214	43.35
373.424	63.83
373.635	-26.28
373.846	51.54
374.056	-3.75
374.267	63.83
374.477	45.4
374.688	8.53
374.898	-26.28
375.109	-7.85
375.319	26.96
375.53	86.36
375.74	149.84
375.951	-54.95
376.161	-57
376.372	74.07
376.582	-7.85
376.793	76.12
377.003	-22.19
377.214	-40.62
377.424	106.84
377.635	-30.38
377.845	2.39
378.055	72.02
378.266	-50.86
378.476	-9.9
378.686	94.55
378.897	12.63
379.107	67.92
379.317	96.6
379.528	-52.91
379.738	78.16
379.948	-97.96
380.158	43.35
380.369	2.39
380.579	26.96
380.789	-30.38
380.999	139.6
381.21	104.79
381.42	112.98
381.63	-26.28
381.84	29.01
382.05	76.12
382.261	51.54
382.471	35.16
382.681	-46.76
382.891	119.12
383.101	14.68
383.311	-42.67
383.521	22.87
383.731	53.59
383.941	65.88
384.151	18.77
384.361	-7.85
384.571	-32.43
384.781	-36.52
384.991	160.08
385.201	170.32
385.411	43.35
385.621	-1.71
385.831	49.49
386.041	-1.71
386.251	-26.28
386.461	72.02
386.671	82.26
386.881	59.73
387.091	-9.9
387.301	108.88
387.511	22.87
387.72	2.39
387.93	49.49
388.14	-71.34
388.35	-9.9
388.56	57.68
388.769	108.88
388.979	-20.14
389.189	-63.15
389.399	31.06
389.609	82.26
389.818	24.92
390.028	76.12
390.238	72.02
390.447	8.53
390.657	-26.28
390.867	-5.8
391.076	-118.44
391.286	-16.04
391.496	29.01
391.705	-16.04
391.915	51.54
392.125	104.79
392.334	-44.71
392.544	139.6
392.753	-46.76
392.963	33.11
393.172	10.58
393.382	-71.34
393.591	151.89
393.801	-18.09
394.01	115.03
394.22	86.36
394.429	-59.05
394.639	-54.95
394.848	108.88
395.058	-13.99
395.267	-63.15
395.477	53.59
395.686	59.73
395.895	104.79
396.105	223.57
396.314	10.58
396.524	12.63
396.733	24.92
396.942	137.56
397.152	63.83
397.361	74.07
397.57	-26.28
397.78	63.83
397.989	53.59
398.198	170.32
398.407	-38.57
398.617	37.2
398.826	14.68
399.035	39.25
399.244	92.5
399.453	-28.33
399.663	35.16
399.872	80.21
400.081	-18.09
400.29	88.4
400.499	-42.67
400.708	12.63
400.917	0.34
401.127	-61.1
401.336	16.73
401.545	151.89
401.754	78.16
401.963	41.3
402.172	-20.14
402.381	-52.91
402.59	31.06
402.799	-20.14
403.008	98.64
403.217	31.06
403.426	57.68
403.635	-36.52
403.844	24.92
404.053	26.96
404.262	14.68
404.471	80.21
404.68	-42.67
404.888	72.02
405.097	2.39
405.306	45.4
405.515	115.03
405.724	86.36
405.933	63.83
406.142	26.96
406.35	76.12
406.559	72.02
406.768	65.88
406.977	96.6
407.185	-1.71
407.394	61.78
407.603	-122.54
407.812	59.73
408.02	123.22
408.229	26.96
408.438	31.06
408.646	-69.29
408.855	67.92
409.064	74.07
409.272	26.96
409.481	67.92
409.69	-46.76
409.898	-32.43
410.107	57.68
410.315	41.3
410.524	29.01
410.733	82.26
410.941	18.77
411.15	94.55
411.358	33.11
411.567	86.36
411.775	16.73
411.984	10.58
412.192	41.3
412.401	-13.99
412.609	196.95
412.818	133.46
413.026	106.84
413.234	2.39
413.443	-18.09
413.651	-73.39
413.86	18.77
414.068	100.69
414.276	186.71
414.485	41.3
414.693	141.65
414.901	172.37
415.11	8.53
415.318	33.11
415.526	-50.86
415.734	100.69
415.943	0.34
416.151	135.51
416.359	22.87
416.567	39.25
416.776	59.73
416.984	65.88
417.192	63.83
417.4	-61.1
417.608	41.3
417.817	-13.99
418.025	98.64
418.233	133.46
418.441	-57
418.649	-40.62
418.857	67.92
419.065	190.8
419.273	-50.86
419.481	33.11
419.689	33.11
419.897	-18.09
420.105	-28.33
420.313	67.92
420.521	123.22
420.729	119.12
420.937	33.11
421.145	-73.39
421.353	74.07
421.561	90.45
421.769	-26.28
421.977	-30.38
422.185	104.79
422.393	26.96
422.601	92.5
422.809	69.97
423.017	18.77
423.224	10.58
423.432	92.5
423.64	-32.43
423.848	53.59
424.056	-22.19
424.263	67.92
424.471	-7.85
424.679	100.69
424.887	-13.99
425.094	35.16
425.302	18.77
425.51	-13.99
425.718	96.6
425.925	108.88
426.133	-42.67
426.341	188.75
426.548	76.12
426.756	76.12
426.964	74.07
427.171	-13.99
427.379	-5.8
427.586	59.73
427.794	51.54
428.001	110.93
428.209	35.16
428.417	100.69
428.624	170.32
428.832	141.65
429.039	-11.95
429.247	-36.52
429.454	26.96
429.662	129.36
429.869	119.12
430.076	63.83
430.284	115.03
430.491	268.63
430.699	143.7
430.906	125.27
431.114	127.32
431.321	151.89
431.528	80.21
431.736	100.69
431.943	137.56
432.15	82.26
432.358	117.08
432.565	223.57
432.772	-28.33
432.979	155.99
433.187	57.68
433.394	104.79
433.601	84.31
433.808	213.33
434.016	268.63
434.223	194.9
434.43	149.84
434.637	155.99
434.844	291.15
435.052	78.16
435.259	225.62
435.466	229.71
435.673	190.8
435.88	203.09
436.087	268.63
436.294	280.91
436.501	309.58
436.708	239.95
436.915	264.53
437.122	278.87
437.329	180.56
437.537	272.72
437.743	268.63
437.95	432.46
438.157	282.96
438.364	330.06
438.571	311.63
438.778	352.59
438.985	305.49
439.192	325.97
439.399	346.45
439.606	414.03
439.813	420.17
440.02	522.57
440.227	506.19
440.433	485.71
440.64	467.28
440.847	371.02
441.054	461.13
441.261	639.31
441.467	606.54
441.674	514.38
441.881	633.16
442.088	491.85
442.294	627.02
442.501	649.55
442.708	747.85
442.914	684.36
443.121	649.55
443.328	710.99
443.534	719.18
443.741	723.27
443.948	678.22
444.154	780.62
444.361	862.54
444.568	784.71
444.774	880.97
444.981	776.52
445.187	977.22
445.394	958.79
445.6	872.78
445.807	956.74
446.013	1057.09
446.22	1048.9
446.426	1116.48
446.633	1210.69
446.839	1376.58
447.046	1163.59
447.252	1462.59
447.459	1345.86
447.665	1458.5
447.871	1505.6
448.078	1704.25
448.284	1538.37
448.491	1603.9
448.697	1681.72
448.903	1706.3
449.11	1859.9
449.316	1915.19
449.522	1898.81
449.728	2064.69
449.935	2046.26
450.141	2079.03
450.347	2445.62
450.553	2214.2
450.76	2339.12
450.966	2418.99
451.172	2343.22
451.378	2578.73
451.584	2730.28
451.791	2828.59
451.997	2836.78
452.203	3012.9
452.409	3131.69
452.615	3115.3
452.821	3074.34
453.027	3027.24
453.233	3559.71
453.44	3451.17
453.646	3574.05
453.852	3674.4
454.058	3936.54
454.264	4194.58
454.47	4294.93
454.676	4319.51
454.882	4655.37
455.088	4702.48
455.294	4739.34
455.5	4964.62
455.705	5396.74
455.911	5327.11
456.117	5536
456.323	5585.15
456.529	5638.4
456.735	6172.92
456.941	6433.01
457.147	6639.86
457.352	6785.26
457.558	6887.66
457.764	7481.57
457.97	7536.87
458.176	7831.77
458.381	8169.69
458.587	8483.03
458.793	8870.09
458.999	8763.6
459.204	9877.69
459.41	10078.4
459.616	10160.31
459.821	10598.58
460.027	10999.98
460.233	11784.35
460.438	11733.15
460.644	12339.35
460.85	12484.76
461.055	13119.63
461.261	13424.78
461.466	13250.7
461.672	13635.72
461.878	15263.85
462.083	15229.04
462.289	15384.68
462.494	15982.69
462.7	16111.71
462.905	16334.94
463.111	17608.78
463.316	18292.8
463.522	18653.24
463.727	19312.69
463.932	20039.72
464.138	20815.9
464.343	21727.24
464.549	21934.09
464.754	23453.68
464.959	23883.75
465.165	24465.38
465.37	24381.41
465.575	24279.01
465.781	26234.82
465.986	27109.3
466.191	26554.3
466.397	26677.18
466.602	26513.34
466.807	27844.52
467.012	28266.41
467.218	28497.83
467.423	28538.79
467.628	29411.22
467.833	30885.76
468.038	30578.56
468.244	29941.64
468.449	31461.24
468.654	30711.68
468.859	30801.79
469.064	31321.98
469.269	30373.77
469.474	30670.72
469.679	31688.56
469.885	30779.26
470.09	31283.06
470.295	31201.15
470.5	30799.74
470.705	30842.75
470.91	29876.11
471.115	29749.14
471.32	30242.7
471.525	30078.86
471.73	29183.9
471.935	28868.51
472.139	28028.84
472.344	27869.1
472.549	27828.14
472.754	27414.45
472.959	26806.2
473.164	25849.8
473.369	25503.7
473.574	26363.84
473.778	25546.7
473.983	25321.43
474.188	24930.26
474.393	23644.14
474.598	23683.05
474.802	23037.94
475.007	22962.17
475.212	22519.81
475.417	21405.71
475.621	21561.36
475.826	21397.52
476.031	20756.5
476.235	20428.83
476.44	20281.38
476.645	19679.27
476.849	19605.55
477.054	19431.47
477.259	18765.88
477.463	18686.01
477.668	17989.7
477.872	18118.72
478.077	17666.12
478.282	17109.07
478.486	17279.05
478.691	16785.49
478.895	16509.02
479.1	16650.33
479.304	16420.95
479.509	15800.42
479.713	16201.82
479.918	15759.46
480.122	15229.04
480.326	15411.31
480.531	15343.72
480.735	15118.45
480.94	14819.44
481.144	15405.16
481.348	14612.6
481.553	14870.64
481.757	14229.63
481.961	14467.19
482.166	14268.54
482.37	14379.13
482.574	13889.67
482.778	13942.91
482.983	14002.3
483.187	13785.22
483.391	13668.48
483.595	13557.89
483.8	13486.22
484.004	13318.28
484.208	13119.63
484.412	13248.65
484.616	12646.55
484.821	12826.77
485.025	12501.14
485.229	12523.67
485.433	12196
485.637	12200.09
485.841	11876.51
486.045	11925.66
486.249	11856.03
486.453	11620.52
486.657	11255.98
486.861	11354.28
487.065	10705.07
487.269	10827.95
487.473	10586.29
487.677	10557.62
487.881	10727.6
488.085	10389.69
488.289	9978.05
488.493	9849.02
488.697	9769.15
488.901	9525.44
489.105	9271.5
489.309	9019.6
489.512	9201.86
489.716	8976.59
489.92	8667.35
490.124	8581.33
490.328	8321.24
490.531	8143.07
490.735	8218.84
490.939	8061.15
491.143	7821.53
491.346	7635.17
491.55	7485.67
491.754	7311.59
491.958	7334.12
492.161	7170.28
492.365	6938.86
492.569	6785.26
492.772	6732.01
492.976	6770.93
493.18	6492.4
493.383	6676.72
493.587	6385.91
493.79	6281.46
493.994	6031.61
494.197	6037.75
494.401	6013.18
494.605	5818.62
494.808	5968.12
495.012	5853.44
495.215	5812.48
495.419	5816.57
495.622	5665.02
495.825	5531.9
496.029	5374.21
496.232	5433.6
496.436	5343.49
496.639	5368.07
496.843	5503.23
497.046	5265.67
497.249	5402.88
497.453	5277.96
497.656	5353.73
497.859	5456.13
498.063	5333.25
498.266	5419.27
498.469	5275.91
498.673	5245.19
498.876	5261.57
499.079	5150.98
499.282	5202.18
499.485	5435.65
499.689	5396.74
499.892	5343.49
500.095	5261.57
500.298	5349.64
500.501	5191.94
500.705	5449.99
500.908	5275.91
501.111	5380.36
501.314	5531.9
501.517	5542.14
501.72	5499.14
501.923	5449.99
502.126	5556.48
502.329	5765.37
502.532	5595.39
502.735	5669.12
502.938	5865.72
503.141	5781.76
503.344	5660.93
503.547	5966.07
503.75	5847.29
503.953	5794.04
504.156	6281.46
504.359	6142.2
504.562	6146.3
504.765	6318.32
504.968	6267.13
505.17	6480.11
505.373	6367.48
505.576	6600.94
505.779	6582.51
505.982	6703.34
506.185	6764.78
506.387	6869.23
506.59	6910.19
506.793	7196.9
506.996	7194.86
507.198	7506.15
507.401	7538.91
507.604	7489.76
507.807	7629.02
508.009	7792.86
508.212	8030.43
508.415	8091.87
508.617	8337.62
508.82	8417.49
509.022	8478.93
509.225	8980.68
509.428	8777.94
509.63	8931.53
509.833	9058.51
510.035	9498.82
510.238	9543.88
510.44	9666.75
510.643	9853.12
510.845	10154.17
511.048	10367.16
511.25	10565.81
511.453	10852.53
511.655	11131.05
511.858	11282.6
512.06	11479.21
512.262	11468.97
512.465	12007.58
512.667	12101.79
512.87	12488.85
513.072	12689.56
513.274	12996.75
513.477	13289.61
513.679	13729.92
513.881	13979.78
514.084	14106.75
514.286	14372.99
514.488	14622.84
514.69	15427.69
514.893	15548.52
515.095	15706.21
515.297	16058.46
515.499	16394.33
515.701	16652.38
515.904	17266.77
516.106	17487.95
516.308	17782.85
516.51	18335.81
516.712	18729.02
516.914	19001.4
517.116	19462.19
517.318	19722.28
517.52	20074.53
517.722	20156.45
517.925	20561.95
518.127	21188.63
518.329	21456.91
518.531	21688.33
518.733	22095.88
518.935	22161.41
519.136	22763.51
519.338	23097.33
519.54	23881.7
519.742	24145.89
519.944	24487.9
520.146	25167.83
520.348	25206.74
520.55	25454.54
520.752	25845.71
520.954	26662.85
521.155	26329.03
521.357	26804.16
521.559	27359.16
521.761	27707.31
521.963	28108.71
522.164	28315.56
522.366	28383.14
522.568	28788.64
522.77	29321.11
522.971	29294.49
523.173	29237.14
523.375	29792.14
523.576	29886.35
523.778	29484.95
523.98	30205.83
524.181	30508.93
524.383	30553.99
524.584	30900.09
524.786	30596.99
524.988	30621.57
525.189	31123.32
525.391	31141.75
525.592	31455.09
525.794	31098.75
525.995	31281.02
526.197	31444.85
526.398	31315.83
526.6	30830.46
526.801	31031.16
527.003	31289.21
527.204	31063.93
527.406	31305.59
527.607	30932.86
527.808	30936.96
528.01	30384.01
528.211	30234.5
528.412	30709.63
528.614	30248.84
528.815	30121.87
529.016	30232.46
529.218	30111.63
529.419	29532.05
529.62	29220.76
529.822	29056.92
530.023	28886.94
530.224	28729.25
530.425	28262.31
530.626	27801.52
530.828	27586.48
531.029	28045.23
531.23	27191.22
531.431	26988.47
531.632	27125.69
531.833	26451.91
532.035	26310.6
532.236	25864.14
532.437	25894.86
532.638	25188.31
532.839	25241.56
533.04	24766.43
533.241	24184.8
533.442	24446.94
533.643	23691.24
533.844	23701.48
534.045	23281.65
534.246	22937.59
534.447	22611.96
534.648	21954.57
534.849	22016.01
535.05	21598.22
535.251	21616.65
535.451	20836.38
535.652	20836.38
535.853	20568.09
536.054	20185.12
536.255	20142.11
536.456	19703.85
536.657	19705.9
536.857	19392.56
537.058	19122.23
537.259	18845.75
537.46	18622.52
537.66	18198.59
537.861	18200.64
538.062	17821.77
538.263	17420.36
538.463	17346.64
538.664	17121.36
538.865	16943.19
539.065	16881.75
539.266	16416.86
539.466	16334.94
539.667	15911.01
539.868	16130.14
540.068	16191.58
540.269	15687.78
540.469	15718.5
540.67	15130.73
540.87	15132.78
541.071	14659.7
541.271	14907.51
541.472	14336.12
541.672	14190.72
541.873	14063.74
542.073	13881.47
542.274	14065.79
542.474	13828.23
542.675	13852.8
542.875	13611.14
543.075	13314.19
543.276	12908.69
543.476	13144.2
543.676	12818.58
543.877	12941.46
544.077	12390.55
544.277	12327.07
544.478	12282.01
544.678	12038.3
544.878	11876.51
545.078	11708.58
545.279	11466.92
545.479	11624.61
545.679	11610.28
545.879	11368.62
546.079	11057.32
546.28	11124.91
546.48	10860.72
546.68	10846.38
546.88	10918.06
547.08	10688.69
547.28	10657.97
547.48	10141.88
547.68	10262.71
547.88	10062.01
548.081	10125.5
548.281	9777.34
548.481	9642.18
548.681	9754.82
548.881	9574.6
549.081	9224.39
549.28	9283.78
549.48	9169.1
549.68	9044.17
549.88	8943.82
550.08	8863.95
550.28	8560.85
550.48	8706.26
550.68	8554.71
550.88	8136.92
551.08	8274.14
551.279	8159.45
551.479	8038.62
551.679	7858.4
551.879	7692.51
552.079	7766.24
552.278	7643.36
552.478	7471.33
552.678	7366.88
552.878	7266.53
553.077	7061.74
553.277	6820.08
553.477	6830.32
553.676	6752.49
553.876	6564.08
554.076	6580.46
554.275	6484.21
554.475	6291.7
554.674	6244.6
554.874	6148.34
555.074	5964.03
555.273	5931.26
555.473	5794.04
555.672	5753.09
555.872	5689.6
556.071	5687.55
556.271	5605.63
556.47	5445.89
556.67	5230.85
556.869	5243.14
557.068	5193.99
557.268	4956.43
557.467	5056.78
557.667	5038.34
557.866	4823.31
558.065	4653.33
558.265	4520.21
558.464	4573.46
558.663	4647.18
558.863	4471.06
559.062	4442.39
559.261	4335.89
559.461	4278.55
559.66	4045.08
559.859	4075.8
560.058	3948.83
560.258	3899.67
560.457	3957.02
560.656	4024.6
560.855	3602.72
561.054	3746.08
561.253	3553.57
561.453	3711.26
561.652	3567.9
561.851	3633.44
562.05	3399.97
562.249	3381.54
562.448	3285.28
562.647	3213.6
562.846	3043.62
563.045	3262.76
563.244	3088.68
563.443	3107.11
563.642	3115.3
563.841	3080.49
564.04	3060.01
564.239	2844.97
564.438	2834.73
564.637	2677.04
564.836	2769.2
565.035	2713.9
565.234	2799.91
565.432	2595.12
565.631	2599.21
565.83	2703.66
566.029	2535.73
566.228	2472.24
566.427	2548.01
566.625	2476.34
566.824	2464.05
567.023	2367.79
567.222	2361.65
567.42	2122.04
567.619	2277.68
567.818	2201.91
568.016	2316.59
568.215	2119.99
568.414	2134.32
568.612	2160.95
568.811	2079.03
569.01	1866.04
569.208	2040.12
569.407	1982.78
569.605	1820.99
569.804	1911.1
570.002	1800.51
570.201	1843.51
570.4	1784.12
570.598	1710.4
570.797	1802.55
570.995	1683.77
571.193	1581.37
571.392	1665.34
571.59	1567.04
571.789	1634.62
571.987	1747.26
572.186	1624.38
572.384	1603.9
572.582	1534.27
572.781	1567.04
572.979	1481.02
573.177	1476.93
573.376	1427.78
573.574	1456.45
573.772	1333.57
573.971	1259.84
574.169	1337.66
574.367	1302.85
574.565	1229.12
574.763	1345.86
574.962	1352
575.16	1327.43
575.358	1294.66
575.556	1325.38
575.754	1204.55
575.952	1112.39
576.151	1243.46
576.349	1194.31
576.547	952.65
576.745	1141.06
576.943	1085.76
577.141	1083.72
577.339	975.17
577.537	1030.47
577.735	1118.53
577.933	1036.61
578.131	901.45
578.329	1022.28
578.527	852.3
578.725	993.61
578.923	883.02
579.121	932.17
579.319	844.1
579.516	874.82
579.714	973.13
579.912	731.47
580.11	749.9
580.308	747.85
580.506	706.89
580.704	684.36
580.901	739.66
581.099	915.78
581.297	717.13
581.495	745.8
581.692	756.04
581.89	807.24
582.088	729.42
582.285	747.85
582.483	717.13
582.681	614.73
582.878	600.4
583.076	674.12
583.274	616.78
583.471	670.03
583.669	710.99
583.866	483.66
584.064	657.74
584.262	477.52
584.459	577.87
584.657	586.06
584.854	655.69
585.052	559.44
585.249	624.97
585.447	508.24
585.644	442.7
585.841	592.2
586.039	493.9
586.236	688.46
586.434	473.42
586.631	434.51
586.828	457.04
587.026	563.53
587.223	469.33
587.42	530.77
587.618	454.99
587.815	555.34
588.012	424.27
588.21	465.23
588.407	485.71
588.604	502.09
588.801	424.27
588.999	424.27
589.196	438.61
589.393	405.84
589.59	430.41
589.787	473.42
589.984	473.42
590.182	430.41
590.379	403.79
590.576	438.61
590.773	506.19
590.97	426.32
591.167	442.7
591.364	420.17
591.561	352.59
591.758	549.2
591.955	475.47
592.152	459.09
592.349	461.13
592.546	338.26
592.743	346.45
592.94	299.34
593.137	389.46
593.334	407.89
593.531	430.41
593.727	465.23
593.924	356.69
594.121	411.98
594.318	393.55
594.515	409.94
594.712	444.75
594.908	485.71
595.105	285.01
595.302	459.09
595.499	461.13
595.696	530.77
595.892	414.03
596.089	590.16
596.286	377.17
596.482	569.68
596.679	549.2
596.876	428.37
597.072	553.29
597.269	465.23
597.466	584.01
597.662	520.53
597.859	530.77
598.055	590.16
598.252	584.01
598.448	557.39
598.645	729.42
598.841	698.7
599.038	794.95
599.234	819.53
599.431	696.65
599.627	770.38
599.824	770.38
600.02	821.58
600.217	778.57
600.413	891.21
600.609	872.78
600.806	1042.76
601.002	1001.8
601.198	926.02
601.395	1190.21
601.591	1075.52
601.787	1153.35
601.984	1177.92
602.18	1151.3
602.376	1313.09
602.572	1321.28
602.769	1534.27
602.965	1435.97
603.161	1483.07
603.357	1567.04
603.553	1626.43
603.75	1667.39
603.946	1653.05
604.142	1751.35
604.338	1999.16
604.534	1927.48
604.73	1917.24
604.926	2079.03
605.122	2228.53
605.318	2087.22
605.514	2222.39
605.71	2378.03
605.906	2464.05
606.102	2375.99
606.298	2550.06
606.494	2670.89
606.69	2808.11
606.886	2857.26
607.082	2834.73
607.278	2949.42
607.474	3053.86
607.67	3119.4
607.866	2994.47
608.062	3273
608.257	3365.15
608.453	3344.67
608.649	3510.56
608.845	3449.12
609.041	3764.51
609.236	3864.86
609.432	4032.79
609.628	4024.6
609.824	4208.92
610.019	4196.63
610.215	4352.27
610.411	4559.12
610.606	4700.43
610.802	4788.49
610.998	4913.42
611.193	5089.54
611.389	4944.14
611.584	5081.35
611.78	5329.16
611.976	5482.75
612.171	5785.85
612.367	5732.61
612.562	5935.35
612.758	6148.34
612.953	6152.44
613.149	6426.87
613.344	6451.44
613.539	6707.44
613.735	6836.46
613.93	7192.81
614.126	7233.77
614.321	7538.91
614.517	7637.22
614.712	7848.16
614.907	7973.08
615.103	8253.66
615.298	8388.82
615.493	8603.86
615.688	8759.5
615.884	9259.21
616.079	9076.94
616.274	9576.64
616.47	9658.56
616.665	9758.91
616.86	10096.83
617.055	10502.33
617.25	10825.9
617.445	11102.38
617.641	11163.82
617.836	11604.13
618.031	11794.59
618.226	12189.85
618.421	12408.98
618.616	12830.87
618.811	12906.64
619.006	13367.43
619.201	13580.42
619.396	13869.19
619.591	14006.4
619.786	14540.92
619.981	14649.46
620.176	15503.46
620.371	15186.03
620.566	15786.08
620.761	16228.45
620.956	16500.83
621.151	16441.43
621.346	17096.78
621.541	17207.37
621.735	17850.44
621.93	17885.25
622.125	18257.98
622.32	18407.48
622.515	19054.64
622.709	19351.6
622.904	19812.39
623.099	20095.01
623.294	20416.54
623.488	20684.83
623.683	21393.42
623.878	21235.73
624.072	21735.43
624.267	22054.92
624.462	22362.11
624.656	22525.95
624.851	23078.9
625.046	23515.12
625.24	23937
625.435	24125.41
625.629	24586.21
625.824	24633.31
626.018	25530.32
626.213	25100.25
626.407	25540.56
626.602	25898.95
626.796	26480.58
626.991	26486.72
627.185	26861.5
627.38	27013.05
627.574	27209.65
627.768	27221.94
627.963	27588.53
628.157	27217.85
628.352	28223.4
628.546	27860.91
628.74	28118.95
628.935	27776.94
629.129	28252.07
629.323	27701.17
629.517	27781.04
629.712	27795.37
629.906	27549.62
630.1	27289.52
630.294	27303.86
630.489	26998.71
630.683	26867.64
630.877	26306.5
631.071	25724.88
631.265	25712.59
631.459	25085.91
631.653	24690.65
631.848	24479.71
632.042	23619.56
632.236	23224.31
632.43	22421.5
632.624	22208.51
632.818	21264.4
633.012	21084.18
633.206	20361.25
633.4	20162.59
633.594	19095.6
633.788	18876.47
633.982	18221.12
634.176	17291.34
634.369	16830.55
634.563	16121.95
634.757	15399.02
634.951	14891.12
635.145	14696.57
635.339	13975.68
635.533	13228.17
635.726	12812.43
635.92	12243.1
636.114	11845.79
636.308	11253.93
636.501	10999.98
636.695	10459.32
636.889	9967.81
637.083	9595.07
637.276	8896.72
637.47	8790.22
637.664	8538.32
637.857	8141.02
638.051	7956.7
638.244	7463.14
638.438	7061.74
638.632	6985.96
638.825	6514.93
639.019	6437.11
639.212	6177.02
639.406	6007.03
639.599	5658.88
639.793	5447.94
639.986	5277.96
640.18	4952.33
640.373	4876.55
640.567	4495.63
640.76	4485.39
640.954	4288.79
641.147	4030.74
641.34	4036.89
641.534	3924.25
641.727	3746.08
641.92	3619.1
642.114	3393.83
642.307	3221.8
642.5	3156.26
642.694	3035.43
642.887	2861.35
643.08	3014.95
643.273	2791.72
643.467	2476.34
643.66	2574.64
643.853	2365.75
644.046	2378.03
644.239	2193.72
644.432	2177.33
644.626	1937.72
644.819	1941.82
645.012	1954.1
645.205	1868.09
645.398	1829.18
645.591	1698.11
645.784	1657.15
645.977	1460.54
646.17	1466.69
646.363	1390.91
646.556	1392.96
646.749	1341.76
646.942	1247.55
647.135	1274.18
647.328	1141.06
647.521	1128.77
647.714	1038.66
647.907	1053
648.099	989.51
648.292	1130.82
648.485	913.74
648.678	846.15
648.871	942.41
649.064	991.56
649.256	778.57
649.449	782.67
649.642	667.98
649.835	774.47
650.027	670.03
650.22	684.36
650.413	678.22
650.605	657.74
650.798	502.09
650.991	541.01
651.183	600.4
651.376	674.12
651.568	614.73
651.761	565.58
651.954	411.98
652.146	483.66
652.339	465.23
652.531	498
652.724	422.22
652.916	334.16
653.109	285.01
653.301	381.26
653.494	428.37
653.686	356.69
653.879	371.02
654.071	368.98
654.263	317.78
654.456	352.59
654.648	411.98
654.84	395.6
655.033	254.29
655.225	454.99
655.417	196.95
655.61	321.87
655.802	336.21
655.994	375.12
656.186	227.67
656.379	287.06
656.571	260.43
656.763	207.19
656.955	121.17
657.148	178.51
657.34	266.58
657.532	244.05
657.724	217.43
657.916	237.91
658.108	231.76
658.3	258.39
658.492	184.66
658.684	65.88
658.876	207.19
659.068	153.94
659.26	166.23
659.452	188.75
659.644	223.57
659.836	317.78
660.028	178.51
660.22	88.4
660.412	147.8
660.604	139.6
660.796	158.03
660.988	254.29
661.18	182.61
661.372	76.12
661.563	141.65
661.755	211.28
661.947	35.16
662.139	80.21
662.331	65.88
662.522	43.35
662.714	47.44
662.906	41.3
663.097	110.93
663.289	24.92
663.481	22.87
663.673	145.75
663.864	133.46
664.056	147.8
664.247	51.54
664.439	182.61
664.631	76.12
664.822	143.7
665.014	57.68
665.205	31.06
665.397	137.56
665.588	149.84
665.78	-9.9
665.971	131.41
666.163	41.3
666.354	135.51
666.546	80.21
666.737	88.4
666.929	63.83
667.12	35.16
667.311	125.27
667.503	51.54
667.694	76.12
667.885	90.45
668.077	51.54
668.268	-61.1
668.459	72.02
668.651	80.21
668.842	88.4
669.033	22.87
669.224	16.73
669.416	219.47
669.607	69.97
669.798	45.4
669.989	227.67
670.18	53.59
670.371	166.23
670.563	-71.34
670.754	160.08
670.945	131.41
671.136	155.99
671.327	94.55
671.518	57.68
671.709	295.25
671.9	104.79
672.091	186.71
672.282	133.46
672.473	90.45
672.664	-46.76
672.855	78.16
673.046	92.5
673.237	115.03
673.428	98.64
673.619	100.69
673.809	47.44
674	108.88
674.191	43.35
674.382	22.87
674.573	57.68
674.764	65.88
674.954	94.55
675.145	26.96
675.336	47.44
675.527	98.64
675.717	86.36
675.908	74.07
676.099	35.16
676.289	108.88
676.48	-24.23
676.671	37.2
676.861	10.58
677.052	96.6
677.243	33.11
677.433	4.44
677.624	127.32
677.814	67.92
678.005	57.68
678.195	280.91
678.386	18.77
678.576	84.31
678.767	69.97
678.957	82.26
679.148	131.41
679.338	180.56
679.529	141.65
679.719	47.44
679.909	135.51
680.1	117.08
680.29	90.45
680.481	16.73
680.671	117.08
680.861	170.32
681.052	84.31
681.242	47.44
681.432	129.36
681.622	149.84
681.813	2.39
682.003	86.36
682.193	76.12
682.383	112.98
682.573	51.54
682.764	158.03
682.954	133.46
683.144	211.28
683.334	20.82
683.524	96.6
683.714	174.42
683.904	33.11
684.094	88.4
684.284	119.12
684.474	186.71
684.664	188.75
684.854	112.98
685.044	98.64
685.234	108.88
685.424	96.6
685.614	117.08
685.804	149.84
685.994	162.13
686.184	180.56
686.374	92.5
686.564	137.56
686.753	198.99
686.943	65.88
687.133	88.4
687.323	119.12
687.513	135.51
687.702	162.13
687.892	92.5
688.082	172.37
688.272	188.75
688.461	149.84
688.651	207.19
688.841	108.88
689.03	121.17
689.22	49.49
689.41	174.42
689.599	135.51
689.789	84.31
689.979	229.71
690.168	88.4
690.358	129.36
690.547	84.31
690.737	147.8
690.926	205.14
691.116	172.37
691.305	102.74
691.495	174.42
691.684	-32.43
691.874	149.84
692.063	164.18
692.252	198.99
692.442	229.71
692.631	129.36
692.82	82.26
693.01	135.51
693.199	110.93
693.388	106.84
693.578	211.28
693.767	155.99
693.956	139.6
694.146	112.98
694.335	155.99
694.524	47.44
694.713	135.51
694.902	108.88
695.092	80.21
695.281	151.89
695.47	106.84
695.659	80.21
695.848	37.2
696.037	24.92
696.226	168.27
696.415	104.79
696.604	190.8
696.793	135.51
696.982	92.5
697.171	164.18
697.36	39.25
697.549	76.12
697.738	67.92
697.927	92.5
698.116	100.69
698.305	104.79
698.494	119.12
698.683	76.12
698.872	276.82
699.061	51.54
699.25	168.27
699.438	133.46
699.627	74.07
699.816	239.95
700.005	18.77
700.193	110.93
700.382	135.51
700.571	104.79
700.76	133.46
700.948	162.13
701.137	158.03
701.326	96.6
701.514	0.34
701.703	194.9
701.892	133.46
702.08	293.2
702.269	115.03
702.457	131.41
702.646	174.42
702.834	31.06
703.023	180.56
703.212	127.32
703.4	84.31
703.589	104.79
703.777	117.08
703.965	53.59
704.154	69.97
704.342	69.97
704.531	55.64
704.719	158.03
704.907	225.62
705.096	135.51
705.284	35.16
705.472	129.36
705.661	110.93
705.849	96.6
706.037	174.42
706.226	131.41
706.414	131.41
706.602	37.2
706.79	168.27
706.979	53.59
707.167	84.31
707.355	33.11
707.543	196.95
707.731	131.41
707.919	141.65
708.107	162.13
708.296	57.68
708.484	74.07
708.672	76.12
708.86	108.88
709.048	131.41
709.236	53.59
709.424	139.6
709.612	110.93
709.8	-46.76
709.988	117.08
710.176	166.23
710.364	84.31
710.551	92.5
710.739	139.6
710.927	57.68
711.115	153.94
711.303	106.84
711.491	223.57
711.679	164.18
711.866	72.02
712.054	78.16
712.242	123.22
712.43	174.42
712.617	149.84
712.805	139.6
712.993	102.74
713.181	14.68
713.368	186.71
713.556	110.93
713.744	137.56
713.931	278.87
714.119	235.86
714.306	88.4
714.494	94.55
714.682	131.41
714.869	33.11
715.057	153.94
715.244	108.88
715.432	121.17
715.619	39.25
715.807	31.06
715.994	76.12
716.182	158.03
716.369	223.57
716.556	98.64
716.744	18.77
716.931	98.64
717.119	141.65
717.306	221.52
717.493	170.32
717.681	92.5
717.868	26.96
718.055	196.95
718.242	129.36
718.43	162.13
718.617	155.99
718.804	188.75
718.991	246.1
719.179	143.7
719.366	178.51
719.553	194.9
719.74	158.03
719.927	117.08
720.114	39.25
720.301	84.31
720.488	115.03
720.676	115.03
720.863	145.75
721.05	256.34
721.237	141.65
721.424	203.09
721.611	160.08
721.798	72.02
721.985	182.61
722.172	115.03
722.358	174.42
722.545	141.65
722.732	112.98
722.919	121.17
723.106	196.95
723.293	82.26
723.48	188.75
723.667	117.08
723.853	237.91
724.04	174.42
724.227	205.14
724.414	129.36
724.6	207.19
724.787	246.1
724.974	287.06
725.161	219.47
725.347	153.94
725.534	153.94
725.72	164.18
725.907	184.66
726.094	258.39
726.28	88.4
726.467	256.34
726.653	84.31
726.84	293.2
727.027	289.1
727.213	133.46
727.4	225.62
727.586	196.95
727.773	176.47
727.959	166.23
728.145	180.56
728.332	235.86
728.518	174.42
728.705	149.84
728.891	117.08
729.077	239.95
729.264	153.94
729.45	100.69
729.636	162.13
729.823	155.99
730.009	272.72
730.195	280.91
730.382	246.1
730.568	137.56
730.754	151.89
730.94	160.08
731.126	205.14
731.313	153.94
731.499	172.37
731.685	194.9
731.871	192.85
732.057	285.01
732.243	272.72
732.429	229.71
732.615	246.1
732.801	291.15
732.987	170.32
733.173	209.23
733.359	145.75
733.545	217.43
733.731	145.75
733.917	274.77
734.103	248.15
734.289	260.43
734.475	141.65
734.661	246.1
734.847	211.28
735.033	190.8
735.219	256.34
735.404	182.61
735.59	172.37
735.776	170.32
735.962	153.94
736.148	231.76
736.333	311.63
736.519	217.43
736.705	155.99
736.89	244.05
737.076	211.28
737.262	170.32
737.447	235.86
737.633	182.61
737.819	289.1
738.004	305.49
738.19	196.95
738.375	262.48
738.561	203.09
738.747	205.14
738.932	141.65
739.118	328.02
739.303	254.29
739.489	244.05
739.674	176.47
739.859	166.23
740.045	209.23
740.23	233.81
740.416	24.92
740.601	246.1
740.786	194.9
740.972	104.79
741.157	174.42
741.342	143.7
741.528	57.68
741.713	280.91
741.898	151.89
742.084	205.14
742.269	231.76
742.454	252.24
742.639	309.58
742.824	205.14
743.01	297.3
743.195	379.22
743.38	178.51
743.565	141.65
743.75	264.53
743.935	229.71
744.12	287.06
744.305	112.98
744.49	137.56
744.675	260.43
744.86	160.08
745.045	231.76
745.23	205.14
745.415	131.41
745.6	205.14
745.785	153.94
745.97	295.25
746.155	186.71
746.34	307.54
746.525	227.67
746.71	346.45
746.895	129.36
747.079	94.55
747.264	221.52
747.449	229.71
747.634	248.15
747.819	246.1
748.003	221.52
748.188	65.88
748.373	260.43
748.557	192.85
748.742	194.9
748.927	131.41
749.111	162.13
749.296	155.99
749.481	250.19
749.665	213.33
749.85	80.21
750.034	231.76
750.219	143.7
750.404	217.43
750.588	198.99
750.773	88.4
750.957	198.99
751.141	139.6
751.326	229.71
751.51	84.31
751.695	86.36
751.879	125.27
752.064	276.82
752.248	94.55
752.432	242
752.617	149.84
752.801	227.67
752.985	100.69
753.17	176.47
753.354	168.27
753.538	115.03
753.722	88.4
753.907	153.94
754.091	55.64
754.275	129.36
754.459	82.26
754.643	141.65
754.828	215.38
755.012	174.42
755.196	80.21
755.38	172.37
755.564	59.73
755.748	188.75
755.932	180.56
756.116	147.8
756.3	133.46
756.484	110.93
756.668	94.55
756.852	22.87
757.036	100.69
757.22	174.42
757.404	92.5
757.588	92.5
757.772	190.8
757.956	139.6
758.14	219.47
758.323	55.64
758.507	158.03
758.691	74.07
758.875	223.57
759.059	250.19
759.242	98.64
759.426	69.97
759.61	174.42
759.794	26.96
759.977	172.37
760.161	295.25
760.345	188.75
760.528	168.27
760.712	112.98
760.895	94.55
761.079	108.88
761.263	24.92
761.446	84.31
761.63	63.83
761.813	176.47
761.997	102.74
762.18	4.44
762.364	131.41
762.547	-54.95
762.731	106.84
762.914	100.69
763.098	55.64
763.281	96.6
763.464	115.03
763.648	117.08
763.831	43.35
764.015	90.45
764.198	139.6
764.381	72.02
764.564	16.73
764.748	108.88
764.931	82.26
765.114	61.78
765.297	178.51
765.481	-26.28
765.664	145.75
765.847	43.35
766.03	198.99
766.213	65.88
766.397	186.71
766.58	-54.95
766.763	149.84
766.946	24.92
767.129	67.92
767.312	16.73
767.495	112.98
767.678	16.73
767.861	88.4
768.044	76.12
768.227	29.01
768.41	26.96
768.593	108.88
768.776	88.4
768.959	67.92
769.142	149.84
769.324	104.79
769.507	74.07
769.69	69.97
769.873	84.31
770.056	256.34
770.239	100.69
770.421	125.27
770.604	112.98
770.787	59.73
770.97	92.5
771.152	-18.09
771.335	127.32
771.518	0.34
771.7	108.88
771.883	178.51
772.066	108.88
772.248	51.54
772.431	153.94
772.613	53.59
772.796	51.54
772.978	65.88
773.161	106.84
773.343	37.2
773.526	39.25
773.708	-48.81
773.891	90.45
774.073	108.88
774.256	82.26
774.438	121.17
774.621	84.31
774.803	94.55
774.985	49.49
775.168	86.36
775.35	-18.09
775.532	74.07
775.715	-20.14
775.897	160.08
776.079	-5.8
776.261	100.69
776.444	26.96
776.626	86.36
776.808	-24.23
776.99	-16.04
777.173	174.42
777.355	57.68
777.537	63.83
777.719	115.03
777.901	-13.99
778.083	6.49
778.265	-32.43
778.447	63.83
778.629	-7.85
778.811	59.73
778.993	104.79
779.175	76.12
779.357	76.12
779.539	16.73
779.721	63.83
779.903	59.73
780.085	6.49
780.267	72.02
780.449	84.31
780.631	55.64
780.812	158.03
780.994	8.53
781.176	-63.15
781.358	53.59
781.54	59.73
781.721	92.5
781.903	141.65
782.085	22.87
782.267	96.6
782.448	-71.34
782.63	-36.52
782.812	96.6
782.993	123.22
783.175	133.46
783.357	14.68
783.538	74.07
783.72	0.34
783.901	59.73
784.083	82.26
784.264	65.88
784.446	-100.01
784.627	-83.63
784.809	106.84
784.99	-7.85
785.172	94.55
785.353	37.2
785.535	31.06
785.716	22.87
785.897	53.59
786.079	22.87
786.26	104.79
786.441	-16.04
786.623	-73.39
786.804	-1.71
786.985	-13.99
787.167	10.58
787.348	16.73
787.529	4.44
787.71	158.03
787.891	33.11
788.073	-85.67
788.254	-44.71
788.435	172.37
788.616	22.87
788.797	-48.81
788.978	-97.96
789.159	-46.76
789.34	123.22
789.522	2.39
789.703	-20.14
789.884	92.5
790.065	47.44
790.246	166.23
790.427	14.68
790.607	108.88
790.788	86.36
790.969	-61.1
791.15	108.88
791.331	-57
791.512	82.26
791.693	6.49
791.874	16.73
792.054	121.17
792.235	76.12
792.416	-48.81
792.597	-91.82
792.778	61.78
792.958	72.02
793.139	4.44
793.32	41.3
793.5	26.96
793.681	90.45
793.862	41.3
794.042	6.49
794.223	-18.09
794.404	14.68
794.584	-106.15
794.765	92.5
794.945	43.35
795.126	35.16
795.306	74.07
795.487	-9.9
795.667	-18.09
795.848	43.35
796.028	-26.28
796.209	12.63
796.389	-22.19
796.57	-7.85
796.75	16.73
796.93	8.53
797.111	-95.91
797.291	-46.76
797.471	4.44
797.652	6.49
797.832	-9.9
798.012	37.2
798.192	-63.15
798.373	-13.99
798.553	59.73
798.733	24.92
798.913	-87.72
799.093	6.49
799.274	10.58
799.454	82.26
799.634	72.02
799.814	24.92
799.994	57.68
800.174	84.31
800.354	-20.14
800.534	-89.77
800.714	63.83
800.894	-79.53
801.074	-20.14
801.254	-7.85
801.434	117.08
801.614	33.11
801.794	-36.52
801.974	1640.76
802.154	-77.48
802.334	78.16
802.514	-1.71
802.693	-87.72
802.873	-1.71
803.053	135.51
803.233	-7.85
803.413	-9.9
803.592	-54.95
803.772	-83.63
803.952	4.44
804.131	2.39
804.311	-38.57
804.491	35.16
804.67	-24.23
804.85	-11.95
805.03	8.53
805.209	69.97
805.389	-59.05
805.568	-7.85
805.748	-1.71
805.928	-18.09
806.107	29.01
806.287	63.83
806.466	43.35
806.646	41.3
806.825	-5.8
807.004	-112.3
807.184	65.88
807.363	57.68
807.543	-5.8
807.722	-147.11
807.901	24.92
808.081	26.96
808.26	-165.54
808.439	-28.33
808.619	-18.09
808.798	-28.33
808.977	53.59
809.156	72.02
809.336	96.6
809.515	141.65
809.694	-52.91
809.873	-102.06
810.052	-46.76
810.231	51.54
810.411	22.87
810.59	110.93
810.769	-46.76
810.948	45.4
811.127	-52.91
811.306	-48.81
811.485	-46.76
811.664	139.6
811.843	41.3
812.022	-24.23
812.201	2.39
812.38	-71.34
812.559	-83.63
812.737	43.35
812.916	-67.24
813.095	-26.28
813.274	26.96
813.453	-52.91
813.632	-38.57
813.811	80.21
813.989	-7.85
814.168	-13.99
814.347	-114.34
814.526	-38.57
814.704	74.07
814.883	90.45
815.062	-83.63
815.24	31.06
815.419	-46.76
815.598	74.07
815.776	-79.53
815.955	-18.09
816.133	-132.78
816.312	49.49
816.49	-26.28
816.669	-75.43
816.847	-63.15
817.026	-108.2
817.204	-42.67
817.383	-1.71
817.561	-5.8
817.74	57.68
817.918	14.68
818.097	-13.99
818.275	-118.44
818.453	20.82
818.632	43.35
818.81	-126.63
818.988	-114.34
819.167	-20.14
819.345	-65.19
819.523	-24.23
819.701	0.34
819.879	63.83
820.058	-42.67
820.236	49.49
820.414	-7.85
820.592	-48.81
820.77	-9.9
820.948	-24.23
821.127	-69.29
821.305	88.4
821.483	-91.82
821.661	65.88
821.839	41.3
822.017	-52.91
822.195	-112.3
822.373	135.51
822.551	-30.38
822.729	72.02
822.907	-5.8
823.085	55.64
823.262	125.27
823.44	-42.67
823.618	-52.91
823.796	22.87
823.974	-126.63
824.152	-16.04
824.329	-26.28
824.507	-7.85
824.685	4.44
824.863	-69.29
825.04	45.4
825.218	90.45
825.396	-54.95
825.574	-52.91
825.751	-3.75
825.929	14.68
826.107	-75.43
826.284	-9.9
826.462	67.92
826.639	10.58
826.817	-63.15
826.994	-30.38
827.172	-128.68
827.349	65.88
827.527	16.73
827.704	-18.09
827.882	45.4
828.059	55.64
828.237	-26.28
828.414	26.96
828.591	-95.91
828.769	-75.43
828.946	-13.99
829.124	22.87
829.301	31.06
829.478	-18.09
829.655	-24.23
829.833	-63.15
830.01	-188.07
830.187	43.35
830.364	-22.19
830.542	-16.04
830.719	37.2
830.896	72.02
831.073	-7.85
831.25	4.44
831.427	24.92
831.604	-22.19
831.782	-120.49
831.959	22.87
832.136	6.49
832.313	57.68
832.49	-28.33
832.667	-7.85
832.844	-13.99
833.021	84.31
833.198	8.53
833.374	22.87
833.551	-22.19
833.728	-69.29
833.905	-13.99
834.082	-110.25
834.259	10.58
834.436	61.78
834.612	-38.57
834.789	37.2
834.966	-34.47
835.143	-13.99
835.319	-52.91
835.496	22.87
835.673	35.16
835.85	67.92
836.026	-34.47
836.203	82.26
836.38	0.34
836.556	2.39
836.733	-71.34
836.909	37.2
837.086	39.25
837.262	-104.11
837.439	-24.23
837.616	-75.43
837.792	-30.38
837.968	59.73
838.145	-145.06
838.321	-5.8
838.498	96.6
838.674	43.35
838.851	8.53
839.027	-73.39
839.203	20.82
839.38	-1.71
839.556	-69.29
839.732	72.02
839.909	-22.19
840.085	-52.91
840.261	-83.63
840.437	10.58
840.614	-38.57
840.79	84.31
840.966	72.02
841.142	-22.19
841.318	-89.77
841.494	24.92
841.671	6.49
841.847	35.16
842.023	-75.43
842.199	-1.71
842.375	106.84
842.551	-155.3
842.727	-97.96
842.903	63.83
843.079	-89.77
843.255	14.68
843.431	-36.52
843.607	-22.19
843.783	-143.02
843.959	78.16
844.134	-120.49
844.31	92.5
844.486	-46.76
844.662	-16.04
844.838	-32.43
845.013	31.06
845.189	2.39
845.365	-18.09
845.541	-13.99
845.716	16.73
845.892	45.4
846.068	-63.15
846.244	-38.57
846.419	-1.71
846.595	-65.19
846.77	-46.76
846.946	76.12
847.122	-28.33
847.297	-50.86
847.473	119.12
847.648	-40.62
847.824	-63.15
847.999	-26.28
848.175	-38.57
848.35	-11.95
848.526	14.68
848.701	14.68
848.876	76.12
849.052	-18.09
849.227	22.87
849.403	-81.58
849.578	-44.71
849.753	-57
849.929	18.77
850.104	-116.39
850.279	43.35
850.454	55.64
850.63	82.26
850.805	-79.53
850.98	10.58
851.155	-3.75
851.33	18.77
851.505	-110.25
851.681	96.6
851.856	18.77
852.031	24.92
852.206	14.68
852.381	-48.81
852.556	-5.8
852.731	14.68
852.906	123.22
853.081	-22.19
853.256	2.39
853.431	-124.58
853.606	-63.15
853.781	-93.87
853.956	-145.06
854.131	-16.04
854.305	-102.06
854.48	-38.57
854.655	-75.43
854.83	-54.95
855.005	-26.28
855.18	-34.47
855.354	-38.57
855.529	59.73
855.704	-79.53
855.879	41.3
856.053	-116.39
856.228	2.39
856.403	-153.26
856.577	80.21
856.752	-57
856.926	12.63
857.101	-81.58
857.276	-114.34
857.45	-20.14
857.625	47.44
857.799	12.63
857.974	-61.1
858.148	-120.49
858.323	39.25
858.497	57.68
858.672	-104.11
858.846	-30.38
859.02	24.92
859.195	-69.29
859.369	-85.67
859.543	10.58
859.718	4.44
859.892	-11.95
860.066	-34.47
860.241	-30.38
860.415	-42.67
860.589	-24.23
860.763	-44.71
860.938	-114.34
861.112	-20.14
861.286	-65.19
861.46	-112.3
861.634	16.73
861.808	51.54
861.982	-13.99
862.157	-59.05
862.331	-61.1
862.505	-71.34
862.679	-89.77
862.853	-71.34
863.027	-28.33
863.201	57.68
863.375	-87.72
863.549	31.06
863.722	78.16
863.896	20.82
864.07	-38.57
864.244	-54.95
864.418	18.77
864.592	-116.39
864.766	39.25
864.939	-13.99
865.113	-16.04
865.287	76.12
865.461	-140.97
865.634	-65.19
865.808	-48.81
865.982	-34.47
866.156	-79.53
866.329	-130.73
866.503	-18.09
866.676	26.96
866.85	-13.99
867.024	-26.28
867.197	-5.8
867.371	63.83
867.544	10.58
867.718	-114.34
867.891	53.59
868.065	-57
868.238	-11.95
868.412	18.77
868.585	33.11
868.759	-95.91
868.932	-30.38
869.105	-83.63
869.279	-34.47
869.452	-46.76
869.625	-20.14
869.799	-40.62
869.972	-93.87
870.145	-65.19
870.319	84.31
870.492	-48.81
870.665	-106.15
870.838	-75.43
871.011	-120.49
871.185	-34.47
871.358	33.11
871.531	61.78
871.704	65.88
871.877	24.92
872.05	-30.38
872.223	-3.75
872.396	6.49
872.569	-1.71
872.742	-97.96
872.915	10.58
873.088	-42.67
873.261	-145.06
873.434	63.83
873.607	-73.39
873.78	-57
873.953	-87.72
874.126	-124.58
874.299	2.39
874.471	-46.76
874.644	-46.76
874.817	-100.01
874.99	106.84
875.163	-22.19
875.335	-54.95
875.508	-3.75
875.681	78.16
875.853	-102.06
876.026	-120.49
876.199	16.73
876.371	-3.75
876.544	-71.34
876.717	-30.38
876.889	26.96
877.062	39.25
877.234	-26.28
877.407	-57
877.579	10.58
877.752	45.4
877.924	2.39
878.097	33.11
878.269	-13.99
878.442	-38.57
878.614	37.2
878.786	4.44
878.959	-16.04
879.131	0.34
879.303	-108.2
879.476	51.54
879.648	22.87
879.82	16.73
879.993	-22.19
880.165	-73.39
880.337	-30.38
880.509	43.35
880.681	-134.82
880.854	-89.77
881.026	65.88
881.198	100.69
881.37	-28.33
881.542	-22.19
881.714	-34.47
881.886	-26.28
882.058	-30.38
882.23	-11.95
882.402	-57
882.574	-38.57
882.746	-44.71
882.918	76.12
883.09	35.16
883.262	16.73
883.434	41.3
883.606	-112.3
883.778	-40.62
883.95	-42.67
884.122	-7.85
884.293	-104.11
884.465	51.54
884.637	-7.85
884.809	-116.39
884.98	45.4
885.152	24.92
885.324	47.44
885.496	-108.2
885.667	-32.43
885.839	18.77
886.011	65.88
886.182	-28.33
886.354	24.92
886.525	-18.09
886.697	-22.19
886.869	-108.2
887.04	-34.47
887.212	63.83
887.383	43.35
887.555	8.53
887.726	-106.15
887.897	-71.34
888.069	16.73
888.24	76.12
888.412	-13.99
888.583	-24.23
888.754	10.58
888.926	-104.11
889.097	-106.15
889.268	-108.2
889.44	14.68
889.611	-46.76
889.782	-73.39
889.953	-112.3
890.125	78.16
890.296	2.39
890.467	4.44
890.638	-44.71
890.809	-102.06
890.98	-112.3
891.151	-26.28
891.323	4.44
891.494	-59.05
891.665	-69.29
891.836	-57
892.007	-46.76
892.178	0.34
892.349	61.78
892.52	-34.47
892.691	14.68
892.862	-95.91
893.032	-95.91
893.203	-38.57
893.374	65.88
893.545	166.23
893.716	-136.87
893.887	76.12
894.057	-57
894.228	-40.62
894.399	-79.53
894.57	-46.76
894.74	31.06
894.911	31.06
895.082	0.34
895.253	4.44
895.423	-7.85
895.594	67.92
895.764	-75.43
895.935	-54.95
896.106	-1.71
896.276	-71.34
896.447	-38.57
896.617	-93.87
896.788	-57
896.958	-67.24
897.129	20.82
897.299	-46.76
897.47	53.59
897.64	2.39
897.81	-22.19
897.981	-13.99
898.151	-85.67
898.322	-26.28
898.492	-24.23
898.662	-75.43
898.832	-79.53
899.003	-48.81
899.173	-16.04
899.343	-75.43
899.513	-95.91
