Data from USB4F104151__22__09-25-48-819.txt Node

Date: Wed Feb 26 09:25:48 EST 2025
User: louis
Spectrometer: USB4F10415
Trigger mode: 4
Integration Time (sec): 1.000000E-1
Scans to average: 1
Electric dark correction enabled: true
Nonlinearity correction enabled: false
Boxcar width: 0
XAxis mode: Wavelengths
Number of Pixels in Spectrum: 3648
>>>>>Begin Spectral Data<<<<<
178.204	-318.97
178.424	-318.97
178.644	-318.97
178.864	-286.2
179.084	-327.16
179.304	-48.64
179.524	-1.54
179.744	-9.73
179.964	90.62
180.184	55.81
180.404	64
180.624	-24.06
180.844	-105.98
181.064	-44.54
181.283	8.7
181.503	-34.3
181.723	49.66
181.943	-112.13
182.163	131.58
182.383	4.61
182.602	70.14
182.822	139.77
183.042	70.14
183.262	25.09
183.482	-17.92
183.701	61.95
183.921	29.18
184.141	12.8
184.361	55.81
184.58	29.18
184.8	66.05
185.02	0.51
185.239	176.64
185.459	125.44
185.679	123.39
185.898	-93.69
186.118	61.95
186.338	-89.6
186.557	86.53
186.777	-3.58
186.997	72.19
187.216	20.99
187.436	184.83
187.655	25.09
187.875	82.43
188.095	90.62
188.314	111.1
188.534	29.18
188.753	2.56
188.973	104.96
189.192	72.19
189.412	39.42
189.631	8.7
189.851	74.24
190.07	127.49
190.29	41.47
190.509	31.23
190.729	53.76
190.948	115.2
191.168	150.01
191.387	90.62
191.607	-3.58
191.826	57.86
192.045	25.09
192.265	82.43
192.484	39.42
192.704	45.57
192.923	-34.3
193.142	213.5
193.362	86.53
193.581	166.4
193.8	43.52
194.02	104.96
194.239	59.9
194.458	70.14
194.678	12.8
194.897	84.48
195.116	96.77
195.335	49.66
195.555	45.57
195.774	78.33
195.993	162.3
196.212	14.85
196.432	49.66
196.651	55.81
196.87	-5.63
197.089	203.26
197.308	72.19
197.528	96.77
197.747	0.51
197.966	43.52
198.185	195.07
198.404	-24.06
198.623	-1.54
198.842	37.38
199.062	76.29
199.281	133.63
199.5	35.33
199.719	20.99
199.938	64
200.157	98.81
200.376	16.9
200.595	74.24
200.814	78.33
201.033	-5.63
201.252	174.59
201.471	98.81
201.69	150.01
201.909	41.47
202.128	107.01
202.347	100.86
202.566	-24.06
202.785	-36.35
203.004	-11.78
203.223	143.87
203.442	31.23
203.661	-24.06
203.879	55.81
204.098	113.15
204.317	-9.73
204.536	90.62
204.755	12.8
204.974	104.96
205.193	59.9
205.411	98.81
205.63	141.82
205.849	98.81
206.068	23.04
206.287	-73.21
206.505	119.29
206.724	-17.92
206.943	41.47
207.162	0.51
207.381	82.43
207.599	82.43
207.818	37.38
208.037	104.96
208.255	53.76
208.474	104.96
208.693	33.28
208.911	-7.68
209.13	98.81
209.349	98.81
209.567	68.09
209.786	66.05
210.005	66.05
210.223	14.85
210.442	-91.65
210.661	0.51
210.879	70.14
211.098	80.38
211.316	66.05
211.535	57.86
211.753	8.7
211.972	96.77
212.191	6.66
212.409	8.7
212.628	90.62
212.846	49.66
213.065	0.51
213.283	176.64
213.502	57.86
213.72	29.18
213.938	-11.78
214.157	-13.82
214.375	113.15
214.594	35.33
214.812	90.62
215.031	25.09
215.249	6.66
215.467	45.57
215.686	-7.68
215.904	133.63
216.122	16.9
216.341	78.33
216.559	61.95
216.778	68.09
216.996	111.1
217.214	64
217.432	-9.73
217.651	-48.64
217.869	8.7
218.087	-44.54
218.306	-69.12
218.524	33.28
218.742	31.23
218.96	49.66
219.179	8.7
219.397	27.14
219.615	131.58
219.833	113.15
220.051	14.85
220.27	102.91
220.488	121.34
220.706	66.05
220.924	-30.21
221.142	6.66
221.36	14.85
221.578	8.7
221.796	39.42
222.015	29.18
222.233	0.51
222.451	82.43
222.669	23.04
222.887	94.72
223.105	-1.54
223.323	0.51
223.541	68.09
223.759	-1.54
223.977	25.09
224.195	135.68
224.413	90.62
224.631	43.52
224.849	113.15
225.067	154.11
225.285	66.05
225.503	12.8
225.721	-89.6
225.939	16.9
226.157	127.49
226.375	188.93
226.592	-13.82
226.81	2.56
227.028	98.81
227.246	150.01
227.464	4.61
227.682	102.91
227.9	74.24
228.117	47.62
228.335	84.48
228.553	57.86
228.771	41.47
228.989	113.15
229.206	61.95
229.424	8.7
229.642	-7.68
229.86	33.28
230.077	94.72
230.295	-26.11
230.513	80.38
230.731	72.19
230.948	115.2
231.166	123.39
231.384	72.19
231.601	-36.35
231.819	88.57
232.037	-19.97
232.254	0.51
232.472	47.62
232.689	-11.78
232.907	174.59
233.125	41.47
233.342	-3.58
233.56	64
233.777	31.23
233.995	90.62
234.213	131.58
234.43	125.44
234.648	-40.45
234.865	59.9
235.083	88.57
235.3	31.23
235.518	45.57
235.735	121.34
235.953	74.24
236.17	88.57
236.388	37.38
236.605	57.86
236.822	123.39
237.04	147.97
237.257	-28.16
237.475	-48.64
237.692	55.81
237.909	51.71
238.127	18.94
238.344	80.38
238.562	66.05
238.779	33.28
238.996	-62.98
239.214	86.53
239.431	10.75
239.648	-7.68
239.865	-42.5
240.083	156.16
240.3	29.18
240.517	-44.54
240.735	84.48
240.952	121.34
241.169	14.85
241.386	33.28
241.603	-15.87
241.821	31.23
242.038	66.05
242.255	88.57
242.472	-15.87
242.689	53.76
242.907	115.2
243.124	-1.54
243.341	14.85
243.558	-42.5
243.775	-69.12
243.992	-75.26
244.209	96.77
244.426	107.01
244.643	16.9
244.86	-19.97
245.078	61.95
245.295	-3.58
245.512	0.51
245.729	49.66
245.946	96.77
246.163	61.95
246.38	0.51
246.597	16.9
246.814	-11.78
247.031	72.19
247.248	8.7
247.464	37.38
247.681	55.81
247.898	-19.97
248.115	64
248.332	-40.45
248.549	10.75
248.766	154.11
248.983	98.81
249.2	92.67
249.417	156.16
249.633	41.47
249.85	0.51
250.067	47.62
250.284	61.95
250.501	72.19
250.717	23.04
250.934	-83.45
251.151	45.57
251.368	55.81
251.585	-17.92
251.801	57.86
252.018	-15.87
252.235	61.95
252.451	-13.82
252.668	49.66
252.885	119.29
253.102	98.81
253.318	-24.06
253.535	-34.3
253.752	0.51
253.968	-1.54
254.185	0.51
254.401	53.76
254.618	78.33
254.835	0.51
255.051	127.49
255.268	74.24
255.484	-17.92
255.701	-50.69
255.917	39.42
256.134	-11.78
256.351	53.76
256.567	-52.74
256.784	78.33
257	-22.02
257.217	94.72
257.433	31.23
257.65	49.66
257.866	145.92
258.082	-26.11
258.299	6.66
258.515	41.47
258.732	43.52
258.948	-26.11
259.165	57.86
259.381	-26.11
259.597	64
259.814	20.99
260.03	2.56
260.246	45.57
260.463	55.81
260.679	88.57
260.895	10.75
261.112	78.33
261.328	20.99
261.544	-32.26
261.761	129.53
261.977	-118.27
262.193	-7.68
262.409	66.05
262.626	45.57
262.842	59.9
263.058	2.56
263.274	72.19
263.49	57.86
263.707	57.86
263.923	82.43
264.139	35.33
264.355	78.33
264.571	188.93
264.787	55.81
265.004	150.01
265.22	-34.3
265.436	-9.73
265.652	-56.83
265.868	37.38
266.084	-38.4
266.3	29.18
266.516	-42.5
266.732	-17.92
266.948	8.7
267.164	-17.92
267.38	119.29
267.596	41.47
267.812	115.2
268.028	74.24
268.244	18.94
268.46	6.66
268.676	59.9
268.892	8.7
269.108	14.85
269.324	-65.02
269.54	-11.78
269.756	127.49
269.972	-1.54
270.188	16.9
270.403	-89.6
270.619	27.14
270.835	119.29
271.051	20.99
271.267	25.09
271.483	-15.87
271.698	80.38
271.914	80.38
272.13	14.85
272.346	12.8
272.562	49.66
272.777	-15.87
272.993	-26.11
273.209	12.8
273.425	57.86
273.64	-136.7
273.856	119.29
274.072	-3.58
274.287	-5.63
274.503	47.62
274.719	2.56
274.934	37.38
275.15	-118.27
275.366	4.61
275.581	-3.58
275.797	61.95
276.012	12.8
276.228	90.62
276.444	125.44
276.659	145.92
276.875	-48.64
277.09	16.9
277.306	6.66
277.521	25.09
277.737	66.05
277.952	82.43
278.168	31.23
278.383	55.81
278.599	94.72
278.814	102.91
279.03	29.18
279.245	100.86
279.461	-42.5
279.676	113.15
279.892	-71.17
280.107	-126.46
280.322	-48.64
280.538	55.81
280.753	-36.35
280.969	90.62
281.184	-19.97
281.399	225.79
281.615	-9.73
281.83	16.9
282.045	-42.5
282.26	41.47
282.476	29.18
282.691	35.33
282.906	-48.64
283.122	14.85
283.337	20.99
283.552	61.95
283.767	12.8
283.983	96.77
284.198	23.04
284.413	57.86
284.628	12.8
284.843	-7.68
285.058	92.67
285.274	-1.54
285.489	-95.74
285.704	152.06
285.919	-40.45
286.134	49.66
286.349	6.66
286.564	-81.41
286.779	135.68
286.995	41.47
287.21	-85.5
287.425	64
287.64	-11.78
287.855	-19.97
288.07	-67.07
288.285	92.67
288.5	23.04
288.715	70.14
288.93	82.43
289.145	23.04
289.36	94.72
289.575	-24.06
289.79	113.15
290.004	55.81
290.219	168.45
290.434	-9.73
290.649	25.09
290.864	-40.45
291.079	-7.68
291.294	8.7
291.509	-38.4
291.724	45.57
291.938	-11.78
292.153	14.85
292.368	41.47
292.583	12.8
292.798	96.77
293.012	31.23
293.227	18.94
293.442	25.09
293.657	86.53
293.871	109.05
294.086	8.7
294.301	156.16
294.516	86.53
294.73	43.52
294.945	-60.93
295.16	8.7
295.374	102.91
295.589	61.95
295.804	20.99
296.018	2.56
296.233	68.09
296.447	33.28
296.662	-52.74
296.877	16.9
297.091	49.66
297.306	16.9
297.52	-40.45
297.735	80.38
297.949	12.8
298.164	72.19
298.378	135.68
298.593	0.51
298.807	8.7
299.022	57.86
299.236	53.76
299.451	29.18
299.665	14.85
299.88	-15.87
300.094	72.19
300.309	20.99
300.523	78.33
300.737	45.57
300.952	53.76
301.166	8.7
301.381	-7.68
301.595	-36.35
301.809	20.99
302.024	8.7
302.238	8.7
302.452	154.11
302.667	43.52
302.881	115.2
303.095	31.23
303.309	78.33
303.524	-56.83
303.738	55.81
303.952	-7.68
304.166	-7.68
304.381	-126.46
304.595	117.25
304.809	23.04
305.023	61.95
305.237	41.47
305.452	39.42
305.666	82.43
305.88	74.24
306.094	72.19
306.308	86.53
306.522	41.47
306.736	80.38
306.95	119.29
307.164	-7.68
307.379	-24.06
307.593	137.73
307.807	10.75
308.021	92.67
308.235	16.9
308.449	-52.74
308.663	33.28
308.877	190.97
309.091	90.62
309.305	51.71
309.519	25.09
309.733	111.1
309.947	-56.83
310.161	0.51
310.374	113.15
310.588	80.38
310.802	-71.17
311.016	8.7
311.23	123.39
311.444	8.7
311.658	-9.73
311.872	86.53
312.085	96.77
312.299	135.68
312.513	88.57
312.727	57.86
312.941	-24.06
313.154	55.81
313.368	-22.02
313.582	-1.54
313.796	0.51
314.009	-44.54
314.223	111.1
314.437	14.85
314.651	123.39
314.864	25.09
315.078	-71.17
315.292	16.9
315.505	-42.5
315.719	74.24
315.933	51.71
316.146	-24.06
316.36	-24.06
316.573	98.81
316.787	88.57
317.001	107.01
317.214	-38.4
317.428	-1.54
317.641	-5.63
317.855	31.23
318.068	31.23
318.282	37.38
318.495	68.09
318.709	57.86
318.922	20.99
319.136	88.57
319.349	78.33
319.563	27.14
319.776	107.01
319.99	-65.02
320.203	104.96
320.417	-9.73
320.63	90.62
320.843	80.38
321.057	66.05
321.27	6.66
321.483	96.77
321.697	147.97
321.91	98.81
322.124	66.05
322.337	49.66
322.55	-67.07
322.763	72.19
322.977	29.18
323.19	-26.11
323.403	64
323.617	74.24
323.83	74.24
324.043	25.09
324.256	115.2
324.469	23.04
324.683	29.18
324.896	39.42
325.109	6.66
325.322	-89.6
325.535	86.53
325.748	135.68
325.962	33.28
326.175	16.9
326.388	84.48
326.601	156.16
326.814	45.57
327.027	18.94
327.24	156.16
327.453	-124.41
327.666	117.25
327.879	147.97
328.092	51.71
328.305	8.7
328.518	53.76
328.731	6.66
328.944	27.14
329.157	123.39
329.37	66.05
329.583	139.77
329.796	164.35
330.009	-34.3
330.222	53.76
330.435	107.01
330.648	-24.06
330.861	86.53
331.073	45.57
331.286	102.91
331.499	39.42
331.712	-44.54
331.925	6.66
332.138	59.9
332.35	125.44
332.563	-65.02
332.776	57.86
332.989	-11.78
333.202	-9.73
333.414	-9.73
333.627	33.28
333.84	41.47
334.053	84.48
334.265	-50.69
334.478	23.04
334.691	-7.68
334.903	16.9
335.116	-34.3
335.329	10.75
335.541	98.81
335.754	182.78
335.966	4.61
336.179	18.94
336.392	90.62
336.604	29.18
336.817	4.61
337.029	57.86
337.242	-1.54
337.454	90.62
337.667	57.86
337.88	16.9
338.092	33.28
338.305	55.81
338.517	0.51
338.729	74.24
338.942	125.44
339.154	-52.74
339.367	-44.54
339.579	82.43
339.792	-1.54
340.004	18.94
340.217	82.43
340.429	152.06
340.641	6.66
340.854	-17.92
341.066	41.47
341.278	96.77
341.491	86.53
341.703	82.43
341.915	-7.68
342.128	113.15
342.34	31.23
342.552	-62.98
342.764	41.47
342.977	18.94
343.189	-5.63
343.401	43.52
343.613	-67.07
343.826	57.86
344.038	12.8
344.25	6.66
344.462	-26.11
344.674	-1.54
344.886	-9.73
345.099	45.57
345.311	92.67
345.523	-28.16
345.735	-87.55
345.947	31.23
346.159	70.14
346.371	43.52
346.583	4.61
346.795	166.4
347.007	35.33
347.219	20.99
347.431	66.05
347.643	78.33
347.855	-67.07
348.067	80.38
348.279	2.56
348.491	88.57
348.703	152.06
348.915	37.38
349.127	-99.84
349.339	18.94
349.551	-24.06
349.763	31.23
349.975	-19.97
350.187	188.93
350.399	102.91
350.61	119.29
350.822	-24.06
351.034	-17.92
351.246	29.18
351.458	129.53
351.669	92.67
351.881	100.86
352.093	82.43
352.305	37.38
352.517	57.86
352.728	123.39
352.94	66.05
353.152	57.86
353.363	0.51
353.575	51.71
353.787	184.83
353.999	41.47
354.21	127.49
354.422	-26.11
354.633	37.38
354.845	14.85
355.057	57.86
355.268	66.05
355.48	127.49
355.692	-75.26
355.903	23.04
356.115	-7.68
356.326	-42.5
356.538	64
356.749	96.77
356.961	160.25
357.172	12.8
357.384	-97.79
357.595	147.97
357.807	39.42
358.018	-50.69
358.23	61.95
358.441	113.15
358.653	43.52
358.864	84.48
359.075	-122.37
359.287	72.19
359.498	119.29
359.709	80.38
359.921	80.38
360.132	98.81
360.344	33.28
360.555	111.1
360.766	43.52
360.977	16.9
361.189	147.97
361.4	2.56
361.611	123.39
361.823	129.53
362.034	82.43
362.245	-58.88
362.456	31.23
362.667	64
362.879	14.85
363.09	-24.06
363.301	16.9
363.512	72.19
363.723	-81.41
363.935	33.28
364.146	102.91
364.357	25.09
364.568	-34.3
364.779	-93.69
364.99	123.39
365.201	37.38
365.412	82.43
365.623	-73.21
365.834	113.15
366.045	20.99
366.256	121.34
366.467	23.04
366.678	74.24
366.889	8.7
367.1	41.47
367.311	76.29
367.522	16.9
367.733	72.19
367.944	74.24
368.155	23.04
368.366	39.42
368.577	82.43
368.788	115.2
368.999	-54.78
369.209	8.7
369.42	180.73
369.631	203.26
369.842	98.81
370.053	6.66
370.264	82.43
370.474	-32.26
370.685	82.43
370.896	55.81
371.107	57.86
371.317	39.42
371.528	49.66
371.739	135.68
371.95	55.81
372.16	178.69
372.371	-67.07
372.582	61.95
372.792	135.68
373.003	74.24
373.214	55.81
373.424	23.04
373.635	41.47
373.846	178.69
374.056	-19.97
374.267	25.09
374.477	84.48
374.688	-42.5
374.898	-11.78
375.109	35.33
375.319	57.86
375.53	98.81
375.74	57.86
375.951	31.23
376.161	102.91
376.372	102.91
376.582	-48.64
376.793	88.57
377.003	16.9
377.214	37.38
377.424	49.66
377.635	8.7
377.845	88.57
378.055	127.49
378.266	33.28
378.476	20.99
378.686	43.52
378.897	70.14
379.107	154.11
379.317	68.09
379.528	-40.45
379.738	49.66
379.948	8.7
380.158	147.97
380.369	0.51
380.579	49.66
380.789	80.38
380.999	41.47
381.21	102.91
381.42	141.82
381.63	12.8
381.84	90.62
382.05	84.48
382.261	107.01
382.471	107.01
382.681	-32.26
382.891	96.77
383.101	82.43
383.311	41.47
383.521	33.28
383.731	104.96
383.941	88.57
384.151	82.43
384.361	14.85
384.571	41.47
384.781	10.75
384.991	55.81
385.201	180.73
385.411	80.38
385.621	41.47
385.831	29.18
386.041	-13.82
386.251	-17.92
386.461	104.96
386.671	10.75
386.881	117.25
387.091	53.76
387.301	86.53
387.511	29.18
387.72	66.05
387.93	41.47
388.14	-40.45
388.35	96.77
388.56	39.42
388.769	104.96
388.979	66.05
389.189	41.47
389.399	8.7
389.609	125.44
389.818	64
390.028	74.24
390.238	12.8
390.447	-5.63
390.657	64
390.867	31.23
391.076	-54.78
391.286	23.04
391.496	10.75
391.705	-9.73
391.915	88.57
392.125	74.24
392.334	14.85
392.544	141.82
392.753	78.33
392.963	27.14
393.172	6.66
393.382	-22.02
393.591	213.5
393.801	49.66
394.01	129.53
394.22	76.29
394.429	82.43
394.639	88.57
394.848	90.62
395.058	57.86
395.267	-24.06
395.477	39.42
395.686	74.24
395.895	156.16
396.105	90.62
396.314	41.47
396.524	55.81
396.733	133.63
396.942	115.2
397.152	20.99
397.361	96.77
397.57	88.57
397.78	-17.92
397.989	68.09
398.198	166.4
398.407	41.47
398.617	68.09
398.826	39.42
399.035	0.51
399.244	55.81
399.453	41.47
399.663	53.76
399.872	131.58
400.081	-9.73
400.29	147.97
400.499	-58.88
400.708	98.81
400.917	98.81
401.127	4.61
401.336	-3.58
401.545	180.73
401.754	203.26
401.963	94.72
402.172	14.85
402.381	16.9
402.59	113.15
402.799	129.53
403.008	82.43
403.217	55.81
403.426	90.62
403.635	-56.83
403.844	25.09
404.053	47.62
404.262	68.09
404.471	150.01
404.68	66.05
404.888	23.04
405.097	59.9
405.306	53.76
405.515	121.34
405.724	-26.11
405.933	119.29
406.142	45.57
406.35	113.15
406.559	47.62
406.768	90.62
406.977	102.91
407.185	104.96
407.394	57.86
407.603	-42.5
407.812	74.24
408.02	88.57
408.229	51.71
408.438	27.14
408.646	-52.74
408.855	49.66
409.064	102.91
409.272	-28.16
409.481	66.05
409.69	-11.78
409.898	-24.06
410.107	61.95
410.315	-3.58
410.524	0.51
410.733	111.1
410.941	35.33
411.15	35.33
411.358	94.72
411.567	242.17
411.775	33.28
411.984	33.28
412.192	90.62
412.401	-28.16
412.609	123.39
412.818	117.25
413.026	76.29
413.234	59.9
413.443	90.62
413.651	-9.73
413.86	64
414.068	125.44
414.276	66.05
414.485	88.57
414.693	158.21
414.901	150.01
415.11	61.95
415.318	25.09
415.526	-22.02
415.734	158.21
415.943	29.18
416.151	94.72
416.359	4.61
416.567	55.81
416.776	74.24
416.984	82.43
417.192	145.92
417.4	-15.87
417.608	29.18
417.817	-114.17
418.025	2.56
418.233	168.45
418.441	-62.98
418.649	-40.45
418.857	49.66
419.065	141.82
419.273	45.57
419.481	115.2
419.689	12.8
419.897	-28.16
420.105	-65.02
420.313	123.39
420.521	154.11
420.729	131.58
420.937	-77.31
421.145	-7.68
421.353	135.68
421.561	78.33
421.769	92.67
421.977	55.81
422.185	64
422.393	20.99
422.601	90.62
422.809	33.28
423.017	57.86
423.224	33.28
423.432	172.54
423.64	70.14
423.848	123.39
424.056	41.47
424.263	172.54
424.471	72.19
424.679	127.49
424.887	29.18
425.094	150.01
425.302	94.72
425.51	0.51
425.718	49.66
425.925	55.81
426.133	16.9
426.341	186.88
426.548	72.19
426.756	70.14
426.964	131.58
427.171	107.01
427.379	78.33
427.586	68.09
427.794	143.87
428.001	160.25
428.209	88.57
428.417	168.45
428.624	74.24
428.832	172.54
429.039	119.29
429.247	59.9
429.454	115.2
429.662	180.73
429.869	129.53
430.076	213.5
430.284	107.01
430.491	215.55
430.699	160.25
430.906	170.49
431.114	143.87
431.321	109.05
431.528	188.93
431.736	147.97
431.943	203.26
432.15	199.16
432.358	164.35
432.565	238.08
432.772	57.86
432.979	227.84
433.187	233.98
433.394	215.55
433.601	131.58
433.808	317.95
434.016	254.46
434.223	180.73
434.43	229.88
434.637	299.52
434.844	246.27
435.052	188.93
435.259	322.04
435.466	276.99
435.673	246.27
435.88	274.94
436.087	266.75
436.294	393.72
436.501	406.01
436.708	307.71
436.915	328.19
437.122	346.62
437.329	274.94
437.537	375.29
437.743	352.76
437.95	449.02
438.157	401.91
438.364	414.2
438.571	436.73
438.778	446.97
438.985	518.65
439.192	532.98
439.399	524.79
439.606	430.59
439.813	582.14
440.02	623.09
440.227	717.3
440.433	647.67
440.64	619
440.847	532.98
441.054	678.39
441.261	750.07
441.467	745.97
441.674	647.67
441.881	793.08
442.088	760.31
442.294	838.13
442.501	831.99
442.708	807.41
442.914	887.28
443.121	926.19
443.328	975.35
443.534	1071.6
443.741	942.58
443.948	926.19
444.154	1079.79
444.361	1231.34
444.568	1245.68
444.774	1188.33
444.981	1118.7
445.187	1337.84
445.394	1327.6
445.6	1243.63
445.807	1516.01
446.013	1425.9
446.22	1389.03
446.426	1513.96
446.633	1663.46
446.839	1749.48
447.046	1620.46
447.252	1806.82
447.459	1931.75
447.665	1946.08
447.871	2073.06
448.078	2138.59
448.284	2236.89
448.491	2243.04
448.697	2349.53
448.903	2421.21
449.11	2357.72
449.316	2458.07
449.522	2671.06
449.728	2703.83
449.935	2785.75
450.141	2931.16
450.347	3133.9
450.553	3125.71
450.76	3138
450.966	3213.77
451.172	3334.61
451.378	3561.93
451.584	3621.32
451.791	3856.84
451.997	3899.84
452.203	3938.76
452.409	4137.41
452.615	4405.69
452.821	4340.16
453.027	4284.86
453.233	4774.33
453.44	4747.7
453.646	5077.43
453.852	5175.73
454.058	5390.77
454.264	5736.87
454.47	5902.76
454.676	6111.65
454.882	6554.01
455.088	6224.29
455.294	6703.51
455.5	6963.61
455.705	7481.74
455.911	7408.01
456.117	7688.59
456.323	7815.56
456.529	8036.74
456.735	8647.04
456.941	8649.08
457.147	8898.94
457.352	9199.99
457.558	9824.62
457.764	10082.66
457.97	10402.15
458.176	10928.47
458.381	11329.88
458.587	11538.77
458.793	12241.22
458.999	12222.79
459.204	13672.75
459.41	14031.15
459.616	13877.55
459.821	14819.61
460.027	15726.86
460.233	16236.81
460.438	16347.4
460.644	17086.72
460.85	16943.36
461.055	18313.45
461.261	18888.93
461.466	18716.9
461.672	18776.29
461.878	21362.87
462.083	21080.25
462.289	21143.74
462.494	22313.13
462.7	22055.09
462.905	22651.05
463.111	24498.31
463.316	25809.01
463.522	25911.41
463.727	26894.44
463.932	27609.18
464.138	28674.12
464.343	29919.29
464.549	30206
464.754	32274.45
464.959	32843.79
465.165	33693.69
465.37	33570.82
465.575	33105.93
465.781	35778.53
465.986	36882.38
466.191	35993.56
466.397	36687.82
466.602	35571.68
466.807	37625.79
467.012	38375.35
467.218	39012.27
467.423	39010.22
467.628	39784.35
467.833	41889.66
468.038	41455.5
468.244	40482.71
468.449	42575.73
468.654	41428.87
468.859	41891.71
469.064	41992.06
469.269	40773.52
469.474	41357.19
469.679	42092.41
469.885	40843.15
470.09	41578.37
470.295	41996.16
470.5	40982.41
470.705	41050
470.91	39604.13
471.115	39727.01
471.32	40189.85
471.525	39581.6
471.73	38680.5
471.935	38508.47
472.139	37066.7
472.344	37195.72
472.549	37541.83
472.754	36177.88
472.959	35680.22
473.164	34502.64
473.369	33990.65
473.574	34535.41
473.778	34459.63
473.983	33486.85
474.188	32808.97
474.393	31004.71
474.598	31176.74
474.802	30447.66
475.007	30003.25
475.212	29769.79
475.417	28491.85
475.621	28174.42
475.826	28248.14
476.031	27400.29
476.235	26837.09
476.44	26914.92
476.645	26249.33
476.849	25692.28
477.054	25624.7
477.259	24877.19
477.463	24873.09
477.668	24182.93
477.872	24066.19
478.077	23777.43
478.282	22950.05
478.486	22438.06
478.691	22483.11
478.895	22253.74
479.1	22036.66
479.304	21932.21
479.509	21221.56
479.713	21422.27
479.918	20861.12
480.122	20668.61
480.326	20854.98
480.531	20824.26
480.735	20220.11
480.94	20250.83
481.144	20971.71
481.348	19785.94
481.553	19646.68
481.757	19208.41
481.961	19306.71
482.166	19984.59
482.37	19013.85
482.574	18983.13
482.778	18888.93
482.983	19206.36
483.187	18843.87
483.391	18426.09
483.595	18082.03
483.8	18116.84
484.004	18139.37
484.208	18149.61
484.412	17733.87
484.616	17535.22
484.821	17375.48
485.025	17000.7
485.229	17027.32
485.433	16849.15
485.637	16580.87
485.841	16193.8
486.045	16298.25
486.249	16064.78
486.453	15649.04
486.657	15327.51
486.861	15380.76
487.065	14795.04
487.269	14819.61
487.473	14385.44
487.677	14762.27
487.881	14397.73
488.085	13785.39
488.289	13885.74
488.493	13400.37
488.697	13439.28
488.901	13216.05
489.105	12681.53
489.309	12577.09
489.512	12624.19
489.716	12255.56
489.92	11960.65
490.124	11809.1
490.328	11768.14
490.531	11389.27
490.735	11278.68
490.939	10817.88
491.143	10862.94
491.346	10527.07
491.55	10537.31
491.754	10191.2
491.958	10217.83
492.161	9929.06
492.365	9910.63
492.569	9795.95
492.772	9443.7
492.976	9562.48
493.18	9224.56
493.383	9027.96
493.587	9146.74
493.79	9189.75
493.994	8939.9
494.197	8657.28
494.401	8683.9
494.605	8571.26
494.808	8786.3
495.012	8655.23
495.215	8561.02
495.419	8556.93
495.622	8425.86
495.825	8264.07
496.029	8290.69
496.232	8462.72
496.436	8151.43
496.639	8284.55
496.843	8163.72
497.046	8311.17
497.249	8311.17
497.453	8364.42
497.656	8184.2
497.859	8196.48
498.063	8272.26
498.266	8202.63
498.469	8137.09
498.673	8243.59
498.876	8266.11
499.079	8294.79
499.282	8085.89
499.485	8556.93
499.689	8427.9
499.892	8663.42
500.095	8397.18
500.298	8833.4
500.501	8601.98
500.705	8919.42
500.908	8984.95
501.111	8939.9
501.314	9040.25
501.517	9208.18
501.72	9202.04
501.923	9216.37
502.126	9548.14
502.329	9736.56
502.532	9728.36
502.735	9574.77
502.938	9980.26
503.141	9945.45
503.344	9967.98
503.547	10178.92
503.75	10303.84
503.953	10459.49
504.156	10684.76
504.359	10582.37
504.562	10846.55
504.765	11034.97
504.968	11342.16
505.17	11598.16
505.373	11688.27
505.576	11614.54
505.779	11979.08
505.982	11917.64
506.185	12613.95
506.387	12478.79
506.59	12765.5
506.793	13238.58
506.996	13095.22
507.198	13582.64
507.401	13678.9
507.604	14055.72
507.807	14256.42
508.009	14610.72
508.212	15042.84
508.415	15311.13
508.617	15655.19
508.82	15909.13
509.022	15761.68
509.225	16331.01
509.428	16740.61
509.63	16955.65
509.833	17555.7
510.035	18280.68
510.238	17928.43
510.44	18448.61
510.643	19222.75
510.845	19443.93
511.048	19792.08
511.25	20113.61
511.453	20437.19
511.655	21657.78
511.858	21698.74
512.06	22272.17
512.262	22589.61
512.465	22831.27
512.667	23658.65
512.87	24164.5
513.072	24201.36
513.274	25454.72
513.477	25811.06
513.679	26144.88
513.881	26820.71
514.084	27412.57
514.286	28117.07
514.488	28698.7
514.69	29433.92
514.893	30287.92
515.095	30488.62
515.297	30971.94
515.499	31604.77
515.701	32677.9
515.904	32962.57
516.106	33581.06
516.308	34439.15
516.51	35325.92
516.712	35604.45
516.914	36702.16
517.116	37482.44
517.318	38027.2
517.52	38678.45
517.722	39380.9
517.925	40263.58
518.127	40888.21
518.329	41699.2
518.531	41934.72
518.733	42878.83
518.935	43392.87
519.136	44111.71
519.338	44924.75
519.54	45516.62
519.742	46706.49
519.944	46942
520.146	47929.12
520.348	48293.66
520.55	48721.69
520.752	49131.28
520.954	50355.97
521.155	50298.62
521.357	51308.27
521.559	51570.41
521.761	52365.02
521.963	52889.3
522.164	53475.02
522.366	53442.26
522.568	53841.61
522.77	54535.87
522.971	55307.96
523.173	54795.96
523.375	55520.94
523.576	55813.8
523.778	55666.35
523.98	56260.26
524.181	56809.12
524.383	56956.57
524.584	57347.73
524.786	56770.21
524.988	56942.24
525.189	57861.77
525.391	57747.09
525.592	57628.3
525.794	57448.08
525.995	57935.5
526.197	57685.65
526.398	57550.48
526.6	57749.13
526.801	57714.32
527.003	57532.05
527.204	56833.69
527.406	57517.71
527.607	56676
527.808	56905.37
528.01	55873.2
528.211	56127.14
528.412	56641.18
528.614	55768.75
528.815	55320.24
529.016	55617.2
529.218	54109.89
529.419	54298.31
529.62	53716.68
529.822	53040.85
530.023	52336.35
530.224	52496.09
530.425	51678.96
530.626	51039.99
530.828	50624.25
531.029	51406.58
531.23	49760.01
531.431	49168.15
531.632	48879.38
531.833	48371.49
532.035	48277.28
532.236	47593.26
532.437	47179.57
532.638	45805.38
532.839	45920.07
533.04	45610.82
533.241	44119.9
533.442	44967.76
533.643	43784.04
533.844	42829.68
534.045	42866.55
534.246	41670.53
534.447	41817.99
534.648	40689.56
534.849	40126.36
535.05	39477.16
535.251	39241.64
535.451	38862.77
535.652	38377.4
535.853	37674.95
536.054	37267.4
536.255	36685.78
536.456	35991.51
536.657	36210.65
536.857	35645.41
537.058	34736.11
537.259	34938.86
537.46	33949.69
537.66	33611.78
537.861	33042.44
538.062	32763.92
538.263	32634.89
538.463	32313.36
538.664	31672.35
538.865	31150.12
539.065	31078.44
539.266	30191.67
539.466	30271.54
539.667	29364.29
539.868	29403.2
540.068	28784.71
540.269	28340.3
540.469	28188.75
540.67	28096.6
540.87	27523.16
541.071	27394.14
541.271	27314.27
541.472	27070.56
541.672	26411.12
541.873	26044.53
542.073	25634.94
542.274	25661.56
542.474	25116.8
542.675	25133.18
542.875	24746.12
543.075	24600.71
543.276	23998.61
543.476	24023.19
543.676	23539.86
543.877	23218.33
544.077	23066.78
544.277	23234.72
544.478	22444.2
544.678	22593.7
544.878	22145.2
545.078	22104.24
545.279	21401.79
545.479	21369.02
545.679	20934.85
545.879	20996.29
546.079	20496.58
546.28	20074.7
546.48	20396.23
546.68	20064.46
546.88	19591.38
547.08	19597.52
547.28	19214.55
547.48	18938.08
547.68	18811.1
547.88	18264.3
548.081	18536.68
548.281	18145.52
548.481	17752.31
548.681	18053.36
548.881	17438.97
549.081	17443.06
549.28	16922.88
549.48	16926.97
549.68	16726.27
549.88	16535.81
550.08	16044.3
550.28	15894.8
550.48	15812.88
550.68	15540.5
550.88	15530.26
551.08	15163.67
551.279	15081.75
551.479	14379.3
551.679	14340.39
551.879	14197.03
552.079	14139.69
552.278	13615.41
552.478	13746.48
552.678	13670.7
552.878	13295.93
553.077	12947.77
553.277	12636.48
553.477	12855.61
553.676	12419.39
553.876	12235.08
554.076	11639.12
554.275	11868.49
554.475	11379.03
554.674	11520.34
554.874	11424.08
555.074	10879.32
555.273	10819.93
555.473	10879.32
555.672	10701.15
555.872	10301.79
556.071	10459.49
556.271	10326.37
556.47	9935.21
556.67	9603.44
556.869	9529.71
557.068	9470.32
557.268	9374.06
557.467	9027.96
557.667	9156.98
557.866	8823.16
558.065	8565.12
558.265	8593.79
558.464	8522.11
558.663	8253.83
558.863	8135.04
559.062	8235.39
559.261	8018.31
559.461	7864.71
559.66	7590.28
559.859	7553.42
560.058	7381.39
560.258	7211.41
560.457	7180.69
560.656	7383.44
560.855	6920.6
561.054	7086.48
561.253	6807.96
561.453	6590.88
561.652	6609.31
561.851	6480.29
562.05	6568.35
562.249	6160.8
562.448	6252.96
562.647	6033.83
562.846	5822.89
563.045	5984.68
563.244	5718.44
563.443	5816.74
563.642	5427.63
563.841	5552.56
564.04	5509.55
564.239	5370.29
564.438	5085.62
564.637	5118.39
564.836	5165.49
565.035	4946.36
565.234	5132.72
565.432	4866.49
565.631	4868.53
565.83	4796.85
566.029	4739.51
566.228	4485.56
566.427	4741.56
566.625	4336.06
566.824	4538.81
567.023	4317.63
567.222	4170.18
567.42	4211.14
567.619	4080.07
567.818	4164.03
568.016	4161.98
568.215	3895.75
568.414	4020.67
568.612	4004.29
568.811	3854.79
569.01	3785.16
569.208	3791.3
569.407	3717.58
569.605	3527.11
569.804	3701.19
570.002	3535.31
570.201	3320.27
570.4	3473.87
570.598	3342.8
570.797	3232.21
570.995	3285.45
571.193	3129.81
571.392	3389.9
571.59	3047.89
571.789	3230.16
571.987	3039.7
572.186	2888.15
572.384	2945.49
572.582	2863.57
572.781	2836.95
572.979	2814.42
573.177	2818.52
573.376	2750.93
573.574	2757.08
573.772	2646.49
573.971	2660.82
574.169	2484.7
574.367	2499.03
574.565	2492.89
574.763	2507.23
574.962	2288.09
575.16	2460.12
575.358	2253.28
575.556	2304.48
575.754	2251.23
575.952	2236.89
576.151	2179.55
576.349	2118.11
576.547	2089.44
576.745	2064.86
576.943	2132.45
577.141	1991.14
577.339	1876.45
577.537	1966.56
577.735	1937.89
577.933	1913.31
578.131	1796.58
578.329	2021.86
578.527	1685.99
578.725	1812.96
578.923	1692.13
579.121	1718.76
579.319	1548.78
579.516	1677.8
579.714	1753.57
579.912	1757.67
580.11	1612.26
580.308	1585.64
580.506	1450.47
580.704	1409.51
580.901	1346.03
581.099	1571.3
581.297	1589.74
581.495	1364.46
581.692	1393.13
581.89	1544.68
582.088	1425.9
582.285	1335.79
582.483	1303.02
582.681	1341.93
582.878	1370.6
583.076	1311.21
583.274	1210.86
583.471	1360.36
583.669	1243.63
583.866	1112.56
584.064	1090.03
584.262	1180.14
584.459	1116.65
584.657	1130.99
584.854	1171.95
585.052	1212.91
585.249	1231.34
585.447	1090.03
585.644	979.44
585.841	1112.56
586.039	1122.8
586.236	1057.26
586.434	1008.11
586.631	1018.35
586.828	932.34
587.026	1001.97
587.223	870.9
587.42	940.53
587.618	954.87
587.815	1069.55
588.012	864.75
588.21	946.67
588.407	934.39
588.604	936.43
588.801	899.57
588.999	924.15
589.196	920.05
589.393	885.23
589.59	907.76
589.787	961.01
589.984	868.85
590.182	823.8
590.379	786.93
590.576	852.47
590.773	893.43
590.97	791.03
591.167	774.64
591.364	868.85
591.561	770.55
591.758	836.08
591.955	825.84
592.152	846.32
592.349	725.49
592.546	774.64
592.743	776.69
592.94	786.93
593.137	760.31
593.334	834.04
593.531	881.14
593.727	823.8
593.924	881.14
594.121	756.21
594.318	844.28
594.515	733.68
594.712	911.86
594.908	754.16
595.105	727.54
595.302	840.18
595.499	909.81
595.696	987.63
595.892	860.66
596.089	909.81
596.286	915.95
596.482	922.1
596.679	1044.98
596.876	918
597.072	1022.45
597.269	961.01
597.466	1110.51
597.662	1059.31
597.859	1044.98
598.055	1169.9
598.252	1245.68
598.448	1253.87
598.645	1384.94
598.841	1343.98
599.038	1389.03
599.234	1444.33
599.431	1409.51
599.627	1491.43
599.824	1575.4
600.02	1528.3
600.217	1710.57
600.413	1669.61
600.609	1817.06
600.806	1987.04
601.002	1978.85
601.198	2007.52
601.395	2220.51
601.591	2175.45
601.787	2146.78
601.984	2300.38
602.18	2341.34
602.376	2470.36
602.572	2644.44
602.769	2644.44
602.965	2693.59
603.161	2810.33
603.357	2953.68
603.553	3064.27
603.75	3156.43
603.946	3269.07
604.142	3379.66
604.338	3586.51
604.534	3545.55
604.73	3731.91
604.926	3819.97
605.122	4065.73
605.318	4032.96
605.514	4393.4
605.71	4415.93
605.906	4547
606.102	4563.39
606.298	4891.06
606.494	4958.64
606.69	5054.9
606.886	5145.01
607.082	5312.94
607.278	5542.32
607.474	5624.23
607.67	5765.54
607.866	5792.17
608.062	6324.64
608.257	6197.67
608.453	6255.01
608.649	6564.25
608.845	6723.99
609.041	6951.32
609.236	7033.24
609.432	7504.27
609.628	7707.02
609.824	7709.07
610.019	7930.25
610.215	8046.98
610.411	8542.59
610.606	8610.17
610.802	9132.4
610.998	8909.18
611.193	9331.06
611.389	9517.42
611.584	9863.53
611.78	10076.52
611.976	10348.9
612.171	10719.58
612.367	10821.98
612.562	11129.17
612.758	11241.81
612.953	11553.1
613.149	12009.8
613.344	12249.41
613.539	12861.76
613.735	13140.28
613.93	13287.73
614.126	13599.02
614.321	14084.39
614.517	14405.92
614.712	14899.48
614.907	15065.37
615.103	15599.89
615.298	15644.95
615.493	16331.01
615.688	16429.32
615.884	17438.97
616.079	17516.79
616.274	18329.83
616.47	18266.35
616.665	18833.63
616.86	19284.19
617.055	19726.55
617.25	20136.14
617.445	21149.89
617.641	21166.27
617.836	21586.1
618.031	21999.79
618.226	23199.9
618.421	23382.17
618.616	24234.13
618.811	24459.4
619.006	25135.23
619.201	25397.37
619.396	26275.95
619.591	26380.4
619.786	27678.81
619.981	27725.91
620.176	28536.91
620.371	28977.22
620.566	29898.81
620.761	30101.56
620.956	31295.52
621.151	31240.23
621.346	32489.49
621.541	32446.48
621.735	33570.82
621.93	33695.74
622.125	34576.37
622.32	34600.94
622.515	35747.81
622.709	35885.02
622.904	37341.13
623.099	37580.74
623.294	38541.24
623.488	38717.36
623.683	39743.39
623.878	39491.49
624.072	40605.59
624.267	41224.07
624.462	41873.28
624.656	42293.11
624.851	43149.17
625.046	43546.47
625.24	44416.86
625.435	44787.54
625.629	45643.59
625.824	45956.93
626.018	47126.32
626.213	46405.44
626.407	47529.77
626.602	47638.31
626.796	48961.3
626.991	48936.73
627.185	49700.62
627.38	49522.44
627.574	49723.15
627.768	50040.58
627.963	49981.19
628.157	50372.35
628.352	51214.07
628.546	50573.05
628.74	51291.89
628.935	50575.1
629.129	51087.09
629.323	50267.9
629.517	50272
629.712	50380.54
629.906	49653.51
630.1	49104.66
630.294	49037.08
630.489	47937.32
630.683	48260.9
630.877	46565.18
631.071	46403.39
631.265	45803.33
631.459	44617.56
631.653	43925.35
631.848	43112.3
632.042	41797.51
632.236	41256.84
632.43	39544.74
632.624	38856.62
632.818	37730.24
633.012	36630.48
633.206	35491.81
633.4	34641.9
633.594	33005.58
633.788	32430.1
633.982	31381.54
634.176	30316.59
634.369	28794.95
634.563	27723.86
634.757	26626.15
634.951	25829.49
635.145	24717.45
635.339	24017.04
635.533	22823.08
635.726	22323.37
635.92	20975.81
636.114	20285.64
636.308	19476.69
636.501	18606.31
636.695	18135.28
636.889	17352.95
637.083	16457.99
637.276	15929.61
637.47	15225.11
637.664	14358.82
637.857	14074.15
638.051	13728.05
638.244	12929.34
638.438	12679.49
638.632	12036.42
638.825	11376.98
639.019	10979.67
639.212	10649.95
639.406	9959.78
639.599	9503.09
639.793	9388.4
639.986	8984.95
640.18	8679.8
640.373	8214.91
640.567	7881.1
640.76	7698.83
640.954	7254.42
641.147	6896.02
641.34	6717.85
641.534	6631.83
641.727	6511
641.92	6033.83
642.114	5990.82
642.307	5775.78
642.5	5353.9
642.694	5216.69
642.887	4960.69
643.08	4987.32
643.273	4657.59
643.467	4526.52
643.66	4170.18
643.853	4061.63
644.046	4028.87
644.239	3828.17
644.432	3631.56
644.626	3543.5
644.819	3367.37
645.012	3273.17
645.205	3195.34
645.398	3090.9
645.591	2998.74
645.784	2804.18
645.977	2722.26
646.17	2599.38
646.363	2542.04
646.556	2413.02
646.749	2300.38
646.942	2281.95
647.135	2159.07
647.328	2023.91
647.521	2142.69
647.714	1927.65
647.907	1901.03
648.099	1790.44
648.292	1786.34
648.485	1745.38
648.678	1571.3
648.871	1520.1
649.064	1481.19
649.256	1294.83
649.449	1429.99
649.642	1260.01
649.835	1260.01
650.027	1229.29
650.22	1300.97
650.413	1139.18
650.605	1135.09
650.798	1102.32
650.991	1139.18
651.183	1022.45
651.376	1022.45
651.568	1047.02
651.761	825.84
651.954	897.52
652.146	893.43
652.339	956.91
652.531	860.66
652.724	700.92
652.916	807.41
653.109	684.53
653.301	795.12
653.494	819.7
653.686	727.54
653.879	819.7
654.071	655.86
654.263	561.66
654.456	584.18
654.648	709.11
654.84	612.85
655.033	473.59
655.225	723.44
655.417	322.04
655.61	596.47
655.802	500.22
655.994	571.9
656.186	422.39
656.379	500.22
656.571	418.3
656.763	457.21
656.955	432.63
657.148	424.44
657.34	504.31
657.532	434.68
657.724	426.49
657.916	446.97
658.108	475.64
658.3	492.02
658.492	469.5
658.684	313.85
658.876	410.11
659.068	313.85
659.26	301.56
659.452	258.56
659.644	324.09
659.836	408.06
660.028	342.52
660.22	279.04
660.412	270.84
660.604	270.84
660.796	299.52
660.988	363
661.18	287.23
661.372	377.34
661.563	274.94
661.755	262.65
661.947	285.18
662.139	262.65
662.331	238.08
662.522	320
662.714	156.16
662.906	207.36
663.097	168.45
663.289	176.64
663.481	160.25
663.673	279.04
663.864	121.34
664.056	262.65
664.247	219.64
664.439	270.84
664.631	227.84
664.822	303.61
665.014	238.08
665.205	111.1
665.397	156.16
665.588	195.07
665.78	272.89
665.971	358.91
666.163	133.63
666.354	180.73
666.546	164.35
666.737	184.83
666.929	147.97
667.12	231.93
667.311	229.88
667.503	141.82
667.694	254.46
667.885	154.11
668.077	248.32
668.268	147.97
668.459	160.25
668.651	168.45
668.842	203.26
669.033	188.93
669.224	139.77
669.416	311.8
669.607	172.54
669.798	197.12
669.989	283.13
670.18	96.77
670.371	244.22
670.563	152.06
670.754	238.08
670.945	242.17
671.136	262.65
671.327	123.39
671.518	266.75
671.709	387.58
671.9	252.41
672.091	281.08
672.282	238.08
672.473	279.04
672.664	150.01
672.855	188.93
673.046	291.32
673.237	317.95
673.428	203.26
673.619	289.28
673.809	176.64
674	219.64
674.191	246.27
674.382	109.05
674.573	268.8
674.764	258.56
674.954	336.38
675.145	229.88
675.336	147.97
675.527	211.45
675.717	199.16
675.908	238.08
676.099	262.65
676.289	346.62
676.48	170.49
676.671	238.08
676.861	276.99
677.052	311.8
677.243	154.11
677.433	283.13
677.624	350.71
677.814	324.09
678.005	289.28
678.195	375.29
678.386	252.41
678.576	317.95
678.767	223.74
678.957	303.61
679.148	375.29
679.338	379.39
679.529	326.14
679.719	352.76
679.909	373.24
680.1	475.64
680.29	365.05
680.481	190.97
680.671	449.02
680.861	352.76
681.052	315.9
681.242	283.13
681.432	383.48
681.622	430.59
681.813	303.61
682.003	317.95
682.193	258.56
682.383	342.52
682.573	406.01
682.764	338.43
682.954	369.15
683.144	369.15
683.334	324.09
683.524	385.53
683.714	418.3
683.904	399.87
684.094	412.15
684.284	324.09
684.474	489.98
684.664	403.96
684.854	465.4
685.044	344.57
685.234	356.86
685.424	442.87
685.614	432.63
685.804	500.22
685.994	422.39
686.184	442.87
686.374	381.43
686.564	395.77
686.753	479.74
686.943	309.76
687.133	336.38
687.323	342.52
687.513	561.66
687.702	334.33
687.892	412.15
688.082	459.26
688.272	410.11
688.461	383.48
688.651	555.51
688.841	477.69
689.03	399.87
689.22	375.29
689.41	434.68
689.599	408.06
689.789	287.23
689.979	580.09
690.168	320
690.358	381.43
690.547	424.44
690.737	367.1
690.926	369.15
691.116	338.43
691.305	479.74
691.495	434.68
691.684	328.19
691.874	346.62
692.063	449.02
692.252	465.4
692.442	459.26
692.631	371.19
692.82	328.19
693.01	338.43
693.199	406.01
693.388	303.61
693.578	315.9
693.767	397.82
693.956	360.95
694.146	313.85
694.335	352.76
694.524	408.06
694.713	442.87
694.902	363
695.092	303.61
695.281	442.87
695.47	287.23
695.659	342.52
695.848	369.15
696.037	324.09
696.226	401.91
696.415	307.71
696.604	426.49
696.793	334.33
696.982	295.42
697.171	408.06
697.36	358.91
697.549	295.42
697.738	242.17
697.927	305.66
698.116	285.18
698.305	309.76
698.494	418.3
698.683	303.61
698.872	416.25
699.061	367.1
699.25	274.94
699.438	406.01
699.627	268.8
699.816	532.98
700.005	346.62
700.193	320
700.382	360.95
700.571	422.39
700.76	442.87
700.948	412.15
701.137	342.52
701.326	403.96
701.514	297.47
701.703	344.57
701.892	410.11
702.08	532.98
702.269	375.29
702.457	213.5
702.646	330.23
702.834	377.34
703.023	424.44
703.212	340.47
703.4	240.12
703.589	254.46
703.777	311.8
703.965	332.28
704.154	328.19
704.342	188.93
704.531	350.71
704.719	377.34
704.907	369.15
705.096	272.89
705.284	233.98
705.472	317.95
705.661	422.39
705.849	328.19
706.037	410.11
706.226	268.8
706.414	365.05
706.602	307.71
706.79	426.49
706.979	291.32
707.167	346.62
707.355	221.69
707.543	442.87
707.731	391.67
707.919	401.91
708.107	295.42
708.296	301.56
708.484	246.27
708.672	385.53
708.86	326.14
709.048	383.48
709.236	223.74
709.424	356.86
709.612	383.48
709.8	205.31
709.988	430.59
710.176	406.01
710.364	426.49
710.551	299.52
710.739	334.33
710.927	332.28
711.115	305.66
711.303	432.63
711.491	406.01
711.679	231.93
711.866	430.59
712.054	342.52
712.242	385.53
712.43	412.15
712.617	297.47
712.805	422.39
712.993	289.28
713.181	223.74
713.368	350.71
713.556	336.38
713.744	279.04
713.931	516.6
714.119	420.35
714.306	334.33
714.494	354.81
714.682	360.95
714.869	231.93
715.057	313.85
715.244	309.76
715.432	350.71
715.619	350.71
715.807	330.23
715.994	352.76
716.182	389.63
716.369	481.78
716.556	387.58
716.744	272.89
716.931	244.22
717.119	412.15
717.306	426.49
717.493	328.19
717.681	365.05
717.868	369.15
718.055	365.05
718.242	367.1
718.43	393.72
718.617	463.35
718.804	424.44
718.991	453.11
719.179	410.11
719.366	418.3
719.553	344.57
719.74	338.43
719.927	295.42
720.114	365.05
720.301	356.86
720.488	367.1
720.676	352.76
720.863	416.25
721.05	475.64
721.237	406.01
721.424	438.78
721.611	449.02
721.798	354.81
721.985	444.92
722.172	383.48
722.358	412.15
722.545	428.54
722.732	418.3
722.919	516.6
723.106	422.39
723.293	350.71
723.48	363
723.667	414.2
723.853	479.74
724.04	463.35
724.227	436.73
724.414	352.76
724.6	451.07
724.787	524.79
724.974	492.02
725.161	399.87
725.347	375.29
725.534	426.49
725.72	541.18
725.907	541.18
726.094	428.54
726.28	506.36
726.467	375.29
726.653	309.76
726.84	516.6
727.027	463.35
727.213	446.97
727.4	508.41
727.586	465.4
727.773	401.91
727.959	440.83
728.145	440.83
728.332	469.5
728.518	406.01
728.705	508.41
728.891	586.23
729.077	459.26
729.264	389.63
729.45	459.26
729.636	565.75
729.823	446.97
730.009	590.33
730.195	528.89
730.382	473.59
730.568	348.67
730.754	565.75
730.94	500.22
731.126	500.22
731.313	485.88
731.499	356.86
731.685	485.88
731.871	449.02
732.057	479.74
732.243	582.14
732.429	469.5
732.615	524.79
732.801	465.4
732.987	442.87
733.173	524.79
733.359	414.2
733.545	457.21
733.731	467.45
733.917	549.37
734.103	477.69
734.289	483.83
734.475	483.83
734.661	541.18
734.847	520.7
735.033	520.7
735.219	522.74
735.404	446.97
735.59	512.5
735.776	463.35
735.962	438.78
736.148	492.02
736.333	633.33
736.519	463.35
736.705	498.17
736.89	504.31
737.076	498.17
737.262	457.21
737.447	401.91
737.633	508.41
737.819	535.03
738.004	520.7
738.19	524.79
738.375	553.46
738.561	500.22
738.747	483.83
738.932	457.21
739.118	604.66
739.303	561.66
739.489	508.41
739.674	508.41
739.859	492.02
740.045	522.74
740.23	449.02
740.416	375.29
740.601	602.61
740.786	516.6
740.972	412.15
741.157	408.06
741.342	426.49
741.528	410.11
741.713	559.61
741.898	481.78
742.084	520.7
742.269	442.87
742.454	614.9
742.639	492.02
742.824	569.85
743.01	619
743.195	567.8
743.38	459.26
743.565	410.11
743.75	522.74
743.935	551.42
744.12	584.18
744.305	459.26
744.49	420.35
744.675	463.35
744.86	475.64
745.045	516.6
745.23	483.83
745.415	483.83
745.6	573.94
745.785	449.02
745.97	508.41
746.155	510.46
746.34	483.83
746.525	496.12
746.71	485.88
746.895	434.68
747.079	373.24
747.264	381.43
747.449	451.07
747.634	516.6
747.819	442.87
748.003	451.07
748.188	360.95
748.373	512.5
748.557	463.35
748.742	510.46
748.927	430.59
749.111	393.72
749.296	440.83
749.481	487.93
749.665	410.11
749.85	365.05
750.034	467.45
750.219	461.3
750.404	340.47
750.588	348.67
750.773	358.91
750.957	406.01
751.141	369.15
751.326	471.54
751.51	266.75
751.695	344.57
751.879	375.29
752.064	483.83
752.248	377.34
752.432	446.97
752.617	403.96
752.801	406.01
752.985	313.85
753.17	328.19
753.354	344.57
753.538	299.52
753.722	305.66
753.907	266.75
754.091	270.84
754.275	334.33
754.459	272.89
754.643	254.46
754.828	320
755.012	369.15
755.196	258.56
755.38	342.52
755.564	254.46
755.748	322.04
755.932	367.1
756.116	363
756.3	199.16
756.484	297.47
756.668	403.96
756.852	221.69
757.036	322.04
757.22	317.95
757.404	295.42
757.588	236.03
757.772	403.96
757.956	264.7
758.14	395.77
758.323	252.41
758.507	238.08
758.691	238.08
758.875	348.67
759.059	381.43
759.242	264.7
759.426	279.04
759.61	303.61
759.794	217.6
759.977	270.84
760.161	465.4
760.345	360.95
760.528	295.42
760.712	274.94
760.895	270.84
761.079	205.31
761.263	244.22
761.446	236.03
761.63	193.02
761.813	320
761.997	131.58
762.18	217.6
762.364	246.27
762.547	225.79
762.731	170.49
762.914	213.5
763.098	203.26
763.281	246.27
763.464	168.45
763.648	203.26
763.831	156.16
764.015	156.16
764.198	258.56
764.381	238.08
764.564	238.08
764.748	209.4
764.931	178.69
765.114	279.04
765.297	293.37
765.481	176.64
765.664	154.11
765.847	225.79
766.03	340.47
766.213	172.54
766.397	172.54
766.58	55.81
766.763	186.88
766.946	176.64
767.129	160.25
767.312	113.15
767.495	223.74
767.678	164.35
767.861	180.73
768.044	213.5
768.227	150.01
768.41	145.92
768.593	213.5
768.776	209.4
768.959	203.26
769.142	276.99
769.324	127.49
769.507	233.98
769.69	141.82
769.873	203.26
770.056	356.86
770.239	143.87
770.421	320
770.604	141.82
770.787	121.34
770.97	147.97
771.152	55.81
771.335	211.45
771.518	64
771.7	168.45
771.883	225.79
772.066	156.16
772.248	104.96
772.431	317.95
772.613	68.09
772.796	107.01
772.978	193.02
773.161	205.31
773.343	152.06
773.526	147.97
773.708	43.52
773.891	90.62
774.073	100.86
774.256	127.49
774.438	274.94
774.621	41.47
774.803	160.25
774.985	123.39
775.168	98.81
775.35	29.18
775.532	254.46
775.715	23.04
775.897	184.83
776.079	98.81
776.261	123.39
776.444	98.81
776.626	111.1
776.808	111.1
776.99	80.38
777.173	113.15
777.355	139.77
777.537	80.38
777.719	135.68
777.901	10.75
778.083	111.1
778.265	82.43
778.447	98.81
778.629	109.05
778.811	131.58
778.993	170.49
779.175	139.77
779.357	90.62
779.539	31.23
779.721	137.73
779.903	156.16
780.085	59.9
780.267	102.91
780.449	102.91
780.631	160.25
780.812	252.41
780.994	115.2
781.176	102.91
781.358	-19.97
781.54	37.38
781.721	88.57
781.903	186.88
782.085	29.18
782.267	119.29
782.448	6.66
782.63	94.72
782.812	78.33
782.993	121.34
783.175	98.81
783.357	70.14
783.538	156.16
783.72	14.85
783.901	174.59
784.083	139.77
784.264	61.95
784.446	39.42
784.627	8.7
784.809	188.93
784.99	61.95
785.172	74.24
785.353	8.7
785.535	61.95
785.716	74.24
785.897	0.51
786.079	49.66
786.26	113.15
786.441	90.62
786.623	-30.21
786.804	-44.54
786.985	23.04
787.167	94.72
787.348	-19.97
787.529	94.72
787.71	156.16
787.891	94.72
788.073	-7.68
788.254	-56.83
788.435	139.77
788.616	90.62
788.797	-15.87
788.978	64
789.159	8.7
789.34	45.57
789.522	96.77
789.703	39.42
789.884	82.43
790.065	92.67
790.246	154.11
790.427	-36.35
790.607	205.31
790.788	64
790.969	-7.68
791.15	104.96
791.331	16.9
791.512	-19.97
791.693	-7.68
791.874	6.66
792.054	174.59
792.235	90.62
792.416	-36.35
792.597	39.42
792.778	100.86
792.958	107.01
793.139	33.28
793.32	86.53
793.5	53.76
793.681	92.67
793.862	107.01
794.042	29.18
794.223	-52.74
794.404	55.81
794.584	-83.45
794.765	-3.58
794.945	78.33
795.126	51.71
795.306	115.2
795.487	8.7
795.667	20.99
795.848	20.99
796.028	2.56
796.209	29.18
796.389	47.62
796.57	-15.87
796.75	-60.93
796.93	16.9
797.111	-50.69
797.291	10.75
797.471	49.66
797.652	23.04
797.832	-26.11
798.012	45.57
798.192	-50.69
798.373	-60.93
798.553	57.86
798.733	16.9
798.913	-71.17
799.093	-42.5
799.274	39.42
799.454	92.67
799.634	168.45
799.814	174.59
799.994	20.99
800.174	96.77
800.354	115.2
800.534	-28.16
800.714	168.45
800.894	-54.78
801.074	-26.11
801.254	-22.02
801.434	111.1
801.614	-3.58
801.794	-42.5
801.974	1528.3
802.154	49.66
802.334	37.38
802.514	6.66
802.693	10.75
802.873	14.85
803.053	104.96
803.233	68.09
803.413	-28.16
803.592	49.66
803.772	41.47
803.952	115.2
804.131	-67.07
804.311	-7.68
804.491	20.99
804.67	20.99
804.85	-77.31
805.03	94.72
805.209	139.77
805.389	25.09
805.568	-40.45
805.748	23.04
805.928	64
806.107	78.33
806.287	-7.68
806.466	29.18
806.646	16.9
806.825	12.8
807.004	-22.02
807.184	6.66
807.363	152.06
807.543	66.05
807.722	-91.65
807.901	102.91
808.081	90.62
808.26	-122.37
808.439	74.24
808.619	16.9
808.798	-34.3
808.977	68.09
809.156	64
809.336	90.62
809.515	86.53
809.694	18.94
809.873	4.61
810.052	80.38
810.231	125.44
810.411	39.42
810.59	113.15
810.769	31.23
810.948	53.76
811.127	-116.22
811.306	-7.68
811.485	-24.06
811.664	57.86
811.843	61.95
812.022	20.99
812.201	68.09
812.38	74.24
812.559	76.29
812.737	-3.58
812.916	-77.31
813.095	4.61
813.274	53.76
813.453	43.52
813.632	49.66
813.811	55.81
813.989	6.66
814.168	35.33
814.347	-44.54
814.526	31.23
814.704	70.14
814.883	4.61
815.062	-24.06
815.24	57.86
815.419	86.53
815.598	64
815.776	-69.12
815.955	88.57
816.133	-58.88
816.312	16.9
816.49	10.75
816.669	-32.26
816.847	-9.73
817.026	2.56
817.204	61.95
817.383	43.52
817.561	18.94
817.74	55.81
817.918	-28.16
818.097	39.42
818.275	-5.63
818.453	-52.74
818.632	20.99
818.81	14.85
818.988	-11.78
819.167	-52.74
819.345	33.28
819.523	-28.16
819.701	-7.68
819.879	66.05
820.058	72.19
820.236	33.28
820.414	-9.73
820.592	45.57
820.77	-65.02
820.948	-54.78
821.127	-38.4
821.305	20.99
821.483	-65.02
821.661	143.87
821.839	61.95
822.017	-83.45
822.195	-42.5
822.373	80.38
822.551	0.51
822.729	90.62
822.907	-40.45
823.085	25.09
823.262	37.38
823.44	-19.97
823.618	10.75
823.796	76.29
823.974	39.42
824.152	4.61
824.329	33.28
824.507	33.28
824.685	49.66
824.863	33.28
825.04	20.99
825.218	125.44
825.396	31.23
825.574	31.23
825.751	82.43
825.929	64
826.107	-89.6
826.284	39.42
826.462	-32.26
826.639	-67.07
826.817	-48.64
826.994	-26.11
827.172	-17.92
827.349	84.48
827.527	90.62
827.704	2.56
827.882	49.66
828.059	4.61
828.237	-58.88
828.414	66.05
828.591	-116.22
828.769	74.24
828.946	-26.11
829.124	68.09
829.301	18.94
829.478	0.51
829.655	39.42
829.833	33.28
830.01	-69.12
830.187	47.62
830.364	57.86
830.542	6.66
830.719	123.39
830.896	12.8
831.073	41.47
831.25	39.42
831.427	29.18
831.604	37.38
831.782	-50.69
831.959	57.86
832.136	27.14
832.313	33.28
832.49	-32.26
832.667	-11.78
832.844	-7.68
833.021	109.05
833.198	78.33
833.374	-15.87
833.551	-11.78
833.728	-44.54
833.905	39.42
834.082	-97.79
834.259	64
834.436	158.21
834.612	-103.93
834.789	20.99
834.966	-28.16
835.143	31.23
835.319	-44.54
835.496	-9.73
835.673	6.66
835.85	68.09
836.026	4.61
836.203	88.57
836.38	25.09
836.556	-19.97
836.733	-9.73
836.909	123.39
837.086	27.14
837.262	-136.7
837.439	-42.5
837.616	-42.5
837.792	2.56
837.968	-48.64
838.145	-67.07
838.321	-44.54
838.498	45.57
838.674	4.61
838.851	31.23
839.027	-38.4
839.203	35.33
839.38	61.95
839.556	-48.64
839.732	90.62
839.909	-7.68
840.085	-24.06
840.261	-30.21
840.437	-15.87
840.614	-7.68
840.79	10.75
840.966	27.14
841.142	20.99
841.318	-1.54
841.494	-36.35
841.671	29.18
841.847	-50.69
842.023	-54.78
842.199	80.38
842.375	74.24
842.551	-97.79
842.727	-56.83
842.903	70.14
843.079	-34.3
843.255	109.05
843.431	-3.58
843.607	-19.97
843.783	-122.37
843.959	86.53
844.134	-62.98
844.31	37.38
844.486	-32.26
844.662	-93.69
844.838	39.42
845.013	20.99
845.189	102.91
845.365	66.05
845.541	43.52
845.716	12.8
845.892	82.43
846.068	2.56
846.244	-73.21
846.419	-22.02
846.595	-69.12
846.77	-73.21
846.946	80.38
847.122	39.42
847.297	41.47
847.473	78.33
847.648	-105.98
847.824	-24.06
847.999	-69.12
848.175	12.8
848.35	20.99
848.526	8.7
848.701	72.19
848.876	76.29
849.052	37.38
849.227	-46.59
849.403	33.28
849.578	20.99
849.753	51.71
849.929	23.04
850.104	-58.88
850.279	41.47
850.454	-15.87
850.63	39.42
850.805	-36.35
850.98	-9.73
851.155	53.76
851.33	-7.68
851.505	-83.45
851.681	92.67
851.856	-42.5
852.031	68.09
852.206	10.75
852.381	-52.74
852.556	-56.83
852.731	57.86
852.906	41.47
853.081	6.66
853.256	41.47
853.431	64
853.606	-114.17
853.781	-75.26
853.956	4.61
854.131	37.38
854.305	-91.65
854.48	27.14
854.655	-50.69
854.83	-1.54
855.005	-50.69
855.18	-13.82
855.354	-50.69
855.529	-9.73
855.704	25.09
855.879	84.48
856.053	-11.78
856.228	51.71
856.403	2.56
856.577	-1.54
856.752	-44.54
856.926	66.05
857.101	16.9
857.276	-48.64
857.45	-7.68
857.625	-30.21
857.799	37.38
857.974	82.43
858.148	-97.79
858.323	-28.16
858.497	33.28
858.672	-75.26
858.846	-56.83
859.02	53.76
859.195	-146.94
859.369	-24.06
859.543	-52.74
859.718	27.14
859.892	74.24
860.066	39.42
860.241	18.94
860.415	-97.79
860.589	-58.88
860.763	12.8
860.938	-5.63
861.112	-77.31
861.286	-24.06
861.46	-17.92
861.634	78.33
861.808	23.04
861.982	-65.02
862.157	10.75
862.331	-85.5
862.505	23.04
862.679	-36.35
862.853	-9.73
863.027	-83.45
863.201	53.76
863.375	-34.3
863.549	-28.16
863.722	-3.58
863.896	92.67
864.07	-89.6
864.244	-79.36
864.418	-32.26
864.592	-46.59
864.766	29.18
864.939	-42.5
865.113	-30.21
865.287	92.67
865.461	-34.3
865.634	16.9
865.808	-52.74
865.982	-69.12
866.156	-40.45
866.329	-58.88
866.503	-9.73
866.676	86.53
866.85	14.85
867.024	-32.26
867.197	10.75
867.371	66.05
867.544	-26.11
867.718	2.56
867.891	-15.87
868.065	-101.89
868.238	0.51
868.412	37.38
868.585	4.61
868.759	-42.5
868.932	-24.06
869.105	-118.27
869.279	-19.97
869.452	-85.5
869.625	-24.06
869.799	-30.21
869.972	-48.64
870.145	-58.88
870.319	133.63
870.492	27.14
870.665	-3.58
870.838	-58.88
871.011	-93.69
871.185	-60.93
871.358	-81.41
871.531	33.28
871.704	-60.93
871.877	-17.92
872.05	-3.58
872.223	-38.4
872.396	88.57
872.569	33.28
872.742	-148.99
872.915	23.04
873.088	-11.78
873.261	-52.74
873.434	66.05
873.607	-5.63
873.78	51.71
873.953	-46.59
874.126	-11.78
874.299	-15.87
874.471	-11.78
874.644	-42.5
874.817	72.19
874.99	66.05
875.163	-7.68
875.335	41.47
875.508	18.94
875.681	139.77
875.853	-77.31
876.026	8.7
876.199	90.62
876.371	20.99
876.544	-26.11
876.717	31.23
876.889	-120.32
877.062	47.62
877.234	-65.02
877.407	-48.64
877.579	-11.78
877.752	-30.21
877.924	90.62
878.097	-1.54
878.269	18.94
878.442	-62.98
878.614	70.14
878.786	37.38
878.959	4.61
879.131	23.04
879.303	-157.18
879.476	-1.54
879.648	-38.4
879.82	35.33
879.993	-15.87
880.165	-46.59
880.337	-97.79
880.509	0.51
880.681	-56.83
880.854	-13.82
881.026	57.86
881.198	100.86
881.37	74.24
881.542	-89.6
881.714	47.62
881.886	-40.45
882.058	14.85
882.23	18.94
882.402	-54.78
882.574	-95.74
882.746	86.53
882.918	80.38
883.09	-5.63
883.262	-34.3
883.434	-19.97
883.606	0.51
883.778	-17.92
883.95	59.9
884.122	33.28
884.293	121.34
884.465	4.61
884.637	49.66
884.809	-62.98
884.98	25.09
885.152	59.9
885.324	2.56
885.496	-1.54
885.667	-34.3
885.839	10.75
886.011	35.33
886.182	27.14
886.354	33.28
886.525	23.04
886.697	-54.78
886.869	-116.22
887.04	-46.59
887.212	51.71
887.383	172.54
887.555	-34.3
887.726	-65.02
887.897	-1.54
888.069	6.66
888.24	-7.68
888.412	4.61
888.583	31.23
888.754	-56.83
888.926	-93.69
889.097	-3.58
889.268	-60.93
889.44	4.61
889.611	-93.69
889.782	18.94
889.953	-112.13
890.125	72.19
890.296	-116.22
890.467	-73.21
890.638	-93.69
890.809	-26.11
890.98	-36.35
891.151	39.42
891.323	94.72
891.494	-11.78
891.665	-36.35
891.836	-22.02
892.007	6.66
892.178	6.66
892.349	-46.59
892.52	-93.69
892.691	-3.58
892.862	-22.02
893.032	-130.56
893.203	-77.31
893.374	-36.35
893.545	33.28
893.716	16.9
893.887	8.7
894.057	-46.59
894.228	25.09
894.399	-48.64
894.57	113.15
894.74	-65.02
894.911	-22.02
895.082	-24.06
895.253	16.9
895.423	4.61
895.594	98.81
895.764	-1.54
895.935	-120.32
896.106	33.28
896.276	-65.02
896.447	0.51
896.617	-44.54
896.788	-30.21
896.958	-91.65
897.129	-75.26
897.299	16.9
897.47	39.42
897.64	4.61
897.81	0.51
897.981	-11.78
898.151	8.7
898.322	16.9
898.492	66.05
898.662	6.66
898.832	0.51
899.003	-101.89
899.173	6.66
899.343	-9.73
899.513	-122.37
