Data from USB4F104151__42__09-27-47-006.txt Node

Date: Wed Feb 26 09:27:47 EST 2025
User: louis
Spectrometer: USB4F10415
Trigger mode: 4
Integration Time (sec): 1.000000E-1
Scans to average: 1
Electric dark correction enabled: true
Nonlinearity correction enabled: false
Boxcar width: 0
XAxis mode: Wavelengths
Number of Pixels in Spectrum: 3648
>>>>>Begin Spectral Data<<<<<
178.204	-394.4
178.424	-394.4
178.644	-394.4
178.864	-380.07
179.084	-283.81
179.304	-46.25
179.524	-126.12
179.744	-99.5
179.964	97.11
180.184	47.96
180.404	97.11
180.624	62.29
180.844	-44.2
181.064	-38.06
181.283	27.48
181.503	25.43
181.723	-3.24
181.943	-60.59
182.163	174.93
182.383	-99.5
182.602	111.44
182.822	193.36
183.042	35.67
183.262	-44.2
183.482	54.1
183.701	13.14
183.921	84.82
184.141	-13.48
184.361	37.72
184.58	105.3
184.8	93.01
185.02	-17.58
185.239	107.35
185.459	-9.39
185.679	45.91
185.898	-3.24
186.118	33.62
186.338	99.16
186.557	76.63
186.777	23.38
186.997	-38.06
187.216	-17.58
187.436	138.07
187.655	109.4
187.875	54.1
188.095	23.38
188.314	154.45
188.534	115.54
188.753	-5.29
188.973	170.83
189.192	95.06
189.412	52.05
189.631	82.77
189.851	56.15
190.07	162.64
190.29	-5.29
190.509	-17.58
190.729	-5.29
190.948	142.16
191.168	252.75
191.387	54.1
191.607	52.05
191.826	17.24
192.045	52.05
192.265	-25.77
192.484	80.72
192.704	-25.77
192.923	-13.48
193.142	219.99
193.362	86.87
193.581	66.39
193.8	70.48
194.02	138.07
194.239	35.67
194.458	78.68
194.678	31.57
194.897	29.52
195.116	-5.29
195.335	58.2
195.555	101.2
195.774	13.14
195.993	84.82
196.212	74.58
196.432	11.09
196.651	58.2
196.87	72.53
197.089	224.08
197.308	70.48
197.528	88.92
197.747	-21.67
197.966	11.09
198.185	160.59
198.404	-50.35
198.623	187.22
198.842	129.88
199.062	80.72
199.281	80.72
199.5	70.48
199.719	43.86
199.938	35.67
200.157	76.63
200.376	95.06
200.595	166.74
200.814	74.58
201.033	-13.48
201.252	88.92
201.471	47.96
201.69	27.48
201.909	19.29
202.128	39.76
202.347	70.48
202.566	-60.59
202.785	-91.31
203.004	-29.87
203.223	224.08
203.442	29.52
203.661	72.53
203.879	72.53
204.098	86.87
204.317	-29.87
204.536	9.05
204.755	66.39
204.974	45.91
205.193	60.24
205.411	164.69
205.63	164.69
205.849	7
206.068	27.48
206.287	39.76
206.505	111.44
206.724	45.91
206.943	-31.91
207.162	-72.87
207.381	54.1
207.599	76.63
207.818	31.57
208.037	45.91
208.255	111.44
208.474	45.91
208.693	19.29
208.911	-1.19
209.13	15.19
209.349	41.81
209.567	90.96
209.786	138.07
210.005	76.63
210.223	41.81
210.442	-9.39
210.661	35.67
210.879	9.05
211.098	88.92
211.316	56.15
211.535	105.3
211.753	15.19
211.972	103.25
212.191	88.92
212.409	0.85
212.628	97.11
212.846	84.82
213.065	121.68
213.283	170.83
213.502	121.68
213.72	27.48
213.938	-1.19
214.157	68.44
214.375	97.11
214.594	-38.06
214.812	136.02
215.031	2.9
215.249	-38.06
215.467	11.09
215.686	25.43
215.904	60.24
216.122	23.38
216.341	115.54
216.559	84.82
216.778	166.74
216.996	152.4
217.214	7
217.432	56.15
217.651	88.92
217.869	29.52
218.087	-3.24
218.306	-33.96
218.524	82.77
218.742	103.25
218.96	148.31
219.179	152.4
219.397	-23.72
219.615	228.18
219.833	88.92
220.051	21.33
220.27	123.73
220.488	142.16
220.706	60.24
220.924	-25.77
221.142	0.85
221.36	103.25
221.578	19.29
221.796	23.38
222.015	54.1
222.233	-1.19
222.451	97.11
222.669	-13.48
222.887	19.29
223.105	86.87
223.323	31.57
223.541	-3.24
223.759	0.85
223.977	-21.67
224.195	119.64
224.413	127.83
224.631	31.57
224.849	47.96
225.067	215.89
225.285	72.53
225.503	31.57
225.721	-173.22
225.939	60.24
226.157	-3.24
226.375	215.89
226.592	-13.48
226.81	-64.68
227.028	162.64
227.246	31.57
227.464	86.87
227.682	50
227.9	47.96
228.117	56.15
228.335	31.57
228.553	0.85
228.771	84.82
228.989	-7.34
229.206	78.68
229.424	4.95
229.642	2.9
229.86	37.72
230.077	166.74
230.295	74.58
230.513	52.05
230.731	80.72
230.948	195.41
231.166	142.16
231.384	-13.48
231.601	-19.63
231.819	158.55
232.037	9.05
232.254	11.09
232.472	2.9
232.689	31.57
232.907	117.59
233.125	31.57
233.342	11.09
233.56	72.53
233.777	27.48
233.995	35.67
234.213	160.59
234.43	43.86
234.648	68.44
234.865	78.68
235.083	50
235.3	47.96
235.518	47.96
235.735	170.83
235.953	105.3
236.17	88.92
236.388	99.16
236.605	31.57
236.822	187.22
237.04	121.68
237.257	88.92
237.475	-66.73
237.692	90.96
237.909	50
238.127	31.57
238.344	60.24
238.562	95.06
238.779	-27.82
238.996	-23.72
239.214	29.52
239.431	68.44
239.648	47.96
239.865	9.05
240.083	72.53
240.3	-1.19
240.517	-25.77
240.735	60.24
240.952	70.48
241.169	7
241.386	54.1
241.603	113.49
241.821	-5.29
242.038	146.26
242.255	35.67
242.472	-52.39
242.689	70.48
242.907	68.44
243.124	7
243.341	-33.96
243.558	-19.63
243.775	-27.82
243.992	-42.15
244.209	31.57
244.426	166.74
244.643	66.39
244.86	95.06
245.078	191.31
245.295	47.96
245.512	52.05
245.729	-7.34
245.946	43.86
246.163	19.29
246.38	82.77
246.597	2.9
246.814	4.95
247.031	60.24
247.248	13.14
247.464	64.34
247.681	80.72
247.898	23.38
248.115	29.52
248.332	-79.02
248.549	97.11
248.766	174.93
248.983	97.11
249.2	45.91
249.417	60.24
249.633	25.43
249.85	58.2
250.067	17.24
250.284	-1.19
250.501	29.52
250.717	50
250.934	37.72
251.151	-3.24
251.368	-17.58
251.585	103.25
251.801	11.09
252.018	-109.74
252.235	105.3
252.451	-27.82
252.668	31.57
252.885	33.62
253.102	35.67
253.318	-42.15
253.535	35.67
253.752	52.05
253.968	88.92
254.185	-60.59
254.401	62.29
254.618	-36.01
254.835	11.09
255.051	88.92
255.268	99.16
255.484	7
255.701	-13.48
255.917	74.58
256.134	-36.01
256.351	0.85
256.567	-1.19
256.784	50
257	-38.06
257.217	88.92
257.433	144.21
257.65	47.96
257.866	201.55
258.082	-74.92
258.299	33.62
258.515	31.57
258.732	-1.19
258.948	21.33
259.165	76.63
259.381	35.67
259.597	119.64
259.814	95.06
260.03	-1.19
260.246	-13.48
260.463	64.34
260.679	154.45
260.895	47.96
261.112	43.86
261.328	72.53
261.544	13.14
261.761	176.98
261.977	27.48
262.193	-36.01
262.409	74.58
262.626	62.29
262.842	93.01
263.058	35.67
263.274	76.63
263.49	78.68
263.707	131.92
263.923	62.29
264.139	-97.45
264.355	25.43
264.571	146.26
264.787	15.19
265.004	39.76
265.22	78.68
265.436	54.1
265.652	68.44
265.868	39.76
266.084	23.38
266.3	72.53
266.516	-54.44
266.732	54.1
266.948	19.29
267.164	27.48
267.38	146.26
267.596	80.72
267.812	172.88
268.028	93.01
268.244	-36.01
268.46	27.48
268.676	123.73
268.892	27.48
269.108	-17.58
269.324	-13.48
269.54	-62.63
269.756	76.63
269.972	-3.24
270.188	43.86
270.403	-9.39
270.619	35.67
270.835	31.57
271.051	54.1
271.267	-50.35
271.483	4.95
271.698	115.54
271.914	95.06
272.13	84.82
272.346	37.72
272.562	17.24
272.777	166.74
272.993	-9.39
273.209	-44.2
273.425	70.48
273.64	13.14
273.856	142.16
274.072	15.19
274.287	-17.58
274.503	127.83
274.719	127.83
274.934	-60.59
275.15	-58.54
275.366	101.2
275.581	37.72
275.797	103.25
276.012	15.19
276.228	9.05
276.444	154.45
276.659	154.45
276.875	-74.92
277.09	82.77
277.306	47.96
277.521	15.19
277.737	29.52
277.952	25.43
278.168	68.44
278.383	41.81
278.599	54.1
278.814	133.97
279.03	7
279.245	113.49
279.461	45.91
279.676	74.58
279.892	-11.43
280.107	7
280.322	-107.69
280.538	7
280.753	-11.43
280.969	60.24
281.184	113.49
281.399	127.83
281.615	113.49
281.83	-19.63
282.045	-54.44
282.26	-79.02
282.476	-9.39
282.691	138.07
282.906	9.05
283.122	43.86
283.337	-25.77
283.552	127.83
283.767	-23.72
283.983	60.24
284.198	25.43
284.413	133.97
284.628	-52.39
284.843	47.96
285.058	152.4
285.274	13.14
285.489	-17.58
285.704	107.35
285.919	-101.55
286.134	39.76
286.349	119.64
286.564	23.38
286.779	154.45
286.995	-1.19
287.21	-64.68
287.425	4.95
287.64	4.95
287.855	111.44
288.07	-68.78
288.285	127.83
288.5	58.2
288.715	60.24
288.93	37.72
289.145	-38.06
289.36	23.38
289.575	11.09
289.79	121.68
290.004	-3.24
290.219	80.72
290.434	-119.98
290.649	0.85
290.864	-66.73
291.079	-5.29
291.294	76.63
291.509	54.1
291.724	45.91
291.938	-95.4
292.153	52.05
292.368	41.81
292.583	29.52
292.798	117.59
293.012	29.52
293.227	101.2
293.442	47.96
293.657	45.91
293.871	179.03
294.086	66.39
294.301	121.68
294.516	127.83
294.73	23.38
294.945	-58.54
295.16	-17.58
295.374	113.49
295.589	117.59
295.804	13.14
296.018	88.92
296.233	142.16
296.447	117.59
296.662	-7.34
296.877	168.79
297.091	31.57
297.306	7
297.52	52.05
297.735	37.72
297.949	80.72
298.164	47.96
298.378	-1.19
298.593	-23.72
298.807	13.14
299.022	78.68
299.236	101.2
299.451	39.76
299.665	60.24
299.88	11.09
300.094	52.05
300.309	15.19
300.523	127.83
300.737	-5.29
300.952	162.64
301.166	2.9
301.381	-1.19
301.595	4.95
301.809	31.57
302.024	-21.67
302.238	-72.87
302.452	101.2
302.667	64.34
302.881	107.35
303.095	140.12
303.309	58.2
303.524	-54.44
303.738	-9.39
303.952	54.1
304.166	54.1
304.381	-29.87
304.595	84.82
304.809	-19.63
305.023	54.1
305.237	-11.43
305.452	41.81
305.666	76.63
305.88	117.59
306.094	-36.01
306.308	97.11
306.522	154.45
306.736	84.82
306.95	154.45
307.164	-9.39
307.379	60.24
307.593	203.6
307.807	119.64
308.021	111.44
308.235	72.53
308.449	-54.44
308.663	-15.53
308.877	242.51
309.091	-5.29
309.305	45.91
309.519	-83.11
309.733	138.07
309.947	-50.35
310.161	33.62
310.374	74.58
310.588	80.72
310.802	-17.58
311.016	-40.11
311.23	60.24
311.444	-50.35
311.658	43.86
311.872	80.72
312.085	103.25
312.299	162.64
312.513	195.41
312.727	25.43
312.941	45.91
313.154	35.67
313.368	86.87
313.582	111.44
313.796	31.57
314.009	56.15
314.223	232.27
314.437	45.91
314.651	39.76
314.864	19.29
315.078	11.09
315.292	-42.15
315.505	23.38
315.719	27.48
315.933	54.1
316.146	11.09
316.36	33.62
316.573	111.44
316.787	27.48
317.001	50
317.214	-138.41
317.428	-23.72
317.641	15.19
317.855	-7.34
318.068	101.2
318.282	-1.19
318.495	127.83
318.709	84.82
318.922	13.14
319.136	97.11
319.349	133.97
319.563	23.38
319.776	111.44
319.99	2.9
320.203	111.44
320.417	21.33
320.63	45.91
320.843	136.02
321.057	105.3
321.27	45.91
321.483	127.83
321.697	183.12
321.91	41.81
322.124	64.34
322.337	97.11
322.55	29.52
322.763	4.95
322.977	66.39
323.19	-3.24
323.403	4.95
323.617	62.29
323.83	66.39
324.043	86.87
324.256	-3.24
324.469	31.57
324.683	156.5
324.896	60.24
325.109	23.38
325.322	-136.36
325.535	76.63
325.748	70.48
325.962	-17.58
326.175	86.87
326.388	31.57
326.601	99.16
326.814	-29.87
327.027	105.3
327.24	166.74
327.453	-50.35
327.666	11.09
327.879	82.77
328.092	47.96
328.305	54.1
328.518	-1.19
328.731	11.09
328.944	33.62
329.157	11.09
329.37	47.96
329.583	170.83
329.796	117.59
330.009	-58.54
330.222	84.82
330.435	152.4
330.648	29.52
330.861	23.38
331.073	97.11
331.286	70.48
331.499	43.86
331.712	13.14
331.925	45.91
332.138	80.72
332.35	107.35
332.563	11.09
332.776	148.31
332.989	7
333.202	68.44
333.414	27.48
333.627	17.24
333.84	-13.48
334.053	90.96
334.265	-95.4
334.478	13.14
334.691	72.53
334.903	37.72
335.116	62.29
335.329	109.4
335.541	64.34
335.754	187.22
335.966	39.76
336.179	88.92
336.392	39.76
336.604	45.91
336.817	109.4
337.029	78.68
337.242	68.44
337.454	19.29
337.667	4.95
337.88	117.59
338.092	29.52
338.305	-5.29
338.517	-50.35
338.729	105.3
338.942	121.68
339.154	-91.31
339.367	-99.5
339.579	152.4
339.792	-74.92
340.004	21.33
340.217	13.14
340.429	86.87
340.641	31.57
340.854	-83.11
341.066	45.91
341.278	129.88
341.491	105.3
341.703	52.05
341.915	39.76
342.128	58.2
342.34	70.48
342.552	-58.54
342.764	45.91
342.977	-58.54
343.189	88.92
343.401	58.2
343.613	-119.98
343.826	39.76
344.038	15.19
344.25	23.38
344.462	7
344.674	136.02
344.886	13.14
345.099	50
345.311	4.95
345.523	56.15
345.735	-58.54
345.947	148.31
346.159	-36.01
346.371	70.48
346.583	-13.48
346.795	162.64
347.007	-9.39
347.219	21.33
347.431	47.96
347.643	80.72
347.855	-25.77
348.067	88.92
348.279	-13.48
348.491	56.15
348.703	68.44
348.915	21.33
349.127	-9.39
349.339	23.38
349.551	-56.49
349.763	80.72
349.975	27.48
350.187	113.49
350.399	170.83
350.61	70.48
350.822	64.34
351.034	86.87
351.246	43.86
351.458	33.62
351.669	60.24
351.881	105.3
352.093	54.1
352.305	105.3
352.517	97.11
352.728	93.01
352.94	121.68
353.152	64.34
353.363	58.2
353.575	2.9
353.787	76.63
353.999	7
354.21	150.36
354.422	-17.58
354.633	23.38
354.845	60.24
355.057	93.01
355.268	86.87
355.48	131.92
355.692	17.24
355.903	39.76
356.115	4.95
356.326	-27.82
356.538	123.73
356.749	82.77
356.961	21.33
357.172	29.52
357.384	-60.59
357.595	195.41
357.807	47.96
358.018	-7.34
358.23	47.96
358.441	152.4
358.653	99.16
358.864	23.38
359.075	64.34
359.287	72.53
359.498	47.96
359.709	95.06
359.921	39.76
360.132	31.57
360.344	17.24
360.555	31.57
360.766	13.14
360.977	-27.82
361.189	129.88
361.4	21.33
361.611	172.88
361.823	23.38
362.034	76.63
362.245	-31.91
362.456	-9.39
362.667	97.11
362.879	4.95
363.09	93.01
363.301	111.44
363.512	23.38
363.723	58.2
363.935	-33.96
364.146	82.77
364.357	-5.29
364.568	50
364.779	7
364.99	119.64
365.201	27.48
365.412	113.49
365.623	-50.35
365.834	56.15
366.045	64.34
366.256	133.97
366.467	179.03
366.678	60.24
366.889	47.96
367.1	-46.25
367.311	74.58
367.522	-5.29
367.733	93.01
367.944	101.2
368.155	7
368.366	58.2
368.577	172.88
368.788	93.01
368.999	0.85
369.209	-25.77
369.42	136.02
369.631	125.78
369.842	15.19
370.053	-46.25
370.264	158.55
370.474	-62.63
370.685	54.1
370.896	27.48
371.107	129.88
371.317	84.82
371.528	-25.77
371.739	80.72
371.95	15.19
372.16	52.05
372.371	-11.43
372.582	7
372.792	-25.77
373.003	31.57
373.214	95.06
373.424	160.59
373.635	-17.58
373.846	125.78
374.056	56.15
374.267	113.49
374.477	19.29
374.688	9.05
374.898	58.2
375.109	72.53
375.319	27.48
375.53	88.92
375.74	62.29
375.951	-1.19
376.161	37.72
376.372	195.41
376.582	60.24
376.793	39.76
377.003	-19.63
377.214	23.38
377.424	70.48
377.635	-11.43
377.845	7
378.055	158.55
378.266	-5.29
378.476	107.35
378.686	113.49
378.897	60.24
379.107	72.53
379.317	125.78
379.528	95.06
379.738	121.68
379.948	-42.15
380.158	125.78
380.369	76.63
380.579	62.29
380.789	-21.67
380.999	54.1
381.21	84.82
381.42	213.84
381.63	21.33
381.84	86.87
382.05	-11.43
382.261	185.17
382.471	88.92
382.681	4.95
382.891	191.31
383.101	60.24
383.311	-44.2
383.521	4.95
383.731	70.48
383.941	103.25
384.151	27.48
384.361	-1.19
384.571	70.48
384.781	39.76
384.991	154.45
385.201	211.79
385.411	103.25
385.621	35.67
385.831	39.76
386.041	45.91
386.251	105.3
386.461	166.74
386.671	45.91
386.881	13.14
387.091	19.29
387.301	162.64
387.511	-7.34
387.72	95.06
387.93	101.2
388.14	-52.39
388.35	15.19
388.56	52.05
388.769	127.83
388.979	45.91
389.189	-95.4
389.399	21.33
389.609	150.36
389.818	105.3
390.028	64.34
390.238	111.44
390.447	-3.24
390.657	99.16
390.867	64.34
391.076	-91.31
391.286	31.57
391.496	56.15
391.705	4.95
391.915	39.76
392.125	127.83
392.334	17.24
392.544	103.25
392.753	35.67
392.963	-27.82
393.172	68.44
393.382	39.76
393.591	111.44
393.801	21.33
394.01	136.02
394.22	84.82
394.429	41.81
394.639	-9.39
394.848	70.48
395.058	64.34
395.267	-25.77
395.477	31.57
395.686	62.29
395.895	252.75
396.105	224.08
396.314	181.07
396.524	23.38
396.733	101.2
396.942	105.3
397.152	78.68
397.361	90.96
397.57	56.15
397.78	39.76
397.989	19.29
398.198	215.89
398.407	15.19
398.617	52.05
398.826	64.34
399.035	-1.19
399.244	117.59
399.453	11.09
399.663	101.2
399.872	72.53
400.081	-3.24
400.29	76.63
400.499	-50.35
400.708	95.06
400.917	52.05
401.127	84.82
401.336	58.2
401.545	158.55
401.754	97.11
401.963	35.67
402.172	54.1
402.381	11.09
402.59	9.05
402.799	11.09
403.008	76.63
403.217	64.34
403.426	45.91
403.635	-17.58
403.844	50
404.053	-7.34
404.262	19.29
404.471	105.3
404.68	142.16
404.888	19.29
405.097	4.95
405.306	29.52
405.515	43.86
405.724	37.72
405.933	82.77
406.142	54.1
406.35	119.64
406.559	-5.29
406.768	80.72
406.977	97.11
407.185	39.76
407.394	101.2
407.603	-17.58
407.812	64.34
408.02	162.64
408.229	2.9
408.438	-19.63
408.646	-42.15
408.855	84.82
409.064	93.01
409.272	15.19
409.481	60.24
409.69	-33.96
409.898	-54.44
410.107	70.48
410.315	95.06
410.524	64.34
410.733	27.48
410.941	78.68
411.15	90.96
411.358	158.55
411.567	168.79
411.775	19.29
411.984	58.2
412.192	88.92
412.401	43.86
412.609	191.31
412.818	45.91
413.026	35.67
413.234	-36.01
413.443	72.53
413.651	-36.01
413.86	4.95
414.068	150.36
414.276	111.44
414.485	31.57
414.693	136.02
414.901	201.55
415.11	64.34
415.318	29.52
415.526	62.29
415.734	50
415.943	101.2
416.151	119.64
416.359	35.67
416.567	64.34
416.776	25.43
416.984	111.44
417.192	179.03
417.4	45.91
417.608	72.53
417.817	-52.39
418.025	35.67
418.233	166.74
418.441	31.57
418.649	-79.02
418.857	70.48
419.065	168.79
419.273	-31.91
419.481	88.92
419.689	78.68
419.897	25.43
420.105	-107.69
420.313	166.74
420.521	107.35
420.729	95.06
420.937	68.44
421.145	-50.35
421.353	72.53
421.561	174.93
421.769	105.3
421.977	-29.87
422.185	70.48
422.393	-11.43
422.601	133.97
422.809	101.2
423.017	27.48
423.224	31.57
423.432	113.49
423.64	37.72
423.848	101.2
424.056	15.19
424.263	119.64
424.471	74.58
424.679	119.64
424.887	-72.87
425.094	52.05
425.302	144.21
425.51	31.57
425.718	115.54
425.925	66.39
426.133	4.95
426.341	209.75
426.548	93.01
426.756	62.29
426.964	121.68
427.171	19.29
427.379	23.38
427.586	-5.29
427.794	56.15
428.001	140.12
428.209	111.44
428.417	33.62
428.624	72.53
428.832	189.27
429.039	43.86
429.247	29.52
429.454	19.29
429.662	158.55
429.869	93.01
430.076	86.87
430.284	82.77
430.491	174.93
430.699	68.44
430.906	262.99
431.114	109.4
431.321	105.3
431.528	146.26
431.736	146.26
431.943	97.11
432.15	140.12
432.358	154.45
432.565	234.32
432.772	-66.73
432.979	187.22
433.187	82.77
433.394	176.98
433.601	13.14
433.808	156.5
434.016	197.46
434.223	107.35
434.43	131.92
434.637	170.83
434.844	252.75
435.052	176.98
435.259	195.41
435.466	215.89
435.673	129.88
435.88	301.9
436.087	226.13
436.294	203.6
436.501	252.75
436.708	148.31
436.915	187.22
437.122	293.71
437.329	191.31
437.537	148.31
437.743	281.43
437.95	281.43
438.157	203.6
438.364	183.12
438.571	185.17
438.778	299.86
438.985	285.52
439.192	334.67
439.399	338.77
439.606	375.63
439.813	349.01
440.02	394.06
440.227	453.45
440.433	441.17
440.64	308.05
440.847	299.86
441.054	443.21
441.261	494.41
441.467	439.12
441.674	398.16
441.881	396.11
442.088	449.36
442.294	473.93
442.501	494.41
442.708	557.9
442.914	424.78
443.121	594.76
443.328	557.9
443.534	633.68
443.741	588.62
443.948	535.37
444.154	674.64
444.361	707.4
444.568	703.31
444.774	727.88
444.981	670.54
445.187	754.51
445.394	774.99
445.6	783.18
445.807	848.71
446.013	795.47
446.22	752.46
446.426	856.9
446.633	926.54
446.839	1051.46
447.046	930.63
447.252	1045.32
447.459	1022.79
447.665	959.3
447.871	1137.48
448.078	1313.6
448.284	1270.59
448.491	1299.27
448.697	1377.09
448.903	1377.09
449.11	1506.11
449.316	1305.41
449.522	1563.45
449.728	1614.65
449.935	1661.76
450.141	1653.56
450.347	1725.24
450.553	1766.2
450.76	1788.73
450.966	1864.5
451.172	1964.86
451.378	1932.09
451.584	2100.02
451.791	2255.67
451.997	2255.67
452.203	2249.52
452.409	2495.28
452.615	2517.81
452.821	2435.89
453.027	2474.8
453.233	2814.76
453.44	2681.64
453.646	2743.08
453.852	2988.84
454.058	3148.58
454.264	3257.12
454.47	3425.06
454.676	3418.91
454.882	3709.72
455.088	3414.82
455.294	3801.88
455.5	4053.78
455.705	4162.33
455.911	4039.45
456.117	4217.62
456.323	4508.43
456.529	4475.67
456.735	4922.12
456.941	5012.23
457.147	5223.17
457.352	5374.72
457.558	5405.44
457.764	5769.98
457.97	5929.72
458.176	6243.06
458.381	6476.53
458.587	6343.41
458.793	7009
458.999	6808.3
459.204	7570.15
459.41	7963.36
459.616	7721.7
459.821	8377.05
460.027	8583.89
460.233	9177.8
460.438	8999.63
460.644	9485
460.85	9857.73
461.055	10062.52
461.261	10670.77
461.466	10369.72
461.672	10549.94
461.878	11727.52
462.083	11883.17
462.289	11973.28
462.494	12411.54
462.7	12632.72
462.905	12618.39
463.111	13881.99
463.316	14404.22
463.522	14539.38
463.727	15039.09
463.932	15520.36
464.138	16120.42
464.343	16882.26
464.549	16937.55
464.754	18299.45
464.959	18557.5
465.165	18690.62
465.37	18768.44
465.575	19016.24
465.781	20138.53
465.986	20793.88
466.191	20376.09
466.397	20836.89
466.602	20138.53
466.807	21277.2
467.012	21654.03
467.218	22073.86
467.423	22100.48
467.628	22557.18
467.833	23712.24
468.038	23507.44
468.244	22874.62
468.449	24257
468.654	24023.53
468.859	23628.27
469.064	23685.61
469.269	23220.72
469.474	23640.56
469.679	23974.38
469.885	23540.21
470.09	23673.32
470.295	23747.05
470.5	23476.72
470.705	23196.15
470.91	22622.72
471.115	22497.79
471.32	23020.02
471.525	22921.72
471.73	22055.43
471.935	22020.61
472.139	21248.53
472.344	21185.04
472.549	21039.64
472.754	20638.23
472.959	20222.5
473.164	19530.28
473.369	19450.41
473.574	19837.48
473.778	19348.01
473.983	18979.38
474.188	18754.1
474.393	18063.94
474.598	17631.82
474.802	17384.01
475.007	17224.27
475.212	17117.78
475.417	16423.51
475.621	16243.29
475.826	16140.9
476.031	15682.15
476.235	15301.23
476.44	15272.56
476.645	14854.77
476.849	14735.99
477.054	14535.29
477.259	14234.24
477.463	14295.68
477.668	13699.72
477.872	13943.42
478.077	13310.6
478.282	12921.49
478.486	13054.61
478.691	12581.53
478.895	12759.7
479.1	12606.1
479.304	12638.87
479.509	11999.9
479.713	12280.47
479.918	12016.29
480.122	11598.5
480.326	11782.82
480.531	11793.06
480.735	11721.38
480.94	11551.4
481.144	11922.08
481.348	11217.58
481.553	11229.87
481.757	10711.73
481.961	11051.69
482.166	11090.6
482.37	10904.24
482.574	10515.12
482.778	10838.7
482.983	10781.36
483.187	10586.8
483.391	10537.65
483.595	10396.34
483.8	10201.79
484.004	10422.97
484.208	10336.95
484.412	10123.96
484.616	10029.76
484.821	9597.63
485.025	9663.17
485.229	9784
485.433	9499.33
485.637	9452.23
485.841	9081.55
486.045	9192.14
486.249	9114.31
486.453	8915.66
486.657	8848.08
486.861	8747.73
487.065	8674
487.269	8387.29
487.473	8020.7
487.677	8237.78
487.881	8053.47
488.085	7822.05
488.289	7873.25
488.493	7701.22
488.697	7707.36
488.901	7690.98
489.105	7365.35
489.309	7312.1
489.512	7148.26
489.716	7109.35
489.92	6920.94
490.124	6714.09
490.328	6757.1
490.531	6464.24
490.735	6511.35
490.939	6286.07
491.143	6290.17
491.346	6193.91
491.55	6111.99
491.754	5985.02
491.958	6048.51
492.161	5894.91
492.365	5702.4
492.569	5503.75
492.772	5636.86
492.976	5552.9
493.18	5503.75
493.383	5348.1
493.587	5348.1
493.79	5409.54
493.994	5034.76
494.197	5067.53
494.401	5237.51
494.605	4920.07
494.808	5122.82
495.012	5067.53
495.215	5157.64
495.419	5053.19
495.622	4803.34
495.825	4854.54
496.029	4913.93
496.232	4797.2
496.436	4877.07
496.639	5114.63
496.843	4829.96
497.046	5010.18
497.249	4999.95
497.453	4895.5
497.656	4971.27
497.859	4985.61
498.063	4997.9
498.266	5085.96
498.469	4854.54
498.673	4893.45
498.876	5075.72
499.079	4764.43
499.282	5165.83
499.485	5286.66
499.689	5010.18
499.892	5237.51
500.095	5298.95
500.298	5395.2
500.501	5174.02
500.705	5346.05
500.908	5446.4
501.111	5483.27
501.314	5497.6
501.517	5741.31
501.72	5608.19
501.923	5704.45
502.126	5757.69
502.329	5935.87
502.532	5958.39
502.735	5958.39
502.938	6136.57
503.141	6163.19
503.344	6320.88
503.547	6361.84
503.75	6372.08
503.953	6431.48
504.156	6513.39
504.359	6529.78
504.562	6753.01
504.765	7113.45
504.968	6920.94
505.17	7039.72
505.373	7207.66
505.576	7187.18
505.779	7475.94
505.982	7416.55
506.185	7867.1
506.387	7820
506.59	8100.57
506.793	8342.23
506.996	8303.32
507.198	8749.78
507.401	8680.14
507.604	8796.88
507.807	8985.29
508.009	9374.41
508.212	9386.69
508.415	9624.26
508.617	9566.92
508.82	9841.34
509.022	10046.14
509.225	10336.95
509.428	10728.11
509.63	10842.8
509.833	10980.01
510.035	11500.2
510.238	11592.36
510.44	11764.39
510.643	12315.29
510.845	12380.82
511.048	12759.7
511.25	12835.47
511.453	13382.28
511.655	13693.57
511.858	13992.58
512.06	14258.81
512.262	14303.87
512.465	14830.2
512.667	15022.7
512.87	15446.63
513.072	15876.71
513.274	16177.76
513.477	16691.8
513.679	16978.51
513.881	17158.74
514.084	17521.23
514.286	18084.42
514.488	18541.11
514.69	19040.82
514.893	19120.69
515.095	19843.62
515.297	20249.12
515.499	20578.84
515.701	21041.68
515.904	21686.79
516.106	22290.95
516.308	22518.27
516.51	23083.51
516.712	23005.69
516.914	23833.07
517.116	24705.5
517.318	25012.7
517.52	25285.08
517.722	25661.9
517.925	26153.41
518.127	26481.09
518.329	27455.92
518.531	27175.35
518.733	27967.91
518.935	28543.39
519.136	28807.58
519.338	29483.41
519.54	30126.47
519.742	30603.65
519.944	30876.03
520.146	31730.03
520.348	32149.87
520.55	32414.05
520.752	33022.3
520.954	33780.05
521.155	33632.6
521.357	33810.77
521.559	34521.41
521.761	35236.16
521.963	35215.68
522.164	35418.42
522.366	35645.75
522.568	36155.69
522.77	36614.44
522.971	37376.28
523.173	37087.52
523.375	37404.95
523.576	37542.17
523.778	37456.15
523.98	37957.91
524.181	38207.76
524.383	38174.99
524.584	39045.38
524.786	38369.55
524.988	38969.6
525.189	39153.92
525.391	39354.62
525.592	38998.27
525.794	39080.19
525.995	39182.59
526.197	39043.33
526.398	39121.15
526.6	39125.25
526.801	38826.24
527.003	38707.46
527.204	39418.11
527.406	39174.4
527.607	38510.86
527.808	38736.13
528.01	38129.94
528.211	38226.19
528.412	38293.77
528.614	37820.69
528.815	37918.99
529.016	37779.73
529.218	36876.58
529.419	36909.35
529.62	36575.53
529.822	36249.9
530.023	36055.34
530.224	36024.62
530.425	35230.01
530.626	34294.09
530.828	34410.82
531.029	34947.39
531.23	34087.25
531.431	33440.09
531.632	33397.08
531.833	33075.55
532.035	32498.02
532.236	32215.4
532.437	31994.22
532.638	31492.47
532.839	31248.76
533.04	30812.54
533.241	30075.27
533.442	30544.26
533.643	29641.11
533.844	29219.22
534.045	28940.7
534.246	28748.19
534.447	28008.87
534.648	27607.47
534.849	27566.51
535.05	26896.83
535.251	26659.26
535.451	26339.78
535.652	25792.97
535.853	25557.46
536.054	25328.08
536.255	25106.9
536.456	24578.53
536.657	24547.81
536.857	23615.98
537.058	23407.09
537.259	23577.07
537.46	22995.45
537.66	22606.33
537.861	22671.87
538.062	22196.74
538.263	21654.03
538.463	21670.41
538.664	21250.58
538.865	21258.77
539.065	21070.36
539.266	20427.29
539.466	20587.04
539.667	20183.59
539.868	20118.05
540.068	19683.88
540.269	19536.43
540.469	19292.72
540.67	18866.74
540.87	18946.61
541.071	18557.5
541.271	18430.52
541.472	18252.35
541.672	17926.72
541.873	17678.92
542.073	17248.85
542.274	17558.09
542.474	17027.67
542.675	16847.44
542.875	16822.87
543.075	16312.92
543.276	16269.92
543.476	16304.73
543.676	15923.81
543.877	15817.32
544.077	15643.24
544.277	15467.11
544.478	15100.53
544.678	15178.35
544.878	15094.38
545.078	14920.31
545.279	14602.87
545.479	14236.28
545.679	14346.87
545.879	14166.65
546.079	13955.71
546.28	13746.82
546.48	13453.96
546.68	13716.1
546.88	13243.02
547.08	13200.01
547.28	13068.94
547.48	12739.22
547.68	12745.36
547.88	12606.1
548.081	12423.83
548.281	12315.29
548.481	11995.81
548.681	12167.84
548.881	11889.31
549.081	11778.72
549.28	11479.72
549.48	11571.88
549.68	11231.91
549.88	11186.86
550.08	10638
550.28	10652.34
550.48	10674.87
550.68	10390.2
550.88	10193.59
551.08	10072.76
551.279	10052.28
551.479	9738.94
551.679	9820.86
551.879	9575.11
552.079	9638.59
552.278	9360.07
552.478	9202.38
552.678	9202.38
552.878	8829.65
553.077	8958.67
553.277	8475.35
553.477	8645.33
553.676	8409.81
553.876	8356.57
554.076	8219.35
554.275	8002.27
554.475	7817.95
554.674	7746.27
554.874	7740.13
555.074	7404.26
555.273	7475.94
555.473	7379.68
555.672	7121.64
555.872	6836.97
556.071	6953.71
556.271	6898.41
556.47	6701.81
556.67	6445.81
556.869	6449.91
557.068	6370.04
557.268	6226.68
557.467	6159.1
557.667	6290.17
557.866	6114.04
558.065	6005.5
558.265	5673.73
558.464	5645.06
558.663	5600
558.863	5540.61
559.062	5567.23
559.261	5272.32
559.461	5264.13
559.66	5157.64
559.859	4954.89
560.058	5012.23
560.258	4944.65
560.457	4938.51
560.656	4944.65
560.855	4592.4
561.054	4707.09
561.253	4494.1
561.453	4422.42
561.652	4512.53
561.851	4537.1
562.05	4236.05
562.249	4090.65
562.448	4201.24
562.647	4035.35
562.846	3998.49
563.045	3910.43
563.244	3883.8
563.443	3894.04
563.642	3805.98
563.841	3734.3
564.04	3568.41
564.239	3584.8
564.438	3402.53
564.637	3437.34
564.836	3255.08
565.035	3384.1
565.234	3349.28
565.432	3316.51
565.631	3449.63
565.83	3226.4
566.029	3203.88
566.228	3134.25
566.427	3195.68
566.625	2966.31
566.824	2982.7
567.023	2865.96
567.222	2804.52
567.42	2890.54
567.619	2820.91
567.818	2753.32
568.016	2800.43
568.215	2673.45
568.414	2661.16
568.612	2661.16
568.811	2493.23
569.01	2468.66
569.208	2591.53
569.407	2495.28
569.605	2372.4
569.804	2388.78
570.002	2376.5
570.201	2298.67
570.4	2218.8
570.598	2153.27
570.797	2075.45
570.995	2120.5
571.193	2071.35
571.392	2128.69
571.59	1975.1
571.789	2071.35
571.987	2122.55
572.186	2120.5
572.384	1930.04
572.582	1884.98
572.781	1952.57
572.979	1702.72
573.177	1809.21
573.376	1751.87
573.574	1796.92
573.772	1727.29
573.971	1692.48
574.169	1604.41
574.367	1694.52
574.565	1647.42
574.763	1563.45
574.962	1628.99
575.16	1631.04
575.358	1540.93
575.556	1520.45
575.754	1403.71
575.952	1440.58
576.151	1411.9
576.349	1485.63
576.547	1317.7
576.745	1327.94
576.943	1364.8
577.141	1276.74
577.339	1293.12
577.537	1252.16
577.735	1289.03
577.933	1256.26
578.131	1215.3
578.329	1360.7
578.527	1121.09
578.725	1289.03
578.923	1069.89
579.121	1219.39
579.319	936.78
579.516	1129.28
579.714	1280.83
579.912	1078.08
580.11	940.87
580.308	1006.41
580.506	949.06
580.704	871.24
580.901	848.71
581.099	1100.61
581.297	965.45
581.495	955.21
581.692	901.96
581.89	1063.75
582.088	918.34
582.285	899.91
582.483	805.71
582.681	856.9
582.878	729.93
583.076	848.71
583.274	758.6
583.471	856.9
583.669	801.61
583.866	723.79
584.064	736.07
584.262	686.92
584.459	662.35
584.657	803.66
584.854	770.89
585.052	729.93
585.249	758.6
585.447	760.65
585.644	611.15
585.841	660.3
586.039	729.93
586.236	813.9
586.434	609.1
586.631	629.58
586.828	666.44
587.026	553.8
587.223	494.41
587.42	498.51
587.618	615.24
587.815	666.44
588.012	570.19
588.21	512.85
588.407	662.35
588.604	635.72
588.801	580.43
588.999	480.08
589.196	576.33
589.393	457.55
589.59	486.22
589.787	572.24
589.984	584.52
590.182	523.09
590.379	551.76
590.576	518.99
590.773	523.09
590.97	482.13
591.167	578.38
591.364	537.42
591.561	445.26
591.758	635.72
591.955	498.51
592.152	553.8
592.349	428.88
592.546	568.14
592.743	453.45
592.94	475.98
593.137	523.09
593.334	521.04
593.531	459.6
593.727	553.8
593.924	510.8
594.121	496.46
594.318	455.5
594.515	478.03
594.712	598.86
594.908	562
595.105	420.69
595.302	525.13
595.499	590.67
595.696	629.58
595.892	559.95
596.089	580.43
596.286	531.28
596.482	670.54
596.679	557.9
596.876	496.46
597.072	678.73
597.269	641.87
597.466	654.16
597.662	645.96
597.859	572.24
598.055	559.95
598.252	686.92
598.448	738.12
598.645	691.02
598.841	801.61
599.038	928.58
599.234	826.18
599.431	936.78
599.627	795.47
599.824	899.91
600.02	844.62
600.217	824.14
600.413	1028.93
600.609	912.2
600.806	1219.39
601.002	1127.24
601.198	1162.05
601.395	1143.62
601.591	1219.39
601.787	1266.5
601.984	1260.35
602.18	1391.42
602.376	1319.75
602.572	1485.63
602.769	1608.51
602.965	1549.12
603.161	1743.67
603.357	1610.56
603.553	1710.91
603.75	1596.22
603.946	1747.77
604.142	1919.8
604.338	2050.87
604.534	2030.39
604.73	1913.66
604.926	2167.6
605.122	2298.67
605.318	2210.61
605.514	2433.84
605.71	2339.63
605.906	2501.42
606.102	2413.36
606.298	2704.17
606.494	2751.28
606.69	2859.82
606.886	2855.72
607.082	2966.31
607.278	2997.03
607.474	3132.2
607.67	3232.55
607.866	3167.01
608.062	3490.59
608.257	3392.29
608.453	3425.06
608.649	3672.86
608.845	3660.57
609.041	3722.01
609.236	4008.73
609.432	4084.5
609.628	4201.24
609.824	4274.96
610.019	4344.6
610.215	4461.33
610.411	4733.71
610.606	4774.67
610.802	4637.45
610.998	4838.16
611.193	5067.53
611.389	5110.54
611.584	5280.52
611.78	5303.04
611.976	5507.84
612.171	5907.2
612.367	5974.78
612.562	6028.03
612.758	6015.74
612.953	6236.92
613.149	6427.38
613.344	6568.69
613.539	6789.87
613.735	6914.8
613.93	7150.31
614.126	7226.09
614.321	7557.86
614.517	7731.94
614.712	7914.2
614.907	8110.81
615.103	8375
615.298	8512.21
615.493	8684.24
615.688	8831.69
615.884	9231.05
616.079	9059.02
616.274	9644.74
616.47	9794.24
616.665	10181.31
616.86	10488.5
617.055	10615.48
617.25	10705.59
617.445	11203.24
617.641	11180.71
617.836	11834.02
618.031	11780.77
618.226	12372.63
618.421	12743.31
618.616	12817.04
618.811	12837.52
619.006	13367.95
619.201	13732.48
619.396	13941.38
619.591	14066.3
619.786	14746.23
619.981	14586.49
620.176	15151.73
620.371	15301.23
620.566	15716.97
620.761	15888.99
620.956	16667.22
621.151	16679.51
621.346	16953.94
621.541	17285.71
621.735	17992.26
621.93	17723.97
622.125	18471.48
622.32	18356.8
622.515	19053.11
622.709	19319.34
622.904	19839.53
623.099	20087.33
623.294	20449.82
623.488	20548.12
623.683	21590.54
623.878	21035.54
624.072	21670.41
624.267	22141.44
624.462	22440.45
624.656	22530.56
624.851	23120.37
625.046	23233.01
625.24	23722.48
625.435	23788.01
625.629	24429.02
625.824	24756.7
626.018	24764.89
626.213	24830.43
626.407	25424.34
626.602	25596.37
626.796	26276.29
626.991	26247.62
627.185	26288.58
627.38	26767.8
627.574	26511.81
627.768	26894.78
627.963	26892.73
628.157	27197.88
628.352	27658.67
628.546	27140.54
628.74	27707.82
628.935	27083.19
629.129	27222.45
629.323	27197.88
629.517	27242.93
629.712	26776
629.906	26878.4
630.1	26446.27
630.294	26571.2
630.489	25905.61
630.683	26155.46
630.877	25197.01
631.071	24947.16
631.265	24844.76
631.459	24119.78
631.653	23581.17
631.848	23140.85
632.042	22751.74
632.236	22592
632.43	21541.39
632.624	21166.61
632.818	20156.96
633.012	19780.14
633.206	19233.33
633.4	18698.81
633.594	17711.69
633.788	17375.82
633.982	16958.03
634.176	16417.37
634.369	15661.67
634.563	15051.38
634.757	14477.94
634.951	13986.43
635.145	13673.09
635.339	13011.6
635.533	12583.57
635.726	11950.75
635.92	11231.91
636.114	10887.86
636.308	10597.04
636.501	10234.55
636.695	9839.3
636.889	9337.54
637.083	8997.58
637.276	8622.8
637.47	8071.9
637.664	7873.25
637.857	7670.5
638.051	7181.03
638.244	6785.77
638.438	6642.42
638.632	6474.48
638.825	5970.68
639.019	6032.12
639.212	5577.47
639.406	5579.52
639.599	5448.45
639.793	5071.62
639.986	4956.94
640.18	4721.42
640.373	4338.45
640.567	4219.67
640.76	4215.57
640.954	4186.9
641.147	3810.08
641.34	3533.6
641.534	3631.9
641.727	3484.45
641.92	3345.19
642.114	3144.49
642.307	3132.2
642.5	2933.54
642.694	2851.63
642.887	2718.51
643.08	2755.37
643.273	2640.69
643.467	2356.02
643.66	2290.48
643.853	2265.91
644.046	2169.65
644.239	2083.64
644.432	1971
644.626	1921.85
644.819	1755.96
645.012	1790.78
645.205	1792.83
645.398	1760.06
645.591	1600.32
645.784	1381.18
645.977	1481.53
646.17	1452.86
646.363	1315.65
646.556	1307.46
646.749	1219.39
646.942	1268.55
647.135	1329.99
647.328	1084.23
647.521	1117
647.714	1051.46
647.907	963.4
648.099	965.45
648.292	947.01
648.485	834.38
648.678	834.38
648.871	865.1
649.064	793.42
649.256	764.75
649.449	711.5
649.642	621.39
649.835	580.43
650.027	672.59
650.22	703.31
650.413	693.07
650.605	645.96
650.798	543.57
650.991	578.38
651.183	562
651.376	586.57
651.568	490.32
651.761	449.36
651.954	568.14
652.146	441.17
652.339	533.33
652.531	510.8
652.724	310.1
652.916	396.11
653.109	279.38
653.301	447.31
653.494	475.98
653.686	357.2
653.879	416.59
654.071	387.92
654.263	316.24
654.456	363.34
654.648	437.07
654.84	344.91
655.033	207.7
655.225	355.15
655.417	219.99
655.61	387.92
655.802	430.93
655.994	316.24
656.186	183.12
656.379	357.2
656.571	211.79
656.763	271.19
656.955	213.84
657.148	183.12
657.34	277.33
657.532	213.84
657.724	179.03
657.916	359.25
658.108	256.85
658.3	269.14
658.492	236.37
658.684	215.89
658.876	260.95
659.068	58.2
659.26	138.07
659.452	183.12
659.644	232.27
659.836	215.89
660.028	226.13
660.22	156.5
660.412	82.77
660.604	138.07
660.796	166.74
660.988	170.83
661.18	158.55
661.372	277.33
661.563	88.92
661.755	191.31
661.947	84.82
662.139	54.1
662.331	119.64
662.522	211.79
662.714	152.4
662.906	86.87
663.097	129.88
663.289	64.34
663.481	82.77
663.673	166.74
663.864	80.72
664.056	136.02
664.247	113.49
664.439	164.69
664.631	203.6
664.822	234.32
665.014	109.4
665.205	129.88
665.397	123.73
665.588	146.26
665.78	80.72
665.971	144.21
666.163	162.64
666.354	226.13
666.546	152.4
666.737	95.06
666.929	35.67
667.12	146.26
667.311	166.74
667.503	107.35
667.694	144.21
667.885	121.68
668.077	256.85
668.268	90.96
668.459	95.06
668.651	62.29
668.842	142.16
669.033	70.48
669.224	66.39
669.416	267.09
669.607	119.64
669.798	123.73
669.989	238.42
670.18	117.59
670.371	144.21
670.563	60.24
670.754	234.32
670.945	179.03
671.136	152.4
671.327	140.12
671.518	121.68
671.709	236.37
671.9	226.13
672.091	211.79
672.282	105.3
672.473	117.59
672.664	152.4
672.855	138.07
673.046	207.7
673.237	187.22
673.428	121.68
673.619	201.55
673.809	99.16
674	256.85
674.191	158.55
674.382	70.48
674.573	154.45
674.764	142.16
674.954	117.59
675.145	62.29
675.336	107.35
675.527	93.01
675.717	127.83
675.908	93.01
676.099	131.92
676.289	154.45
676.48	68.44
676.671	158.55
676.861	76.63
677.052	260.95
677.243	183.12
677.433	154.45
677.624	148.31
677.814	142.16
678.005	121.68
678.195	287.57
678.386	88.92
678.576	93.01
678.767	54.1
678.957	115.54
679.148	146.26
679.338	328.53
679.529	226.13
679.719	154.45
679.909	183.12
680.1	170.83
680.29	179.03
680.481	113.49
680.671	240.47
680.861	160.59
681.052	170.83
681.242	111.44
681.432	219.99
681.622	101.2
681.813	133.97
682.003	226.13
682.193	103.25
682.383	150.36
682.573	97.11
682.764	207.7
682.954	131.92
683.144	217.94
683.334	199.51
683.524	215.89
683.714	230.23
683.904	248.66
684.094	226.13
684.284	246.61
684.474	228.18
684.664	211.79
684.854	193.36
685.044	209.75
685.234	242.51
685.424	179.03
685.614	275.28
685.804	299.86
685.994	195.41
686.184	207.7
686.374	262.99
686.564	125.78
686.753	228.18
686.943	174.93
687.133	185.17
687.323	234.32
687.513	224.08
687.702	224.08
687.892	230.23
688.082	326.48
688.272	240.47
688.461	269.14
688.651	279.38
688.841	205.65
689.03	138.07
689.22	252.75
689.41	189.27
689.599	258.9
689.789	215.89
689.979	344.91
690.168	179.03
690.358	191.31
690.547	209.75
690.737	285.52
690.926	215.89
691.116	183.12
691.305	318.29
691.495	252.75
691.684	131.92
691.874	168.79
692.063	260.95
692.252	215.89
692.442	179.03
692.631	121.68
692.82	191.31
693.01	203.6
693.199	176.98
693.388	273.23
693.578	121.68
693.767	203.6
693.956	281.43
694.146	203.6
694.335	222.03
694.524	191.31
694.713	269.14
694.902	170.83
695.092	150.36
695.281	189.27
695.47	226.13
695.659	131.92
695.848	144.21
696.037	105.3
696.226	256.85
696.415	260.95
696.604	213.84
696.793	211.79
696.982	162.64
697.171	312.14
697.36	154.45
697.549	287.57
697.738	68.44
697.927	195.41
698.116	97.11
698.305	273.23
698.494	189.27
698.683	121.68
698.872	285.52
699.061	234.32
699.25	185.17
699.438	142.16
699.627	125.78
699.816	314.19
700.005	62.29
700.193	183.12
700.382	240.47
700.571	215.89
700.76	207.7
700.948	273.23
701.137	246.61
701.326	256.85
701.514	133.97
701.703	199.51
701.892	160.59
702.08	289.62
702.269	244.56
702.457	109.4
702.646	154.45
702.834	154.45
703.023	228.18
703.212	246.61
703.4	199.51
703.589	113.49
703.777	60.24
703.965	127.83
704.154	68.44
704.342	133.97
704.531	226.13
704.719	326.48
704.907	271.19
705.096	168.79
705.284	117.59
705.472	199.51
705.661	201.55
705.849	269.14
706.037	252.75
706.226	156.5
706.414	217.94
706.602	97.11
706.79	228.18
706.979	43.86
707.167	219.99
707.355	146.26
707.543	211.79
707.731	219.99
707.919	197.46
708.107	148.31
708.296	195.41
708.484	129.88
708.672	207.7
708.86	160.59
709.048	250.71
709.236	80.72
709.424	174.93
709.612	152.4
709.8	95.06
709.988	115.54
710.176	308.05
710.364	277.33
710.551	160.59
710.739	113.49
710.927	191.31
711.115	271.19
711.303	236.37
711.491	262.99
711.679	226.13
711.866	236.37
712.054	131.92
712.242	185.17
712.43	219.99
712.617	193.36
712.805	279.38
712.993	258.9
713.181	172.88
713.368	250.71
713.556	232.27
713.744	105.3
713.931	336.72
714.119	316.24
714.306	217.94
714.494	133.97
714.682	207.7
714.869	162.64
715.057	252.75
715.244	74.58
715.432	183.12
715.619	195.41
715.807	187.22
715.994	146.26
716.182	250.71
716.369	299.86
716.556	275.28
716.744	146.26
716.931	158.55
717.119	256.85
717.306	246.61
717.493	260.95
717.681	226.13
717.868	228.18
718.055	267.09
718.242	211.79
718.43	265.04
718.617	242.51
718.804	166.74
718.991	308.05
719.179	146.26
719.366	199.51
719.553	187.22
719.74	203.6
719.927	201.55
720.114	150.36
720.301	156.5
720.488	125.78
720.676	201.55
720.863	301.9
721.05	277.33
721.237	242.51
721.424	250.71
721.611	232.27
721.798	246.61
721.985	140.12
722.172	226.13
722.358	222.03
722.545	236.37
722.732	185.17
722.919	226.13
723.106	189.27
723.293	287.57
723.48	252.75
723.667	277.33
723.853	287.57
724.04	211.79
724.227	224.08
724.414	254.8
724.6	207.7
724.787	293.71
724.974	336.72
725.161	260.95
725.347	183.12
725.534	260.95
725.72	306
725.907	295.76
726.094	318.29
726.28	195.41
726.467	262.99
726.653	217.94
726.84	361.3
727.027	314.19
727.213	232.27
727.4	299.86
727.586	256.85
727.773	275.28
727.959	283.47
728.145	256.85
728.332	215.89
728.518	138.07
728.705	195.41
728.891	197.46
729.077	215.89
729.264	224.08
729.45	246.61
729.636	301.9
729.823	310.1
730.009	324.43
730.195	342.86
730.382	271.19
730.568	234.32
730.754	289.62
730.94	250.71
731.126	199.51
731.313	357.2
731.499	281.43
731.685	310.1
731.871	332.62
732.057	422.73
732.243	252.75
732.429	252.75
732.615	330.58
732.801	283.47
732.987	244.56
733.173	248.66
733.359	226.13
733.545	326.48
733.731	244.56
733.917	383.82
734.103	273.23
734.289	262.99
734.475	215.89
734.661	385.87
734.847	301.9
735.033	361.3
735.219	287.57
735.404	273.23
735.59	195.41
735.776	252.75
735.962	285.52
736.148	303.95
736.333	318.29
736.519	340.82
736.705	277.33
736.89	301.9
737.076	297.81
737.262	265.04
737.447	207.7
737.633	275.28
737.819	351.06
738.004	293.71
738.19	277.33
738.375	326.48
738.561	340.82
738.747	267.09
738.932	252.75
739.118	439.12
739.303	373.58
739.489	301.9
739.674	375.63
739.859	224.08
740.045	375.63
740.23	312.14
740.416	181.07
740.601	303.95
740.786	293.71
740.972	183.12
741.157	207.7
741.342	277.33
741.528	179.03
741.713	387.92
741.898	222.03
742.084	299.86
742.269	217.94
742.454	312.14
742.639	312.14
742.824	295.76
743.01	351.06
743.195	414.54
743.38	273.23
743.565	293.71
743.75	355.15
743.935	375.63
744.12	383.82
744.305	174.93
744.49	275.28
744.675	275.28
744.86	176.98
745.045	244.56
745.23	262.99
745.415	232.27
745.6	359.25
745.785	240.47
745.97	336.72
746.155	420.69
746.34	363.34
746.525	318.29
746.71	324.43
746.895	240.47
747.079	217.94
747.264	203.6
747.449	334.67
747.634	330.58
747.819	318.29
748.003	301.9
748.188	207.7
748.373	277.33
748.557	269.14
748.742	353.1
748.927	326.48
749.111	273.23
749.296	324.43
749.481	222.03
749.665	240.47
749.85	201.55
750.034	332.62
750.219	211.79
750.404	273.23
750.588	269.14
750.773	219.99
750.957	207.7
751.141	226.13
751.326	314.19
751.51	248.66
751.695	215.89
751.879	260.95
752.064	396.11
752.248	211.79
752.432	437.07
752.617	320.34
752.801	236.37
752.985	222.03
753.17	246.61
753.354	306
753.538	197.46
753.722	140.12
753.907	150.36
754.091	236.37
754.275	269.14
754.459	121.68
754.643	144.21
754.828	207.7
755.012	248.66
755.196	146.26
755.38	215.89
755.564	181.07
755.748	154.45
755.932	226.13
756.116	281.43
756.3	191.31
756.484	138.07
756.668	207.7
756.852	133.97
757.036	160.59
757.22	219.99
757.404	119.64
757.588	162.64
757.772	191.31
757.956	226.13
758.14	293.71
758.323	72.53
758.507	244.56
758.691	166.74
758.875	234.32
759.059	205.65
759.242	185.17
759.426	205.65
759.61	158.55
759.794	78.68
759.977	197.46
760.161	336.72
760.345	273.23
760.528	162.64
760.712	219.99
760.895	164.69
761.079	66.39
761.263	66.39
761.446	121.68
761.63	144.21
761.813	217.94
761.997	84.82
762.18	176.98
762.364	199.51
762.547	7
762.731	166.74
762.914	150.36
763.098	121.68
763.281	170.83
763.464	74.58
763.648	133.97
763.831	95.06
764.015	133.97
764.198	224.08
764.381	185.17
764.564	146.26
764.748	111.44
764.931	127.83
765.114	97.11
765.297	164.69
765.481	72.53
765.664	88.92
765.847	60.24
766.03	191.31
766.213	80.72
766.397	109.4
766.58	23.38
766.763	154.45
766.946	121.68
767.129	150.36
767.312	76.63
767.495	131.92
767.678	64.34
767.861	142.16
768.044	219.99
768.227	80.72
768.41	148.31
768.593	66.39
768.776	125.78
768.959	82.77
769.142	246.61
769.324	-68.78
769.507	99.16
769.69	113.49
769.873	154.45
770.056	265.04
770.239	72.53
770.421	189.27
770.604	203.6
770.787	211.79
770.97	29.52
771.152	21.33
771.335	136.02
771.518	-3.24
771.7	156.5
771.883	219.99
772.066	162.64
772.248	170.83
772.431	187.22
772.613	166.74
772.796	111.44
772.978	215.89
773.161	228.18
773.343	52.05
773.526	11.09
773.708	-38.06
773.891	136.02
774.073	107.35
774.256	31.57
774.438	226.13
774.621	29.52
774.803	162.64
774.985	129.88
775.168	138.07
775.35	15.19
775.532	146.26
775.715	84.82
775.897	154.45
776.079	127.83
776.261	127.83
776.444	93.01
776.626	115.54
776.808	33.62
776.99	2.9
777.173	39.76
777.355	70.48
777.537	105.3
777.719	88.92
777.901	70.48
778.083	99.16
778.265	64.34
778.447	146.26
778.629	136.02
778.811	121.68
778.993	152.4
779.175	160.59
779.357	80.72
779.539	4.95
779.721	-13.48
779.903	86.87
780.085	82.77
780.267	109.4
780.449	-5.29
780.631	56.15
780.812	199.51
780.994	76.63
781.176	95.06
781.358	19.29
781.54	41.81
781.721	60.24
781.903	193.36
782.085	4.95
782.267	160.59
782.448	23.38
782.63	74.58
782.812	88.92
782.993	109.4
783.175	56.15
783.357	56.15
783.538	68.44
783.72	23.38
783.901	56.15
784.083	62.29
784.264	111.44
784.446	-19.63
784.627	-31.91
784.809	111.44
784.99	31.57
785.172	133.97
785.353	52.05
785.535	60.24
785.716	35.67
785.897	121.68
786.079	-54.44
786.26	56.15
786.441	80.72
786.623	-11.43
786.804	23.38
786.985	105.3
787.167	111.44
787.348	74.58
787.529	29.52
787.71	154.45
787.891	56.15
788.073	31.57
788.254	-60.59
788.435	166.74
788.616	64.34
788.797	-38.06
788.978	33.62
789.159	60.24
789.34	76.63
789.522	43.86
789.703	2.9
789.884	84.82
790.065	-1.19
790.246	88.92
790.427	39.76
790.607	52.05
790.788	66.39
790.969	68.44
791.15	74.58
791.331	19.29
791.512	43.86
791.693	-11.43
791.874	-60.59
792.054	170.83
792.235	52.05
792.416	43.86
792.597	-72.87
792.778	4.95
792.958	23.38
793.139	113.49
793.32	84.82
793.5	-62.63
793.681	160.59
793.862	107.35
794.042	52.05
794.223	-13.48
794.404	21.33
794.584	15.19
794.765	0.85
794.945	62.29
795.126	142.16
795.306	105.3
795.487	-1.19
795.667	35.67
795.848	52.05
796.028	4.95
796.209	41.81
796.389	64.34
796.57	27.48
796.75	86.87
796.93	101.2
797.111	45.91
797.291	39.76
797.471	111.44
797.652	-85.16
797.832	62.29
798.012	80.72
798.192	64.34
798.373	-103.59
798.553	-7.34
798.733	64.34
798.913	27.48
799.093	27.48
799.274	-13.48
799.454	80.72
799.634	45.91
799.814	113.49
799.994	60.24
800.174	148.31
800.354	97.11
800.534	-85.16
800.714	117.59
800.894	-23.72
801.074	2.9
801.254	23.38
801.434	78.68
801.614	-23.72
801.794	-42.15
801.974	1792.83
802.154	60.24
802.334	95.06
802.514	-27.82
802.693	23.38
802.873	19.29
803.053	88.92
803.233	25.43
803.413	-42.15
803.592	-52.39
803.772	27.48
803.952	7
804.131	-33.96
804.311	86.87
804.491	136.02
804.67	31.57
804.85	2.9
805.03	-1.19
805.209	105.3
805.389	-3.24
805.568	-48.3
805.748	-42.15
805.928	29.52
806.107	140.12
806.287	109.4
806.466	15.19
806.646	31.57
806.825	-44.2
807.004	-1.19
807.184	76.63
807.363	80.72
807.543	84.82
807.722	-99.5
807.901	80.72
808.081	78.68
808.26	-173.22
808.439	88.92
808.619	-17.58
808.798	-3.24
808.977	29.52
809.156	78.68
809.336	72.53
809.515	113.49
809.694	-50.35
809.873	-70.83
810.052	62.29
810.231	95.06
810.411	80.72
810.59	111.44
810.769	90.96
810.948	31.57
811.127	-128.17
811.306	23.38
811.485	-17.58
811.664	142.16
811.843	45.91
812.022	29.52
812.201	-5.29
812.38	47.96
812.559	11.09
812.737	103.25
812.916	-52.39
813.095	-25.77
813.274	82.77
813.453	9.05
813.632	64.34
813.811	21.33
813.989	-54.44
814.168	35.67
814.347	-3.24
814.526	52.05
814.704	119.64
814.883	119.64
815.062	-19.63
815.24	-5.29
815.419	-17.58
815.598	-11.43
815.776	-38.06
815.955	13.14
816.133	-115.88
816.312	-1.19
816.49	15.19
816.669	-7.34
816.847	15.19
817.026	50
817.204	-11.43
817.383	9.05
817.561	29.52
817.74	76.63
817.918	-1.19
818.097	15.19
818.275	-3.24
818.453	7
818.632	-1.19
818.81	-5.29
818.988	-3.24
819.167	15.19
819.345	86.87
819.523	13.14
819.701	90.96
819.879	37.72
820.058	35.67
820.236	17.24
820.414	39.76
820.592	0.85
820.77	-3.24
820.948	-13.48
821.127	4.95
821.305	35.67
821.483	-50.35
821.661	70.48
821.839	56.15
822.017	-89.26
822.195	-13.48
822.373	45.91
822.551	35.67
822.729	52.05
822.907	-48.3
823.085	72.53
823.262	-50.35
823.44	-38.06
823.618	-1.19
823.796	-17.58
823.974	66.39
824.152	-83.11
824.329	-3.24
824.507	37.72
824.685	45.91
824.863	-33.96
825.04	47.96
825.218	74.58
825.396	-3.24
825.574	-40.11
825.751	60.24
825.929	15.19
826.107	-25.77
826.284	19.29
826.462	23.38
826.639	2.9
826.817	19.29
826.994	31.57
827.172	-38.06
827.349	7
827.527	15.19
827.704	23.38
827.882	-9.39
828.059	7
828.237	11.09
828.414	86.87
828.591	-119.98
828.769	4.95
828.946	-68.78
829.124	52.05
829.301	97.11
829.478	-40.11
829.655	-38.06
829.833	72.53
830.01	-74.92
830.187	7
830.364	23.38
830.542	7
830.719	84.82
830.896	68.44
831.073	-1.19
831.25	19.29
831.427	82.77
831.604	21.33
831.782	11.09
831.959	4.95
832.136	-5.29
832.313	60.24
832.49	4.95
832.667	31.57
832.844	-42.15
833.021	19.29
833.198	-19.63
833.374	37.72
833.551	-17.58
833.728	17.24
833.905	117.59
834.082	-144.55
834.259	31.57
834.436	127.83
834.612	-58.54
834.789	35.67
834.966	25.43
835.143	-9.39
835.319	-74.92
835.496	72.53
835.673	23.38
835.85	117.59
836.026	-13.48
836.203	33.62
836.38	-7.34
836.556	-42.15
836.733	4.95
836.909	88.92
837.086	-38.06
837.262	-56.49
837.439	7
837.616	-15.53
837.792	-1.19
837.968	31.57
838.145	-68.78
838.321	-9.39
838.498	45.91
838.674	56.15
838.851	-9.39
839.027	-25.77
839.203	-19.63
839.38	74.58
839.556	-29.87
839.732	72.53
839.909	39.76
840.085	113.49
840.261	31.57
840.437	39.76
840.614	-68.78
840.79	78.68
840.966	62.29
841.142	21.33
841.318	17.24
841.494	-27.82
841.671	27.48
841.847	-5.29
842.023	-29.87
842.199	33.62
842.375	13.14
842.551	-103.59
842.727	-81.07
842.903	68.44
843.079	15.19
843.255	84.82
843.431	23.38
843.607	111.44
843.783	-128.17
843.959	47.96
844.134	-128.17
844.31	78.68
844.486	9.05
844.662	-50.35
844.838	0.85
845.013	101.2
845.189	-13.48
845.365	-19.63
845.541	-42.15
845.716	62.29
845.892	146.26
846.068	-42.15
846.244	-44.2
846.419	97.11
846.595	-25.77
846.77	-27.82
846.946	95.06
847.122	-72.87
847.297	-50.35
847.473	88.92
847.648	-54.44
847.824	37.72
847.999	-76.97
848.175	56.15
848.35	0.85
848.526	31.57
848.701	72.53
848.876	31.57
849.052	129.88
849.227	-66.73
849.403	-25.77
849.578	-60.59
849.753	-1.19
849.929	56.15
850.104	-7.34
850.279	29.52
850.454	56.15
850.63	88.92
850.805	7
850.98	27.48
851.155	25.43
851.33	-9.39
851.505	-5.29
851.681	176.98
851.856	-15.53
852.031	-25.77
852.206	-25.77
852.381	-50.35
852.556	-13.48
852.731	37.72
852.906	15.19
853.081	39.76
853.256	47.96
853.431	47.96
853.606	-85.16
853.781	-54.44
853.956	-91.31
854.131	-25.77
854.305	-13.48
854.48	47.96
854.655	-17.58
854.83	-40.11
855.005	-1.19
855.18	31.57
855.354	35.67
855.529	45.91
855.704	-9.39
855.879	-9.39
856.053	-89.26
856.228	-19.63
856.403	7
856.577	47.96
856.752	-66.73
856.926	11.09
857.101	-31.91
857.276	-107.69
857.45	37.72
857.625	107.35
857.799	35.67
857.974	25.43
858.148	-46.25
858.323	72.53
858.497	-11.43
858.672	-15.53
858.846	-31.91
859.02	7
859.195	-97.45
859.369	13.14
859.543	58.2
859.718	62.29
859.892	2.9
860.066	70.48
860.241	-99.5
860.415	-70.83
860.589	-52.39
860.763	-27.82
860.938	-46.25
861.112	13.14
861.286	21.33
861.46	-11.43
861.634	-40.11
861.808	105.3
861.982	-60.59
862.157	-60.59
862.331	-42.15
862.505	-107.69
862.679	-54.44
862.853	-19.63
863.027	23.38
863.201	140.12
863.375	-105.64
863.549	60.24
863.722	19.29
863.896	66.39
864.07	-93.35
864.244	7
864.418	23.38
864.592	64.34
864.766	37.72
864.939	11.09
865.113	-50.35
865.287	72.53
865.461	-13.48
865.634	15.19
865.808	-76.97
865.982	7
866.156	-62.63
866.329	-87.21
866.503	-1.19
866.676	68.44
866.85	39.76
867.024	-46.25
867.197	84.82
867.371	-27.82
867.544	-17.58
867.718	-101.55
867.891	23.38
868.065	-17.58
868.238	47.96
868.412	58.2
868.585	-5.29
868.759	-1.19
868.932	25.43
869.105	-27.82
869.279	-1.19
869.452	-58.54
869.625	2.9
869.799	-97.45
869.972	-85.16
870.145	9.05
870.319	41.81
870.492	-66.73
870.665	-15.53
870.838	-119.98
871.011	-128.17
871.185	2.9
871.358	4.95
871.531	138.07
871.704	-13.48
871.877	-19.63
872.05	-48.3
872.223	-85.16
872.396	52.05
872.569	33.62
872.742	-19.63
872.915	56.15
873.088	-70.83
873.261	-76.97
873.434	103.25
873.607	27.48
873.78	56.15
873.953	-93.35
874.126	58.2
874.299	43.86
874.471	4.95
874.644	-1.19
874.817	37.72
874.99	138.07
875.163	-23.72
875.335	31.57
875.508	-11.43
875.681	39.76
875.853	31.57
876.026	-83.11
876.199	158.55
876.371	31.57
876.544	-79.02
876.717	-21.67
876.889	-66.73
877.062	9.05
877.234	-46.25
877.407	4.95
877.579	-33.96
877.752	64.34
877.924	105.3
878.097	11.09
878.269	-33.96
878.442	54.1
878.614	56.15
878.786	19.29
878.959	9.05
879.131	15.19
879.303	-109.74
879.476	-27.82
879.648	37.72
879.82	-76.97
879.993	7
880.165	-38.06
880.337	-87.21
880.509	-25.77
880.681	-162.98
880.854	-42.15
881.026	13.14
881.198	138.07
881.37	-5.29
881.542	11.09
881.714	45.91
881.886	15.19
882.058	23.38
882.23	68.44
882.402	-17.58
882.574	19.29
882.746	72.53
882.918	103.25
883.09	-15.53
883.262	-42.15
883.434	-99.5
883.606	-95.4
883.778	2.9
883.95	160.59
884.122	-66.73
884.293	127.83
884.465	-31.91
884.637	37.72
884.809	-19.63
884.98	64.34
885.152	33.62
885.324	7
885.496	43.86
885.667	-33.96
885.839	2.9
886.011	78.68
886.182	47.96
886.354	37.72
886.525	45.91
886.697	35.67
886.869	33.62
887.04	15.19
887.212	43.86
887.383	117.59
887.555	23.38
887.726	-79.02
887.897	23.38
888.069	35.67
888.24	13.14
888.412	-9.39
888.583	31.57
888.754	-56.49
888.926	-115.88
889.097	2.9
889.268	-25.77
889.44	13.14
889.611	-70.83
889.782	13.14
889.953	35.67
890.125	105.3
890.296	-58.54
890.467	23.38
890.638	-91.31
890.809	-33.96
890.98	39.76
891.151	47.96
891.323	125.78
891.494	17.24
891.665	29.52
891.836	-68.78
892.007	72.53
892.178	31.57
892.349	-9.39
892.52	-89.26
892.691	-58.54
892.862	-50.35
893.032	-62.63
893.203	-17.58
893.374	39.76
893.545	66.39
893.716	7
893.887	99.16
894.057	-11.43
894.228	-46.25
894.399	-91.31
894.57	78.68
894.74	7
894.911	56.15
895.082	19.29
895.253	-42.15
895.423	56.15
895.594	-17.58
895.764	33.62
895.935	-17.58
896.106	-42.15
896.276	-66.73
896.447	56.15
896.617	4.95
896.788	2.9
896.958	68.44
897.129	-56.49
897.299	7
897.47	88.92
897.64	52.05
897.81	2.9
897.981	19.29
898.151	-56.49
898.322	4.95
898.492	15.19
898.662	-36.01
898.832	-62.63
899.003	-46.25
899.173	7
899.343	-25.77
899.513	-13.48
