Data from USB4F104151__65__11-30-55-165.txt Node

Date: Wed Feb 26 11:30:55 EST 2025
User: louis
Spectrometer: USB4F10415
Trigger mode: 4
Integration Time (sec): 1.000000E-1
Scans to average: 1
Electric dark correction enabled: true
Nonlinearity correction enabled: false
Boxcar width: 0
XAxis mode: Wavelengths
Number of Pixels in Spectrum: 3648
>>>>>Begin Spectral Data<<<<<
178.204	-418.47
178.424	-418.47
178.644	-418.47
178.864	-438.95
179.084	-348.84
179.304	-8.87
179.524	-88.75
179.744	54.61
179.964	44.37
180.184	-37.55
180.404	81.24
180.624	50.52
180.844	-15.02
181.064	-90.79
181.283	54.61
181.503	-84.65
181.723	40.28
181.943	-58.03
182.163	185.68
182.383	17.75
182.602	54.61
182.822	64.85
183.042	46.42
183.262	-39.59
183.482	-15.02
183.701	-0.68
183.921	42.32
184.141	-51.88
184.361	15.7
184.58	44.37
184.8	-10.92
185.02	-47.79
185.239	103.76
185.459	56.66
185.679	52.56
185.898	-8.87
186.118	23.89
186.338	120.15
186.557	116.05
186.777	-51.88
186.997	42.32
187.216	46.42
187.436	261.46
187.655	73.04
187.875	136.53
188.095	85.33
188.314	216.4
188.534	81.24
188.753	-41.64
188.973	128.34
189.192	126.29
189.412	-0.68
189.631	-8.87
189.851	71
190.07	157.01
190.29	-23.21
190.509	-64.17
190.729	68.95
190.948	132.44
191.168	154.96
191.387	68.95
191.607	56.66
191.826	103.76
192.045	27.99
192.265	30.04
192.484	34.13
192.704	23.89
192.923	-72.36
193.142	169.3
193.362	101.72
193.581	122.2
193.8	13.65
194.02	95.57
194.239	66.9
194.458	75.09
194.678	-35.5
194.897	27.99
195.116	66.9
195.335	58.71
195.555	-17.07
195.774	-62.12
195.993	42.32
196.212	-19.11
196.432	-2.73
196.651	5.46
196.87	11.61
197.089	249.17
197.308	87.38
197.528	-49.83
197.747	-27.31
197.966	15.7
198.185	93.52
198.404	-39.59
198.623	81.24
198.842	154.96
199.062	122.2
199.281	58.71
199.5	-37.55
199.719	89.43
199.938	64.85
200.157	126.29
200.376	34.13
200.595	62.8
200.814	50.52
201.033	-17.07
201.252	181.59
201.471	85.33
201.69	50.52
201.909	197.97
202.128	111.96
202.347	77.14
202.566	-27.31
202.785	-25.26
203.004	64.85
203.223	269.65
203.442	-55.98
203.661	-74.41
203.879	138.58
204.098	132.44
204.317	-8.87
204.536	89.43
204.755	60.76
204.974	85.33
205.193	15.7
205.411	144.72
205.63	95.57
205.849	77.14
206.068	5.46
206.287	-19.11
206.505	36.18
206.724	60.76
206.943	7.51
207.162	-64.17
207.381	46.42
207.599	48.47
207.818	32.08
208.037	-29.35
208.255	15.7
208.474	38.23
208.693	109.91
208.911	5.46
209.13	32.08
209.349	130.39
209.567	87.38
209.786	32.08
210.005	157.01
210.223	21.84
210.442	-105.13
210.661	38.23
210.879	81.24
211.098	-39.59
211.316	27.99
211.535	89.43
211.753	9.56
211.972	25.94
212.191	48.47
212.409	9.56
212.628	48.47
212.846	-70.31
213.065	85.33
213.283	75.09
213.502	101.72
213.72	-15.02
213.938	13.65
214.157	-6.83
214.375	81.24
214.594	40.28
214.812	68.95
215.031	56.66
215.249	50.52
215.467	64.85
215.686	-47.79
215.904	58.71
216.122	73.04
216.341	91.48
216.559	85.33
216.778	118.1
216.996	126.29
217.214	9.56
217.432	-39.59
217.651	-101.03
217.869	93.52
218.087	58.71
218.306	-0.68
218.524	120.15
218.742	56.66
218.96	114
219.179	13.65
219.397	-0.68
219.615	288.08
219.833	58.71
220.051	-78.51
220.27	89.43
220.488	152.91
220.706	27.99
220.924	48.47
221.142	-92.84
221.36	54.61
221.578	85.33
221.796	32.08
222.015	48.47
222.233	13.65
222.451	140.63
222.669	25.94
222.887	87.38
223.105	-8.87
223.323	-19.11
223.541	-27.31
223.759	-0.68
223.977	11.61
224.195	165.2
224.413	71
224.631	25.94
224.849	56.66
225.067	228.69
225.285	-70.31
225.503	138.58
225.721	-43.69
225.939	38.23
226.157	17.75
226.375	238.93
226.592	-21.16
226.81	87.38
227.028	107.86
227.246	152.91
227.464	50.52
227.682	152.91
227.9	21.84
228.117	21.84
228.335	66.9
228.553	54.61
228.771	27.99
228.989	56.66
229.206	97.62
229.424	17.75
229.642	-0.68
229.86	-2.73
230.077	120.15
230.295	19.8
230.513	17.75
230.731	54.61
230.948	52.56
231.166	126.29
231.384	17.75
231.601	13.65
231.819	169.3
232.037	25.94
232.254	-41.64
232.472	13.65
232.689	-8.87
232.907	161.11
233.125	54.61
233.342	7.51
233.56	19.8
233.777	-47.79
233.995	-12.97
234.213	44.37
234.43	52.56
234.648	-6.83
234.865	-49.83
235.083	42.32
235.3	126.29
235.518	150.87
235.735	75.09
235.953	75.09
236.17	-12.97
236.388	30.04
236.605	89.43
236.822	144.72
237.04	97.62
237.257	36.18
237.475	-0.68
237.692	38.23
237.909	66.9
238.127	-96.94
238.344	134.48
238.562	25.94
238.779	-25.26
238.996	-23.21
239.214	107.86
239.431	114
239.648	15.7
239.865	38.23
240.083	103.76
240.3	1.37
240.517	44.37
240.735	-74.41
240.952	163.15
241.169	48.47
241.386	77.14
241.603	66.9
241.821	36.18
242.038	93.52
242.255	152.91
242.472	60.76
242.689	116.05
242.907	44.37
243.124	1.37
243.341	101.72
243.558	-33.45
243.775	-33.45
243.992	-37.55
244.209	89.43
244.426	179.54
244.643	48.47
244.86	11.61
245.078	122.2
245.295	40.28
245.512	-0.68
245.729	32.08
245.946	60.76
246.163	85.33
246.38	-29.35
246.597	21.84
246.814	50.52
247.031	30.04
247.248	42.32
247.464	40.28
247.681	105.81
247.898	-4.78
248.115	-10.92
248.332	-70.31
248.549	130.39
248.766	154.96
248.983	103.76
249.2	109.91
249.417	111.96
249.633	-6.83
249.85	150.87
250.067	52.56
250.284	75.09
250.501	126.29
250.717	54.61
250.934	27.99
251.151	-15.02
251.368	83.28
251.585	58.71
251.801	89.43
252.018	-8.87
252.235	79.19
252.451	-76.46
252.668	-12.97
252.885	114
253.102	85.33
253.318	7.51
253.535	3.41
253.752	-19.11
253.968	60.76
254.185	-66.22
254.401	56.66
254.618	27.99
254.835	-45.74
255.051	165.2
255.268	11.61
255.484	38.23
255.701	75.09
255.917	54.61
256.134	-58.03
256.351	79.19
256.567	-43.69
256.784	-6.83
257	-101.03
257.217	58.71
257.433	118.1
257.65	60.76
257.866	132.44
258.082	-21.16
258.299	-72.36
258.515	48.47
258.732	-15.02
258.948	-53.93
259.165	-6.83
259.381	-55.98
259.597	148.82
259.814	66.9
260.03	-12.97
260.246	44.37
260.463	126.29
260.679	114
260.895	38.23
261.112	19.8
261.328	79.19
261.544	19.8
261.761	120.15
261.977	-4.78
262.193	-51.88
262.409	122.2
262.626	62.8
262.842	40.28
263.058	19.8
263.274	101.72
263.49	32.08
263.707	95.57
263.923	116.05
264.139	-25.26
264.355	157.01
264.571	32.08
264.787	71
265.004	103.76
265.22	114
265.436	19.8
265.652	32.08
265.868	56.66
266.084	-41.64
266.3	38.23
266.516	-27.31
266.732	91.48
266.948	56.66
267.164	-37.55
267.38	77.14
267.596	116.05
267.812	134.48
268.028	103.76
268.244	48.47
268.46	38.23
268.676	42.32
268.892	111.96
269.108	-15.02
269.324	36.18
269.54	-45.74
269.756	89.43
269.972	5.46
270.188	44.37
270.403	-74.41
270.619	13.65
270.835	114
271.051	21.84
271.267	-62.12
271.483	23.89
271.698	146.77
271.914	44.37
272.13	23.89
272.346	1.37
272.562	5.46
272.777	62.8
272.993	-98.99
273.209	-8.87
273.425	109.91
273.64	-4.78
273.856	116.05
274.072	-15.02
274.287	-19.11
274.503	140.63
274.719	99.67
274.934	1.37
275.15	-66.22
275.366	30.04
275.581	-12.97
275.797	21.84
276.012	-19.11
276.228	3.41
276.444	32.08
276.659	97.62
276.875	11.61
277.09	1.37
277.306	13.65
277.521	32.08
277.737	-12.97
277.952	68.95
278.168	40.28
278.383	68.95
278.599	19.8
278.814	114
279.03	40.28
279.245	140.63
279.461	-17.07
279.676	109.91
279.892	-29.35
280.107	-98.99
280.322	-60.07
280.538	62.8
280.753	17.75
280.969	101.72
281.184	-15.02
281.399	159.06
281.615	66.9
281.83	21.84
282.045	-17.07
282.26	-41.64
282.476	-29.35
282.691	159.06
282.906	73.04
283.122	-23.21
283.337	-6.83
283.552	32.08
283.767	-62.12
283.983	107.86
284.198	71
284.413	79.19
284.628	-15.02
284.843	152.91
285.058	148.82
285.274	1.37
285.489	-70.31
285.704	42.32
285.919	25.94
286.134	7.51
286.349	38.23
286.564	-49.83
286.779	132.44
286.995	68.95
287.21	-68.27
287.425	30.04
287.64	-37.55
287.855	71
288.07	-86.7
288.285	159.06
288.5	68.95
288.715	105.81
288.93	-6.83
289.145	-25.26
289.36	66.9
289.575	-62.12
289.79	85.33
290.004	30.04
290.219	81.24
290.434	62.8
290.649	-74.41
290.864	-25.26
291.079	3.41
291.294	11.61
291.509	-2.73
291.724	48.47
291.938	118.1
292.153	66.9
292.368	95.57
292.583	60.76
292.798	175.44
293.012	126.29
293.227	130.39
293.442	27.99
293.657	44.37
293.871	148.82
294.086	36.18
294.301	124.24
294.516	73.04
294.73	93.52
294.945	-29.35
295.16	97.62
295.374	40.28
295.589	97.62
295.804	77.14
296.018	-8.87
296.233	118.1
296.447	144.72
296.662	-19.11
296.877	64.85
297.091	66.9
297.306	89.43
297.52	50.52
297.735	66.9
297.949	44.37
298.164	-10.92
298.378	32.08
298.593	-37.55
298.807	-12.97
299.022	32.08
299.236	81.24
299.451	-4.78
299.665	1.37
299.88	-8.87
300.094	30.04
300.309	-6.83
300.523	36.18
300.737	-0.68
300.952	126.29
301.166	79.19
301.381	21.84
301.595	-37.55
301.809	87.38
302.024	-19.11
302.238	-41.64
302.452	52.56
302.667	54.61
302.881	214.35
303.095	159.06
303.309	46.42
303.524	-12.97
303.738	-6.83
303.952	38.23
304.166	79.19
304.381	-115.37
304.595	195.92
304.809	60.76
305.023	42.32
305.237	111.96
305.452	-0.68
305.666	132.44
305.88	66.9
306.094	126.29
306.308	101.72
306.522	97.62
306.736	58.71
306.95	36.18
307.164	32.08
307.379	44.37
307.593	183.63
307.807	77.14
308.021	3.41
308.235	79.19
308.449	-51.88
308.663	79.19
308.877	212.31
309.091	19.8
309.305	118.1
309.519	-115.37
309.733	116.05
309.947	-68.27
310.161	32.08
310.374	58.71
310.588	99.67
310.802	9.56
311.016	-23.21
311.23	85.33
311.444	-45.74
311.658	75.09
311.872	99.67
312.085	93.52
312.299	175.44
312.513	179.54
312.727	38.23
312.941	-23.21
313.154	30.04
313.368	30.04
313.582	-29.35
313.796	42.32
314.009	-27.31
314.223	154.96
314.437	42.32
314.651	95.57
314.864	-51.88
315.078	30.04
315.292	-58.03
315.505	21.84
315.719	85.33
315.933	109.91
316.146	-66.22
316.36	-49.83
316.573	128.34
316.787	163.15
317.001	81.24
317.214	-37.55
317.428	87.38
317.641	68.95
317.855	50.52
318.068	116.05
318.282	9.56
318.495	171.35
318.709	101.72
318.922	13.65
319.136	189.78
319.349	181.59
319.563	36.18
319.776	79.19
319.99	1.37
320.203	81.24
320.417	5.46
320.63	114
320.843	152.91
321.057	68.95
321.27	146.77
321.483	38.23
321.697	140.63
321.91	101.72
322.124	-12.97
322.337	109.91
322.55	-80.55
322.763	44.37
322.977	73.04
323.19	60.76
323.403	77.14
323.617	126.29
323.83	142.68
324.043	-62.12
324.256	60.76
324.469	-82.6
324.683	105.81
324.896	-33.45
325.109	87.38
325.322	-76.46
325.535	40.28
325.748	87.38
325.962	-8.87
326.175	34.13
326.388	173.39
326.601	87.38
326.814	11.61
327.027	13.65
327.24	111.96
327.453	-111.27
327.666	21.84
327.879	56.66
328.092	36.18
328.305	66.9
328.518	40.28
328.731	91.48
328.944	-15.02
329.157	111.96
329.37	140.63
329.583	103.76
329.796	157.01
330.009	-105.13
330.222	89.43
330.435	175.44
330.648	17.75
330.861	25.94
331.073	134.48
331.286	81.24
331.499	19.8
331.712	-43.69
331.925	-31.4
332.138	68.95
332.35	36.18
332.563	-43.69
332.776	36.18
332.989	-8.87
333.202	-4.78
333.414	11.61
333.627	44.37
333.84	56.66
334.053	44.37
334.265	-8.87
334.478	81.24
334.691	91.48
334.903	58.71
335.116	5.46
335.329	50.52
335.541	95.57
335.754	66.9
335.966	40.28
336.179	9.56
336.392	42.32
336.604	75.09
336.817	77.14
337.029	36.18
337.242	46.42
337.454	56.66
337.667	52.56
337.88	165.2
338.092	62.8
338.305	103.76
338.517	-10.92
338.729	103.76
338.942	118.1
339.154	11.61
339.367	-82.6
339.579	152.91
339.792	-15.02
340.004	66.9
340.217	71
340.429	44.37
340.641	-19.11
340.854	-62.12
341.066	27.99
341.278	175.44
341.491	118.1
341.703	5.46
341.915	-12.97
342.128	58.71
342.34	66.9
342.552	-41.64
342.764	56.66
342.977	-29.35
343.189	66.9
343.401	44.37
343.613	25.94
343.826	66.9
344.038	-17.07
344.25	-6.83
344.462	30.04
344.674	75.09
344.886	11.61
345.099	17.75
345.311	83.28
345.523	-17.07
345.735	-47.79
345.947	32.08
346.159	1.37
346.371	44.37
346.583	32.08
346.795	142.68
347.007	15.7
347.219	44.37
347.431	36.18
347.643	105.81
347.855	-12.97
348.067	62.8
348.279	1.37
348.491	116.05
348.703	66.9
348.915	64.85
349.127	-21.16
349.339	30.04
349.551	7.51
349.763	48.47
349.975	-29.35
350.187	132.44
350.399	101.72
350.61	52.56
350.822	23.89
351.034	19.8
351.246	77.14
351.458	17.75
351.669	126.29
351.881	122.2
352.093	138.58
352.305	81.24
352.517	7.51
352.728	116.05
352.94	1.37
353.152	95.57
353.363	50.52
353.575	73.04
353.787	64.85
353.999	32.08
354.21	165.2
354.422	-25.26
354.633	15.7
354.845	19.8
355.057	42.32
355.268	77.14
355.48	150.87
355.692	23.89
355.903	32.08
356.115	-39.59
356.326	-62.12
356.538	181.59
356.749	50.52
356.961	122.2
357.172	34.13
357.384	-35.5
357.595	202.07
357.807	-47.79
358.018	52.56
358.23	36.18
358.441	128.34
358.653	58.71
358.864	111.96
359.075	50.52
359.287	148.82
359.498	99.67
359.709	19.8
359.921	44.37
360.132	58.71
360.344	40.28
360.555	48.47
360.766	3.41
360.977	11.61
361.189	130.39
361.4	25.94
361.611	50.52
361.823	101.72
362.034	50.52
362.245	-2.73
362.456	-4.78
362.667	36.18
362.879	27.99
363.09	46.42
363.301	54.61
363.512	42.32
363.723	15.7
363.935	-33.45
364.146	64.85
364.357	11.61
364.568	13.65
364.779	-84.65
364.99	91.48
365.201	54.61
365.412	73.04
365.623	-92.84
365.834	7.51
366.045	66.9
366.256	103.76
366.467	27.99
366.678	-12.97
366.889	38.23
367.1	-2.73
367.311	126.29
367.522	-78.51
367.733	193.87
367.944	116.05
368.155	81.24
368.366	73.04
368.577	97.62
368.788	134.48
368.999	-78.51
369.209	68.95
369.42	290.13
369.631	189.78
369.842	91.48
370.053	13.65
370.264	77.14
370.474	-47.79
370.685	116.05
370.896	38.23
371.107	177.49
371.317	154.96
371.528	136.53
371.739	60.76
371.95	103.76
372.16	50.52
372.371	42.32
372.582	42.32
372.792	64.85
373.003	128.34
373.214	13.65
373.424	75.09
373.635	-39.59
373.846	157.01
374.056	48.47
374.267	89.43
374.477	62.8
374.688	-6.83
374.898	54.61
375.109	99.67
375.319	60.76
375.53	132.44
375.74	138.58
375.951	-23.21
376.161	36.18
376.372	136.53
376.582	23.89
376.793	52.56
377.003	-31.4
377.214	-27.31
377.424	73.04
377.635	32.08
377.845	-62.12
378.055	134.48
378.266	38.23
378.476	7.51
378.686	44.37
378.897	68.95
379.107	118.1
379.317	105.81
379.528	7.51
379.738	66.9
379.948	-2.73
380.158	97.62
380.369	13.65
380.579	116.05
380.789	73.04
380.999	89.43
381.21	40.28
381.42	191.83
381.63	71
381.84	118.1
382.05	111.96
382.261	105.81
382.471	146.77
382.681	-17.07
382.891	200.02
383.101	81.24
383.311	-43.69
383.521	-62.12
383.731	150.87
383.941	25.94
384.151	36.18
384.361	-21.16
384.571	40.28
384.781	66.9
384.991	247.12
385.201	157.01
385.411	58.71
385.621	66.9
385.831	56.66
386.041	5.46
386.251	17.75
386.461	109.91
386.671	7.51
386.881	5.46
387.091	66.9
387.301	87.38
387.511	13.65
387.72	105.81
387.93	132.44
388.14	-27.31
388.35	91.48
388.56	132.44
388.769	111.96
388.979	-39.59
389.189	17.75
389.399	54.61
389.609	77.14
389.818	79.19
390.028	64.85
390.238	54.61
390.447	-19.11
390.657	81.24
390.867	40.28
391.076	9.56
391.286	99.67
391.496	3.41
391.705	87.38
391.915	120.15
392.125	132.44
392.334	-15.02
392.544	195.92
392.753	77.14
392.963	-4.78
393.172	11.61
393.382	11.61
393.591	202.07
393.801	7.51
394.01	157.01
394.22	130.39
394.429	-33.45
394.639	19.8
394.848	21.84
395.058	17.75
395.267	25.94
395.477	81.24
395.686	107.86
395.895	269.65
396.105	249.17
396.314	27.99
396.524	27.99
396.733	5.46
396.942	138.58
397.152	173.39
397.361	124.24
397.57	62.8
397.78	93.52
397.989	124.24
398.198	206.16
398.407	42.32
398.617	50.52
398.826	64.85
399.035	25.94
399.244	97.62
399.453	81.24
399.663	3.41
399.872	81.24
400.081	32.08
400.29	97.62
400.499	68.95
400.708	54.61
400.917	5.46
401.127	9.56
401.336	34.13
401.545	226.64
401.754	77.14
401.963	161.11
402.172	40.28
402.381	-135.85
402.59	85.33
402.799	120.15
403.008	161.11
403.217	95.57
403.426	50.52
403.635	-49.83
403.844	-2.73
404.053	60.76
404.262	48.47
404.471	175.44
404.68	99.67
404.888	23.89
405.097	40.28
405.306	19.8
405.515	19.8
405.724	-2.73
405.933	126.29
406.142	93.52
406.35	140.63
406.559	-80.55
406.768	124.24
406.977	146.77
407.185	105.81
407.394	1.37
407.603	-53.93
407.812	44.37
408.02	142.68
408.229	58.71
408.438	111.96
408.646	-8.87
408.855	79.19
409.064	60.76
409.272	64.85
409.481	103.76
409.69	-86.7
409.898	21.84
410.107	42.32
410.315	124.24
410.524	-8.87
410.733	19.8
410.941	27.99
411.15	60.76
411.358	46.42
411.567	109.91
411.775	64.85
411.984	103.76
412.192	44.37
412.401	-53.93
412.609	193.87
412.818	152.91
413.026	60.76
413.234	-29.35
413.443	73.04
413.651	17.75
413.86	66.9
414.068	167.25
414.276	179.54
414.485	62.8
414.693	187.73
414.901	136.53
415.11	146.77
415.318	50.52
415.526	73.04
415.734	154.96
415.943	85.33
416.151	116.05
416.359	15.7
416.567	89.43
416.776	118.1
416.984	165.2
417.192	130.39
417.4	19.8
417.608	7.51
417.817	19.8
418.025	124.24
418.233	208.21
418.441	-72.36
418.649	-27.31
418.857	89.43
419.065	157.01
419.273	64.85
419.481	95.57
419.689	-23.21
419.897	-25.26
420.105	-8.87
420.313	60.76
420.521	263.51
420.729	126.29
420.937	-35.5
421.145	-21.16
421.353	118.1
421.561	259.41
421.769	73.04
421.977	30.04
422.185	81.24
422.393	7.51
422.601	101.72
422.809	124.24
423.017	62.8
423.224	150.87
423.432	105.81
423.64	1.37
423.848	189.78
424.056	130.39
424.263	114
424.471	42.32
424.679	120.15
424.887	1.37
425.094	140.63
425.302	97.62
425.51	101.72
425.718	107.86
425.925	159.06
426.133	58.71
426.341	187.73
426.548	83.28
426.756	50.52
426.964	36.18
427.171	46.42
427.379	97.62
427.586	122.2
427.794	75.09
428.001	152.91
428.209	19.8
428.417	122.2
428.624	122.2
428.832	152.91
429.039	73.04
429.247	118.1
429.454	101.72
429.662	214.35
429.869	138.58
430.076	132.44
430.284	148.82
430.491	204.11
430.699	232.79
430.906	218.45
431.114	124.24
431.321	171.35
431.528	169.3
431.736	144.72
431.943	273.75
432.15	200.02
432.358	179.54
432.565	292.18
432.772	52.56
432.979	263.51
433.187	109.91
433.394	226.64
433.601	181.59
433.808	179.54
434.016	318.8
434.223	216.4
434.43	267.6
434.637	202.07
434.844	333.14
435.052	193.87
435.259	292.18
435.466	253.27
435.673	281.94
435.88	347.47
436.087	339.28
436.294	333.14
436.501	347.47
436.708	345.42
436.915	351.57
437.122	464.21
437.329	343.38
437.537	394.58
437.743	431.44
437.95	453.97
438.157	415.06
438.364	408.91
438.571	435.53
438.778	523.6
438.985	537.93
439.192	582.99
439.399	566.6
439.606	570.7
439.813	591.18
440.02	621.9
440.227	705.87
440.433	703.82
440.64	640.33
440.847	638.28
441.054	703.82
441.261	767.31
441.467	781.64
441.674	648.52
441.881	826.7
442.088	664.91
442.294	890.18
442.501	996.68
442.708	929.1
442.914	1013.06
443.121	963.91
443.328	972.1
443.534	1072.45
443.741	1013.06
443.948	937.29
444.154	1242.43
444.361	1209.67
444.568	1056.07
444.774	1160.52
444.981	1185.09
445.187	1387.84
445.394	1336.64
445.6	1318.21
445.807	1518.91
446.013	1492.29
446.22	1406.27
446.426	1676.6
446.633	1711.42
446.839	1973.56
447.046	1756.47
447.252	1973.56
447.459	1883.45
447.665	1959.22
447.871	2184.5
448.078	2215.22
448.284	2178.36
448.491	2229.56
448.697	2454.83
448.903	2508.08
449.11	2639.15
449.316	2526.51
449.522	2633.01
449.728	2839.85
449.935	2874.67
450.141	2956.58
450.347	3265.83
450.553	3069.22
450.76	3286.31
450.966	3482.91
451.172	3613.98
451.378	3638.56
451.584	3773.72
451.791	4056.34
451.997	4097.3
452.203	4187.41
452.409	4410.64
452.615	4494.61
452.821	4533.52
453.027	4547.86
453.233	5199.11
453.44	5022.98
453.646	5106.95
453.852	5657.85
454.058	5668.09
454.264	5815.55
454.47	6270.2
454.676	6163.7
454.882	6835.44
455.088	6626.54
455.294	6798.57
455.5	7232.74
455.705	7628
455.911	7830.75
456.117	7802.08
456.323	8332.5
456.529	8275.16
456.735	9112.78
456.941	9157.83
457.147	9571.52
457.352	9839.81
457.558	9985.21
457.764	10767.54
457.97	11107.5
458.176	11601.06
458.381	11855.01
458.587	12319.9
458.793	12676.24
458.999	12844.18
459.204	14513.27
459.41	14818.42
459.616	14658.68
459.821	15778.92
460.027	16481.37
460.233	16890.96
460.438	17169.49
460.644	18400.32
460.85	18314.3
461.055	18947.12
461.261	19950.63
461.466	19489.84
461.672	19948.58
461.878	22324.22
462.083	21820.42
462.289	22725.63
462.494	23405.55
462.7	23305.2
462.905	23931.88
463.111	25922.51
463.316	27110.33
463.522	27837.36
463.727	28513.19
463.932	29553.55
464.138	30471.04
464.343	31671.15
464.549	31720.31
464.754	34048.85
464.959	35005.25
465.165	35611.45
465.37	34952
465.575	35468.09
465.781	37520.15
465.986	38822.66
466.191	38144.78
466.397	38720.26
466.602	37692.18
466.807	39596.79
467.012	40415.98
467.218	41126.63
467.423	40973.03
467.628	42590.92
467.833	44440.24
468.038	43459.26
468.244	43258.56
468.449	44774.06
468.654	44272.31
468.859	43780.79
469.064	43725.5
469.269	42902.21
469.474	43219.65
469.679	44745.39
469.885	42996.42
470.09	44370.61
470.295	44030.65
470.5	42932.93
470.705	43356.86
470.91	42064.6
471.115	41738.97
471.32	42336.98
471.525	42218.19
471.73	41257.7
471.935	40602.35
472.139	38849.28
472.344	39277.31
472.549	38769.41
472.754	37667.61
472.959	37419.8
473.164	35967.79
473.369	35480.38
473.574	36500.26
473.778	35791.67
473.983	35148.6
474.188	34906.94
474.393	32877.41
474.598	32764.77
474.802	31929.2
475.007	31732.59
475.212	31540.08
475.417	30098.31
475.621	29590.42
475.826	29627.28
476.031	29010.84
476.235	28101.54
476.44	28306.34
476.645	27745.2
476.849	27237.3
477.054	26383.3
477.259	26262.47
477.463	26258.37
477.668	25355.22
477.872	25390.03
478.077	24908.76
478.282	23991.27
478.486	23972.84
478.691	23639.02
478.895	23772.14
479.1	23243.76
479.304	23163.89
479.509	22565.88
479.713	22762.49
479.918	22414.34
480.122	21619.72
480.326	22033.41
480.531	21742.6
480.735	21175.31
480.94	21034
481.144	22119.43
481.348	20730.9
481.553	20601.88
481.757	20384.8
481.961	20562.97
482.166	20659.23
482.37	20274.21
482.574	20001.83
482.778	19936.29
482.983	20014.12
483.187	19651.63
483.391	19518.51
483.595	19481.64
483.8	18822.2
484.004	19328.05
484.208	18957.36
484.412	18574.39
484.616	18682.94
484.821	18472
485.025	17753.16
485.229	18046.02
485.433	17617.99
485.637	17574.99
485.841	17112.14
486.045	16903.25
486.249	16800.85
486.453	16424.03
486.657	16266.33
486.861	15895.65
487.065	15393.9
487.269	15723.62
487.473	15221.87
487.677	15420.52
487.881	15031.41
488.085	14494.84
488.289	14558.33
488.493	13956.22
488.697	14152.83
488.901	13993.09
489.105	13479.05
489.309	13063.31
489.512	13137.04
489.716	12868.75
489.92	12444.82
490.124	12274.84
490.328	12453.02
490.531	11926.69
490.735	11977.89
490.939	11603.11
491.143	11400.36
491.346	10972.33
491.55	11140.27
491.754	10874.03
491.958	10955.95
492.161	10572.98
492.365	10314.94
492.569	10124.47
492.772	10091.71
492.976	9858.24
493.18	9778.37
493.383	9637.06
493.587	9424.07
493.79	9454.79
493.994	9303.24
494.197	9270.47
494.401	9039.05
494.605	8994
494.808	9094.35
495.012	8961.23
495.215	9000.14
495.419	9061.58
495.622	8639.7
495.825	8754.38
496.029	8498.39
496.232	8678.61
496.436	8443.09
496.639	8709.33
496.843	8484.05
497.046	8725.71
497.249	8881.36
497.453	8572.11
497.656	8494.29
497.859	8455.38
498.063	8602.83
498.266	8785.1
498.469	8533.2
498.673	8811.73
498.876	8639.7
499.079	8719.57
499.282	8852.69
499.485	9004.24
499.689	8916.17
499.892	9037
500.095	8856.78
500.298	9137.35
500.501	9106.63
500.705	9329.86
500.908	9303.24
501.111	9243.85
501.314	9487.56
501.517	9546.95
501.72	9516.23
501.923	9622.72
502.126	9972.93
502.329	10212.54
502.532	10009.79
502.735	10081.47
502.938	10263.74
503.141	10405.05
503.344	10613.94
503.547	10570.93
503.75	10615.99
503.953	10994.86
504.156	11060.4
504.359	11250.86
504.562	11431.08
504.765	11728.03
504.968	11855.01
505.17	12059.81
505.373	12147.87
505.576	12305.56
505.779	12455.06
505.982	12559.51
506.185	12930.19
506.387	12962.96
506.59	13474.95
506.793	13831.3
506.996	13866.11
507.198	14517.37
507.401	14478.46
507.604	14730.36
507.807	15254.64
508.009	15287.4
508.212	15725.67
508.415	15795.3
508.617	16319.58
508.82	16557.14
509.022	16583.77
509.225	17323.08
509.428	17679.43
509.63	18035.78
509.833	18111.55
510.035	18797.62
510.238	19031.09
510.44	19301.42
510.643	20153.38
510.845	20698.14
511.048	20702.23
511.25	21134.35
511.453	21441.55
511.655	22625.28
511.858	22776.83
512.06	23538.67
512.262	23811.05
512.465	24196.07
512.667	24869.85
512.87	25111.51
513.072	25889.74
513.274	26608.58
513.477	26999.74
513.679	27732.91
513.881	28126.12
514.084	29019.03
514.286	29459.35
514.488	30147.47
514.69	30999.42
514.893	30956.41
515.095	32088.94
515.297	32476.01
515.499	33520.47
515.701	33928.02
515.904	34810.69
516.106	35713.84
516.308	36260.65
516.51	37135.13
516.712	37608.22
516.914	38275.85
517.116	39359.23
517.318	39934.71
517.52	40737.51
517.722	41380.57
517.925	41827.03
518.127	42537.68
518.329	43856.57
518.531	43651.77
518.733	45140.64
518.935	45843.1
519.136	46244.5
519.338	47121.03
519.54	47659.65
519.742	48200.31
519.944	49117.8
520.146	49947.23
520.348	50561.62
520.55	51335.75
520.752	51323.46
520.954	52322.87
521.155	52445.75
521.357	53252.65
521.559	53946.91
521.761	55003.66
521.963	55013.9
522.164	55908.86
522.366	55792.13
522.568	56674.8
522.77	56922.61
522.971	57932.26
523.173	57065.97
523.375	58294.75
523.576	57706.98
523.778	58147.29
523.98	58946
524.181	59156.94
524.383	59175.37
524.584	60023.23
524.786	59306.44
524.988	59451.85
525.189	60197.31
525.391	60033.47
525.592	60232.13
525.794	59976.13
525.995	59906.5
526.197	60027.33
526.398	59859.4
526.6	59847.11
526.801	59439.56
527.003	59781.57
527.204	59310.54
527.406	59353.55
527.607	59048.4
527.808	59093.46
528.01	57956.83
528.211	58036.7
528.412	58618.33
528.614	58046.94
528.815	57350.63
529.016	57881.06
529.218	55691.78
529.419	56812.02
529.62	55955.97
529.822	55484.93
530.023	54563.35
530.224	54624.79
530.425	53740.07
530.626	52937.26
530.828	52748.85
531.029	53039.66
531.23	51585.6
531.431	51278.41
531.632	50616.91
531.833	49924.7
532.035	49936.99
532.236	49431.14
532.437	48964.2
532.638	48243.32
532.839	47407.75
533.04	46926.47
533.241	46021.27
533.442	46410.39
533.643	45445.79
533.844	44997.29
534.045	44272.31
534.246	42812.1
534.447	43008.71
534.648	42498.76
534.849	41870.04
535.05	41083.62
535.251	40801
535.451	40202.99
535.652	39748.34
535.853	39228.16
536.054	38693.64
536.255	38089.49
536.456	37358.36
536.657	37765.91
536.857	36430.63
537.058	36203.31
537.259	35955.5
537.46	35564.34
537.66	34739.01
537.861	34517.83
538.062	33944.4
538.263	33663.83
538.463	33147.74
538.664	32709.47
538.865	32406.37
539.065	32203.63
539.266	31486.84
539.466	31458.17
539.667	30133.13
539.868	30532.48
540.068	30104.46
540.269	29789.07
540.469	29733.78
540.67	29008.79
540.87	28775.33
541.071	28525.47
541.271	28128.17
541.472	27790.25
541.672	27321.27
541.873	26901.43
542.073	26256.32
542.274	27087.8
542.474	26366.91
542.675	25746.38
542.875	25617.36
543.075	25191.38
543.276	25023.45
543.476	24990.68
543.676	24650.72
543.877	24493.02
544.077	24042.47
544.277	24108.01
544.478	23362.54
544.678	23563.25
544.878	22918.14
545.078	22739.96
545.279	22342.66
545.479	21961.73
545.679	22049.8
545.879	21756.94
546.079	21472.27
546.28	21054.48
546.48	20728.86
546.68	20925.46
546.88	20558.88
547.08	20323.36
547.28	20071.46
547.48	19794.98
547.68	19588.14
547.88	19182.64
548.081	19260.46
548.281	18916.4
548.481	18611.26
548.681	18762.81
548.881	18230.34
549.081	18068.55
549.28	17503.31
549.48	17302.61
549.68	17454.15
549.88	17196.11
550.08	16663.64
550.28	16524.38
550.48	16284.76
550.68	16184.41
550.88	15989.86
551.08	15793.25
551.279	15531.11
551.479	15142
551.679	15082.61
551.879	14746.74
552.079	14537.85
552.278	14527.61
552.478	14113.92
552.678	13968.51
552.878	13939.84
553.077	13479.05
553.277	13284.49
553.477	13325.45
553.676	13085.84
553.876	12670.1
554.076	12528.79
554.275	12381.34
554.475	12033.18
554.674	11992.22
554.874	11797.67
555.074	11293.86
555.273	11388.07
555.473	11205.8
555.672	10988.72
555.872	10890.42
556.071	10714.29
556.271	10613.94
556.47	10241.21
556.67	10159.29
556.869	10054.84
557.068	9917.63
557.268	9733.31
557.467	9688.26
557.667	9510.08
557.866	9370.82
558.065	9180.36
558.265	8815.82
558.464	8830.16
558.663	8738
558.863	8621.27
559.062	8651.99
559.261	8207.58
559.461	8357.08
559.66	8076.51
559.859	7890.14
560.058	7515.36
560.258	7703.78
560.457	7578.85
560.656	7607.52
560.855	7306.47
561.054	7214.31
561.253	7027.95
561.453	6986.99
561.652	6776.05
561.851	6825.2
562.05	6591.73
562.249	6499.57
562.448	6581.49
562.647	6137.08
562.846	6313.2
563.045	6089.98
563.244	5973.24
563.443	6102.26
563.642	5776.64
563.841	5833.98
564.04	5606.66
564.239	5598.46
564.438	5678.33
564.637	5307.65
564.836	5229.83
565.035	5076.23
565.234	5035.27
565.432	5242.12
565.631	5113.1
565.83	5125.38
566.029	4957.45
566.228	4861.2
566.427	4814.09
566.625	4658.45
566.824	4650.25
567.023	4717.84
567.222	4414.74
567.42	4549.9
567.619	4322.58
567.818	4328.72
568.016	4498.7
568.215	4234.52
568.414	4125.97
568.612	4042.01
568.811	3988.76
569.01	4066.58
569.208	3796.25
569.407	3890.46
569.605	3876.12
569.804	3624.22
570.002	3824.92
570.201	3669.28
570.4	3648.8
570.598	3456.29
570.797	3609.89
570.995	3454.24
571.193	3241.25
571.392	3321.12
571.59	3157.29
571.789	3231.01
571.987	3253.54
572.186	3208.48
572.384	3040.55
572.582	3020.07
572.781	3138.85
572.979	2792.75
573.177	2819.37
573.376	2817.32
573.574	2864.43
573.772	2747.69
573.971	2680.11
574.169	2751.79
574.367	2641.2
574.565	2590
574.763	2479.41
574.962	2549.04
575.16	2481.46
575.358	2377.01
575.556	2403.63
575.754	2377.01
575.952	2344.24
576.151	2430.26
576.349	2366.77
576.547	2073.91
576.745	2282.8
576.943	2110.77
577.141	2147.64
577.339	1983.8
577.537	2100.53
577.735	2071.86
577.933	2030.9
578.131	1862.97
578.329	2071.86
578.527	1873.21
578.725	1910.07
578.923	1752.38
579.121	1979.7
579.319	1754.43
579.516	1666.36
579.714	1918.26
579.912	1785.15
580.11	1488.19
580.308	1641.79
580.506	1590.59
580.704	1379.65
580.901	1541.44
581.099	1733.95
581.297	1572.16
581.495	1510.72
581.692	1367.36
581.89	1609.02
582.088	1420.61
582.285	1475.9
582.483	1508.67
582.681	1373.5
582.878	1375.55
583.076	1385.79
583.274	1312.07
583.471	1439.04
583.669	1260.87
583.866	1127.75
584.064	1201.47
584.262	1097.03
584.459	1226.05
584.657	1187.14
584.854	1301.83
585.052	1146.18
585.249	1146.18
585.447	1144.13
585.644	972.1
585.841	1209.67
586.039	1152.32
586.236	1123.65
586.434	1029.45
586.631	984.39
586.828	959.81
587.026	1074.5
587.223	939.33
587.42	1039.69
587.618	951.62
587.815	1097.03
588.012	871.75
588.21	968.01
588.407	922.95
588.604	968.01
588.801	836.94
588.999	953.67
589.196	890.18
589.393	900.42
589.59	847.18
589.787	869.7
589.984	941.38
590.182	851.27
590.379	802.12
590.576	822.6
590.773	798.03
590.97	822.6
591.167	943.43
591.364	877.9
591.561	812.36
591.758	970.05
591.955	933.19
592.152	832.84
592.349	820.55
592.546	789.83
592.743	806.22
592.94	789.83
593.137	838.98
593.334	773.45
593.531	896.33
593.727	843.08
593.924	900.42
594.121	800.07
594.318	859.46
594.515	804.17
594.712	1047.88
594.908	879.94
595.105	791.88
595.302	935.24
595.499	949.57
595.696	980.29
595.892	959.81
596.089	1121.6
596.286	920.9
596.482	1062.21
596.679	1066.31
596.876	949.57
597.072	1121.6
597.269	1008.97
597.466	1146.18
597.662	1166.66
597.859	1189.19
598.055	1279.3
598.252	1236.29
598.448	1254.72
598.645	1430.85
598.841	1529.15
599.038	1619.26
599.234	1525.05
599.431	1707.32
599.627	1643.84
599.824	1643.84
600.02	1697.08
600.217	1822.01
600.413	1996.09
600.609	1948.98
600.806	2231.6
601.002	2209.08
601.198	2223.41
601.395	2268.47
601.591	2264.37
601.787	2432.3
601.984	2538.8
602.18	2737.45
602.376	2708.78
602.572	2802.99
602.769	3013.93
602.965	2936.1
603.161	3151.14
603.357	3163.43
603.553	3534.11
603.75	3501.34
603.946	3511.58
604.142	3585.31
604.338	3974.42
604.534	3988.76
604.73	3976.47
604.926	4193.56
605.122	4404.5
605.318	4369.68
605.514	4599.06
605.71	4754.7
605.906	4814.09
606.102	4990.22
606.298	5457.15
606.494	5276.93
606.69	5686.53
606.886	5821.69
607.082	5768.45
607.278	6061.3
607.474	5997.82
607.67	6505.71
607.866	6350.07
608.062	6796.53
608.257	6964.46
608.453	6900.97
608.649	7374.05
608.845	7453.92
609.041	7617.76
609.236	7812.32
609.432	8103.13
609.628	8322.26
609.824	8625.36
610.019	8623.31
610.215	8991.95
610.411	9444.55
610.606	9508.04
610.802	9725.12
610.998	10083.52
611.193	10298.55
611.389	10335.42
611.584	10697.91
611.78	10765.49
611.976	11263.15
612.171	11777.19
612.367	12088.48
612.562	12072.09
612.758	12182.68
612.953	12614.8
613.149	13214.86
613.344	13520.01
613.539	13937.79
613.735	14308.48
613.93	14584.95
614.126	14926.96
614.321	15494.25
614.517	15658.09
614.712	16350.3
614.907	16600.15
615.103	17130.58
615.298	17368.14
615.493	17970.24
615.688	18211.9
615.884	19123.25
616.079	19160.11
616.274	20173.86
616.47	20218.91
616.665	20792.34
616.86	21210.13
617.055	21638.16
617.25	22508.54
617.445	23372.78
617.641	23239.67
617.836	23970.79
618.031	24427.49
618.226	25502.67
618.421	26215.37
618.616	26864.57
618.811	26635.2
619.006	27491.25
619.201	27921.32
619.396	29045.66
619.591	29182.87
619.786	30086.03
619.981	30110.6
620.176	31441.78
620.371	31693.68
620.566	32328.55
620.761	33252.19
620.956	34026.32
621.151	34478.92
621.346	35097.41
621.541	35468.09
621.735	36852.51
621.93	36774.69
622.125	38069.01
622.32	38306.57
622.515	39133.95
622.709	39875.32
622.904	40553.19
623.099	41282.27
623.294	42078.93
623.488	42437.33
623.683	43698.87
623.878	43823.8
624.072	45042.34
624.267	45722.27
624.462	46008.98
624.656	46412.43
624.851	47452.8
625.046	47911.55
625.24	48802.41
625.435	49310.31
625.629	50072.15
625.824	50158.17
626.018	51264.07
626.213	50741.84
626.407	52169.27
626.602	51808.83
626.796	53002.8
626.991	53713.44
627.185	53609
627.38	53928.48
627.574	54237.72
627.768	54088.22
627.963	54764.05
628.157	54907.41
628.352	55364.1
628.546	54702.61
628.74	55405.06
628.935	54491.67
629.129	55128.59
629.323	54037.02
629.517	53772.83
629.712	54114.84
629.906	53207.59
630.1	52738.61
630.294	52097.59
630.489	51325.51
630.683	50725.46
630.877	50025.05
631.071	49232.49
631.265	48439.92
631.459	47147.65
631.653	46252.69
631.848	45019.81
632.042	44073.65
632.236	43107.01
632.43	41597.66
632.624	40733.42
632.818	39117.57
633.012	38269.71
633.206	36877.09
633.4	36002.61
633.594	34472.78
633.788	33391.45
633.982	32299.88
634.176	31183.74
634.369	29662.1
634.563	28750.75
634.757	27509.68
634.951	26983.35
635.145	25678.8
635.339	24738.78
635.533	23809
635.726	22840.31
635.92	21709.83
636.114	20780.06
636.308	19821.61
636.501	19416.11
636.695	18351.17
636.889	17642.57
637.083	17046.61
637.276	16182.37
637.47	15522.92
637.664	15049.84
637.857	14220.41
638.051	13925.5
638.244	13233.29
638.438	12958.86
638.632	12164.25
638.825	11738.27
639.019	11521.19
639.212	10656.95
639.406	10460.34
639.599	10040.51
639.793	9747.65
639.986	9084.11
640.18	9012.43
640.373	8563.92
640.567	8103.13
640.76	7922.91
640.954	7554.27
641.147	7331.05
641.34	7050.47
641.534	6917.36
641.727	6577.39
641.92	6388.98
642.114	6126.84
642.307	5752.06
642.5	5795.07
642.694	5291.27
642.887	5154.05
643.08	5018.89
643.273	4891.91
643.467	4672.78
643.66	4308.24
643.853	4113.69
644.046	4222.23
644.239	3984.66
644.432	3747.1
644.626	3454.24
644.819	3575.07
645.012	3384.61
645.205	3296.55
645.398	3214.63
645.591	3022.12
645.784	2864.43
645.977	2825.51
646.17	2757.93
646.363	2538.8
646.556	2553.13
646.749	2313.52
646.942	2356.53
647.135	2272.56
647.328	2141.49
647.521	1977.66
647.714	1908.02
647.907	1996.09
648.099	1729.85
648.292	1750.33
648.485	1699.13
648.678	1547.58
648.871	1533.25
649.064	1541.44
649.256	1369.41
649.449	1432.9
649.642	1275.2
649.835	1248.58
650.027	1277.25
650.22	1267.01
650.413	1070.4
650.605	1191.24
650.798	1113.41
650.991	1051.97
651.183	1123.65
651.376	1047.88
651.568	980.29
651.761	908.62
651.954	916.81
652.146	822.6
652.339	931.14
652.531	898.38
652.724	632.14
652.916	693.58
653.109	640.33
653.301	820.55
653.494	810.31
653.686	726.35
653.879	738.63
654.071	761.16
654.263	626
654.456	609.61
654.648	664.91
654.84	652.62
655.033	570.7
655.225	601.42
655.417	474.45
655.61	644.43
655.802	568.65
655.994	496.97
656.186	451.92
656.379	560.46
656.571	404.82
656.763	394.58
656.955	415.06
657.148	398.67
657.34	476.49
657.532	462.16
657.724	357.71
657.916	378.19
658.108	394.58
658.3	476.49
658.492	361.81
658.684	281.94
658.876	357.71
659.068	283.98
659.26	193.87
659.452	275.79
659.644	343.38
659.836	507.21
660.028	378.19
660.22	257.36
660.412	318.8
660.604	281.94
660.796	279.89
660.988	367.95
661.18	232.79
661.372	322.9
661.563	245.07
661.755	208.21
661.947	191.83
662.139	146.77
662.331	263.51
662.522	294.22
662.714	195.92
662.906	103.76
663.097	161.11
663.289	183.63
663.481	95.57
663.673	232.79
663.864	202.07
664.056	249.17
664.247	169.3
664.439	200.02
664.631	243.03
664.822	249.17
665.014	185.68
665.205	60.76
665.397	142.68
665.588	249.17
665.78	243.03
665.971	232.79
666.163	130.39
666.354	318.8
666.546	109.91
666.737	130.39
666.929	107.86
667.12	152.91
667.311	142.68
667.503	126.29
667.694	191.83
667.885	185.68
668.077	171.35
668.268	97.62
668.459	185.68
668.651	132.44
668.842	85.33
669.033	114
669.224	101.72
669.416	361.81
669.607	173.39
669.798	150.87
669.989	257.36
670.18	122.2
670.371	150.87
670.563	30.04
670.754	140.63
670.945	189.78
671.136	212.31
671.327	97.62
671.518	136.53
671.709	200.02
671.9	114
672.091	343.38
672.282	148.82
672.473	181.59
672.664	140.63
672.855	124.24
673.046	159.06
673.237	179.54
673.428	144.72
673.619	150.87
673.809	197.97
674	265.55
674.191	208.21
674.382	136.53
674.573	97.62
674.764	118.1
674.954	177.49
675.145	60.76
675.336	58.71
675.527	118.1
675.717	116.05
675.908	126.29
676.099	120.15
676.289	243.03
676.48	7.51
676.671	109.91
676.861	146.77
677.052	161.11
677.243	89.43
677.433	107.86
677.624	228.69
677.814	169.3
678.005	101.72
678.195	296.27
678.386	101.72
678.576	161.11
678.767	101.72
678.957	202.07
679.148	306.51
679.338	292.18
679.529	144.72
679.719	114
679.909	316.75
680.1	187.73
680.29	200.02
680.481	126.29
680.671	253.27
680.861	234.83
681.052	134.48
681.242	222.55
681.432	200.02
681.622	181.59
681.813	128.34
682.003	193.87
682.193	148.82
682.383	193.87
682.573	238.93
682.764	93.52
682.954	173.39
683.144	240.98
683.334	173.39
683.524	128.34
683.714	185.68
683.904	183.63
684.094	204.11
684.284	200.02
684.474	267.6
684.664	181.59
684.854	144.72
685.044	187.73
685.234	148.82
685.424	263.51
685.614	103.76
685.804	288.08
685.994	206.16
686.184	249.17
686.374	245.07
686.564	218.45
686.753	136.53
686.943	89.43
687.133	163.15
687.323	187.73
687.513	228.69
687.702	228.69
687.892	187.73
688.082	302.42
688.272	210.26
688.461	224.59
688.651	300.37
688.841	320.85
689.03	185.68
689.22	200.02
689.41	249.17
689.599	161.11
689.789	197.97
689.979	245.07
690.168	197.97
690.358	193.87
690.547	210.26
690.737	374.1
690.926	257.36
691.116	197.97
691.305	316.75
691.495	222.55
691.684	124.24
691.874	175.44
692.063	204.11
692.252	269.65
692.442	324.94
692.631	132.44
692.82	165.2
693.01	193.87
693.199	257.36
693.388	200.02
693.578	214.35
693.767	206.16
693.956	165.2
694.146	130.39
694.335	210.26
694.524	179.54
694.713	306.51
694.902	218.45
695.092	138.58
695.281	232.79
695.47	140.63
695.659	212.31
695.848	202.07
696.037	187.73
696.226	251.22
696.415	173.39
696.604	269.65
696.793	296.27
696.982	152.91
697.171	283.98
697.36	154.96
697.549	247.12
697.738	83.28
697.927	249.17
698.116	132.44
698.305	290.13
698.494	232.79
698.683	206.16
698.872	324.94
699.061	288.08
699.25	265.55
699.438	224.59
699.627	116.05
699.816	410.96
700.005	99.67
700.193	214.35
700.382	281.94
700.571	202.07
700.76	220.5
700.948	353.62
701.137	247.12
701.326	212.31
701.514	157.01
701.703	234.83
701.892	138.58
702.08	417.1
702.269	126.29
702.457	130.39
702.646	253.27
702.834	208.21
703.023	263.51
703.212	288.08
703.4	195.92
703.589	220.5
703.777	222.55
703.965	171.35
704.154	212.31
704.342	134.48
704.531	230.74
704.719	163.15
704.907	337.23
705.096	200.02
705.284	118.1
705.472	187.73
705.661	216.4
705.849	171.35
706.037	245.07
706.226	208.21
706.414	210.26
706.602	167.25
706.79	163.15
706.979	183.63
707.167	202.07
707.355	81.24
707.543	257.36
707.731	263.51
707.919	220.5
708.107	159.06
708.296	60.76
708.484	224.59
708.672	255.31
708.86	169.3
709.048	230.74
709.236	195.92
709.424	214.35
709.612	279.89
709.8	83.28
709.988	187.73
710.176	322.9
710.364	302.42
710.551	222.55
710.739	204.11
710.927	165.2
711.115	226.64
711.303	236.88
711.491	249.17
711.679	114
711.866	236.88
712.054	206.16
712.242	236.88
712.43	257.36
712.617	265.55
712.805	304.46
712.993	259.41
713.181	167.25
713.368	255.31
713.556	226.64
713.744	200.02
713.931	339.28
714.119	259.41
714.306	200.02
714.494	181.59
714.682	195.92
714.869	193.87
715.057	288.08
715.244	124.24
715.432	202.07
715.619	263.51
715.807	154.96
715.994	195.92
716.182	245.07
716.369	255.31
716.556	298.32
716.744	95.57
716.931	187.73
717.119	296.27
717.306	220.5
717.493	202.07
717.681	169.3
717.868	136.53
718.055	324.94
718.242	259.41
718.43	283.98
718.617	341.33
718.804	269.65
718.991	300.37
719.179	228.69
719.366	265.55
719.553	202.07
719.74	148.82
719.927	195.92
720.114	294.22
720.301	175.44
720.488	222.55
720.676	144.72
720.863	324.94
721.05	331.09
721.237	294.22
721.424	271.7
721.611	243.03
721.798	159.06
721.985	167.25
722.172	243.03
722.358	228.69
722.545	406.86
722.732	251.22
722.919	273.75
723.106	273.75
723.293	265.55
723.48	300.37
723.667	167.25
723.853	288.08
724.04	341.33
724.227	349.52
724.414	224.59
724.6	267.6
724.787	398.67
724.974	386.38
725.161	226.64
725.347	183.63
725.534	249.17
725.72	240.98
725.907	296.27
726.094	372.05
726.28	185.68
726.467	300.37
726.653	243.03
726.84	390.48
727.027	392.53
727.213	267.6
727.4	320.85
727.586	281.94
727.773	286.03
727.959	324.94
728.145	179.54
728.332	251.22
728.518	234.83
728.705	333.14
728.891	322.9
729.077	275.79
729.264	216.4
729.45	263.51
729.636	398.67
729.823	197.97
730.009	318.8
730.195	337.23
730.382	370
730.568	277.84
730.754	304.46
730.94	288.08
731.126	226.64
731.313	329.04
731.499	277.84
731.685	349.52
731.871	351.57
732.057	273.75
732.243	460.11
732.429	339.28
732.615	378.19
732.801	365.9
732.987	187.73
733.173	263.51
733.359	238.93
733.545	345.42
733.731	290.13
733.917	349.52
734.103	345.42
734.289	335.18
734.475	183.63
734.661	413.01
734.847	298.32
735.033	322.9
735.219	402.77
735.404	339.28
735.59	300.37
735.776	210.26
735.962	378.19
736.148	394.58
736.333	382.29
736.519	316.75
736.705	406.86
736.89	204.11
737.076	271.7
737.262	238.93
737.447	228.69
737.633	251.22
737.819	402.77
738.004	308.56
738.19	238.93
738.375	339.28
738.561	378.19
738.747	324.94
738.932	197.97
739.118	501.07
739.303	357.71
739.489	296.27
739.674	329.04
739.859	240.98
740.045	392.53
740.23	312.66
740.416	189.78
740.601	326.99
740.786	347.47
740.972	310.61
741.157	210.26
741.342	142.68
741.528	197.97
741.713	386.38
741.898	259.41
742.084	324.94
742.269	290.13
742.454	337.23
742.639	298.32
742.824	318.8
743.01	376.14
743.195	392.53
743.38	357.71
743.565	243.03
743.75	286.03
743.935	302.42
744.12	445.77
744.305	220.5
744.49	238.93
744.675	240.98
744.86	316.75
745.045	388.43
745.23	339.28
745.415	253.27
745.6	384.34
745.785	245.07
745.97	378.19
746.155	300.37
746.34	310.61
746.525	310.61
746.71	374.1
746.895	171.35
747.079	144.72
747.264	275.79
747.449	300.37
747.634	300.37
747.819	312.66
748.003	261.46
748.188	218.45
748.373	402.77
748.557	341.33
748.742	251.22
748.927	322.9
749.111	171.35
749.296	288.08
749.481	353.62
749.665	277.84
749.85	247.12
750.034	249.17
750.219	189.78
750.404	208.21
750.588	257.36
750.773	208.21
750.957	222.55
751.141	230.74
751.326	255.31
751.51	101.72
751.695	275.79
751.879	189.78
752.064	324.94
752.248	202.07
752.432	335.18
752.617	302.42
752.801	292.18
752.985	214.35
753.17	212.31
753.354	220.5
753.538	232.79
753.722	206.16
753.907	222.55
754.091	128.34
754.275	279.89
754.459	114
754.643	97.62
754.828	269.65
755.012	263.51
755.196	97.62
755.38	136.53
755.564	200.02
755.748	220.5
755.932	173.39
756.116	304.46
756.3	216.4
756.484	128.34
756.668	212.31
756.852	44.37
757.036	197.97
757.22	159.06
757.404	146.77
757.588	220.5
757.772	236.88
757.956	148.82
758.14	255.31
758.323	109.91
758.507	251.22
758.691	142.68
758.875	273.75
759.059	259.41
759.242	154.96
759.426	197.97
759.61	232.79
759.794	173.39
759.977	263.51
760.161	296.27
760.345	251.22
760.528	249.17
760.712	224.59
760.895	259.41
761.079	122.2
761.263	60.76
761.446	75.09
761.63	138.58
761.813	181.59
761.997	48.47
762.18	175.44
762.364	144.72
762.547	89.43
762.731	197.97
762.914	132.44
763.098	107.86
763.281	77.14
763.464	85.33
763.648	144.72
763.831	62.8
764.015	122.2
764.198	187.73
764.381	286.03
764.564	81.24
764.748	183.63
764.931	128.34
765.114	130.39
765.297	240.98
765.481	50.52
765.664	87.38
765.847	81.24
766.03	181.59
766.213	40.28
766.397	42.32
766.58	42.32
766.763	159.06
766.946	71
767.129	111.96
767.312	130.39
767.495	134.48
767.678	109.91
767.861	99.67
768.044	154.96
768.227	116.05
768.41	58.71
768.593	118.1
768.776	87.38
768.959	134.48
769.142	152.91
769.324	87.38
769.507	126.29
769.69	91.48
769.873	71
770.056	290.13
770.239	46.42
770.421	191.83
770.604	93.52
770.787	118.1
770.97	34.13
771.152	27.99
771.335	150.87
771.518	87.38
771.7	197.97
771.883	183.63
772.066	60.76
772.248	75.09
772.431	103.76
772.613	93.52
772.796	124.24
772.978	95.57
773.161	191.83
773.343	97.62
773.526	46.42
773.708	13.65
773.891	27.99
774.073	87.38
774.256	21.84
774.438	171.35
774.621	-17.07
774.803	114
774.985	103.76
775.168	85.33
775.35	138.58
775.532	171.35
775.715	89.43
775.897	142.68
776.079	97.62
776.261	134.48
776.444	58.71
776.626	23.89
776.808	103.76
776.99	-43.69
777.173	50.52
777.355	-6.83
777.537	58.71
777.719	101.72
777.901	-15.02
778.083	66.9
778.265	32.08
778.447	152.91
778.629	-10.92
778.811	107.86
778.993	73.04
779.175	87.38
779.357	146.77
779.539	9.56
779.721	75.09
779.903	134.48
780.085	-19.11
780.267	83.28
780.449	36.18
780.631	89.43
780.812	208.21
780.994	36.18
781.176	27.99
781.358	-0.68
781.54	34.13
781.721	134.48
781.903	193.87
782.085	32.08
782.267	193.87
782.448	-64.17
782.63	60.76
782.812	1.37
782.993	83.28
783.175	62.8
783.357	38.23
783.538	73.04
783.72	-15.02
783.901	21.84
784.083	73.04
784.264	81.24
784.446	-45.74
784.627	17.75
784.809	120.15
784.99	-19.11
785.172	138.58
785.353	120.15
785.535	-2.73
785.716	75.09
785.897	-21.16
786.079	79.19
786.26	77.14
786.441	32.08
786.623	36.18
786.804	30.04
786.985	52.56
787.167	48.47
787.348	3.41
787.529	-12.97
787.71	140.63
787.891	99.67
788.073	-2.73
788.254	-64.17
788.435	298.32
788.616	19.8
788.797	-37.55
788.978	40.28
789.159	64.85
789.34	73.04
789.522	114
789.703	32.08
789.884	95.57
790.065	124.24
790.246	181.59
790.427	-15.02
790.607	202.07
790.788	105.81
790.969	-23.21
791.15	48.47
791.331	75.09
791.512	30.04
791.693	9.56
791.874	15.7
792.054	228.69
792.235	109.91
792.416	-15.02
792.597	-12.97
792.778	81.24
792.958	50.52
793.139	89.43
793.32	79.19
793.5	3.41
793.681	83.28
793.862	27.99
794.042	-58.03
794.223	-8.87
794.404	-35.5
794.584	-43.69
794.765	-21.16
794.945	-10.92
795.126	103.76
795.306	32.08
795.487	-51.88
795.667	62.8
795.848	56.66
796.028	-4.78
796.209	114
796.389	91.48
796.57	42.32
796.75	15.7
796.93	-21.16
797.111	15.7
797.291	19.8
797.471	144.72
797.652	27.99
797.832	-2.73
798.012	91.48
798.192	46.42
798.373	-39.59
798.553	-35.5
798.733	68.95
798.913	-49.83
799.093	-35.5
799.274	21.84
799.454	58.71
799.634	99.67
799.814	95.57
799.994	83.28
800.174	83.28
800.354	-12.97
800.534	-33.45
800.714	40.28
800.894	13.65
801.074	-45.74
801.254	-41.64
801.434	99.67
801.614	-70.31
801.794	-27.31
801.974	1768.76
802.154	-23.21
802.334	81.24
802.514	-45.74
802.693	-8.87
802.873	23.89
803.053	105.81
803.233	93.52
803.413	-33.45
803.592	44.37
803.772	-45.74
803.952	-23.21
804.131	-49.83
804.311	50.52
804.491	101.72
804.67	-74.41
804.85	40.28
805.03	36.18
805.209	120.15
805.389	-53.93
805.568	-31.4
805.748	62.8
805.928	-19.11
806.107	44.37
806.287	19.8
806.466	60.76
806.646	-25.26
806.825	-39.59
807.004	1.37
807.184	7.51
807.363	73.04
807.543	15.7
807.722	-51.88
807.901	79.19
808.081	157.01
808.26	-98.99
808.439	-41.64
808.619	42.32
808.798	-41.64
808.977	68.95
809.156	23.89
809.336	1.37
809.515	64.85
809.694	-111.27
809.873	19.8
810.052	36.18
810.231	58.71
810.411	9.56
810.59	95.57
810.769	-39.59
810.948	25.94
811.127	-107.18
811.306	-31.4
811.485	111.96
811.664	97.62
811.843	19.8
812.022	3.41
812.201	-47.79
812.38	-35.5
812.559	30.04
812.737	93.52
812.916	-80.55
813.095	-29.35
813.274	-23.21
813.453	-29.35
813.632	58.71
813.811	73.04
813.989	-84.65
814.168	-33.45
814.347	-8.87
814.526	34.13
814.704	103.76
814.883	171.35
815.062	-33.45
815.24	9.56
815.419	-76.46
815.598	75.09
815.776	-109.23
815.955	-37.55
816.133	-113.32
816.312	60.76
816.49	-111.27
816.669	-2.73
816.847	-25.26
817.026	-2.73
817.204	21.84
817.383	-45.74
817.561	17.75
817.74	42.32
817.918	64.85
818.097	-2.73
818.275	-37.55
818.453	62.8
818.632	32.08
818.81	46.42
818.988	46.42
819.167	-6.83
819.345	87.38
819.523	-21.16
819.701	40.28
819.879	44.37
820.058	-19.11
820.236	34.13
820.414	44.37
820.592	17.75
820.77	3.41
820.948	-35.5
821.127	40.28
821.305	-0.68
821.483	-49.83
821.661	73.04
821.839	15.7
822.017	-31.4
822.195	19.8
822.373	30.04
822.551	-23.21
822.729	95.57
822.907	-25.26
823.085	52.56
823.262	54.61
823.44	-152.23
823.618	-43.69
823.796	40.28
823.974	-33.45
824.152	-103.08
824.329	-6.83
824.507	52.56
824.685	85.33
824.863	-64.17
825.04	36.18
825.218	44.37
825.396	30.04
825.574	32.08
825.751	-19.11
825.929	58.71
826.107	-51.88
826.284	17.75
826.462	60.76
826.639	-39.59
826.817	-94.89
826.994	1.37
827.172	-72.36
827.349	126.29
827.527	-23.21
827.704	46.42
827.882	99.67
828.059	-17.07
828.237	-8.87
828.414	62.8
828.591	-115.37
828.769	3.41
828.946	-76.46
829.124	19.8
829.301	85.33
829.478	-37.55
829.655	-53.93
829.833	-47.79
830.01	-98.99
830.187	-0.68
830.364	13.65
830.542	3.41
830.719	83.28
830.896	5.46
831.073	-23.21
831.25	-6.83
831.427	60.76
831.604	-45.74
831.782	-29.35
831.959	-27.31
832.136	-4.78
832.313	-19.11
832.49	-84.65
832.667	9.56
832.844	-39.59
833.021	105.81
833.198	-27.31
833.374	-17.07
833.551	5.46
833.728	-60.07
833.905	-25.26
834.082	-96.94
834.259	71
834.436	30.04
834.612	-23.21
834.789	38.23
834.966	27.99
835.143	-47.79
835.319	-80.55
835.496	19.8
835.673	-8.87
835.85	30.04
836.026	56.66
836.203	-10.92
836.38	9.56
836.556	-33.45
836.733	-72.36
836.909	56.66
837.086	-15.02
837.262	-154.28
837.439	-39.59
837.616	-53.93
837.792	-33.45
837.968	34.13
838.145	-113.32
838.321	15.7
838.498	66.9
838.674	85.33
838.851	-43.69
839.027	42.32
839.203	40.28
839.38	50.52
839.556	-41.64
839.732	122.2
839.909	-41.64
840.085	87.38
840.261	3.41
840.437	13.65
840.614	7.51
840.79	21.84
840.966	46.42
841.142	21.84
841.318	-80.55
841.494	71
841.671	27.99
841.847	-41.64
842.023	7.51
842.199	50.52
842.375	124.24
842.551	-92.84
842.727	-47.79
842.903	161.11
843.079	-72.36
843.255	77.14
843.431	-45.74
843.607	11.61
843.783	-103.08
843.959	23.89
844.134	-113.32
844.31	161.11
844.486	17.75
844.662	-64.17
844.838	5.46
845.013	40.28
845.189	40.28
845.365	-25.26
845.541	-66.22
845.716	3.41
845.892	34.13
846.068	-78.51
846.244	-49.83
846.419	-0.68
846.595	-111.27
846.77	-82.6
846.946	101.72
847.122	-29.35
847.297	-107.18
847.473	136.53
847.648	-55.98
847.824	44.37
847.999	-76.46
848.175	-12.97
848.35	42.32
848.526	150.87
848.701	77.14
848.876	-12.97
849.052	77.14
849.227	-23.21
849.403	19.8
849.578	-70.31
849.753	27.99
849.929	-37.55
850.104	-86.7
850.279	3.41
850.454	66.9
850.63	64.85
850.805	105.81
850.98	5.46
851.155	27.99
851.33	-35.5
851.505	-119.46
851.681	71
851.856	-43.69
852.031	17.75
852.206	42.32
852.381	-66.22
852.556	40.28
852.731	66.9
852.906	73.04
853.081	-10.92
853.256	136.53
853.431	11.61
853.606	-35.5
853.781	-66.22
853.956	-133.8
854.131	13.65
854.305	-60.07
854.48	-12.97
854.655	-72.36
854.83	-15.02
855.005	-29.35
855.18	-15.02
855.354	-33.45
855.529	13.65
855.704	-62.12
855.879	-27.31
856.053	-35.5
856.228	21.84
856.403	-10.92
856.577	-2.73
856.752	-84.65
856.926	-8.87
857.101	99.67
857.276	-72.36
857.45	-6.83
857.625	13.65
857.799	13.65
857.974	38.23
858.148	-119.46
858.323	19.8
858.497	-4.78
858.672	13.65
858.846	-68.27
859.02	13.65
859.195	-66.22
859.369	-68.27
859.543	-35.5
859.718	7.51
859.892	-37.55
860.066	-29.35
860.241	-29.35
860.415	-45.74
860.589	-12.97
860.763	-19.11
860.938	-12.97
861.112	5.46
861.286	38.23
861.46	91.48
861.634	-35.5
861.808	79.19
861.982	-72.36
862.157	-160.42
862.331	-19.11
862.505	-29.35
862.679	-37.55
862.853	-2.73
863.027	-27.31
863.201	120.15
863.375	-72.36
863.549	-76.46
863.722	3.41
863.896	89.43
864.07	-72.36
864.244	-10.92
864.418	-19.11
864.592	-39.59
864.766	25.94
864.939	34.13
865.113	-70.31
865.287	50.52
865.461	-111.27
865.634	-31.4
865.808	-21.16
865.982	-2.73
866.156	-6.83
866.329	-94.89
866.503	-27.31
866.676	-43.69
866.85	5.46
867.024	-17.07
867.197	48.47
867.371	44.37
867.544	50.52
867.718	-105.13
867.891	52.56
868.065	-94.89
868.238	42.32
868.412	-8.87
868.585	-47.79
868.759	-23.21
868.932	-74.41
869.105	-60.07
869.279	-21.16
869.452	-86.7
869.625	25.94
869.799	-35.5
869.972	-96.94
870.145	-58.03
870.319	95.57
870.492	27.99
870.665	-82.6
870.838	-135.85
871.011	-131.75
871.185	21.84
871.358	-94.89
871.531	-8.87
871.704	46.42
871.877	7.51
872.05	-33.45
872.223	-86.7
872.396	81.24
872.569	66.9
872.742	-182.95
872.915	-8.87
873.088	17.75
873.261	-94.89
873.434	25.94
873.607	-111.27
873.78	54.61
873.953	-29.35
874.126	-27.31
874.299	5.46
874.471	5.46
874.644	-29.35
874.817	-2.73
874.99	228.69
875.163	7.51
875.335	-62.12
875.508	34.13
875.681	75.09
875.853	-109.23
876.026	25.94
876.199	71
876.371	-17.07
876.544	27.99
876.717	52.56
876.889	-41.64
877.062	36.18
877.234	-72.36
877.407	-0.68
877.579	9.56
877.752	7.51
877.924	91.48
878.097	-37.55
878.269	27.99
878.442	-19.11
878.614	36.18
878.786	-39.59
878.959	-35.5
879.131	42.32
879.303	-70.31
879.476	-10.92
879.648	48.47
879.82	-8.87
879.993	38.23
880.165	-17.07
880.337	-21.16
880.509	52.56
880.681	-74.41
880.854	-70.31
881.026	66.9
881.198	97.62
881.37	-51.88
881.542	-23.21
881.714	-60.07
881.886	-12.97
882.058	-55.98
882.23	-4.78
882.402	-8.87
882.574	3.41
882.746	32.08
882.918	93.52
883.09	-29.35
883.262	-33.45
883.434	-0.68
883.606	-55.98
883.778	-2.73
883.95	81.24
884.122	-37.55
884.293	66.9
884.465	5.46
884.637	89.43
884.809	-15.02
884.98	-15.02
885.152	50.52
885.324	56.66
885.496	-51.88
885.667	-70.31
885.839	-39.59
886.011	93.52
886.182	99.67
886.354	7.51
886.525	-27.31
886.697	60.76
886.869	-72.36
887.04	-49.83
887.212	44.37
887.383	157.01
887.555	77.14
887.726	-72.36
887.897	-78.51
888.069	3.41
888.24	66.9
888.412	-0.68
888.583	30.04
888.754	-41.64
888.926	-113.32
889.097	-58.03
889.268	-66.22
889.44	27.99
889.611	-80.55
889.782	-64.17
889.953	-37.55
890.125	75.09
890.296	-29.35
890.467	-8.87
890.638	-21.16
890.809	-17.07
890.98	-101.03
891.151	21.84
891.323	99.67
891.494	-29.35
891.665	23.89
891.836	-25.26
892.007	-35.5
892.178	-43.69
892.349	-10.92
892.52	25.94
892.691	9.56
892.862	-41.64
893.032	-146.09
893.203	-29.35
893.374	97.62
893.545	54.61
893.716	-2.73
893.887	11.61
894.057	-80.55
894.228	-33.45
894.399	-135.85
894.57	109.91
894.74	87.38
894.911	5.46
895.082	-72.36
895.253	-27.31
895.423	-25.26
895.594	5.46
895.764	7.51
895.935	-74.41
896.106	27.99
896.276	-27.31
896.447	-43.69
896.617	-62.12
896.788	-55.98
896.958	-86.7
897.129	-47.79
897.299	27.99
897.47	95.57
897.64	44.37
897.81	-39.59
897.981	32.08
898.151	-43.69
898.322	11.61
898.492	38.23
898.662	-29.35
898.832	-58.03
899.003	-31.4
899.173	17.75
899.343	-80.55
899.513	-119.46
