Data from USB4F104151__77__09-30-13-490.txt Node

Date: Wed Feb 26 09:30:13 EST 2025
User: louis
Spectrometer: USB4F10415
Trigger mode: 4
Integration Time (sec): 1.000000E-1
Scans to average: 1
Electric dark correction enabled: true
Nonlinearity correction enabled: false
Boxcar width: 0
XAxis mode: Wavelengths
Number of Pixels in Spectrum: 3648
>>>>>Begin Spectral Data<<<<<
178.204	-430.59
178.424	-430.59
178.644	-430.59
178.864	-334.33
179.084	-377.34
179.304	-57.86
179.524	-14.85
179.744	-72.19
179.964	103.93
180.184	38.4
180.404	52.74
180.624	3.58
180.844	11.78
181.064	-43.52
181.283	62.98
181.503	-107.01
181.723	22.02
181.943	-123.39
182.163	79.36
182.383	56.83
182.602	40.45
182.822	97.79
183.042	-10.75
183.262	22.02
183.482	15.87
183.701	62.98
183.921	163.33
184.141	-12.8
184.361	128.51
184.58	9.73
184.8	36.35
185.02	26.11
185.239	128.51
185.459	24.06
185.679	120.32
185.898	-31.23
186.118	36.35
186.338	-10.75
186.557	87.55
186.777	28.16
186.997	-37.38
187.216	56.83
187.436	187.9
187.655	24.06
187.875	108.03
188.095	79.36
188.314	103.93
188.534	97.79
188.753	3.58
188.973	148.99
189.192	126.46
189.412	17.92
189.631	69.12
189.851	95.74
190.07	161.28
190.29	-66.05
190.509	7.68
190.729	13.82
190.948	89.6
191.168	284.16
191.387	73.21
191.607	7.68
191.826	36.35
192.045	40.45
192.265	9.73
192.484	81.41
192.704	-4.61
192.923	-66.05
193.142	251.39
193.362	105.98
193.581	89.6
193.8	110.08
194.02	194.05
194.239	34.3
194.458	69.12
194.678	7.68
194.897	30.21
195.116	17.92
195.335	65.02
195.555	110.08
195.774	50.69
195.993	120.32
196.212	-18.94
196.432	40.45
196.651	-2.56
196.87	32.26
197.089	189.95
197.308	105.98
197.528	40.45
197.747	-61.95
197.966	46.59
198.185	122.37
198.404	-27.14
198.623	136.7
198.842	87.55
199.062	144.89
199.281	-10.75
199.5	75.26
199.719	19.97
199.938	58.88
200.157	50.69
200.376	103.93
200.595	179.71
200.814	114.17
201.033	32.26
201.252	122.37
201.471	32.26
201.69	79.36
201.909	83.45
202.128	99.84
202.347	118.27
202.566	-20.99
202.785	-41.47
203.004	-72.19
203.223	245.24
203.442	26.11
203.661	-66.05
203.879	32.26
204.098	128.51
204.317	-31.23
204.536	114.17
204.755	114.17
204.974	83.45
205.193	-35.33
205.411	134.65
205.63	67.07
205.849	13.82
206.068	56.83
206.287	15.87
206.505	124.41
206.724	-4.61
206.943	-16.9
207.162	-33.28
207.381	28.16
207.599	38.4
207.818	48.64
208.037	36.35
208.255	-10.75
208.474	38.4
208.693	26.11
208.911	85.5
209.13	36.35
209.349	-0.51
209.567	69.12
209.786	114.17
210.005	103.93
210.223	3.58
210.442	-102.91
210.661	48.64
210.879	99.84
211.098	97.79
211.316	5.63
211.535	134.65
211.753	11.78
211.972	38.4
212.191	7.68
212.409	40.45
212.628	73.21
212.846	-20.99
213.065	101.89
213.283	114.17
213.502	48.64
213.72	34.3
213.938	-25.09
214.157	44.54
214.375	120.32
214.594	32.26
214.812	81.41
215.031	-41.47
215.249	56.83
215.467	97.79
215.686	48.64
215.904	69.12
216.122	112.13
216.341	187.9
216.559	89.6
216.778	122.37
216.996	114.17
217.214	48.64
217.432	-0.51
217.651	-6.66
217.869	40.45
218.087	7.68
218.306	-27.14
218.524	77.31
218.742	46.59
218.96	89.6
219.179	30.21
219.397	50.69
219.615	165.37
219.833	65.02
220.051	46.59
220.27	34.3
220.488	144.89
220.706	48.64
220.924	-20.99
221.142	-27.14
221.36	32.26
221.578	120.32
221.796	17.92
222.015	48.64
222.233	44.54
222.451	124.41
222.669	5.63
222.887	3.58
223.105	-45.57
223.323	-55.81
223.541	40.45
223.759	22.02
223.977	34.3
224.195	85.5
224.413	56.83
224.631	46.59
224.849	5.63
225.067	159.23
225.285	13.82
225.503	32.26
225.721	-10.75
225.939	24.06
226.157	54.78
226.375	105.98
226.592	-57.86
226.81	-45.57
227.028	65.02
227.246	118.27
227.464	46.59
227.682	105.98
227.9	151.04
228.117	28.16
228.335	32.26
228.553	120.32
228.771	-37.38
228.989	19.97
229.206	67.07
229.424	-4.61
229.642	26.11
229.86	-18.94
230.077	48.64
230.295	26.11
230.513	60.93
230.731	54.78
230.948	148.99
231.166	112.13
231.384	28.16
231.601	44.54
231.819	44.54
232.037	15.87
232.254	-35.33
232.472	60.93
232.689	-57.86
232.907	73.21
233.125	22.02
233.342	1.54
233.56	-25.09
233.777	46.59
233.995	38.4
234.213	130.56
234.43	89.6
234.648	-20.99
234.865	11.78
235.083	124.41
235.3	48.64
235.518	165.37
235.735	81.41
235.953	11.78
236.17	67.07
236.388	-47.62
236.605	48.64
236.822	87.55
237.04	103.93
237.257	62.98
237.475	17.92
237.692	81.41
237.909	-6.66
238.127	-43.52
238.344	46.59
238.562	19.97
238.779	-74.24
238.996	-18.94
239.214	54.78
239.431	108.03
239.648	58.88
239.865	108.03
240.083	87.55
240.3	-55.81
240.517	5.63
240.735	9.73
240.952	101.89
241.169	81.41
241.386	132.61
241.603	-41.47
241.821	24.06
242.038	26.11
242.255	56.83
242.472	-16.9
242.689	105.98
242.907	87.55
243.124	36.35
243.341	56.83
243.558	-16.9
243.775	-68.09
243.992	24.06
244.209	110.08
244.426	155.13
244.643	95.74
244.86	-4.61
245.078	130.56
245.295	48.64
245.512	19.97
245.729	19.97
245.946	28.16
246.163	83.45
246.38	32.26
246.597	46.59
246.814	5.63
247.031	81.41
247.248	36.35
247.464	56.83
247.681	-10.75
247.898	97.79
248.115	71.17
248.332	32.26
248.549	81.41
248.766	228.86
248.983	75.26
249.2	32.26
249.417	3.58
249.633	36.35
249.85	-20.99
250.067	44.54
250.284	15.87
250.501	93.69
250.717	13.82
250.934	-0.51
251.151	87.55
251.368	34.3
251.585	99.84
251.801	22.02
252.018	42.5
252.235	89.6
252.451	-88.57
252.668	48.64
252.885	38.4
253.102	65.02
253.318	28.16
253.535	-43.52
253.752	5.63
253.968	128.51
254.185	-47.62
254.401	58.88
254.618	26.11
254.835	-8.7
255.051	112.13
255.268	65.02
255.484	32.26
255.701	48.64
255.917	73.21
256.134	-6.66
256.351	-29.18
256.567	-49.66
256.784	13.82
257	-2.56
257.217	52.74
257.433	65.02
257.65	56.83
257.866	114.17
258.082	-37.38
258.299	-27.14
258.515	13.82
258.732	56.83
258.948	48.64
259.165	48.64
259.381	-57.86
259.597	124.41
259.814	24.06
260.03	19.97
260.246	97.79
260.463	85.5
260.679	97.79
260.895	17.92
261.112	-20.99
261.328	17.92
261.544	62.98
261.761	146.94
261.977	5.63
262.193	13.82
262.409	71.17
262.626	114.17
262.842	-4.61
263.058	19.97
263.274	103.93
263.49	-18.94
263.707	153.09
263.923	124.41
264.139	-53.76
264.355	-33.28
264.571	153.09
264.787	40.45
265.004	151.04
265.22	9.73
265.436	54.78
265.652	-57.86
265.868	65.02
266.084	-33.28
266.3	79.36
266.516	-10.75
266.732	-35.33
266.948	7.68
267.164	15.87
267.38	122.37
267.596	52.74
267.812	93.69
268.028	52.74
268.244	44.54
268.46	44.54
268.676	19.97
268.892	7.68
269.108	-35.33
269.324	15.87
269.54	-12.8
269.756	44.54
269.972	24.06
270.188	19.97
270.403	-25.09
270.619	42.5
270.835	105.98
271.051	7.68
271.267	-16.9
271.483	-82.43
271.698	85.5
271.914	69.12
272.13	56.83
272.346	87.55
272.562	87.55
272.777	50.69
272.993	15.87
273.209	87.55
273.425	110.08
273.64	-70.14
273.856	65.02
274.072	22.02
274.287	17.92
274.503	103.93
274.719	69.12
274.934	-49.66
275.15	-74.24
275.366	24.06
275.581	-0.51
275.797	34.3
276.012	85.5
276.228	-25.09
276.444	-6.66
276.659	58.88
276.875	-43.52
277.09	3.58
277.306	5.63
277.521	89.6
277.737	-37.38
277.952	11.78
278.168	89.6
278.383	36.35
278.599	32.26
278.814	38.4
279.03	87.55
279.245	153.09
279.461	69.12
279.676	60.93
279.892	-20.99
280.107	36.35
280.322	-27.14
280.538	99.84
280.753	-27.14
280.969	89.6
281.184	65.02
281.399	136.7
281.615	30.21
281.83	44.54
282.045	-14.85
282.26	-61.95
282.476	-39.42
282.691	171.52
282.906	89.6
283.122	17.92
283.337	-25.09
283.552	24.06
283.767	19.97
283.983	50.69
284.198	-0.51
284.413	122.37
284.628	-88.57
284.843	81.41
285.058	73.21
285.274	19.97
285.489	-45.57
285.704	122.37
285.919	3.58
286.134	40.45
286.349	40.45
286.564	81.41
286.779	97.79
286.995	-35.33
287.21	-51.71
287.425	48.64
287.64	50.69
287.855	81.41
288.07	-14.85
288.285	138.75
288.5	114.17
288.715	24.06
288.93	36.35
289.145	3.58
289.36	140.8
289.575	-2.56
289.79	101.89
290.004	30.21
290.219	132.61
290.434	-37.38
290.649	7.68
290.864	138.75
291.079	40.45
291.294	50.69
291.509	34.3
291.724	26.11
291.938	-25.09
292.153	69.12
292.368	-25.09
292.583	101.89
292.798	65.02
293.012	9.73
293.227	81.41
293.442	-0.51
293.657	126.46
293.871	-23.04
294.086	105.98
294.301	165.37
294.516	142.85
294.73	42.5
294.945	-59.9
295.16	22.02
295.374	101.89
295.589	79.36
295.804	120.32
296.018	38.4
296.233	67.07
296.447	44.54
296.662	1.54
296.877	91.65
297.091	44.54
297.306	48.64
297.52	56.83
297.735	58.88
297.949	69.12
298.164	13.82
298.378	26.11
298.593	-51.71
298.807	24.06
299.022	34.3
299.236	101.89
299.451	73.21
299.665	56.83
299.88	-25.09
300.094	44.54
300.309	19.97
300.523	15.87
300.737	48.64
300.952	28.16
301.166	-4.61
301.381	69.12
301.595	3.58
301.809	-2.56
302.024	-49.66
302.238	75.26
302.452	130.56
302.667	46.59
302.881	28.16
303.095	105.98
303.309	17.92
303.524	-16.9
303.738	24.06
303.952	38.4
304.166	-14.85
304.381	-61.95
304.595	97.79
304.809	-14.85
305.023	19.97
305.237	-4.61
305.452	13.82
305.666	79.36
305.88	38.4
306.094	116.22
306.308	44.54
306.522	62.98
306.736	65.02
306.95	34.3
307.164	40.45
307.379	87.55
307.593	155.13
307.807	60.93
308.021	91.65
308.235	1.54
308.449	1.54
308.663	3.58
308.877	157.18
309.091	48.64
309.305	95.74
309.519	-14.85
309.733	65.02
309.947	-43.52
310.161	95.74
310.374	73.21
310.588	34.3
310.802	-45.57
311.016	5.63
311.23	101.89
311.444	22.02
311.658	103.93
311.872	95.74
312.085	75.26
312.299	157.18
312.513	85.5
312.727	46.59
312.941	19.97
313.154	44.54
313.368	87.55
313.582	85.5
313.796	97.79
314.009	50.69
314.223	73.21
314.437	44.54
314.651	103.93
314.864	19.97
315.078	44.54
315.292	-12.8
315.505	-35.33
315.719	81.41
315.933	32.26
316.146	32.26
316.36	-25.09
316.573	97.79
316.787	5.63
317.001	101.89
317.214	-64
317.428	15.87
317.641	19.97
317.855	-86.53
318.068	36.35
318.282	73.21
318.495	138.75
318.709	36.35
318.922	13.82
319.136	118.27
319.349	24.06
319.563	58.88
319.776	1.54
319.99	-10.75
320.203	105.98
320.417	-43.52
320.63	114.17
320.843	179.71
321.057	110.08
321.27	87.55
321.483	65.02
321.697	73.21
321.91	-35.33
322.124	50.69
322.337	46.59
322.55	56.83
322.763	-12.8
322.977	-16.9
323.19	71.17
323.403	1.54
323.617	15.87
323.83	159.23
324.043	19.97
324.256	67.07
324.469	-74.24
324.683	138.75
324.896	-43.52
325.109	-39.42
325.322	17.92
325.535	97.79
325.748	38.4
325.962	71.17
326.175	32.26
326.388	44.54
326.601	101.89
326.814	9.73
327.027	83.45
327.24	103.93
327.453	-43.52
327.666	34.3
327.879	161.28
328.092	69.12
328.305	65.02
328.518	9.73
328.731	-20.99
328.944	75.26
329.157	22.02
329.37	56.83
329.583	105.98
329.796	159.23
330.009	-10.75
330.222	65.02
330.435	75.26
330.648	36.35
330.861	69.12
331.073	114.17
331.286	83.45
331.499	48.64
331.712	-2.56
331.925	36.35
332.138	71.17
332.35	48.64
332.563	-2.56
332.776	83.45
332.989	32.26
333.202	32.26
333.414	-14.85
333.627	46.59
333.84	-43.52
334.053	26.11
334.265	-33.28
334.478	-64
334.691	15.87
334.903	42.5
335.116	9.73
335.329	65.02
335.541	19.97
335.754	136.7
335.966	-37.38
336.179	-16.9
336.392	30.21
336.604	-72.19
336.817	118.27
337.029	17.92
337.242	144.89
337.454	52.74
337.667	65.02
337.88	95.74
338.092	103.93
338.305	89.6
338.517	32.26
338.729	52.74
338.942	202.24
339.154	36.35
339.367	-66.05
339.579	114.17
339.792	-31.23
340.004	130.56
340.217	-6.66
340.429	-4.61
340.641	-2.56
340.854	-23.04
341.066	-53.76
341.278	79.36
341.491	97.79
341.703	9.73
341.915	36.35
342.128	136.7
342.34	36.35
342.552	15.87
342.764	48.64
342.977	48.64
343.189	-0.51
343.401	13.82
343.613	-23.04
343.826	36.35
344.038	-18.94
344.25	-6.66
344.462	13.82
344.674	24.06
344.886	-16.9
345.099	93.69
345.311	122.37
345.523	-45.57
345.735	-86.53
345.947	40.45
346.159	7.68
346.371	91.65
346.583	-68.09
346.795	126.46
347.007	-4.61
347.219	32.26
347.431	65.02
347.643	103.93
347.855	-8.7
348.067	134.65
348.279	-16.9
348.491	85.5
348.703	87.55
348.915	46.59
349.127	-57.86
349.339	24.06
349.551	-4.61
349.763	36.35
349.975	93.69
350.187	116.22
350.399	97.79
350.61	65.02
350.822	7.68
351.034	15.87
351.246	46.59
351.458	99.84
351.669	99.84
351.881	75.26
352.093	85.5
352.305	11.78
352.517	-45.57
352.728	122.37
352.94	-8.7
353.152	67.07
353.363	-23.04
353.575	83.45
353.787	157.18
353.999	124.41
354.21	192
354.422	-10.75
354.633	-0.51
354.845	15.87
355.057	40.45
355.268	73.21
355.48	89.6
355.692	40.45
355.903	91.65
356.115	-23.04
356.326	-29.18
356.538	124.41
356.749	7.68
356.961	151.04
357.172	-78.33
357.384	26.11
357.595	245.24
357.807	17.92
358.018	-102.91
358.23	15.87
358.441	138.75
358.653	54.78
358.864	-10.75
359.075	-47.62
359.287	17.92
359.498	71.17
359.709	112.13
359.921	44.54
360.132	22.02
360.344	-4.61
360.555	48.64
360.766	-4.61
360.977	-51.71
361.189	122.37
361.4	24.06
361.611	116.22
361.823	118.27
362.034	97.79
362.245	-152.06
362.456	46.59
362.667	89.6
362.879	-20.99
363.09	15.87
363.301	13.82
363.512	-49.66
363.723	-6.66
363.935	73.21
364.146	-16.9
364.357	69.12
364.568	73.21
364.779	-16.9
364.99	118.27
365.201	15.87
365.412	114.17
365.623	-74.24
365.834	81.41
366.045	-16.9
366.256	1.54
366.467	110.08
366.678	32.26
366.889	67.07
367.1	-29.18
367.311	99.84
367.522	44.54
367.733	91.65
367.944	30.21
368.155	40.45
368.366	-10.75
368.577	30.21
368.788	87.55
368.999	40.45
369.209	36.35
369.42	196.09
369.631	263.68
369.842	75.26
370.053	-6.66
370.264	136.7
370.474	-37.38
370.685	15.87
370.896	3.58
371.107	101.89
371.317	28.16
371.528	112.13
371.739	60.93
371.95	112.13
372.16	24.06
372.371	19.97
372.582	15.87
372.792	56.83
373.003	122.37
373.214	9.73
373.424	89.6
373.635	-55.81
373.846	87.55
374.056	50.69
374.267	3.58
374.477	22.02
374.688	-94.72
374.898	52.74
375.109	50.69
375.319	54.78
375.53	177.66
375.74	118.27
375.951	-20.99
376.161	81.41
376.372	105.98
376.582	-2.56
376.793	48.64
377.003	22.02
377.214	-6.66
377.424	52.74
377.635	1.54
377.845	32.26
378.055	114.17
378.266	-84.48
378.476	69.12
378.686	-0.51
378.897	169.47
379.107	46.59
379.317	87.55
379.528	56.83
379.738	124.41
379.948	58.88
380.158	101.89
380.369	30.21
380.579	110.08
380.789	24.06
380.999	142.85
381.21	30.21
381.42	163.33
381.63	62.98
381.84	177.66
382.05	32.26
382.261	-0.51
382.471	173.57
382.681	-2.56
382.891	122.37
383.101	52.74
383.311	-16.9
383.521	36.35
383.731	65.02
383.941	24.06
384.151	79.36
384.361	-6.66
384.571	81.41
384.781	32.26
384.991	122.37
385.201	165.37
385.411	36.35
385.621	38.4
385.831	91.65
386.041	24.06
386.251	48.64
386.461	118.27
386.671	22.02
386.881	40.45
387.091	3.58
387.301	130.56
387.511	65.02
387.72	22.02
387.93	75.26
388.14	-41.47
388.35	69.12
388.56	69.12
388.769	126.46
388.979	28.16
389.189	-78.33
389.399	15.87
389.609	120.32
389.818	89.6
390.028	24.06
390.238	22.02
390.447	13.82
390.657	138.75
390.867	-80.38
391.076	-18.94
391.286	-2.56
391.496	-49.66
391.705	26.11
391.915	179.71
392.125	124.41
392.334	-27.14
392.544	132.61
392.753	101.89
392.963	13.82
393.172	-10.75
393.382	-8.7
393.591	126.46
393.801	62.98
394.01	130.56
394.22	67.07
394.429	-6.66
394.639	69.12
394.848	19.97
395.058	108.03
395.267	-57.86
395.477	32.26
395.686	-4.61
395.895	89.6
396.105	124.41
396.314	54.78
396.524	28.16
396.733	-27.14
396.942	48.64
397.152	5.63
397.361	112.13
397.57	101.89
397.78	54.78
397.989	-8.7
398.198	177.66
398.407	46.59
398.617	32.26
398.826	-14.85
399.035	58.88
399.244	138.75
399.453	56.83
399.663	-6.66
399.872	38.4
400.081	-51.71
400.29	85.5
400.499	-10.75
400.708	126.46
400.917	19.97
401.127	-29.18
401.336	79.36
401.545	165.37
401.754	130.56
401.963	126.46
402.172	79.36
402.381	-64
402.59	44.54
402.799	69.12
403.008	126.46
403.217	97.79
403.426	91.65
403.635	-55.81
403.844	7.68
404.053	1.54
404.262	-4.61
404.471	204.28
404.68	24.06
404.888	13.82
405.097	-8.7
405.306	71.17
405.515	77.31
405.724	71.17
405.933	101.89
406.142	1.54
406.35	132.61
406.559	48.64
406.768	112.13
406.977	210.43
407.185	28.16
407.394	62.98
407.603	-33.28
407.812	99.84
408.02	167.42
408.229	-6.66
408.438	-0.51
408.646	3.58
408.855	38.4
409.064	73.21
409.272	32.26
409.481	103.93
409.69	-51.71
409.898	19.97
410.107	34.3
410.315	151.04
410.524	-41.47
410.733	13.82
410.941	-23.04
411.15	52.74
411.358	50.69
411.567	138.75
411.775	73.21
411.984	54.78
412.192	60.93
412.401	5.63
412.609	144.89
412.818	105.98
413.026	46.59
413.234	-8.7
413.443	40.45
413.651	-25.09
413.86	-2.56
414.068	179.71
414.276	65.02
414.485	-43.52
414.693	124.41
414.901	187.9
415.11	24.06
415.318	134.65
415.526	24.06
415.734	138.75
415.943	11.78
416.151	73.21
416.359	30.21
416.567	73.21
416.776	122.37
416.984	118.27
417.192	167.42
417.4	5.63
417.608	56.83
417.817	-86.53
418.025	56.83
418.233	130.56
418.441	40.45
418.649	19.97
418.857	54.78
419.065	103.93
419.273	40.45
419.481	101.89
419.689	24.06
419.897	44.54
420.105	-43.52
420.313	132.61
420.521	22.02
420.729	91.65
420.937	5.63
421.145	-96.77
421.353	163.33
421.561	196.09
421.769	56.83
421.977	-25.09
422.185	99.84
422.393	32.26
422.601	192
422.809	48.64
423.017	36.35
423.224	83.45
423.432	81.41
423.64	36.35
423.848	120.32
424.056	110.08
424.263	44.54
424.471	60.93
424.679	114.17
424.887	19.97
425.094	151.04
425.302	85.5
425.51	95.74
425.718	48.64
425.925	1.54
426.133	1.54
426.341	189.95
426.548	-41.47
426.756	9.73
426.964	54.78
427.171	7.68
427.379	85.5
427.586	65.02
427.794	81.41
428.001	69.12
428.209	144.89
428.417	194.05
428.624	155.13
428.832	198.14
429.039	-10.75
429.247	48.64
429.454	46.59
429.662	144.89
429.869	40.45
430.076	24.06
430.284	89.6
430.491	169.47
430.699	73.21
430.906	142.85
431.114	69.12
431.321	146.94
431.528	89.6
431.736	136.7
431.943	56.83
432.15	173.57
432.358	157.18
432.565	159.23
432.772	-66.05
432.979	181.76
433.187	-16.9
433.394	192
433.601	48.64
433.808	122.37
434.016	153.09
434.223	146.94
434.43	95.74
434.637	171.52
434.844	185.85
435.052	171.52
435.259	165.37
435.466	243.2
435.673	120.32
435.88	232.96
436.087	232.96
436.294	232.96
436.501	241.15
436.708	126.46
436.915	269.82
437.122	206.33
437.329	245.24
437.537	253.44
437.743	237.05
437.95	220.67
438.157	212.48
438.364	255.48
438.571	212.48
438.778	228.86
438.985	335.35
439.192	230.91
439.399	337.4
439.606	269.82
439.813	335.35
440.02	370.17
440.227	527.86
440.433	396.79
440.64	409.08
440.847	349.69
441.054	429.56
441.261	544.25
441.467	433.66
441.674	382.46
441.881	450.04
442.088	413.18
442.294	536.06
442.501	556.54
442.708	564.73
442.914	550.39
443.121	597.49
443.328	634.36
443.534	568.82
443.741	572.92
443.948	517.62
444.154	720.37
444.361	771.57
444.568	687.61
444.774	734.71
444.981	605.69
445.187	835.06
445.394	763.38
445.6	851.44
445.807	943.6
446.013	921.07
446.22	693.75
446.426	816.63
446.633	1019.38
446.839	998.9
447.046	947.7
447.252	1115.63
447.459	1048.05
447.665	1029.62
447.871	1187.31
448.078	1338.86
448.284	1244.65
448.491	1304.04
448.697	1355.24
448.903	1439.21
449.11	1392.11
449.316	1426.92
449.522	1539.56
449.728	1471.98
449.935	1742.31
450.141	1623.53
450.347	1832.42
450.553	1785.32
450.76	1805.8
450.966	1965.54
451.172	2012.64
451.378	2080.22
451.584	2072.03
451.791	2221.53
451.997	2260.45
452.203	2223.58
452.409	2379.23
452.615	2608.6
452.821	2551.26
453.027	2594.26
453.233	2917.84
453.44	2657.75
453.646	2964.95
453.852	3030.48
454.058	3136.98
454.264	3190.22
454.47	3591.63
454.676	3474.89
454.882	3775.94
455.088	3546.57
455.294	3784.13
455.5	4076.99
455.705	4308.41
455.911	4335.04
456.117	4425.15
456.323	4660.66
456.529	4709.82
456.735	4988.34
456.941	5191.09
457.147	5543.34
457.352	5500.33
457.558	5658.03
457.764	5914.02
457.97	6114.72
458.176	6315.42
458.381	6700.44
458.587	6886.81
458.793	7165.33
458.999	7089.56
459.204	8123.78
459.41	8250.75
459.616	8334.72
459.821	8549.76
460.027	9141.62
460.233	9411.95
460.438	9303.41
460.644	10100.07
460.85	10311.01
461.055	10323.3
461.261	10970.46
461.466	10870.11
461.672	11003.22
461.878	12232.01
462.083	12186.95
462.289	12528.96
462.494	12877.12
462.7	13163.83
462.905	13270.33
463.111	14222.63
463.316	14615.84
463.522	15291.67
463.727	15688.98
463.932	16360.71
464.138	16852.22
464.343	17499.38
464.549	17825.01
464.754	19076.32
464.959	19074.27
465.165	19825.87
465.37	19641.56
465.575	19811.54
465.781	20942.02
465.986	21566.65
466.191	21206.2
466.397	21462.2
466.602	20804.8
466.807	22330.54
467.012	22561.96
467.218	22787.24
467.423	23198.88
467.628	23938.19
467.833	24925.32
468.038	24165.52
468.244	24265.87
468.449	25465.98
468.654	24632.46
468.859	24904.84
469.064	24921.22
469.269	24241.29
469.474	24544.39
469.679	24978.56
469.885	24351.88
470.09	24749.19
470.295	24814.73
470.5	24198.29
470.705	24358.03
470.91	23686.29
471.115	23755.93
471.32	23760.02
471.525	23682.2
471.73	23221.41
471.935	22895.78
472.139	22062.26
472.344	21947.57
472.549	21994.67
472.754	21589.17
472.959	21077.18
473.164	20411.59
473.369	20301
473.574	20817.09
473.778	20249.8
473.983	20042.96
474.188	19393.75
474.393	18715.87
474.598	18826.46
474.802	18212.07
475.007	18072.81
475.212	17702.13
475.417	16979.2
475.621	17093.88
475.826	16788.74
476.031	16297.22
476.235	16047.37
476.44	15985.93
476.645	15781.14
476.849	15551.76
477.054	15162.65
477.259	14812.45
477.463	14875.93
477.668	14302.5
477.872	14486.82
478.077	13933.87
478.282	13344.05
478.486	13618.48
478.691	13331.76
478.895	13286.71
479.1	13167.93
479.304	12768.57
479.509	12582.21
479.713	12737.85
479.918	12563.78
480.122	12223.81
480.326	12258.63
480.531	12498.24
480.735	12287.3
480.94	11863.37
481.144	12365.12
481.348	11806.03
481.553	11767.12
481.757	11500.88
481.961	11578.7
482.166	11666.77
482.37	11425.11
482.574	11148.63
482.778	11169.11
482.983	11431.25
483.187	11308.37
483.391	11148.63
483.595	10870.11
483.8	10495.33
484.004	10673.5
484.208	10736.99
484.412	10605.92
484.616	10734.94
484.821	10335.59
485.025	9981.29
485.229	10229.09
485.433	9969
485.637	9696.62
485.841	9586.03
486.045	9653.61
486.249	9639.28
486.453	9414
486.657	9256.31
486.861	9215.35
487.065	8748.41
487.269	8834.43
487.473	8465.79
487.677	8668.54
487.881	8607.1
488.085	8316.29
488.289	8326.53
488.493	8048.01
488.697	8080.77
488.901	7771.53
489.105	7480.72
489.309	7478.67
489.512	7437.71
489.716	7280.02
489.92	7050.64
490.124	7107.99
490.328	7013.78
490.531	6782.36
490.735	6821.27
490.939	6596
491.143	6411.68
491.346	6526.36
491.55	6389.15
491.754	5981.6
491.958	6032.8
492.161	5905.83
492.365	5799.34
492.569	5856.68
492.772	5526.96
492.976	5619.11
493.18	5324.21
493.383	5653.93
493.587	5430.7
493.79	5305.78
493.994	5154.23
494.197	5092.79
494.401	5186.99
494.605	5017.01
494.808	5084.59
495.012	5070.26
495.215	4980.15
495.419	5010.87
495.622	4668.86
495.825	4785.59
496.029	4849.08
496.232	4871.61
496.436	4650.43
496.639	4750.78
496.843	4742.58
497.046	4660.66
497.249	4689.34
497.453	4746.68
497.656	4711.86
497.859	4574.65
498.063	4797.88
498.266	4754.87
498.469	4617.66
498.673	4742.58
498.876	4668.86
499.079	4783.54
499.282	4789.69
499.485	4881.85
499.689	4859.32
499.892	4787.64
500.095	4816.31
500.298	4701.62
500.501	4883.89
500.705	4931
500.908	5039.54
501.111	5027.25
501.314	5242.29
501.517	5217.71
501.72	5131.7
501.923	5150.13
502.126	5359.02
502.329	5266.86
502.532	5469.61
502.735	5406.13
502.938	5635.5
503.141	5701.03
503.344	5608.87
503.547	5780.9
503.75	5821.86
503.953	5780.9
504.156	5983.65
504.359	5871.01
504.562	5967.27
504.765	5977.51
504.968	6129.06
505.17	6354.34
505.373	6253.98
505.576	6466.97
505.779	6651.29
505.982	6716.83
506.185	6831.51
506.387	6862.23
506.59	7069.08
506.793	7126.42
506.996	7120.28
507.198	7648.65
507.401	7626.12
507.604	7746.95
507.807	7884.17
508.009	8277.38
508.212	8121.73
508.415	8195.46
508.617	8410.5
508.82	8516.99
509.022	8842.62
509.225	8822.14
509.428	9151.86
509.63	9424.24
509.833	9373.04
510.035	9655.66
510.238	9880.94
510.44	10155.37
510.643	10474.85
510.845	10577.25
511.048	10544.48
511.25	10931.55
511.453	11234.64
511.655	11525.46
511.858	11853.13
512.06	12027.21
512.262	12107.08
512.465	12444.99
512.667	12639.55
512.87	12991.8
513.072	13335.86
513.274	13774.13
513.477	13907.24
513.679	14148.9
513.881	14429.48
514.084	14812.45
514.286	14785.82
514.488	15369.49
514.69	15977.74
514.893	16293.13
515.095	16231.69
515.297	16907.52
515.499	17267.96
515.701	17542.39
515.904	18093.29
516.106	18218.22
516.308	18541.8
516.51	19225.82
516.712	19180.76
516.914	19823.83
517.116	20161.74
517.318	20466.89
517.52	20878.53
517.722	21081.28
517.925	21773.49
518.127	22056.11
518.329	22340.78
518.531	22731.94
518.733	23221.41
518.935	24118.42
519.136	23903.38
519.338	24001.68
519.54	24726.66
519.742	25076.87
519.944	25693.3
520.146	26197.1
520.348	26471.53
520.55	26559.59
520.752	26666.09
520.954	27376.73
521.155	27137.12
521.357	27593.82
521.559	28177.49
521.761	28609.61
521.963	28767.31
522.164	28976.2
522.366	29328.45
522.568	29514.81
522.77	29965.37
522.971	30254.13
523.173	30022.71
523.375	30297.14
523.576	30702.64
523.778	30415.92
523.98	31149.09
524.181	31097.89
524.383	31196.2
524.584	31345.7
524.786	31218.72
524.988	31048.74
525.189	31548.45
525.391	31613.98
525.592	31714.33
525.794	31466.53
525.995	31228.96
526.197	31656.99
526.398	31372.32
526.6	31411.23
526.801	31622.17
527.003	31566.88
527.204	31179.81
527.406	31075.37
527.607	31130.66
527.808	31421.47
528.01	30518.32
528.211	30635.05
528.412	30952.49
528.614	30352.43
528.815	30133.3
529.016	30551.09
529.218	29443.13
529.419	29496.38
529.62	29592.64
529.822	28910.66
530.023	28918.85
530.224	28388.43
530.425	28468.3
530.626	27718.75
530.828	27397.21
531.029	27923.54
531.23	27055.2
531.431	26965.09
531.632	26700.9
531.833	26387.57
532.035	26051.7
532.236	25693.3
532.437	25791.61
532.638	25029.76
532.839	24749.19
533.04	24788.1
533.241	24194.19
533.442	24462.47
533.643	23637.14
533.844	23256.22
534.045	23059.62
534.246	22600.87
534.447	22400.17
534.648	21968.05
534.849	21898.42
535.05	21279.93
535.251	21249.21
535.451	20880.58
535.652	20741.32
535.853	20577.48
536.054	20264.14
536.255	20045.01
536.456	19346.65
536.657	19504.34
536.857	18988.25
537.058	18971.87
537.259	18824.42
537.46	18367.72
537.66	18126.06
537.861	18111.72
538.062	17784.05
538.263	17571.06
538.463	17296.63
538.664	16936.19
538.865	16704.77
539.065	16856.32
539.266	16485.64
539.466	16071.95
539.667	16004.36
539.868	15918.35
540.068	15519
540.269	15416.6
540.469	15533.33
540.67	15158.55
540.87	14791.97
541.071	14806.3
541.271	14574.88
541.472	14556.45
541.672	14427.43
541.873	14042.41
542.073	13667.63
542.274	13974.83
542.474	13681.97
542.675	13233.46
542.875	13083.96
543.075	13260.09
543.276	12846.4
543.476	12870.97
543.676	12811.58
543.877	12752.19
544.077	12483.91
544.277	12311.88
544.478	12287.3
544.678	12096.84
544.878	11722.06
545.078	11812.17
545.279	11414.87
545.479	11576.66
545.679	11357.52
545.879	11312.47
546.079	11228.5
546.28	10943.83
546.48	10902.87
546.68	11009.37
546.88	10585.44
547.08	10460.51
547.28	10505.57
547.48	10147.17
547.68	10243.43
547.88	9979.24
548.081	9766.25
548.281	9508.21
548.481	9393.52
548.681	9756.01
548.881	9467.25
549.081	9293.17
549.28	9071.99
549.48	9254.26
549.68	8887.67
549.88	8783.23
550.08	8566.14
550.28	8629.63
550.48	8459.65
550.68	8445.31
550.88	8314.24
551.08	7986.57
551.279	8193.41
551.479	7941.51
551.679	7792.01
551.879	7390.61
552.079	7515.53
552.278	7378.32
552.478	7323.02
552.678	7271.83
552.878	7091.6
553.077	6806.94
553.277	6993.3
553.477	6886.81
553.676	6829.46
553.876	6671.77
554.076	6356.38
554.275	6573.47
554.475	6133.15
554.674	6368.67
554.874	6151.59
555.074	5961.13
555.273	5868.97
555.473	5737.9
555.672	5830.06
555.872	5676.46
556.071	5655.98
556.271	5600.68
556.47	5424.56
556.67	5143.99
556.869	5193.14
557.068	5064.11
557.268	5076.4
557.467	5006.77
557.667	4806.07
557.866	4785.59
558.065	4625.85
558.265	4697.53
558.464	4617.66
558.663	4543.93
558.863	4318.65
559.062	4480.44
559.261	4265.41
559.461	4335.04
559.66	4144.58
559.859	4072.9
560.058	4009.41
560.258	3943.88
560.457	3954.12
560.656	3954.12
560.855	3542.47
561.054	3814.85
561.253	3691.98
561.453	3571.15
561.652	3497.42
561.851	3530.19
562.05	3364.3
562.249	3343.82
562.448	3370.44
562.647	3247.57
562.846	3177.94
563.045	3282.38
563.244	3169.74
563.443	3161.55
563.642	3016.15
563.841	2915.8
564.04	2944.47
564.239	2932.18
564.438	2739.67
564.637	2674.14
564.836	2758.1
565.035	2721.24
565.234	2645.46
565.432	2749.91
565.631	2657.75
565.83	2676.18
566.029	2532.83
566.228	2489.82
566.427	2534.87
566.625	2387.42
566.824	2422.24
567.023	2299.36
567.222	2379.23
567.42	2268.64
567.619	2293.21
567.818	2092.51
568.016	2321.88
568.215	2213.34
568.414	2280.93
568.612	2166.24
568.811	2110.94
569.01	1979.87
569.208	1990.11
569.407	2059.74
569.605	1990.11
569.804	2010.59
570.002	1848.8
570.201	1920.48
570.4	1932.77
570.598	1748.45
570.797	1947.11
570.995	1641.96
571.193	1777.12
571.392	1670.63
571.59	1564.14
571.789	1754.6
571.987	1633.77
572.186	1621.48
572.384	1566.18
572.582	1621.48
572.781	1514.98
572.979	1457.64
573.177	1488.36
573.376	1527.27
573.574	1457.64
573.772	1420.78
573.971	1369.58
574.169	1283.56
574.367	1263.08
574.565	1428.97
574.763	1277.42
574.962	1250.8
575.16	1299.95
575.358	1256.94
575.556	1279.47
575.754	1213.93
575.952	1107.44
576.151	1179.12
576.349	1203.69
576.547	992.75
576.745	1113.58
576.943	1089.01
577.141	939.51
577.339	1031.66
577.537	1138.16
577.735	1125.87
577.933	978.42
578.131	1039.86
578.329	1105.39
578.527	921.07
578.725	984.56
578.923	929.27
579.121	998.9
579.319	814.58
579.516	841.2
579.714	1019.38
579.912	800.24
580.11	818.68
580.308	767.48
580.506	820.72
580.704	701.94
580.901	781.81
581.099	953.84
581.297	820.72
581.495	767.48
581.692	693.75
581.89	914.93
582.088	720.37
582.285	769.52
582.483	710.13
582.681	724.47
582.878	695.8
583.076	744.95
583.274	769.52
583.471	749.04
583.669	765.43
583.866	525.82
584.064	648.69
584.262	566.78
584.459	622.07
584.657	605.69
584.854	679.41
585.052	656.89
585.249	558.58
585.447	599.54
585.644	560.63
585.841	615.93
586.039	595.45
586.236	626.17
586.434	488.95
586.631	597.49
586.828	482.81
587.026	513.53
587.223	398.84
587.42	480.76
587.618	497.14
587.815	546.3
588.012	482.81
588.21	511.48
588.407	544.25
588.604	454.14
588.801	491
588.999	417.27
589.196	529.91
589.393	417.27
589.59	515.58
589.787	495.1
589.984	429.56
590.182	550.39
590.379	480.76
590.576	445.95
590.773	505.34
590.97	398.84
591.167	464.38
591.364	511.48
591.561	486.9
591.758	630.26
591.955	484.86
592.152	419.32
592.349	425.47
592.546	343.55
592.743	368.12
592.94	374.27
593.137	347.64
593.334	462.33
593.531	447.99
593.727	372.22
593.924	419.32
594.121	329.21
594.318	456.19
594.515	450.04
594.712	517.62
594.908	529.91
595.105	298.49
595.302	456.19
595.499	450.04
595.696	527.86
595.892	464.38
596.089	562.68
596.286	445.95
596.482	568.82
596.679	529.91
596.876	456.19
597.072	574.97
597.269	663.03
597.466	611.83
597.662	544.25
597.859	513.53
598.055	597.49
598.252	529.91
598.448	636.41
598.645	638.45
598.841	757.24
599.038	808.44
599.234	863.73
599.431	734.71
599.627	765.43
599.824	849.4
600.02	849.4
600.217	898.55
600.413	855.54
600.609	953.84
600.806	1285.61
601.002	1043.95
601.198	1013.23
601.395	1105.39
601.591	1166.83
601.787	1177.07
601.984	1342.96
602.18	1379.82
602.376	1242.61
602.572	1463.79
602.769	1553.9
602.965	1549.8
603.161	1474.03
603.357	1687.01
603.553	1598.95
603.75	1551.85
603.946	1809.89
604.142	1805.8
604.338	2037.22
604.534	1859.04
604.73	1852.9
604.926	1969.63
605.122	2158.05
605.318	2182.62
605.514	2254.3
605.71	2362.84
605.906	2389.47
606.102	2498.01
606.298	2647.51
606.494	2661.85
606.69	2858.45
606.886	2776.53
607.082	2747.86
607.278	2872.79
607.474	3026.39
607.67	3093.97
607.866	3046.87
608.062	3323.34
608.257	3495.37
608.453	3288.53
608.649	3589.58
608.845	3530.19
609.041	3689.93
609.236	3894.72
609.432	3833.29
609.628	4089.28
609.824	4126.15
610.019	4165.06
610.215	4332.99
610.411	4597.18
610.606	4611.51
610.802	4634.04
610.998	4851.13
611.193	4976.05
611.389	4937.14
611.584	5250.48
611.78	5125.55
611.976	5369.26
612.171	5770.66
612.367	5842.34
612.562	5907.88
612.758	5914.02
612.953	6122.91
613.149	6329.76
613.344	6372.77
613.539	6667.67
613.735	7005.59
613.93	7048.6
614.126	7216.53
614.321	7261.59
614.517	7638.41
614.712	7749
614.907	7953.8
615.103	8162.69
615.298	8174.98
615.493	8537.47
615.688	8668.54
615.884	9061.75
616.079	9080.18
616.274	9479.54
616.47	9629.04
616.665	10122.6
616.86	10282.34
617.055	10198.37
617.25	10452.32
617.445	11021.66
617.641	11324.76
617.836	11494.74
618.031	11408.72
618.226	12166.47
618.421	12176.71
618.616	12649.79
618.811	13004.09
619.006	13002.04
619.201	13294.9
619.396	13749.55
619.591	13671.73
619.786	14466.34
619.981	14566.69
620.176	14933.28
620.371	15093.02
620.566	15588.63
620.761	15994.12
620.956	16538.88
621.151	16450.82
621.346	16661.76
621.541	16846.08
621.735	17556.72
621.93	17595.64
622.125	18015.47
622.32	18332.9
622.515	18713.83
622.709	18889.95
622.904	19629.27
623.099	19836.11
623.294	20387.02
623.488	20391.11
623.683	20767.94
623.878	20882.63
624.072	21798.07
624.267	21877.94
624.462	22189.23
624.656	22146.22
624.851	22852.77
625.046	22906.02
625.24	23516.31
625.435	23846.04
625.629	24124.56
625.824	24773.77
626.018	24904.84
626.213	24468.62
626.407	25433.21
626.602	25416.83
626.796	25805.94
626.991	26236.02
627.185	26063.99
627.38	26291.31
627.574	26840.17
627.768	26584.17
627.963	26778.73
628.157	26879.08
628.352	27352.16
628.546	26739.82
628.74	27538.52
628.935	27010.15
629.129	27393.12
629.323	26780.78
629.517	26901.61
629.712	26743.91
629.906	26643.56
630.1	26252.4
630.294	26256.5
630.489	25767.03
630.683	26000.5
630.877	25048.19
631.071	24716.42
631.265	24376.46
631.459	23862.42
631.653	23227.55
631.848	23032.99
632.042	22531.24
632.236	22060.21
632.43	21349.56
632.624	21130.43
632.818	20255.95
633.012	19580.12
633.206	18824.42
633.4	18705.63
633.594	17552.63
633.788	17143.03
633.982	16805.12
634.176	16329.99
634.369	15412.5
634.563	14845.21
634.757	14427.43
634.951	14222.63
635.145	13454.64
635.339	12756.29
635.533	12492.1
635.726	11844.94
635.92	11416.91
636.114	10886.49
636.308	10413.41
636.501	10296.67
636.695	9796.97
636.889	9440.62
637.083	8967.54
637.276	8598.91
637.47	8131.97
637.664	7898.5
637.857	7617.93
638.051	7179.67
638.244	7087.51
638.438	6757.78
638.632	6575.52
638.825	6155.68
639.019	6159.78
639.212	5674.41
639.406	5672.36
639.599	5322.16
639.793	5113.27
639.986	4898.23
640.18	4715.96
640.373	4488.64
640.567	4226.5
640.76	4382.14
640.954	4003.27
641.147	3864.01
641.34	3618.25
641.534	3538.38
641.727	3569.1
641.92	3276.24
642.114	3206.61
642.307	3104.21
642.5	2993.62
642.694	2745.81
642.887	2729.43
643.08	2739.67
643.273	2637.27
643.467	2557.4
643.66	2278.88
643.853	2350.56
644.046	2184.67
644.239	2127.33
644.432	2010.59
644.626	1869.28
644.819	1762.79
645.012	1824.23
645.205	1740.26
645.398	1801.7
645.591	1682.92
645.784	1533.42
645.977	1439.21
646.17	1496.55
646.363	1330.67
646.556	1211.89
646.749	1172.97
646.942	1244.65
647.135	1248.75
647.328	1103.34
647.521	1062.38
647.714	1172.97
647.907	1066.48
648.099	843.25
648.292	1060.34
648.485	937.46
648.678	923.12
648.871	826.87
649.064	873.97
649.256	767.48
649.449	644.6
649.642	669.17
649.835	630.26
650.027	679.41
650.22	744.95
650.413	572.92
650.605	740.85
650.798	538.1
650.991	572.92
651.183	589.3
651.376	552.44
651.568	570.87
651.761	495.1
651.954	517.62
652.146	480.76
652.339	540.15
652.531	548.34
652.724	392.7
652.916	423.42
653.109	335.35
653.301	355.83
653.494	431.61
653.686	327.16
653.879	464.38
654.071	357.88
654.263	333.31
654.456	290.3
654.648	349.69
654.84	341.5
655.033	284.16
655.225	382.46
655.417	216.57
655.61	372.22
655.802	366.07
655.994	361.98
656.186	204.28
656.379	220.67
656.571	210.43
656.763	218.62
656.955	214.52
657.148	318.97
657.34	355.83
657.532	208.38
657.724	245.24
657.916	218.62
658.108	251.39
658.3	302.59
658.492	255.48
658.684	202.24
658.876	230.91
659.068	155.13
659.26	118.27
659.452	144.89
659.644	216.57
659.836	351.74
660.028	261.63
660.22	179.71
660.412	173.57
660.604	222.72
660.796	130.56
660.988	247.29
661.18	183.81
661.372	241.15
661.563	216.57
661.755	196.09
661.947	148.99
662.139	89.6
662.331	114.17
662.522	228.86
662.714	122.37
662.906	71.17
663.097	228.86
663.289	122.37
663.481	40.45
663.673	204.28
663.864	89.6
664.056	140.8
664.247	87.55
664.439	175.61
664.631	237.05
664.822	189.95
665.014	200.19
665.205	181.76
665.397	196.09
665.588	130.56
665.78	212.48
665.971	155.13
666.163	128.51
666.354	140.8
666.546	89.6
666.737	83.45
666.929	114.17
667.12	148.99
667.311	192
667.503	159.23
667.694	175.61
667.885	163.33
668.077	157.18
668.268	122.37
668.459	144.89
668.651	167.42
668.842	208.38
669.033	-6.66
669.224	75.26
669.416	294.4
669.607	163.33
669.798	69.12
669.989	194.05
670.18	142.85
670.371	153.09
670.563	79.36
670.754	300.54
670.945	202.24
671.136	122.37
671.327	103.93
671.518	249.34
671.709	263.68
671.9	267.77
672.091	224.76
672.282	179.71
672.473	269.82
672.664	114.17
672.855	146.94
673.046	253.44
673.237	263.68
673.428	142.85
673.619	230.91
673.809	134.65
674	278.01
674.191	341.5
674.382	241.15
674.573	142.85
674.764	171.52
674.954	269.82
675.145	144.89
675.336	177.66
675.527	216.57
675.717	261.63
675.908	206.33
676.099	171.52
676.289	339.45
676.48	159.23
676.671	228.86
676.861	214.52
677.052	290.3
677.243	247.29
677.433	218.62
677.624	364.03
677.814	308.73
678.005	308.73
678.195	300.54
678.386	269.82
678.576	253.44
678.767	142.85
678.957	310.78
679.148	304.64
679.338	415.23
679.529	257.53
679.719	265.72
679.909	337.4
680.1	300.54
680.29	335.35
680.481	269.82
680.671	339.45
680.861	321.02
681.052	327.16
681.242	280.06
681.432	376.31
681.622	392.7
681.813	343.55
682.003	335.35
682.193	312.83
682.383	382.46
682.573	333.31
682.764	390.65
682.954	310.78
683.144	464.38
683.334	331.26
683.524	361.98
683.714	400.89
683.904	366.07
684.094	374.27
684.284	353.79
684.474	390.65
684.664	388.6
684.854	392.7
685.044	351.74
685.234	392.7
685.424	480.76
685.614	413.18
685.804	480.76
685.994	466.42
686.184	413.18
686.374	392.7
686.564	349.69
686.753	439.8
686.943	345.59
687.133	433.66
687.323	355.83
687.513	482.81
687.702	400.89
687.892	435.71
688.082	482.81
688.272	372.22
688.461	370.17
688.651	445.95
688.841	417.27
689.03	355.83
689.22	413.18
689.41	517.62
689.599	323.07
689.789	335.35
689.979	482.81
690.168	382.46
690.358	298.49
690.547	382.46
690.737	374.27
690.926	314.88
691.116	357.88
691.305	482.81
691.495	341.5
691.684	316.92
691.874	351.74
692.063	372.22
692.252	435.71
692.442	441.85
692.631	331.26
692.82	361.98
693.01	400.89
693.199	392.7
693.388	450.04
693.578	368.12
693.767	339.45
693.956	341.5
694.146	316.92
694.335	443.9
694.524	386.55
694.713	480.76
694.902	300.54
695.092	288.25
695.281	306.68
695.47	316.92
695.659	271.87
695.848	228.86
696.037	192
696.226	372.22
696.415	355.83
696.604	343.55
696.793	364.03
696.982	294.4
697.171	437.75
697.36	263.68
697.549	310.78
697.738	208.38
697.927	294.4
698.116	351.74
698.305	411.13
698.494	388.6
698.683	286.2
698.872	368.12
699.061	306.68
699.25	235
699.438	310.78
699.627	253.44
699.816	400.89
700.005	179.71
700.193	206.33
700.382	296.44
700.571	290.3
700.76	353.79
700.948	413.18
701.137	327.16
701.326	288.25
701.514	218.62
701.703	333.31
701.892	327.16
702.08	431.61
702.269	267.77
702.457	210.43
702.646	359.93
702.834	280.06
703.023	364.03
703.212	273.92
703.4	345.59
703.589	269.82
703.777	296.44
703.965	187.9
704.154	235
704.342	247.29
704.531	269.82
704.719	294.4
704.907	419.32
705.096	224.76
705.284	183.81
705.472	255.48
705.661	302.59
705.849	349.69
706.037	335.35
706.226	368.12
706.414	310.78
706.602	263.68
706.79	327.16
706.979	232.96
707.167	310.78
707.355	155.13
707.543	288.25
707.731	364.03
707.919	259.58
708.107	206.33
708.296	214.52
708.484	196.09
708.672	278.01
708.86	327.16
709.048	267.77
709.236	232.96
709.424	284.16
709.612	280.06
709.8	259.58
709.988	267.77
710.176	400.89
710.364	419.32
710.551	294.4
710.739	296.44
710.927	294.4
711.115	306.68
711.303	417.27
711.491	388.6
711.679	130.56
711.866	253.44
712.054	292.35
712.242	333.31
712.43	445.95
712.617	220.67
712.805	355.83
712.993	265.72
713.181	192
713.368	364.03
713.556	290.3
713.744	220.67
713.931	384.51
714.119	351.74
714.306	261.63
714.494	226.81
714.682	257.53
714.869	216.57
715.057	368.12
715.244	230.91
715.432	382.46
715.619	278.01
715.807	325.12
715.994	286.2
716.182	364.03
716.369	337.4
716.556	394.75
716.744	235
716.931	208.38
717.119	290.3
717.306	323.07
717.493	347.64
717.681	230.91
717.868	228.86
718.055	351.74
718.242	351.74
718.43	327.16
718.617	402.94
718.804	269.82
718.991	380.41
719.179	275.96
719.366	376.31
719.553	308.73
719.74	359.93
719.927	382.46
720.114	331.26
720.301	275.96
720.488	290.3
720.676	339.45
720.863	452.09
721.05	499.19
721.237	314.88
721.424	341.5
721.611	351.74
721.798	288.25
721.985	343.55
722.172	359.93
722.358	368.12
722.545	493.05
722.732	372.22
722.919	364.03
723.106	409.08
723.293	376.31
723.48	376.31
723.667	329.21
723.853	427.51
724.04	351.74
724.227	456.19
724.414	333.31
724.6	484.86
724.787	347.64
724.974	499.19
725.161	321.02
725.347	290.3
725.534	462.33
725.72	488.95
725.907	415.23
726.094	470.52
726.28	290.3
726.467	390.65
726.653	343.55
726.84	519.67
727.027	482.81
727.213	355.83
727.4	364.03
727.586	398.84
727.773	435.71
727.959	396.79
728.145	429.56
728.332	507.38
728.518	370.17
728.705	417.27
728.891	439.8
729.077	407.03
729.264	366.07
729.45	433.66
729.636	437.75
729.823	409.08
730.009	507.38
730.195	396.79
730.382	505.34
730.568	331.26
730.754	439.8
730.94	355.83
731.126	472.57
731.313	491
731.499	312.83
731.685	474.62
731.871	519.67
732.057	466.42
732.243	564.73
732.429	474.62
732.615	566.78
732.801	577.02
732.987	425.47
733.173	470.52
733.359	374.27
733.545	497.14
733.731	486.9
733.917	558.58
734.103	470.52
734.289	445.95
734.475	425.47
734.661	671.22
734.847	472.57
735.033	443.9
735.219	507.38
735.404	439.8
735.59	513.53
735.776	513.53
735.962	540.15
736.148	509.43
736.333	560.63
736.519	601.59
736.705	550.39
736.89	495.1
737.076	597.49
737.262	445.95
737.447	454.14
737.633	523.77
737.819	622.07
738.004	421.37
738.19	462.33
738.375	568.82
738.561	521.72
738.747	509.43
738.932	392.7
739.118	660.98
739.303	613.88
739.489	456.19
739.674	437.75
739.859	425.47
740.045	550.39
740.23	538.1
740.416	458.23
740.601	554.49
740.786	527.86
740.972	495.1
741.157	531.96
741.342	482.81
741.528	456.19
741.713	577.02
741.898	480.76
742.084	452.09
742.269	456.19
742.454	513.53
742.639	495.1
742.824	390.65
743.01	628.21
743.195	597.49
743.38	480.76
743.565	480.76
743.75	589.3
743.935	507.38
744.12	599.54
744.305	359.93
744.49	421.37
744.675	556.54
744.86	404.99
745.045	617.97
745.23	482.81
745.415	466.42
745.6	554.49
745.785	417.27
745.97	470.52
746.155	484.86
746.34	577.02
746.525	474.62
746.71	540.15
746.895	359.93
747.079	392.7
747.264	472.57
747.449	409.08
747.634	525.82
747.819	507.38
748.003	466.42
748.188	441.85
748.373	488.95
748.557	497.14
748.742	400.89
748.927	421.37
749.111	450.04
749.296	447.99
749.481	546.3
749.665	400.89
749.85	407.03
750.034	482.81
750.219	425.47
750.404	409.08
750.588	478.71
750.773	316.92
750.957	386.55
751.141	482.81
751.326	509.43
751.51	376.31
751.695	382.46
751.879	341.5
752.064	450.04
752.248	441.85
752.432	517.62
752.617	450.04
752.801	509.43
752.985	374.27
753.17	452.09
753.354	398.84
753.538	456.19
753.722	359.93
753.907	419.32
754.091	382.46
754.275	394.75
754.459	302.59
754.643	314.88
754.828	384.51
755.012	419.32
755.196	294.4
755.38	394.75
755.564	411.13
755.748	366.07
755.932	454.14
756.116	433.66
756.3	507.38
756.484	247.29
756.668	372.22
756.852	249.34
757.036	439.8
757.22	441.85
757.404	316.92
757.588	361.98
757.772	404.99
757.956	259.58
758.14	439.8
758.323	214.52
758.507	359.93
758.691	310.78
758.875	439.8
759.059	439.8
759.242	228.86
759.426	232.96
759.61	331.26
759.794	269.82
759.977	366.07
760.161	419.32
760.345	355.83
760.528	353.79
760.712	273.92
760.895	325.12
761.079	243.2
761.263	278.01
761.446	204.28
761.63	294.4
761.813	353.79
761.997	243.2
762.18	255.48
762.364	286.2
762.547	220.67
762.731	273.92
762.914	275.96
763.098	302.59
763.281	208.38
763.464	212.48
763.648	218.62
763.831	187.9
764.015	192
764.198	300.54
764.381	226.81
764.564	257.53
764.748	245.24
764.931	257.53
765.114	212.48
765.297	288.25
765.481	210.43
765.664	208.38
765.847	142.85
766.03	321.02
766.213	228.86
766.397	204.28
766.58	192
766.763	339.45
766.946	235
767.129	235
767.312	148.99
767.495	226.81
767.678	208.38
767.861	239.1
768.044	179.71
768.227	251.39
768.41	187.9
768.593	208.38
768.776	194.05
768.959	212.48
769.142	241.15
769.324	181.76
769.507	196.09
769.69	161.28
769.873	243.2
770.056	243.2
770.239	208.38
770.421	288.25
770.604	253.44
770.787	206.33
770.97	138.75
771.152	138.75
771.335	245.24
771.518	118.27
771.7	204.28
771.883	263.68
772.066	155.13
772.248	204.28
772.431	212.48
772.613	204.28
772.796	204.28
772.978	185.85
773.161	265.72
773.343	112.13
773.526	171.52
773.708	105.98
773.891	77.31
774.073	128.51
774.256	110.08
774.438	278.01
774.621	155.13
774.803	216.57
774.985	71.17
775.168	169.47
775.35	87.55
775.532	208.38
775.715	159.23
775.897	120.32
776.079	108.03
776.261	183.81
776.444	99.84
776.626	112.13
776.808	194.05
776.99	-8.7
777.173	108.03
777.355	157.18
777.537	138.75
777.719	144.89
777.901	56.83
778.083	105.98
778.265	101.89
778.447	192
778.629	52.74
778.811	132.61
778.993	112.13
779.175	130.56
779.357	155.13
779.539	112.13
779.721	169.47
779.903	95.74
780.085	122.37
780.267	128.51
780.449	91.65
780.631	163.33
780.812	194.05
780.994	105.98
781.176	118.27
781.358	48.64
781.54	101.89
781.721	128.51
781.903	175.61
782.085	40.45
782.267	132.61
782.448	32.26
782.63	146.94
782.812	159.23
782.993	110.08
783.175	120.32
783.357	85.5
783.538	13.82
783.72	24.06
783.901	87.55
784.083	153.09
784.264	105.98
784.446	7.68
784.627	22.02
784.809	114.17
784.99	62.98
785.172	95.74
785.353	65.02
785.535	62.98
785.716	48.64
785.897	5.63
786.079	44.54
786.26	79.36
786.441	105.98
786.623	-125.44
786.804	71.17
786.985	130.56
787.167	114.17
787.348	60.93
787.529	62.98
787.71	136.7
787.891	108.03
788.073	97.79
788.254	30.21
788.435	261.63
788.616	32.26
788.797	26.11
788.978	62.98
789.159	-45.57
789.34	146.94
789.522	79.36
789.703	62.98
789.884	103.93
790.065	83.45
790.246	153.09
790.427	24.06
790.607	114.17
790.788	212.48
790.969	58.88
791.15	30.21
791.331	26.11
791.512	-20.99
791.693	-0.51
791.874	-2.56
792.054	198.14
792.235	81.41
792.416	-16.9
792.597	124.41
792.778	67.07
792.958	36.35
793.139	85.5
793.32	85.5
793.5	15.87
793.681	134.65
793.862	73.21
794.042	60.93
794.223	-49.66
794.404	73.21
794.584	-98.81
794.765	46.59
794.945	40.45
795.126	142.85
795.306	177.66
795.487	-18.94
795.667	52.74
795.848	26.11
796.028	56.83
796.209	36.35
796.389	134.65
796.57	-16.9
796.75	3.58
796.93	7.68
797.111	22.02
797.291	103.93
797.471	71.17
797.652	-4.61
797.832	-41.47
798.012	126.46
798.192	-25.09
798.373	-74.24
798.553	-16.9
798.733	73.21
798.913	5.63
799.093	46.59
799.274	91.65
799.454	32.26
799.634	60.93
799.814	108.03
799.994	69.12
800.174	32.26
800.354	34.3
800.534	-4.61
800.714	50.69
800.894	-66.05
801.074	-43.52
801.254	-10.75
801.434	99.84
801.614	19.97
801.794	-43.52
801.974	1644.01
802.154	-16.9
802.334	181.76
802.514	48.64
802.693	60.93
802.873	11.78
803.053	69.12
803.233	54.78
803.413	-23.04
803.592	38.4
803.772	-80.38
803.952	15.87
804.131	-39.42
804.311	87.55
804.491	97.79
804.67	-10.75
804.85	5.63
805.03	93.69
805.209	62.98
805.389	13.82
805.568	7.68
805.748	1.54
805.928	-35.33
806.107	5.63
806.287	56.83
806.466	17.92
806.646	-49.66
806.825	73.21
807.004	62.98
807.184	38.4
807.363	54.78
807.543	48.64
807.722	-0.51
807.901	126.46
808.081	93.69
808.26	-23.04
808.439	-43.52
808.619	-0.51
808.798	-66.05
808.977	9.73
809.156	122.37
809.336	52.74
809.515	77.31
809.694	-45.57
809.873	1.54
810.052	58.88
810.231	-2.56
810.411	-45.57
810.59	19.97
810.769	32.26
810.948	93.69
811.127	-131.58
811.306	-0.51
811.485	-55.81
811.664	192
811.843	13.82
812.022	32.26
812.201	-0.51
812.38	69.12
812.559	-37.38
812.737	134.65
812.916	-64
813.095	-139.77
813.274	-41.47
813.453	42.5
813.632	40.45
813.811	58.88
813.989	-29.18
814.168	13.82
814.347	-90.62
814.526	44.54
814.704	97.79
814.883	132.61
815.062	9.73
815.24	65.02
815.419	-25.09
815.598	50.69
815.776	-102.91
815.955	5.63
816.133	-74.24
816.312	1.54
816.49	89.6
816.669	48.64
816.847	44.54
817.026	5.63
817.204	-4.61
817.383	-10.75
817.561	-78.33
817.74	46.59
817.918	-2.56
818.097	-12.8
818.275	-12.8
818.453	24.06
818.632	19.97
818.81	-18.94
818.988	32.26
819.167	-29.18
819.345	34.3
819.523	-16.9
819.701	-39.42
819.879	81.41
820.058	28.16
820.236	44.54
820.414	-41.47
820.592	-23.04
820.77	-29.18
820.948	28.16
821.127	-12.8
821.305	95.74
821.483	24.06
821.661	155.13
821.839	73.21
822.017	-64
822.195	-10.75
822.373	105.98
822.551	56.83
822.729	65.02
822.907	-102.91
823.085	101.89
823.262	44.54
823.44	-25.09
823.618	-37.38
823.796	-37.38
823.974	-37.38
824.152	-41.47
824.329	-51.71
824.507	89.6
824.685	114.17
824.863	-2.56
825.04	54.78
825.218	42.5
825.396	-33.28
825.574	15.87
825.751	-25.09
825.929	32.26
826.107	-0.51
826.284	-16.9
826.462	114.17
826.639	-131.58
826.817	-41.47
826.994	97.79
827.172	-27.14
827.349	120.32
827.527	101.89
827.704	77.31
827.882	54.78
828.059	-33.28
828.237	5.63
828.414	54.78
828.591	-92.67
828.769	13.82
828.946	-64
829.124	40.45
829.301	67.07
829.478	28.16
829.655	73.21
829.833	-12.8
830.01	-111.1
830.187	126.46
830.364	11.78
830.542	19.97
830.719	89.6
830.896	-0.51
831.073	71.17
831.25	22.02
831.427	19.97
831.604	-23.04
831.782	-37.38
831.959	26.11
832.136	-6.66
832.313	15.87
832.49	-8.7
832.667	62.98
832.844	-27.14
833.021	103.93
833.198	1.54
833.374	-47.62
833.551	32.26
833.728	81.41
833.905	73.21
834.082	-111.1
834.259	-20.99
834.436	56.83
834.612	-16.9
834.789	32.26
834.966	13.82
835.143	38.4
835.319	5.63
835.496	87.55
835.673	62.98
835.85	50.69
836.026	62.98
836.203	28.16
836.38	17.92
836.556	-76.29
836.733	-4.61
836.909	153.09
837.086	-10.75
837.262	-0.51
837.439	24.06
837.616	-41.47
837.792	-74.24
837.968	5.63
838.145	-84.48
838.321	-20.99
838.498	26.11
838.674	3.58
838.851	32.26
839.027	-115.2
839.203	5.63
839.38	40.45
839.556	-47.62
839.732	52.74
839.909	-0.51
840.085	40.45
840.261	38.4
840.437	71.17
840.614	-33.28
840.79	-10.75
840.966	7.68
841.142	24.06
841.318	-98.81
841.494	5.63
841.671	36.35
841.847	-66.05
842.023	-123.39
842.199	-6.66
842.375	50.69
842.551	-111.1
842.727	34.3
842.903	118.27
843.079	-57.86
843.255	97.79
843.431	54.78
843.607	48.64
843.783	-176.64
843.959	19.97
844.134	-72.19
844.31	87.55
844.486	-12.8
844.662	3.58
844.838	15.87
845.013	34.3
845.189	71.17
845.365	62.98
845.541	32.26
845.716	-8.7
845.892	32.26
846.068	-41.47
846.244	-39.42
846.419	32.26
846.595	1.54
846.77	-123.39
846.946	7.68
847.122	-6.66
847.297	-33.28
847.473	56.83
847.648	-98.81
847.824	5.63
847.999	-104.96
848.175	-92.67
848.35	-2.56
848.526	89.6
848.701	157.18
848.876	91.65
849.052	73.21
849.227	22.02
849.403	-16.9
849.578	28.16
849.753	28.16
849.929	87.55
850.104	-90.62
850.279	-20.99
850.454	24.06
850.63	42.5
850.805	7.68
850.98	-35.33
851.155	13.82
851.33	71.17
851.505	-96.77
851.681	122.37
851.856	-16.9
852.031	5.63
852.206	26.11
852.381	-41.47
852.556	-2.56
852.731	15.87
852.906	42.5
853.081	-8.7
853.256	142.85
853.431	-8.7
853.606	-76.29
853.781	-82.43
853.956	-74.24
854.131	7.68
854.305	1.54
854.48	-23.04
854.655	-53.76
854.83	-12.8
855.005	-41.47
855.18	101.89
855.354	-37.38
855.529	85.5
855.704	-33.28
855.879	22.02
856.053	-109.05
856.228	-8.7
856.403	-57.86
856.577	32.26
856.752	-92.67
856.926	5.63
857.101	5.63
857.276	-35.33
857.45	24.06
857.625	69.12
857.799	-37.38
857.974	-2.56
858.148	-43.52
858.323	30.21
858.497	-43.52
858.672	-92.67
858.846	-107.01
859.02	17.92
859.195	-78.33
859.369	15.87
859.543	32.26
859.718	17.92
859.892	-4.61
860.066	44.54
860.241	-4.61
860.415	-20.99
860.589	13.82
860.763	26.11
860.938	7.68
861.112	-8.7
861.286	-8.7
861.46	91.65
861.634	-45.57
861.808	60.93
861.982	-31.23
862.157	-41.47
862.331	-45.57
862.505	-98.81
862.679	-31.23
862.853	-25.09
863.027	58.88
863.201	122.37
863.375	-4.61
863.549	7.68
863.722	-14.85
863.896	112.13
864.07	-90.62
864.244	-18.94
864.418	58.88
864.592	-66.05
864.766	24.06
864.939	40.45
865.113	32.26
865.287	-10.75
865.461	-39.42
865.634	-23.04
865.808	-23.04
865.982	-53.76
866.156	-41.47
866.329	-129.53
866.503	-12.8
866.676	69.12
866.85	5.63
867.024	-66.05
867.197	46.59
867.371	32.26
867.544	52.74
867.718	-72.19
867.891	114.17
868.065	-86.53
868.238	-18.94
868.412	101.89
868.585	19.97
868.759	-49.66
868.932	1.54
869.105	-53.76
869.279	-49.66
869.452	-107.01
869.625	9.73
869.799	-12.8
869.972	-35.33
870.145	-16.9
870.319	11.78
870.492	-0.51
870.665	-12.8
870.838	-113.15
871.011	-100.86
871.185	38.4
871.358	-66.05
871.531	44.54
871.704	-98.81
871.877	7.68
872.05	-57.86
872.223	15.87
872.396	81.41
872.569	36.35
872.742	-35.33
872.915	9.73
873.088	-61.95
873.261	-8.7
873.434	15.87
873.607	-41.47
873.78	69.12
873.953	-141.82
874.126	-49.66
874.299	7.68
874.471	65.02
874.644	-10.75
874.817	-2.56
874.99	110.08
875.163	11.78
875.335	24.06
875.508	9.73
875.681	114.17
875.853	-12.8
876.026	-14.85
876.199	71.17
876.371	30.21
876.544	15.87
876.717	73.21
876.889	-41.47
877.062	40.45
877.234	-119.29
877.407	-49.66
877.579	-35.33
877.752	-35.33
877.924	134.65
878.097	19.97
878.269	-117.25
878.442	28.16
878.614	11.78
878.786	52.74
878.959	-43.52
879.131	-4.61
879.303	-111.1
879.476	-51.71
879.648	89.6
879.82	-27.14
879.993	-49.66
880.165	-45.57
880.337	-41.47
880.509	-107.01
880.681	-78.33
880.854	-41.47
881.026	-16.9
881.198	13.82
881.37	-49.66
881.542	65.02
881.714	-33.28
881.886	-12.8
882.058	3.58
882.23	-14.85
882.402	11.78
882.574	3.58
882.746	-0.51
882.918	105.98
883.09	110.08
883.262	3.58
883.434	30.21
883.606	-20.99
883.778	-2.56
883.95	116.22
884.122	-23.04
884.293	89.6
884.465	30.21
884.637	-0.51
884.809	-47.62
884.98	-33.28
885.152	62.98
885.324	36.35
885.496	-53.76
885.667	-18.94
885.839	-25.09
886.011	5.63
886.182	46.59
886.354	7.68
886.525	24.06
886.697	54.78
886.869	-102.91
887.04	11.78
887.212	38.4
887.383	52.74
887.555	5.63
887.726	-14.85
887.897	-47.62
888.069	-51.71
888.24	22.02
888.412	22.02
888.583	-33.28
888.754	-23.04
888.926	-74.24
889.097	-0.51
889.268	-90.62
889.44	9.73
889.611	-43.52
889.782	-72.19
889.953	-59.9
890.125	62.98
890.296	-111.1
890.467	-82.43
890.638	-51.71
890.809	-25.09
890.98	-51.71
891.151	15.87
891.323	13.82
891.494	22.02
891.665	-45.57
891.836	50.69
892.007	-33.28
892.178	-98.81
892.349	50.69
892.52	-45.57
892.691	-10.75
892.862	-25.09
893.032	-152.06
893.203	-0.51
893.374	19.97
893.545	87.55
893.716	-10.75
893.887	69.12
894.057	-10.75
894.228	-43.52
894.399	-6.66
894.57	65.02
894.74	-66.05
894.911	58.88
895.082	15.87
895.253	-66.05
895.423	56.83
895.594	3.58
895.764	-14.85
895.935	-121.34
896.106	-82.43
896.276	-16.9
896.447	-49.66
896.617	15.87
896.788	-0.51
896.958	3.58
897.129	-82.43
897.299	-33.28
897.47	52.74
897.64	-12.8
897.81	-23.04
897.981	103.93
898.151	-20.99
898.322	65.02
898.492	83.45
898.662	-45.57
898.832	-8.7
899.003	-4.61
899.173	5.63
899.343	-72.19
899.513	-111.1
