Data from USB4F104151__70__11-31-00-964.txt Node

Date: Wed Feb 26 11:31:00 EST 2025
User: louis
Spectrometer: USB4F10415
Trigger mode: 4
Integration Time (sec): 1.000000E-1
Scans to average: 1
Electric dark correction enabled: true
Nonlinearity correction enabled: false
Boxcar width: 0
XAxis mode: Wavelengths
Number of Pixels in Spectrum: 3648
>>>>>Begin Spectral Data<<<<<
178.204	-438.44
178.424	-438.44
178.644	-438.44
178.864	-399.52
179.084	-389.28
179.304	-26.79
179.524	14.17
179.744	-4.27
179.964	40.79
180.184	51.03
180.404	-10.41
180.624	-59.56
180.844	-0.17
181.064	40.79
181.283	-34.99
181.503	-41.13
181.723	30.55
181.943	-77.99
182.163	190.29
182.383	-47.27
182.602	104.28
182.822	40.79
183.042	44.88
183.262	-73.9
183.482	-43.18
183.701	46.93
183.921	3.93
184.141	12.12
184.361	42.84
184.58	46.93
184.8	51.03
185.02	-41.13
185.239	114.52
185.459	55.12
185.679	165.71
185.898	-20.65
186.118	53.08
186.338	59.22
186.557	8.02
186.777	-73.9
186.997	-59.56
187.216	-34.99
187.436	184.15
187.655	87.89
187.875	104.28
188.095	106.32
188.314	61.27
188.534	147.28
188.753	-6.31
188.973	61.27
189.192	165.71
189.412	-2.22
189.631	75.6
189.851	26.45
190.07	59.22
190.29	-55.47
190.509	3.93
190.729	51.03
190.948	196.43
191.168	198.48
191.387	79.7
191.607	-63.66
191.826	61.27
192.045	1.88
192.265	-10.41
192.484	114.52
192.704	44.88
192.923	-65.71
193.142	141.14
193.362	81.75
193.581	137.04
193.8	106.32
194.02	71.51
194.239	44.88
194.458	91.99
194.678	-14.51
194.897	34.64
195.116	53.08
195.335	46.93
195.555	34.64
195.774	-28.84
195.993	110.42
196.212	51.03
196.432	-8.36
196.651	-63.66
196.87	36.69
197.089	147.28
197.308	83.8
197.528	12.12
197.747	-12.46
197.966	55.12
198.185	96.08
198.404	-26.79
198.623	89.94
198.842	79.7
199.062	102.23
199.281	89.94
199.5	87.89
199.719	30.55
199.938	34.64
200.157	28.5
200.376	67.41
200.595	118.61
200.814	104.28
201.033	-16.55
201.252	77.65
201.471	51.03
201.69	145.24
201.909	55.12
202.128	69.46
202.347	55.12
202.566	-63.66
202.785	-53.42
203.004	-22.7
203.223	159.57
203.442	-51.37
203.661	-41.13
203.879	-2.22
204.098	153.43
204.317	-80.04
204.536	96.08
204.755	63.32
204.974	26.45
205.193	28.5
205.411	94.04
205.63	69.46
205.849	36.69
206.068	-6.31
206.287	-28.84
206.505	81.75
206.724	-55.47
206.943	-39.08
207.162	-63.66
207.381	57.17
207.599	30.55
207.818	-14.51
208.037	1.88
208.255	-14.51
208.474	59.22
208.693	40.79
208.911	-16.55
209.13	73.56
209.349	26.45
209.567	147.28
209.786	18.26
210.005	112.47
210.223	20.31
210.442	-155.82
210.661	22.36
210.879	77.65
211.098	63.32
211.316	91.99
211.535	12.12
211.753	51.03
211.972	110.42
212.191	-88.23
212.409	3.93
212.628	83.8
212.846	-14.51
213.065	51.03
213.283	83.8
213.502	65.36
213.72	59.22
213.938	-8.36
214.157	42.84
214.375	161.62
214.594	-61.61
214.812	55.12
215.031	-6.31
215.249	40.79
215.467	10.07
215.686	36.69
215.904	30.55
216.122	26.45
216.341	81.75
216.559	73.56
216.778	87.89
216.996	67.41
217.214	59.22
217.432	12.12
217.651	-61.61
217.869	5.97
218.087	112.47
218.306	1.88
218.524	48.98
218.742	-0.17
218.96	42.84
219.179	-53.42
219.397	1.88
219.615	194.39
219.833	83.8
220.051	-37.03
220.27	63.32
220.488	112.47
220.706	30.55
220.924	14.17
221.142	-67.75
221.36	34.64
221.578	38.74
221.796	-2.22
222.015	46.93
222.233	8.02
222.451	155.47
222.669	24.4
222.887	63.32
223.105	-26.79
223.323	-26.79
223.541	-77.99
223.759	34.64
223.977	106.32
224.195	96.08
224.413	87.89
224.631	51.03
224.849	38.74
225.067	200.53
225.285	14.17
225.503	22.36
225.721	-86.19
225.939	5.97
226.157	69.46
226.375	139.09
226.592	-30.89
226.81	38.74
227.028	75.6
227.246	28.5
227.464	26.45
227.682	22.36
227.9	63.32
228.117	44.88
228.335	59.22
228.553	44.88
228.771	-6.31
228.989	108.37
229.206	22.36
229.424	-28.84
229.642	-28.84
229.86	12.12
230.077	130.9
230.295	1.88
230.513	120.66
230.731	38.74
230.948	135
231.166	169.81
231.384	-0.17
231.601	-28.84
231.819	178
232.037	-90.28
232.254	-39.08
232.472	-18.6
232.689	-73.9
232.907	135
233.125	20.31
233.342	30.55
233.56	38.74
233.777	-43.18
233.995	14.17
234.213	57.17
234.43	14.17
234.648	-59.56
234.865	42.84
235.083	104.28
235.3	96.08
235.518	71.51
235.735	87.89
235.953	75.6
236.17	22.36
236.388	-32.94
236.605	28.5
236.822	57.17
237.04	59.22
237.257	96.08
237.475	-14.51
237.692	20.31
237.909	-4.27
238.127	3.93
238.344	122.71
238.562	18.26
238.779	-45.23
238.996	-75.95
239.214	30.55
239.431	71.51
239.648	-67.75
239.865	55.12
240.083	135
240.3	-20.65
240.517	-26.79
240.735	114.52
240.952	126.8
241.169	128.85
241.386	51.03
241.603	-0.17
241.821	-45.23
242.038	81.75
242.255	151.38
242.472	-22.7
242.689	137.04
242.907	40.79
243.124	59.22
243.341	1.88
243.558	-32.94
243.775	-4.27
243.992	-106.67
244.209	100.18
244.426	173.91
244.643	48.98
244.86	-8.36
245.078	14.17
245.295	91.99
245.512	22.36
245.729	12.12
245.946	-37.03
246.163	8.02
246.38	38.74
246.597	44.88
246.814	24.4
247.031	42.84
247.248	30.55
247.464	48.98
247.681	-6.31
247.898	12.12
248.115	36.69
248.332	-39.08
248.549	132.95
248.766	106.32
248.983	112.47
249.2	22.36
249.417	53.08
249.633	12.12
249.85	-14.51
250.067	14.17
250.284	61.27
250.501	53.08
250.717	-0.17
250.934	-32.94
251.151	55.12
251.368	24.4
251.585	59.22
251.801	-26.79
252.018	-22.7
252.235	147.28
252.451	-6.31
252.668	48.98
252.885	89.94
253.102	98.13
253.318	69.46
253.535	26.45
253.752	14.17
253.968	-24.75
254.185	-18.6
254.401	53.08
254.618	100.18
254.835	-34.99
255.051	221.01
255.268	85.84
255.484	75.6
255.701	79.7
255.917	102.23
256.134	-108.71
256.351	-32.94
256.567	-32.94
256.784	-10.41
257	-114.86
257.217	57.17
257.433	69.46
257.65	59.22
257.866	55.12
258.082	-32.94
258.299	-63.66
258.515	30.55
258.732	-24.75
258.948	20.31
259.165	71.51
259.381	-24.75
259.597	83.8
259.814	3.93
260.03	-34.99
260.246	-12.46
260.463	8.02
260.679	94.04
260.895	81.75
261.112	10.07
261.328	-10.41
261.544	40.79
261.761	139.09
261.977	-32.94
262.193	-88.23
262.409	61.27
262.626	20.31
262.842	-12.46
263.058	18.26
263.274	53.08
263.49	28.5
263.707	83.8
263.923	89.94
264.139	-114.86
264.355	-18.6
264.571	141.14
264.787	83.8
265.004	139.09
265.22	-45.23
265.436	22.36
265.652	-45.23
265.868	-10.41
266.084	1.88
266.3	-16.55
266.516	-28.84
266.732	34.64
266.948	38.74
267.164	30.55
267.38	149.33
267.596	69.46
267.812	116.56
268.028	61.27
268.244	-69.8
268.46	32.6
268.676	-2.22
268.892	67.41
269.108	-43.18
269.324	-45.23
269.54	-51.37
269.756	118.61
269.972	-67.75
270.188	18.26
270.403	-30.89
270.619	24.4
270.835	59.22
271.051	24.4
271.267	-22.7
271.483	-65.71
271.698	114.52
271.914	65.36
272.13	87.89
272.346	-28.84
272.562	59.22
272.777	128.85
272.993	59.22
273.209	-22.7
273.425	73.56
273.64	-82.09
273.856	89.94
274.072	-41.13
274.287	34.64
274.503	75.6
274.719	143.19
274.934	-34.99
275.15	-51.37
275.366	65.36
275.581	-39.08
275.797	-71.85
276.012	5.97
276.228	1.88
276.444	81.75
276.659	182.1
276.875	75.6
277.09	46.93
277.306	38.74
277.521	-6.31
277.737	44.88
277.952	100.18
278.168	8.02
278.383	-12.46
278.599	20.31
278.814	20.31
279.03	-57.51
279.245	155.47
279.461	46.93
279.676	120.66
279.892	-41.13
280.107	-4.27
280.322	-14.51
280.538	-18.6
280.753	-18.6
280.969	77.65
281.184	5.97
281.399	51.03
281.615	61.27
281.83	44.88
282.045	-0.17
282.26	-43.18
282.476	26.45
282.691	63.32
282.906	5.97
283.122	22.36
283.337	-22.7
283.552	32.6
283.767	57.17
283.983	71.51
284.198	1.88
284.413	106.32
284.628	-18.6
284.843	73.56
285.058	124.76
285.274	-47.27
285.489	-55.47
285.704	132.95
285.919	-59.56
286.134	12.12
286.349	55.12
286.564	30.55
286.779	132.95
286.995	10.07
287.21	51.03
287.425	128.85
287.64	-51.37
287.855	51.03
288.07	-8.36
288.285	116.56
288.5	116.56
288.715	51.03
288.93	28.5
289.145	18.26
289.36	96.08
289.575	5.97
289.79	126.8
290.004	20.31
290.219	120.66
290.434	-30.89
290.649	-51.37
290.864	34.64
291.079	-16.55
291.294	67.41
291.509	61.27
291.724	-41.13
291.938	30.55
292.153	36.69
292.368	28.5
292.583	34.64
292.798	98.13
293.012	81.75
293.227	96.08
293.442	44.88
293.657	124.76
293.871	83.8
294.086	32.6
294.301	169.81
294.516	145.24
294.73	-8.36
294.945	-75.95
295.16	24.4
295.374	73.56
295.589	20.31
295.804	-12.46
296.018	67.41
296.233	147.28
296.447	28.5
296.662	12.12
296.877	141.14
297.091	85.84
297.306	-4.27
297.52	36.69
297.735	40.79
297.949	40.79
298.164	-67.75
298.378	81.75
298.593	-92.33
298.807	-57.51
299.022	59.22
299.236	110.42
299.451	-39.08
299.665	-12.46
299.88	36.69
300.094	32.6
300.309	-6.31
300.523	165.71
300.737	-16.55
300.952	83.8
301.166	81.75
301.381	-16.55
301.595	28.5
301.809	116.56
302.024	14.17
302.238	5.97
302.452	98.13
302.667	1.88
302.881	91.99
303.095	36.69
303.309	26.45
303.524	-20.65
303.738	14.17
303.952	-8.36
304.166	26.45
304.381	-55.47
304.595	126.8
304.809	8.02
305.023	12.12
305.237	-0.17
305.452	-22.7
305.666	8.02
305.88	53.08
306.094	55.12
306.308	32.6
306.522	79.7
306.736	75.6
306.95	96.08
307.164	3.93
307.379	-12.46
307.593	116.56
307.807	161.62
308.021	55.12
308.235	118.61
308.449	-86.19
308.663	10.07
308.877	184.15
309.091	44.88
309.305	120.66
309.519	-88.23
309.733	102.23
309.947	-123.05
310.161	126.8
310.374	104.28
310.588	75.6
310.802	-26.79
311.016	36.69
311.23	153.43
311.444	-24.75
311.658	-2.22
311.872	42.84
312.085	108.37
312.299	188.24
312.513	69.46
312.727	46.93
312.941	-4.27
313.154	61.27
313.368	-0.17
313.582	32.6
313.796	32.6
314.009	34.64
314.223	122.71
314.437	-8.36
314.651	48.98
314.864	-34.99
315.078	38.74
315.292	-73.9
315.505	-57.51
315.719	-6.31
315.933	51.03
316.146	3.93
316.36	-16.55
316.573	106.32
316.787	114.52
317.001	38.74
317.214	-6.31
317.428	40.79
317.641	-123.05
317.855	12.12
318.068	14.17
318.282	83.8
318.495	55.12
318.709	8.02
318.922	59.22
319.136	143.19
319.349	48.98
319.563	1.88
319.776	55.12
319.99	-32.94
320.203	55.12
320.417	42.84
320.63	83.8
320.843	155.47
321.057	98.13
321.27	16.21
321.483	53.08
321.697	106.32
321.91	77.65
322.124	44.88
322.337	77.65
322.55	-65.71
322.763	34.64
322.977	-55.47
323.19	-30.89
323.403	-24.75
323.617	57.17
323.83	77.65
324.043	-8.36
324.256	30.55
324.469	-26.79
324.683	137.04
324.896	32.6
325.109	-12.46
325.322	-47.27
325.535	55.12
325.748	110.42
325.962	-16.55
326.175	-24.75
326.388	16.21
326.601	108.37
326.814	65.36
327.027	55.12
327.24	122.71
327.453	-43.18
327.666	122.71
327.879	55.12
328.092	108.37
328.305	126.8
328.518	-37.03
328.731	-18.6
328.944	-10.41
329.157	75.6
329.37	24.4
329.583	153.43
329.796	102.23
330.009	-4.27
330.222	-10.41
330.435	53.08
330.648	55.12
330.861	18.26
331.073	55.12
331.286	161.62
331.499	63.32
331.712	-53.42
331.925	38.74
332.138	14.17
332.35	91.99
332.563	55.12
332.776	55.12
332.989	42.84
333.202	44.88
333.414	-0.17
333.627	59.22
333.84	-2.22
334.053	42.84
334.265	10.07
334.478	-69.8
334.691	16.21
334.903	3.93
335.116	79.7
335.329	-39.08
335.541	163.67
335.754	145.24
335.966	-41.13
336.179	57.17
336.392	36.69
336.604	1.88
336.817	51.03
337.029	61.27
337.242	38.74
337.454	63.32
337.667	51.03
337.88	100.18
338.092	18.26
338.305	106.32
338.517	-30.89
338.729	91.99
338.942	108.37
339.154	20.31
339.367	-22.7
339.579	124.76
339.792	12.12
340.004	132.95
340.217	-71.85
340.429	28.5
340.641	-65.71
340.854	1.88
341.066	20.31
341.278	85.84
341.491	198.48
341.703	83.8
341.915	65.36
342.128	91.99
342.34	24.4
342.552	-22.7
342.764	89.94
342.977	16.21
343.189	100.18
343.401	75.6
343.613	1.88
343.826	44.88
344.038	-34.99
344.25	55.12
344.462	12.12
344.674	22.36
344.886	-2.22
345.099	63.32
345.311	44.88
345.523	26.45
345.735	-114.86
345.947	69.46
346.159	51.03
346.371	114.52
346.583	-41.13
346.795	161.62
347.007	36.69
347.219	112.47
347.431	-41.13
347.643	141.14
347.855	-39.08
348.067	106.32
348.279	-114.86
348.491	-100.52
348.703	59.22
348.915	73.56
349.127	-8.36
349.339	-24.75
349.551	20.31
349.763	128.85
349.975	34.64
350.187	71.51
350.399	102.23
350.61	130.9
350.822	-22.7
351.034	77.65
351.246	14.17
351.458	83.8
351.669	85.84
351.881	91.99
352.093	102.23
352.305	118.61
352.517	-4.27
352.728	63.32
352.94	112.47
353.152	112.47
353.363	-41.13
353.575	14.17
353.787	118.61
353.999	-45.23
354.21	180.05
354.422	-32.94
354.633	71.51
354.845	-45.23
355.057	36.69
355.268	-20.65
355.48	165.71
355.692	-26.79
355.903	-20.65
356.115	38.74
356.326	-49.32
356.538	128.85
356.749	59.22
356.961	94.04
357.172	30.55
357.384	-6.31
357.595	87.89
357.807	-10.41
358.018	-34.99
358.23	118.61
358.441	151.38
358.653	48.98
358.864	34.64
359.075	-41.13
359.287	40.79
359.498	102.23
359.709	73.56
359.921	65.36
360.132	10.07
360.344	18.26
360.555	-10.41
360.766	-6.31
360.977	-12.46
361.189	75.6
361.4	-24.75
361.611	161.62
361.823	120.66
362.034	18.26
362.245	-57.51
362.456	57.17
362.667	77.65
362.879	40.79
363.09	75.6
363.301	24.4
363.512	46.93
363.723	-24.75
363.935	22.36
364.146	135
364.357	-0.17
364.568	77.65
364.779	-43.18
364.99	102.23
365.201	-69.8
365.412	124.76
365.623	63.32
365.834	16.21
366.045	28.5
366.256	130.9
366.467	46.93
366.678	12.12
366.889	20.31
367.1	-30.89
367.311	100.18
367.522	51.03
367.733	79.7
367.944	75.6
368.155	8.02
368.366	48.98
368.577	87.89
368.788	137.04
368.999	-55.47
369.209	79.7
369.42	186.19
369.631	153.43
369.842	59.22
370.053	-49.32
370.264	46.93
370.474	-0.17
370.685	-2.22
370.896	1.88
371.107	175.95
371.317	57.17
371.528	51.03
371.739	122.71
371.95	100.18
372.16	55.12
372.371	3.93
372.582	69.46
372.792	91.99
373.003	-10.41
373.214	8.02
373.424	91.99
373.635	-32.94
373.846	184.15
374.056	-24.75
374.267	38.74
374.477	-6.31
374.688	-63.66
374.898	67.41
375.109	-41.13
375.319	1.88
375.53	116.56
375.74	83.8
375.951	40.79
376.161	79.7
376.372	85.84
376.582	22.36
376.793	28.5
377.003	-26.79
377.214	-2.22
377.424	81.75
377.635	-16.55
377.845	-12.46
378.055	153.43
378.266	-67.75
378.476	8.02
378.686	34.64
378.897	59.22
379.107	89.94
379.317	79.7
379.528	16.21
379.738	163.67
379.948	-12.46
380.158	75.6
380.369	18.26
380.579	57.17
380.789	40.79
380.999	36.69
381.21	61.27
381.42	163.67
381.63	48.98
381.84	42.84
382.05	132.95
382.261	130.9
382.471	141.14
382.681	5.97
382.891	155.47
383.101	112.47
383.311	-10.41
383.521	20.31
383.731	104.28
383.941	122.71
384.151	102.23
384.361	28.5
384.571	81.75
384.781	36.69
384.991	175.95
385.201	128.85
385.411	100.18
385.621	57.17
385.831	-0.17
386.041	42.84
386.251	-43.18
386.461	91.99
386.671	51.03
386.881	44.88
387.091	55.12
387.301	38.74
387.511	67.41
387.72	75.6
387.93	104.28
388.14	-90.28
388.35	46.93
388.56	30.55
388.769	155.47
388.979	57.17
389.189	-41.13
389.399	14.17
389.609	69.46
389.818	163.67
390.028	24.4
390.238	42.84
390.447	8.02
390.657	14.17
390.867	48.98
391.076	-59.56
391.286	83.8
391.496	24.4
391.705	30.55
391.915	98.13
392.125	94.04
392.334	16.21
392.544	116.56
392.753	44.88
392.963	22.36
393.172	-20.65
393.382	3.93
393.591	204.63
393.801	91.99
394.01	135
394.22	104.28
394.429	59.22
394.639	14.17
394.848	48.98
395.058	53.08
395.267	32.6
395.477	61.27
395.686	65.36
395.895	128.85
396.105	130.9
396.314	67.41
396.524	-20.65
396.733	24.4
396.942	40.79
397.152	42.84
397.361	143.19
397.57	42.84
397.78	46.93
397.989	63.32
398.198	237.39
398.407	-59.56
398.617	-20.65
398.826	-2.22
399.035	-80.04
399.244	67.41
399.453	16.21
399.663	73.56
399.872	151.38
400.081	-67.75
400.29	120.66
400.499	22.36
400.708	91.99
400.917	65.36
401.127	28.5
401.336	48.98
401.545	83.8
401.754	77.65
401.963	155.47
402.172	30.55
402.381	-112.81
402.59	59.22
402.799	-4.27
403.008	75.6
403.217	-28.84
403.426	77.65
403.635	-8.36
403.844	-41.13
404.053	-4.27
404.262	44.88
404.471	212.82
404.68	36.69
404.888	-0.17
405.097	55.12
405.306	16.21
405.515	85.84
405.724	69.46
405.933	155.47
406.142	40.79
406.35	69.46
406.559	-24.75
406.768	14.17
406.977	145.24
407.185	26.45
407.394	81.75
407.603	-34.99
407.812	63.32
408.02	75.6
408.229	38.74
408.438	53.08
408.646	-110.76
408.855	42.84
409.064	46.93
409.272	53.08
409.481	59.22
409.69	10.07
409.898	-39.08
410.107	91.99
410.315	75.6
410.524	-45.23
410.733	42.84
410.941	1.88
411.15	67.41
411.358	165.71
411.567	96.08
411.775	118.61
411.984	118.61
412.192	61.27
412.401	-24.75
412.609	229.2
412.818	48.98
413.026	77.65
413.234	-28.84
413.443	-20.65
413.651	-61.61
413.86	48.98
414.068	155.47
414.276	237.39
414.485	18.26
414.693	128.85
414.901	149.33
415.11	28.5
415.318	-82.09
415.526	96.08
415.734	87.89
415.943	135
416.151	53.08
416.359	1.88
416.567	98.13
416.776	75.6
416.984	112.47
417.192	112.47
417.4	-49.32
417.608	5.97
417.817	10.07
418.025	83.8
418.233	118.61
418.441	30.55
418.649	-55.47
418.857	59.22
419.065	173.91
419.273	32.6
419.481	55.12
419.689	-24.75
419.897	-49.32
420.105	22.36
420.313	79.7
420.521	65.36
420.729	77.65
420.937	-51.37
421.145	-47.27
421.353	65.36
421.561	161.62
421.769	61.27
421.977	46.93
422.185	71.51
422.393	8.02
422.601	112.47
422.809	128.85
423.017	22.36
423.224	32.6
423.432	161.62
423.64	30.55
423.848	85.84
424.056	-59.56
424.263	79.7
424.471	46.93
424.679	139.09
424.887	-12.46
425.094	169.81
425.302	69.46
425.51	16.21
425.718	96.08
425.925	36.69
426.133	-34.99
426.341	247.63
426.548	-14.51
426.756	-2.22
426.964	75.6
427.171	-55.47
427.379	69.46
427.586	67.41
427.794	53.08
428.001	145.24
428.209	-12.46
428.417	22.36
428.624	79.7
428.832	69.46
429.039	77.65
429.247	51.03
429.454	24.4
429.662	169.81
429.869	182.1
430.076	26.45
430.284	38.74
430.491	20.31
430.699	67.41
430.906	112.47
431.114	79.7
431.321	128.85
431.528	34.64
431.736	94.04
431.943	132.95
432.15	132.95
432.358	124.76
432.565	204.63
432.772	-41.13
432.979	175.95
433.187	48.98
433.394	149.33
433.601	116.56
433.808	186.19
434.016	218.96
434.223	126.8
434.43	153.43
434.637	175.95
434.844	214.87
435.052	157.52
435.259	126.8
435.466	167.76
435.673	175.95
435.88	151.38
436.087	243.54
436.294	245.59
436.501	200.53
436.708	227.15
436.915	155.47
437.122	210.77
437.329	153.43
437.537	231.25
437.743	294.74
437.95	343.89
438.157	237.39
438.364	278.35
438.571	227.15
438.778	239.44
438.985	329.55
439.192	382.8
439.399	225.11
439.606	333.65
439.813	411.47
440.02	495.44
440.227	509.77
440.433	415.57
440.64	341.84
440.847	276.31
441.054	429.9
441.261	489.29
441.467	515.92
441.674	431.95
441.881	538.45
442.088	388.94
442.294	450.38
442.501	477.01
442.708	583.5
442.914	491.34
443.121	616.27
443.328	698.19
443.534	651.08
443.741	642.89
443.948	624.46
444.154	636.75
444.361	894.79
444.568	696.14
444.774	816.97
444.981	661.32
445.187	894.79
445.394	890.7
445.6	833.35
445.807	935.75
446.013	857.93
446.22	831.3
446.426	952.13
446.633	1070.92
446.839	1251.14
447.046	995.14
447.252	1185.6
447.459	1185.6
447.665	1204.03
447.871	1298.24
448.078	1425.22
448.284	1421.12
448.491	1412.93
448.697	1503.04
448.903	1587.01
449.11	1597.24
449.316	1423.17
449.522	1660.73
449.728	1765.18
449.935	1761.08
450.141	1886.01
450.347	1869.62
450.553	2008.89
450.76	1908.54
450.966	2113.33
451.172	2103.09
451.378	2238.26
451.584	2344.75
451.791	2481.97
451.997	2547.5
452.203	2529.07
452.409	2780.97
452.615	2840.36
452.821	2651.95
453.027	2866.99
453.233	3200.8
453.44	3055.4
453.646	3196.71
453.852	3372.83
454.058	3454.75
454.264	3561.25
454.47	3751.71
454.676	3798.81
454.882	4235.03
455.088	3997.46
455.294	4192.02
455.5	4613.9
455.705	4841.23
455.911	4747.02
456.117	4787.98
456.323	5140.23
456.529	4982.54
456.735	5564.16
456.941	5807.87
457.147	5893.88
457.352	5947.13
457.558	6104.82
457.764	6891.24
457.97	6805.23
458.176	7028.46
458.381	7247.59
458.587	7503.59
458.793	7851.74
458.999	7870.17
459.204	9000.65
459.41	9162.44
459.616	9010.89
459.821	9699.01
460.027	10096.32
460.233	10491.57
460.438	10526.39
460.644	11269.8
460.85	11157.16
461.055	11763.36
461.261	12236.44
461.466	11992.73
461.672	12265.11
461.878	13653.64
462.083	13788.8
462.289	13842.05
462.494	14358.14
462.7	14468.73
462.905	14859.89
463.111	15961.7
463.316	16498.27
463.522	16905.81
463.727	17479.24
463.932	18159.17
464.138	18622.01
464.343	19312.17
464.549	19656.23
464.754	21366.29
464.959	21825.03
465.165	21743.11
465.37	21931.53
465.575	21808.65
465.781	22910.46
465.986	23776.75
466.191	23864.81
466.397	23803.37
466.602	23129.59
466.807	24567.26
467.012	25079.25
467.218	25353.68
467.423	25099.73
467.628	26203.59
467.833	27413.94
468.038	26885.56
468.244	26195.4
468.449	27778.48
468.654	27454.9
468.859	27338.16
469.064	27188.66
469.269	26547.65
469.474	26858.94
469.679	27391.41
469.885	26846.65
470.09	27059.64
470.295	26920.38
470.5	26123.72
470.705	26711.49
470.91	25929.16
471.115	25750.99
471.32	26043.85
471.525	25943.5
471.73	25187.8
471.935	25011.67
472.139	24055.27
472.344	23723.5
472.549	23989.74
472.754	23387.63
472.959	22945.27
473.164	21820.94
473.369	21806.6
473.574	22687.23
473.778	22085.12
473.983	21556.75
474.188	21499.41
474.393	20336.16
474.598	20194.85
474.802	19480.11
475.007	19338.8
475.212	19525.16
475.417	18314.81
475.621	18181.7
475.826	18036.29
476.031	17512.01
476.235	17208.91
476.44	17405.52
476.645	16754.26
476.849	16498.27
477.054	16664.15
477.259	16111.2
477.463	16318.04
477.668	15824.48
477.872	15816.29
478.077	14906.99
478.282	14902.9
478.486	14757.49
478.691	14421.63
478.895	14245.5
479.1	14274.17
479.304	14249.6
479.509	13827.71
479.713	14132.86
479.918	13567.62
480.122	13250.19
480.326	13399.69
480.531	13381.26
480.735	13223.56
480.94	13076.11
481.144	13354.63
481.348	12691.09
481.553	12719.76
481.757	12527.25
481.961	12625.56
482.166	12764.82
482.37	12330.65
482.574	12232.35
482.778	12076.7
482.983	12342.94
483.187	12136.09
483.391	12148.38
483.595	11980.45
483.8	11380.39
484.004	11802.27
484.208	11761.31
484.412	11667.11
484.616	11282.09
484.821	11425.45
485.025	11017.9
485.229	10923.69
485.433	10692.27
485.637	10659.51
485.841	10583.73
486.045	10254.01
486.249	10456.76
486.453	9916.09
486.657	9803.46
486.861	9832.13
487.065	9483.97
487.269	9598.66
487.473	9408.2
487.677	9471.68
487.881	9377.48
488.085	9086.67
488.289	8797.9
488.493	8527.57
488.697	8804.05
488.901	8455.89
489.105	8107.74
489.309	8099.55
489.512	8081.11
489.716	7726.82
489.92	7745.25
490.124	7481.06
490.328	7380.71
490.531	7216.87
490.735	7337.7
490.939	6907.63
491.143	6688.5
491.346	6704.88
491.55	6704.88
491.754	6739.69
491.958	6614.77
492.161	6336.24
492.365	6299.38
492.569	6080.25
492.772	6115.06
492.976	6129.4
493.18	5758.72
493.383	5834.49
493.587	5730.05
493.79	5816.06
493.994	5607.17
494.197	5441.28
494.401	5639.94
494.605	5492.48
494.808	5478.15
495.012	5244.68
495.215	5459.71
495.419	5355.27
495.622	5289.73
495.825	5189.38
496.029	5228.29
496.232	5283.59
496.436	5097.22
496.639	5183.24
496.843	5070.6
497.046	5074.7
497.249	5297.92
497.453	5164.81
497.656	5050.12
497.859	5129.99
498.063	5261.06
498.266	5232.39
498.469	4980.49
498.673	5187.33
498.876	4998.92
499.079	5216.01
499.282	5134.09
499.485	5439.23
499.689	5416.71
499.892	5185.29
500.095	5422.85
500.298	5539.58
500.501	5283.59
500.705	5424.9
500.908	5596.93
501.111	5416.71
501.314	5658.37
501.517	5719.81
501.72	5693.18
501.923	5752.57
502.126	5977.85
502.329	5877.5
502.532	5998.33
502.735	6041.34
502.938	6158.07
503.141	6082.3
503.344	6346.48
503.547	6399.73
503.75	6354.68
503.953	6280.95
504.156	6588.14
504.359	6487.79
504.562	6522.61
504.765	6852.33
504.968	6878.96
505.17	7010.03
505.373	7130.86
505.576	7309.03
505.779	7358.18
505.982	7323.37
506.185	7335.65
506.387	7665.38
506.59	7749.34
506.793	7952.09
506.996	8212.18
507.198	8410.84
507.401	8507.09
507.604	8595.15
507.807	8857.29
508.009	8935.12
508.212	9072.33
508.415	9236.17
508.617	9453.25
508.82	9756.35
509.022	9678.53
509.225	9940.67
509.428	10139.32
509.63	10276.54
509.833	10475.19
510.035	10913.45
510.238	11095.72
510.44	11302.57
510.643	11753.12
510.845	11749.03
511.048	12320.41
511.25	12240.54
511.453	12517.01
511.655	13203.08
511.858	13409.93
512.06	13702.79
512.262	13670.02
512.465	14149.25
512.667	14370.43
512.87	14517.88
513.072	15128.17
513.274	15418.99
513.477	15935.07
513.679	16178.78
513.881	16586.33
514.084	16834.13
514.286	17307.21
514.488	17591.88
514.69	18288.19
514.893	18402.88
515.095	18822.71
515.297	19172.91
515.499	19557.93
515.701	20112.93
515.904	20493.85
516.106	20975.13
516.308	21257.74
516.51	21628.43
516.712	22410.75
516.914	22636.03
517.116	23129.59
517.318	23672.3
517.52	23893.48
517.722	24210.92
517.925	24907.23
518.127	25329.11
518.329	26121.67
518.531	25998.79
518.733	26873.28
518.935	27321.78
519.136	27504.05
519.338	28224.93
519.54	28495.27
519.742	29158.81
519.944	29283.73
520.146	29818.25
520.348	30565.76
520.55	30821.76
520.752	30877.05
520.954	31694.19
521.155	31675.76
521.357	32390.5
521.559	32873.82
521.761	33385.82
521.963	33447.25
522.164	33809.75
522.366	34196.81
522.568	34522.44
522.77	34397.51
522.971	35419.45
523.173	35415.35
523.375	35607.86
523.576	35294.52
523.778	35671.35
523.98	36379.95
524.181	36357.42
524.383	36300.08
524.584	36674.85
524.786	36883.75
524.988	36250.92
525.189	37434.65
525.391	37082.4
525.592	37580.06
525.794	36816.16
525.995	37063.97
526.197	37190.94
526.398	36977.95
526.6	37152.03
526.801	36820.26
527.003	37152.03
527.204	36820.26
527.406	36900.13
527.607	36357.42
527.808	36873.51
528.01	35728.69
528.211	36074.8
528.412	36363.56
528.614	36191.53
528.815	35626.29
529.016	35708.21
529.218	35122.49
529.419	34874.69
529.62	34518.34
529.822	34205
530.023	34194.76
530.224	33877.33
530.425	33609.04
530.626	33240.41
530.828	32443.75
531.029	32943.45
531.23	32091.5
531.431	31632.75
531.632	31835.5
531.833	31468.92
532.035	30549.38
532.236	30291.34
532.437	30039.43
532.638	29437.33
532.839	29162.9
533.04	28874.14
533.241	28773.79
533.442	28562.85
533.643	27979.18
533.844	27624.88
534.045	27545.01
534.246	26758.59
534.447	26674.62
534.648	26095.05
534.849	26039.75
535.05	25355.73
535.251	25269.72
535.451	24847.83
535.652	24499.68
535.853	24020.45
536.054	23948.78
536.255	23756.27
536.456	23162.36
536.657	23350.77
536.857	22343.17
537.058	22517.25
537.259	22328.83
537.46	21999.11
537.66	21597.71
537.861	21499.41
538.062	20950.55
538.263	20536.86
538.463	20608.54
538.664	20377.12
538.865	20043.3
539.065	20026.92
539.266	19390
539.466	19199.54
539.667	19502.64
539.868	19256.88
540.068	18341.44
540.269	18284.09
540.469	18511.42
540.67	18064.96
540.87	17921.6
541.071	17307.21
541.271	17694.28
541.472	17352.27
541.672	17133.14
541.873	16823.89
542.073	16516.7
542.274	16535.13
542.474	16207.45
542.675	16080.48
542.875	16150.11
543.075	15758.95
543.276	15339.12
543.476	15507.05
543.676	15179.37
543.877	15185.52
544.077	15003.25
544.277	14978.67
544.478	14532.22
544.678	14603.89
544.878	14319.23
545.078	14182.01
545.279	13805.19
545.479	13837.95
545.679	13694.6
545.879	13485.7
546.079	13383.31
546.28	13209.23
546.48	13041.29
546.68	13086.35
546.88	12723.86
547.08	12658.32
547.28	12293.79
547.48	12035.74
547.68	12193.44
547.88	11980.45
548.081	11914.91
548.281	11669.16
548.481	11472.55
548.681	11488.93
548.881	11450.02
549.081	11030.19
549.28	10917.55
549.48	10929.84
549.68	10596.02
549.88	10866.35
550.08	10311.35
550.28	10321.59
550.48	10153.66
550.68	10229.43
550.88	9899.71
551.08	9633.47
551.279	9733.82
551.479	9389.77
551.679	9551.56
551.879	9051.85
552.079	9225.93
552.278	9035.47
552.478	8988.36
552.678	8558.29
552.878	8705.74
553.077	8410.84
553.277	8308.44
553.477	8394.45
553.676	7956.19
553.876	7884.51
554.076	7745.25
554.275	7759.58
554.475	7456.48
554.674	7567.07
554.874	7458.53
555.074	7010.03
555.273	7177.96
555.473	6997.74
555.672	6993.64
555.872	6721.26
556.071	6596.34
556.271	6743.79
556.47	6463.22
556.67	6293.24
556.869	6246.13
557.068	6022.91
557.268	5977.85
557.467	5887.74
557.667	6002.43
557.866	5775.1
558.065	5684.99
558.265	5590.78
558.464	5318.4
558.663	5521.15
558.863	5373.7
559.062	5254.92
559.261	5123.85
559.461	5089.03
559.66	4931.34
559.859	5021.45
560.058	4775.69
560.258	4812.56
560.457	4697.87
560.656	4613.9
560.855	4364.05
561.054	4689.68
561.253	4339.48
561.453	4327.19
561.652	4298.52
561.851	4232.98
562.05	3991.32
562.249	3970.84
562.448	4146.97
562.647	3886.87
562.846	3847.96
563.045	3774.24
563.244	3653.41
563.443	3917.59
563.642	3608.35
563.841	3661.6
564.04	3467.04
564.239	3469.09
564.438	3354.4
564.637	3321.63
564.836	3252
565.035	3235.62
565.234	3196.71
565.432	3063.59
565.631	3036.97
565.83	3057.45
566.029	3069.73
566.228	2909.99
566.427	3063.59
566.625	2780.97
566.824	2830.12
567.023	2828.07
567.222	2772.78
567.42	2848.55
567.619	2643.76
567.818	2608.94
568.016	2639.66
568.215	2477.87
568.414	2565.93
568.612	2428.72
568.811	2467.63
569.01	2443.06
569.208	2400.05
569.407	2395.95
569.605	2473.78
569.804	2146.1
570.002	2256.69
570.201	2123.57
570.4	2250.55
570.598	2119.48
570.797	2166.58
570.995	1978.17
571.193	2049.85
571.392	2168.63
571.59	1924.92
571.789	2008.89
571.987	2033.46
572.186	1918.78
572.384	1787.71
572.582	1828.67
572.781	1935.16
572.979	1718.08
573.177	1732.41
573.376	1759.03
573.574	1693.5
573.772	1705.79
573.971	1627.96
574.169	1476.41
574.367	1533.76
574.565	1519.42
574.763	1603.39
574.962	1419.07
575.16	1537.85
575.358	1503.04
575.556	1443.65
575.754	1437.5
575.952	1316.67
576.151	1341.25
576.349	1470.27
576.547	1290.05
576.745	1224.51
576.943	1224.51
577.141	1259.33
577.339	1136.45
577.537	1187.65
577.735	1369.92
577.933	1234.75
578.131	1128.26
578.329	1279.81
578.527	1081.16
578.725	1146.69
578.923	1044.29
579.121	1070.92
579.319	937.8
579.516	1046.34
579.714	1212.23
579.912	1017.67
580.11	878.41
580.308	911.18
580.506	876.36
580.704	810.82
580.901	884.55
581.099	1017.67
581.297	882.5
581.495	984.9
581.692	816.97
581.89	1005.38
582.088	804.68
582.285	872.26
582.483	749.39
582.681	806.73
582.878	712.52
583.076	911.18
583.274	753.48
583.471	917.32
583.669	829.26
583.866	745.29
584.064	640.84
584.262	626.51
584.459	575.31
584.657	776.01
584.854	776.01
585.052	761.67
585.249	706.38
585.447	606.03
585.644	597.84
585.841	765.77
586.039	649.04
586.236	722.76
586.434	599.88
586.631	634.7
586.828	581.45
587.026	612.17
587.223	485.2
587.42	528.21
587.618	675.66
587.815	730.95
588.012	536.4
588.21	558.92
588.407	636.75
588.604	634.7
588.801	522.06
588.999	479.05
589.196	515.92
589.393	456.53
589.59	542.54
589.787	522.06
589.984	587.6
590.182	563.02
590.379	425.81
590.576	583.5
590.773	419.66
590.97	436.05
591.167	577.36
591.364	542.54
591.561	464.72
591.758	587.6
591.955	540.49
592.152	505.68
592.349	401.23
592.546	448.33
592.743	411.47
592.94	434
593.137	571.21
593.334	571.21
593.531	542.54
593.727	636.75
593.924	567.12
594.121	581.45
594.318	370.51
594.515	620.36
594.712	651.08
594.908	626.51
595.105	350.03
595.302	579.4
595.499	507.73
595.696	646.99
595.892	505.68
596.089	644.94
596.286	597.84
596.482	726.86
596.679	632.65
596.876	597.84
597.072	698.19
597.269	659.28
597.466	714.57
597.662	560.97
597.859	735.05
598.055	679.75
598.252	761.67
598.448	743.24
598.645	896.84
598.841	868.17
599.038	1023.81
599.234	970.57
599.431	1023.81
599.627	1077.06
599.824	1015.62
600.02	1132.36
600.217	1120.07
600.413	1118.02
600.609	1265.47
600.806	1451.84
601.002	1398.59
601.198	1206.08
601.395	1357.63
601.591	1369.92
601.787	1509.18
601.984	1656.64
602.18	1646.4
602.376	1572.67
602.572	1724.22
602.769	1920.82
602.965	1845.05
603.161	1892.15
603.357	2043.7
603.553	2152.24
603.75	2148.15
603.946	2172.72
604.142	2346.8
604.338	2559.79
604.534	2250.55
604.73	2488.11
604.926	2654
605.122	2789.16
605.318	2649.9
605.514	2858.79
605.71	2869.03
605.906	3069.73
606.102	3069.73
606.298	3311.39
606.494	3282.72
606.69	3335.97
606.886	3532.58
607.082	3575.58
607.278	3710.75
607.474	3845.91
607.67	3936.03
607.866	3909.4
608.062	4189.97
608.257	4210.45
608.453	4364.05
608.649	4386.58
608.845	4501.26
609.041	4548.37
609.236	4781.84
609.432	4970.25
609.628	5089.03
609.824	5082.89
610.019	5254.92
610.215	5467.91
610.411	5863.16
610.606	5955.32
610.802	5715.71
610.998	5983.99
611.193	6334.2
611.389	6452.98
611.584	6655.73
611.78	6524.66
611.976	6926.06
612.171	7245.54
612.367	7141.1
612.562	7442.15
612.758	7630.56
612.953	7710.43
613.149	8048.35
613.344	8099.55
613.539	8568.53
613.735	8892.11
613.93	9062.09
614.126	8978.12
614.321	9539.27
614.517	9559.75
614.712	9776.83
614.907	10147.51
615.103	10294.97
615.298	10479.29
615.493	10958.51
615.688	11110.06
615.884	11706.02
616.079	11599.52
616.274	12197.53
616.47	12154.52
616.665	12658.32
616.86	12967.57
617.055	13172.36
617.25	13678.21
617.445	13844.1
617.641	14032.51
617.836	14532.22
618.031	14814.84
618.226	15320.68
618.421	15713.89
618.616	16019.04
618.811	16109.15
619.006	16877.14
619.201	17122.9
619.396	17765.96
619.591	17438.28
619.786	18456.12
619.981	18400.83
620.176	19111.47
620.371	19105.33
620.566	19662.38
620.761	20037.16
620.956	20735.51
621.151	20745.75
621.346	21308.94
621.541	21415.44
621.735	22482.43
621.93	22040.07
622.125	23109.11
622.32	23260.66
622.515	23420.4
622.709	24346.08
622.904	24473.06
623.099	25204.18
623.294	25390.55
623.488	25759.18
623.683	26332.61
623.878	26283.46
624.072	27438.51
624.267	27291.06
624.462	28206.5
624.656	28140.97
624.851	28923.29
625.046	28872.09
625.24	29388.18
625.435	29982.09
625.629	30434.69
625.824	30641.54
626.018	31159.67
626.213	31116.67
626.407	31997.29
626.602	31923.57
626.796	32531.81
626.991	32873.82
627.185	32998.75
627.38	32734.56
627.574	33494.36
627.768	33463.64
627.963	33490.26
628.157	33346.9
628.352	33729.87
628.546	33676.63
628.74	33787.22
628.935	33475.93
629.129	33561.94
629.323	33054.04
629.517	33047.9
629.712	32882.02
629.906	32626.02
630.1	31743.34
630.294	31849.84
630.489	31280.5
630.683	31087.99
630.877	30307.72
631.071	29832.59
631.265	29167
631.459	28485.03
631.653	28038.57
631.848	27256.25
632.042	26326.47
632.236	25994.7
632.43	25538
632.624	24528.35
632.818	23680.49
633.012	23217.65
633.206	22212.1
633.4	21863.94
633.594	20481.56
633.788	20063.78
633.982	19490.35
634.176	18806.33
634.369	17747.53
634.563	17161.81
634.757	16426.59
634.951	16033.38
635.145	15169.13
635.339	14745.2
635.533	13969.02
635.726	13536.9
635.92	13014.67
636.114	12082.84
636.308	11810.47
636.501	11443.88
636.695	10757.81
636.889	10331.83
637.083	10155.71
637.276	9586.37
637.47	9305.8
637.664	8865.49
637.857	8369.88
638.051	8124.12
638.244	7855.84
638.438	7587.55
638.632	7485.16
638.825	6749.93
639.019	6760.17
639.212	6340.34
639.406	6174.46
639.599	5900.03
639.793	5672.7
639.986	5510.91
640.18	5359.36
640.373	5119.75
640.567	4767.5
640.76	4720.4
640.954	4462.35
641.147	4218.64
641.34	4132.63
641.534	3964.7
641.727	3845.91
641.92	3747.61
642.114	3565.34
642.307	3483.42
642.5	3352.35
642.694	3182.37
642.887	3137.32
643.08	3118.89
643.273	2885.42
643.467	2690.86
643.66	2610.99
643.853	2608.94
644.046	2395.95
644.239	2299.7
644.432	2086.71
644.626	2129.72
644.819	1963.83
645.012	2041.65
645.205	1892.15
645.398	1898.3
645.591	1713.98
645.784	1787.71
645.977	1595.2
646.17	1695.55
646.363	1515.33
646.556	1423.17
646.749	1322.82
646.942	1322.82
647.135	1341.25
647.328	1261.38
647.521	1173.32
647.714	1066.82
647.907	1017.67
648.099	1040.2
648.292	1183.56
648.485	1005.38
648.678	948.04
648.871	872.26
649.064	970.57
649.256	868.17
649.449	806.73
649.642	667.47
649.835	743.24
650.027	669.52
650.22	845.64
650.413	681.8
650.605	698.19
650.798	614.22
650.991	612.17
651.183	616.27
651.376	577.36
651.568	597.84
651.761	542.54
651.954	640.84
652.146	511.82
652.339	522.06
652.531	534.35
652.724	409.42
652.916	390.99
653.109	300.88
653.301	458.57
653.494	493.39
653.686	454.48
653.879	528.21
654.071	397.14
654.263	366.42
654.456	241.49
654.648	479.05
654.84	390.99
655.033	274.26
655.225	440.14
655.417	239.44
655.61	309.07
655.802	307.02
655.994	384.85
656.186	214.87
656.379	311.12
656.571	278.35
656.763	313.17
656.955	284.5
657.148	253.78
657.34	307.02
657.532	331.6
657.724	243.54
657.916	169.81
658.108	317.26
658.3	274.26
658.492	231.25
658.684	106.32
658.876	296.78
659.068	67.41
659.26	182.1
659.452	104.28
659.644	196.43
659.836	280.4
660.028	251.73
660.22	155.47
660.412	239.44
660.604	102.23
660.796	188.24
660.988	221.01
661.18	208.72
661.372	210.77
661.563	137.04
661.755	202.58
661.947	104.28
662.139	175.95
662.331	116.56
662.522	153.43
662.714	147.28
662.906	102.23
663.097	87.89
663.289	108.37
663.481	-121
663.673	137.04
663.864	104.28
664.056	208.72
664.247	26.45
664.439	274.26
664.631	108.37
664.822	147.28
665.014	51.03
665.205	106.32
665.397	124.76
665.588	198.48
665.78	145.24
665.971	173.91
666.163	75.6
666.354	89.94
666.546	132.95
666.737	128.85
666.929	40.79
667.12	69.46
667.311	89.94
667.503	89.94
667.694	143.19
667.885	139.09
668.077	175.95
668.268	12.12
668.459	141.14
668.651	124.76
668.842	81.75
669.033	34.64
669.224	18.26
669.416	294.74
669.607	83.8
669.798	-12.46
669.989	155.47
670.18	94.04
670.371	118.61
670.563	-4.27
670.754	192.34
670.945	116.56
671.136	202.58
671.327	67.41
671.518	169.81
671.709	151.38
671.9	161.62
672.091	118.61
672.282	122.71
672.473	110.42
672.664	-30.89
672.855	106.32
673.046	118.61
673.237	110.42
673.428	104.28
673.619	139.09
673.809	81.75
674	128.85
674.191	114.52
674.382	85.84
674.573	108.37
674.764	59.22
674.954	165.71
675.145	67.41
675.336	59.22
675.527	151.38
675.717	55.12
675.908	63.32
676.099	118.61
676.289	167.76
676.48	38.74
676.671	128.85
676.861	57.17
677.052	89.94
677.243	167.76
677.433	48.98
677.624	112.47
677.814	130.9
678.005	130.9
678.195	130.9
678.386	124.76
678.576	63.32
678.767	-2.22
678.957	5.97
679.148	161.62
679.338	231.25
679.529	116.56
679.719	87.89
679.909	188.24
680.1	161.62
680.29	182.1
680.481	-6.31
680.671	190.29
680.861	135
681.052	153.43
681.242	112.47
681.432	214.87
681.622	112.47
681.813	-18.6
682.003	38.74
682.193	61.27
682.383	102.23
682.573	114.52
682.764	135
682.954	155.47
683.144	155.47
683.334	139.09
683.524	79.7
683.714	192.34
683.904	128.85
684.094	184.15
684.284	163.67
684.474	270.16
684.664	178
684.854	122.71
685.044	135
685.234	132.95
685.424	145.24
685.614	65.36
685.804	325.46
685.994	276.31
686.184	94.04
686.374	159.57
686.564	212.82
686.753	223.06
686.943	114.52
687.133	118.61
687.323	178
687.513	272.21
687.702	155.47
687.892	196.43
688.082	157.52
688.272	247.63
688.461	139.09
688.651	243.54
688.841	212.82
689.03	188.24
689.22	155.47
689.41	157.52
689.599	145.24
689.789	98.13
689.979	214.87
690.168	165.71
690.358	280.4
690.547	202.58
690.737	196.43
690.926	200.53
691.116	257.87
691.305	239.44
691.495	253.78
691.684	91.99
691.874	175.95
692.063	161.62
692.252	231.25
692.442	266.07
692.631	114.52
692.82	116.56
693.01	194.39
693.199	118.61
693.388	165.71
693.578	161.62
693.767	243.54
693.956	280.4
694.146	210.77
694.335	237.39
694.524	100.18
694.713	225.11
694.902	165.71
695.092	155.47
695.281	165.71
695.47	180.05
695.659	161.62
695.848	175.95
696.037	143.19
696.226	247.63
696.415	151.38
696.604	282.45
696.793	266.07
696.982	100.18
697.171	235.35
697.36	149.33
697.549	126.8
697.738	32.6
697.927	151.38
698.116	192.34
698.305	235.35
698.494	147.28
698.683	188.24
698.872	171.86
699.061	128.85
699.25	153.43
699.438	147.28
699.627	24.4
699.816	317.26
700.005	22.36
700.193	139.09
700.382	196.43
700.571	233.3
700.76	186.19
700.948	216.91
701.137	186.19
701.326	122.71
701.514	79.7
701.703	212.82
701.892	180.05
702.08	376.66
702.269	237.39
702.457	143.19
702.646	178
702.834	202.58
703.023	233.3
703.212	182.1
703.4	171.86
703.589	120.66
703.777	114.52
703.965	114.52
704.154	106.32
704.342	53.08
704.531	147.28
704.719	227.15
704.907	294.74
705.096	104.28
705.284	77.65
705.472	118.61
705.661	173.91
705.849	251.73
706.037	292.69
706.226	251.73
706.414	208.72
706.602	124.76
706.79	169.81
706.979	139.09
707.167	169.81
707.355	46.93
707.543	231.25
707.731	147.28
707.919	163.67
708.107	147.28
708.296	89.94
708.484	141.14
708.672	192.34
708.86	169.81
709.048	137.04
709.236	132.95
709.424	239.44
709.612	188.24
709.8	100.18
709.988	151.38
710.176	261.97
710.364	200.53
710.551	145.24
710.739	169.81
710.927	153.43
711.115	239.44
711.303	223.06
711.491	253.78
711.679	169.81
711.866	225.11
712.054	122.71
712.242	223.06
712.43	329.55
712.617	157.52
712.805	313.17
712.993	186.19
713.181	178
713.368	186.19
713.556	167.76
713.744	91.99
713.931	282.45
714.119	180.05
714.306	53.08
714.494	194.39
714.682	128.85
714.869	67.41
715.057	157.52
715.244	51.03
715.432	180.05
715.619	114.52
715.807	149.33
715.994	194.39
716.182	192.34
716.369	268.11
716.556	227.15
716.744	102.23
716.931	151.38
717.119	233.3
717.306	210.77
717.493	268.11
717.681	233.3
717.868	214.87
718.055	255.83
718.242	159.57
718.43	239.44
718.617	259.92
718.804	194.39
718.991	290.64
719.179	204.63
719.366	249.68
719.553	192.34
719.74	206.67
719.927	276.31
720.114	276.31
720.301	157.52
720.488	165.71
720.676	163.67
720.863	315.22
721.05	337.74
721.237	300.88
721.424	229.2
721.611	253.78
721.798	151.38
721.985	155.47
722.172	218.96
722.358	157.52
722.545	345.94
722.732	268.11
722.919	280.4
723.106	309.07
723.293	214.87
723.48	149.33
723.667	229.2
723.853	235.35
724.04	276.31
724.227	257.87
724.414	122.71
724.6	257.87
724.787	317.26
724.974	345.94
725.161	223.06
725.347	130.9
725.534	247.63
725.72	278.35
725.907	366.42
726.094	249.68
726.28	212.82
726.467	229.2
726.653	194.39
726.84	347.98
727.027	354.13
727.213	216.91
727.4	245.59
727.586	300.88
727.773	214.87
727.959	235.35
728.145	255.83
728.332	253.78
728.518	202.58
728.705	302.93
728.891	280.4
729.077	261.97
729.264	184.15
729.45	208.72
729.636	347.98
729.823	251.73
730.009	313.17
730.195	251.73
730.382	284.5
730.568	227.15
730.754	286.54
730.94	221.01
731.126	259.92
731.313	214.87
731.499	292.69
731.685	302.93
731.871	270.16
732.057	270.16
732.243	313.17
732.429	309.07
732.615	317.26
732.801	317.26
732.987	241.49
733.173	272.21
733.359	165.71
733.545	268.11
733.731	300.88
733.917	372.56
734.103	288.59
734.289	286.54
734.475	261.97
734.661	464.72
734.847	237.39
735.033	247.63
735.219	311.12
735.404	227.15
735.59	237.39
735.776	192.34
735.962	274.26
736.148	317.26
736.333	442.19
736.519	282.45
736.705	261.97
736.89	284.5
737.076	253.78
737.262	163.67
737.447	243.54
737.633	210.77
737.819	370.51
738.004	292.69
738.19	321.36
738.375	315.22
738.561	362.32
738.747	309.07
738.932	268.11
739.118	382.8
739.303	345.94
739.489	354.13
739.674	241.49
739.859	294.74
740.045	339.79
740.23	352.08
740.416	198.48
740.601	255.83
740.786	290.64
740.972	141.14
741.157	231.25
741.342	202.58
741.528	214.87
741.713	343.89
741.898	214.87
742.084	364.37
742.269	325.46
742.454	247.63
742.639	276.31
742.824	302.93
743.01	294.74
743.195	368.46
743.38	264.02
743.565	331.6
743.75	325.46
743.935	274.26
744.12	307.02
744.305	175.95
744.49	315.22
744.675	270.16
744.86	251.73
745.045	397.14
745.23	282.45
745.415	239.44
745.6	339.79
745.785	245.59
745.97	347.98
746.155	294.74
746.34	350.03
746.525	354.13
746.71	257.87
746.895	184.15
747.079	180.05
747.264	206.67
747.449	319.31
747.634	309.07
747.819	321.36
748.003	243.54
748.188	223.06
748.373	331.6
748.557	282.45
748.742	200.53
748.927	237.39
749.111	206.67
749.296	225.11
749.481	225.11
749.665	229.2
749.85	202.58
750.034	259.92
750.219	268.11
750.404	290.64
750.588	249.68
750.773	118.61
750.957	298.83
751.141	237.39
751.326	147.28
751.51	194.39
751.695	225.11
751.879	288.59
752.064	307.02
752.248	245.59
752.432	249.68
752.617	266.07
752.801	370.51
752.985	249.68
753.17	284.5
753.354	157.52
753.538	270.16
753.722	198.48
753.907	130.9
754.091	102.23
754.275	278.35
754.459	139.09
754.643	145.24
754.828	139.09
755.012	218.96
755.196	124.76
755.38	180.05
755.564	208.72
755.748	210.77
755.932	227.15
756.116	190.29
756.3	200.53
756.484	130.9
756.668	311.12
756.852	118.61
757.036	171.86
757.22	218.96
757.404	147.28
757.588	83.8
757.772	165.71
757.956	114.52
758.14	255.83
758.323	112.47
758.507	202.58
758.691	163.67
758.875	190.29
759.059	300.88
759.242	122.71
759.426	149.33
759.61	139.09
759.794	79.7
759.977	296.78
760.161	452.43
760.345	261.97
760.528	307.02
760.712	143.19
760.895	227.15
761.079	163.67
761.263	83.8
761.446	28.5
761.63	137.04
761.813	245.59
761.997	98.13
762.18	124.76
762.364	135
762.547	46.93
762.731	67.41
762.914	75.6
763.098	124.76
763.281	141.14
763.464	157.52
763.648	114.52
763.831	149.33
764.015	79.7
764.198	128.85
764.381	30.55
764.564	85.84
764.748	79.7
764.931	175.95
765.114	67.41
765.297	75.6
765.481	30.55
765.664	122.71
765.847	96.08
766.03	243.54
766.213	46.93
766.397	118.61
766.58	34.64
766.763	175.95
766.946	44.88
767.129	128.85
767.312	73.56
767.495	116.56
767.678	12.12
767.861	163.67
768.044	44.88
768.227	51.03
768.41	137.04
768.593	71.51
768.776	69.46
768.959	53.08
769.142	231.25
769.324	83.8
769.507	116.56
769.69	63.32
769.873	104.28
770.056	202.58
770.239	128.85
770.421	200.53
770.604	153.43
770.787	110.42
770.97	48.98
771.152	61.27
771.335	159.57
771.518	12.12
771.7	184.15
771.883	194.39
772.066	110.42
772.248	24.4
772.431	194.39
772.613	79.7
772.796	110.42
772.978	106.32
773.161	190.29
773.343	-8.36
773.526	-22.7
773.708	-16.55
773.891	3.93
774.073	46.93
774.256	-12.46
774.438	223.06
774.621	-8.36
774.803	169.81
774.985	59.22
775.168	34.64
775.35	57.17
775.532	141.14
775.715	38.74
775.897	104.28
776.079	5.97
776.261	112.47
776.444	71.51
776.626	46.93
776.808	57.17
776.99	32.6
777.173	112.47
777.355	32.6
777.537	67.41
777.719	65.36
777.901	28.5
778.083	38.74
778.265	-73.9
778.447	102.23
778.629	55.12
778.811	114.52
778.993	91.99
779.175	153.43
779.357	94.04
779.539	-57.51
779.721	157.52
779.903	188.24
780.085	-14.51
780.267	36.69
780.449	24.4
780.631	141.14
780.812	149.33
780.994	51.03
781.176	94.04
781.358	48.98
781.54	48.98
781.721	120.66
781.903	-12.46
782.085	83.8
782.267	126.8
782.448	-39.08
782.63	-12.46
782.812	87.89
782.993	149.33
783.175	102.23
783.357	77.65
783.538	32.6
783.72	-0.17
783.901	38.74
784.083	51.03
784.264	83.8
784.446	3.93
784.627	-43.18
784.809	114.52
784.99	53.08
785.172	89.94
785.353	83.8
785.535	73.56
785.716	14.17
785.897	-47.27
786.079	-45.23
786.26	42.84
786.441	61.27
786.623	-53.42
786.804	14.17
786.985	12.12
787.167	135
787.348	1.88
787.529	22.36
787.71	141.14
787.891	178
788.073	-51.37
788.254	-51.37
788.435	155.47
788.616	83.8
788.797	-94.38
788.978	42.84
789.159	-30.89
789.34	61.27
789.522	24.4
789.703	38.74
789.884	12.12
790.065	73.56
790.246	71.51
790.427	-51.37
790.607	149.33
790.788	171.86
790.969	-14.51
791.15	73.56
791.331	-18.6
791.512	10.07
791.693	-47.27
791.874	5.97
792.054	124.76
792.235	118.61
792.416	22.36
792.597	-43.18
792.778	63.32
792.958	53.08
793.139	81.75
793.32	112.47
793.5	-67.75
793.681	59.22
793.862	30.55
794.042	-22.7
794.223	-6.31
794.404	24.4
794.584	-45.23
794.765	55.12
794.945	-6.31
795.126	-4.27
795.306	96.08
795.487	89.94
795.667	-22.7
795.848	91.99
796.028	-51.37
796.209	-6.31
796.389	122.71
796.57	-12.46
796.75	-51.37
796.93	57.17
797.111	-88.23
797.291	8.02
797.471	94.04
797.652	-61.61
797.832	-10.41
798.012	51.03
798.192	-14.51
798.373	-71.85
798.553	-4.27
798.733	102.23
798.913	-43.18
799.093	-71.85
799.274	30.55
799.454	112.47
799.634	77.65
799.814	91.99
799.994	-0.17
800.174	38.74
800.354	53.08
800.534	-71.85
800.714	10.07
800.894	-92.33
801.074	-8.36
801.254	42.84
801.434	157.52
801.614	-22.7
801.794	-24.75
801.974	1693.5
802.154	8.02
802.334	10.07
802.514	-51.37
802.693	-32.94
802.873	57.17
803.053	124.76
803.233	91.99
803.413	-96.43
803.592	-8.36
803.772	-0.17
803.952	3.93
804.131	-34.99
804.311	5.97
804.491	106.32
804.67	-49.32
804.85	14.17
805.03	32.6
805.209	94.04
805.389	-47.27
805.568	-45.23
805.748	102.23
805.928	-37.03
806.107	69.46
806.287	-16.55
806.466	51.03
806.646	-4.27
806.825	-22.7
807.004	-45.23
807.184	-30.89
807.363	75.6
807.543	75.6
807.722	-96.43
807.901	145.24
808.081	102.23
808.26	-69.8
808.439	-43.18
808.619	-4.27
808.798	1.88
808.977	53.08
809.156	12.12
809.336	61.27
809.515	-16.55
809.694	-112.81
809.873	-34.99
810.052	85.84
810.231	69.46
810.411	-16.55
810.59	87.89
810.769	-10.41
810.948	12.12
811.127	-149.67
811.306	12.12
811.485	-71.85
811.664	71.51
811.843	-51.37
812.022	-2.22
812.201	30.55
812.38	-4.27
812.559	-71.85
812.737	42.84
812.916	-98.47
813.095	-45.23
813.274	30.55
813.453	8.02
813.632	32.6
813.811	-20.65
813.989	-80.04
814.168	40.79
814.347	-49.32
814.526	-20.65
814.704	182.1
814.883	110.42
815.062	-75.95
815.24	-4.27
815.419	-24.75
815.598	28.5
815.776	-88.23
815.955	-37.03
816.133	-45.23
816.312	-12.46
816.49	-75.95
816.669	-30.89
816.847	1.88
817.026	75.6
817.204	-6.31
817.383	63.32
817.561	-8.36
817.74	20.31
817.918	26.45
818.097	-41.13
818.275	-57.51
818.453	38.74
818.632	75.6
818.81	-14.51
818.988	-30.89
819.167	-34.99
819.345	59.22
819.523	-65.71
819.701	57.17
819.879	59.22
820.058	106.32
820.236	22.36
820.414	28.5
820.592	-14.51
820.77	36.69
820.948	5.97
821.127	16.21
821.305	-45.23
821.483	-43.18
821.661	73.56
821.839	16.21
822.017	-84.14
822.195	-61.61
822.373	106.32
822.551	10.07
822.729	55.12
822.907	-8.36
823.085	65.36
823.262	44.88
823.44	-55.47
823.618	-63.66
823.796	18.26
823.974	-37.03
824.152	63.32
824.329	-12.46
824.507	12.12
824.685	55.12
824.863	-57.51
825.04	5.97
825.218	79.7
825.396	20.31
825.574	-39.08
825.751	-14.51
825.929	55.12
826.107	-18.6
826.284	24.4
826.462	34.64
826.639	-55.47
826.817	-151.72
826.994	-12.46
827.172	-127.14
827.349	147.28
827.527	24.4
827.704	38.74
827.882	5.97
828.059	-55.47
828.237	-59.56
828.414	34.64
828.591	-116.9
828.769	63.32
828.946	-61.61
829.124	22.36
829.301	94.04
829.478	5.97
829.655	-39.08
829.833	-0.17
830.01	-77.99
830.187	1.88
830.364	32.6
830.542	-16.55
830.719	124.76
830.896	69.46
831.073	36.69
831.25	63.32
831.427	26.45
831.604	-34.99
831.782	-8.36
831.959	34.64
832.136	-51.37
832.313	36.69
832.49	-45.23
832.667	-28.84
832.844	-53.42
833.021	73.56
833.198	-6.31
833.374	-37.03
833.551	34.64
833.728	-45.23
833.905	75.6
834.082	-118.95
834.259	-2.22
834.436	65.36
834.612	-20.65
834.789	28.5
834.966	14.17
835.143	87.89
835.319	-100.52
835.496	36.69
835.673	22.36
835.85	24.4
836.026	-63.66
836.203	63.32
836.38	-135.34
836.556	-30.89
836.733	-67.75
836.909	120.66
837.086	-28.84
837.262	-149.67
837.439	-96.43
837.616	-71.85
837.792	12.12
837.968	-26.79
838.145	-100.52
838.321	38.74
838.498	1.88
838.674	26.45
838.851	-32.94
839.027	-92.33
839.203	28.5
839.38	36.69
839.556	-30.89
839.732	59.22
839.909	-39.08
840.085	89.94
840.261	-61.61
840.437	20.31
840.614	-96.43
840.79	14.17
840.966	38.74
841.142	-30.89
841.318	-37.03
841.494	34.64
841.671	57.17
841.847	-80.04
842.023	-71.85
842.199	30.55
842.375	57.17
842.551	-37.03
842.727	-129.19
842.903	159.57
843.079	-108.71
843.255	81.75
843.431	1.88
843.607	1.88
843.783	-182.44
843.959	-43.18
844.134	-49.32
844.31	149.33
844.486	-59.56
844.662	-80.04
844.838	32.6
845.013	-22.7
845.189	42.84
845.365	-0.17
845.541	-4.27
845.716	-10.41
845.892	124.76
846.068	-2.22
846.244	-51.37
846.419	12.12
846.595	-37.03
846.77	-125.1
846.946	14.17
847.122	-67.75
847.297	-75.95
847.473	8.02
847.648	-59.56
847.824	44.88
847.999	-96.43
848.175	-55.47
848.35	-14.51
848.526	44.88
848.701	79.7
848.876	-34.99
849.052	75.6
849.227	-45.23
849.403	-63.66
849.578	-22.7
849.753	-55.47
849.929	55.12
850.104	-104.62
850.279	67.41
850.454	67.41
850.63	55.12
850.805	22.36
850.98	57.17
851.155	-47.27
851.33	24.4
851.505	-37.03
851.681	14.17
851.856	-100.52
852.031	63.32
852.206	18.26
852.381	-84.14
852.556	-77.99
852.731	-14.51
852.906	-8.36
853.081	3.93
853.256	108.37
853.431	-39.08
853.606	-28.84
853.781	-147.62
853.956	-182.44
854.131	-4.27
854.305	-116.9
854.48	-118.95
854.655	-116.9
854.83	-59.56
855.005	-98.47
855.18	-8.36
855.354	5.97
855.529	-10.41
855.704	-75.95
855.879	44.88
856.053	-51.37
856.228	14.17
856.403	-45.23
856.577	18.26
856.752	-149.67
856.926	18.26
857.101	18.26
857.276	-59.56
857.45	-18.6
857.625	73.56
857.799	-30.89
857.974	-59.56
858.148	-34.99
858.323	-16.55
858.497	-22.7
858.672	-96.43
858.846	-123.05
859.02	77.65
859.195	-139.43
859.369	-61.61
859.543	-2.22
859.718	-14.51
859.892	-6.31
860.066	55.12
860.241	20.31
860.415	-127.14
860.589	-67.75
860.763	-43.18
860.938	-94.38
861.112	-12.46
861.286	-45.23
861.46	57.17
861.634	10.07
861.808	36.69
861.982	-41.13
862.157	-100.52
862.331	-47.27
862.505	-102.57
862.679	-98.47
862.853	-20.65
863.027	-24.75
863.201	55.12
863.375	-43.18
863.549	-55.47
863.722	48.98
863.896	100.18
864.07	-75.95
864.244	-114.86
864.418	30.55
864.592	-4.27
864.766	-6.31
864.939	-49.32
865.113	-51.37
865.287	26.45
865.461	-84.14
865.634	-59.56
865.808	-47.27
865.982	-84.14
866.156	-155.82
866.329	-127.14
866.503	46.93
866.676	102.23
866.85	-53.42
867.024	-57.51
867.197	34.64
867.371	46.93
867.544	20.31
867.718	-104.62
867.891	141.14
868.065	-41.13
868.238	40.79
868.412	155.47
868.585	22.36
868.759	-34.99
868.932	-69.8
869.105	-116.9
869.279	-0.17
869.452	-75.95
869.625	-12.46
869.799	-73.9
869.972	-84.14
870.145	-28.84
870.319	59.22
870.492	-18.6
870.665	-37.03
870.838	-94.38
871.011	-161.96
871.185	-102.57
871.358	-32.94
871.531	-73.9
871.704	-24.75
871.877	5.97
872.05	-16.55
872.223	-151.72
872.396	51.03
872.569	5.97
872.742	-108.71
872.915	14.17
873.088	-69.8
873.261	-118.95
873.434	55.12
873.607	-96.43
873.78	94.04
873.953	-53.42
874.126	14.17
874.299	91.99
874.471	-100.52
874.644	-43.18
874.817	61.27
874.99	79.7
875.163	-18.6
875.335	51.03
875.508	-6.31
875.681	89.94
875.853	-53.42
876.026	-24.75
876.199	12.12
876.371	-73.9
876.544	-32.94
876.717	-2.22
876.889	-71.85
877.062	63.32
877.234	-145.58
877.407	-110.76
877.579	38.74
877.752	-24.75
877.924	38.74
878.097	-73.9
878.269	14.17
878.442	65.36
878.614	-8.36
878.786	12.12
878.959	10.07
879.131	12.12
879.303	-100.52
879.476	-49.32
879.648	85.84
879.82	-22.7
879.993	-147.62
880.165	-18.6
880.337	-104.62
880.509	-75.95
880.681	-106.67
880.854	24.4
881.026	81.75
881.198	87.89
881.37	10.07
881.542	48.98
881.714	-12.46
881.886	-43.18
882.058	-45.23
882.23	-20.65
882.402	18.26
882.574	36.69
882.746	34.64
882.918	59.22
883.09	75.6
883.262	46.93
883.434	-24.75
883.606	38.74
883.778	57.17
883.95	149.33
884.122	-55.47
884.293	57.17
884.465	-2.22
884.637	1.88
884.809	-6.31
884.98	-8.36
885.152	18.26
885.324	-39.08
885.496	-77.99
885.667	-20.65
885.839	8.02
886.011	75.6
886.182	-10.41
886.354	42.84
886.525	-20.65
886.697	-20.65
886.869	-80.04
887.04	-49.32
887.212	112.47
887.383	100.18
887.555	-14.51
887.726	-106.67
887.897	-47.27
888.069	-53.42
888.24	48.98
888.412	-67.75
888.583	-61.61
888.754	-55.47
888.926	-168.1
889.097	-63.66
889.268	-100.52
889.44	-6.31
889.611	-94.38
889.782	-84.14
889.953	-43.18
890.125	67.41
890.296	-123.05
890.467	-47.27
890.638	-61.61
890.809	-12.46
890.98	-41.13
891.151	42.84
891.323	81.75
891.494	-80.04
891.665	22.36
891.836	-77.99
892.007	-18.6
892.178	-16.55
892.349	-16.55
892.52	-141.48
892.691	-45.23
892.862	-16.55
893.032	-129.19
893.203	-57.51
893.374	-24.75
893.545	61.27
893.716	-73.9
893.887	3.93
894.057	-0.17
894.228	-92.33
894.399	-84.14
894.57	57.17
894.74	14.17
894.911	1.88
895.082	-32.94
895.253	-18.6
895.423	12.12
895.594	-45.23
895.764	44.88
895.935	-100.52
896.106	-10.41
896.276	-77.99
896.447	-10.41
896.617	-121
896.788	-55.47
896.958	-102.57
897.129	-170.15
897.299	-100.52
897.47	79.7
897.64	106.32
897.81	-8.36
897.981	73.56
898.151	-84.14
898.322	18.26
898.492	16.21
898.662	-55.47
898.832	-12.46
899.003	-96.43
899.173	53.08
899.343	-49.32
899.513	-102.57
