Data from USB4F104151__40__11-26-33-092.txt Node

Date: Wed Feb 26 11:26:33 EST 2025
User: louis
Spectrometer: USB4F10415
Trigger mode: 4
Integration Time (sec): 1.000000E-1
Scans to average: 1
Electric dark correction enabled: true
Nonlinearity correction enabled: false
Boxcar width: 0
XAxis mode: Wavelengths
Number of Pixels in Spectrum: 3648
>>>>>Begin Spectral Data<<<<<
178.204	-376.31
178.424	-376.31
178.644	-376.31
178.864	-374.27
179.084	-402.94
179.304	33.28
179.524	-34.3
179.744	-48.64
179.964	47.62
180.184	20.99
180.404	76.29
180.624	-17.92
180.844	-3.58
181.064	-44.54
181.283	-67.07
181.503	-22.02
181.723	59.9
181.943	-134.65
182.163	219.64
182.383	-1.54
182.602	39.42
182.822	31.23
183.042	104.96
183.262	-7.68
183.482	-48.64
183.701	35.33
183.921	86.53
184.141	-19.97
184.361	80.38
184.58	45.57
184.8	80.38
185.02	-13.82
185.239	35.33
185.459	82.43
185.679	160.25
185.898	-22.02
186.118	68.09
186.338	82.43
186.557	113.15
186.777	-71.17
186.997	27.14
187.216	2.56
187.436	166.4
187.655	68.09
187.875	76.29
188.095	86.53
188.314	137.73
188.534	86.53
188.753	-101.89
188.973	104.96
189.192	289.28
189.412	70.14
189.631	29.18
189.851	74.24
190.07	145.92
190.29	20.99
190.509	14.85
190.729	29.18
190.948	80.38
191.168	285.18
191.387	121.34
191.607	-9.73
191.826	96.77
192.045	43.52
192.265	-22.02
192.484	64
192.704	43.52
192.923	-1.54
193.142	178.69
193.362	45.57
193.581	164.35
193.8	78.33
194.02	90.62
194.239	47.62
194.458	82.43
194.678	27.14
194.897	37.38
195.116	84.48
195.335	27.14
195.555	-3.58
195.774	-17.92
195.993	100.86
196.212	-9.73
196.432	70.14
196.651	41.47
196.87	53.76
197.089	276.99
197.308	150.01
197.528	123.39
197.747	-60.93
197.966	51.71
198.185	135.68
198.404	51.71
198.623	156.16
198.842	133.63
199.062	123.39
199.281	119.29
199.5	27.14
199.719	107.01
199.938	33.28
200.157	96.77
200.376	141.82
200.595	164.35
200.814	158.21
201.033	51.71
201.252	172.54
201.471	37.38
201.69	123.39
201.909	74.24
202.128	100.86
202.347	141.82
202.566	72.19
202.785	-75.26
203.004	12.8
203.223	250.36
203.442	76.29
203.661	31.23
203.879	74.24
204.098	127.49
204.317	31.23
204.536	102.91
204.755	96.77
204.974	145.92
205.193	-42.5
205.411	131.58
205.63	107.01
205.849	82.43
206.068	10.75
206.287	-24.06
206.505	143.87
206.724	18.94
206.943	16.9
207.162	33.28
207.381	35.33
207.599	-75.26
207.818	94.72
208.037	12.8
208.255	37.38
208.474	143.87
208.693	-11.78
208.911	102.91
209.13	195.07
209.349	115.2
209.567	109.05
209.786	82.43
210.005	135.68
210.223	64
210.442	-81.41
210.661	57.86
210.879	102.91
211.098	57.86
211.316	55.81
211.535	127.49
211.753	43.52
211.972	66.05
212.191	109.05
212.409	25.09
212.628	121.34
212.846	-24.06
213.065	25.09
213.283	152.06
213.502	20.99
213.72	47.62
213.938	86.53
214.157	-30.21
214.375	125.44
214.594	25.09
214.812	57.86
215.031	4.61
215.249	0.51
215.467	55.81
215.686	8.7
215.904	121.34
216.122	18.94
216.341	252.41
216.559	51.71
216.778	104.96
216.996	166.4
217.214	14.85
217.432	6.66
217.651	-44.54
217.869	64
218.087	109.05
218.306	18.94
218.524	90.62
218.742	66.05
218.96	115.2
219.179	47.62
219.397	61.95
219.615	227.84
219.833	80.38
220.051	-28.16
220.27	180.73
220.488	98.81
220.706	20.99
220.924	-34.3
221.142	74.24
221.36	90.62
221.578	107.01
221.796	37.38
222.015	92.67
222.233	10.75
222.451	195.07
222.669	-3.58
222.887	70.14
223.105	33.28
223.323	23.04
223.541	6.66
223.759	43.52
223.977	94.72
224.195	223.74
224.413	43.52
224.631	49.66
224.849	84.48
225.067	201.21
225.285	45.57
225.503	-24.06
225.721	-105.98
225.939	72.19
226.157	33.28
226.375	205.31
226.592	20.99
226.81	80.38
227.028	37.38
227.246	127.49
227.464	25.09
227.682	147.97
227.9	100.86
228.117	84.48
228.335	117.25
228.553	70.14
228.771	20.99
228.989	29.18
229.206	184.83
229.424	90.62
229.642	72.19
229.86	59.9
230.077	147.97
230.295	20.99
230.513	43.52
230.731	98.81
230.948	184.83
231.166	168.45
231.384	-36.35
231.601	64
231.819	156.16
232.037	55.81
232.254	47.62
232.472	39.42
232.689	4.61
232.907	152.06
233.125	-13.82
233.342	72.19
233.56	-9.73
233.777	4.61
233.995	31.23
234.213	76.29
234.43	119.29
234.648	39.42
234.865	16.9
235.083	84.48
235.3	113.15
235.518	88.57
235.735	80.38
235.953	98.81
236.17	20.99
236.388	-32.26
236.605	10.75
236.822	51.71
237.04	152.06
237.257	88.57
237.475	-44.54
237.692	20.99
237.909	94.72
238.127	-30.21
238.344	141.82
238.562	102.91
238.779	12.8
238.996	6.66
239.214	45.57
239.431	72.19
239.648	70.14
239.865	51.71
240.083	156.16
240.3	35.33
240.517	-5.63
240.735	47.62
240.952	107.01
241.169	10.75
241.386	76.29
241.603	39.42
241.821	-13.82
242.038	90.62
242.255	174.59
242.472	-22.02
242.689	47.62
242.907	119.29
243.124	53.76
243.341	-15.87
243.558	27.14
243.775	4.61
243.992	-48.64
244.209	72.19
244.426	213.5
244.643	80.38
244.86	39.42
245.078	88.57
245.295	72.19
245.512	98.81
245.729	4.61
245.946	147.97
246.163	43.52
246.38	25.09
246.597	29.18
246.814	61.95
247.031	-1.54
247.248	45.57
247.464	90.62
247.681	84.48
247.898	121.34
248.115	90.62
248.332	57.86
248.549	131.58
248.766	188.93
248.983	111.1
249.2	55.81
249.417	137.73
249.633	16.9
249.85	96.77
250.067	29.18
250.284	45.57
250.501	104.96
250.717	115.2
250.934	-52.74
251.151	66.05
251.368	-56.83
251.585	31.23
251.801	84.48
252.018	-7.68
252.235	133.63
252.451	-62.98
252.668	53.76
252.885	184.83
253.102	94.72
253.318	72.19
253.535	25.09
253.752	-13.82
253.968	-71.17
254.185	-13.82
254.401	111.1
254.618	127.49
254.835	-17.92
255.051	156.16
255.268	64
255.484	147.97
255.701	66.05
255.917	113.15
256.134	14.85
256.351	100.86
256.567	-52.74
256.784	70.14
257	-46.59
257.217	164.35
257.433	102.91
257.65	49.66
257.866	111.1
258.082	12.8
258.299	-26.11
258.515	80.38
258.732	70.14
258.948	29.18
259.165	10.75
259.381	-65.02
259.597	133.63
259.814	53.76
260.03	-22.02
260.246	4.61
260.463	184.83
260.679	119.29
260.895	0.51
261.112	37.38
261.328	33.28
261.544	96.77
261.761	215.55
261.977	-34.3
262.193	-7.68
262.409	98.81
262.626	59.9
262.842	-22.02
263.058	16.9
263.274	104.96
263.49	127.49
263.707	37.38
263.923	39.42
264.139	-50.69
264.355	59.9
264.571	197.12
264.787	-13.82
265.004	145.92
265.22	-7.68
265.436	-28.16
265.652	94.72
265.868	92.67
266.084	41.47
266.3	55.81
266.516	-38.4
266.732	80.38
266.948	31.23
267.164	51.71
267.38	147.97
267.596	166.4
267.812	160.25
268.028	45.57
268.244	6.66
268.46	119.29
268.676	51.71
268.892	29.18
269.108	-71.17
269.324	25.09
269.54	25.09
269.756	100.86
269.972	-110.08
270.188	25.09
270.403	-69.12
270.619	39.42
270.835	74.24
271.051	33.28
271.267	-3.58
271.483	-9.73
271.698	158.21
271.914	117.25
272.13	80.38
272.346	57.86
272.562	68.09
272.777	96.77
272.993	47.62
273.209	57.86
273.425	109.05
273.64	-34.3
273.856	111.1
274.072	-36.35
274.287	-38.4
274.503	82.43
274.719	14.85
274.934	-11.78
275.15	-44.54
275.366	49.66
275.581	57.86
275.797	47.62
276.012	47.62
276.228	-34.3
276.444	4.61
276.659	170.49
276.875	-34.3
277.09	80.38
277.306	82.43
277.521	49.66
277.737	94.72
277.952	195.07
278.168	111.1
278.383	59.9
278.599	80.38
278.814	107.01
279.03	49.66
279.245	174.59
279.461	25.09
279.676	90.62
279.892	-52.74
280.107	35.33
280.322	2.56
280.538	57.86
280.753	2.56
280.969	37.38
281.184	31.23
281.399	197.12
281.615	-11.78
281.83	147.97
282.045	-24.06
282.26	-13.82
282.476	45.57
282.691	160.25
282.906	47.62
283.122	-54.78
283.337	8.7
283.552	33.28
283.767	-30.21
283.983	37.38
284.198	29.18
284.413	14.85
284.628	0.51
284.843	68.09
285.058	104.96
285.274	2.56
285.489	0.51
285.704	94.72
285.919	39.42
286.134	12.8
286.349	143.87
286.564	-9.73
286.779	135.68
286.995	102.91
287.21	47.62
287.425	92.67
287.64	-15.87
287.855	88.57
288.07	-22.02
288.285	47.62
288.5	188.93
288.715	117.25
288.93	78.33
289.145	0.51
289.36	143.87
289.575	-5.63
289.79	96.77
290.004	31.23
290.219	82.43
290.434	104.96
290.649	20.99
290.864	-75.26
291.079	133.63
291.294	66.05
291.509	150.01
291.724	6.66
291.938	-40.45
292.153	37.38
292.368	6.66
292.583	131.58
292.798	121.34
293.012	39.42
293.227	109.05
293.442	-85.5
293.657	123.39
293.871	72.19
294.086	27.14
294.301	190.97
294.516	88.57
294.73	53.76
294.945	-58.88
295.16	80.38
295.374	180.73
295.589	45.57
295.804	-9.73
296.018	59.9
296.233	166.4
296.447	2.56
296.662	43.52
296.877	131.58
297.091	109.05
297.306	-3.58
297.52	100.86
297.735	45.57
297.949	25.09
298.164	41.47
298.378	66.05
298.593	-54.78
298.807	-3.58
299.022	80.38
299.236	115.2
299.451	-1.54
299.665	-52.74
299.88	-38.4
300.094	43.52
300.309	31.23
300.523	74.24
300.737	8.7
300.952	104.96
301.166	135.68
301.381	66.05
301.595	8.7
301.809	117.25
302.024	68.09
302.238	27.14
302.452	127.49
302.667	49.66
302.881	172.54
303.095	102.91
303.309	100.86
303.524	-48.64
303.738	20.99
303.952	-28.16
304.166	119.29
304.381	-101.89
304.595	203.26
304.809	-58.88
305.023	59.9
305.237	98.81
305.452	92.67
305.666	111.1
305.88	100.86
306.094	113.15
306.308	96.77
306.522	107.01
306.736	88.57
306.95	115.2
307.164	-9.73
307.379	27.14
307.593	86.53
307.807	131.58
308.021	113.15
308.235	84.48
308.449	-85.5
308.663	41.47
308.877	272.89
309.091	51.71
309.305	119.29
309.519	-44.54
309.733	88.57
309.947	-144.89
310.161	68.09
310.374	172.54
310.588	109.05
310.802	-24.06
311.016	-34.3
311.23	78.33
311.444	-11.78
311.658	51.71
311.872	162.3
312.085	49.66
312.299	86.53
312.513	94.72
312.727	123.39
312.941	-9.73
313.154	49.66
313.368	-22.02
313.582	61.95
313.796	107.01
314.009	10.75
314.223	107.01
314.437	113.15
314.651	47.62
314.864	39.42
315.078	2.56
315.292	-30.21
315.505	16.9
315.719	98.81
315.933	100.86
316.146	35.33
316.36	-26.11
316.573	184.83
316.787	133.63
317.001	39.42
317.214	-15.87
317.428	80.38
317.641	2.56
317.855	47.62
318.068	64
318.282	109.05
318.495	199.16
318.709	82.43
318.922	14.85
319.136	121.34
319.349	61.95
319.563	53.76
319.776	94.72
319.99	-30.21
320.203	96.77
320.417	53.76
320.63	12.8
320.843	145.92
321.057	90.62
321.27	125.44
321.483	94.72
321.697	102.91
321.91	123.39
322.124	61.95
322.337	131.58
322.55	-42.5
322.763	76.29
322.977	-1.54
323.19	61.95
323.403	70.14
323.617	104.96
323.83	117.25
324.043	33.28
324.256	76.29
324.469	25.09
324.683	170.49
324.896	35.33
325.109	51.71
325.322	-110.08
325.535	141.82
325.748	137.73
325.962	31.23
326.175	88.57
326.388	117.25
326.601	113.15
326.814	80.38
327.027	57.86
327.24	104.96
327.453	-148.99
327.666	20.99
327.879	156.16
328.092	125.44
328.305	154.11
328.518	37.38
328.731	-13.82
328.944	55.81
329.157	61.95
329.37	-52.74
329.583	172.54
329.796	127.49
330.009	10.75
330.222	123.39
330.435	127.49
330.648	49.66
330.861	55.81
331.073	80.38
331.286	102.91
331.499	68.09
331.712	2.56
331.925	29.18
332.138	82.43
332.35	154.11
332.563	-15.87
332.776	137.73
332.989	-62.98
333.202	74.24
333.414	66.05
333.627	20.99
333.84	-3.58
334.053	102.91
334.265	10.75
334.478	33.28
334.691	-30.21
334.903	55.81
335.116	37.38
335.329	14.85
335.541	47.62
335.754	180.73
335.966	86.53
336.179	29.18
336.392	74.24
336.604	43.52
336.817	92.67
337.029	53.76
337.242	37.38
337.454	49.66
337.667	-7.68
337.88	150.01
338.092	84.48
338.305	88.57
338.517	-42.5
338.729	-19.97
338.942	160.25
339.154	-3.58
339.367	-54.78
339.579	111.1
339.792	-26.11
340.004	64
340.217	51.71
340.429	18.94
340.641	-65.02
340.854	27.14
341.066	39.42
341.278	188.93
341.491	252.41
341.703	43.52
341.915	-7.68
342.128	66.05
342.34	72.19
342.552	-19.97
342.764	107.01
342.977	-7.68
343.189	145.92
343.401	70.14
343.613	-9.73
343.826	12.8
344.038	31.23
344.25	84.48
344.462	18.94
344.674	59.9
344.886	4.61
345.099	43.52
345.311	82.43
345.523	64
345.735	29.18
345.947	37.38
346.159	119.29
346.371	-1.54
346.583	-19.97
346.795	156.16
347.007	55.81
347.219	152.06
347.431	127.49
347.643	154.11
347.855	20.99
348.067	150.01
348.279	-13.82
348.491	59.9
348.703	78.33
348.915	6.66
349.127	-138.75
349.339	88.57
349.551	25.09
349.763	55.81
349.975	18.94
350.187	127.49
350.399	182.78
350.61	78.33
350.822	2.56
351.034	29.18
351.246	47.62
351.458	94.72
351.669	160.25
351.881	137.73
352.093	217.6
352.305	160.25
352.517	72.19
352.728	115.2
352.94	82.43
353.152	96.77
353.363	16.9
353.575	188.93
353.787	115.2
353.999	119.29
354.21	193.02
354.422	-36.35
354.633	10.75
354.845	76.29
355.057	162.3
355.268	104.96
355.48	78.33
355.692	-46.59
355.903	115.2
356.115	-48.64
356.326	-65.02
356.538	190.97
356.749	78.33
356.961	90.62
357.172	74.24
357.384	-11.78
357.595	279.04
357.807	6.66
358.018	33.28
358.23	37.38
358.441	203.26
358.653	70.14
358.864	6.66
359.075	35.33
359.287	70.14
359.498	201.21
359.709	90.62
359.921	37.38
360.132	100.86
360.344	82.43
360.555	-5.63
360.766	78.33
360.977	68.09
361.189	164.35
361.4	8.7
361.611	158.21
361.823	90.62
362.034	88.57
362.245	-19.97
362.456	-11.78
362.667	76.29
362.879	-11.78
363.09	96.77
363.301	66.05
363.512	33.28
363.723	10.75
363.935	-44.54
364.146	100.86
364.357	4.61
364.568	92.67
364.779	6.66
364.99	160.25
365.201	-40.45
365.412	158.21
365.623	-52.74
365.834	102.91
366.045	53.76
366.256	78.33
366.467	82.43
366.678	12.8
366.889	39.42
367.1	-9.73
367.311	98.81
367.522	-36.35
367.733	37.38
367.944	111.1
368.155	111.1
368.366	121.34
368.577	82.43
368.788	45.57
368.999	-71.17
369.209	39.42
369.42	256.51
369.631	229.88
369.842	150.01
370.053	0.51
370.264	82.43
370.474	53.76
370.685	68.09
370.896	14.85
371.107	199.16
371.317	96.77
371.528	31.23
371.739	25.09
371.95	61.95
372.16	55.81
372.371	-30.21
372.582	59.9
372.792	90.62
373.003	84.48
373.214	12.8
373.424	41.47
373.635	4.61
373.846	152.06
374.056	64
374.267	47.62
374.477	150.01
374.688	-36.35
374.898	98.81
375.109	25.09
375.319	27.14
375.53	127.49
375.74	80.38
375.951	2.56
376.161	82.43
376.372	107.01
376.582	31.23
376.793	131.58
377.003	88.57
377.214	-32.26
377.424	135.68
377.635	27.14
377.845	43.52
378.055	133.63
378.266	-24.06
378.476	45.57
378.686	76.29
378.897	72.19
379.107	61.95
379.317	121.34
379.528	-17.92
379.738	102.91
379.948	-42.5
380.158	104.96
380.369	12.8
380.579	94.72
380.789	57.86
380.999	125.44
381.21	174.59
381.42	188.93
381.63	76.29
381.84	41.47
382.05	139.77
382.261	139.77
382.471	207.36
382.681	14.85
382.891	156.16
383.101	121.34
383.311	-9.73
383.521	8.7
383.731	145.92
383.941	123.39
384.151	39.42
384.361	8.7
384.571	113.15
384.781	123.39
384.991	209.4
385.201	213.5
385.411	94.72
385.621	133.63
385.831	135.68
386.041	158.21
386.251	78.33
386.461	74.24
386.671	80.38
386.881	98.81
387.091	104.96
387.301	119.29
387.511	16.9
387.72	80.38
387.93	131.58
388.14	-26.11
388.35	51.71
388.56	66.05
388.769	150.01
388.979	47.62
389.189	27.14
389.399	45.57
389.609	137.73
389.818	98.81
390.028	49.66
390.238	68.09
390.447	2.56
390.657	94.72
390.867	80.38
391.076	-56.83
391.286	27.14
391.496	29.18
391.705	107.01
391.915	125.44
392.125	127.49
392.334	47.62
392.544	197.12
392.753	20.99
392.963	-42.5
393.172	53.76
393.382	55.81
393.591	193.02
393.801	64
394.01	244.22
394.22	107.01
394.429	25.09
394.639	88.57
394.848	66.05
395.058	31.23
395.267	92.67
395.477	68.09
395.686	137.73
395.895	201.21
396.105	205.31
396.314	55.81
396.524	33.28
396.733	-9.73
396.942	98.81
397.152	88.57
397.361	168.45
397.57	94.72
397.78	78.33
397.989	82.43
398.198	180.73
398.407	74.24
398.617	113.15
398.826	82.43
399.035	53.76
399.244	96.77
399.453	109.05
399.663	96.77
399.872	51.71
400.081	-11.78
400.29	193.02
400.499	0.51
400.708	170.49
400.917	57.86
401.127	-11.78
401.336	-3.58
401.545	188.93
401.754	174.59
401.963	84.48
402.172	18.94
402.381	10.75
402.59	47.62
402.799	64
403.008	119.29
403.217	14.85
403.426	131.58
403.635	-42.5
403.844	25.09
404.053	-9.73
404.262	23.04
404.471	207.36
404.68	92.67
404.888	47.62
405.097	64
405.306	102.91
405.515	125.44
405.724	102.91
405.933	143.87
406.142	70.14
406.35	68.09
406.559	104.96
406.768	107.01
406.977	195.07
407.185	72.19
407.394	84.48
407.603	-46.59
407.812	43.52
408.02	152.06
408.229	154.11
408.438	111.1
408.646	55.81
408.855	0.51
409.064	119.29
409.272	74.24
409.481	94.72
409.69	16.9
409.898	-42.5
410.107	135.68
410.315	55.81
410.524	-75.26
410.733	109.05
410.941	51.71
411.15	76.29
411.358	150.01
411.567	150.01
411.775	145.92
411.984	121.34
412.192	96.77
412.401	43.52
412.609	195.07
412.818	115.2
413.026	131.58
413.234	49.66
413.443	37.38
413.651	-52.74
413.86	82.43
414.068	195.07
414.276	236.03
414.485	-11.78
414.693	154.11
414.901	233.98
415.11	72.19
415.318	64
415.526	90.62
415.734	119.29
415.943	76.29
416.151	262.65
416.359	104.96
416.567	150.01
416.776	168.45
416.984	131.58
417.192	162.3
417.4	98.81
417.608	16.9
417.817	-22.02
418.025	113.15
418.233	158.21
418.441	-22.02
418.649	29.18
418.857	164.35
419.065	141.82
419.273	-3.58
419.481	76.29
419.689	18.94
419.897	55.81
420.105	18.94
420.313	143.87
420.521	164.35
420.729	117.25
420.937	25.09
421.145	-7.68
421.353	180.73
421.561	207.36
421.769	80.38
421.977	39.42
422.185	111.1
422.393	-65.02
422.601	176.64
422.809	57.86
423.017	66.05
423.224	53.76
423.432	154.11
423.64	53.76
423.848	129.53
424.056	80.38
424.263	127.49
424.471	35.33
424.679	123.39
424.887	53.76
425.094	215.55
425.302	166.4
425.51	135.68
425.718	133.63
425.925	84.48
426.133	-24.06
426.341	281.08
426.548	117.25
426.756	33.28
426.964	180.73
427.171	-7.68
427.379	121.34
427.586	92.67
427.794	143.87
428.001	168.45
428.209	109.05
428.417	156.16
428.624	168.45
428.832	147.97
429.039	156.16
429.247	123.39
429.454	74.24
429.662	195.07
429.869	154.11
430.076	86.53
430.284	221.69
430.491	217.6
430.699	84.48
430.906	244.22
431.114	147.97
431.321	135.68
431.528	109.05
431.736	178.69
431.943	145.92
432.15	256.51
432.358	244.22
432.565	289.28
432.772	72.19
432.979	236.03
433.187	119.29
433.394	281.08
433.601	139.77
433.808	248.32
434.016	240.12
434.223	268.8
434.43	256.51
434.637	354.81
434.844	299.52
435.052	279.04
435.259	369.15
435.466	328.19
435.673	303.61
435.88	369.15
436.087	371.19
436.294	332.28
436.501	293.37
436.708	430.59
436.915	260.6
437.122	455.16
437.329	289.28
437.537	328.19
437.743	424.44
437.95	502.26
438.157	455.16
438.364	377.34
438.571	444.92
438.778	494.07
438.985	575.99
439.192	543.22
439.399	489.98
439.606	522.74
439.813	565.75
440.02	668.15
440.227	711.16
440.433	571.9
440.64	647.67
440.847	541.18
441.054	694.77
441.261	770.55
441.467	784.88
441.674	547.32
441.881	772.6
442.088	741.88
442.294	823.8
442.501	840.18
442.708	848.37
442.914	852.47
443.121	928.24
443.328	893.43
443.534	1004.02
443.741	1100.27
443.948	956.91
444.154	1174
444.361	1227.25
444.568	1120.75
444.774	1161.71
444.981	1044.98
445.187	1260.01
445.394	1370.6
445.6	1247.72
445.807	1511.91
446.013	1485.29
446.22	1386.99
446.426	1589.74
446.633	1597.93
446.839	1829.35
447.046	1546.73
447.252	1829.35
447.459	1882.6
447.665	1817.06
447.871	1933.79
448.078	2200.03
448.284	2122.21
448.491	2191.84
448.697	2292.19
448.903	2363.87
449.11	2243.04
449.316	2370.01
449.522	2603.48
449.728	2738.65
449.935	2775.51
450.141	2755.03
450.347	3041.75
450.553	2992.59
450.76	3133.9
450.966	3226.06
451.172	3299.79
451.378	3482.06
451.584	3623.37
451.791	3809.73
451.997	3715.53
452.203	3985.86
452.409	4049.35
452.615	4372.93
452.821	4252.1
453.027	4241.86
453.233	4759.99
453.44	4700.6
453.646	4907.45
453.852	5138.87
454.058	5349.81
454.264	5327.28
454.47	5743.02
454.676	5947.81
454.882	6377.89
455.088	6076.84
455.294	6582.68
455.5	6830.49
455.705	7063.96
455.911	7121.3
456.117	7502.22
456.323	7500.17
456.529	7772.55
456.735	8472.96
456.941	8614.27
457.147	8937.85
457.352	9058.68
457.558	9306.48
457.764	10029.41
457.97	10414.43
458.176	10629.47
458.381	11311.44
458.587	11387.22
458.793	11866.44
458.999	11921.74
459.204	13355.32
459.41	13705.52
459.616	13736.24
459.821	14410.02
460.027	14999.84
460.233	15575.31
460.438	15612.18
460.644	16865.53
460.85	16599.3
461.055	17637.62
461.261	18622.69
461.466	18073.84
461.672	18346.22
461.878	20469.96
462.083	20089.04
462.289	20633.8
462.494	21592.25
462.7	21645.49
462.905	21954.74
463.111	23998.61
463.316	25161.86
463.522	25589.88
463.727	26421.36
463.932	27328.61
464.138	28133.46
464.343	29202.5
464.549	29124.68
464.754	31799.32
464.959	31975.45
465.165	32806.92
465.37	32729.1
465.575	32534.54
465.781	35194.85
465.986	35784.67
466.191	35129.32
466.397	35663.84
466.602	34584.56
466.807	36915.15
467.012	37638.08
467.218	37787.58
467.423	38174.65
467.628	39106.48
467.833	41346.95
468.038	40755.09
468.244	39980.96
468.449	42239.87
468.654	40984.46
468.859	41004.94
469.064	41205.64
469.269	40040.35
469.474	40288.15
469.679	41557.89
469.885	40611.73
470.09	40753.04
470.295	41299.85
470.5	40275.87
470.705	40935.31
470.91	39516.07
471.115	39040.94
471.32	40050.59
471.525	39817.12
471.73	38365.11
471.935	37791.68
472.139	36696.02
472.344	37222.34
472.549	36704.21
472.754	35968.99
472.959	34768.88
473.164	33878.01
473.369	33091.59
473.574	34283.51
473.778	33470.47
473.983	33304.58
474.188	32555.02
474.393	31111.21
474.598	31180.84
474.802	30023.73
475.007	29988.92
475.212	29646.91
475.417	28555.34
475.621	28250.19
475.826	27988.05
476.031	27490.4
476.235	26863.72
476.44	26663.02
476.645	25823.35
476.849	25550.97
477.054	25122.94
477.259	24590.47
477.463	24727.69
477.668	23713.94
477.872	23955.6
478.077	23011.49
478.282	22575.27
478.486	22796.45
478.691	22233.26
478.895	21928.11
479.1	21915.83
479.304	21663.93
479.509	20793.54
479.713	21215.42
479.918	20725.96
480.122	20404.42
480.326	20555.97
480.531	20383.94
480.735	20048.08
480.94	19839.19
481.144	20459.72
481.348	19544.28
481.553	19671.25
481.757	18858.21
481.961	19054.81
482.166	19089.63
482.37	19134.68
482.574	18720.99
482.778	18462.95
482.983	18819.3
483.187	18411.75
483.391	18309.35
483.595	17967.34
483.8	17717.49
484.004	17797.36
484.208	18030.83
484.412	17567.99
484.616	17215.74
484.821	17076.48
485.025	16777.47
485.229	17015.04
485.433	16587.01
485.637	16292.1
485.841	15929.61
486.045	15855.89
486.249	15526.16
486.453	15300.89
486.657	14956.83
486.861	15087.9
487.065	14569.76
487.269	14557.47
487.473	14115.11
487.677	14262.57
487.881	14084.39
488.085	13609.26
488.289	13656.37
488.493	13123.9
488.697	13234.49
488.901	12773.69
489.105	12312.9
489.309	12333.38
489.512	12345.67
489.716	11786.57
489.92	11669.84
490.124	11573.58
490.328	11401.55
490.531	11069.78
490.735	10994.01
490.939	10627.42
491.143	10459.49
491.346	10176.87
491.55	10379.62
491.754	9943.4
491.958	9662.83
492.161	9765.23
492.365	9537.9
492.569	9372.02
492.772	8989.05
492.976	9281.91
493.18	8868.22
493.383	8929.66
493.587	8694.14
493.79	8751.48
493.994	8462.72
494.197	8454.53
494.401	8274.31
494.605	8171.91
494.808	8280.45
495.012	8208.77
495.215	8184.2
495.419	8143.24
495.622	7838.09
495.825	7805.32
496.029	7930.25
496.232	7883.14
496.436	7666.06
496.639	7825.8
496.843	7633.29
497.046	7520.65
497.249	7715.21
497.453	7719.31
497.656	7664.01
497.859	7610.76
498.063	7666.06
498.266	7799.18
498.469	7477.65
498.673	7403.92
498.876	7692.68
499.079	7561.61
499.282	7707.02
499.485	8135.04
499.689	7661.96
499.892	8110.47
500.095	7807.37
500.298	7842.18
500.501	7747.98
500.705	7993.73
500.908	8057.22
501.111	8143.24
501.314	8118.66
501.517	8374.66
501.72	8358.27
501.923	8212.87
502.126	8487.29
502.329	8718.71
502.532	8767.87
502.735	8765.82
502.938	8851.83
503.141	8700.28
503.344	8780.15
503.547	9146.74
503.75	9159.03
503.953	9308.53
504.156	9257.33
504.359	9597.29
504.562	9533.81
504.765	9814.38
504.968	10000.74
505.17	10084.71
505.373	10047.85
505.576	10621.28
505.779	10363.23
505.982	10643.81
506.185	10852.7
506.387	11200.85
506.59	11147.61
506.793	11407.7
506.996	11262.29
507.198	11798.86
507.401	11985.23
507.604	12112.2
507.807	12568.9
508.009	12572.99
508.212	12994.87
508.415	13080.89
508.617	13455.67
508.82	13564.21
509.022	13664.56
509.225	14203.18
509.428	14596.39
509.63	14674.21
509.833	14926.11
510.035	15651.09
510.238	15687.95
510.44	15864.08
510.643	16374.02
510.845	16654.59
511.048	16769.28
511.25	17293.56
511.453	17535.22
511.655	18495.72
511.858	18424.04
512.06	19103.96
512.262	19392.73
512.465	19701.97
512.667	20060.37
512.87	20529.35
513.072	20994.24
513.274	21354.68
513.477	22063.28
513.679	22438.06
513.881	22859.94
514.084	23400.6
514.286	23963.79
514.488	24440.97
514.69	25335.93
514.893	25628.79
515.095	26480.75
515.297	26548.33
515.499	27132
515.701	28094.55
515.904	28409.93
516.106	28921.93
516.308	29628.48
516.51	30306.35
516.712	30683.18
516.914	31168.55
517.116	32069.65
517.318	32557.07
517.52	33013.77
517.722	33691.65
517.925	34476.02
518.127	35225.57
518.329	35436.52
518.531	35600.35
518.733	36775.89
518.935	37480.39
519.136	37384.13
519.338	38606.77
519.54	39147.43
519.742	39983.01
519.944	40050.59
520.146	40994.7
520.348	41406.34
520.55	41817.99
520.752	42567.54
520.954	43306.86
521.155	43450.22
521.357	44119.9
521.559	44439.39
521.761	45594.44
521.963	45262.67
522.164	45913.92
522.366	46657.34
522.568	47238.96
522.77	47556.39
522.971	47839.01
523.173	47658.79
523.375	48287.52
523.576	48568.09
523.778	48543.52
523.98	49413.9
524.181	49282.83
524.383	49764.1
524.584	50034.44
524.786	49866.5
524.988	49977.09
525.189	50411.26
525.391	50503.42
525.592	50599.68
525.794	50628.35
525.995	50032.39
526.197	50378.5
526.398	50278.14
526.6	50644.73
526.801	50222.85
527.003	50239.23
527.204	50130.69
527.406	50280.19
527.607	49753.86
527.808	49723.15
528.01	48459.55
528.211	49073.94
528.412	49569.55
528.614	48785.18
528.815	48523.04
529.016	48428.83
529.218	47488.81
529.419	47613.74
529.62	47048.5
529.822	46636.86
530.023	46094.14
530.224	46022.47
530.425	45586.25
530.626	44613.46
530.828	44054.37
531.029	44719.96
531.23	43226.99
531.431	43116.4
531.632	42927.98
531.833	42647.41
532.035	42035.07
532.236	41252.75
532.437	41047.95
532.638	40351.64
532.839	40304.54
533.04	39980.96
533.241	39016.36
533.442	38948.78
533.643	37828.54
533.844	37363.65
534.045	37308.36
534.246	36376.53
534.447	36075.48
534.648	35471.33
534.849	35317.73
535.05	34314.23
535.251	34248.69
535.451	33734.65
535.652	33628.16
535.853	32892.94
536.054	32763.92
536.255	32004.12
536.456	30994.47
536.657	31889.43
536.857	30793.77
537.058	30332.98
537.259	30117.94
537.46	29669.44
537.66	29280.32
537.861	28987.46
538.062	28526.67
538.263	27979.86
538.463	27562.08
538.664	27322.46
538.865	27062.37
539.065	26742.89
539.266	26382.45
539.466	26304.62
539.667	25819.25
539.868	25647.22
540.068	25022.59
540.269	24955.01
540.469	24637.58
540.67	24600.71
540.87	24066.19
541.071	23685.27
541.271	23879.83
541.472	23240.86
541.672	22778.02
541.873	22415.53
542.073	22186.16
542.274	22296.75
542.474	21842.1
542.675	21549.24
542.875	21592.25
543.075	21532.86
543.276	20738.24
543.476	20992.19
543.676	20230.35
543.877	20322.51
544.077	20168.91
544.277	19886.29
544.478	19765.46
544.678	19646.68
544.878	19376.34
545.078	19159.26
545.279	18493.67
545.479	18508.01
545.679	18354.41
545.879	18192.62
546.079	18020.59
546.28	17357.05
546.48	17314.04
546.68	17277.18
546.88	17246.46
547.08	17103.1
547.28	16892.16
547.48	16423.17
547.68	16464.13
547.88	16019.72
548.081	16087.31
548.281	15728.91
548.481	15466.77
548.681	15182.1
548.881	15048.99
549.081	14831.9
549.28	14815.52
549.48	14528.8
549.68	14317.86
549.88	14496.03
550.08	13814.06
550.28	13828.4
550.48	13547.83
550.68	13275.45
550.88	13058.36
551.08	13232.44
551.279	13080.89
551.479	12515.65
551.679	12697.92
551.879	12222.79
552.079	12245.32
552.278	11829.58
552.478	11731.28
552.678	11598.16
552.878	11516.24
553.077	11241.81
553.277	10918.23
553.477	11123.03
553.676	10858.84
553.876	10680.67
554.076	10469.73
554.275	10258.79
554.475	10060.13
554.674	9927.02
554.874	9857.39
555.074	9546.09
555.273	9492.85
555.473	9447.79
555.672	9249.14
555.872	9038.2
556.071	8821.11
556.271	8771.96
556.47	8571.26
556.67	8395.14
556.869	8307.07
557.068	8034.69
557.268	8036.74
557.467	7915.91
557.667	7891.34
557.866	7842.18
558.065	7420.3
558.265	7260.56
558.464	7336.34
558.663	7313.81
558.863	6926.74
559.062	7166.35
559.261	6719.9
559.461	6932.89
559.66	6402.46
559.859	6631.83
560.058	6375.84
560.258	6099.36
560.457	6123.94
560.656	6326.69
560.855	5947.81
561.054	6054.31
561.253	5865.89
561.453	5687.72
561.652	5650.86
561.851	5745.06
562.05	5409.2
562.249	5376.43
562.448	5372.33
562.647	5179.82
562.846	5192.11
563.045	5235.12
563.244	5018.04
563.443	4895.16
563.642	4893.11
563.841	4784.57
564.04	4688.31
564.239	4714.94
564.438	4606.39
564.637	4334.01
564.836	4473.28
565.035	4192.7
565.234	4237.76
565.432	4297.15
565.631	4288.96
565.83	4268.48
566.029	3852.74
566.228	4004.29
566.427	4047.3
566.625	3746.25
566.824	3848.65
567.023	3807.69
567.222	3621.32
567.42	3615.18
567.619	3725.77
567.818	3553.74
568.016	3633.61
568.215	3502.54
568.414	3467.72
568.612	3441.1
568.811	3269.07
569.01	3291.6
569.208	3400.14
569.407	3152.34
569.605	3131.86
569.804	3078.61
570.002	3094.99
570.201	2953.68
570.4	3035.6
570.598	2857.43
570.797	2879.96
570.995	2800.09
571.193	2826.71
571.392	2859.48
571.59	2544.09
571.789	2777.56
571.987	2679.26
572.186	2736.6
572.384	2476.51
572.582	2437.59
572.781	2554.33
572.979	2318.81
573.177	2630.1
573.376	2472.41
573.574	2359.77
573.772	2400.73
573.971	2179.55
574.169	2169.31
574.367	2279.9
574.565	2034.14
574.763	2144.74
574.962	2052.58
575.16	1911.27
575.358	2025.95
575.556	1946.08
575.754	1894.88
575.952	1882.6
576.151	1921.51
576.349	1952.23
576.547	1726.95
576.745	1806.82
576.943	1798.63
577.141	1702.37
577.339	1587.69
577.537	1556.97
577.735	1690.09
577.933	1753.57
578.131	1554.92
578.329	1669.61
578.527	1653.22
578.725	1647.08
578.923	1425.9
579.121	1522.15
579.319	1276.4
579.516	1409.51
579.714	1663.46
579.912	1397.23
580.11	1321.45
580.308	1300.97
580.506	1391.08
580.704	1075.7
580.901	1337.84
581.099	1327.6
581.297	1317.36
581.495	1268.2
581.692	1247.72
581.89	1372.65
582.088	1231.34
582.285	1206.77
582.483	1180.14
582.681	1090.03
582.878	1087.98
583.076	1110.51
583.274	1190.38
583.471	1235.44
583.669	969.2
583.866	1114.61
584.064	1063.41
584.262	985.58
584.459	887.28
584.657	956.91
584.854	1012.21
585.052	950.77
585.249	1024.5
585.447	903.67
585.644	860.66
585.841	1049.07
586.039	944.63
586.236	993.78
586.434	856.56
586.631	786.93
586.828	715.25
587.026	870.9
587.223	760.31
587.42	709.11
587.618	813.56
587.815	944.63
588.012	829.94
588.21	752.12
588.407	782.84
588.604	776.69
588.801	680.44
588.999	776.69
589.196	803.32
589.393	664.05
589.59	700.92
589.787	762.36
589.984	770.55
590.182	791.03
590.379	627.19
590.576	731.64
590.773	700.92
590.97	674.29
591.167	686.58
591.364	700.92
591.561	715.25
591.758	752.12
591.955	711.16
592.152	733.68
592.349	680.44
592.546	676.34
592.743	621.05
592.94	690.68
593.137	739.83
593.334	715.25
593.531	803.32
593.727	694.77
593.924	692.73
594.121	721.4
594.318	696.82
594.515	721.4
594.712	795.12
594.908	715.25
595.105	643.57
595.302	748.02
595.499	737.78
595.696	864.75
595.892	676.34
596.089	840.18
596.286	772.6
596.482	952.82
596.679	877.04
596.876	815.6
597.072	848.37
597.269	797.17
597.466	928.24
597.662	918
597.859	858.61
598.055	1004.02
598.252	977.39
598.448	1077.74
598.645	1174
598.841	1051.12
599.038	1315.31
599.234	1327.6
599.431	1186.29
599.627	1421.8
599.824	1339.88
600.02	1360.36
600.217	1380.84
600.413	1464.81
600.609	1532.39
600.806	1800.68
601.002	1714.66
601.198	1608.17
601.395	1786.34
601.591	1884.64
601.787	1987.04
601.984	2161.12
602.18	2015.71
602.376	2030.05
602.572	2167.26
602.769	2337.24
602.965	2357.72
603.161	2476.51
603.357	2621.91
603.553	2707.93
603.75	2701.78
603.946	2775.51
604.142	2902.48
604.338	3138
604.534	3080.66
604.73	3287.5
604.926	3277.26
605.122	3527.11
605.318	3480.01
605.514	3662.28
605.71	3918.28
605.906	3768.77
606.102	3873.22
606.298	4258.24
606.494	4366.78
606.69	4424.12
606.886	4471.23
607.082	4485.56
607.278	4696.5
607.474	4870.58
607.67	5140.91
607.866	4964.79
608.062	5349.81
608.257	5513.64
608.453	5540.27
608.649	5728.68
608.845	5689.77
609.041	5865.89
609.236	6103.46
609.432	6451.61
609.628	6422.94
609.824	6723.99
610.019	6834.58
610.215	7102.87
610.411	7403.92
610.606	7514.51
610.802	7868.81
610.998	7790.99
611.193	8184.2
611.389	8259.97
611.584	8561.02
611.78	8679.8
611.976	8708.48
612.171	9275.76
612.367	9513.33
612.562	9621.87
612.758	9884.01
612.953	10099.05
613.149	10453.34
613.344	10590.56
613.539	11063.64
613.735	11245.91
613.93	11409.75
614.126	11512.14
614.321	12024.14
614.517	12364.1
614.712	12562.75
614.907	12912.95
615.103	13416.76
615.298	13627.7
615.493	14131.5
615.688	14201.13
615.884	15048.99
616.079	14956.83
616.274	15780.11
616.47	15810.83
616.665	16390.41
616.86	16791.81
617.055	16955.65
617.25	17275.13
617.445	18178.28
617.641	18338.02
617.836	18927.84
618.031	18839.78
618.226	19790.03
618.421	20140.24
618.616	20713.67
618.811	21143.74
619.006	21928.11
619.201	22061.23
619.396	22589.61
619.591	22868.13
619.786	23746.71
619.981	23978.13
620.176	24649.86
620.371	25112.7
620.566	25768.05
620.761	26237.04
620.956	26855.53
621.151	26843.24
621.346	28041.3
621.541	27652.19
621.735	28975.17
621.93	28917.83
622.125	29880.38
622.32	29730.87
622.515	30308.4
622.709	31399.97
622.904	31940.63
623.099	31969.3
623.294	33294.34
623.488	33331.2
623.683	33953.79
623.878	34422.77
624.072	35024.87
624.267	35520.48
624.462	36231.13
624.656	36048.86
624.851	37179.34
625.046	37173.19
625.24	38387.64
625.435	38424.5
625.629	39716.77
625.824	39899.04
626.018	40310.68
626.213	40232.86
626.407	41236.36
626.602	41189.26
626.796	42264.44
626.991	42188.67
627.185	42925.94
627.38	42682.23
627.574	43720.55
627.768	43413.35
627.963	43544.42
628.157	43399.02
628.352	44072.8
628.546	44011.36
628.74	44531.54
628.935	43911.01
629.129	44201.82
629.323	43372.39
629.517	43751.27
629.712	43716.45
629.906	43202.41
630.1	42694.52
630.294	42743.67
630.489	42071.93
630.683	41873.28
630.877	40916.88
631.071	40365.98
631.265	39669.67
631.459	39030.7
631.653	38164.41
631.848	37629.89
632.042	36728.78
632.236	36339.67
632.43	34858.99
632.624	33927.16
632.818	33181.7
633.012	31930.39
633.206	30742.57
633.4	30015.54
633.594	29184.07
633.788	28225.62
633.982	27318.37
634.176	26640.49
634.369	25350.27
634.563	24461.45
634.757	23490.71
634.951	22917.28
635.145	22175.92
635.339	20938.94
635.533	20150.48
635.726	19491.03
635.92	18503.91
636.114	18071.79
636.308	17094.91
636.501	16275.72
636.695	15808.78
636.889	15003.93
637.083	14330.15
637.276	13957.42
637.47	13320.5
637.664	12677.44
637.857	12368.2
638.051	11948.36
638.244	11430.23
638.438	10801.5
638.632	10565.98
638.825	9865.58
639.019	9609.58
639.212	9292.15
639.406	8808.83
639.599	8587.64
639.793	8089.99
639.986	7850.38
640.18	7637.39
640.373	7287.18
640.567	6963.61
640.76	6865.3
640.954	6543.77
641.147	6224.29
641.34	5847.46
641.534	5767.59
641.727	5487.02
641.92	5411.25
642.114	5317.04
642.307	4915.64
642.5	4862.39
642.694	4493.76
642.887	4422.08
643.08	4448.7
643.273	4243.9
643.467	3871.17
643.66	3842.5
643.853	3545.55
644.046	3574.22
644.239	3555.79
644.432	3252.69
644.626	3146.19
644.819	2939.35
645.012	3035.6
645.205	2892.24
645.398	2744.79
645.591	2634.2
645.784	2343.39
645.977	2390.49
646.17	2367.96
646.363	2206.17
646.556	2036.19
646.749	2013.67
646.942	1976.8
647.135	2075.1
647.328	1855.97
647.521	1851.88
647.714	1831.4
647.907	1741.29
648.099	1468.91
648.292	1544.68
648.485	1526.25
648.678	1346.03
648.871	1346.03
649.064	1288.68
649.256	1188.33
649.449	1190.38
649.642	1139.18
649.835	1098.22
650.027	1071.6
650.22	1114.61
650.413	889.33
650.605	1024.5
650.798	1061.36
650.991	772.6
651.183	907.76
651.376	842.23
651.568	879.09
651.761	860.66
651.954	889.33
652.146	754.16
652.339	825.84
652.531	748.02
652.724	668.15
652.916	713.21
653.109	512.5
653.301	727.54
653.494	700.92
653.686	668.15
653.879	741.88
654.071	659.96
654.263	545.27
654.456	457.21
654.648	635.38
654.84	545.27
655.033	479.74
655.225	559.61
655.417	399.87
655.61	586.23
655.802	578.04
655.994	629.24
656.186	399.87
656.379	500.22
656.571	268.8
656.763	383.48
656.955	422.39
657.148	332.28
657.34	492.02
657.532	360.95
657.724	352.76
657.916	358.91
658.108	424.44
658.3	356.86
658.492	358.91
658.684	297.47
658.876	369.15
659.068	203.26
659.26	209.4
659.452	186.88
659.644	256.51
659.836	422.39
660.028	213.5
660.22	221.69
660.412	295.42
660.604	342.52
660.796	322.04
660.988	340.47
661.18	332.28
661.372	252.41
661.563	326.14
661.755	264.7
661.947	180.73
662.139	197.12
662.331	256.51
662.522	281.08
662.714	281.08
662.906	203.26
663.097	328.19
663.289	190.97
663.481	78.33
663.673	291.32
663.864	244.22
664.056	240.12
664.247	145.92
664.439	326.14
664.631	244.22
664.822	215.55
665.014	160.25
665.205	186.88
665.397	123.39
665.588	215.55
665.78	199.16
665.971	172.54
666.163	100.86
666.354	244.22
666.546	113.15
666.737	47.62
666.929	133.63
667.12	86.53
667.311	242.17
667.503	158.21
667.694	229.88
667.885	193.02
668.077	324.09
668.268	166.4
668.459	203.26
668.651	231.93
668.842	190.97
669.033	133.63
669.224	59.9
669.416	330.23
669.607	156.16
669.798	102.91
669.989	199.16
670.18	147.97
670.371	176.64
670.563	90.62
670.754	270.84
670.945	254.46
671.136	246.27
671.327	145.92
671.518	139.77
671.709	301.56
671.9	317.95
672.091	309.76
672.282	205.31
672.473	184.83
672.664	119.29
672.855	209.4
673.046	215.55
673.237	352.76
673.428	188.93
673.619	160.25
673.809	129.53
674	264.7
674.191	180.73
674.382	213.5
674.573	211.45
674.764	233.98
674.954	266.75
675.145	195.07
675.336	172.54
675.527	221.69
675.717	186.88
675.908	201.21
676.099	178.69
676.289	160.25
676.48	131.58
676.671	98.81
676.861	270.84
677.052	276.99
677.243	176.64
677.433	219.64
677.624	238.08
677.814	193.02
678.005	205.31
678.195	379.39
678.386	121.34
678.576	211.45
678.767	143.87
678.957	182.78
679.148	330.23
679.338	322.04
679.529	252.41
679.719	158.21
679.909	434.68
680.1	283.13
680.29	246.27
680.481	172.54
680.671	330.23
680.861	311.8
681.052	315.9
681.242	227.84
681.432	289.28
681.622	334.33
681.813	209.4
682.003	197.12
682.193	299.52
682.383	285.18
682.573	295.42
682.764	186.88
682.954	250.36
683.144	342.52
683.334	272.89
683.524	270.84
683.714	281.08
683.904	354.81
684.094	254.46
684.284	301.56
684.474	410.11
684.664	342.52
684.854	289.28
685.044	264.7
685.234	287.23
685.424	326.14
685.614	227.84
685.804	424.44
685.994	379.39
686.184	315.9
686.374	303.61
686.564	262.65
686.753	330.23
686.943	244.22
687.133	274.94
687.323	311.8
687.513	334.33
687.702	260.6
687.892	233.98
688.082	377.34
688.272	350.71
688.461	242.17
688.651	410.11
688.841	340.47
689.03	266.75
689.22	188.93
689.41	377.34
689.599	324.09
689.789	246.27
689.979	430.59
690.168	272.89
690.358	379.39
690.547	215.55
690.737	315.9
690.926	289.28
691.116	383.48
691.305	406.01
691.495	451.07
691.684	293.37
691.874	258.56
692.063	328.19
692.252	346.62
692.442	303.61
692.631	221.69
692.82	225.79
693.01	346.62
693.199	258.56
693.388	295.42
693.578	244.22
693.767	338.43
693.956	365.05
694.146	281.08
694.335	356.86
694.524	221.69
694.713	367.1
694.902	287.23
695.092	238.08
695.281	252.41
695.47	305.66
695.659	215.55
695.848	268.8
696.037	170.49
696.226	381.43
696.415	264.7
696.604	344.57
696.793	274.94
696.982	252.41
697.171	455.16
697.36	193.02
697.549	262.65
697.738	131.58
697.927	252.41
698.116	276.99
698.305	317.95
698.494	248.32
698.683	221.69
698.872	528.89
699.061	313.85
699.25	209.4
699.438	246.27
699.627	156.16
699.816	408.06
700.005	135.68
700.193	246.27
700.382	285.18
700.571	350.71
700.76	303.61
700.948	399.87
701.137	283.13
701.326	348.67
701.514	174.59
701.703	328.19
701.892	311.8
702.08	377.34
702.269	184.83
702.457	244.22
702.646	268.8
702.834	303.61
703.023	320
703.212	301.56
703.4	256.51
703.589	264.7
703.777	188.93
703.965	219.64
704.154	219.64
704.342	176.64
704.531	139.77
704.719	283.13
704.907	287.23
705.096	240.12
705.284	188.93
705.472	260.6
705.661	283.13
705.849	352.76
706.037	356.86
706.226	301.56
706.414	203.26
706.602	256.51
706.79	295.42
706.979	188.93
707.167	291.32
707.355	195.07
707.543	305.66
707.731	264.7
707.919	190.97
708.107	260.6
708.296	147.97
708.484	246.27
708.672	231.93
708.86	291.32
709.048	199.16
709.236	227.84
709.424	352.76
709.612	338.43
709.8	168.45
709.988	285.18
710.176	358.91
710.364	346.62
710.551	147.97
710.739	184.83
710.927	242.17
711.115	348.67
711.303	358.91
711.491	268.8
711.679	223.74
711.866	369.15
712.054	217.6
712.242	324.09
712.43	350.71
712.617	256.51
712.805	336.38
712.993	315.9
713.181	242.17
713.368	303.61
713.556	301.56
713.744	207.36
713.931	471.54
714.119	264.7
714.306	289.28
714.494	266.75
714.682	221.69
714.869	231.93
715.057	295.42
715.244	199.16
715.432	346.62
715.619	205.31
715.807	264.7
715.994	262.65
716.182	322.04
716.369	281.08
716.556	299.52
716.744	170.49
716.931	186.88
717.119	268.8
717.306	332.28
717.493	344.57
717.681	244.22
717.868	276.99
718.055	291.32
718.242	336.38
718.43	274.94
718.617	338.43
718.804	348.67
718.991	283.13
719.179	260.6
719.366	416.25
719.553	365.05
719.74	317.95
719.927	236.03
720.114	360.95
720.301	215.55
720.488	244.22
720.676	211.45
720.863	432.63
721.05	418.3
721.237	285.18
721.424	326.14
721.611	330.23
721.798	279.04
721.985	221.69
722.172	328.19
722.358	246.27
722.545	367.1
722.732	342.52
722.919	389.63
723.106	377.34
723.293	287.23
723.48	311.8
723.667	348.67
723.853	342.52
724.04	317.95
724.227	414.2
724.414	276.99
724.6	342.52
724.787	461.3
724.974	410.11
725.161	399.87
725.347	193.02
725.534	340.47
725.72	283.13
725.907	422.39
726.094	293.37
726.28	299.52
726.467	311.8
726.653	254.46
726.84	432.63
727.027	414.2
727.213	363
727.4	430.59
727.586	403.96
727.773	367.1
727.959	332.28
728.145	348.67
728.332	352.76
728.518	375.29
728.705	442.87
728.891	344.57
729.077	320
729.264	395.77
729.45	348.67
729.636	449.02
729.823	381.43
730.009	465.4
730.195	373.24
730.382	350.71
730.568	254.46
730.754	395.77
730.94	373.24
731.126	393.72
731.313	446.97
731.499	348.67
731.685	358.91
731.871	403.96
732.057	309.76
732.243	438.78
732.429	381.43
732.615	469.5
732.801	391.67
732.987	346.62
733.173	301.56
733.359	352.76
733.545	408.06
733.731	307.71
733.917	543.22
734.103	332.28
734.289	412.15
734.475	276.99
734.661	442.87
734.847	385.53
735.033	356.86
735.219	457.21
735.404	383.48
735.59	303.61
735.776	320
735.962	387.58
736.148	477.69
736.333	434.68
736.519	387.58
736.705	453.11
736.89	338.43
737.076	389.63
737.262	383.48
737.447	430.59
737.633	334.33
737.819	395.77
738.004	414.2
738.19	340.47
738.375	434.68
738.561	453.11
738.747	399.87
738.932	363
739.118	506.36
739.303	403.96
739.489	494.07
739.674	344.57
739.859	381.43
740.045	385.53
740.23	379.39
740.416	283.13
740.601	469.5
740.786	399.87
740.972	360.95
741.157	383.48
741.342	320
741.528	303.61
741.713	461.3
741.898	387.58
742.084	383.48
742.269	453.11
742.454	508.41
742.639	420.35
742.824	352.76
743.01	469.5
743.195	481.78
743.38	479.74
743.565	377.34
743.75	451.07
743.935	444.92
744.12	391.67
744.305	315.9
744.49	377.34
744.675	289.28
744.86	440.83
745.045	401.91
745.23	391.67
745.415	369.15
745.6	453.11
745.785	338.43
745.97	479.74
746.155	365.05
746.34	455.16
746.525	410.11
746.71	403.96
746.895	360.95
747.079	274.94
747.264	270.84
747.449	340.47
747.634	473.59
747.819	434.68
748.003	301.56
748.188	295.42
748.373	389.63
748.557	475.64
748.742	303.61
748.927	379.39
749.111	295.42
749.296	360.95
749.481	369.15
749.665	354.81
749.85	291.32
750.034	350.71
750.219	367.1
750.404	258.56
750.588	383.48
750.773	225.79
750.957	281.08
751.141	332.28
751.326	371.19
751.51	307.71
751.695	199.16
751.879	383.48
752.064	469.5
752.248	305.66
752.432	410.11
752.617	354.81
752.801	391.67
752.985	229.88
753.17	391.67
753.354	301.56
753.538	244.22
753.722	285.18
753.907	197.12
754.091	162.3
754.275	328.19
754.459	201.21
754.643	201.21
754.828	297.47
755.012	350.71
755.196	104.96
755.38	311.8
755.564	330.23
755.748	307.71
755.932	356.86
756.116	268.8
756.3	272.89
756.484	309.76
756.668	330.23
756.852	176.64
757.036	291.32
757.22	248.32
757.404	242.17
757.588	297.47
757.772	303.61
757.956	236.03
758.14	293.37
758.323	170.49
758.507	256.51
758.691	209.4
758.875	301.56
759.059	293.37
759.242	213.5
759.426	213.5
759.61	229.88
759.794	229.88
759.977	297.47
760.161	498.17
760.345	338.43
760.528	264.7
760.712	162.3
760.895	285.18
761.079	195.07
761.263	152.06
761.446	168.45
761.63	162.3
761.813	250.36
761.997	143.87
762.18	147.97
762.364	289.28
762.547	66.05
762.731	221.69
762.914	195.07
763.098	213.5
763.281	221.69
763.464	207.36
763.648	213.5
763.831	225.79
764.015	170.49
764.198	291.32
764.381	96.77
764.564	160.25
764.748	272.89
764.931	109.05
765.114	115.2
765.297	238.08
765.481	123.39
765.664	186.88
765.847	147.97
766.03	229.88
766.213	111.1
766.397	162.3
766.58	76.29
766.763	229.88
766.946	186.88
767.129	84.48
767.312	123.39
767.495	107.01
767.678	111.1
767.861	213.5
768.044	233.98
768.227	219.64
768.41	188.93
768.593	201.21
768.776	162.3
768.959	137.73
769.142	264.7
769.324	111.1
769.507	223.74
769.69	82.43
769.873	147.97
770.056	317.95
770.239	94.72
770.421	227.84
770.604	221.69
770.787	113.15
770.97	205.31
771.152	117.25
771.335	203.26
771.518	104.96
771.7	178.69
771.883	330.23
772.066	168.45
772.248	176.64
772.431	121.34
772.613	156.16
772.796	188.93
772.978	182.78
773.161	295.42
773.343	188.93
773.526	135.68
773.708	12.8
773.891	16.9
774.073	147.97
774.256	76.29
774.438	252.41
774.621	80.38
774.803	154.11
774.985	98.81
775.168	170.49
775.35	70.14
775.532	184.83
775.715	59.9
775.897	129.53
776.079	104.96
776.261	186.88
776.444	18.94
776.626	199.16
776.808	45.57
776.99	45.57
777.173	125.44
777.355	59.9
777.537	72.19
777.719	135.68
777.901	72.19
778.083	119.29
778.265	90.62
778.447	135.68
778.629	-22.02
778.811	137.73
778.993	121.34
779.175	199.16
779.357	119.29
779.539	37.38
779.721	96.77
779.903	111.1
780.085	55.81
780.267	109.05
780.449	117.25
780.631	117.25
780.812	221.69
780.994	164.35
781.176	113.15
781.358	10.75
781.54	102.91
781.721	154.11
781.903	166.4
782.085	117.25
782.267	170.49
782.448	78.33
782.63	23.04
782.812	102.91
782.993	107.01
783.175	137.73
783.357	88.57
783.538	113.15
783.72	35.33
783.901	39.42
784.083	94.72
784.264	90.62
784.446	-13.82
784.627	61.95
784.809	158.21
784.99	82.43
785.172	164.35
785.353	59.9
785.535	0.51
785.716	18.94
785.897	104.96
786.079	49.66
786.26	152.06
786.441	131.58
786.623	20.99
786.804	-15.87
786.985	139.77
787.167	98.81
787.348	39.42
787.529	61.95
787.71	213.5
787.891	147.97
788.073	64
788.254	-7.68
788.435	225.79
788.616	107.01
788.797	61.95
788.978	66.05
789.159	-30.21
789.34	68.09
789.522	51.71
789.703	10.75
789.884	135.68
790.065	-7.68
790.246	121.34
790.427	70.14
790.607	201.21
790.788	104.96
790.969	66.05
791.15	137.73
791.331	45.57
791.512	-13.82
791.693	-44.54
791.874	18.94
792.054	193.02
792.235	113.15
792.416	-26.11
792.597	-60.93
792.778	121.34
792.958	61.95
793.139	84.48
793.32	39.42
793.5	-28.16
793.681	78.33
793.862	82.43
794.042	74.24
794.223	-85.5
794.404	43.52
794.584	-32.26
794.765	94.72
794.945	76.29
795.126	68.09
795.306	129.53
795.487	14.85
795.667	18.94
795.848	39.42
796.028	-34.3
796.209	147.97
796.389	86.53
796.57	47.62
796.75	27.14
796.93	-15.87
797.111	0.51
797.291	37.38
797.471	86.53
797.652	68.09
797.832	57.86
798.012	82.43
798.192	39.42
798.373	-91.65
798.553	18.94
798.733	123.39
798.913	-67.07
799.093	4.61
799.274	4.61
799.454	45.57
799.634	88.57
799.814	74.24
799.994	102.91
800.174	33.28
800.354	68.09
800.534	-120.32
800.714	92.67
800.894	16.9
801.074	8.7
801.254	86.53
801.434	170.49
801.614	31.23
801.794	-52.74
801.974	1851.88
802.154	39.42
802.334	104.96
802.514	-13.82
802.693	47.62
802.873	-36.35
803.053	127.49
803.233	61.95
803.413	14.85
803.592	43.52
803.772	-22.02
803.952	68.09
804.131	18.94
804.311	113.15
804.491	90.62
804.67	23.04
804.85	-11.78
805.03	74.24
805.209	27.14
805.389	-44.54
805.568	80.38
805.748	-9.73
805.928	-11.78
806.107	147.97
806.287	113.15
806.466	47.62
806.646	2.56
806.825	41.47
807.004	6.66
807.184	64
807.363	70.14
807.543	18.94
807.722	-52.74
807.901	88.57
808.081	150.01
808.26	-124.41
808.439	64
808.619	25.09
808.798	31.23
808.977	76.29
809.156	111.1
809.336	6.66
809.515	127.49
809.694	2.56
809.873	-28.16
810.052	123.39
810.231	102.91
810.411	66.05
810.59	164.35
810.769	-52.74
810.948	47.62
811.127	-79.36
811.306	-7.68
811.485	49.66
811.664	166.4
811.843	72.19
812.022	10.75
812.201	39.42
812.38	14.85
812.559	-71.17
812.737	55.81
812.916	-110.08
813.095	-9.73
813.274	76.29
813.453	51.71
813.632	80.38
813.811	76.29
813.989	-28.16
814.168	51.71
814.347	-48.64
814.526	-32.26
814.704	135.68
814.883	135.68
815.062	-13.82
815.24	45.57
815.419	-36.35
815.598	98.81
815.776	-101.89
815.955	27.14
816.133	-13.82
816.312	25.09
816.49	-38.4
816.669	59.9
816.847	31.23
817.026	33.28
817.204	23.04
817.383	-30.21
817.561	-22.02
817.74	76.29
817.918	55.81
818.097	37.38
818.275	70.14
818.453	43.52
818.632	64
818.81	-24.06
818.988	-60.93
819.167	-73.21
819.345	68.09
819.523	14.85
819.701	23.04
819.879	100.86
820.058	-17.92
820.236	20.99
820.414	49.66
820.592	-3.58
820.77	88.57
820.948	-3.58
821.127	31.23
821.305	84.48
821.483	20.99
821.661	74.24
821.839	51.71
822.017	-38.4
822.195	-44.54
822.373	43.52
822.551	-22.02
822.729	76.29
822.907	68.09
823.085	66.05
823.262	10.75
823.44	-60.93
823.618	23.04
823.796	2.56
823.974	27.14
824.152	-3.58
824.329	6.66
824.507	78.33
824.685	143.87
824.863	-50.69
825.04	72.19
825.218	90.62
825.396	-5.63
825.574	74.24
825.751	78.33
825.929	84.48
826.107	-50.69
826.284	113.15
826.462	57.86
826.639	-11.78
826.817	-26.11
826.994	2.56
827.172	-54.78
827.349	164.35
827.527	45.57
827.704	-36.35
827.882	90.62
828.059	2.56
828.237	-15.87
828.414	102.91
828.591	-167.42
828.769	18.94
828.946	-44.54
829.124	88.57
829.301	82.43
829.478	37.38
829.655	25.09
829.833	33.28
830.01	-85.5
830.187	-11.78
830.364	-17.92
830.542	53.76
830.719	104.96
830.896	8.7
831.073	109.05
831.25	23.04
831.427	-5.63
831.604	25.09
831.782	29.18
831.959	-46.59
832.136	72.19
832.313	74.24
832.49	20.99
832.667	59.9
832.844	-67.07
833.021	186.88
833.198	72.19
833.374	-34.3
833.551	4.61
833.728	-58.88
833.905	102.91
834.082	-87.55
834.259	37.38
834.436	166.4
834.612	27.14
834.789	25.09
834.966	2.56
835.143	68.09
835.319	-7.68
835.496	6.66
835.673	164.35
835.85	78.33
836.026	123.39
836.203	8.7
836.38	-62.98
836.556	-11.78
836.733	39.42
836.909	205.31
837.086	27.14
837.262	-73.21
837.439	10.75
837.616	-7.68
837.792	51.71
837.968	-44.54
838.145	-36.35
838.321	-3.58
838.498	12.8
838.674	74.24
838.851	70.14
839.027	-3.58
839.203	31.23
839.38	25.09
839.556	-11.78
839.732	104.96
839.909	-7.68
840.085	68.09
840.261	-71.17
840.437	16.9
840.614	-22.02
840.79	119.29
840.966	6.66
841.142	33.28
841.318	-9.73
841.494	14.85
841.671	94.72
841.847	-7.68
842.023	-75.26
842.199	8.7
842.375	121.34
842.551	-114.17
842.727	-65.02
842.903	123.39
843.079	-75.26
843.255	121.34
843.431	-42.5
843.607	-17.92
843.783	-124.41
843.959	37.38
844.134	-73.21
844.31	190.97
844.486	-67.07
844.662	6.66
844.838	57.86
845.013	33.28
845.189	72.19
845.365	47.62
845.541	66.05
845.716	-9.73
845.892	64
846.068	43.52
846.244	-85.5
846.419	0.51
846.595	-50.69
846.77	-50.69
846.946	109.05
847.122	-42.5
847.297	12.8
847.473	135.68
847.648	-48.64
847.824	70.14
847.999	-95.74
848.175	2.56
848.35	45.57
848.526	133.63
848.701	25.09
848.876	49.66
849.052	31.23
849.227	-50.69
849.403	25.09
849.578	-17.92
849.753	-24.06
849.929	90.62
850.104	-126.46
850.279	-32.26
850.454	35.33
850.63	84.48
850.805	31.23
850.98	53.76
851.155	-108.03
851.33	88.57
851.505	-48.64
851.681	47.62
851.856	-114.17
852.031	-60.93
852.206	37.38
852.381	-38.4
852.556	-75.26
852.731	33.28
852.906	59.9
853.081	2.56
853.256	102.91
853.431	-3.58
853.606	-15.87
853.781	-83.45
853.956	-112.13
854.131	-11.78
854.305	-40.45
854.48	-3.58
854.655	-58.88
854.83	-24.06
855.005	-5.63
855.18	121.34
855.354	23.04
855.529	82.43
855.704	35.33
855.879	-17.92
856.053	-77.31
856.228	37.38
856.403	-5.63
856.577	82.43
856.752	-56.83
856.926	-32.26
857.101	25.09
857.276	-103.93
857.45	-3.58
857.625	90.62
857.799	4.61
857.974	10.75
858.148	-105.98
858.323	80.38
858.497	55.81
858.672	-34.3
858.846	-122.37
859.02	80.38
859.195	-52.74
859.369	-26.11
859.543	47.62
859.718	-108.03
859.892	53.76
860.066	23.04
860.241	-40.45
860.415	14.85
860.589	-28.16
860.763	107.01
860.938	-85.5
861.112	33.28
861.286	-44.54
861.46	-24.06
861.634	-65.02
861.808	90.62
861.982	-69.12
862.157	-42.5
862.331	-26.11
862.505	-126.46
862.679	-48.64
862.853	-3.58
863.027	45.57
863.201	147.97
863.375	-7.68
863.549	59.9
863.722	-30.21
863.896	53.76
864.07	-62.98
864.244	2.56
864.418	-7.68
864.592	82.43
864.766	-17.92
864.939	68.09
865.113	-30.21
865.287	150.01
865.461	-24.06
865.634	37.38
865.808	90.62
865.982	-69.12
866.156	-24.06
866.329	-87.55
866.503	-7.68
866.676	96.77
866.85	43.52
867.024	-28.16
867.197	49.66
867.371	23.04
867.544	20.99
867.718	-65.02
867.891	150.01
868.065	-93.69
868.238	-11.78
868.412	125.44
868.585	4.61
868.759	-48.64
868.932	-1.54
869.105	2.56
869.279	-11.78
869.452	-105.98
869.625	111.1
869.799	64
869.972	-69.12
870.145	49.66
870.319	76.29
870.492	-65.02
870.665	-28.16
870.838	6.66
871.011	-44.54
871.185	-19.97
871.358	-44.54
871.531	49.66
871.704	-9.73
871.877	-30.21
872.05	-32.26
872.223	-3.58
872.396	96.77
872.569	68.09
872.742	-165.37
872.915	33.28
873.088	37.38
873.261	-101.89
873.434	80.38
873.607	39.42
873.78	137.73
873.953	-22.02
874.126	70.14
874.299	8.7
874.471	0.51
874.644	-7.68
874.817	-7.68
874.99	137.73
875.163	-91.65
875.335	92.67
875.508	141.82
875.681	86.53
875.853	-26.11
876.026	47.62
876.199	-17.92
876.371	37.38
876.544	57.86
876.717	33.28
876.889	-15.87
877.062	80.38
877.234	-46.59
877.407	-19.97
877.579	-1.54
877.752	88.57
877.924	92.67
878.097	4.61
878.269	-7.68
878.442	88.57
878.614	14.85
878.786	45.57
878.959	-15.87
879.131	-34.3
879.303	-105.98
879.476	-58.88
879.648	20.99
879.82	-34.3
879.993	39.42
880.165	-58.88
880.337	-163.33
880.509	-1.54
880.681	-73.21
880.854	-54.78
881.026	27.14
881.198	133.63
881.37	18.94
881.542	-38.4
881.714	-36.35
881.886	-3.58
882.058	10.75
882.23	16.9
882.402	-11.78
882.574	57.86
882.746	53.76
882.918	100.86
883.09	29.18
883.262	-73.21
883.434	-22.02
883.606	-95.74
883.778	-50.69
883.95	57.86
884.122	-7.68
884.293	78.33
884.465	29.18
884.637	66.05
884.809	-15.87
884.98	35.33
885.152	51.71
885.324	96.77
885.496	6.66
885.667	4.61
885.839	-36.35
886.011	78.33
886.182	-9.73
886.354	94.72
886.525	-13.82
886.697	-3.58
886.869	-60.93
887.04	-1.54
887.212	12.8
887.383	150.01
887.555	66.05
887.726	57.86
887.897	-7.68
888.069	-19.97
888.24	49.66
888.412	25.09
888.583	70.14
888.754	-60.93
888.926	-177.66
889.097	-28.16
889.268	8.7
889.44	-13.82
889.611	-83.45
889.782	-97.79
889.953	-52.74
890.125	27.14
890.296	14.85
890.467	-32.26
890.638	6.66
890.809	37.38
890.98	-26.11
891.151	-1.54
891.323	51.71
891.494	-42.5
891.665	-3.58
891.836	0.51
892.007	6.66
892.178	39.42
892.349	59.9
892.52	43.52
892.691	-7.68
892.862	-56.83
893.032	-56.83
893.203	-56.83
893.374	29.18
893.545	41.47
893.716	-13.82
893.887	72.19
894.057	-28.16
894.228	55.81
894.399	-40.45
894.57	88.57
894.74	12.8
894.911	74.24
895.082	88.57
895.253	-60.93
895.423	-32.26
895.594	16.9
895.764	-44.54
895.935	-87.55
896.106	78.33
896.276	-58.88
896.447	-42.5
896.617	-99.84
896.788	-36.35
896.958	4.61
897.129	-71.17
897.299	10.75
897.47	182.78
897.64	86.53
897.81	57.86
897.981	61.95
898.151	-71.17
898.322	57.86
898.492	20.99
898.662	-118.27
898.832	41.47
899.003	23.04
899.173	-17.92
899.343	-120.32
899.513	-93.69
