Data from USB4F104151__92__10-35-14-830.txt Node

Date: Wed Feb 26 10:35:14 EST 2025
User: louis
Spectrometer: USB4F10415
Trigger mode: 4
Integration Time (sec): 1.000000E-1
Scans to average: 1
Electric dark correction enabled: true
Nonlinearity correction enabled: false
Boxcar width: 0
XAxis mode: Wavelengths
Number of Pixels in Spectrum: 3648
>>>>>Begin Spectral Data<<<<<
178.204	-368.98
178.424	-368.98
178.644	-368.98
178.864	-420.17
179.084	-362.83
179.304	52.91
179.524	-74.07
179.744	16.04
179.964	-31.06
180.184	40.62
180.404	13.99
180.624	18.09
180.844	-24.92
181.064	-57.68
181.283	20.14
181.503	-33.11
181.723	59.05
181.943	-47.44
182.163	210.6
182.383	91.82
182.602	61.1
182.822	75.43
183.042	44.71
183.262	-0.34
183.482	-6.49
183.701	40.62
183.921	34.47
184.141	11.95
184.361	42.67
184.58	22.19
184.8	36.52
185.02	5.8
185.239	57
185.459	57
185.679	122.54
185.898	-135.51
186.118	5.8
186.338	-26.96
186.557	155.3
186.777	-2.39
186.997	-37.2
187.216	61.1
187.436	130.73
187.655	77.48
187.875	54.95
188.095	106.15
188.314	7.85
188.534	120.49
188.753	-39.25
188.973	97.96
189.192	169.64
189.412	59.05
189.631	16.04
189.851	97.96
190.07	179.88
190.29	-4.44
190.509	32.43
190.729	65.19
190.948	89.77
191.168	222.89
191.387	79.53
191.607	5.8
191.826	91.82
192.045	-10.58
192.265	3.75
192.484	67.24
192.704	9.9
192.923	-63.83
193.142	204.46
193.362	-16.73
193.581	116.39
193.8	24.23
194.02	59.05
194.239	-20.82
194.458	143.02
194.678	-35.16
194.897	65.19
195.116	100.01
195.335	112.3
195.555	40.62
195.774	-92.5
195.993	128.68
196.212	5.8
196.432	79.53
196.651	13.99
196.87	67.24
197.089	251.56
197.308	122.54
197.528	48.81
197.747	-49.49
197.966	87.72
198.185	140.97
198.404	-10.58
198.623	102.06
198.842	167.59
199.062	18.09
199.281	114.34
199.5	28.33
199.719	104.11
199.938	57
200.157	50.86
200.376	87.72
200.595	130.73
200.814	3.75
201.033	63.15
201.252	122.54
201.471	28.33
201.69	73.39
201.909	24.23
202.128	34.47
202.347	112.3
202.566	38.57
202.785	-29.01
203.004	5.8
203.223	212.65
203.442	-2.39
203.661	-47.44
203.879	102.06
204.098	106.15
204.317	1.71
204.536	83.63
204.755	59.05
204.974	122.54
205.193	-16.73
205.411	130.73
205.63	163.5
205.849	26.28
206.068	16.04
206.287	-86.36
206.505	204.46
206.724	44.71
206.943	-14.68
207.162	-2.39
207.381	112.3
207.599	-26.96
207.818	-26.96
208.037	18.09
208.255	63.15
208.474	48.81
208.693	18.09
208.911	32.43
209.13	50.86
209.349	67.24
209.567	28.33
209.786	171.69
210.005	85.67
210.223	91.82
210.442	-94.55
210.661	26.28
210.879	26.28
211.098	100.01
211.316	54.95
211.535	24.23
211.753	110.25
211.972	97.96
212.191	48.81
212.409	-24.92
212.628	122.54
212.846	-69.97
213.065	9.9
213.283	151.21
213.502	71.34
213.72	44.71
213.938	44.71
214.157	24.23
214.375	50.86
214.594	20.14
214.812	73.39
215.031	-8.53
215.249	1.71
215.467	79.53
215.686	18.09
215.904	50.86
216.122	69.29
216.341	104.11
216.559	13.99
216.778	83.63
216.996	134.82
217.214	54.95
217.432	32.43
217.651	7.85
217.869	34.47
218.087	87.72
218.306	1.71
218.524	54.95
218.742	20.14
218.96	114.34
219.179	38.57
219.397	67.24
219.615	216.74
219.833	81.58
220.051	-26.96
220.27	95.91
220.488	116.39
220.706	24.23
220.924	63.15
221.142	26.28
221.36	24.23
221.578	75.43
221.796	-8.53
222.015	34.47
222.233	52.91
222.451	233.13
222.669	-69.97
222.887	40.62
223.105	42.67
223.323	83.63
223.541	13.99
223.759	69.29
223.977	81.58
224.195	220.84
224.413	89.77
224.631	-18.77
224.849	5.8
225.067	210.6
225.285	7.85
225.503	-8.53
225.721	-94.55
225.939	59.05
226.157	44.71
226.375	233.13
226.592	34.47
226.81	38.57
227.028	138.92
227.246	138.92
227.464	36.52
227.682	130.73
227.9	136.87
228.117	61.1
228.335	108.2
228.553	59.05
228.771	-31.06
228.989	75.43
229.206	73.39
229.424	57
229.642	-51.54
229.86	30.38
230.077	138.92
230.295	-24.92
230.513	87.72
230.731	89.77
230.948	114.34
231.166	237.22
231.384	48.81
231.601	-92.5
231.819	132.78
232.037	-22.87
232.254	-35.16
232.472	-6.49
232.689	9.9
232.907	110.25
233.125	9.9
233.342	-45.4
233.56	-33.11
233.777	22.19
233.995	18.09
234.213	93.87
234.43	61.1
234.648	-22.87
234.865	7.85
235.083	34.47
235.3	46.76
235.518	73.39
235.735	157.35
235.953	118.44
236.17	169.64
236.388	7.85
236.605	-4.44
236.822	140.97
237.04	143.02
237.257	9.9
237.475	-41.3
237.692	24.23
237.909	48.81
238.127	36.52
238.344	100.01
238.562	16.04
238.779	-43.35
238.996	-37.2
239.214	-0.34
239.431	108.2
239.648	-31.06
239.865	-0.34
240.083	147.11
240.3	3.75
240.517	16.04
240.735	20.14
240.952	116.39
241.169	50.86
241.386	57
241.603	-55.64
241.821	52.91
242.038	79.53
242.255	194.22
242.472	-43.35
242.689	22.19
242.907	104.11
243.124	59.05
243.341	20.14
243.558	-53.59
243.775	-117.08
243.992	-127.32
244.209	161.45
244.426	124.58
244.643	73.39
244.86	38.57
245.078	134.82
245.295	36.52
245.512	44.71
245.729	26.28
245.946	61.1
246.163	13.99
246.38	-22.87
246.597	79.53
246.814	-18.77
247.031	32.43
247.248	30.38
247.464	71.34
247.681	48.81
247.898	85.67
248.115	91.82
248.332	-29.01
248.549	87.72
248.766	143.02
248.983	106.15
249.2	81.58
249.417	165.54
249.633	-63.83
249.85	95.91
250.067	75.43
250.284	79.53
250.501	46.76
250.717	71.34
250.934	-8.53
251.151	5.8
251.368	-18.77
251.585	67.24
251.801	28.33
252.018	-8.53
252.235	83.63
252.451	-8.53
252.668	138.92
252.885	79.53
253.102	57
253.318	-16.73
253.535	89.77
253.752	-35.16
253.968	38.57
254.185	3.75
254.401	38.57
254.618	9.9
254.835	40.62
255.051	112.3
255.268	26.28
255.484	75.43
255.701	22.19
255.917	65.19
256.134	1.71
256.351	44.71
256.567	20.14
256.784	24.23
257	-41.3
257.217	63.15
257.433	93.87
257.65	61.1
257.866	112.3
258.082	-20.82
258.299	-47.44
258.515	54.95
258.732	59.05
258.948	-18.77
259.165	32.43
259.381	-14.68
259.597	104.11
259.814	16.04
260.03	104.11
260.246	-0.34
260.463	75.43
260.679	157.35
260.895	16.04
261.112	57
261.328	57
261.544	-16.73
261.761	140.97
261.977	-26.96
262.193	-67.92
262.409	97.96
262.626	36.52
262.842	-14.68
263.058	1.71
263.274	34.47
263.49	85.67
263.707	136.87
263.923	93.87
264.139	-16.73
264.355	-6.49
264.571	42.67
264.787	57
265.004	196.26
265.22	44.71
265.436	-94.55
265.652	-51.54
265.868	102.06
266.084	-18.77
266.3	32.43
266.516	-100.69
266.732	114.34
266.948	85.67
267.164	-57.68
267.38	136.87
267.596	16.04
267.812	145.06
268.028	5.8
268.244	24.23
268.46	18.09
268.676	42.67
268.892	3.75
269.108	-39.25
269.324	-6.49
269.54	-80.21
269.756	100.01
269.972	16.04
270.188	50.86
270.403	-39.25
270.619	24.23
270.835	91.82
271.051	104.11
271.267	-55.64
271.483	-39.25
271.698	52.91
271.914	122.54
272.13	22.19
272.346	-26.96
272.562	54.95
272.777	145.06
272.993	54.95
273.209	-10.58
273.425	89.77
273.64	-147.8
273.856	110.25
274.072	-8.53
274.287	-29.01
274.503	132.78
274.719	179.88
274.934	-2.39
275.15	-33.11
275.366	110.25
275.581	-121.17
275.797	40.62
276.012	38.57
276.228	-22.87
276.444	30.38
276.659	59.05
276.875	-33.11
277.09	-24.92
277.306	16.04
277.521	97.96
277.737	54.95
277.952	122.54
278.168	54.95
278.383	32.43
278.599	24.23
278.814	83.63
279.03	59.05
279.245	71.34
279.461	36.52
279.676	108.2
279.892	34.47
280.107	-12.63
280.322	-14.68
280.538	120.49
280.753	-37.2
280.969	44.71
281.184	95.91
281.399	165.54
281.615	87.72
281.83	-12.63
282.045	-45.4
282.26	-84.31
282.476	52.91
282.691	147.11
282.906	79.53
283.122	34.47
283.337	-14.68
283.552	40.62
283.767	-37.2
283.983	75.43
284.198	104.11
284.413	81.58
284.628	-106.84
284.843	61.1
285.058	32.43
285.274	32.43
285.489	54.95
285.704	106.15
285.919	-0.34
286.134	-29.01
286.349	30.38
286.564	-37.2
286.779	97.96
286.995	65.19
287.21	-24.92
287.425	-6.49
287.64	54.95
287.855	52.91
288.07	-86.36
288.285	167.59
288.5	87.72
288.715	108.2
288.93	28.33
289.145	54.95
289.36	77.48
289.575	-69.97
289.79	120.49
290.004	38.57
290.219	104.11
290.434	-6.49
290.649	30.38
290.864	18.09
291.079	83.63
291.294	-0.34
291.509	75.43
291.724	11.95
291.938	9.9
292.153	57
292.368	40.62
292.583	118.44
292.798	124.58
293.012	114.34
293.227	81.58
293.442	-26.96
293.657	75.43
293.871	126.63
294.086	24.23
294.301	126.63
294.516	87.72
294.73	-6.49
294.945	-10.58
295.16	-4.44
295.374	214.7
295.589	44.71
295.804	-14.68
296.018	11.95
296.233	116.39
296.447	42.67
296.662	30.38
296.877	159.4
297.091	112.3
297.306	30.38
297.52	22.19
297.735	69.29
297.949	38.57
298.164	24.23
298.378	67.24
298.593	-29.01
298.807	-67.92
299.022	42.67
299.236	120.49
299.451	18.09
299.665	44.71
299.88	-35.16
300.094	138.92
300.309	81.58
300.523	-39.25
300.737	38.57
300.952	63.15
301.166	102.06
301.381	20.14
301.595	9.9
301.809	116.39
302.024	38.57
302.238	-80.21
302.452	149.16
302.667	-14.68
302.881	183.98
303.095	177.83
303.309	79.53
303.524	3.75
303.738	126.63
303.952	48.81
304.166	163.5
304.381	-100.69
304.595	128.68
304.809	28.33
305.023	81.58
305.237	22.19
305.452	112.3
305.666	59.05
305.88	54.95
306.094	61.1
306.308	95.91
306.522	71.34
306.736	61.1
306.95	73.39
307.164	48.81
307.379	-43.35
307.593	134.82
307.807	83.63
308.021	124.58
308.235	-20.82
308.449	-59.73
308.663	13.99
308.877	212.65
309.091	5.8
309.305	110.25
309.519	-137.56
309.733	77.48
309.947	-37.2
310.161	69.29
310.374	134.82
310.588	151.21
310.802	-84.31
311.016	-43.35
311.23	132.78
311.444	7.85
311.658	28.33
311.872	93.87
312.085	89.77
312.299	169.64
312.513	93.87
312.727	7.85
312.941	5.8
313.154	-14.68
313.368	73.39
313.582	16.04
313.796	-10.58
314.009	-47.44
314.223	159.4
314.437	-12.63
314.651	32.43
314.864	-6.49
315.078	-12.63
315.292	-53.59
315.505	48.81
315.719	-6.49
315.933	50.86
316.146	28.33
316.36	-2.39
316.573	71.34
316.787	89.77
317.001	52.91
317.214	-4.44
317.428	-10.58
317.641	3.75
317.855	28.33
318.068	59.05
318.282	97.96
318.495	79.53
318.709	42.67
318.922	22.19
319.136	110.25
319.349	104.11
319.563	30.38
319.776	108.2
319.99	-29.01
320.203	-14.68
320.417	36.52
320.63	149.16
320.843	147.11
321.057	44.71
321.27	3.75
321.483	48.81
321.697	132.78
321.91	9.9
322.124	161.45
322.337	67.24
322.55	34.47
322.763	85.67
322.977	-67.92
323.19	-35.16
323.403	24.23
323.617	3.75
323.83	83.63
324.043	44.71
324.256	13.99
324.469	-2.39
324.683	77.48
324.896	77.48
325.109	26.28
325.322	-61.78
325.535	159.4
325.748	147.11
325.962	3.75
326.175	97.96
326.388	73.39
326.601	28.33
326.814	46.76
327.027	38.57
327.24	157.35
327.453	-47.44
327.666	44.71
327.879	124.58
328.092	169.64
328.305	22.19
328.518	-26.96
328.731	30.38
328.944	30.38
329.157	54.95
329.37	24.23
329.583	161.45
329.796	151.21
330.009	-29.01
330.222	104.11
330.435	116.39
330.648	149.16
330.861	24.23
331.073	71.34
331.286	91.82
331.499	87.72
331.712	-59.73
331.925	28.33
332.138	24.23
332.35	183.98
332.563	-8.53
332.776	147.11
332.989	5.8
333.202	28.33
333.414	20.14
333.627	16.04
333.84	20.14
334.053	34.47
334.265	-96.6
334.478	61.1
334.691	54.95
334.903	71.34
335.116	-18.77
335.329	32.43
335.541	169.64
335.754	171.69
335.966	34.47
336.179	34.47
336.392	18.09
336.604	3.75
336.817	177.83
337.029	118.44
337.242	24.23
337.454	-24.92
337.667	36.52
337.88	196.26
338.092	73.39
338.305	116.39
338.517	13.99
338.729	32.43
338.942	198.31
339.154	-92.5
339.367	-26.96
339.579	91.82
339.792	26.28
340.004	126.63
340.217	22.19
340.429	54.95
340.641	-78.16
340.854	-78.16
341.066	11.95
341.278	85.67
341.491	173.74
341.703	44.71
341.915	-80.21
342.128	65.19
342.34	57
342.552	5.8
342.764	32.43
342.977	50.86
343.189	67.24
343.401	65.19
343.613	-26.96
343.826	126.63
344.038	-61.78
344.25	5.8
344.462	-76.12
344.674	155.3
344.886	40.62
345.099	59.05
345.311	102.06
345.523	5.8
345.735	-96.6
345.947	44.71
346.159	54.95
346.371	-2.39
346.583	5.8
346.795	147.11
347.007	-20.82
347.219	-33.11
347.431	-29.01
347.643	126.63
347.855	-43.35
348.067	110.25
348.279	28.33
348.491	20.14
348.703	91.82
348.915	9.9
349.127	-51.54
349.339	24.23
349.551	-2.39
349.763	40.62
349.975	50.86
350.187	134.82
350.399	46.76
350.61	83.63
350.822	-14.68
351.034	-0.34
351.246	69.29
351.458	118.44
351.669	71.34
351.881	77.48
352.093	100.01
352.305	132.78
352.517	93.87
352.728	124.58
352.94	73.39
353.152	22.19
353.363	16.04
353.575	128.68
353.787	188.07
353.999	100.01
354.21	138.92
354.422	-10.58
354.633	59.05
354.845	75.43
355.057	50.86
355.268	71.34
355.48	77.48
355.692	-108.88
355.903	38.57
356.115	20.14
356.326	-51.54
356.538	126.63
356.749	87.72
356.961	161.45
357.172	22.19
357.384	-74.07
357.595	202.41
357.807	-53.59
358.018	28.33
358.23	52.91
358.441	175.78
358.653	79.53
358.864	59.05
359.075	-47.44
359.287	18.09
359.498	57
359.709	147.11
359.921	100.01
360.132	67.24
360.344	7.85
360.555	81.58
360.766	85.67
360.977	-10.58
361.189	50.86
361.4	5.8
361.611	126.63
361.823	116.39
362.034	100.01
362.245	-149.84
362.456	-10.58
362.667	54.95
362.879	-47.44
363.09	32.43
363.301	87.72
363.512	89.77
363.723	-10.58
363.935	-12.63
364.146	73.39
364.357	46.76
364.568	95.91
364.779	-57.68
364.99	143.02
365.201	-6.49
365.412	165.54
365.623	-31.06
365.834	5.8
366.045	57
366.256	32.43
366.467	1.71
366.678	7.85
366.889	18.09
367.1	26.28
367.311	136.87
367.522	9.9
367.733	110.25
367.944	91.82
368.155	5.8
368.366	183.98
368.577	140.97
368.788	140.97
368.999	-69.97
369.209	16.04
369.42	212.65
369.631	120.49
369.842	163.5
370.053	63.15
370.264	65.19
370.474	-8.53
370.685	97.96
370.896	73.39
371.107	104.11
371.317	34.47
371.528	5.8
371.739	65.19
371.95	22.19
372.16	95.91
372.371	-112.98
372.582	71.34
372.792	102.06
373.003	11.95
373.214	71.34
373.424	108.2
373.635	-10.58
373.846	126.63
374.056	20.14
374.267	28.33
374.477	130.73
374.688	-43.35
374.898	42.67
375.109	26.28
375.319	143.02
375.53	112.3
375.74	153.26
375.951	-22.87
376.161	44.71
376.372	159.4
376.582	32.43
376.793	38.57
377.003	71.34
377.214	11.95
377.424	106.15
377.635	44.71
377.845	46.76
378.055	89.77
378.266	-92.5
378.476	65.19
378.686	32.43
378.897	59.05
379.107	108.2
379.317	38.57
379.528	1.71
379.738	38.57
379.948	-10.58
380.158	83.63
380.369	40.62
380.579	63.15
380.789	-26.96
380.999	97.96
381.21	61.1
381.42	165.54
381.63	54.95
381.84	-6.49
382.05	67.24
382.261	104.11
382.471	153.26
382.681	69.29
382.891	110.25
383.101	48.81
383.311	65.19
383.521	-80.21
383.731	18.09
383.941	102.06
384.151	63.15
384.361	46.76
384.571	83.63
384.781	93.87
384.991	237.22
385.201	118.44
385.411	173.74
385.621	173.74
385.831	38.57
386.041	71.34
386.251	42.67
386.461	147.11
386.671	5.8
386.881	108.2
387.091	30.38
387.301	44.71
387.511	-6.49
387.72	128.68
387.93	3.75
388.14	-31.06
388.35	65.19
388.56	175.78
388.769	169.64
388.979	-102.74
389.189	-14.68
389.399	-10.58
389.609	79.53
389.818	69.29
390.028	20.14
390.238	95.91
390.447	-0.34
390.657	34.47
390.867	65.19
391.076	-47.44
391.286	102.06
391.496	-22.87
391.705	48.81
391.915	138.92
392.125	124.58
392.334	-18.77
392.544	91.82
392.753	-0.34
392.963	63.15
393.172	67.24
393.382	44.71
393.591	169.64
393.801	34.47
394.01	165.54
394.22	81.58
394.429	-2.39
394.639	40.62
394.848	57
395.058	40.62
395.267	24.23
395.477	120.49
395.686	97.96
395.895	251.56
396.105	274.09
396.314	106.15
396.524	87.72
396.733	77.48
396.942	102.06
397.152	116.39
397.361	93.87
397.57	130.73
397.78	-0.34
397.989	-2.39
398.198	183.98
398.407	50.86
398.617	30.38
398.826	57
399.035	32.43
399.244	57
399.453	57
399.663	100.01
399.872	38.57
400.081	-29.01
400.29	183.98
400.499	-78.16
400.708	59.05
400.917	59.05
401.127	85.67
401.336	16.04
401.545	220.84
401.754	71.34
401.963	104.11
402.172	-6.49
402.381	13.99
402.59	16.04
402.799	18.09
403.008	93.87
403.217	79.53
403.426	69.29
403.635	-63.83
403.844	40.62
404.053	91.82
404.262	-59.73
404.471	140.97
404.68	140.97
404.888	11.95
405.097	61.1
405.306	16.04
405.515	95.91
405.724	-14.68
405.933	63.15
406.142	87.72
406.35	138.92
406.559	13.99
406.768	85.67
406.977	149.16
407.185	48.81
407.394	89.77
407.603	-72.02
407.812	36.52
408.02	-2.39
408.229	34.47
408.438	104.11
408.646	-18.77
408.855	5.8
409.064	40.62
409.272	95.91
409.481	7.85
409.69	18.09
409.898	-45.4
410.107	20.14
410.315	132.78
410.524	-16.73
410.733	16.04
410.941	116.39
411.15	102.06
411.358	65.19
411.567	122.54
411.775	75.43
411.984	28.33
412.192	112.3
412.401	18.09
412.609	202.41
412.818	130.73
413.026	85.67
413.234	77.48
413.443	34.47
413.651	-22.87
413.86	32.43
414.068	169.64
414.276	161.45
414.485	-63.83
414.693	255.65
414.901	143.02
415.11	126.63
415.318	46.76
415.526	30.38
415.734	89.77
415.943	30.38
416.151	116.39
416.359	18.09
416.567	85.67
416.776	143.02
416.984	106.15
417.192	210.6
417.4	-47.44
417.608	1.71
417.817	-43.35
418.025	42.67
418.233	149.16
418.441	24.23
418.649	-22.87
418.857	30.38
419.065	114.34
419.273	79.53
419.481	18.09
419.689	5.8
419.897	26.28
420.105	1.71
420.313	93.87
420.521	202.41
420.729	167.59
420.937	7.85
421.145	-0.34
421.353	79.53
421.561	198.31
421.769	89.77
421.977	-29.01
422.185	175.78
422.393	71.34
422.601	161.45
422.809	54.95
423.017	126.63
423.224	28.33
423.432	153.26
423.64	42.67
423.848	108.2
424.056	32.43
424.263	104.11
424.471	34.47
424.679	91.82
424.887	18.09
425.094	122.54
425.302	89.77
425.51	5.8
425.718	122.54
425.925	83.63
426.133	40.62
426.341	216.74
426.548	-2.39
426.756	-39.25
426.964	104.11
427.171	-10.58
427.379	95.91
427.586	67.24
427.794	122.54
428.001	126.63
428.209	102.06
428.417	155.3
428.624	110.25
428.832	116.39
429.039	87.72
429.247	106.15
429.454	67.24
429.662	194.22
429.869	69.29
430.076	120.49
430.284	173.74
430.491	183.98
430.699	149.16
430.906	247.46
431.114	140.97
431.321	128.68
431.528	108.2
431.736	140.97
431.943	181.93
432.15	136.87
432.358	286.37
432.565	267.94
432.772	40.62
432.979	253.61
433.187	198.31
433.394	173.74
433.601	104.11
433.808	218.79
434.016	216.74
434.223	69.29
434.43	251.56
434.637	241.32
434.844	286.37
435.052	263.85
435.259	231.08
435.466	259.75
435.673	278.18
435.88	272.04
436.087	319.14
436.294	386.72
436.501	317.09
436.708	274.09
436.915	310.95
437.122	364.2
437.329	247.46
437.537	413.35
437.743	356.01
437.95	433.83
438.157	378.53
438.364	407.2
438.571	392.87
438.778	425.64
438.985	462.5
439.192	423.59
439.399	429.73
439.606	495.27
439.813	542.37
440.02	626.34
440.227	710.3
440.433	595.62
440.64	538.27
440.847	513.7
441.054	642.72
441.261	648.86
441.467	603.81
441.674	646.82
441.881	728.74
442.088	669.34
442.294	730.78
442.501	874.14
442.708	814.75
442.914	808.61
443.121	845.47
443.328	906.91
443.534	1025.69
443.741	931.48
443.948	863.9
444.154	1001.12
444.361	1175.19
444.568	1154.71
444.774	1107.61
444.981	1017.5
445.187	1322.65
445.394	1193.62
445.6	1255.06
445.807	1427.09
446.013	1410.71
446.22	1355.41
446.426	1423
446.633	1588.88
446.839	1771.15
447.046	1599.12
447.252	1826.45
447.459	1707.66
447.665	1775.25
447.871	1992.33
448.078	2006.67
448.284	1955.47
448.491	2027.15
448.697	2270.86
448.903	2291.34
449.11	2285.19
449.316	2315.91
449.522	2561.67
449.728	2676.35
449.935	2717.31
450.141	2811.52
450.347	2961.02
450.553	2858.62
450.76	2903.68
450.966	3159.67
451.172	3315.32
451.378	3352.18
451.584	3417.72
451.791	3544.69
451.997	3585.65
452.203	3890.8
452.409	4011.63
452.615	4273.77
452.821	4007.53
453.027	3788.4
453.233	4683.36
453.44	4447.85
453.646	4752.99
453.852	5062.24
454.058	5113.44
454.264	5314.14
454.47	5428.82
454.676	5561.94
454.882	6270.54
455.088	5813.84
455.294	6338.12
455.5	6673.99
455.705	6755.91
455.911	6862.4
456.117	7190.08
456.323	7398.97
456.529	7335.48
456.735	8175.15
456.941	8275.5
457.147	8611.37
457.352	8724.01
457.558	9053.73
457.764	9596.44
457.97	9729.56
458.176	10206.73
458.381	10565.13
458.587	11070.98
458.793	11593.21
458.999	11677.18
459.204	12928.49
459.41	13469.15
459.616	13223.39
459.821	13870.55
460.027	14362.06
460.233	15085
460.438	15484.35
460.644	15961.53
460.85	16225.72
461.055	16754.09
461.261	17745.31
461.466	17431.97
461.672	17786.27
461.878	19670.4
462.083	19524.99
462.289	20032.89
462.494	20890.99
462.7	21003.63
462.905	21099.88
463.111	22818.13
463.316	23838.01
463.522	24702.26
463.727	25148.71
463.932	26279.19
464.138	27100.43
464.343	28312.83
464.549	28007.68
464.754	30411.99
464.959	30786.77
465.165	31528.14
465.37	31608.01
465.575	31337.68
465.781	33698.98
465.986	34507.93
466.191	34006.18
466.397	34067.62
466.602	33612.97
466.807	35339.41
467.012	36005
467.218	36480.13
467.423	36979.83
467.628	37749.87
467.833	39961.67
468.038	38988.89
468.244	38397.02
468.449	40262.72
468.654	39623.76
468.859	39265.36
469.064	39373.91
469.269	38302.82
469.474	38714.46
469.679	40057.93
469.885	38696.03
470.09	39736.4
470.295	39408.72
470.5	38610.01
470.705	38845.53
470.91	38265.95
471.115	37571.69
471.32	38284.39
471.525	37981.29
471.73	36502.65
471.935	36668.54
472.139	35107.99
472.344	35435.66
472.549	34868.37
472.754	34249.89
472.959	33424.56
473.164	32519.35
473.369	32167.1
473.574	32795.83
473.778	32650.42
473.983	31997.12
474.188	31466.7
474.393	29639.91
474.598	29695.21
474.802	28757.24
475.007	28355.83
475.212	28394.75
475.417	26811.67
475.621	26987.79
475.826	26707.22
476.031	25984.29
476.235	25611.56
476.44	25505.06
476.645	24663.35
476.849	24837.42
477.054	23885.12
477.259	23749.95
477.463	23242.06
477.668	22799.69
477.872	23088.46
478.077	22308.18
478.282	21562.72
478.486	21599.59
478.691	21112.17
478.895	20979.05
479.1	20604.27
479.304	20499.83
479.509	20010.36
479.713	20245.88
479.918	19918.2
480.122	19240.33
480.326	19684.73
480.531	19512.7
480.735	19244.42
480.94	18777.48
481.144	19549.57
481.348	18404.75
481.553	18761.1
481.757	18152.85
481.961	18361.75
482.166	18742.67
482.37	18220.44
482.574	17536.42
482.778	17692.06
482.983	17941.91
483.187	17751.45
483.391	17630.62
483.595	16893.35
483.8	16825.77
484.004	17051.05
484.208	16876.97
484.412	16668.08
484.616	16938.41
484.821	16659.88
485.025	15895.99
485.229	15959.48
485.433	15867.32
485.637	15594.94
485.841	15480.25
486.045	15072.71
486.249	15154.63
486.453	14630.35
486.657	14679.5
486.861	14357.97
487.065	13762.01
487.269	14144.98
487.473	13266.4
487.677	13428.19
487.881	13456.86
488.085	12975.59
488.289	12873.19
488.493	12506.6
488.697	12445.16
488.901	12373.49
489.105	11994.61
489.309	11914.74
489.512	11599.35
489.716	11386.36
489.92	11222.53
490.124	10845.7
490.328	10810.89
490.531	10556.94
490.735	10606.09
490.939	10339.85
491.143	10038.8
491.346	9770.52
491.55	9877.01
491.754	9608.73
491.958	9412.12
492.161	9291.29
492.365	9178.65
492.569	8887.84
492.772	8955.43
492.976	8681
493.18	8533.54
493.383	8439.34
493.587	8617.51
493.79	8281.64
493.994	8158.77
494.197	8293.93
494.401	8093.23
494.605	7915.06
494.808	7968.31
495.012	7814.71
495.215	7818.8
495.419	7783.99
495.622	7540.28
495.825	7601.72
496.029	7601.72
496.232	7484.98
496.436	7429.69
496.639	7568.95
496.843	7435.83
497.046	7515.7
497.249	7616.05
497.453	7327.29
497.656	7358.01
497.859	7339.58
498.063	7308.86
498.266	7753.27
498.469	7392.83
498.673	7362.11
498.876	7546.42
499.079	7396.92
499.282	7265.85
499.485	7609.91
499.689	7501.37
499.892	7564.86
500.095	7611.96
500.298	7853.62
500.501	7550.52
500.705	7913.01
500.908	7894.58
501.111	7814.71
501.314	8214.06
501.517	8162.86
501.72	8306.22
501.923	8146.48
502.126	8367.66
502.329	8404.52
502.532	8312.36
502.735	8500.78
502.938	8656.42
503.141	8597.03
503.344	8635.94
503.547	8797.73
503.75	8900.13
503.953	9043.49
504.156	9092.64
504.359	9098.78
504.562	9340.44
504.765	9707.03
504.968	9827.86
505.17	10022.42
505.373	9930.26
505.576	10057.23
505.779	10251.79
505.982	10311.18
506.185	10808.84
506.387	10663.43
506.59	10950.15
506.793	11367.93
506.996	11240.96
507.198	11671.03
507.401	11826.68
507.604	11783.67
507.807	12326.38
508.009	12527.08
508.212	12428.78
508.415	12797.42
508.617	13139.43
508.82	13168.1
509.022	13465.05
509.225	13944.28
509.428	14126.55
509.63	14263.76
509.833	14607.82
510.035	15187.39
510.238	15353.28
510.44	15762.87
510.643	15898.04
510.845	16383.41
511.048	16487.86
511.25	16991.66
511.453	17325.47
511.655	17751.45
511.858	17909.15
512.06	18623.89
512.262	18683.28
512.465	19148.17
512.667	19877.24
512.87	20049.27
513.072	20247.93
513.274	21257.57
513.477	21570.91
513.679	21896.54
513.881	22373.72
514.084	22848.85
514.286	23235.91
514.488	23559.49
514.69	24675.63
514.893	24798.51
515.095	25455.91
515.297	25885.98
515.499	26352.92
515.701	26735.89
515.904	27493.64
516.106	27948.29
516.308	28499.19
516.51	29265.13
516.712	29228.27
516.914	30364.89
517.116	30975.19
517.318	31167.7
517.52	32048.32
517.722	32337.09
517.925	33193.14
518.127	33404.08
518.329	34110.63
518.531	34645.15
518.733	35415.18
518.935	35984.52
519.136	36674.68
519.338	36912.25
519.54	37526.64
519.742	38216.8
519.944	38710.36
520.146	39492.69
520.348	39744.59
520.55	40139.85
520.752	40512.58
520.954	41147.45
521.155	41630.77
521.357	41960.49
521.559	42775.58
521.761	43242.52
521.963	43361.3
522.164	43953.16
522.366	44360.71
522.568	44758.02
522.77	45063.16
522.971	45812.72
523.173	45315.06
523.375	45927.41
523.576	45808.62
523.778	46019.56
523.98	46627.81
524.181	46867.42
524.383	46703.59
524.584	47283.16
524.786	47158.24
524.988	47655.89
525.189	47264.73
525.391	47643.6
525.592	47313.88
525.794	47207.39
525.995	47475.67
526.197	47637.46
526.398	47760.34
526.6	47279.07
526.801	47373.27
527.003	47320.02
527.204	46920.67
527.406	46898.14
527.607	46672.87
527.808	46945.25
528.01	45956.08
528.211	46160.87
528.412	46597.09
528.614	45798.38
528.815	45196.28
529.016	45726.7
529.218	44567.55
529.419	44401.67
529.62	43799.57
529.822	43873.29
530.023	43547.67
530.224	42748.96
530.425	42308.65
530.626	41727.02
530.828	41364.53
531.029	41839.66
531.23	40832.06
531.431	40258.63
531.632	40322.12
531.833	39711.82
532.035	38786.14
532.236	38472.8
532.437	38327.39
532.638	37436.53
532.839	37282.93
533.04	36940.92
533.241	36359.3
533.442	36035.72
533.643	35632.27
533.844	34958.49
534.045	34546.84
534.246	34110.63
534.447	33551.53
534.648	32826.55
534.849	32369.85
535.05	32206.02
535.251	31923.4
535.451	31429.84
535.652	30936.27
535.853	30418.14
536.054	30291.16
536.255	29955.3
536.456	29402.35
536.657	29455.59
536.857	28271.87
537.058	28151.04
537.259	27907.33
537.46	27675.91
537.66	27278.6
537.861	26776.85
538.062	26234.14
538.263	25961.76
538.463	25537.83
538.664	25343.27
538.865	25138.48
539.065	25042.22
539.266	24399.16
539.466	24384.82
539.667	23340.36
539.868	23979.32
540.068	23235.91
540.269	23002.44
540.469	23039.31
540.67	22486.36
540.87	22134.1
541.071	22017.37
541.271	21804.38
541.472	21405.03
541.672	21323.11
541.873	20796.78
542.073	20288.89
542.274	20764.01
542.474	20295.03
542.675	20204.92
542.875	20116.86
543.075	19508.61
543.276	19242.37
543.476	19164.55
543.676	18765.2
543.877	18748.81
544.077	18818.44
544.277	18179.48
544.478	17847.71
544.678	18009.5
544.878	17761.69
545.078	17530.27
545.279	17251.75
545.479	16983.46
545.679	17104.29
545.879	16760.23
546.079	16457.14
546.28	16195
546.48	15971.77
546.68	15912.38
546.88	15736.25
547.08	15486.4
547.28	15386.05
547.48	14923.21
547.68	15355.33
547.88	14829
548.081	14650.83
548.281	14464.46
548.481	14196.18
548.681	14319.06
548.881	13987.29
549.081	13743.58
549.28	13530.59
549.48	13448.67
549.68	13286.88
549.88	13190.63
550.08	12791.27
550.28	12754.41
550.48	12803.56
550.68	12545.52
550.88	12207.6
551.08	12252.66
551.279	11912.69
551.479	11451.9
551.679	11542.01
551.879	11326.97
552.079	11263.49
552.278	11019.78
552.478	11132.42
552.678	10618.38
552.878	10495.5
553.077	10147.34
553.277	10108.43
553.477	10133.01
553.676	9967.12
553.876	9641.5
554.076	9631.26
554.275	9573.91
554.475	9166.37
554.674	9330.2
554.874	9080.35
555.074	8922.66
555.273	8601.13
555.473	8691.24
555.672	8295.98
555.872	8283.69
556.071	8252.97
556.271	8189.49
556.47	8091.18
556.67	7757.36
556.869	7585.33
557.068	7472.7
557.268	7376.44
557.467	7237.18
557.667	7259.71
557.866	7157.31
558.065	7075.39
558.265	7048.77
558.464	6628.93
558.663	6751.81
558.863	6379.08
559.062	6600.26
559.261	6178.38
559.461	6303.31
559.66	6032.97
559.859	5840.47
560.058	5957.2
560.258	5711.44
560.457	5674.58
560.656	5551.7
560.855	5537.37
561.054	5592.66
561.253	5391.96
561.453	5283.42
561.652	5264.99
561.851	5144.16
562.05	5011.04
562.249	4933.22
562.448	4949.6
562.647	4732.51
562.846	4884.06
563.045	4636.26
563.244	4652.64
563.443	4666.98
563.642	4406.89
563.841	4410.98
564.04	4392.55
564.239	4540.01
564.438	4382.31
564.637	3995.25
564.836	4130.41
565.035	3985.01
565.234	3997.29
565.432	3987.05
565.631	3847.79
565.83	3950.19
566.029	3804.78
566.228	3556.98
566.427	3716.72
566.625	3698.29
566.824	3612.28
567.023	3430.01
567.222	3464.82
567.42	3339.9
567.619	3538.55
567.818	3333.75
568.016	3364.47
568.215	3196.54
568.414	3384.95
568.612	3151.48
568.811	3196.54
569.01	2893.44
569.208	3022.46
569.407	3006.08
569.605	2983.55
569.804	2807.42
570.002	2889.34
570.201	2836.1
570.4	2733.7
570.598	2676.35
570.797	2678.4
570.995	2510.47
571.193	2498.18
571.392	2528.9
571.59	2453.13
571.789	2467.46
571.987	2584.2
572.186	2406.02
572.384	2467.46
572.582	2268.81
572.781	2522.76
572.979	2205.32
573.177	2207.37
573.376	2268.81
573.574	2123.4
573.772	2119.31
573.971	2084.49
574.169	1978
574.367	2051.72
574.565	2021
574.763	1924.75
574.962	1934.99
575.16	1920.65
575.358	1750.67
575.556	1783.44
575.754	1805.97
575.952	1859.21
576.151	1760.91
576.349	1787.54
576.547	1722
576.745	1711.76
576.943	1633.94
577.141	1640.08
577.339	1570.45
577.537	1562.26
577.735	1642.13
577.933	1488.53
578.131	1472.15
578.329	1574.55
578.527	1453.72
578.725	1480.34
578.923	1386.13
579.121	1447.57
579.319	1291.93
579.516	1349.27
579.714	1472.15
579.912	1312.41
580.11	1205.91
580.308	1242.78
580.506	1218.2
580.704	1240.73
580.901	1140.38
581.099	1341.08
581.297	1259.16
581.495	1160.86
581.692	1171.1
581.89	1222.3
582.088	1242.78
582.285	1044.12
582.483	1021.6
582.681	1052.31
582.878	1083.03
583.076	1080.99
583.274	1066.65
583.471	1058.46
583.669	1050.27
583.866	827.04
584.064	939.68
584.262	886.43
584.459	904.86
584.657	990.88
584.854	902.81
585.052	972.44
585.249	923.29
585.447	827.04
585.644	728.74
585.841	906.91
586.039	833.18
586.236	911
586.434	837.28
586.631	732.83
586.828	841.37
587.026	857.76
587.223	616.1
587.42	812.7
587.618	788.13
587.815	853.66
588.012	702.11
588.21	728.74
588.407	769.69
588.604	757.41
588.801	638.62
588.999	677.54
589.196	810.65
589.393	632.48
589.59	736.93
589.787	716.45
589.984	630.43
590.182	585.38
590.379	638.62
590.576	646.82
590.773	706.21
590.97	640.67
591.167	669.34
591.364	657.06
591.561	650.91
591.758	747.17
591.955	702.11
592.152	583.33
592.349	601.76
592.546	589.47
592.743	636.58
592.94	657.06
593.137	712.35
593.334	655.01
593.531	728.74
593.727	667.3
593.924	695.97
594.121	540.32
594.318	669.34
594.515	771.74
594.712	747.17
594.908	865.95
595.105	558.75
595.302	638.62
595.499	669.34
595.696	845.47
595.892	673.44
596.089	788.13
596.286	751.26
596.482	849.57
596.679	788.13
596.876	700.06
597.072	882.33
597.269	777.89
597.466	868
597.662	837.28
597.859	855.71
598.055	945.82
598.252	1001.12
598.448	1095.32
598.645	1099.42
598.841	1052.31
599.038	1185.43
599.234	1240.73
599.431	1255.06
599.627	1261.21
599.824	1281.69
600.02	1322.65
600.217	1384.09
600.413	1486.48
600.609	1367.7
600.806	1732.24
601.002	1545.88
601.198	1576.59
601.395	1683.09
601.591	1717.9
601.787	1726.1
601.984	1918.61
602.18	1971.85
602.376	1961.61
602.572	2078.35
602.769	2125.45
602.965	2297.48
603.161	2326.15
603.357	2365.06
603.553	2520.71
603.75	2442.89
603.946	2725.51
604.142	2645.63
604.338	2907.77
604.534	2745.98
604.73	2979.45
604.926	2999.93
605.122	3247.74
605.318	3309.18
605.514	3442.29
605.71	3475.06
605.906	3702.39
606.102	3669.62
606.298	4001.39
606.494	3909.23
606.69	4183.66
606.886	4017.77
607.082	4327.02
607.278	4408.94
607.474	4742.75
607.67	4785.76
607.866	4771.43
608.062	5064.29
608.257	5127.77
608.453	5025.37
608.649	5318.23
608.845	5461.59
609.041	5619.28
609.236	5678.68
609.432	5932.62
609.628	6162
609.824	6116.94
610.019	6323.79
610.215	6489.67
610.411	6975.04
610.606	6960.7
610.802	7081.53
610.998	7456.31
611.193	7636.53
611.389	7589.43
611.584	7896.63
611.78	8107.57
611.976	8334.89
612.171	8572.46
612.367	8724.01
612.562	8816.16
612.758	9025.06
612.953	9268.77
613.149	9758.23
613.344	9762.33
613.539	10333.71
613.735	10477.07
613.93	10806.79
614.126	10962.44
614.321	11296.25
614.517	11822.58
614.712	11967.99
614.907	12144.11
615.103	12553.71
615.298	12686.83
615.493	13225.44
615.688	13620.7
615.884	13960.66
616.079	13870.55
616.274	14415.31
616.47	14829
616.665	15330.75
616.86	15697.34
617.055	16061.88
617.25	16287.15
617.445	16885.16
617.641	17386.91
617.836	17706.4
618.031	17917.34
618.226	18859.4
618.421	18974.09
618.616	19600.77
618.811	19455.36
619.006	20485.49
619.201	20639.09
619.396	21370.21
619.591	21271.91
619.786	22299.99
619.981	22111.58
620.176	22990.16
620.371	23164.23
620.566	24044.86
620.761	24307
620.956	25238.83
621.151	25550.12
621.346	26064.16
621.541	26309.91
621.735	27372.81
621.93	27104.53
622.125	28069.12
622.32	27995.39
622.515	29021.42
622.709	29474.02
622.904	29857
623.099	30430.43
623.294	31177.93
623.488	31390.92
623.683	32390.33
623.878	32388.28
624.072	33490.09
624.267	33776.81
624.462	34026.66
624.656	34475.16
624.851	35138.71
625.046	35251.34
625.24	35796.1
625.435	36347.01
625.629	36961.4
625.824	37293.17
626.018	37819.5
626.213	37518.45
626.407	38966.36
626.602	38927.45
626.796	39445.58
626.991	40225.86
627.185	40307.78
627.38	40340.55
627.574	40201.29
627.768	41202.74
627.963	41116.73
628.157	40721.47
628.352	41325.62
628.546	41487.41
628.74	41782.32
628.935	41069.62
629.129	41563.18
629.323	41208.89
629.517	40959.03
629.712	40647.74
629.906	40457.28
630.1	39709.77
630.294	39586.89
630.489	39322.71
630.683	39177.3
630.877	38212.71
631.071	37665.9
631.265	37284.98
631.459	36304
631.653	35728.52
631.848	34901.14
632.042	34081.95
632.236	33887.4
632.43	32234.69
632.624	31964.35
632.818	30610.65
633.012	29830.37
633.206	28853.49
633.4	28032.25
633.594	26887.44
633.788	26479.89
633.982	25640.23
634.176	24577.33
634.369	23354.69
634.563	22715.73
634.757	21826.91
634.951	21312.87
635.145	20295.03
635.339	19596.67
635.533	18582.93
635.726	18193.81
635.92	17225.12
636.114	16668.08
636.308	16010.68
636.501	15334.85
636.695	14761.42
636.889	13835.74
637.083	13319.65
637.276	12938.73
637.47	12361.2
637.664	11904.5
637.857	11329.02
638.051	11034.11
638.244	10548.75
638.438	9991.7
638.632	9698.84
638.825	9037.34
639.019	9117.22
639.212	8513.06
639.406	8128.05
639.599	7839.28
639.793	7554.62
639.986	7239.23
640.18	7136.83
640.373	6719.04
640.567	6336.07
640.76	6157.9
640.954	6035.02
641.147	5697.11
641.34	5510.74
641.534	5299.8
641.727	5152.35
641.92	5054.05
642.114	4804.19
642.307	4484.71
642.5	4523.62
642.694	4167.28
642.887	4226.67
643.08	3970.67
643.273	4007.53
643.467	3612.28
643.66	3561.08
643.853	3321.46
644.046	3305.08
644.239	3079.8
644.432	2991.74
644.626	2741.89
644.819	2731.65
645.012	2684.55
645.205	2600.58
645.398	2465.41
645.591	2344.58
645.784	2328.2
645.977	2117.26
646.17	2125.45
646.363	2008.72
646.556	1885.84
646.749	1902.22
646.942	1803.92
647.135	1803.92
647.328	1635.99
647.521	1611.41
647.714	1480.34
647.907	1531.54
648.099	1359.51
648.292	1525.4
648.485	1420.95
648.678	1283.74
648.871	1199.77
649.064	1179.29
649.256	1130.14
649.449	1031.83
649.642	1003.16
649.835	1029.79
650.027	947.87
650.22	925.34
650.413	1003.16
650.605	939.68
650.798	738.98
650.991	847.52
651.183	831.13
651.376	827.04
651.568	870.05
651.761	736.93
651.954	679.58
652.146	636.58
652.339	675.49
652.531	712.35
652.724	509.6
652.916	689.82
653.109	519.84
653.301	655.01
653.494	521.89
653.686	476.84
653.879	585.38
654.071	501.41
654.263	499.36
654.456	378.53
654.648	489.12
654.84	546.47
655.033	466.6
655.225	585.38
655.417	347.81
655.61	495.27
655.802	505.51
655.994	482.98
656.186	308.9
656.379	439.97
656.571	274.09
656.763	349.86
656.955	399.01
657.148	358.05
657.34	437.92
657.532	280.23
657.724	325.29
657.916	321.19
658.108	327.33
658.3	335.53
658.492	333.48
658.684	233.13
658.876	360.1
659.068	235.18
659.26	261.8
659.452	163.5
659.644	251.56
659.836	356.01
660.028	216.74
660.22	249.51
660.412	239.27
660.604	159.4
660.796	251.56
660.988	368.29
661.18	274.09
661.372	274.09
661.563	233.13
661.755	222.89
661.947	128.68
662.139	149.16
662.331	112.3
662.522	194.22
662.714	171.69
662.906	243.37
663.097	120.49
663.289	149.16
663.481	128.68
663.673	224.94
663.864	157.35
664.056	218.79
664.247	81.58
664.439	177.83
664.631	177.83
664.822	132.78
665.014	143.02
665.205	143.02
665.397	126.63
665.588	210.6
665.78	186.02
665.971	159.4
666.163	179.88
666.354	134.82
666.546	132.78
666.737	138.92
666.929	118.44
667.12	161.45
667.311	161.45
667.503	110.25
667.694	188.07
667.885	173.74
668.077	220.84
668.268	30.38
668.459	95.91
668.651	132.78
668.842	204.46
669.033	59.05
669.224	44.71
669.416	306.85
669.607	169.64
669.798	50.86
669.989	214.7
670.18	124.58
670.371	132.78
670.563	9.9
670.754	138.92
670.945	140.97
671.136	192.17
671.327	106.15
671.518	233.13
671.709	212.65
671.9	173.74
672.091	202.41
672.282	126.63
672.473	69.29
672.664	61.1
672.855	128.68
673.046	134.82
673.237	261.8
673.428	106.15
673.619	145.06
673.809	71.34
674	241.32
674.191	175.78
674.382	173.74
674.573	130.73
674.764	91.82
674.954	186.02
675.145	112.3
675.336	124.58
675.527	65.19
675.717	116.39
675.908	95.91
676.099	97.96
676.289	122.54
676.48	77.48
676.671	157.35
676.861	71.34
677.052	192.17
677.243	73.39
677.433	188.07
677.624	214.7
677.814	147.11
678.005	112.3
678.195	245.41
678.386	124.58
678.576	192.17
678.767	73.39
678.957	183.98
679.148	259.75
679.338	231.08
679.529	198.31
679.719	91.82
679.909	300.71
680.1	147.11
680.29	241.32
680.481	173.74
680.671	255.65
680.861	239.27
681.052	272.04
681.242	245.41
681.432	257.7
681.622	216.74
681.813	136.87
682.003	300.71
682.193	171.69
682.383	186.02
682.573	104.11
682.764	204.46
682.954	290.47
683.144	284.33
683.334	138.92
683.524	210.6
683.714	206.5
683.904	204.46
684.094	167.59
684.284	204.46
684.474	337.57
684.664	257.7
684.854	155.3
685.044	202.41
685.234	132.78
685.424	134.82
685.614	116.39
685.804	347.81
685.994	267.94
686.184	128.68
686.374	200.36
686.564	210.6
686.753	190.12
686.943	75.43
687.133	120.49
687.323	190.12
687.513	214.7
687.702	208.55
687.892	200.36
688.082	274.09
688.272	315.05
688.461	231.08
688.651	329.38
688.841	255.65
689.03	149.16
689.22	202.41
689.41	237.22
689.599	272.04
689.789	130.73
689.979	280.23
690.168	226.98
690.358	274.09
690.547	243.37
690.737	181.93
690.926	186.02
691.116	233.13
691.305	317.09
691.495	235.18
691.684	120.49
691.874	136.87
692.063	214.7
692.252	251.56
692.442	304.81
692.631	134.82
692.82	175.78
693.01	179.88
693.199	218.79
693.388	208.55
693.578	181.93
693.767	231.08
693.956	202.41
694.146	155.3
694.335	259.75
694.524	179.88
694.713	239.27
694.902	214.7
695.092	239.27
695.281	243.37
695.47	165.54
695.659	128.68
695.848	175.78
696.037	167.59
696.226	214.7
696.415	186.02
696.604	206.5
696.793	241.32
696.982	192.17
697.171	265.89
697.36	173.74
697.549	134.82
697.738	50.86
697.927	222.89
698.116	161.45
698.305	165.54
698.494	165.54
698.683	253.61
698.872	226.98
699.061	147.11
699.25	138.92
699.438	122.54
699.627	89.77
699.816	251.56
700.005	108.2
700.193	116.39
700.382	290.47
700.571	175.78
700.76	284.33
700.948	155.3
701.137	159.4
701.326	239.27
701.514	112.3
701.703	249.51
701.892	89.77
702.08	364.2
702.269	165.54
702.457	132.78
702.646	190.12
702.834	161.45
703.023	181.93
703.212	237.22
703.4	112.3
703.589	151.21
703.777	126.63
703.965	95.91
704.154	100.01
704.342	104.11
704.531	85.67
704.719	220.84
704.907	183.98
705.096	50.86
705.284	116.39
705.472	214.7
705.661	132.78
705.849	296.61
706.037	249.51
706.226	186.02
706.414	149.16
706.602	163.5
706.79	218.79
706.979	132.78
707.167	163.5
707.355	136.87
707.543	136.87
707.731	159.4
707.919	104.11
708.107	175.78
708.296	69.29
708.484	106.15
708.672	186.02
708.86	210.6
709.048	202.41
709.236	79.53
709.424	212.65
709.612	257.7
709.8	102.06
709.988	241.32
710.176	190.12
710.364	272.04
710.551	161.45
710.739	95.91
710.927	183.98
711.115	161.45
711.303	218.79
711.491	255.65
711.679	149.16
711.866	286.37
712.054	181.93
712.242	173.74
712.43	235.18
712.617	159.4
712.805	233.13
712.993	208.55
713.181	130.73
713.368	276.13
713.556	181.93
713.744	202.41
713.931	280.23
714.119	134.82
714.306	104.11
714.494	159.4
714.682	120.49
714.869	87.72
715.057	186.02
715.244	104.11
715.432	214.7
715.619	65.19
715.807	192.17
715.994	153.26
716.182	124.58
716.369	241.32
716.556	153.26
716.744	124.58
716.931	114.34
717.119	265.89
717.306	196.26
717.493	202.41
717.681	155.3
717.868	167.59
718.055	224.94
718.242	138.92
718.43	253.61
718.617	188.07
718.804	126.63
718.991	229.03
719.179	202.41
719.366	290.47
719.553	241.32
719.74	83.63
719.927	222.89
720.114	247.46
720.301	165.54
720.488	138.92
720.676	149.16
720.863	308.9
721.05	335.53
721.237	249.51
721.424	306.85
721.611	261.8
721.798	91.82
721.985	155.3
722.172	155.3
722.358	212.65
722.545	239.27
722.732	181.93
722.919	306.85
723.106	278.18
723.293	163.5
723.48	206.5
723.667	155.3
723.853	229.03
724.04	245.41
724.227	231.08
724.414	186.02
724.6	259.75
724.787	313
724.974	378.53
725.161	249.51
725.347	206.5
725.534	267.94
725.72	276.13
725.907	386.72
726.094	286.37
726.28	210.6
726.467	220.84
726.653	145.06
726.84	333.48
727.027	333.48
727.213	231.08
727.4	300.71
727.586	259.75
727.773	233.13
727.959	183.98
728.145	206.5
728.332	196.26
728.518	233.13
728.705	265.89
728.891	233.13
729.077	204.46
729.264	183.98
729.45	222.89
729.636	272.04
729.823	188.07
730.009	337.57
730.195	231.08
730.382	229.03
730.568	202.41
730.754	274.09
730.94	204.46
731.126	235.18
731.313	255.65
731.499	202.41
731.685	300.71
731.871	308.9
732.057	376.48
732.243	323.24
732.429	267.94
732.615	382.63
732.801	390.82
732.987	296.61
733.173	216.74
733.359	216.74
733.545	286.37
733.731	212.65
733.917	399.01
734.103	235.18
734.289	292.52
734.475	298.66
734.661	372.39
734.847	300.71
735.033	306.85
735.219	286.37
735.404	319.14
735.59	274.09
735.776	224.94
735.962	308.9
736.148	269.99
736.333	345.77
736.519	313
736.705	267.94
736.89	255.65
737.076	286.37
737.262	259.75
737.447	200.36
737.633	325.29
737.819	380.58
738.004	239.27
738.19	313
738.375	261.8
738.561	327.33
738.747	339.62
738.932	210.6
739.118	452.26
739.303	325.29
739.489	296.61
739.674	210.6
739.859	229.03
740.045	261.8
740.23	306.85
740.416	163.5
740.601	280.23
740.786	306.85
740.972	167.59
741.157	282.28
741.342	177.83
741.528	194.22
741.713	362.15
741.898	226.98
742.084	329.38
742.269	239.27
742.454	280.23
742.639	417.44
742.824	196.26
743.01	356.01
743.195	378.53
743.38	165.54
743.565	200.36
743.75	337.57
743.935	374.44
744.12	431.78
744.305	259.75
744.49	237.22
744.675	278.18
744.86	233.13
745.045	353.96
745.23	231.08
745.415	286.37
745.6	358.05
745.785	302.76
745.97	347.81
746.155	286.37
746.34	310.95
746.525	229.03
746.71	323.24
746.895	149.16
747.079	276.13
747.264	251.56
747.449	335.53
747.634	333.48
747.819	229.03
748.003	196.26
748.188	151.21
748.373	274.09
748.557	310.95
748.742	183.98
748.927	265.89
749.111	280.23
749.296	202.41
749.481	284.33
749.665	267.94
749.85	155.3
750.034	284.33
750.219	188.07
750.404	241.32
750.588	231.08
750.773	220.84
750.957	181.93
751.141	239.27
751.326	224.94
751.51	81.58
751.695	249.51
751.879	261.8
752.064	247.46
752.248	298.66
752.432	343.72
752.617	296.61
752.801	315.05
752.985	147.11
753.17	257.7
753.354	171.69
753.538	267.94
753.722	177.83
753.907	288.42
754.091	73.39
754.275	267.94
754.459	112.3
754.643	245.41
754.828	210.6
755.012	226.98
755.196	114.34
755.38	216.74
755.564	200.36
755.748	208.55
755.932	249.51
756.116	198.31
756.3	298.66
756.484	200.36
756.668	190.12
756.852	61.1
757.036	251.56
757.22	167.59
757.404	138.92
757.588	179.88
757.772	208.55
757.956	122.54
758.14	247.46
758.323	85.67
758.507	294.57
758.691	161.45
758.875	216.74
759.059	288.42
759.242	132.78
759.426	155.3
759.61	210.6
759.794	34.47
759.977	261.8
760.161	374.44
760.345	253.61
760.528	247.46
760.712	161.45
760.895	212.65
761.079	110.25
761.263	73.39
761.446	169.64
761.63	194.22
761.813	218.79
761.997	100.01
762.18	104.11
762.364	128.68
762.547	71.34
762.731	143.02
762.914	165.54
763.098	81.58
763.281	104.11
763.464	91.82
763.648	140.97
763.831	149.16
764.015	102.06
764.198	124.58
764.381	104.11
764.564	114.34
764.748	208.55
764.931	239.27
765.114	126.63
765.297	132.78
765.481	102.06
765.664	171.69
765.847	57
766.03	239.27
766.213	71.34
766.397	157.35
766.58	108.2
766.763	157.35
766.946	93.87
767.129	59.05
767.312	44.71
767.495	104.11
767.678	57
767.861	87.72
768.044	130.73
768.227	57
768.41	100.01
768.593	95.91
768.776	120.49
768.959	165.54
769.142	278.18
769.324	132.78
769.507	106.15
769.69	77.48
769.873	83.63
770.056	327.33
770.239	54.95
770.421	122.54
770.604	132.78
770.787	114.34
770.97	106.15
771.152	93.87
771.335	136.87
771.518	24.23
771.7	157.35
771.883	218.79
772.066	40.62
772.248	87.72
772.431	183.98
772.613	145.06
772.796	5.8
772.978	151.21
773.161	167.59
773.343	118.44
773.526	97.96
773.708	50.86
773.891	11.95
774.073	75.43
774.256	38.57
774.438	249.51
774.621	120.49
774.803	145.06
774.985	48.81
775.168	79.53
775.35	32.43
775.532	118.44
775.715	30.38
775.897	120.49
776.079	67.24
776.261	206.5
776.444	36.52
776.626	108.2
776.808	116.39
776.99	11.95
777.173	110.25
777.355	65.19
777.537	71.34
777.719	65.19
777.901	-6.49
778.083	-0.34
778.265	26.28
778.447	79.53
778.629	63.15
778.811	83.63
778.993	104.11
779.175	130.73
779.357	118.44
779.539	16.04
779.721	100.01
779.903	173.74
780.085	26.28
780.267	132.78
780.449	87.72
780.631	114.34
780.812	116.39
780.994	28.33
781.176	18.09
781.358	122.54
781.54	28.33
781.721	116.39
781.903	89.77
782.085	52.91
782.267	210.6
782.448	-16.73
782.63	36.52
782.812	32.43
782.993	57
783.175	140.97
783.357	13.99
783.538	95.91
783.72	-26.96
783.901	9.9
784.083	36.52
784.264	159.4
784.446	-10.58
784.627	-35.16
784.809	140.97
784.99	34.47
785.172	104.11
785.353	48.81
785.535	32.43
785.716	7.85
785.897	16.04
786.079	32.43
786.26	63.15
786.441	155.3
786.623	-65.88
786.804	-10.58
786.985	77.48
787.167	54.95
787.348	7.85
787.529	61.1
787.71	214.7
787.891	85.67
788.073	-2.39
788.254	-47.44
788.435	159.4
788.616	116.39
788.797	7.85
788.978	118.44
789.159	9.9
789.34	61.1
789.522	73.39
789.703	-0.34
789.884	91.82
790.065	59.05
790.246	204.46
790.427	34.47
790.607	140.97
790.788	71.34
790.969	75.43
791.15	42.67
791.331	-53.59
791.512	-55.64
791.693	-92.5
791.874	-0.34
792.054	167.59
792.235	110.25
792.416	-14.68
792.597	73.39
792.778	46.76
792.958	59.05
793.139	-26.96
793.32	40.62
793.5	-20.82
793.681	79.53
793.862	79.53
794.042	20.14
794.223	-29.01
794.404	18.09
794.584	-82.26
794.765	83.63
794.945	59.05
795.126	34.47
795.306	54.95
795.487	18.09
795.667	38.57
795.848	52.91
796.028	13.99
796.209	16.04
796.389	95.91
796.57	42.67
796.75	50.86
796.93	20.14
797.111	28.33
797.291	87.72
797.471	73.39
797.652	54.95
797.832	-96.6
798.012	83.63
798.192	5.8
798.373	-49.49
798.553	-29.01
798.733	50.86
798.913	7.85
799.093	-26.96
799.274	11.95
799.454	20.14
799.634	93.87
799.814	112.3
799.994	50.86
800.174	69.29
800.354	44.71
800.534	-43.35
800.714	79.53
800.894	-33.11
801.074	-41.3
801.254	3.75
801.434	79.53
801.614	7.85
801.794	-39.25
801.974	1934.99
802.154	-26.96
802.334	118.44
802.514	-33.11
802.693	24.23
802.873	50.86
803.053	169.64
803.233	1.71
803.413	-0.34
803.592	9.9
803.772	-18.77
803.952	-18.77
804.131	-98.64
804.311	95.91
804.491	54.95
804.67	-57.68
804.85	-88.4
805.03	116.39
805.209	44.71
805.389	-41.3
805.568	3.75
805.748	-8.53
805.928	-6.49
806.107	61.1
806.287	7.85
806.466	44.71
806.646	44.71
806.825	-29.01
807.004	-100.69
807.184	52.91
807.363	-0.34
807.543	16.04
807.722	-51.54
807.901	77.48
808.081	73.39
808.26	-115.03
808.439	83.63
808.619	-67.92
808.798	-39.25
808.977	54.95
809.156	57
809.336	54.95
809.515	46.76
809.694	3.75
809.873	16.04
810.052	52.91
810.231	93.87
810.411	87.72
810.59	100.01
810.769	13.99
810.948	40.62
811.127	-117.08
811.306	-39.25
811.485	36.52
811.664	85.67
811.843	-12.63
812.022	30.38
812.201	3.75
812.38	46.76
812.559	-26.96
812.737	36.52
812.916	16.04
813.095	7.85
813.274	-6.49
813.453	13.99
813.632	48.81
813.811	95.91
813.989	-74.07
814.168	52.91
814.347	5.8
814.526	-55.64
814.704	63.15
814.883	75.43
815.062	-41.3
815.24	114.34
815.419	-43.35
815.598	1.71
815.776	-55.64
815.955	-24.92
816.133	-106.84
816.312	-26.96
816.49	-41.3
816.669	-8.53
816.847	-8.53
817.026	83.63
817.204	-14.68
817.383	16.04
817.561	-55.64
817.74	48.81
817.918	24.23
818.097	-8.53
818.275	-47.44
818.453	75.43
818.632	57
818.81	54.95
818.988	-12.63
819.167	-45.4
819.345	13.99
819.523	-49.49
819.701	-63.83
819.879	67.24
820.058	9.9
820.236	18.09
820.414	44.71
820.592	-22.87
820.77	11.95
820.948	-8.53
821.127	-72.02
821.305	34.47
821.483	-82.26
821.661	32.43
821.839	34.47
822.017	-96.6
822.195	26.28
822.373	3.75
822.551	-6.49
822.729	44.71
822.907	-24.92
823.085	32.43
823.262	87.72
823.44	-4.44
823.618	9.9
823.796	-26.96
823.974	44.71
824.152	-0.34
824.329	-6.49
824.507	-35.16
824.685	46.76
824.863	-51.54
825.04	-0.34
825.218	52.91
825.396	59.05
825.574	9.9
825.751	20.14
825.929	81.58
826.107	-55.64
826.284	-20.82
826.462	100.01
826.639	-65.88
826.817	-22.87
826.994	-12.63
827.172	-88.4
827.349	100.01
827.527	71.34
827.704	-26.96
827.882	11.95
828.059	-41.3
828.237	5.8
828.414	63.15
828.591	-143.7
828.769	5.8
828.946	-80.21
829.124	1.71
829.301	143.02
829.478	-6.49
829.655	61.1
829.833	18.09
830.01	5.8
830.187	81.58
830.364	3.75
830.542	-26.96
830.719	143.02
830.896	89.77
831.073	22.19
831.25	44.71
831.427	63.15
831.604	-39.25
831.782	-47.44
831.959	-24.92
832.136	13.99
832.313	48.81
832.49	13.99
832.667	-37.2
832.844	-51.54
833.021	-14.68
833.198	11.95
833.374	20.14
833.551	-35.16
833.728	38.57
833.905	93.87
834.082	-121.17
834.259	67.24
834.436	87.72
834.612	-80.21
834.789	97.96
834.966	-31.06
835.143	-20.82
835.319	-72.02
835.496	57
835.673	26.28
835.85	83.63
836.026	32.43
836.203	-0.34
836.38	65.19
836.556	5.8
836.733	-65.88
836.909	192.17
837.086	-61.78
837.262	-133.46
837.439	40.62
837.616	-55.64
837.792	-2.39
837.968	9.9
838.145	-104.79
838.321	-61.78
838.498	13.99
838.674	57
838.851	36.52
839.027	3.75
839.203	-20.82
839.38	22.19
839.556	-14.68
839.732	59.05
839.909	-20.82
840.085	91.82
840.261	-96.6
840.437	11.95
840.614	-10.58
840.79	38.57
840.966	61.1
841.142	32.43
841.318	-0.34
841.494	28.33
841.671	69.29
841.847	-117.08
842.023	-43.35
842.199	52.91
842.375	85.67
842.551	-94.55
842.727	-33.11
842.903	108.2
843.079	-47.44
843.255	112.3
843.431	-72.02
843.607	36.52
843.783	-112.98
843.959	52.91
844.134	-0.34
844.31	120.49
844.486	-78.16
844.662	-63.83
844.838	-8.53
845.013	32.43
845.189	79.53
845.365	-59.73
845.541	11.95
845.716	-0.34
845.892	77.48
846.068	3.75
846.244	-20.82
846.419	93.87
846.595	-74.07
846.77	-43.35
846.946	26.28
847.122	-49.49
847.297	-10.58
847.473	46.76
847.648	-29.01
847.824	-22.87
847.999	-86.36
848.175	-16.73
848.35	77.48
848.526	63.15
848.701	93.87
848.876	50.86
849.052	69.29
849.227	-106.84
849.403	9.9
849.578	3.75
849.753	34.47
849.929	22.19
850.104	-76.12
850.279	-4.44
850.454	59.05
850.63	7.85
850.805	-6.49
850.98	-8.53
851.155	-69.97
851.33	7.85
851.505	-115.03
851.681	128.68
851.856	-47.44
852.031	11.95
852.206	50.86
852.381	-35.16
852.556	13.99
852.731	7.85
852.906	42.67
853.081	42.67
853.256	50.86
853.431	-29.01
853.606	-10.58
853.781	-65.88
853.956	-82.26
854.131	77.48
854.305	-59.73
854.48	-16.73
854.655	-74.07
854.83	-61.78
855.005	-12.63
855.18	59.05
855.354	5.8
855.529	16.04
855.704	11.95
855.879	9.9
856.053	-69.97
856.228	26.28
856.403	-170.32
856.577	-12.63
856.752	-100.69
856.926	-84.31
857.101	-14.68
857.276	-100.69
857.45	-14.68
857.625	130.73
857.799	-65.88
857.974	-2.39
858.148	-67.92
858.323	-20.82
858.497	3.75
858.672	3.75
858.846	-10.58
859.02	81.58
859.195	-137.56
859.369	-31.06
859.543	-37.2
859.718	-35.16
859.892	54.95
860.066	-22.87
860.241	-22.87
860.415	-61.78
860.589	34.47
860.763	-31.06
860.938	-4.44
861.112	20.14
861.286	11.95
861.46	-53.59
861.634	-18.77
861.808	75.43
861.982	-86.36
862.157	-139.6
862.331	-8.53
862.505	-125.27
862.679	-102.74
862.853	-57.68
863.027	-67.92
863.201	171.69
863.375	-55.64
863.549	52.91
863.722	42.67
863.896	57
864.07	-31.06
864.244	24.23
864.418	32.43
864.592	-4.44
864.766	-8.53
864.939	42.67
865.113	-33.11
865.287	44.71
865.461	-115.03
865.634	1.71
865.808	-98.64
865.982	1.71
866.156	-29.01
866.329	-100.69
866.503	-10.58
866.676	69.29
866.85	48.81
867.024	-112.98
867.197	40.62
867.371	40.62
867.544	34.47
867.718	-92.5
867.891	7.85
868.065	-84.31
868.238	48.81
868.412	102.06
868.585	22.19
868.759	-78.16
868.932	-49.49
869.105	-160.08
869.279	-78.16
869.452	-90.45
869.625	52.91
869.799	-18.77
869.972	-96.6
870.145	-10.58
870.319	-22.87
870.492	-78.16
870.665	-86.36
870.838	-26.96
871.011	-104.79
871.185	-0.34
871.358	-51.54
871.531	46.76
871.704	-65.88
871.877	34.47
872.05	-45.4
872.223	-78.16
872.396	73.39
872.569	40.62
872.742	-112.98
872.915	42.67
873.088	-51.54
873.261	-88.4
873.434	22.19
873.607	-26.96
873.78	69.29
873.953	-78.16
874.126	-6.49
874.299	61.1
874.471	-45.4
874.644	11.95
874.817	-12.63
874.99	175.78
875.163	5.8
875.335	34.47
875.508	-53.59
875.681	75.43
875.853	-49.49
876.026	-57.68
876.199	30.38
876.371	-14.68
876.544	54.95
876.717	-6.49
876.889	-78.16
877.062	-26.96
877.234	-69.97
877.407	20.14
877.579	13.99
877.752	3.75
877.924	7.85
878.097	108.2
878.269	9.9
878.442	11.95
878.614	-33.11
878.786	-18.77
878.959	-162.13
879.131	32.43
879.303	-139.6
879.476	-72.02
879.648	57
879.82	-47.44
879.993	-4.44
880.165	-26.96
880.337	-69.97
880.509	-26.96
880.681	-67.92
880.854	-26.96
881.026	73.39
881.198	179.88
881.37	-14.68
881.542	-2.39
881.714	-16.73
881.886	-96.6
882.058	1.71
882.23	-57.68
882.402	-24.92
882.574	-22.87
882.746	112.3
882.918	59.05
883.09	9.9
883.262	-72.02
883.434	-18.77
883.606	-92.5
883.778	-16.73
883.95	145.06
884.122	-63.83
884.293	124.58
884.465	13.99
884.637	50.86
884.809	-31.06
884.98	-8.53
885.152	73.39
885.324	102.06
885.496	-51.54
885.667	-61.78
885.839	9.9
886.011	3.75
886.182	32.43
886.354	34.47
886.525	85.67
886.697	5.8
886.869	-76.12
887.04	-65.88
887.212	134.82
887.383	138.92
887.555	-39.25
887.726	-115.03
887.897	-0.34
888.069	-63.83
888.24	97.96
888.412	28.33
888.583	-67.92
888.754	-115.03
888.926	-106.84
889.097	-84.31
889.268	-37.2
889.44	5.8
889.611	-76.12
889.782	-106.84
889.953	-121.17
890.125	79.53
890.296	-72.02
890.467	30.38
890.638	-14.68
890.809	-20.82
890.98	-67.92
891.151	-2.39
891.323	44.71
891.494	20.14
891.665	-61.78
891.836	22.19
892.007	-47.44
892.178	13.99
892.349	9.9
892.52	-78.16
892.691	18.09
892.862	-31.06
893.032	-117.08
893.203	-41.3
893.374	22.19
893.545	85.67
893.716	-35.16
893.887	87.72
894.057	16.04
894.228	-26.96
894.399	-61.78
894.57	54.95
894.74	-2.39
894.911	24.23
895.082	-72.02
895.253	-14.68
895.423	11.95
895.594	59.05
895.764	16.04
895.935	-69.97
896.106	11.95
896.276	-115.03
896.447	7.85
896.617	-112.98
896.788	-61.78
896.958	30.38
897.129	-63.83
897.299	-100.69
897.47	63.15
897.64	110.25
897.81	-2.39
897.981	-4.44
898.151	-61.78
898.322	9.9
898.492	-10.58
898.662	-53.59
898.832	-39.25
899.003	-12.63
899.173	34.47
899.343	-123.22
899.513	-74.07
