Data from USB4F104151__54__09-28-23-702.txt Node

Date: Wed Feb 26 09:28:23 EST 2025
User: louis
Spectrometer: USB4F10415
Trigger mode: 4
Integration Time (sec): 1.000000E-1
Scans to average: 1
Electric dark correction enabled: true
Nonlinearity correction enabled: false
Boxcar width: 0
XAxis mode: Wavelengths
Number of Pixels in Spectrum: 3648
>>>>>Begin Spectral Data<<<<<
178.204	-355.66
178.424	-355.66
178.644	-355.66
178.864	-347.47
179.084	-374.1
179.304	90.79
179.524	-21.84
179.744	-9.56
179.964	64.17
180.184	25.26
180.404	29.35
180.624	-7.51
180.844	-17.75
181.064	-38.23
181.283	-30.04
181.503	-105.81
181.723	21.16
181.943	-91.48
182.163	80.55
182.383	-23.89
182.602	123.56
182.822	162.47
183.042	23.21
183.262	-34.13
183.482	15.02
183.701	62.12
183.921	-1.37
184.141	-15.7
184.361	29.35
184.58	78.51
184.8	-3.41
185.02	-34.13
185.239	125.61
185.459	94.89
185.679	103.08
185.898	-75.09
186.118	115.37
186.338	2.73
186.557	115.37
186.777	-77.14
186.997	-1.37
187.216	-1.37
187.436	107.18
187.655	53.93
187.875	49.83
188.095	6.83
188.314	182.95
188.534	23.21
188.753	35.5
188.973	70.31
189.192	131.75
189.412	19.11
189.631	60.07
189.851	64.17
190.07	121.51
190.29	-101.72
190.509	-3.41
190.729	2.73
190.948	141.99
191.168	236.2
191.387	119.46
191.607	-42.32
191.826	109.23
192.045	6.83
192.265	-7.51
192.484	-25.94
192.704	72.36
192.923	-17.75
193.142	78.51
193.362	60.07
193.581	189.1
193.8	62.12
194.02	43.69
194.239	72.36
194.458	51.88
194.678	-64.85
194.897	-40.28
195.116	43.69
195.335	-17.75
195.555	117.42
195.774	12.97
195.993	51.88
196.212	0.68
196.432	25.26
196.651	12.97
196.87	6.83
197.089	105.13
197.308	66.22
197.528	21.16
197.747	-62.8
197.966	78.51
198.185	101.03
198.404	-50.52
198.623	88.75
198.842	17.07
199.062	107.18
199.281	193.19
199.5	64.17
199.719	23.21
199.938	39.59
200.157	29.35
200.376	96.94
200.595	64.17
200.814	86.7
201.033	-46.42
201.252	94.89
201.471	39.59
201.69	17.07
201.909	41.64
202.128	74.41
202.347	96.94
202.566	47.79
202.785	-60.76
203.004	-71
203.223	232.1
203.442	-30.04
203.661	-62.8
203.879	123.56
204.098	76.46
204.317	47.79
204.536	129.7
204.755	53.93
204.974	191.14
205.193	94.89
205.411	178.86
205.63	78.51
205.849	62.12
206.068	25.26
206.287	-30.04
206.505	199.34
206.724	-21.84
206.943	72.36
207.162	-36.18
207.381	49.83
207.599	8.87
207.818	68.27
208.037	4.78
208.255	4.78
208.474	0.68
208.693	53.93
208.911	49.83
209.13	55.98
209.349	39.59
209.567	105.13
209.786	78.51
210.005	41.64
210.223	6.83
210.442	-105.81
210.661	31.4
210.879	121.51
211.098	47.79
211.316	72.36
211.535	129.7
211.753	-1.37
211.972	80.55
212.191	47.79
212.409	21.16
212.628	2.73
212.846	-48.47
213.065	2.73
213.283	62.12
213.502	-68.95
213.72	41.64
213.938	-23.89
214.157	-13.65
214.375	125.61
214.594	-1.37
214.812	121.51
215.031	-1.37
215.249	-46.42
215.467	21.16
215.686	76.46
215.904	31.4
216.122	62.12
216.341	117.42
216.559	129.7
216.778	84.65
216.996	121.51
217.214	4.78
217.432	-68.95
217.651	-52.56
217.869	78.51
218.087	45.74
218.306	-9.56
218.524	60.07
218.742	21.16
218.96	103.08
219.179	-87.38
219.397	-11.61
219.615	180.9
219.833	101.03
220.051	-44.37
220.27	107.18
220.488	58.03
220.706	53.93
220.924	47.79
221.142	-40.28
221.36	60.07
221.578	82.6
221.796	17.07
222.015	66.22
222.233	31.4
222.451	105.13
222.669	-27.99
222.887	21.16
223.105	-62.8
223.323	-1.37
223.541	-19.8
223.759	45.74
223.977	31.4
224.195	187.05
224.413	74.41
224.631	105.13
224.849	43.69
225.067	170.66
225.285	-91.48
225.503	-27.99
225.721	-124.24
225.939	39.59
226.157	-44.37
226.375	225.96
226.592	8.87
226.81	10.92
227.028	135.85
227.246	68.27
227.464	27.31
227.682	141.99
227.9	35.5
228.117	10.92
228.335	92.84
228.553	21.16
228.771	-36.18
228.989	64.17
229.206	113.32
229.424	35.5
229.642	-54.61
229.86	-5.46
230.077	178.86
230.295	23.21
230.513	105.13
230.731	62.12
230.948	78.51
231.166	49.83
231.384	39.59
231.601	-19.8
231.819	129.7
232.037	-75.09
232.254	-25.94
232.472	25.26
232.689	-27.99
232.907	55.98
233.125	10.92
233.342	-1.37
233.56	19.11
233.777	55.98
233.995	86.7
234.213	96.94
234.43	49.83
234.648	-62.8
234.865	45.74
235.083	27.31
235.3	49.83
235.518	94.89
235.735	131.75
235.953	144.04
236.17	92.84
236.388	29.35
236.605	-17.75
236.822	141.99
237.04	125.61
237.257	43.69
237.475	-79.19
237.692	6.83
237.909	62.12
238.127	-21.84
238.344	86.7
238.562	-17.75
238.779	-17.75
238.996	-17.75
239.214	-11.61
239.431	90.79
239.648	23.21
239.865	4.78
240.083	-7.51
240.3	-42.32
240.517	-5.46
240.735	-25.94
240.952	39.59
241.169	101.03
241.386	-36.18
241.603	21.16
241.821	-75.09
242.038	45.74
242.255	90.79
242.472	-54.61
242.689	72.36
242.907	35.5
243.124	-5.46
243.341	23.21
243.558	-50.52
243.775	-30.04
243.992	-97.62
244.209	74.41
244.426	82.6
244.643	72.36
244.86	6.83
245.078	62.12
245.295	92.84
245.512	-7.51
245.729	68.27
245.946	68.27
246.163	64.17
246.38	-13.65
246.597	37.55
246.814	6.83
247.031	33.45
247.248	0.68
247.464	45.74
247.681	2.73
247.898	113.32
248.115	-19.8
248.332	-9.56
248.549	113.32
248.766	178.86
248.983	10.92
249.2	113.32
249.417	58.03
249.633	47.79
249.85	62.12
250.067	53.93
250.284	-5.46
250.501	101.03
250.717	25.26
250.934	8.87
251.151	39.59
251.368	-93.52
251.585	60.07
251.801	98.99
252.018	-3.41
252.235	88.75
252.451	-13.65
252.668	-15.7
252.885	47.79
253.102	84.65
253.318	84.65
253.535	-93.52
253.752	41.64
253.968	15.02
254.185	-42.32
254.401	4.78
254.618	74.41
254.835	51.88
255.051	129.7
255.268	0.68
255.484	39.59
255.701	62.12
255.917	29.35
256.134	-17.75
256.351	47.79
256.567	-11.61
256.784	-17.75
257	-38.23
257.217	111.27
257.433	105.13
257.65	12.97
257.866	133.8
258.082	-62.8
258.299	-5.46
258.515	25.26
258.732	23.21
258.948	39.59
259.165	92.84
259.381	17.07
259.597	47.79
259.814	60.07
260.03	-19.8
260.246	41.64
260.463	55.98
260.679	84.65
260.895	2.73
261.112	53.93
261.328	33.45
261.544	-23.89
261.761	105.13
261.977	-32.08
262.193	-42.32
262.409	66.22
262.626	80.55
262.842	53.93
263.058	51.88
263.274	49.83
263.49	-17.75
263.707	49.83
263.923	137.9
264.139	-109.91
264.355	113.32
264.571	98.99
264.787	37.55
265.004	72.36
265.22	8.87
265.436	27.31
265.652	-66.9
265.868	60.07
266.084	23.21
266.3	41.64
266.516	-27.99
266.732	25.26
266.948	80.55
267.164	-87.38
267.38	21.16
267.596	41.64
267.812	160.42
268.028	-21.84
268.244	-1.37
268.46	76.46
268.676	2.73
268.892	23.21
269.108	-17.75
269.324	-60.76
269.54	25.26
269.756	94.89
269.972	-132.44
270.188	10.92
270.403	-75.09
270.619	43.69
270.835	94.89
271.051	62.12
271.267	-46.42
271.483	-50.52
271.698	70.31
271.914	6.83
272.13	33.45
272.346	27.31
272.562	25.26
272.777	4.78
272.993	72.36
273.209	80.55
273.425	58.03
273.64	-5.46
273.856	78.51
274.072	-50.52
274.287	6.83
274.503	113.32
274.719	31.4
274.934	31.4
275.15	-54.61
275.366	31.4
275.581	-56.66
275.797	-21.84
276.012	60.07
276.228	55.98
276.444	10.92
276.659	64.17
276.875	-15.7
277.09	12.97
277.306	-30.04
277.521	70.31
277.737	70.31
277.952	103.08
278.168	-50.52
278.383	4.78
278.599	23.21
278.814	141.99
279.03	39.59
279.245	203.43
279.461	19.11
279.676	47.79
279.892	47.79
280.107	-17.75
280.322	-5.46
280.538	94.89
280.753	-9.56
280.969	51.88
281.184	-5.46
281.399	107.18
281.615	31.4
281.83	111.27
282.045	-30.04
282.26	-25.94
282.476	78.51
282.691	45.74
282.906	15.02
283.122	-9.56
283.337	4.78
283.552	70.31
283.767	-25.94
283.983	76.46
284.198	-21.84
284.413	205.48
284.628	-17.75
284.843	72.36
285.058	86.7
285.274	10.92
285.489	-13.65
285.704	47.79
285.919	-27.99
286.134	19.11
286.349	-58.71
286.564	12.97
286.779	55.98
286.995	-52.56
287.21	41.64
287.425	31.4
287.64	-3.41
287.855	21.16
288.07	-50.52
288.285	115.37
288.5	119.46
288.715	119.46
288.93	15.02
289.145	-83.28
289.36	2.73
289.575	-52.56
289.79	117.42
290.004	19.11
290.219	58.03
290.434	62.12
290.649	-5.46
290.864	-13.65
291.079	17.07
291.294	21.16
291.509	6.83
291.724	-34.13
291.938	21.16
292.153	10.92
292.368	-32.08
292.583	2.73
292.798	96.94
293.012	27.31
293.227	172.71
293.442	-17.75
293.657	127.66
293.871	127.66
294.086	17.07
294.301	76.46
294.516	144.04
294.73	15.02
294.945	-71
295.16	-30.04
295.374	137.9
295.589	88.75
295.804	0.68
296.018	158.38
296.233	107.18
296.447	74.41
296.662	6.83
296.877	58.03
297.091	113.32
297.306	74.41
297.52	27.31
297.735	8.87
297.949	-27.99
298.164	109.23
298.378	94.89
298.593	-58.71
298.807	-11.61
299.022	17.07
299.236	117.42
299.451	35.5
299.665	-50.52
299.88	6.83
300.094	78.51
300.309	-38.23
300.523	21.16
300.737	51.88
300.952	76.46
301.166	88.75
301.381	-38.23
301.595	-21.84
301.809	64.17
302.024	-60.76
302.238	-34.13
302.452	64.17
302.667	51.88
302.881	170.66
303.095	88.75
303.309	51.88
303.524	-42.32
303.738	17.07
303.952	12.97
304.166	76.46
304.381	-95.57
304.595	176.81
304.809	-99.67
305.023	19.11
305.237	-83.28
305.452	19.11
305.666	68.27
305.88	33.45
306.094	49.83
306.308	62.12
306.522	45.74
306.736	76.46
306.95	88.75
307.164	25.26
307.379	12.97
307.593	117.42
307.807	84.65
308.021	107.18
308.235	45.74
308.449	-56.66
308.663	4.78
308.877	228.01
309.091	-13.65
309.305	72.36
309.519	-118.1
309.733	60.07
309.947	-17.75
310.161	92.84
310.374	88.75
310.588	88.75
310.802	4.78
311.016	-17.75
311.23	6.83
311.444	12.97
311.658	60.07
311.872	129.7
312.085	88.75
312.299	162.47
312.513	47.79
312.727	12.97
312.941	-77.14
313.154	55.98
313.368	12.97
313.582	115.37
313.796	-27.99
314.009	31.4
314.223	80.55
314.437	-73.04
314.651	88.75
314.864	49.83
315.078	-46.42
315.292	-77.14
315.505	-1.37
315.719	90.79
315.933	12.97
316.146	-7.51
316.36	-40.28
316.573	144.04
316.787	103.08
317.001	80.55
317.214	-99.67
317.428	31.4
317.641	37.55
317.855	-3.41
318.068	92.84
318.282	35.5
318.495	201.38
318.709	6.83
318.922	55.98
319.136	55.98
319.349	72.36
319.563	15.02
319.776	72.36
319.99	-101.72
320.203	96.94
320.417	43.69
320.63	88.75
320.843	156.33
321.057	53.93
321.27	2.73
321.483	-66.9
321.697	133.8
321.91	58.03
322.124	-34.13
322.337	12.97
322.55	-50.52
322.763	78.51
322.977	-58.71
323.19	-3.41
323.403	76.46
323.617	-42.32
323.83	35.5
324.043	-52.56
324.256	39.59
324.469	-48.47
324.683	98.99
324.896	-32.08
325.109	86.7
325.322	-95.57
325.535	70.31
325.748	76.46
325.962	-15.7
326.175	31.4
326.388	80.55
326.601	55.98
326.814	45.74
327.027	-9.56
327.24	146.09
327.453	-85.33
327.666	-15.7
327.879	96.94
328.092	41.64
328.305	78.51
328.518	-9.56
328.731	23.21
328.944	2.73
329.157	35.5
329.37	35.5
329.583	127.66
329.796	127.66
330.009	-46.42
330.222	41.64
330.435	74.41
330.648	72.36
330.861	19.11
331.073	-46.42
331.286	90.79
331.499	-46.42
331.712	-13.65
331.925	-54.61
332.138	49.83
332.35	68.27
332.563	-62.8
332.776	64.17
332.989	-79.19
333.202	-25.94
333.414	80.55
333.627	45.74
333.84	-25.94
334.053	10.92
334.265	-75.09
334.478	60.07
334.691	-1.37
334.903	41.64
335.116	-3.41
335.329	-46.42
335.541	23.21
335.754	109.23
335.966	-38.23
336.179	37.55
336.392	23.21
336.604	0.68
336.817	76.46
337.029	103.08
337.242	-25.94
337.454	88.75
337.667	-30.04
337.88	113.32
338.092	17.07
338.305	49.83
338.517	-11.61
338.729	88.75
338.942	45.74
339.154	-56.66
339.367	-44.37
339.579	88.75
339.792	17.07
340.004	53.93
340.217	-1.37
340.429	-3.41
340.641	-13.65
340.854	-5.46
341.066	-42.32
341.278	62.12
341.491	107.18
341.703	8.87
341.915	-68.95
342.128	82.6
342.34	17.07
342.552	-11.61
342.764	27.31
342.977	-15.7
343.189	51.88
343.401	-1.37
343.613	-75.09
343.826	-1.37
344.038	-46.42
344.25	111.27
344.462	-30.04
344.674	47.79
344.886	29.35
345.099	21.16
345.311	19.11
345.523	-38.23
345.735	-75.09
345.947	15.02
346.159	-17.75
346.371	-7.51
346.583	-3.41
346.795	238.25
347.007	-9.56
347.219	55.98
347.431	8.87
347.643	35.5
347.855	12.97
348.067	103.08
348.279	-46.42
348.491	96.94
348.703	86.7
348.915	4.78
349.127	10.92
349.339	66.22
349.551	10.92
349.763	90.79
349.975	35.5
350.187	92.84
350.399	154.28
350.61	2.73
350.822	2.73
351.034	92.84
351.246	60.07
351.458	35.5
351.669	84.65
351.881	141.99
352.093	23.21
352.305	131.75
352.517	115.37
352.728	60.07
352.94	60.07
353.152	25.26
353.363	-38.23
353.575	41.64
353.787	101.03
353.999	47.79
354.21	88.75
354.422	31.4
354.633	-17.75
354.845	15.02
355.057	23.21
355.268	6.83
355.48	137.9
355.692	-30.04
355.903	47.79
356.115	64.17
356.326	-75.09
356.538	90.79
356.749	-23.89
356.961	137.9
357.172	-3.41
357.384	27.31
357.595	176.81
357.807	-58.71
358.018	-66.9
358.23	92.84
358.441	152.23
358.653	21.16
358.864	-3.41
359.075	-48.47
359.287	37.55
359.498	27.31
359.709	113.32
359.921	6.83
360.132	23.21
360.344	64.17
360.555	-27.99
360.766	6.83
360.977	62.12
361.189	82.6
361.4	-40.28
361.611	86.7
361.823	101.03
362.034	51.88
362.245	6.83
362.456	39.59
362.667	6.83
362.879	53.93
363.09	72.36
363.301	45.74
363.512	47.79
363.723	10.92
363.935	-13.65
364.146	117.42
364.357	-99.67
364.568	84.65
364.779	-77.14
364.99	103.08
365.201	35.5
365.412	125.61
365.623	-71
365.834	29.35
366.045	58.03
366.256	-25.94
366.467	160.42
366.678	35.5
366.889	-30.04
367.1	-21.84
367.311	101.03
367.522	-66.9
367.733	45.74
367.944	150.18
368.155	15.02
368.366	68.27
368.577	47.79
368.788	107.18
368.999	-15.7
369.209	19.11
369.42	176.81
369.631	213.67
369.842	80.55
370.053	-46.42
370.264	96.94
370.474	-56.66
370.685	51.88
370.896	43.69
371.107	121.51
371.317	-66.9
371.528	-11.61
371.739	64.17
371.95	125.61
372.16	119.46
372.371	12.97
372.582	45.74
372.792	53.93
373.003	68.27
373.214	80.55
373.424	68.27
373.635	12.97
373.846	121.51
374.056	78.51
374.267	25.26
374.477	72.36
374.688	-13.65
374.898	15.02
375.109	74.41
375.319	35.5
375.53	64.17
375.74	76.46
375.951	17.07
376.161	41.64
376.372	154.28
376.582	-60.76
376.793	23.21
377.003	-46.42
377.214	-19.8
377.424	109.23
377.635	39.59
377.845	82.6
378.055	127.66
378.266	-7.51
378.476	25.26
378.686	23.21
378.897	47.79
379.107	127.66
379.317	55.98
379.528	15.02
379.738	125.61
379.948	-52.56
380.158	39.59
380.369	-25.94
380.579	47.79
380.789	39.59
380.999	27.31
381.21	123.56
381.42	125.61
381.63	17.07
381.84	68.27
382.05	31.4
382.261	41.64
382.471	84.65
382.681	15.02
382.891	117.42
383.101	78.51
383.311	-25.94
383.521	-30.04
383.731	125.61
383.941	25.26
384.151	-46.42
384.361	-42.32
384.571	-48.47
384.781	51.88
384.991	152.23
385.201	101.03
385.411	21.16
385.621	33.45
385.831	4.78
386.041	25.26
386.251	-52.56
386.461	90.79
386.671	47.79
386.881	23.21
387.091	-54.61
387.301	125.61
387.511	51.88
387.72	70.31
387.93	111.27
388.14	-81.24
388.35	55.98
388.56	154.28
388.769	78.51
388.979	78.51
389.189	-58.71
389.399	43.69
389.609	92.84
389.818	152.23
390.028	-21.84
390.238	107.18
390.447	-77.14
390.657	51.88
390.867	-38.23
391.076	-81.24
391.286	101.03
391.496	0.68
391.705	53.93
391.915	82.6
392.125	123.56
392.334	-5.46
392.544	182.95
392.753	68.27
392.963	-75.09
393.172	39.59
393.382	15.02
393.591	144.04
393.801	64.17
394.01	115.37
394.22	82.6
394.429	105.13
394.639	25.26
394.848	49.83
395.058	39.59
395.267	43.69
395.477	-1.37
395.686	82.6
395.895	103.08
396.105	162.47
396.314	109.23
396.524	21.16
396.733	47.79
396.942	158.38
397.152	80.55
397.361	70.31
397.57	55.98
397.78	-11.61
397.989	29.35
398.198	166.57
398.407	35.5
398.617	49.83
398.826	4.78
399.035	31.4
399.244	86.7
399.453	84.65
399.663	39.59
399.872	23.21
400.081	10.92
400.29	160.42
400.499	-103.76
400.708	135.85
400.917	4.78
401.127	29.35
401.336	-21.84
401.545	176.81
401.754	119.46
401.963	129.7
402.172	80.55
402.381	-21.84
402.59	19.11
402.799	64.17
403.008	60.07
403.217	113.32
403.426	31.4
403.635	-21.84
403.844	23.21
404.053	41.64
404.262	6.83
404.471	119.46
404.68	37.55
404.888	33.45
405.097	51.88
405.306	88.75
405.515	84.65
405.724	72.36
405.933	64.17
406.142	33.45
406.35	137.9
406.559	-52.56
406.768	4.78
406.977	94.89
407.185	84.65
407.394	55.98
407.603	15.02
407.812	88.75
408.02	103.08
408.229	-9.56
408.438	55.98
408.646	-42.32
408.855	82.6
409.064	-36.18
409.272	-1.37
409.481	88.75
409.69	43.69
409.898	-54.61
410.107	33.45
410.315	47.79
410.524	0.68
410.733	51.88
410.941	66.22
411.15	137.9
411.358	113.32
411.567	92.84
411.775	101.03
411.984	-34.13
412.192	115.37
412.401	-13.65
412.609	96.94
412.818	137.9
413.026	17.07
413.234	-30.04
413.443	80.55
413.651	-25.94
413.86	25.26
414.068	96.94
414.276	53.93
414.485	-50.52
414.693	135.85
414.901	168.62
415.11	55.98
415.318	-19.8
415.526	47.79
415.734	119.46
415.943	84.65
416.151	115.37
416.359	15.02
416.567	17.07
416.776	-25.94
416.984	139.94
417.192	203.43
417.4	23.21
417.608	2.73
417.817	-9.56
418.025	49.83
418.233	135.85
418.441	-38.23
418.649	-30.04
418.857	82.6
419.065	78.51
419.273	10.92
419.481	55.98
419.689	33.45
419.897	2.73
420.105	-34.13
420.313	76.46
420.521	101.03
420.729	78.51
420.937	-32.08
421.145	-38.23
421.353	84.65
421.561	131.75
421.769	-15.7
421.977	-9.56
422.185	76.46
422.393	68.27
422.601	94.89
422.809	-46.42
423.017	105.13
423.224	45.74
423.432	90.79
423.64	6.83
423.848	80.55
424.056	-1.37
424.263	70.31
424.471	15.02
424.679	92.84
424.887	-34.13
425.094	94.89
425.302	45.74
425.51	-15.7
425.718	121.51
425.925	82.6
426.133	6.83
426.341	195.24
426.548	-17.75
426.756	55.98
426.964	137.9
427.171	31.4
427.379	64.17
427.586	-32.08
427.794	64.17
428.001	80.55
428.209	88.75
428.417	47.79
428.624	72.36
428.832	51.88
429.039	84.65
429.247	53.93
429.454	51.88
429.662	203.43
429.869	109.23
430.076	72.36
430.284	141.99
430.491	148.14
430.699	90.79
430.906	195.24
431.114	80.55
431.321	-19.8
431.528	6.83
431.736	78.51
431.943	96.94
432.15	113.32
432.358	107.18
432.565	230.06
432.772	-62.8
432.979	185
433.187	92.84
433.394	137.9
433.601	12.97
433.808	137.9
434.016	166.57
434.223	180.9
434.43	88.75
434.637	193.19
434.844	182.95
435.052	137.9
435.259	211.62
435.466	111.27
435.673	174.76
435.88	203.43
436.087	160.42
436.294	195.24
436.501	271.01
436.708	168.62
436.915	279.21
437.122	223.91
437.329	105.13
437.537	152.23
437.743	207.53
437.95	238.25
438.157	236.2
438.364	285.35
438.571	311.97
438.778	357.03
438.985	207.53
439.192	350.89
439.399	207.53
439.606	334.5
439.813	363.17
440.02	391.84
440.227	461.48
440.433	359.08
440.64	402.08
440.847	342.69
441.054	438.95
441.261	510.63
441.467	514.72
441.674	359.08
441.881	506.53
442.088	445.09
442.294	486.05
442.501	584.35
442.708	539.3
442.914	473.76
443.121	567.97
443.328	596.64
443.534	653.98
443.741	613.03
443.948	520.87
444.154	610.98
444.361	768.67
444.568	721.57
444.774	735.9
444.981	619.17
445.187	801.44
445.394	760.48
445.6	795.29
445.807	928.41
446.013	881.31
446.22	760.48
446.426	871.07
446.633	1096.35
446.839	1079.96
447.046	793.25
447.252	1104.54
447.459	1112.73
447.665	969.37
447.871	1182.36
448.078	1249.94
448.284	1276.57
448.491	1360.53
448.697	1403.54
448.903	1505.94
449.11	1505.94
449.316	1344.15
449.522	1553.04
449.728	1563.28
449.935	1747.6
450.141	1665.68
450.347	1868.43
450.553	1774.22
450.76	1841.81
450.966	1815.18
451.172	2046.6
451.378	1995.4
451.584	2128.52
451.791	2243.21
451.997	2306.7
452.203	2263.69
452.409	2499.2
452.615	2486.92
452.821	2450.05
453.027	2497.16
453.233	2984.57
453.44	2753.15
453.646	2943.61
453.852	3111.55
454.058	3142.27
454.264	3236.47
454.47	3392.12
454.676	3490.42
454.882	3758.71
455.088	3650.16
455.294	3725.94
455.5	4024.94
455.705	4250.22
455.911	4366.95
456.117	4405.86
456.323	4577.89
456.529	4520.55
456.735	5057.12
456.941	5136.99
457.147	5194.33
457.352	5247.58
457.558	5444.18
457.764	6009.42
457.97	6134.35
458.176	6296.14
458.381	6658.63
458.587	6617.67
458.793	7141.95
458.999	6801.99
459.204	7723.57
459.41	8288.81
459.616	7911.99
459.821	8696.36
460.027	8849.96
460.233	9388.57
460.438	9441.82
460.644	9871.89
460.85	9921.04
461.055	10449.42
461.261	10813.96
461.466	10502.67
461.672	10656.26
461.878	12214.77
462.083	12149.23
462.289	12235.25
462.494	12560.88
462.7	13060.58
462.905	13384.16
463.111	14002.65
463.316	14799.3
463.522	14954.95
463.727	15411.65
463.932	16236.98
464.138	16677.29
464.343	17271.2
464.549	17416.61
464.754	18551.18
464.959	19149.19
465.165	19366.28
465.37	19382.66
465.575	19233.16
465.781	20506.99
465.986	21334.37
466.191	21070.19
466.397	21170.54
466.602	20769.13
466.807	21813.6
467.012	22643.03
467.218	22534.48
467.423	22817.1
467.628	23570.75
467.833	24566.07
468.038	24078.65
468.244	23851.33
468.449	25223.47
468.654	24697.14
468.859	24473.91
469.064	24670.51
469.269	23746.88
469.474	24121.66
469.679	25119.02
469.885	24256.82
470.09	24527.16
470.295	24486.2
470.5	24195.39
470.705	24299.83
470.91	23691.59
471.115	23609.67
471.32	23974.2
471.525	23689.54
471.73	23138.63
471.935	22692.18
472.139	22126.94
472.344	22075.74
472.549	22200.66
472.754	21553.51
472.959	21084.52
473.164	20543.86
473.369	20046.2
473.574	20861.29
473.778	20337.01
473.983	19902.84
474.188	19616.13
474.393	18919.82
474.598	18930.06
474.802	17965.46
475.007	17725.85
475.212	17967.51
475.417	17113.51
475.621	17027.49
475.826	16748.97
476.031	16302.51
476.235	15931.83
476.44	15714.75
476.645	15559.1
476.849	15376.83
477.054	15333.82
477.259	14938.57
477.463	14692.81
477.668	14488.01
477.872	14424.53
478.077	13861.34
478.282	13335.01
478.486	13324.77
478.691	13464.03
478.895	12943.85
479.1	13191.65
479.304	13109.73
479.509	12493.29
479.713	12851.69
479.918	12458.48
480.122	12077.55
480.326	12179.95
480.531	12225.01
480.735	12225.01
480.94	11764.22
481.144	12032.5
481.348	11631.1
481.553	11944.44
481.757	11506.17
481.961	11516.41
482.166	11487.74
482.37	11145.73
482.574	11063.81
482.778	10830.34
482.983	11217.41
483.187	10985.99
483.391	11096.58
483.595	10514.95
483.8	10551.82
484.004	10684.94
484.208	10508.81
484.412	10383.88
484.616	10322.45
484.821	10289.68
485.025	9959.95
485.229	10070.54
485.433	9769.49
485.637	9665.05
485.841	9544.22
486.045	9488.92
486.249	9501.21
486.453	9069.09
486.657	8972.83
486.861	8925.73
487.065	8489.51
487.269	8598.06
487.473	8344.11
487.677	8428.07
487.881	8593.96
488.085	8090.16
488.289	7938.61
488.493	7838.26
488.697	8075.82
488.901	7678.52
489.105	7467.58
489.309	7371.32
489.512	7277.12
489.716	7121.47
489.92	7051.84
490.124	6888
490.328	6859.33
490.531	6601.29
490.735	6666.82
490.939	6470.22
491.143	6152.78
491.346	6113.87
491.55	6257.23
491.754	5950.03
491.958	5868.11
492.161	5882.45
492.365	5722.71
492.569	5706.32
492.772	5470.81
492.976	5497.43
493.18	5446.23
493.383	5354.07
493.587	5274.2
493.79	5177.95
493.994	5059.17
494.197	4985.44
494.401	4928.1
494.605	4729.44
494.808	4991.58
495.012	4885.09
495.215	4815.46
495.419	4803.17
495.622	4477.54
495.825	4739.68
496.029	4702.82
496.232	4776.55
496.436	4612.71
496.639	4581.99
496.843	4446.82
497.046	4500.07
497.249	4538.98
497.453	4700.77
497.656	4520.55
497.859	4532.84
498.063	4565.6
498.266	4653.67
498.469	4577.89
498.673	4672.1
498.876	4612.71
499.079	4508.26
499.282	4547.17
499.485	4872.8
499.689	4586.08
499.892	4788.83
500.095	4532.84
500.298	4723.3
500.501	4805.22
500.705	4811.36
500.908	4833.89
501.111	4837.98
501.314	4880.99
501.517	5042.78
501.72	4973.15
501.923	4987.49
502.126	4948.58
502.329	5134.94
502.532	5042.78
502.735	5184.09
502.938	5417.56
503.141	5278.3
503.344	5390.94
503.547	5499.48
503.75	5460.57
503.953	5401.18
504.156	5599.83
504.359	5773.91
504.562	5825.11
504.765	5829.2
504.968	5929.55
505.17	6126.16
505.373	5917.26
505.576	6163.02
505.779	6187.6
505.982	6214.22
506.185	6482.5
506.387	6457.93
506.59	6556.23
506.793	6918.72
506.996	6875.71
507.198	7172.67
507.401	7176.77
507.604	7395.9
507.807	7346.75
508.009	7549.5
508.212	7676.47
508.415	7860.79
508.617	8155.69
508.82	8084.02
509.022	8184.37
509.225	8639.01
509.428	8626.73
509.63	9032.22
509.833	8815.14
510.035	9452.06
510.238	9241.12
510.44	9554.46
510.643	9777.69
510.845	9982.48
511.048	9900.56
511.25	10480.14
511.453	10811.91
511.655	11137.54
511.858	11344.38
512.06	11530.75
512.262	11676.15
512.465	11883
512.667	12122.61
512.87	12257.78
513.072	12655.08
513.274	13146.59
513.477	13201.89
513.679	13603.29
513.881	13810.14
514.084	13990.36
514.286	14580.17
514.488	14733.77
514.69	15552.96
514.893	15606.2
515.095	15694.27
515.297	16003.51
515.499	16449.97
515.701	17099.17
515.904	17338.79
516.106	17666.46
516.308	18071.96
516.51	18327.95
516.712	18598.29
516.914	19249.54
517.116	19673.47
517.318	19857.79
517.52	20156.79
517.722	20152.7
517.925	21145.96
518.127	21576.03
518.329	22096.22
518.531	22219.1
518.733	22911.31
518.935	23075.15
519.136	23069
519.338	23753.02
519.54	23916.86
519.742	24607.03
519.944	24670.51
520.146	25458.98
520.348	25665.83
520.55	26032.41
520.752	26497.3
520.954	26794.26
521.155	26763.54
521.357	27746.56
521.559	27963.65
521.761	28346.62
521.963	28449.02
522.164	28631.29
522.366	28829.94
522.568	29128.94
522.77	29321.45
522.971	30279.9
523.173	29870.31
523.375	30240.99
523.576	30480.6
523.778	30195.93
523.98	30865.62
524.181	30984.4
524.383	31230.16
524.584	31383.76
524.786	31277.26
524.988	31273.17
525.189	31373.52
525.391	31891.65
525.592	31797.45
525.794	31725.77
525.995	32170.18
526.197	31961.28
526.398	31723.72
526.6	31875.27
526.801	31774.92
527.003	31969.47
527.204	31985.86
527.406	31656.14
527.607	31426.76
527.808	31688.9
528.01	30654.68
528.211	31074.51
528.412	31299.79
528.614	30884.05
528.815	30783.7
529.016	30480.6
529.218	30257.37
529.419	30298.33
529.62	29845.73
529.822	29563.11
530.023	29370.6
530.224	29493.48
530.425	29049.07
530.626	28115.2
530.828	27894.02
531.029	28522.74
531.23	27486.47
531.431	27461.9
531.632	27418.89
531.833	27080.97
532.035	26317.08
532.236	26355.99
532.437	26116.38
532.638	25772.32
532.839	25606.44
533.04	25393.45
533.241	24674.61
533.442	25020.72
533.643	24179
533.844	23904.57
534.045	23763.26
534.246	23277.9
534.447	23288.14
534.648	22761.81
534.849	22440.28
535.05	21985.63
535.251	22116.7
535.451	21553.51
535.652	21307.75
535.853	21111.14
536.054	20734.32
536.255	20199.8
536.456	20185.46
536.657	20339.06
536.857	19718.53
537.058	19274.12
537.259	19204.49
537.46	18893.19
537.66	18735.5
537.861	18241.94
538.062	18008.47
538.263	17916.31
538.463	17600.93
538.664	17285.54
538.865	17205.67
539.065	17201.57
539.266	16716.2
539.466	16591.28
539.667	16437.68
539.868	16210.36
540.068	15993.27
540.269	15845.82
540.469	15854.01
540.67	15632.83
540.87	15225.28
541.071	15100.36
541.271	14846.41
541.472	14713.29
541.672	14522.83
541.873	14350.8
542.073	14117.33
542.274	14328.27
542.474	14049.75
542.675	13715.93
542.875	13578.72
543.075	13582.81
543.276	13326.82
543.476	13427.17
543.676	13009.38
543.877	12847.59
544.077	12812.78
544.277	12765.67
544.478	12577.26
544.678	12415.47
544.878	12136.95
545.078	12169.71
545.279	11989.49
545.479	11889.14
545.679	11725.3
545.879	11489.79
546.079	11297.28
546.28	11188.74
546.48	11252.22
546.68	11256.32
546.88	10895.88
547.08	10947.08
547.28	10643.98
547.48	10328.59
547.68	10527.24
547.88	10084.88
548.081	10129.94
548.281	9919
548.481	9921.04
548.681	9654.81
548.881	9755.16
549.081	9509.4
549.28	9441.82
549.48	9400.86
549.68	9001.51
549.88	9226.78
550.08	8780.32
550.28	8813.09
550.48	8712.74
550.68	8542.76
550.88	8264.24
551.08	8309.29
551.279	8309.29
551.479	7897.65
551.679	7868.98
551.879	7694.9
552.079	7742
552.278	7410.23
552.478	7627.32
552.678	7569.98
552.878	7387.71
553.077	7017.02
553.277	7113.28
553.477	7127.61
553.676	6894.15
553.876	6685.25
554.076	6634.05
554.275	6556.23
554.475	6347.34
554.674	6552.13
554.874	6351.43
555.074	6183.5
555.273	6187.6
555.473	6011.47
555.672	5626.45
555.872	5708.37
556.071	5737.04
556.271	5673.56
556.47	5450.33
556.67	5255.77
556.869	5292.63
557.068	5206.62
557.268	5112.41
557.467	5085.79
557.667	4973.15
557.866	4926.05
558.065	4819.55
558.265	4665.96
558.464	4569.7
558.663	4541.03
558.863	4502.12
559.062	4487.78
559.261	4196.97
559.461	4391.53
559.66	4186.73
559.859	4067.95
560.058	3926.64
560.258	3979.89
560.457	3857.01
560.656	3869.3
560.855	3617.4
561.054	3789.42
561.253	3660.4
561.453	3572.34
561.652	3564.15
561.851	3635.83
562.05	3326.58
562.249	3275.38
562.448	3461.75
562.647	3304.06
562.846	3281.53
563.045	3246.71
563.244	3189.37
563.443	3209.85
563.642	3164.79
563.841	3107.45
564.04	3048.06
564.239	2869.89
564.438	2771.58
564.637	2722.43
564.836	2886.27
565.035	2695.81
565.234	2749.06
565.432	2771.58
565.631	2636.42
565.83	2482.82
566.029	2577.03
566.228	2577.03
566.427	2517.64
566.625	2310.79
566.824	2349.7
567.023	2390.66
567.222	2384.52
567.42	2366.09
567.619	2144.91
567.818	2286.22
568.016	2396.81
568.215	2153.1
568.414	2091.66
568.612	2056.84
568.811	2071.18
569.01	2085.51
569.208	2015.88
569.407	2007.69
569.605	1958.54
569.804	1940.11
570.002	1966.73
570.201	1837.71
570.4	1833.61
570.598	1755.79
570.797	1772.18
570.995	1598.1
571.193	1698.45
571.392	1698.45
571.59	1591.95
571.789	1618.58
571.987	1667.73
572.186	1663.63
572.384	1473.17
572.582	1532.56
572.781	1667.73
572.979	1503.89
573.177	1477.27
573.376	1444.5
573.574	1583.76
573.772	1370.77
573.971	1331.86
574.169	1342.1
574.367	1405.59
574.565	1282.71
574.763	1235.61
574.962	1184.41
575.16	1290.9
575.358	1116.83
575.556	1028.76
575.754	1202.84
575.952	1170.07
576.151	1155.74
576.349	1067.67
576.547	1061.53
576.745	1137.31
576.943	1110.68
577.141	998.04
577.339	1018.52
577.537	1077.91
577.735	1088.15
577.933	907.93
578.131	834.21
578.329	1063.58
578.527	920.22
578.725	998.04
578.923	830.11
579.121	922.27
579.319	764.58
579.516	838.3
579.714	1055.39
579.912	846.49
580.11	733.86
580.308	752.29
580.506	791.2
580.704	670.37
580.901	735.9
581.099	821.92
581.297	717.47
581.495	719.52
581.692	768.67
581.89	905.88
582.088	686.75
582.285	756.38
582.483	711.33
582.681	647.84
582.878	694.94
583.076	645.79
583.274	580.26
583.471	678.56
583.669	565.92
583.866	561.83
584.064	584.35
584.262	606.88
584.459	518.82
584.657	651.94
584.854	613.03
585.052	617.12
585.249	619.17
585.447	582.31
585.644	502.44
585.841	541.35
586.039	549.54
586.236	592.55
586.434	447.14
586.631	502.44
586.828	469.67
587.026	453.28
587.223	426.66
587.42	463.52
587.618	553.63
587.815	531.11
588.012	430.76
588.21	430.76
588.407	471.72
588.604	492.2
588.801	369.32
588.999	397.99
589.196	510.63
589.393	373.41
589.59	410.28
589.787	369.32
589.984	449.19
590.182	514.72
590.379	307.88
590.576	414.37
590.773	479.91
590.97	391.84
591.167	496.29
591.364	469.67
591.561	367.27
591.758	565.92
591.955	449.19
592.152	426.66
592.349	395.94
592.546	412.32
592.743	301.73
592.94	344.74
593.137	373.41
593.334	453.28
593.531	418.47
593.727	397.99
593.924	393.89
594.121	326.31
594.318	391.84
594.515	461.48
594.712	547.49
594.908	496.29
595.105	344.74
595.302	451.24
595.499	414.37
595.696	535.2
595.892	381.6
596.089	516.77
596.286	379.56
596.482	576.16
596.679	475.81
596.876	578.21
597.072	543.39
597.269	471.72
597.466	522.91
597.662	494.24
597.859	441
598.055	584.35
598.252	625.31
598.448	707.23
598.645	699.04
598.841	727.71
599.038	772.77
599.234	684.7
599.431	799.39
599.627	787.1
599.824	834.21
600.02	844.45
600.217	785.05
600.413	887.45
600.609	821.92
600.806	1143.45
601.002	957.08
601.198	969.37
601.395	1221.27
601.591	1067.67
601.787	1086.11
601.984	1200.79
602.18	1258.14
602.376	1208.98
602.572	1344.15
602.769	1340.05
602.965	1366.68
603.161	1407.64
603.357	1510.04
603.553	1581.71
603.75	1604.24
603.946	1663.63
604.142	1743.5
604.338	1796.75
604.534	1835.66
604.73	1948.3
604.926	1850
605.122	2024.08
605.318	1987.21
605.514	2140.81
605.71	2087.56
605.906	2384.52
606.102	2304.65
606.298	2511.49
606.494	2620.03
606.69	2546.31
606.886	2620.03
607.082	2632.32
607.278	2759.3
607.474	2820.74
607.67	2935.42
607.866	2986.62
608.062	3158.65
608.257	3242.62
608.453	3195.51
608.649	3426.93
608.845	3416.69
609.041	3496.57
609.236	3717.75
609.432	3791.47
609.628	3873.39
609.824	3863.15
610.019	4043.37
610.215	4113
610.411	4258.41
610.606	4362.86
610.802	4438.63
610.998	4538.98
611.193	4803.17
611.389	4743.78
611.584	5071.45
611.78	4913.76
611.976	5057.12
612.171	5493.33
612.367	5466.71
612.562	5718.61
612.758	5673.56
612.953	5878.35
613.149	5913.17
613.344	6314.57
613.539	6441.54
613.735	6636.1
613.93	6795.84
614.126	6957.63
614.321	7066.17
614.517	7301.69
614.712	7305.79
614.907	7619.13
615.103	7944.75
615.298	7948.85
615.493	8204.85
615.688	8264.24
615.884	8878.63
616.079	8624.68
616.274	9177.63
616.47	9292.32
616.665	9450.01
616.86	9622.04
617.055	9925.14
617.25	10068.5
617.445	10439.18
617.641	10484.23
617.836	10975.75
618.031	10856.97
618.226	11444.73
618.421	11581.95
618.616	12147.19
618.811	12212.72
619.006	12806.63
619.201	12802.54
619.396	13203.94
619.591	12945.89
619.786	13810.14
619.981	13832.66
620.176	14027.22
620.371	14408.14
620.566	14973.38
620.761	15278.53
620.956	15808.95
621.151	15731.13
621.346	16251.31
621.541	16114.1
621.735	16841.13
621.93	16607.66
622.125	17256.87
622.32	17398.18
622.515	18090.39
622.709	18276.76
622.904	18571.66
623.099	18704.78
623.294	19310.98
623.488	19134.85
623.683	19982.71
623.878	19949.95
624.072	20488.56
624.267	20781.42
624.462	20910.44
624.656	21336.42
624.851	21983.58
625.046	21950.81
625.24	22245.72
625.435	22610.26
625.629	23095.63
625.824	23181.64
626.018	23740.74
626.213	23531.84
626.407	24486.2
626.602	24303.93
626.796	24924.46
626.991	24891.69
627.185	25471.27
627.38	25162.03
627.574	25180.46
627.768	25446.69
627.963	25567.52
628.157	25588
628.352	26134.81
628.546	25674.02
628.74	26181.92
628.935	25989.41
629.129	26132.76
629.323	25739.55
629.517	25823.52
629.712	25690.4
629.906	25524.52
630.1	25198.89
630.294	25010.48
630.489	24903.98
630.683	24643.89
630.877	24025.4
631.071	23759.17
631.265	23697.73
631.459	23253.32
631.653	22436.18
631.848	22030.68
632.042	21979.48
632.236	21188.97
632.43	20601.2
632.624	20154.74
632.818	19519.87
633.012	18852.23
633.206	18446.74
633.4	18026.9
633.594	17383.84
633.788	17123.75
633.982	16155.06
634.176	15894.97
634.369	15043.01
634.563	14627.28
634.757	13894.1
634.951	13670.87
635.145	13140.45
635.339	12628.46
635.533	11962.87
635.726	11631.1
635.92	10861.06
636.114	10701.32
636.308	10078.74
636.501	9753.11
636.695	9441.82
636.889	8972.83
637.083	8600.1
637.276	8178.22
637.47	7985.71
637.664	7705.14
637.857	7467.58
638.051	7131.71
638.244	6732.36
638.438	6472.26
638.632	6439.5
638.825	5913.17
639.019	5739.09
639.212	5458.52
639.406	5337.69
639.599	5161.56
639.793	4950.62
639.986	4717.15
640.18	4502.12
640.373	4334.18
640.567	4133.48
640.76	3932.78
640.954	3947.12
641.147	3732.08
641.34	3660.4
641.534	3566.2
641.727	3439.22
641.92	3248.76
642.114	3213.95
642.307	2939.52
642.5	2970.24
642.694	2583.17
642.887	2667.14
643.08	2620.03
643.273	2431.62
643.467	2339.46
643.66	2171.53
643.853	2105.99
644.046	2132.62
644.239	1946.25
644.432	1780.37
644.626	1794.7
644.819	1739.41
645.012	1692.3
645.205	1751.7
645.398	1663.63
645.591	1536.66
645.784	1448.6
645.977	1325.72
646.17	1415.83
646.363	1301.14
646.556	1225.37
646.749	1227.42
646.942	1219.22
647.135	1188.5
647.328	1082.01
647.521	1014.43
647.714	1010.33
647.907	985.76
648.099	889.5
648.292	967.32
648.485	901.79
648.678	813.73
648.871	830.11
649.064	776.86
649.256	707.23
649.449	719.52
649.642	598.69
649.835	572.07
650.027	604.83
650.22	672.42
650.413	604.83
650.605	608.93
650.798	490.15
650.991	494.24
651.183	555.68
651.376	477.86
651.568	547.49
651.761	428.71
651.954	561.83
652.146	438.95
652.339	424.61
652.531	512.67
652.724	307.88
652.916	293.54
653.109	293.54
653.301	467.62
653.494	441
653.686	332.45
653.879	426.66
654.071	373.41
654.263	185
654.456	285.35
654.648	297.64
654.84	289.45
655.033	244.39
655.225	230.06
655.417	215.72
655.61	467.62
655.802	246.44
655.994	268.97
656.186	170.66
656.379	350.89
656.571	193.19
656.763	201.38
656.955	180.9
657.148	242.34
657.34	307.88
657.532	211.62
657.724	170.66
657.916	268.97
658.108	203.43
658.3	205.48
658.492	283.3
658.684	135.85
658.876	250.53
659.068	141.99
659.26	94.89
659.452	228.01
659.644	211.62
659.836	225.96
660.028	260.77
660.22	74.41
660.412	117.42
660.604	129.7
660.796	185
660.988	154.28
661.18	101.03
661.372	180.9
661.563	123.56
661.755	135.85
661.947	72.36
662.139	101.03
662.331	144.04
662.522	101.03
662.714	96.94
662.906	64.17
663.097	178.86
663.289	41.64
663.481	-13.65
663.673	121.51
663.864	123.56
664.056	170.66
664.247	129.7
664.439	215.72
664.631	96.94
664.822	146.09
665.014	158.38
665.205	98.99
665.397	80.55
665.588	78.51
665.78	33.45
665.971	150.18
666.163	64.17
666.354	103.08
666.546	88.75
666.737	35.5
666.929	68.27
667.12	82.6
667.311	109.23
667.503	117.42
667.694	135.85
667.885	174.76
668.077	129.7
668.268	-64.85
668.459	101.03
668.651	117.42
668.842	148.14
669.033	80.55
669.224	21.16
669.416	283.3
669.607	39.59
669.798	58.03
669.989	154.28
670.18	123.56
670.371	125.61
670.563	55.98
670.754	219.82
670.945	121.51
671.136	96.94
671.327	-44.37
671.518	215.72
671.709	264.87
671.9	117.42
672.091	160.42
672.282	70.31
672.473	164.52
672.664	49.83
672.855	105.13
673.046	168.62
673.237	137.9
673.428	109.23
673.619	187.05
673.809	72.36
674	150.18
674.191	129.7
674.382	74.41
674.573	160.42
674.764	154.28
674.954	205.48
675.145	96.94
675.336	23.21
675.527	-32.08
675.717	58.03
675.908	129.7
676.099	45.74
676.289	158.38
676.48	29.35
676.671	115.37
676.861	80.55
677.052	127.66
677.243	58.03
677.433	96.94
677.624	127.66
677.814	121.51
678.005	109.23
678.195	189.1
678.386	109.23
678.576	129.7
678.767	39.59
678.957	117.42
679.148	154.28
679.338	187.05
679.529	137.9
679.719	70.31
679.909	144.04
680.1	125.61
680.29	160.42
680.481	98.99
680.671	191.14
680.861	197.29
681.052	166.57
681.242	133.8
681.432	162.47
681.622	109.23
681.813	103.08
682.003	168.62
682.193	17.07
682.383	199.34
682.573	62.12
682.764	117.42
682.954	152.23
683.144	258.73
683.334	217.77
683.524	168.62
683.714	211.62
683.904	225.96
684.094	113.32
684.284	125.61
684.474	303.78
684.664	211.62
684.854	193.19
685.044	178.86
685.234	148.14
685.424	182.95
685.614	125.61
685.804	264.87
685.994	215.72
686.184	146.09
686.374	205.48
686.564	207.53
686.753	127.66
686.943	2.73
687.133	199.34
687.323	133.8
687.513	139.94
687.702	146.09
687.892	115.37
688.082	242.34
688.272	176.81
688.461	154.28
688.651	232.1
688.841	135.85
689.03	129.7
689.22	176.81
689.41	205.48
689.599	271.01
689.789	133.8
689.979	268.97
690.168	146.09
690.358	170.66
690.547	250.53
690.737	162.47
690.926	121.51
691.116	223.91
691.305	266.92
691.495	207.53
691.684	170.66
691.874	80.55
692.063	82.6
692.252	201.38
692.442	180.9
692.631	144.04
692.82	82.6
693.01	158.38
693.199	178.86
693.388	277.16
693.578	88.75
693.767	144.04
693.956	244.39
694.146	129.7
694.335	234.15
694.524	178.86
694.713	258.73
694.902	45.74
695.092	101.03
695.281	78.51
695.47	96.94
695.659	121.51
695.848	137.9
696.037	98.99
696.226	291.49
696.415	135.85
696.604	209.58
696.793	176.81
696.982	187.05
697.171	228.01
697.36	86.7
697.549	117.42
697.738	31.4
697.927	94.89
698.116	86.7
698.305	172.71
698.494	39.59
698.683	96.94
698.872	209.58
699.061	76.46
699.25	123.56
699.438	187.05
699.627	117.42
699.816	244.39
700.005	51.88
700.193	49.83
700.382	238.25
700.571	166.57
700.76	182.95
700.948	176.81
701.137	178.86
701.326	244.39
701.514	88.75
701.703	211.62
701.892	219.82
702.08	367.27
702.269	168.62
702.457	168.62
702.646	111.27
702.834	76.46
703.023	225.96
703.212	174.76
703.4	125.61
703.589	133.8
703.777	80.55
703.965	113.32
704.154	98.99
704.342	41.64
704.531	141.99
704.719	156.33
704.907	146.09
705.096	82.6
705.284	135.85
705.472	180.9
705.661	158.38
705.849	279.21
706.037	195.24
706.226	234.15
706.414	164.52
706.602	123.56
706.79	170.66
706.979	172.71
707.167	150.18
707.355	107.18
707.543	98.99
707.731	135.85
707.919	182.95
708.107	125.61
708.296	80.55
708.484	68.27
708.672	203.43
708.86	168.62
709.048	162.47
709.236	125.61
709.424	86.7
709.612	187.05
709.8	-5.46
709.988	125.61
710.176	193.19
710.364	187.05
710.551	154.28
710.739	150.18
710.927	80.55
711.115	170.66
711.303	244.39
711.491	223.91
711.679	119.46
711.866	228.01
712.054	166.57
712.242	195.24
712.43	101.03
712.617	164.52
712.805	242.34
712.993	170.66
713.181	125.61
713.368	301.73
713.556	107.18
713.744	170.66
713.931	414.37
714.119	123.56
714.306	158.38
714.494	109.23
714.682	148.14
714.869	55.98
715.057	170.66
715.244	51.88
715.432	123.56
715.619	117.42
715.807	78.51
715.994	121.51
716.182	178.86
716.369	182.95
716.556	191.14
716.744	47.79
716.931	88.75
717.119	141.99
717.306	80.55
717.493	154.28
717.681	96.94
717.868	117.42
718.055	162.47
718.242	168.62
718.43	170.66
718.617	199.34
718.804	76.46
718.991	236.2
719.179	201.38
719.366	154.28
719.553	252.58
719.74	180.9
719.927	131.75
720.114	217.77
720.301	162.47
720.488	174.76
720.676	121.51
720.863	236.2
721.05	248.49
721.237	148.14
721.424	193.19
721.611	223.91
721.798	72.36
721.985	174.76
722.172	101.03
722.358	144.04
722.545	197.29
722.732	213.67
722.919	223.91
723.106	170.66
723.293	144.04
723.48	232.1
723.667	80.55
723.853	232.1
724.04	187.05
724.227	285.35
724.414	152.23
724.6	240.3
724.787	285.35
724.974	291.49
725.161	199.34
725.347	90.79
725.534	193.19
725.72	117.42
725.907	277.16
726.094	209.58
726.28	154.28
726.467	219.82
726.653	211.62
726.84	301.73
727.027	301.73
727.213	144.04
727.4	205.48
727.586	225.96
727.773	170.66
727.959	297.64
728.145	209.58
728.332	178.86
728.518	201.38
728.705	228.01
728.891	258.73
729.077	277.16
729.264	170.66
729.45	150.18
729.636	225.96
729.823	219.82
730.009	242.34
730.195	256.68
730.382	254.63
730.568	187.05
730.754	266.92
730.94	223.91
731.126	301.73
731.313	285.35
731.499	197.29
731.685	246.44
731.871	250.53
732.057	248.49
732.243	244.39
732.429	281.25
732.615	314.02
732.801	221.86
732.987	264.87
733.173	219.82
733.359	189.1
733.545	199.34
733.731	193.19
733.917	309.93
734.103	273.06
734.289	248.49
734.475	103.08
734.661	301.73
734.847	260.77
735.033	166.57
735.219	275.11
735.404	283.3
735.59	133.8
735.776	219.82
735.962	291.49
736.148	293.54
736.333	336.55
736.519	262.82
736.705	191.14
736.89	246.44
737.076	199.34
737.262	234.15
737.447	207.53
737.633	178.86
737.819	334.5
738.004	189.1
738.19	252.58
738.375	281.25
738.561	299.69
738.747	240.3
738.932	180.9
739.118	375.46
739.303	328.36
739.489	244.39
739.674	221.86
739.859	105.13
740.045	277.16
740.23	273.06
740.416	115.37
740.601	299.69
740.786	287.4
740.972	207.53
741.157	207.53
741.342	191.14
741.528	152.23
741.713	342.69
741.898	244.39
742.084	283.3
742.269	285.35
742.454	295.59
742.639	234.15
742.824	160.42
743.01	309.93
743.195	420.52
743.38	287.4
743.565	180.9
743.75	256.68
743.935	295.59
744.12	307.88
744.305	240.3
744.49	215.72
744.675	215.72
744.86	203.43
745.045	219.82
745.23	307.88
745.415	154.28
745.6	330.41
745.785	197.29
745.97	279.21
746.155	266.92
746.34	365.22
746.525	250.53
746.71	303.78
746.895	211.62
747.079	137.9
747.264	172.71
747.449	330.41
747.634	211.62
747.819	254.63
748.003	238.25
748.188	205.48
748.373	195.24
748.557	187.05
748.742	178.86
748.927	211.62
749.111	205.48
749.296	166.57
749.481	252.58
749.665	158.38
749.85	111.27
750.034	260.77
750.219	154.28
750.404	152.23
750.588	228.01
750.773	146.09
750.957	209.58
751.141	144.04
751.326	244.39
751.51	90.79
751.695	203.43
751.879	162.47
752.064	240.3
752.248	199.34
752.432	275.11
752.617	248.49
752.801	285.35
752.985	219.82
753.17	262.82
753.354	228.01
753.538	150.18
753.722	121.51
753.907	154.28
754.091	8.87
754.275	277.16
754.459	189.1
754.643	70.31
754.828	133.8
755.012	264.87
755.196	96.94
755.38	213.67
755.564	209.58
755.748	234.15
755.932	217.77
756.116	242.34
756.3	236.2
756.484	123.56
756.668	166.57
756.852	29.35
757.036	170.66
757.22	182.95
757.404	113.32
757.588	150.18
757.772	150.18
757.956	96.94
758.14	342.69
758.323	41.64
758.507	141.99
758.691	101.03
758.875	123.56
759.059	180.9
759.242	103.08
759.426	51.88
759.61	146.09
759.794	119.46
759.977	228.01
760.161	305.83
760.345	250.53
760.528	256.68
760.712	109.23
760.895	148.14
761.079	146.09
761.263	64.17
761.446	121.51
761.63	94.89
761.813	191.14
761.997	103.08
762.18	162.47
762.364	121.51
762.547	-15.7
762.731	29.35
762.914	105.13
763.098	111.27
763.281	135.85
763.464	156.33
763.648	72.36
763.831	74.41
764.015	88.75
764.198	180.9
764.381	107.18
764.564	96.94
764.748	154.28
764.931	123.56
765.114	55.98
765.297	121.51
765.481	-9.56
765.664	64.17
765.847	53.93
766.03	260.77
766.213	103.08
766.397	64.17
766.58	-9.56
766.763	109.23
766.946	92.84
767.129	103.08
767.312	39.59
767.495	119.46
767.678	-3.41
767.861	135.85
768.044	80.55
768.227	103.08
768.41	78.51
768.593	84.65
768.776	58.03
768.959	125.61
769.142	195.24
769.324	45.74
769.507	156.33
769.69	113.32
769.873	51.88
770.056	240.3
770.239	117.42
770.421	82.6
770.604	117.42
770.787	88.75
770.97	86.7
771.152	17.07
771.335	111.27
771.518	129.7
771.7	92.84
771.883	211.62
772.066	6.83
772.248	119.46
772.431	180.9
772.613	51.88
772.796	96.94
772.978	78.51
773.161	174.76
773.343	96.94
773.526	62.12
773.708	17.07
773.891	60.07
774.073	37.55
774.256	121.51
774.438	207.53
774.621	96.94
774.803	58.03
774.985	25.26
775.168	119.46
775.35	23.21
775.532	96.94
775.715	37.55
775.897	191.14
776.079	49.83
776.261	111.27
776.444	68.27
776.626	35.5
776.808	64.17
776.99	-17.75
777.173	39.59
777.355	37.55
777.537	80.55
777.719	27.31
777.901	45.74
778.083	80.55
778.265	-38.23
778.447	105.13
778.629	-30.04
778.811	6.83
778.993	135.85
779.175	55.98
779.357	88.75
779.539	-34.13
779.721	76.46
779.903	141.99
780.085	-7.51
780.267	88.75
780.449	15.02
780.631	68.27
780.812	90.79
780.994	17.07
781.176	135.85
781.358	27.31
781.54	45.74
781.721	148.14
781.903	103.08
782.085	64.17
782.267	137.9
782.448	43.69
782.63	17.07
782.812	41.64
782.993	86.7
783.175	141.99
783.357	19.11
783.538	37.55
783.72	23.21
783.901	76.46
784.083	29.35
784.264	78.51
784.446	29.35
784.627	21.16
784.809	154.28
784.99	68.27
785.172	29.35
785.353	6.83
785.535	31.4
785.716	-5.46
785.897	-5.46
786.079	39.59
786.26	37.55
786.441	125.61
786.623	12.97
786.804	-38.23
786.985	35.5
787.167	84.65
787.348	37.55
787.529	-1.37
787.71	96.94
787.891	84.65
788.073	35.5
788.254	-52.56
788.435	47.79
788.616	51.88
788.797	-42.32
788.978	-27.99
789.159	-40.28
789.34	10.92
789.522	-34.13
789.703	-5.46
789.884	47.79
790.065	31.4
790.246	154.28
790.427	-11.61
790.607	62.12
790.788	107.18
790.969	-17.75
791.15	58.03
791.331	15.02
791.512	43.69
791.693	-58.71
791.874	10.92
792.054	154.28
792.235	55.98
792.416	-17.75
792.597	-68.95
792.778	164.52
792.958	-1.37
793.139	-34.13
793.32	41.64
793.5	-36.18
793.681	156.33
793.862	64.17
794.042	58.03
794.223	-19.8
794.404	-13.65
794.584	-48.47
794.765	-19.8
794.945	19.11
795.126	105.13
795.306	88.75
795.487	37.55
795.667	-30.04
795.848	-7.51
796.028	-9.56
796.209	80.55
796.389	70.31
796.57	31.4
796.75	-23.89
796.93	53.93
797.111	-3.41
797.291	-1.37
797.471	152.23
797.652	-60.76
797.832	12.97
798.012	66.22
798.192	-34.13
798.373	-58.71
798.553	39.59
798.733	19.11
798.913	-50.52
799.093	0.68
799.274	-1.37
799.454	76.46
799.634	92.84
799.814	84.65
799.994	0.68
800.174	-21.84
800.354	-56.66
800.534	-91.48
800.714	27.31
800.894	-140.63
801.074	-116.05
801.254	10.92
801.434	72.36
801.614	-25.94
801.794	-75.09
801.974	1702.54
802.154	-44.37
802.334	80.55
802.514	-5.46
802.693	10.92
802.873	-13.65
803.053	137.9
803.233	78.51
803.413	17.07
803.592	-54.61
803.772	-30.04
803.952	37.55
804.131	-93.52
804.311	78.51
804.491	94.89
804.67	-56.66
804.85	-66.9
805.03	15.02
805.209	58.03
805.389	37.55
805.568	15.02
805.748	-62.8
805.928	62.12
806.107	6.83
806.287	133.8
806.466	72.36
806.646	23.21
806.825	-58.71
807.004	-46.42
807.184	64.17
807.363	6.83
807.543	55.98
807.722	-66.9
807.901	88.75
808.081	86.7
808.26	-171.35
808.439	64.17
808.619	15.02
808.798	-30.04
808.977	58.03
809.156	101.03
809.336	27.31
809.515	82.6
809.694	-71
809.873	-27.99
810.052	51.88
810.231	70.31
810.411	55.98
810.59	92.84
810.769	23.21
810.948	82.6
811.127	-50.52
811.306	-97.62
811.485	-114
811.664	117.42
811.843	-1.37
812.022	4.78
812.201	-9.56
812.38	-21.84
812.559	12.97
812.737	154.28
812.916	-58.71
813.095	-136.53
813.274	-25.94
813.453	-34.13
813.632	-25.94
813.811	60.07
813.989	31.4
814.168	-7.51
814.347	-109.91
814.526	55.98
814.704	78.51
814.883	146.09
815.062	-105.81
815.24	0.68
815.419	31.4
815.598	51.88
815.776	-89.43
815.955	-11.61
816.133	-54.61
816.312	27.31
816.49	27.31
816.669	10.92
816.847	6.83
817.026	31.4
817.204	-17.75
817.383	6.83
817.561	-27.99
817.74	15.02
817.918	66.22
818.097	-91.48
818.275	-1.37
818.453	86.7
818.632	96.94
818.81	23.21
818.988	-17.75
819.167	-30.04
819.345	51.88
819.523	-58.71
819.701	41.64
819.879	23.21
820.058	-27.99
820.236	19.11
820.414	12.97
820.592	19.11
820.77	29.35
820.948	-58.71
821.127	-32.08
821.305	-19.8
821.483	-91.48
821.661	107.18
821.839	-5.46
822.017	-54.61
822.195	-52.56
822.373	82.6
822.551	60.07
822.729	103.08
822.907	-42.32
823.085	19.11
823.262	45.74
823.44	-23.89
823.618	0.68
823.796	-25.94
823.974	4.78
824.152	-58.71
824.329	-60.76
824.507	107.18
824.685	60.07
824.863	10.92
825.04	15.02
825.218	109.23
825.396	4.78
825.574	15.02
825.751	45.74
825.929	10.92
826.107	-68.95
826.284	-1.37
826.462	39.59
826.639	-25.94
826.817	-32.08
826.994	31.4
827.172	-17.75
827.349	166.57
827.527	-5.46
827.704	15.02
827.882	21.16
828.059	37.55
828.237	-54.61
828.414	51.88
828.591	-107.86
828.769	39.59
828.946	-81.24
829.124	111.27
829.301	-17.75
829.478	23.21
829.655	-1.37
829.833	78.51
830.01	-171.35
830.187	-23.89
830.364	-19.8
830.542	19.11
830.719	64.17
830.896	43.69
831.073	21.16
831.25	49.83
831.427	-9.56
831.604	31.4
831.782	-75.09
831.959	10.92
832.136	43.69
832.313	39.59
832.49	-3.41
832.667	-30.04
832.844	-68.95
833.021	86.7
833.198	-54.61
833.374	25.26
833.551	10.92
833.728	-44.37
833.905	37.55
834.082	-89.43
834.259	31.4
834.436	70.31
834.612	-64.85
834.789	12.97
834.966	10.92
835.143	45.74
835.319	-66.9
835.496	78.51
835.673	39.59
835.85	117.42
836.026	94.89
836.203	76.46
836.38	-89.43
836.556	12.97
836.733	-66.9
836.909	86.7
837.086	21.16
837.262	-58.71
837.439	39.59
837.616	6.83
837.792	-3.41
837.968	64.17
838.145	-77.14
838.321	15.02
838.498	64.17
838.674	12.97
838.851	-5.46
839.027	-50.52
839.203	-62.8
839.38	150.18
839.556	-79.19
839.732	113.32
839.909	-58.71
840.085	41.64
840.261	-68.95
840.437	-21.84
840.614	-9.56
840.79	64.17
840.966	2.73
841.142	2.73
841.318	-54.61
841.494	25.26
841.671	27.31
841.847	-42.32
842.023	-42.32
842.199	35.5
842.375	45.74
842.551	-77.14
842.727	-77.14
842.903	111.27
843.079	-75.09
843.255	51.88
843.431	-5.46
843.607	27.31
843.783	-128.34
843.959	49.83
844.134	25.26
844.31	0.68
844.486	-50.52
844.662	-13.65
844.838	-25.94
845.013	121.51
845.189	70.31
845.365	51.88
845.541	-42.32
845.716	10.92
845.892	-1.37
846.068	-36.18
846.244	-23.89
846.419	6.83
846.595	-40.28
846.77	-75.09
846.946	31.4
847.122	-23.89
847.297	-66.9
847.473	129.7
847.648	-60.76
847.824	31.4
847.999	-91.48
848.175	80.55
848.35	-3.41
848.526	88.75
848.701	64.17
848.876	43.69
849.052	27.31
849.227	-58.71
849.403	41.64
849.578	-13.65
849.753	12.97
849.929	-1.37
850.104	-105.81
850.279	-32.08
850.454	-9.56
850.63	37.55
850.805	-17.75
850.98	-1.37
851.155	-83.28
851.33	-27.99
851.505	-73.04
851.681	70.31
851.856	-30.04
852.031	88.75
852.206	-60.76
852.381	-105.81
852.556	15.02
852.731	10.92
852.906	2.73
853.081	8.87
853.256	6.83
853.431	-9.56
853.606	-25.94
853.781	-56.66
853.956	-144.72
854.131	-66.9
854.305	-27.99
854.48	-42.32
854.655	-87.38
854.83	-107.86
855.005	-62.8
855.18	-42.32
855.354	-30.04
855.529	53.93
855.704	-91.48
855.879	-34.13
856.053	-7.51
856.228	-5.46
856.403	-25.94
856.577	19.11
856.752	-93.52
856.926	49.83
857.101	-25.94
857.276	-54.61
857.45	10.92
857.625	47.79
857.799	-9.56
857.974	2.73
858.148	-54.61
858.323	39.59
858.497	29.35
858.672	-50.52
858.846	-19.8
859.02	12.97
859.195	-93.52
859.369	-21.84
859.543	6.83
859.718	12.97
859.892	84.65
860.066	15.02
860.241	-30.04
860.415	-75.09
860.589	-34.13
860.763	-75.09
860.938	-27.99
861.112	72.36
861.286	-40.28
861.46	-1.37
861.634	23.21
861.808	53.93
861.982	-120.15
862.157	-124.24
862.331	-73.04
862.505	-85.33
862.679	-27.99
862.853	29.35
863.027	-107.86
863.201	129.7
863.375	-44.37
863.549	55.98
863.722	4.78
863.896	119.46
864.07	-81.24
864.244	10.92
864.418	27.31
864.592	-73.04
864.766	-5.46
864.939	29.35
865.113	-25.94
865.287	103.08
865.461	-42.32
865.634	-1.37
865.808	-38.23
865.982	-68.95
866.156	-62.8
866.329	-89.43
866.503	68.27
866.676	-66.9
866.85	-9.56
867.024	-79.19
867.197	92.84
867.371	17.07
867.544	-1.37
867.718	-116.05
867.891	119.46
868.065	-34.13
868.238	-116.05
868.412	43.69
868.585	-34.13
868.759	-89.43
868.932	-73.04
869.105	-85.33
869.279	39.59
869.452	-124.24
869.625	47.79
869.799	35.5
869.972	-150.87
870.145	-109.91
870.319	58.03
870.492	6.83
870.665	-27.99
870.838	-17.75
871.011	-144.72
871.185	-19.8
871.358	-68.95
871.531	49.83
871.704	-48.47
871.877	-27.99
872.05	-132.44
872.223	-105.81
872.396	-25.94
872.569	0.68
872.742	-136.53
872.915	41.64
873.088	-11.61
873.261	-99.67
873.434	121.51
873.607	-11.61
873.78	84.65
873.953	-105.81
874.126	21.16
874.299	15.02
874.471	0.68
874.644	-3.41
874.817	23.21
874.99	123.56
875.163	-46.42
875.335	47.79
875.508	-32.08
875.681	6.83
875.853	-75.09
876.026	-17.75
876.199	53.93
876.371	-27.99
876.544	-46.42
876.717	-58.71
876.889	-1.37
877.062	4.78
877.234	43.69
877.407	-25.94
877.579	49.83
877.752	-66.9
877.924	-13.65
878.097	41.64
878.269	0.68
878.442	-13.65
878.614	15.02
878.786	-5.46
878.959	10.92
879.131	-5.46
879.303	-73.04
879.476	4.78
879.648	47.79
879.82	-71
879.993	-11.61
880.165	-101.72
880.337	-42.32
880.509	-36.18
880.681	-126.29
880.854	-73.04
881.026	-3.41
881.198	88.75
881.37	-5.46
881.542	-40.28
881.714	-25.94
881.886	-62.8
882.058	-52.56
882.23	43.69
882.402	17.07
882.574	-21.84
882.746	88.75
882.918	119.46
883.09	-5.46
883.262	-9.56
883.434	-54.61
883.606	-130.39
883.778	-114
883.95	82.6
884.122	-3.41
884.293	62.12
884.465	-19.8
884.637	60.07
884.809	-60.76
884.98	-48.47
885.152	53.93
885.324	35.5
885.496	-66.9
885.667	12.97
885.839	-58.71
886.011	29.35
886.182	10.92
886.354	64.17
886.525	-27.99
886.697	-1.37
886.869	-83.28
887.04	-17.75
887.212	103.08
887.383	150.18
887.555	6.83
887.726	-30.04
887.897	-91.48
888.069	-11.61
888.24	8.87
888.412	27.31
888.583	-30.04
888.754	-52.56
888.926	-79.19
889.097	-91.48
889.268	-95.57
889.44	4.78
889.611	-34.13
889.782	-75.09
889.953	-83.28
890.125	115.37
890.296	-66.9
890.467	-32.08
890.638	-25.94
890.809	33.45
890.98	-46.42
891.151	15.02
891.323	21.16
891.494	31.4
891.665	-25.94
891.836	-9.56
892.007	-9.56
892.178	47.79
892.349	-13.65
892.52	-19.8
892.691	37.55
892.862	-46.42
893.032	-75.09
893.203	-46.42
893.374	-25.94
893.545	41.64
893.716	-66.9
893.887	96.94
894.057	-52.56
894.228	-81.24
894.399	-126.29
894.57	80.55
894.74	29.35
894.911	-36.18
895.082	-25.94
895.253	-99.67
895.423	-71
895.594	76.46
895.764	82.6
895.935	-73.04
896.106	-7.51
896.276	-60.76
896.447	15.02
896.617	-58.71
896.788	-87.38
896.958	33.45
897.129	-85.33
897.299	-167.25
897.47	78.51
897.64	68.27
897.81	-48.47
897.981	-79.19
898.151	-142.68
898.322	-79.19
898.492	27.31
898.662	-15.7
898.832	-68.95
899.003	-13.65
899.173	-25.94
899.343	-62.8
899.513	-60.76
