Data from USB4F104151__57__10-26-13-230.txt Node

Date: Wed Feb 26 10:26:13 EST 2025
User: louis
Spectrometer: USB4F10415
Trigger mode: 4
Integration Time (sec): 1.000000E-1
Scans to average: 1
Electric dark correction enabled: true
Nonlinearity correction enabled: false
Boxcar width: 0
XAxis mode: Wavelengths
Number of Pixels in Spectrum: 3648
>>>>>Begin Spectral Data<<<<<
178.204	-403.62
178.424	-403.62
178.644	-403.62
178.864	-428.2
179.084	-346.28
179.304	-4.27
179.524	-10.41
179.744	-28.84
179.964	10.07
180.184	83.8
180.404	28.5
180.624	-94.38
180.844	61.27
181.064	-51.37
181.283	-4.27
181.503	-20.65
181.723	30.55
181.943	-104.62
182.163	165.71
182.383	-59.56
182.602	53.08
182.822	108.37
183.042	69.46
183.262	-39.08
183.482	40.79
183.701	91.99
183.921	12.12
184.141	-39.08
184.361	59.22
184.58	30.55
184.8	36.69
185.02	-51.37
185.239	91.99
185.459	120.66
185.679	102.23
185.898	-90.28
186.118	132.95
186.338	89.94
186.557	94.04
186.777	-26.79
186.997	20.31
187.216	26.45
187.436	96.08
187.655	69.46
187.875	87.89
188.095	28.5
188.314	145.24
188.534	106.32
188.753	-65.71
188.973	36.69
189.192	163.67
189.412	-32.94
189.631	-86.19
189.851	79.7
190.07	124.76
190.29	-86.19
190.509	-6.31
190.729	75.6
190.948	61.27
191.168	266.07
191.387	104.28
191.607	3.93
191.826	46.93
192.045	42.84
192.265	14.17
192.484	130.9
192.704	67.41
192.923	-53.42
193.142	202.58
193.362	104.28
193.581	128.85
193.8	61.27
194.02	122.71
194.239	67.41
194.458	73.56
194.678	69.46
194.897	48.98
195.116	65.36
195.335	110.42
195.555	-28.84
195.774	26.45
195.993	28.5
196.212	16.21
196.432	63.32
196.651	42.84
196.87	34.64
197.089	194.39
197.308	34.64
197.528	26.45
197.747	-55.47
197.966	5.97
198.185	124.76
198.404	-71.85
198.623	100.18
198.842	34.64
199.062	28.5
199.281	79.7
199.5	1.88
199.719	81.75
199.938	124.76
200.157	28.5
200.376	75.6
200.595	114.52
200.814	96.08
201.033	-37.03
201.252	116.56
201.471	32.6
201.69	32.6
201.909	-8.36
202.128	202.58
202.347	40.79
202.566	22.36
202.785	-18.6
203.004	-63.66
203.223	180.05
203.442	-12.46
203.661	-55.47
203.879	40.79
204.098	155.47
204.317	26.45
204.536	157.52
204.755	34.64
204.974	141.14
205.193	-26.79
205.411	94.04
205.63	81.75
205.849	42.84
206.068	-55.47
206.287	-28.84
206.505	190.29
206.724	46.93
206.943	20.31
207.162	-4.27
207.381	114.52
207.599	26.45
207.818	69.46
208.037	-14.51
208.255	-8.36
208.474	67.41
208.693	73.56
208.911	14.17
209.13	55.12
209.349	57.17
209.567	106.32
209.786	104.28
210.005	96.08
210.223	63.32
210.442	-110.76
210.661	-2.22
210.879	40.79
211.098	89.94
211.316	10.07
211.535	30.55
211.753	46.93
211.972	61.27
212.191	-6.31
212.409	38.74
212.628	48.98
212.846	-20.65
213.065	85.84
213.283	145.24
213.502	65.36
213.72	28.5
213.938	69.46
214.157	-8.36
214.375	141.14
214.594	32.6
214.812	102.23
215.031	65.36
215.249	-30.89
215.467	61.27
215.686	89.94
215.904	44.88
216.122	157.52
216.341	96.08
216.559	51.03
216.778	77.65
216.996	171.86
217.214	-55.47
217.432	-2.22
217.651	-90.28
217.869	51.03
218.087	44.88
218.306	48.98
218.524	5.97
218.742	96.08
218.96	75.6
219.179	5.97
219.397	48.98
219.615	253.78
219.833	63.32
220.051	-28.84
220.27	122.71
220.488	55.12
220.706	63.32
220.924	-12.46
221.142	46.93
221.36	85.84
221.578	139.09
221.796	34.64
222.015	-24.75
222.233	36.69
222.451	218.96
222.669	-32.94
222.887	83.8
223.105	8.02
223.323	14.17
223.541	18.26
223.759	79.7
223.977	40.79
224.195	149.33
224.413	34.64
224.631	3.93
224.849	116.56
225.067	229.2
225.285	-80.04
225.503	-12.46
225.721	-24.75
225.939	57.17
226.157	57.17
226.375	251.73
226.592	22.36
226.81	-16.55
227.028	85.84
227.246	173.91
227.464	108.37
227.682	137.04
227.9	108.37
228.117	77.65
228.335	77.65
228.553	67.41
228.771	30.55
228.989	48.98
229.206	42.84
229.424	3.93
229.642	132.95
229.86	8.02
230.077	122.71
230.295	-53.42
230.513	106.32
230.731	89.94
230.948	216.91
231.166	147.28
231.384	18.26
231.601	-118.95
231.819	122.71
232.037	5.97
232.254	-57.51
232.472	36.69
232.689	81.75
232.907	118.61
233.125	-10.41
233.342	-2.22
233.56	-8.36
233.777	8.02
233.995	53.08
234.213	38.74
234.43	91.99
234.648	16.21
234.865	-14.51
235.083	124.76
235.3	63.32
235.518	26.45
235.735	118.61
235.953	53.08
236.17	40.79
236.388	12.12
236.605	63.32
236.822	132.95
237.04	61.27
237.257	16.21
237.475	3.93
237.692	46.93
237.909	30.55
238.127	-12.46
238.344	145.24
238.562	71.51
238.779	16.21
238.996	-71.85
239.214	65.36
239.431	159.57
239.648	-8.36
239.865	44.88
240.083	18.26
240.3	10.07
240.517	36.69
240.735	96.08
240.952	122.71
241.169	91.99
241.386	14.17
241.603	81.75
241.821	-14.51
242.038	91.99
242.255	130.9
242.472	-39.08
242.689	85.84
242.907	65.36
243.124	55.12
243.341	44.88
243.558	38.74
243.775	-55.47
243.992	-47.27
244.209	100.18
244.426	196.43
244.643	98.13
244.86	128.85
245.078	85.84
245.295	67.41
245.512	-10.41
245.729	42.84
245.946	104.28
246.163	36.69
246.38	3.93
246.597	106.32
246.814	116.56
247.031	34.64
247.248	59.22
247.464	75.6
247.681	112.47
247.898	20.31
248.115	26.45
248.332	67.41
248.549	102.23
248.766	124.76
248.983	61.27
249.2	153.43
249.417	114.52
249.633	24.4
249.85	57.17
250.067	69.46
250.284	24.4
250.501	44.88
250.717	12.12
250.934	-45.23
251.151	75.6
251.368	-10.41
251.585	59.22
251.801	55.12
252.018	-71.85
252.235	79.7
252.451	1.88
252.668	20.31
252.885	157.52
253.102	26.45
253.318	32.6
253.535	-18.6
253.752	3.93
253.968	-20.65
254.185	-51.37
254.401	61.27
254.618	57.17
254.835	38.74
255.051	175.95
255.268	53.08
255.484	-28.84
255.701	16.21
255.917	67.41
256.134	-10.41
256.351	48.98
256.567	-100.52
256.784	44.88
257	-84.14
257.217	128.85
257.433	124.76
257.65	26.45
257.866	83.8
258.082	-6.31
258.299	22.36
258.515	5.97
258.732	-53.42
258.948	-20.65
259.165	89.94
259.381	32.6
259.597	81.75
259.814	-20.65
260.03	14.17
260.246	-26.79
260.463	149.33
260.679	155.47
260.895	32.6
261.112	46.93
261.328	-8.36
261.544	65.36
261.761	112.47
261.977	24.4
262.193	-30.89
262.409	38.74
262.626	79.7
262.842	8.02
263.058	46.93
263.274	55.12
263.49	-12.46
263.707	77.65
263.923	36.69
264.139	-135.34
264.355	67.41
264.571	57.17
264.787	89.94
265.004	114.52
265.22	48.98
265.436	-12.46
265.652	40.79
265.868	53.08
266.084	-43.18
266.3	42.84
266.516	-34.99
266.732	-6.31
266.948	36.69
267.164	22.36
267.38	106.32
267.596	44.88
267.812	147.28
268.028	18.26
268.244	40.79
268.46	34.64
268.676	-63.66
268.892	116.56
269.108	-118.95
269.324	-2.22
269.54	-86.19
269.756	165.71
269.972	-131.24
270.188	-37.03
270.403	-37.03
270.619	8.02
270.835	69.46
271.051	-10.41
271.267	-61.61
271.483	-24.75
271.698	75.6
271.914	137.04
272.13	-8.36
272.346	26.45
272.562	28.5
272.777	67.41
272.993	-24.75
273.209	14.17
273.425	46.93
273.64	-75.95
273.856	104.28
274.072	-2.22
274.287	-22.7
274.503	122.71
274.719	8.02
274.934	-75.95
275.15	-65.71
275.366	3.93
275.581	-28.84
275.797	63.32
276.012	153.43
276.228	-0.17
276.444	63.32
276.659	116.56
276.875	8.02
277.09	69.46
277.306	1.88
277.521	108.37
277.737	69.46
277.952	122.71
278.168	3.93
278.383	36.69
278.599	104.28
278.814	89.94
279.03	18.26
279.245	178
279.461	104.28
279.676	46.93
279.892	-110.76
280.107	-114.86
280.322	3.93
280.538	63.32
280.753	-55.47
280.969	22.36
281.184	32.6
281.399	114.52
281.615	44.88
281.83	75.6
282.045	1.88
282.26	-43.18
282.476	87.89
282.691	94.04
282.906	55.12
283.122	94.04
283.337	-26.79
283.552	57.17
283.767	-24.75
283.983	175.95
284.198	-12.46
284.413	180.05
284.628	-65.71
284.843	3.93
285.058	48.98
285.274	-53.42
285.489	-45.23
285.704	184.15
285.919	-43.18
286.134	32.6
286.349	46.93
286.564	30.55
286.779	147.28
286.995	46.93
287.21	-61.61
287.425	67.41
287.64	18.26
287.855	120.66
288.07	14.17
288.285	126.8
288.5	128.85
288.715	96.08
288.93	38.74
289.145	-16.55
289.36	61.27
289.575	24.4
289.79	186.19
290.004	16.21
290.219	110.42
290.434	-77.99
290.649	-43.18
290.864	-18.6
291.079	69.46
291.294	-4.27
291.509	124.76
291.724	16.21
291.938	-0.17
292.153	114.52
292.368	81.75
292.583	104.28
292.798	71.51
293.012	75.6
293.227	16.21
293.442	-24.75
293.657	40.79
293.871	137.04
294.086	42.84
294.301	206.67
294.516	192.34
294.73	22.36
294.945	-12.46
295.16	-22.7
295.374	-10.41
295.589	167.76
295.804	-6.31
296.018	98.13
296.233	149.33
296.447	67.41
296.662	28.5
296.877	106.32
297.091	98.13
297.306	26.45
297.52	53.08
297.735	141.14
297.949	83.8
298.164	59.22
298.378	69.46
298.593	-61.61
298.807	40.79
299.022	57.17
299.236	94.04
299.451	36.69
299.665	40.79
299.88	79.7
300.094	81.75
300.309	20.31
300.523	34.64
300.737	26.45
300.952	69.46
301.166	48.98
301.381	-12.46
301.595	1.88
301.809	24.4
302.024	71.51
302.238	-0.17
302.452	30.55
302.667	14.17
302.881	118.61
303.095	57.17
303.309	32.6
303.524	-28.84
303.738	18.26
303.952	-37.03
304.166	32.6
304.381	-47.27
304.595	139.09
304.809	40.79
305.023	14.17
305.237	-18.6
305.452	18.26
305.666	34.64
305.88	73.56
306.094	167.76
306.308	65.36
306.522	34.64
306.736	85.84
306.95	157.52
307.164	77.65
307.379	-4.27
307.593	165.71
307.807	91.99
308.021	22.36
308.235	65.36
308.449	-65.71
308.663	-10.41
308.877	182.1
309.091	18.26
309.305	91.99
309.519	-24.75
309.733	91.99
309.947	-104.62
310.161	18.26
310.374	10.07
310.588	75.6
310.802	-22.7
311.016	-43.18
311.23	44.88
311.444	-12.46
311.658	-41.13
311.872	163.67
312.085	87.89
312.299	175.95
312.513	73.56
312.727	26.45
312.941	18.26
313.154	48.98
313.368	63.32
313.582	89.94
313.796	91.99
314.009	69.46
314.223	89.94
314.437	94.04
314.651	110.42
314.864	10.07
315.078	-28.84
315.292	-26.79
315.505	34.64
315.719	108.37
315.933	32.6
316.146	-26.79
316.36	-61.61
316.573	139.09
316.787	42.84
317.001	48.98
317.214	16.21
317.428	61.27
317.641	-16.55
317.855	-41.13
318.068	22.36
318.282	73.56
318.495	110.42
318.709	102.23
318.922	-28.84
319.136	96.08
319.349	14.17
319.563	12.12
319.776	114.52
319.99	-41.13
320.203	122.71
320.417	98.13
320.63	73.56
320.843	184.15
321.057	63.32
321.27	-30.89
321.483	46.93
321.697	155.47
321.91	73.56
322.124	51.03
322.337	42.84
322.55	-37.03
322.763	-22.7
322.977	-2.22
323.19	-32.94
323.403	83.8
323.617	30.55
323.83	147.28
324.043	100.18
324.256	3.93
324.469	12.12
324.683	38.74
324.896	28.5
325.109	-12.46
325.322	-47.27
325.535	163.67
325.748	122.71
325.962	-41.13
326.175	32.6
326.388	48.98
326.601	75.6
326.814	24.4
327.027	36.69
327.24	69.46
327.453	-92.33
327.666	67.41
327.879	61.27
328.092	106.32
328.305	151.38
328.518	8.02
328.731	14.17
328.944	-18.6
329.157	73.56
329.37	16.21
329.583	192.34
329.796	173.91
330.009	-47.27
330.222	73.56
330.435	48.98
330.648	53.08
330.861	69.46
331.073	79.7
331.286	94.04
331.499	81.75
331.712	-73.9
331.925	14.17
332.138	190.29
332.35	57.17
332.563	-73.9
332.776	126.8
332.989	-59.56
333.202	-32.94
333.414	28.5
333.627	124.76
333.84	34.64
334.053	1.88
334.265	48.98
334.478	-53.42
334.691	42.84
334.903	16.21
335.116	-14.51
335.329	26.45
335.541	61.27
335.754	126.8
335.966	14.17
336.179	32.6
336.392	16.21
336.604	44.88
336.817	14.17
337.029	112.47
337.242	63.32
337.454	73.56
337.667	22.36
337.88	102.23
338.092	-16.55
338.305	22.36
338.517	53.08
338.729	81.75
338.942	147.28
339.154	-59.56
339.367	1.88
339.579	57.17
339.792	-108.71
340.004	122.71
340.217	-69.8
340.429	67.41
340.641	20.31
340.854	44.88
341.066	-18.6
341.278	81.75
341.491	100.18
341.703	57.17
341.915	-20.65
342.128	71.51
342.34	81.75
342.552	-28.84
342.764	26.45
342.977	-39.08
343.189	44.88
343.401	46.93
343.613	-53.42
343.826	20.31
344.038	30.55
344.25	-10.41
344.462	-51.37
344.674	55.12
344.886	32.6
345.099	-0.17
345.311	36.69
345.523	-16.55
345.735	-39.08
345.947	128.85
346.159	-30.89
346.371	-2.22
346.583	-14.51
346.795	180.05
347.007	38.74
347.219	75.6
347.431	-6.31
347.643	104.28
347.855	8.02
348.067	163.67
348.279	-53.42
348.491	36.69
348.703	94.04
348.915	22.36
349.127	-22.7
349.339	137.04
349.551	18.26
349.763	38.74
349.975	53.08
350.187	100.18
350.399	67.41
350.61	12.12
350.822	46.93
351.034	61.27
351.246	14.17
351.458	63.32
351.669	73.56
351.881	79.7
352.093	20.31
352.305	87.89
352.517	83.8
352.728	91.99
352.94	65.36
353.152	65.36
353.363	3.93
353.575	67.41
353.787	225.11
353.999	14.17
354.21	114.52
354.422	16.21
354.633	16.21
354.845	75.6
355.057	3.93
355.268	116.56
355.48	94.04
355.692	-26.79
355.903	36.69
356.115	-49.32
356.326	-129.19
356.538	139.09
356.749	75.6
356.961	122.71
357.172	1.88
357.384	51.03
357.595	157.52
357.807	14.17
358.018	-94.38
358.23	83.8
358.441	198.48
358.653	36.69
358.864	-84.14
359.075	12.12
359.287	-10.41
359.498	-24.75
359.709	116.56
359.921	44.88
360.132	100.18
360.344	55.12
360.555	55.12
360.766	87.89
360.977	20.31
361.189	87.89
361.4	28.5
361.611	120.66
361.823	98.13
362.034	69.46
362.245	-43.18
362.456	30.55
362.667	55.12
362.879	30.55
363.09	42.84
363.301	38.74
363.512	46.93
363.723	-82.09
363.935	-53.42
364.146	38.74
364.357	24.4
364.568	26.45
364.779	-73.9
364.99	87.89
365.201	12.12
365.412	106.32
365.623	-131.24
365.834	128.85
366.045	-8.36
366.256	53.08
366.467	128.85
366.678	3.93
366.889	-2.22
367.1	-41.13
367.311	167.76
367.522	77.65
367.733	81.75
367.944	36.69
368.155	16.21
368.366	102.23
368.577	87.89
368.788	63.32
368.999	8.02
369.209	24.4
369.42	235.35
369.631	194.39
369.842	40.79
370.053	59.22
370.264	42.84
370.474	-10.41
370.685	151.38
370.896	18.26
371.107	85.84
371.317	94.04
371.528	38.74
371.739	167.76
371.95	102.23
372.16	96.08
372.371	-32.94
372.582	-28.84
372.792	75.6
373.003	81.75
373.214	44.88
373.424	51.03
373.635	-26.79
373.846	132.95
374.056	96.08
374.267	63.32
374.477	63.32
374.688	18.26
374.898	-10.41
375.109	46.93
375.319	94.04
375.53	96.08
375.74	61.27
375.951	65.36
376.161	46.93
376.372	159.57
376.582	-102.57
376.793	81.75
377.003	26.45
377.214	16.21
377.424	163.67
377.635	-0.17
377.845	-45.23
378.055	104.28
378.266	-125.1
378.476	16.21
378.686	69.46
378.897	53.08
379.107	98.13
379.317	57.17
379.528	20.31
379.738	81.75
379.948	-14.51
380.158	32.6
380.369	44.88
380.579	126.8
380.789	14.17
380.999	48.98
381.21	46.93
381.42	221.01
381.63	12.12
381.84	53.08
382.05	59.22
382.261	192.34
382.471	94.04
382.681	-16.55
382.891	147.28
383.101	91.99
383.311	-88.23
383.521	14.17
383.731	85.84
383.941	96.08
384.151	100.18
384.361	16.21
384.571	16.21
384.781	75.6
384.991	153.43
385.201	145.24
385.411	61.27
385.621	114.52
385.831	79.7
386.041	36.69
386.251	53.08
386.461	94.04
386.671	36.69
386.881	53.08
387.091	-6.31
387.301	94.04
387.511	-34.99
387.72	55.12
387.93	57.17
388.14	-90.28
388.35	77.65
388.56	171.86
388.769	178
388.979	12.12
389.189	-26.79
389.399	71.51
389.609	128.85
389.818	106.32
390.028	44.88
390.238	42.84
390.447	-12.46
390.657	-2.22
390.867	-22.7
391.076	-30.89
391.286	73.56
391.496	28.5
391.705	18.26
391.915	116.56
392.125	98.13
392.334	16.21
392.544	153.43
392.753	18.26
392.963	-104.62
393.172	36.69
393.382	20.31
393.591	194.39
393.801	16.21
394.01	137.04
394.22	55.12
394.429	18.26
394.639	40.79
394.848	100.18
395.058	24.4
395.267	16.21
395.477	130.9
395.686	36.69
395.895	231.25
396.105	196.43
396.314	59.22
396.524	-30.89
396.733	-14.51
396.942	163.67
397.152	112.47
397.361	87.89
397.57	69.46
397.78	77.65
397.989	63.32
398.198	182.1
398.407	65.36
398.617	48.98
398.826	44.88
399.035	-12.46
399.244	89.94
399.453	40.79
399.663	120.66
399.872	67.41
400.081	-41.13
400.29	108.37
400.499	-77.99
400.708	132.95
400.917	18.26
401.127	79.7
401.336	14.17
401.545	163.67
401.754	94.04
401.963	137.04
402.172	-12.46
402.381	-84.14
402.59	28.5
402.799	135
403.008	71.51
403.217	5.97
403.426	83.8
403.635	-32.94
403.844	38.74
404.053	-43.18
404.262	20.31
404.471	130.9
404.68	24.4
404.888	57.17
405.097	28.5
405.306	79.7
405.515	122.71
405.724	34.64
405.933	114.52
406.142	91.99
406.35	102.23
406.559	44.88
406.768	51.03
406.977	102.23
407.185	100.18
407.394	38.74
407.603	-16.55
407.812	-10.41
408.02	130.9
408.229	116.56
408.438	-41.13
408.646	-2.22
408.855	42.84
409.064	44.88
409.272	26.45
409.481	81.75
409.69	48.98
409.898	-39.08
410.107	106.32
410.315	75.6
410.524	44.88
410.733	59.22
410.941	-0.17
411.15	53.08
411.358	83.8
411.567	161.62
411.775	36.69
411.984	71.51
412.192	157.52
412.401	-34.99
412.609	137.04
412.818	71.51
413.026	104.28
413.234	3.93
413.443	51.03
413.651	14.17
413.86	-26.79
414.068	132.95
414.276	139.09
414.485	-45.23
414.693	120.66
414.901	196.43
415.11	65.36
415.318	28.5
415.526	26.45
415.734	87.89
415.943	48.98
416.151	104.28
416.359	55.12
416.567	128.85
416.776	155.47
416.984	116.56
417.192	178
417.4	3.93
417.608	87.89
417.817	5.97
418.025	157.52
418.233	167.76
418.441	51.03
418.649	-34.99
418.857	128.85
419.065	171.86
419.273	-22.7
419.481	106.32
419.689	55.12
419.897	53.08
420.105	61.27
420.313	87.89
420.521	223.06
420.729	175.95
420.937	-47.27
421.145	77.65
421.353	91.99
421.561	110.42
421.769	77.65
421.977	48.98
422.185	120.66
422.393	20.31
422.601	102.23
422.809	116.56
423.017	42.84
423.224	55.12
423.432	102.23
423.64	44.88
423.848	83.8
424.056	48.98
424.263	44.88
424.471	-2.22
424.679	61.27
424.887	67.41
425.094	182.1
425.302	167.76
425.51	-45.23
425.718	71.51
425.925	98.13
426.133	-47.27
426.341	184.15
426.548	149.33
426.756	34.64
426.964	157.52
427.171	38.74
427.379	46.93
427.586	38.74
427.794	71.51
428.001	196.43
428.209	81.75
428.417	73.56
428.624	147.28
428.832	83.8
429.039	89.94
429.247	98.13
429.454	116.56
429.662	190.29
429.869	102.23
430.076	130.9
430.284	128.85
430.491	173.91
430.699	151.38
430.906	225.11
431.114	59.22
431.321	151.38
431.528	91.99
431.736	153.43
431.943	116.56
432.15	163.67
432.358	178
432.565	276.31
432.772	-67.75
432.979	126.8
433.187	118.61
433.394	231.25
433.601	106.32
433.808	268.11
434.016	257.87
434.223	130.9
434.43	243.54
434.637	261.97
434.844	251.73
435.052	241.49
435.259	282.45
435.466	257.87
435.673	229.2
435.88	319.31
436.087	286.54
436.294	278.35
436.501	317.26
436.708	239.44
436.915	317.26
437.122	376.66
437.329	284.5
437.537	298.83
437.743	290.64
437.95	364.37
438.157	337.74
438.364	298.83
438.571	390.99
438.778	446.29
438.985	409.42
439.192	454.48
439.399	472.91
439.606	352.08
439.813	481.1
440.02	595.79
440.227	573.26
440.433	579.4
440.64	497.49
440.847	499.53
441.054	583.5
441.261	780.11
441.467	546.64
441.674	599.88
441.881	698.19
442.088	698.19
442.294	653.13
442.501	737.1
442.708	702.28
442.914	712.52
443.121	806.73
443.328	765.77
443.534	925.51
443.741	804.68
443.948	720.71
444.154	927.56
444.361	1218.37
444.568	857.93
444.774	970.57
444.981	950.09
445.187	1122.12
445.394	1107.78
445.6	1103.68
445.807	1322.82
446.013	1122.12
446.22	1075.01
446.426	1253.19
446.633	1367.87
446.839	1527.61
447.046	1294.15
447.252	1593.15
447.459	1449.79
447.665	1550.14
447.871	1652.54
448.078	1855.29
448.284	1802.04
448.491	1824.57
448.697	1992.5
448.903	2037.56
449.11	2045.75
449.316	1929.02
449.522	2309.94
449.728	2174.77
449.935	2326.32
450.141	2350.9
450.347	2592.56
450.553	2451.25
450.76	2625.33
450.966	2672.43
451.172	2772.78
451.378	3004.2
451.584	2907.94
451.791	3231.52
451.997	3313.44
452.203	3295.01
452.409	3528.48
452.615	3768.09
452.821	3483.42
453.027	3688.22
453.233	4069.14
453.44	3915.55
453.646	4212.5
453.852	4372.24
454.058	4468.5
454.264	4654.86
454.47	4912.91
454.676	5035.78
454.882	5365.51
455.088	5136.13
455.294	5332.74
455.5	5863.16
455.705	6233.85
455.911	6092.54
456.117	6280.95
456.323	6579.95
456.529	6573.81
456.735	7038.7
456.941	7311.08
457.147	7808.73
457.352	7796.45
457.558	8085.21
457.764	8488.66
457.97	8914.64
458.176	8894.16
458.381	9371.33
458.587	9750.21
458.793	10092.22
458.999	10350.26
459.204	11353.77
459.41	11781.79
459.616	11540.13
459.821	12304.03
460.027	12617.36
460.233	13467.27
460.438	13479.56
460.644	14409.34
460.85	14536.31
461.055	15040.11
461.261	15490.66
461.466	15367.79
461.672	15529.58
461.878	17485.39
462.083	17120.85
462.289	17729.09
462.494	18257.47
462.7	18517.56
462.905	18589.24
463.111	20125.22
463.316	21116.44
463.522	21610
463.727	22058.5
463.932	23301.62
464.138	23639.53
464.343	24776.16
464.549	24880.6
464.754	26910.14
464.959	27268.53
465.165	27913.64
465.37	27622.83
465.575	27909.55
465.781	29513.11
465.986	30612.87
466.191	29889.93
466.397	30365.06
466.602	29560.21
466.807	31341.94
467.012	32058.73
467.218	32456.04
467.423	32572.77
467.628	33092.96
467.833	34743.62
468.038	34524.49
468.244	33447.25
468.449	35190.08
468.654	34542.92
468.859	34727.24
469.064	34821.44
469.269	33992.01
469.474	34155.85
469.679	35063.1
469.885	33985.87
470.09	34493.77
470.295	34561.35
470.5	33989.97
470.705	34114.89
470.91	32992.61
471.115	32943.45
471.32	33254.75
471.525	33084.76
471.73	32085.36
471.935	31716.72
472.139	31075.71
472.344	30915.97
472.549	30719.36
472.754	30221.7
472.959	29525.39
473.164	28290.47
473.369	28198.31
473.574	28810.65
473.778	28376.48
473.983	27817.39
474.188	27467.19
474.393	26113.48
474.598	26031.56
474.802	25144.79
475.007	25173.46
475.212	24778.2
475.417	23666.16
475.621	23559.66
475.826	23336.43
476.031	22846.97
476.235	22056.45
476.44	22294.02
476.645	21779.98
476.849	21732.87
477.054	21151.25
477.259	20657.69
477.463	20872.73
477.668	20141.6
477.872	19955.24
478.077	19639.85
478.282	19134
478.486	18968.12
478.691	18380.35
478.895	18609.72
479.1	18302.53
479.304	18615.87
479.509	17694.28
479.713	17909.32
479.918	17253.97
480.122	17073.74
480.326	17397.32
480.531	17262.16
480.735	17122.9
480.94	16778.84
481.144	16932.43
481.348	16373.34
481.553	16658.01
481.757	15816.29
481.961	16295.52
482.166	16281.18
482.37	15887.97
482.574	15447.66
482.778	15539.82
482.983	15902.31
483.187	15439.47
483.391	15431.27
483.595	15183.47
483.8	14894.71
484.004	15150.7
484.208	14886.51
484.412	14595.7
484.616	14823.03
484.821	14485.11
485.025	13989.5
485.229	14300.8
485.433	13831.81
485.637	13577.86
485.841	13256.33
486.045	13577.86
486.249	13278.86
486.453	12934.8
486.657	12949.14
486.861	12689.04
487.065	12156.57
487.269	12045.98
487.473	11859.62
487.677	12357.27
487.881	12095.13
488.085	11351.72
488.289	11411.11
488.493	11116.2
488.697	11077.29
488.901	10845.87
489.105	10524.34
489.309	10514.1
489.512	10260.15
489.716	9803.46
489.92	10010.3
490.124	9699.01
490.328	9617.09
490.531	9438.92
490.735	9152.2
490.939	9086.67
491.143	8859.34
491.346	8885.97
491.55	8550.1
491.754	8535.76
491.958	8320.73
492.161	8279.77
492.365	8111.83
492.569	8015.58
492.772	8038.11
492.976	7993.05
493.18	7765.73
493.383	7741.15
493.587	7597.79
493.79	7560.93
493.994	7255.78
494.197	7102.18
494.401	7208.68
494.605	6924.01
494.808	7151.34
495.012	7130.86
495.215	7083.75
495.419	7116.52
495.622	6825.71
495.825	7016.17
496.029	6921.96
496.232	7042.79
496.436	6778.61
496.639	6973.16
496.843	6708.97
497.046	6794.99
497.249	6956.78
497.453	6735.6
497.656	6919.92
497.859	6684.4
498.063	6905.58
498.266	7032.55
498.469	6651.63
498.673	6932.2
498.876	6860.52
499.079	7022.31
499.282	6911.72
499.485	7223.02
499.689	7093.99
499.892	7188.2
500.095	6909.68
500.298	7382.76
500.501	7116.52
500.705	7382.76
500.908	7395.04
501.111	7261.93
501.314	7505.63
501.517	7710.43
501.72	7673.57
501.923	7593.7
502.126	7931.61
502.329	8070.87
502.532	7935.71
502.735	7927.52
502.938	8193.75
503.141	8107.74
503.344	8259.29
503.547	8437.46
503.75	8509.14
503.953	8541.91
504.156	8748.75
504.359	8824.53
504.562	8799.95
504.765	8994.51
504.968	9199.3
505.17	9246.41
505.373	9412.29
505.576	9694.91
505.779	9723.58
505.982	9844.42
506.185	10053.31
506.387	10274.49
506.59	10374.84
506.793	10669.75
506.996	10862.26
507.198	11108.01
507.401	11237.03
507.604	11542.18
507.807	11777.7
508.009	11677.35
508.212	12142.24
508.415	12271.26
508.617	12320.41
508.82	12789.39
509.022	12723.86
509.225	13188.75
509.428	13438.6
509.63	13661.83
509.833	13909.63
510.035	14552.7
510.238	14610.04
510.44	14743.16
510.643	15597.16
510.845	15711.85
511.048	15734.37
511.25	16250.46
511.453	16492.12
511.655	17333.84
511.858	17350.22
512.06	17772.1
512.262	18155.07
512.465	18454.08
512.667	18757.18
512.87	19293.74
513.072	19578.41
513.274	20147.75
513.477	20753.94
513.679	20915.73
513.881	21437.97
514.084	21898.76
514.286	22199.81
514.488	22717.95
514.69	23424.5
514.893	23746.03
515.095	24235.49
515.297	24976.86
515.499	25325.01
515.701	25818.57
515.904	26764.73
516.106	26932.67
516.308	27676.08
516.51	28153.26
516.712	28202.41
516.914	28902.81
517.116	29771.15
517.318	29863.31
517.52	30571.91
517.722	31255.93
517.925	31444.34
518.127	32028.01
518.329	32826.72
518.531	32607.59
518.733	33721.68
518.935	34280.78
519.136	34438.47
519.338	35028.29
519.54	35624.25
519.742	36232.49
519.944	36658.47
520.146	37410.07
520.348	37741.85
520.55	37848.34
520.752	38495.5
520.954	39277.82
521.155	39230.72
521.357	39945.46
521.559	40291.57
521.761	41223.39
521.963	40789.22
522.164	41534.68
522.366	41669.85
522.568	42308.82
522.77	42230.99
522.971	43183.3
523.173	42505.42
523.375	43140.29
523.576	42958.02
523.778	43320.51
523.98	43611.32
524.181	43766.97
524.383	43693.24
524.584	44045.49
524.786	44088.5
524.988	44205.23
525.189	44426.42
525.391	44491.95
525.592	44151.99
525.794	44061.88
525.995	44260.53
526.197	43519.17
526.398	43842.74
526.6	44197.04
526.801	44356.78
527.003	44098.74
527.204	43814.07
527.406	43750.59
527.607	42892.49
527.808	43441.34
528.01	42413.26
528.211	42679.5
528.412	42767.56
528.614	41999.57
528.815	42087.64
529.016	42063.06
529.218	41374.94
529.419	40989.92
529.62	40719.59
529.822	40275.18
530.023	39798.01
530.224	39294.21
530.425	38843.65
530.626	38233.36
530.828	38139.15
531.029	38634.76
531.23	37565.72
531.431	36951.33
531.632	36711.72
531.833	36216.11
532.035	35908.91
532.236	35245.37
532.437	34989.38
532.638	34221.39
532.839	34211.15
533.04	33658.2
533.241	32826.72
533.442	33324.38
533.643	32781.67
533.844	31849.84
534.045	31585.65
534.246	30707.07
534.447	30832
534.648	30180.74
534.849	30137.74
535.05	29083.03
535.251	29044.12
535.451	28667.3
535.652	28005.8
535.853	27702.7
536.054	27620.78
536.255	27059.64
536.456	26422.72
536.657	26598.85
536.857	26006.98
537.058	25789.9
537.259	25454.03
537.46	25030.1
537.66	24843.74
537.861	24247.78
538.062	24008.17
538.263	23879.14
538.463	23332.34
538.664	23201.27
538.865	22816.25
539.065	22834.68
539.266	22296.07
539.466	22085.12
539.667	21929.48
539.868	21698.06
540.068	21233.17
540.269	21120.53
540.469	20932.12
540.67	20624.92
540.87	20336.16
541.071	20121.12
541.271	19932.71
541.472	19627.56
541.672	19451.44
541.873	18961.97
542.073	18705.98
542.274	18835
542.474	18562.62
542.675	18097.73
542.875	18099.78
543.075	17763.91
543.276	17606.22
543.476	17681.99
543.676	17305.17
543.877	17065.55
544.077	16889.43
544.277	16813.65
544.478	16412.25
544.678	16258.65
544.878	16129.63
545.078	15937.12
545.279	15695.46
545.479	15556.2
545.679	15279.72
545.879	15191.66
546.079	15009.39
546.28	14644.85
546.48	14567.03
546.68	14943.86
546.88	14202.49
547.08	14069.37
547.28	14198.4
547.48	13708.93
547.68	13815.43
547.88	13637.25
548.081	13385.35
548.281	13194.89
548.481	13149.84
548.681	12914.32
548.881	12789.39
549.081	12643.99
549.28	12078.75
549.48	12320.41
549.68	12011.17
549.88	11978.4
550.08	11697.83
550.28	11718.31
550.48	11560.61
550.68	11435.69
550.88	11234.99
551.08	10907.31
551.279	10972.85
551.479	10563.25
551.679	10647.22
551.879	10219.19
552.079	10221.24
552.278	10047.16
552.478	9909.95
552.678	9707.2
552.878	9744.06
553.077	9545.41
553.277	9305.8
553.477	9256.65
553.676	8969.93
553.876	8867.53
554.076	8629.97
554.275	8685.26
554.475	8382.17
554.674	8517.33
554.874	8138.46
555.074	8038.11
555.273	7945.95
555.473	7884.51
555.672	7794.4
555.872	7569.12
556.071	7558.88
556.271	7571.17
556.47	7319.27
556.67	6905.58
556.869	6854.38
557.068	6678.26
557.268	6803.18
557.467	6647.54
557.667	6731.5
557.866	6534.9
558.065	6373.11
558.265	6336.24
558.464	5967.61
558.663	6100.73
558.863	6164.22
559.062	6127.35
559.261	5672.7
559.461	5889.79
559.66	5572.35
559.859	5465.86
560.058	5330.69
560.258	5062.41
560.457	5316.36
560.656	5324.55
560.855	4896.52
561.054	5078.79
561.253	4742.92
561.453	5043.98
561.652	4957.96
561.851	4792.08
562.05	4704.01
562.249	4339.48
562.448	4658.96
562.647	4445.97
562.846	4319
563.045	4351.76
563.244	4212.5
563.443	4245.27
563.642	4079.38
563.841	4128.53
564.04	3985.18
564.239	4032.28
564.438	3895.07
564.637	3788.57
564.836	3841.82
565.035	3712.8
565.234	3751.71
565.432	3620.64
565.631	3524.38
565.83	3604.25
566.029	3503.9
566.228	3389.22
566.427	3503.9
566.625	3221.28
566.824	3409.7
567.023	3335.97
567.222	3135.27
567.42	3159.85
567.619	3223.33
567.818	2961.19
568.016	3219.24
568.215	3002.15
568.414	3159.85
568.612	2774.83
568.811	2811.69
569.01	2871.08
569.208	2838.31
569.407	2887.47
569.605	2735.92
569.804	2592.56
570.002	2678.57
570.201	2570.03
570.4	2514.73
570.598	2541.36
570.797	2418.48
570.995	2445.1
571.193	2371.38
571.392	2434.86
571.59	2258.74
571.789	2309.94
571.987	2299.7
572.186	2250.55
572.384	2275.12
572.582	2311.99
572.781	2328.37
572.979	2094.9
573.177	2035.51
573.376	2060.09
573.574	1998.65
573.772	1937.21
573.971	1892.15
574.169	1816.38
574.367	2049.85
574.565	1894.2
574.763	1832.76
574.962	1900.34
575.16	1843
575.358	1695.55
575.556	1728.31
575.754	1670.97
575.952	1787.71
576.151	1693.5
576.349	1699.64
576.547	1509.18
576.745	1617.72
576.943	1572.67
577.141	1462.08
577.339	1429.31
577.537	1503.04
577.735	1560.38
577.933	1507.13
578.131	1341.25
578.329	1523.52
578.527	1386.3
578.725	1496.89
578.923	1224.51
579.121	1423.17
579.319	1187.65
579.516	1232.71
579.714	1441.6
579.912	1187.65
580.11	1148.74
580.308	1150.79
580.506	1181.51
580.704	1083.2
580.901	1124.16
581.099	1232.71
581.297	1075.01
581.495	1077.06
581.692	1046.34
581.89	1193.8
582.088	1144.64
582.285	980.81
582.483	1052.49
582.681	923.46
582.878	1062.73
583.076	976.71
583.274	972.61
583.471	1021.77
583.669	937.8
583.866	804.68
584.064	859.98
584.262	800.59
584.459	841.54
584.657	931.66
584.854	857.93
585.052	872.26
585.249	847.69
585.447	831.3
585.644	796.49
585.841	851.78
586.039	896.84
586.236	909.13
586.434	747.34
586.631	669.52
586.828	788.3
587.026	829.26
587.223	687.95
587.42	749.39
587.618	751.43
587.815	782.15
588.012	730.95
588.21	720.71
588.407	716.62
588.604	716.62
588.801	640.84
588.999	655.18
589.196	859.98
589.393	716.62
589.59	741.19
589.787	669.52
589.984	659.28
590.182	636.75
590.379	603.98
590.576	636.75
590.773	634.7
590.97	657.23
591.167	706.38
591.364	694.09
591.561	618.32
591.758	687.95
591.955	710.47
592.152	591.69
592.349	540.49
592.546	511.82
592.743	589.64
592.94	649.04
593.137	577.36
593.334	644.94
593.531	634.7
593.727	646.99
593.924	620.36
594.121	583.5
594.318	679.75
594.515	661.32
594.712	753.48
594.908	730.95
595.105	618.32
595.302	655.18
595.499	741.19
595.696	802.63
595.892	614.22
596.089	780.11
596.286	630.6
596.482	776.01
596.679	722.76
596.876	683.85
597.072	819.02
597.269	855.88
597.466	845.64
597.662	821.06
597.859	814.92
598.055	898.89
598.252	874.31
598.448	870.22
598.645	976.71
598.841	915.27
599.038	1120.07
599.234	1107.78
599.431	1216.32
599.627	1204.03
599.824	1310.53
600.02	1150.79
600.217	1105.73
600.413	1355.58
600.609	1396.54
600.806	1701.69
601.002	1417.02
601.198	1525.57
601.395	1699.64
601.591	1679.16
601.787	1781.56
601.984	1746.75
602.18	1838.91
602.376	1816.38
602.572	2072.37
602.769	2092.85
602.965	2099
603.161	2273.07
603.357	2232.12
603.553	2451.25
603.75	2457.39
603.946	2619.18
604.142	2580.27
604.338	2850.6
604.534	2809.64
604.73	2914.09
604.926	2891.56
605.122	3090.21
605.318	3079.97
605.514	3313.44
605.71	3280.68
605.906	3399.46
606.102	3534.62
606.298	3637.02
606.494	3915.55
606.69	4069.14
606.886	3874.59
607.082	3948.31
607.278	4269.84
607.474	4331.28
607.67	4413.2
607.866	4366.1
608.062	4777.74
608.257	4761.36
608.453	4835.08
608.649	4996.87
608.845	5226.25
609.041	5314.31
609.236	5517.06
609.432	5531.39
609.628	5893.88
609.824	5963.51
610.019	5893.88
610.215	6203.13
610.411	6594.29
610.606	6794.99
610.802	6747.89
610.998	7104.23
611.193	7200.49
611.389	6958.83
611.584	7536.35
611.78	7519.97
611.976	7886.56
612.171	8328.92
612.367	8351.45
612.562	8546
612.758	8713.94
612.953	8818.38
613.149	9109.19
613.344	9608.9
613.539	9729.73
613.735	10084.03
613.93	10499.77
614.126	10532.53
614.321	10821.3
614.517	11206.31
614.712	11411.11
614.907	11636.39
615.103	12181.15
615.298	11906.72
615.493	12480.15
615.688	12533.4
615.884	13211.28
616.079	13401.74
616.274	13627.01
616.47	14067.33
616.665	14511.74
616.86	14870.13
617.055	15218.29
617.25	15335.02
617.445	16156.25
617.641	16143.97
617.836	16698.97
618.031	17014.35
618.226	17823.3
618.421	17878.6
618.616	18425.4
618.811	18603.58
619.006	19422.76
619.201	19605.03
619.396	20190.75
619.591	20262.43
619.786	21255.7
619.981	21300.75
620.176	22029.83
620.371	22158.85
620.566	22668.8
620.761	22959.61
620.956	23956.97
621.151	23918.06
621.346	24407.52
621.541	24890.84
621.735	25834.96
621.93	25834.96
622.125	26863.04
622.32	26445.25
622.515	27483.57
622.709	27831.72
622.904	28562.85
623.099	28820.89
623.294	29662.61
623.488	29701.52
623.683	30358.92
623.878	30614.91
624.072	31364.47
624.267	32048.49
624.462	32099.69
624.656	32574.82
624.851	33248.6
625.046	33690.96
625.24	34305.35
625.435	34262.35
625.629	35419.45
625.824	35102.01
626.018	36080.94
626.213	36035.89
626.407	37129.5
626.602	37027.1
626.796	37926.16
626.991	37750.04
627.185	37948.69
627.38	38556.94
627.574	38718.73
627.768	38526.22
627.963	38860.04
628.157	39343.36
628.352	39449.85
628.546	38786.31
628.74	39601.4
628.935	38941.96
629.129	39544.06
629.323	38864.13
629.517	38956.29
629.712	38739.21
629.906	38520.07
630.1	38090
630.294	38188.3
630.489	37262.62
630.683	37373.21
630.877	36369.71
631.071	35769.65
631.265	35095.87
631.459	34370.89
631.653	33590.61
631.848	33330.52
632.042	32091.5
632.236	32048.49
632.43	30899.58
632.624	29939.08
632.818	29146.52
633.012	27934.12
633.206	27082.17
633.4	26697.15
633.594	25310.68
633.788	24755.68
633.982	23893.48
634.176	23207.41
634.369	22228.48
634.563	21290.51
634.757	20641.31
634.951	20061.73
635.145	19062.32
635.339	18535.99
635.533	17811.01
635.726	16938.58
635.92	16293.47
636.114	15652.45
636.308	14863.99
636.501	14384.76
636.695	14196.35
636.889	13155.98
637.083	12596.89
637.276	12199.58
637.47	11585.19
637.664	11075.24
637.857	10929.84
638.051	10464.95
638.244	10002.11
638.438	9668.29
638.632	9305.8
638.825	8793.81
639.019	8623.83
639.212	8062.68
639.406	7775.97
639.599	7431.91
639.793	7073.51
639.986	6948.59
640.18	6670.06
640.373	6377.2
640.567	6149.88
640.76	5928.7
640.954	5697.28
641.147	5478.15
641.34	5383.94
641.534	5222.15
641.727	5052.17
641.92	4722.45
642.114	4515.6
642.307	4388.63
642.5	4106.01
642.694	4011.8
642.887	3874.59
643.08	3839.77
643.273	3553.06
643.467	3499.81
643.66	3319.59
643.853	3274.53
644.046	3188.52
644.239	2938.66
644.432	2826.03
644.626	2537.26
644.819	2592.56
645.012	2627.37
645.205	2404.14
645.398	2496.3
645.591	2342.71
645.784	2135.86
645.977	1982.26
646.17	2058.04
646.363	1943.35
646.556	1851.19
646.749	1650.49
646.942	1707.84
647.135	1681.21
647.328	1558.33
647.521	1591.1
647.714	1455.94
647.907	1449.79
648.099	1265.47
648.292	1494.85
648.485	1361.73
648.678	1204.03
648.871	1171.27
649.064	1054.53
649.256	1072.96
649.449	1058.63
649.642	950.09
649.835	970.57
650.027	923.46
650.22	937.8
650.413	866.12
650.605	978.76
650.798	831.3
650.991	790.35
651.183	755.53
651.376	778.06
651.568	786.25
651.761	618.32
651.954	810.82
652.146	614.22
652.339	710.47
652.531	792.39
652.724	552.78
652.916	526.16
653.109	458.57
653.301	663.37
653.494	720.71
653.686	507.73
653.879	603.98
654.071	530.25
654.263	462.67
654.456	360.27
654.648	630.6
654.84	456.53
655.033	407.38
655.225	450.38
655.417	282.45
655.61	503.63
655.802	390.99
655.994	474.96
656.186	309.07
656.379	454.48
656.571	356.18
656.763	354.13
656.955	192.34
657.148	335.7
657.34	376.66
657.532	231.25
657.724	253.78
657.916	341.84
658.108	354.13
658.3	280.4
658.492	270.16
658.684	266.07
658.876	358.22
659.068	135
659.26	251.73
659.452	116.56
659.644	243.54
659.836	372.56
660.028	292.69
660.22	229.2
660.412	218.96
660.604	194.39
660.796	231.25
660.988	214.87
661.18	200.53
661.372	270.16
661.563	311.12
661.755	206.67
661.947	214.87
662.139	87.89
662.331	192.34
662.522	200.53
662.714	83.8
662.906	120.66
663.097	231.25
663.289	143.19
663.481	65.36
663.673	221.01
663.864	137.04
664.056	227.15
664.247	91.99
664.439	311.12
664.631	182.1
664.822	130.9
665.014	231.25
665.205	116.56
665.397	122.71
665.588	147.28
665.78	214.87
665.971	259.92
666.163	106.32
666.354	165.71
666.546	22.36
666.737	114.52
666.929	112.47
667.12	75.6
667.311	175.95
667.503	118.61
667.694	143.19
667.885	132.95
668.077	206.67
668.268	85.84
668.459	188.24
668.651	204.63
668.842	212.82
669.033	106.32
669.224	83.8
669.416	237.39
669.607	73.56
669.798	24.4
669.989	204.63
670.18	106.32
670.371	221.01
670.563	48.98
670.754	190.29
670.945	130.9
671.136	214.87
671.327	91.99
671.518	96.08
671.709	227.15
671.9	227.15
672.091	218.96
672.282	87.89
672.473	94.04
672.664	46.93
672.855	96.08
673.046	75.6
673.237	178
673.428	157.52
673.619	155.47
673.809	94.04
674	194.39
674.191	188.24
674.382	94.04
674.573	71.51
674.764	135
674.954	184.15
675.145	89.94
675.336	51.03
675.527	71.51
675.717	118.61
675.908	161.62
676.099	51.03
676.289	200.53
676.48	26.45
676.671	106.32
676.861	102.23
677.052	229.2
677.243	132.95
677.433	104.28
677.624	216.91
677.814	182.1
678.005	63.32
678.195	218.96
678.386	22.36
678.576	124.76
678.767	79.7
678.957	124.76
679.148	198.48
679.338	259.92
679.529	126.8
679.719	71.51
679.909	227.15
680.1	167.76
680.29	229.2
680.481	81.75
680.671	241.49
680.861	155.47
681.052	251.73
681.242	106.32
681.432	104.28
681.622	161.62
681.813	51.03
682.003	139.09
682.193	116.56
682.383	198.48
682.573	184.15
682.764	157.52
682.954	173.91
683.144	227.15
683.334	145.24
683.524	100.18
683.714	192.34
683.904	241.49
684.094	137.04
684.284	149.33
684.474	274.26
684.664	253.78
684.854	173.91
685.044	196.43
685.234	200.53
685.424	163.67
685.614	212.82
685.804	319.31
685.994	151.38
686.184	169.81
686.374	171.86
686.564	259.92
686.753	280.4
686.943	55.12
687.133	159.57
687.323	204.63
687.513	216.91
687.702	51.03
687.892	122.71
688.082	186.19
688.272	296.78
688.461	206.67
688.651	247.63
688.841	143.19
689.03	151.38
689.22	196.43
689.41	186.19
689.599	178
689.789	40.79
689.979	231.25
690.168	110.42
690.358	251.73
690.547	165.71
690.737	137.04
690.926	165.71
691.116	206.67
691.305	208.72
691.495	206.67
691.684	106.32
691.874	163.67
692.063	94.04
692.252	223.06
692.442	261.97
692.631	85.84
692.82	161.62
693.01	311.12
693.199	149.33
693.388	278.35
693.578	135
693.767	186.19
693.956	221.01
694.146	124.76
694.335	173.91
694.524	126.8
694.713	202.58
694.902	96.08
695.092	173.91
695.281	214.87
695.47	184.15
695.659	91.99
695.848	182.1
696.037	229.2
696.226	212.82
696.415	122.71
696.604	255.83
696.793	241.49
696.982	83.8
697.171	233.3
697.36	91.99
697.549	137.04
697.738	38.74
697.927	161.62
698.116	130.9
698.305	161.62
698.494	108.37
698.683	194.39
698.872	272.21
699.061	118.61
699.25	81.75
699.438	204.63
699.627	139.09
699.816	264.02
700.005	24.4
700.193	143.19
700.382	212.82
700.571	212.82
700.76	141.14
700.948	270.16
701.137	196.43
701.326	173.91
701.514	53.08
701.703	204.63
701.892	194.39
702.08	325.46
702.269	89.94
702.457	202.58
702.646	124.76
702.834	108.37
703.023	196.43
703.212	165.71
703.4	149.33
703.589	36.69
703.777	149.33
703.965	100.18
704.154	151.38
704.342	139.09
704.531	110.42
704.719	182.1
704.907	249.68
705.096	32.6
705.284	110.42
705.472	180.05
705.661	204.63
705.849	130.9
706.037	202.58
706.226	227.15
706.414	139.09
706.602	38.74
706.79	163.67
706.979	91.99
707.167	149.33
707.355	38.74
707.543	198.48
707.731	202.58
707.919	161.62
708.107	104.28
708.296	91.99
708.484	67.41
708.672	188.24
708.86	190.29
709.048	147.28
709.236	46.93
709.424	241.49
709.612	122.71
709.8	65.36
709.988	118.61
710.176	194.39
710.364	241.49
710.551	130.9
710.739	247.63
710.927	141.14
711.115	180.05
711.303	190.29
711.491	272.21
711.679	116.56
711.866	194.39
712.054	204.63
712.242	143.19
712.43	292.69
712.617	178
712.805	202.58
712.993	184.15
713.181	34.64
713.368	149.33
713.556	104.28
713.744	46.93
713.931	300.88
714.119	180.05
714.306	175.95
714.494	155.47
714.682	153.43
714.869	-0.17
715.057	112.47
715.244	48.98
715.432	151.38
715.619	169.81
715.807	83.8
715.994	98.13
716.182	202.58
716.369	225.11
716.556	223.06
716.744	104.28
716.931	-4.27
717.119	104.28
717.306	175.95
717.493	171.86
717.681	128.85
717.868	61.27
718.055	227.15
718.242	130.9
718.43	153.43
718.617	292.69
718.804	118.61
718.991	186.19
719.179	114.52
719.366	198.48
719.553	184.15
719.74	147.28
719.927	200.53
720.114	208.72
720.301	124.76
720.488	175.95
720.676	114.52
720.863	243.54
721.05	272.21
721.237	192.34
721.424	257.87
721.611	155.47
721.798	67.41
721.985	196.43
722.172	112.47
722.358	188.24
722.545	270.16
722.732	182.1
722.919	294.74
723.106	245.59
723.293	249.68
723.48	251.73
723.667	151.38
723.853	284.5
724.04	261.97
724.227	294.74
724.414	198.48
724.6	255.83
724.787	354.13
724.974	307.02
725.161	235.35
725.347	196.43
725.534	212.82
725.72	272.21
725.907	251.73
726.094	229.2
726.28	188.24
726.467	208.72
726.653	151.38
726.84	352.08
727.027	325.46
727.213	304.98
727.4	294.74
727.586	202.58
727.773	204.63
727.959	190.29
728.145	188.24
728.332	292.69
728.518	212.82
728.705	294.74
728.891	247.63
729.077	190.29
729.264	165.71
729.45	188.24
729.636	347.98
729.823	280.4
730.009	296.78
730.195	239.44
730.382	249.68
730.568	153.43
730.754	302.93
730.94	272.21
731.126	214.87
731.313	376.66
731.499	143.19
731.685	278.35
731.871	245.59
732.057	210.77
732.243	292.69
732.429	331.6
732.615	366.42
732.801	317.26
732.987	216.91
733.173	163.67
733.359	206.67
733.545	339.79
733.731	208.72
733.917	403.28
734.103	259.92
734.289	282.45
734.475	204.63
734.661	384.85
734.847	278.35
735.033	251.73
735.219	378.7
735.404	194.39
735.59	227.15
735.776	255.83
735.962	268.11
736.148	333.65
736.333	376.66
736.519	221.01
736.705	200.53
736.89	237.39
737.076	288.59
737.262	192.34
737.447	171.86
737.633	268.11
737.819	307.02
738.004	194.39
738.19	350.03
738.375	286.54
738.561	317.26
738.747	274.26
738.932	141.14
739.118	440.14
739.303	345.94
739.489	335.7
739.674	304.98
739.859	315.22
740.045	354.13
740.23	304.98
740.416	147.28
740.601	331.6
740.786	282.45
740.972	292.69
741.157	241.49
741.342	202.58
741.528	290.64
741.713	325.46
741.898	245.59
742.084	329.55
742.269	276.31
742.454	376.66
742.639	347.98
742.824	239.44
743.01	417.61
743.195	460.62
743.38	337.74
743.565	245.59
743.75	247.63
743.935	341.84
744.12	376.66
744.305	165.71
744.49	268.11
744.675	366.42
744.86	192.34
745.045	286.54
745.23	290.64
745.415	245.59
745.6	329.55
745.785	290.64
745.97	333.65
746.155	272.21
746.34	395.09
746.525	290.64
746.71	331.6
746.895	190.29
747.079	225.11
747.264	200.53
747.449	247.63
747.634	300.88
747.819	272.21
748.003	194.39
748.188	182.1
748.373	350.03
748.557	327.5
748.742	278.35
748.927	231.25
749.111	282.45
749.296	259.92
749.481	368.46
749.665	251.73
749.85	118.61
750.034	270.16
750.219	225.11
750.404	319.31
750.588	243.54
750.773	223.06
750.957	237.39
751.141	253.78
751.326	284.5
751.51	206.67
751.695	237.39
751.879	206.67
752.064	356.18
752.248	196.43
752.432	339.79
752.617	311.12
752.801	331.6
752.985	307.02
753.17	317.26
753.354	186.19
753.538	186.19
753.722	223.06
753.907	137.04
754.091	149.33
754.275	196.43
754.459	122.71
754.643	221.01
754.828	223.06
755.012	214.87
755.196	143.19
755.38	184.15
755.564	157.52
755.748	198.48
755.932	210.77
756.116	130.9
756.3	304.98
756.484	167.76
756.668	153.43
756.852	112.47
757.036	212.82
757.22	229.2
757.404	175.95
757.588	73.56
757.772	237.39
757.956	204.63
758.14	290.64
758.323	155.47
758.507	204.63
758.691	153.43
758.875	247.63
759.059	165.71
759.242	155.47
759.426	202.58
759.61	139.09
759.794	143.19
759.977	171.86
760.161	362.32
760.345	237.39
760.528	210.77
760.712	165.71
760.895	178
761.079	159.57
761.263	1.88
761.446	180.05
761.63	161.62
761.813	200.53
761.997	102.23
762.18	122.71
762.364	212.82
762.547	114.52
762.731	225.11
762.914	151.38
763.098	112.47
763.281	139.09
763.464	53.08
763.648	139.09
763.831	100.18
764.015	173.91
764.198	227.15
764.381	110.42
764.564	116.56
764.748	89.94
764.931	161.62
765.114	139.09
765.297	223.06
765.481	53.08
765.664	139.09
765.847	91.99
766.03	122.71
766.213	83.8
766.397	44.88
766.58	53.08
766.763	194.39
766.946	83.8
767.129	182.1
767.312	145.24
767.495	57.17
767.678	94.04
767.861	151.38
768.044	135
768.227	114.52
768.41	106.32
768.593	110.42
768.776	108.37
768.959	137.04
769.142	229.2
769.324	94.04
769.507	112.47
769.69	57.17
769.873	46.93
770.056	278.35
770.239	147.28
770.421	161.62
770.604	124.76
770.787	106.32
770.97	100.18
771.152	-4.27
771.335	112.47
771.518	57.17
771.7	128.85
771.883	141.14
772.066	14.17
772.248	173.91
772.431	190.29
772.613	173.91
772.796	75.6
772.978	61.27
773.161	157.52
773.343	112.47
773.526	116.56
773.708	85.84
773.891	8.02
774.073	114.52
774.256	53.08
774.438	126.8
774.621	141.14
774.803	59.22
774.985	94.04
775.168	100.18
775.35	61.27
775.532	128.85
775.715	14.17
775.897	98.13
776.079	65.36
776.261	112.47
776.444	59.22
776.626	34.64
776.808	40.79
776.99	-18.6
777.173	67.41
777.355	28.5
777.537	65.36
777.719	104.28
777.901	5.97
778.083	5.97
778.265	-73.9
778.447	81.75
778.629	65.36
778.811	28.5
778.993	112.47
779.175	157.52
779.357	132.95
779.539	63.32
779.721	87.89
779.903	124.76
780.085	51.03
780.267	139.09
780.449	32.6
780.631	175.95
780.812	214.87
780.994	67.41
781.176	8.02
781.358	14.17
781.54	16.21
781.721	149.33
781.903	65.36
782.085	20.31
782.267	143.19
782.448	1.88
782.63	12.12
782.812	73.56
782.993	87.89
783.175	40.79
783.357	67.41
783.538	22.36
783.72	55.12
783.901	30.55
784.083	108.37
784.264	40.79
784.446	79.7
784.627	-22.7
784.809	30.55
784.99	61.27
785.172	112.47
785.353	44.88
785.535	12.12
785.716	-18.6
785.897	-39.08
786.079	32.6
786.26	22.36
786.441	89.94
786.623	-49.32
786.804	48.98
786.985	32.6
787.167	63.32
787.348	28.5
787.529	87.89
787.71	169.81
787.891	116.56
788.073	85.84
788.254	-71.85
788.435	124.76
788.616	94.04
788.797	-94.38
788.978	14.17
789.159	59.22
789.34	104.28
789.522	40.79
789.703	-45.23
789.884	-34.99
790.065	-0.17
790.246	167.76
790.427	3.93
790.607	118.61
790.788	102.23
790.969	-4.27
791.15	44.88
791.331	-6.31
791.512	3.93
791.693	-59.56
791.874	44.88
792.054	173.91
792.235	102.23
792.416	-8.36
792.597	36.69
792.778	67.41
792.958	167.76
793.139	36.69
793.32	108.37
793.5	-53.42
793.681	182.1
793.862	63.32
794.042	10.07
794.223	-32.94
794.404	36.69
794.584	-106.67
794.765	-2.22
794.945	5.97
795.126	42.84
795.306	155.47
795.487	57.17
795.667	-47.27
795.848	94.04
796.028	-20.65
796.209	53.08
796.389	42.84
796.57	20.31
796.75	26.45
796.93	122.71
797.111	3.93
797.291	-24.75
797.471	48.98
797.652	83.8
797.832	-77.99
798.012	102.23
798.192	-0.17
798.373	-24.75
798.553	-49.32
798.733	71.51
798.913	-53.42
799.093	24.4
799.274	-16.55
799.454	16.21
799.634	61.27
799.814	87.89
799.994	81.75
800.174	71.51
800.354	28.5
800.534	-51.37
800.714	85.84
800.894	5.97
801.074	-118.95
801.254	-32.94
801.434	61.27
801.614	-10.41
801.794	-32.94
801.974	1566.53
802.154	18.26
802.334	75.6
802.514	-16.55
802.693	-18.6
802.873	-75.95
803.053	147.28
803.233	51.03
803.413	20.31
803.592	-77.99
803.772	-94.38
803.952	22.36
804.131	-55.47
804.311	89.94
804.491	100.18
804.67	-112.81
804.85	-80.04
805.03	124.76
805.209	96.08
805.389	-16.55
805.568	-77.99
805.748	-10.41
805.928	-4.27
806.107	87.89
806.287	48.98
806.466	3.93
806.646	28.5
806.825	77.65
807.004	-24.75
807.184	57.17
807.363	44.88
807.543	55.12
807.722	18.26
807.901	71.51
808.081	10.07
808.26	-63.66
808.439	65.36
808.619	-0.17
808.798	-32.94
808.977	-2.22
809.156	85.84
809.336	51.03
809.515	22.36
809.694	-37.03
809.873	-20.65
810.052	96.08
810.231	143.19
810.411	1.88
810.59	89.94
810.769	40.79
810.948	-2.22
811.127	-20.65
811.306	-16.55
811.485	34.64
811.664	55.12
811.843	-16.55
812.022	-10.41
812.201	48.98
812.38	5.97
812.559	-14.51
812.737	69.46
812.916	-61.61
813.095	-2.22
813.274	69.46
813.453	26.45
813.632	40.79
813.811	85.84
813.989	-84.14
814.168	32.6
814.347	-86.19
814.526	-14.51
814.704	130.9
814.883	94.04
815.062	-8.36
815.24	81.75
815.419	-69.8
815.598	16.21
815.776	-10.41
815.955	3.93
816.133	-102.57
816.312	38.74
816.49	-32.94
816.669	-0.17
816.847	-39.08
817.026	18.26
817.204	26.45
817.383	26.45
817.561	-61.61
817.74	42.84
817.918	42.84
818.097	-8.36
818.275	-106.67
818.453	77.65
818.632	96.08
818.81	-45.23
818.988	-94.38
819.167	-24.75
819.345	-49.32
819.523	-30.89
819.701	44.88
819.879	1.88
820.058	104.28
820.236	24.4
820.414	-45.23
820.592	-28.84
820.77	24.4
820.948	-49.32
821.127	1.88
821.305	-94.38
821.483	-106.67
821.661	79.7
821.839	46.93
822.017	-12.46
822.195	34.64
822.373	22.36
822.551	100.18
822.729	-12.46
822.907	-80.04
823.085	48.98
823.262	12.12
823.44	-32.94
823.618	-47.27
823.796	3.93
823.974	-43.18
824.152	22.36
824.329	-30.89
824.507	-8.36
824.685	65.36
824.863	-53.42
825.04	3.93
825.218	-0.17
825.396	-30.89
825.574	-8.36
825.751	1.88
825.929	79.7
826.107	-80.04
826.284	-30.89
826.462	73.56
826.639	-86.19
826.817	-100.52
826.994	12.12
827.172	-37.03
827.349	139.09
827.527	53.08
827.704	63.32
827.882	-26.79
828.059	48.98
828.237	26.45
828.414	57.17
828.591	-98.47
828.769	42.84
828.946	-16.55
829.124	14.17
829.301	104.28
829.478	-69.8
829.655	34.64
829.833	-26.79
830.01	-28.84
830.187	28.5
830.364	30.55
830.542	-2.22
830.719	130.9
830.896	-14.51
831.073	-26.79
831.25	75.6
831.427	28.5
831.604	32.6
831.782	-45.23
831.959	-14.51
832.136	-53.42
832.313	-0.17
832.49	-43.18
832.667	96.08
832.844	-4.27
833.021	61.27
833.198	61.27
833.374	-32.94
833.551	-16.55
833.728	8.02
833.905	91.99
834.082	-147.62
834.259	44.88
834.436	89.94
834.612	-47.27
834.789	98.13
834.966	-53.42
835.143	48.98
835.319	-22.7
835.496	30.55
835.673	61.27
835.85	-16.55
836.026	106.32
836.203	55.12
836.38	-37.03
836.556	-94.38
836.733	-94.38
836.909	141.14
837.086	-26.79
837.262	-80.04
837.439	20.31
837.616	-20.65
837.792	-49.32
837.968	61.27
838.145	-84.14
838.321	-73.9
838.498	-0.17
838.674	10.07
838.851	40.79
839.027	-53.42
839.203	44.88
839.38	32.6
839.556	-65.71
839.732	87.89
839.909	-14.51
840.085	18.26
840.261	-127.14
840.437	42.84
840.614	8.02
840.79	65.36
840.966	10.07
841.142	-20.65
841.318	12.12
841.494	65.36
841.671	71.51
841.847	-67.75
842.023	-53.42
842.199	18.26
842.375	77.65
842.551	-127.14
842.727	-61.61
842.903	145.24
843.079	-57.51
843.255	40.79
843.431	3.93
843.607	63.32
843.783	-155.82
843.959	10.07
844.134	-67.75
844.31	163.67
844.486	28.5
844.662	38.74
844.838	32.6
845.013	55.12
845.189	53.08
845.365	34.64
845.541	-82.09
845.716	-2.22
845.892	55.12
846.068	-82.09
846.244	-57.51
846.419	8.02
846.595	24.4
846.77	-28.84
846.946	67.41
847.122	-18.6
847.297	-6.31
847.473	135
847.648	-61.61
847.824	38.74
847.999	-82.09
848.175	106.32
848.35	44.88
848.526	104.28
848.701	34.64
848.876	75.6
849.052	91.99
849.227	-82.09
849.403	14.17
849.578	-53.42
849.753	77.65
849.929	-10.41
850.104	-90.28
850.279	-2.22
850.454	10.07
850.63	59.22
850.805	26.45
850.98	-8.36
851.155	-24.75
851.33	8.02
851.505	-108.71
851.681	77.65
851.856	-69.8
852.031	94.04
852.206	38.74
852.381	-24.75
852.556	28.5
852.731	20.31
852.906	110.42
853.081	42.84
853.256	120.66
853.431	-71.85
853.606	-20.65
853.781	-16.55
853.956	-71.85
854.131	-26.79
854.305	-108.71
854.48	-16.55
854.655	-131.24
854.83	-65.71
855.005	-110.76
855.18	-28.84
855.354	-32.94
855.529	-22.7
855.704	-24.75
855.879	-32.94
856.053	-4.27
856.228	38.74
856.403	-75.95
856.577	-4.27
856.752	-141.48
856.926	-24.75
857.101	42.84
857.276	-96.43
857.45	24.4
857.625	12.12
857.799	12.12
857.974	-49.32
858.148	-39.08
858.323	44.88
858.497	-10.41
858.672	-6.31
858.846	-22.7
859.02	-4.27
859.195	-53.42
859.369	-34.99
859.543	-34.99
859.718	-20.65
859.892	77.65
860.066	-80.04
860.241	-98.47
860.415	-10.41
860.589	20.31
860.763	30.55
860.938	-0.17
861.112	36.69
861.286	-92.33
861.46	-0.17
861.634	-34.99
861.808	53.08
861.982	-16.55
862.157	-32.94
862.331	-92.33
862.505	-86.19
862.679	-77.99
862.853	-0.17
863.027	-86.19
863.201	135
863.375	-34.99
863.549	-12.46
863.722	-45.23
863.896	200.53
864.07	-82.09
864.244	-55.47
864.418	44.88
864.592	1.88
864.766	-20.65
864.939	-12.46
865.113	-20.65
865.287	42.84
865.461	-37.03
865.634	16.21
865.808	77.65
865.982	-67.75
866.156	-32.94
866.329	-82.09
866.503	-32.94
866.676	-8.36
866.85	26.45
867.024	-61.61
867.197	42.84
867.371	-10.41
867.544	85.84
867.718	-127.14
867.891	100.18
868.065	-102.57
868.238	8.02
868.412	24.4
868.585	-37.03
868.759	-139.43
868.932	-26.79
869.105	-37.03
869.279	-18.6
869.452	-114.86
869.625	-88.23
869.799	-49.32
869.972	28.5
870.145	-43.18
870.319	96.08
870.492	-94.38
870.665	-0.17
870.838	-65.71
871.011	-80.04
871.185	-49.32
871.358	18.26
871.531	22.36
871.704	-59.56
871.877	-73.9
872.05	-55.47
872.223	-116.9
872.396	75.6
872.569	51.03
872.742	-73.9
872.915	-18.6
873.088	-6.31
873.261	-96.43
873.434	28.5
873.607	-16.55
873.78	46.93
873.953	-135.34
874.126	26.45
874.299	-12.46
874.471	-39.08
874.644	-45.23
874.817	26.45
874.99	128.85
875.163	-22.7
875.335	3.93
875.508	12.12
875.681	145.24
875.853	-57.51
876.026	30.55
876.199	30.55
876.371	-49.32
876.544	-75.95
876.717	10.07
876.889	67.41
877.062	73.56
877.234	-90.28
877.407	-8.36
877.579	16.21
877.752	57.17
877.924	-63.66
878.097	-6.31
878.269	42.84
878.442	-63.66
878.614	-49.32
878.786	-65.71
878.959	14.17
879.131	40.79
879.303	-153.77
879.476	-2.22
879.648	5.97
879.82	8.02
879.993	-65.71
880.165	26.45
880.337	-80.04
880.509	8.02
880.681	-61.61
880.854	-53.42
881.026	106.32
881.198	114.52
881.37	12.12
881.542	-37.03
881.714	-71.85
881.886	-65.71
882.058	-55.47
882.23	36.69
882.402	-65.71
882.574	16.21
882.746	61.27
882.918	73.56
883.09	16.21
883.262	-4.27
883.434	-77.99
883.606	-125.1
883.778	-14.51
883.95	102.23
884.122	-67.75
884.293	28.5
884.465	-53.42
884.637	28.5
884.809	-26.79
884.98	-53.42
885.152	-0.17
885.324	-43.18
885.496	-39.08
885.667	-65.71
885.839	-96.43
886.011	87.89
886.182	-24.75
886.354	36.69
886.525	28.5
886.697	-22.7
886.869	-63.66
887.04	-32.94
887.212	91.99
887.383	98.13
887.555	-14.51
887.726	-49.32
887.897	-73.9
888.069	-51.37
888.24	16.21
888.412	-10.41
888.583	-49.32
888.754	40.79
888.926	-123.05
889.097	-86.19
889.268	-41.13
889.44	-22.7
889.611	-135.34
889.782	-116.9
889.953	-98.47
890.125	94.04
890.296	-90.28
890.467	-51.37
890.638	-104.62
890.809	-12.46
890.98	-63.66
891.151	-0.17
891.323	94.04
891.494	-16.55
891.665	48.98
891.836	-55.47
892.007	-24.75
892.178	28.5
892.349	-12.46
892.52	-51.37
892.691	51.03
892.862	-47.27
893.032	-127.14
893.203	-34.99
893.374	-80.04
893.545	44.88
893.716	-20.65
893.887	65.36
894.057	-12.46
894.228	12.12
894.399	-63.66
894.57	79.7
894.74	3.93
894.911	71.51
895.082	-92.33
895.253	-65.71
895.423	-94.38
895.594	65.36
895.764	24.4
895.935	-108.71
896.106	-2.22
896.276	-102.57
896.447	22.36
896.617	-94.38
896.788	-28.84
896.958	22.36
897.129	-45.23
897.299	-10.41
897.47	77.65
897.64	1.88
897.81	-34.99
897.981	42.84
898.151	-32.94
898.322	-12.46
898.492	67.41
898.662	-137.38
898.832	10.07
899.003	46.93
899.173	20.31
899.343	-90.28
899.513	-110.76
