Data from USB4F104151__21__11-24-41-106.txt Node

Date: Wed Feb 26 11:24:41 EST 2025
User: louis
Spectrometer: USB4F10415
Trigger mode: 4
Integration Time (sec): 1.000000E-1
Scans to average: 1
Electric dark correction enabled: true
Nonlinearity correction enabled: false
Boxcar width: 0
XAxis mode: Wavelengths
Number of Pixels in Spectrum: 3648
>>>>>Begin Spectral Data<<<<<
178.204	-436.73
178.424	-436.73
178.644	-436.73
178.864	-432.63
179.084	-387.58
179.304	-53.76
179.524	-29.18
179.744	15.87
179.964	54.78
180.184	-10.75
180.404	17.92
180.624	-12.8
180.844	87.55
181.064	-61.95
181.283	-0.51
181.503	-25.09
181.723	17.92
181.943	-113.15
182.163	151.04
182.383	-25.09
182.602	85.5
182.822	155.13
183.042	38.4
183.262	-14.85
183.482	32.26
183.701	9.73
183.921	79.36
184.141	-31.23
184.361	81.41
184.58	101.89
184.8	30.21
185.02	-98.81
185.239	83.45
185.459	97.79
185.679	140.8
185.898	-100.86
186.118	75.26
186.338	91.65
186.557	136.7
186.777	-111.1
186.997	26.11
187.216	95.74
187.436	140.8
187.655	56.83
187.875	159.23
188.095	52.74
188.314	163.33
188.534	148.99
188.753	-4.61
188.973	81.41
189.192	169.47
189.412	54.78
189.631	-37.38
189.851	5.63
190.07	181.76
190.29	-82.43
190.509	-53.76
190.729	22.02
190.948	56.83
191.168	216.57
191.387	67.07
191.607	-2.56
191.826	32.26
192.045	-18.94
192.265	-55.81
192.484	-47.62
192.704	71.17
192.923	-37.38
193.142	144.89
193.362	60.93
193.581	114.17
193.8	9.73
194.02	91.65
194.239	26.11
194.458	9.73
194.678	48.64
194.897	73.21
195.116	36.35
195.335	46.59
195.555	7.68
195.774	-0.51
195.993	97.79
196.212	38.4
196.432	-6.66
196.651	7.68
196.87	52.74
197.089	222.72
197.308	69.12
197.528	189.95
197.747	-86.53
197.966	65.02
198.185	144.89
198.404	-57.86
198.623	103.93
198.842	138.75
199.062	71.17
199.281	132.61
199.5	40.45
199.719	122.37
199.938	99.84
200.157	116.22
200.376	-25.09
200.595	89.6
200.814	5.63
201.033	-57.86
201.252	120.32
201.471	-31.23
201.69	69.12
201.909	32.26
202.128	118.27
202.347	62.98
202.566	-12.8
202.785	-2.56
203.004	-90.62
203.223	245.24
203.442	77.31
203.661	-66.05
203.879	91.65
204.098	91.65
204.317	-80.38
204.536	77.31
204.755	91.65
204.974	124.41
205.193	11.78
205.411	142.85
205.63	73.21
205.849	120.32
206.068	44.54
206.287	-16.9
206.505	206.33
206.724	38.4
206.943	-12.8
207.162	-0.51
207.381	11.78
207.599	40.45
207.818	42.5
208.037	24.06
208.255	73.21
208.474	83.45
208.693	11.78
208.911	-18.94
209.13	138.75
209.349	122.37
209.567	126.46
209.786	87.55
210.005	110.08
210.223	-6.66
210.442	-88.57
210.661	13.82
210.879	28.16
211.098	50.69
211.316	5.63
211.535	67.07
211.753	-0.51
211.972	34.3
212.191	7.68
212.409	-8.7
212.628	83.45
212.846	-27.14
213.065	56.83
213.283	99.84
213.502	38.4
213.72	44.54
213.938	56.83
214.157	7.68
214.375	89.6
214.594	40.45
214.812	114.17
215.031	48.64
215.249	58.88
215.467	15.87
215.686	71.17
215.904	13.82
216.122	32.26
216.341	165.37
216.559	38.4
216.778	155.13
216.996	177.66
217.214	22.02
217.432	17.92
217.651	-82.43
217.869	50.69
218.087	81.41
218.306	5.63
218.524	75.26
218.742	-86.53
218.96	81.41
219.179	34.3
219.397	3.58
219.615	196.09
219.833	22.02
220.051	-6.66
220.27	122.37
220.488	81.41
220.706	44.54
220.924	58.88
221.142	-10.75
221.36	-4.61
221.578	19.97
221.796	3.58
222.015	17.92
222.233	73.21
222.451	110.08
222.669	15.87
222.887	-10.75
223.105	38.4
223.323	-0.51
223.541	3.58
223.759	67.07
223.977	36.35
224.195	126.46
224.413	157.18
224.631	40.45
224.849	46.59
225.067	210.43
225.285	56.83
225.503	5.63
225.721	-37.38
225.939	69.12
226.157	101.89
226.375	292.35
226.592	-20.99
226.81	32.26
227.028	56.83
227.246	169.47
227.464	44.54
227.682	26.11
227.9	89.6
228.117	22.02
228.335	79.36
228.553	22.02
228.771	42.5
228.989	-31.23
229.206	132.61
229.424	52.74
229.642	24.06
229.86	-0.51
230.077	112.13
230.295	40.45
230.513	120.32
230.731	69.12
230.948	126.46
231.166	196.09
231.384	11.78
231.601	-23.04
231.819	122.37
232.037	5.63
232.254	-64
232.472	28.16
232.689	-12.8
232.907	108.03
233.125	-18.94
233.342	-31.23
233.56	-53.76
233.777	-18.94
233.995	42.5
234.213	75.26
234.43	-25.09
234.648	52.74
234.865	60.93
235.083	-23.04
235.3	103.93
235.518	103.93
235.735	73.21
235.953	73.21
236.17	91.65
236.388	99.84
236.605	22.02
236.822	38.4
237.04	126.46
237.257	48.64
237.475	-86.53
237.692	58.88
237.909	103.93
238.127	-84.48
238.344	81.41
238.562	30.21
238.779	-49.66
238.996	-90.62
239.214	-59.9
239.431	40.45
239.648	-49.66
239.865	22.02
240.083	50.69
240.3	-14.85
240.517	44.54
240.735	30.21
240.952	175.61
241.169	52.74
241.386	130.56
241.603	-61.95
241.821	-96.77
242.038	128.51
242.255	83.45
242.472	-37.38
242.689	110.08
242.907	56.83
243.124	50.69
243.341	46.59
243.558	34.3
243.775	-57.86
243.992	-39.42
244.209	52.74
244.426	157.18
244.643	60.93
244.86	116.22
245.078	122.37
245.295	52.74
245.512	5.63
245.729	22.02
245.946	62.98
246.163	15.87
246.38	5.63
246.597	-14.85
246.814	-0.51
247.031	52.74
247.248	-51.71
247.464	44.54
247.681	58.88
247.898	140.8
248.115	40.45
248.332	-39.42
248.549	69.12
248.766	161.28
248.983	67.07
249.2	175.61
249.417	44.54
249.633	13.82
249.85	83.45
250.067	7.68
250.284	52.74
250.501	26.11
250.717	99.84
250.934	-57.86
251.151	38.4
251.368	54.78
251.585	75.26
251.801	71.17
252.018	13.82
252.235	67.07
252.451	-90.62
252.668	48.64
252.885	169.47
253.102	67.07
253.318	17.92
253.535	24.06
253.752	5.63
253.968	-37.38
254.185	-20.99
254.401	38.4
254.618	87.55
254.835	15.87
255.051	151.04
255.268	48.64
255.484	97.79
255.701	24.06
255.917	34.3
256.134	-47.62
256.351	-8.7
256.567	3.58
256.784	-0.51
257	-35.33
257.217	73.21
257.433	134.65
257.65	42.5
257.866	50.69
258.082	-70.14
258.299	-10.75
258.515	-16.9
258.732	24.06
258.948	67.07
259.165	5.63
259.381	32.26
259.597	108.03
259.814	60.93
260.03	56.83
260.246	-0.51
260.463	110.08
260.679	128.51
260.895	91.65
261.112	79.36
261.328	7.68
261.544	-53.76
261.761	128.51
261.977	-39.42
262.193	-47.62
262.409	110.08
262.626	32.26
262.842	-37.38
263.058	-59.9
263.274	81.41
263.49	69.12
263.707	105.98
263.923	73.21
264.139	-39.42
264.355	114.17
264.571	114.17
264.787	28.16
265.004	151.04
265.22	48.64
265.436	-14.85
265.652	28.16
265.868	-12.8
266.084	-98.81
266.3	28.16
266.516	5.63
266.732	48.64
266.948	-6.66
267.164	7.68
267.38	73.21
267.596	-27.14
267.812	58.88
268.028	83.45
268.244	22.02
268.46	-39.42
268.676	19.97
268.892	-0.51
269.108	-33.28
269.324	-72.19
269.54	13.82
269.756	85.5
269.972	-78.33
270.188	-64
270.403	-33.28
270.619	-20.99
270.835	103.93
271.051	114.17
271.267	-55.81
271.483	13.82
271.698	50.69
271.914	24.06
272.13	50.69
272.346	-0.51
272.562	42.5
272.777	89.6
272.993	52.74
273.209	-0.51
273.425	91.65
273.64	-53.76
273.856	105.98
274.072	-68.09
274.287	-68.09
274.503	7.68
274.719	155.13
274.934	-31.23
275.15	-37.38
275.366	75.26
275.581	-16.9
275.797	15.87
276.012	99.84
276.228	9.73
276.444	87.55
276.659	42.5
276.875	-31.23
277.09	11.78
277.306	15.87
277.521	-25.09
277.737	7.68
277.952	24.06
278.168	46.59
278.383	97.79
278.599	26.11
278.814	81.41
279.03	-4.61
279.245	204.28
279.461	38.4
279.676	132.61
279.892	-8.7
280.107	-80.38
280.322	-18.94
280.538	24.06
280.753	-29.18
280.969	36.35
281.184	32.26
281.399	132.61
281.615	3.58
281.83	-10.75
282.045	-53.76
282.26	19.97
282.476	-23.04
282.691	116.22
282.906	71.17
283.122	-14.85
283.337	-43.52
283.552	42.5
283.767	28.16
283.983	91.65
284.198	-33.28
284.413	77.31
284.628	-111.1
284.843	73.21
285.058	40.45
285.274	-6.66
285.489	30.21
285.704	36.35
285.919	5.63
286.134	36.35
286.349	-37.38
286.564	24.06
286.779	142.85
286.995	-8.7
287.21	-33.28
287.425	15.87
287.64	-43.52
287.855	93.69
288.07	-66.05
288.285	108.03
288.5	155.13
288.715	85.5
288.93	15.87
289.145	44.54
289.36	112.13
289.575	38.4
289.79	146.94
290.004	-10.75
290.219	114.17
290.434	-61.95
290.649	22.02
290.864	83.45
291.079	-82.43
291.294	-4.61
291.509	-14.85
291.724	-25.09
291.938	42.5
292.153	58.88
292.368	-8.7
292.583	87.55
292.798	77.31
293.012	54.78
293.227	60.93
293.442	44.54
293.657	44.54
293.871	138.75
294.086	62.98
294.301	187.9
294.516	105.98
294.73	-43.52
294.945	24.06
295.16	17.92
295.374	126.46
295.589	65.02
295.804	-39.42
296.018	9.73
296.233	132.61
296.447	-35.33
296.662	-6.66
296.877	87.55
297.091	114.17
297.306	93.69
297.52	58.88
297.735	50.69
297.949	36.35
298.164	40.45
298.378	128.51
298.593	-12.8
298.807	-29.18
299.022	-0.51
299.236	69.12
299.451	-90.62
299.665	-25.09
299.88	-51.71
300.094	48.64
300.309	19.97
300.523	67.07
300.737	44.54
300.952	17.92
301.166	24.06
301.381	-18.94
301.595	-23.04
301.809	3.58
302.024	-31.23
302.238	-27.14
302.452	116.22
302.667	11.78
302.881	148.99
303.095	83.45
303.309	-12.8
303.524	44.54
303.738	-29.18
303.952	48.64
304.166	77.31
304.381	-111.1
304.595	169.47
304.809	-23.04
305.023	42.5
305.237	-12.8
305.452	-25.09
305.666	89.6
305.88	105.98
306.094	101.89
306.308	85.5
306.522	124.41
306.736	40.45
306.95	110.08
307.164	-27.14
307.379	-14.85
307.593	196.09
307.807	142.85
308.021	97.79
308.235	28.16
308.449	-86.53
308.663	42.5
308.877	120.32
309.091	40.45
309.305	140.8
309.519	-96.77
309.733	99.84
309.947	-35.33
310.161	28.16
310.374	75.26
310.588	181.76
310.802	-0.51
311.016	34.3
311.23	157.18
311.444	-33.28
311.658	-2.56
311.872	97.79
312.085	91.65
312.299	105.98
312.513	142.85
312.727	110.08
312.941	-94.72
313.154	114.17
313.368	67.07
313.582	26.11
313.796	114.17
314.009	38.4
314.223	151.04
314.437	93.69
314.651	52.74
314.864	13.82
315.078	46.59
315.292	-80.38
315.505	3.58
315.719	103.93
315.933	22.02
316.146	-29.18
316.36	-2.56
316.573	124.41
316.787	50.69
317.001	32.26
317.214	13.82
317.428	17.92
317.641	-29.18
317.855	28.16
318.068	5.63
318.282	-29.18
318.495	214.52
318.709	105.98
318.922	44.54
319.136	146.94
319.349	120.32
319.563	-27.14
319.776	87.55
319.99	-64
320.203	73.21
320.417	-0.51
320.63	69.12
320.843	122.37
321.057	116.22
321.27	15.87
321.483	75.26
321.697	148.99
321.91	38.4
322.124	71.17
322.337	24.06
322.55	-10.75
322.763	103.93
322.977	-23.04
323.19	-41.47
323.403	71.17
323.617	83.45
323.83	136.7
324.043	34.3
324.256	93.69
324.469	-76.29
324.683	62.98
324.896	-33.28
325.109	40.45
325.322	-113.15
325.535	161.28
325.748	114.17
325.962	-27.14
326.175	44.54
326.388	62.98
326.601	7.68
326.814	1.54
327.027	77.31
327.24	89.6
327.453	-55.81
327.666	58.88
327.879	144.89
328.092	83.45
328.305	73.21
328.518	3.58
328.731	-12.8
328.944	52.74
329.157	77.31
329.37	-27.14
329.583	241.15
329.796	103.93
330.009	-125.44
330.222	134.65
330.435	71.17
330.648	24.06
330.861	56.83
331.073	36.35
331.286	103.93
331.499	44.54
331.712	-10.75
331.925	38.4
332.138	19.97
332.35	136.7
332.563	-53.76
332.776	87.55
332.989	67.07
333.202	62.98
333.414	22.02
333.627	-41.47
333.84	7.68
334.053	40.45
334.265	32.26
334.478	-4.61
334.691	42.5
334.903	34.3
335.116	-72.19
335.329	-6.66
335.541	54.78
335.754	161.28
335.966	-10.75
336.179	58.88
336.392	17.92
336.604	-4.61
336.817	75.26
337.029	95.74
337.242	40.45
337.454	73.21
337.667	3.58
337.88	101.89
338.092	5.63
338.305	130.56
338.517	-37.38
338.729	155.13
338.942	124.41
339.154	-33.28
339.367	-104.96
339.579	36.35
339.792	-8.7
340.004	105.98
340.217	24.06
340.429	85.5
340.641	-2.56
340.854	-45.57
341.066	1.54
341.278	157.18
341.491	134.65
341.703	11.78
341.915	-31.23
342.128	65.02
342.34	110.08
342.552	-31.23
342.764	52.74
342.977	50.69
343.189	28.16
343.401	5.63
343.613	-119.29
343.826	7.68
344.038	54.78
344.25	87.55
344.462	-8.7
344.674	3.58
344.886	-27.14
345.099	32.26
345.311	136.7
345.523	-4.61
345.735	-78.33
345.947	99.84
346.159	13.82
346.371	15.87
346.583	-39.42
346.795	148.99
347.007	-33.28
347.219	83.45
347.431	54.78
347.643	101.89
347.855	46.59
348.067	214.52
348.279	-74.24
348.491	42.5
348.703	65.02
348.915	71.17
349.127	-4.61
349.339	32.26
349.551	-45.57
349.763	56.83
349.975	13.82
350.187	83.45
350.399	157.18
350.61	5.63
350.822	38.4
351.034	9.73
351.246	-12.8
351.458	54.78
351.669	93.69
351.881	32.26
352.093	140.8
352.305	54.78
352.517	-4.61
352.728	126.46
352.94	73.21
353.152	26.11
353.363	-14.85
353.575	93.69
353.787	118.27
353.999	65.02
354.21	187.9
354.422	22.02
354.633	-10.75
354.845	58.88
355.057	83.45
355.268	15.87
355.48	132.61
355.692	-27.14
355.903	-8.7
356.115	-51.71
356.326	-37.38
356.538	73.21
356.749	46.59
356.961	77.31
357.172	-31.23
357.384	-68.09
357.595	249.34
357.807	-37.38
358.018	22.02
358.23	-51.71
358.441	253.44
358.653	91.65
358.864	-51.71
359.075	9.73
359.287	93.69
359.498	62.98
359.709	134.65
359.921	3.58
360.132	24.06
360.344	42.5
360.555	-23.04
360.766	101.89
360.977	42.5
361.189	79.36
361.4	-18.94
361.611	58.88
361.823	99.84
362.034	65.02
362.245	-45.57
362.456	32.26
362.667	85.5
362.879	9.73
363.09	36.35
363.301	54.78
363.512	83.45
363.723	-8.7
363.935	-29.18
364.146	26.11
364.357	30.21
364.568	71.17
364.779	-51.71
364.99	169.47
365.201	-49.66
365.412	151.04
365.623	7.68
365.834	73.21
366.045	13.82
366.256	91.65
366.467	108.03
366.678	19.97
366.889	62.98
367.1	-33.28
367.311	56.83
367.522	7.68
367.733	134.65
367.944	65.02
368.155	-39.42
368.366	48.64
368.577	28.16
368.788	148.99
368.999	-35.33
369.209	-14.85
369.42	210.43
369.631	167.42
369.842	50.69
370.053	19.97
370.264	87.55
370.474	-64
370.685	54.78
370.896	3.58
371.107	134.65
371.317	93.69
371.528	15.87
371.739	132.61
371.95	60.93
372.16	130.56
372.371	-82.43
372.582	56.83
372.792	40.45
373.003	126.46
373.214	30.21
373.424	130.56
373.635	-12.8
373.846	146.94
374.056	67.07
374.267	97.79
374.477	71.17
374.688	-10.75
374.898	44.54
375.109	54.78
375.319	38.4
375.53	79.36
375.74	93.69
375.951	24.06
376.161	17.92
376.372	75.26
376.582	5.63
376.793	26.11
377.003	-4.61
377.214	-18.94
377.424	67.07
377.635	26.11
377.845	-61.95
378.055	169.47
378.266	-39.42
378.476	38.4
378.686	52.74
378.897	44.54
379.107	118.27
379.317	38.4
379.528	48.64
379.738	17.92
379.948	-51.71
380.158	146.94
380.369	24.06
380.579	65.02
380.789	5.63
380.999	32.26
381.21	34.3
381.42	124.41
381.63	85.5
381.84	44.54
382.05	75.26
382.261	54.78
382.471	167.42
382.681	17.92
382.891	140.8
383.101	97.79
383.311	-0.51
383.521	5.63
383.731	69.12
383.941	120.32
384.151	110.08
384.361	28.16
384.571	11.78
384.781	54.78
384.991	126.46
385.201	198.14
385.411	87.55
385.621	105.98
385.831	56.83
386.041	58.88
386.251	19.97
386.461	138.75
386.671	81.41
386.881	118.27
387.091	42.5
387.301	17.92
387.511	52.74
387.72	97.79
387.93	126.46
388.14	-25.09
388.35	50.69
388.56	130.56
388.769	52.74
388.979	-18.94
389.189	-16.9
389.399	30.21
389.609	85.5
389.818	67.07
390.028	67.07
390.238	75.26
390.447	-16.9
390.657	58.88
390.867	9.73
391.076	-80.38
391.286	-0.51
391.496	-20.99
391.705	54.78
391.915	138.75
392.125	112.13
392.334	50.69
392.544	75.26
392.753	75.26
392.963	40.45
393.172	-10.75
393.382	1.54
393.591	200.19
393.801	-12.8
394.01	114.17
394.22	95.74
394.429	15.87
394.639	-68.09
394.848	108.03
395.058	7.68
395.267	44.54
395.477	87.55
395.686	83.45
395.895	200.19
396.105	179.71
396.314	75.26
396.524	17.92
396.733	42.5
396.942	97.79
397.152	108.03
397.361	83.45
397.57	30.21
397.78	58.88
397.989	34.3
398.198	269.82
398.407	97.79
398.617	-41.47
398.826	13.82
399.035	17.92
399.244	163.33
399.453	-2.56
399.663	26.11
399.872	36.35
400.081	-98.81
400.29	163.33
400.499	46.59
400.708	114.17
400.917	-12.8
401.127	9.73
401.336	62.98
401.545	138.75
401.754	136.7
401.963	85.5
402.172	32.26
402.381	-80.38
402.59	22.02
402.799	81.41
403.008	163.33
403.217	38.4
403.426	101.89
403.635	-84.48
403.844	30.21
404.053	-23.04
404.262	-14.85
404.471	105.98
404.68	19.97
404.888	46.59
405.097	75.26
405.306	24.06
405.515	69.12
405.724	-2.56
405.933	105.98
406.142	38.4
406.35	122.37
406.559	79.36
406.768	62.98
406.977	81.41
407.185	108.03
407.394	81.41
407.603	-119.29
407.812	99.84
408.02	161.28
408.229	93.69
408.438	24.06
408.646	-59.9
408.855	38.4
409.064	97.79
409.272	17.92
409.481	19.97
409.69	-39.42
409.898	-33.28
410.107	83.45
410.315	134.65
410.524	99.84
410.733	79.36
410.941	-4.61
411.15	136.7
411.358	85.5
411.567	138.75
411.775	9.73
411.984	56.83
412.192	138.75
412.401	15.87
412.609	155.13
412.818	120.32
413.026	105.98
413.234	11.78
413.443	30.21
413.651	26.11
413.86	54.78
414.068	146.94
414.276	128.51
414.485	-43.52
414.693	144.89
414.901	97.79
415.11	89.6
415.318	22.02
415.526	75.26
415.734	122.37
415.943	11.78
416.151	185.85
416.359	-41.47
416.567	73.21
416.776	42.5
416.984	108.03
417.192	77.31
417.4	48.64
417.608	-18.94
417.817	-23.04
418.025	112.13
418.233	245.24
418.441	-39.42
418.649	-82.43
418.857	9.73
419.065	44.54
419.273	44.54
419.481	116.22
419.689	5.63
419.897	-18.94
420.105	-47.62
420.313	95.74
420.521	93.69
420.729	42.5
420.937	-29.18
421.145	-35.33
421.353	44.54
421.561	91.65
421.769	5.63
421.977	124.41
422.185	130.56
422.393	-8.7
422.601	144.89
422.809	60.93
423.017	48.64
423.224	54.78
423.432	116.22
423.64	3.58
423.848	103.93
424.056	-16.9
424.263	71.17
424.471	28.16
424.679	52.74
424.887	-33.28
425.094	130.56
425.302	114.17
425.51	-8.7
425.718	42.5
425.925	-18.94
426.133	-64
426.341	259.58
426.548	58.88
426.756	40.45
426.964	108.03
427.171	54.78
427.379	83.45
427.586	62.98
427.794	95.74
428.001	85.5
428.209	114.17
428.417	232.96
428.624	99.84
428.832	11.78
429.039	42.5
429.247	110.08
429.454	22.02
429.662	155.13
429.869	103.93
430.076	50.69
430.284	175.61
430.491	183.81
430.699	157.18
430.906	185.85
431.114	114.17
431.321	56.83
431.528	148.99
431.736	60.93
431.943	138.75
432.15	128.51
432.358	177.66
432.565	204.28
432.772	26.11
432.979	167.42
433.187	91.65
433.394	237.05
433.601	93.69
433.808	200.19
434.016	144.89
434.223	226.81
434.43	159.23
434.637	210.43
434.844	189.95
435.052	200.19
435.259	171.52
435.466	212.48
435.673	157.18
435.88	189.95
436.087	310.78
436.294	202.24
436.501	183.81
436.708	210.43
436.915	247.29
437.122	222.72
437.329	222.72
437.537	206.33
437.743	144.89
437.95	411.13
438.157	341.5
438.364	304.64
438.571	325.12
438.778	318.97
438.985	323.07
439.192	357.88
439.399	269.82
439.606	294.4
439.813	407.03
440.02	456.19
440.227	486.9
440.433	390.65
440.64	390.65
440.847	321.02
441.054	419.32
441.261	552.44
441.467	417.27
441.674	415.23
441.881	607.73
442.088	497.14
442.294	529.91
442.501	632.31
442.708	599.54
442.914	581.11
443.121	632.31
443.328	718.33
443.534	685.56
443.741	724.47
443.948	529.91
444.154	710.13
444.361	890.35
444.568	744.95
444.774	759.28
444.981	620.02
445.187	927.22
445.394	798.2
445.6	861.68
445.807	892.4
446.013	894.45
446.22	859.63
446.426	1035.76
446.633	970.23
446.839	1136.11
447.046	1025.52
447.252	1185.26
447.459	1058.29
447.665	1050.1
447.871	1248.75
448.078	1406.44
448.284	1279.47
448.491	1486.31
448.697	1517.03
448.903	1553.9
449.11	1609.19
449.316	1519.08
449.522	1664.49
449.728	1750.5
449.935	1766.89
450.141	1756.65
450.347	2037.22
450.553	1848.8
450.76	1961.44
450.966	2018.79
451.172	1951.2
451.378	2221.53
451.584	2156
451.791	2438.62
451.997	2581.98
452.203	2489.82
452.409	2729.43
452.615	2723.29
452.821	2733.53
453.027	2813.4
453.233	3079.63
453.44	2850.26
453.646	3032.53
453.852	3270.09
454.058	3313.1
454.264	3536.33
454.47	3769.8
454.676	3665.35
454.882	4033.99
455.088	3978.69
455.294	4085.19
455.5	4447.68
455.705	4498.88
455.911	4697.53
456.117	4677.05
456.323	4861.37
456.529	4869.56
456.735	5356.97
456.941	5490.09
457.147	5780.9
457.352	5660.07
457.558	5946.79
457.764	6346.14
457.97	6610.33
458.176	6794.65
458.381	7040.4
458.587	7124.37
458.793	7456.14
458.999	7478.67
459.204	8326.53
459.41	8695.16
459.616	8650.11
459.821	9192.82
460.027	9358.71
460.233	9971.05
460.438	10079.59
460.644	10562.91
460.85	10575.2
461.055	11122.01
461.261	11707.73
461.466	11355.47
461.672	11642.19
461.878	13249.85
462.083	12864.83
462.289	13118.78
462.494	13581.62
462.7	13729.07
462.905	13978.92
463.111	15115.55
463.316	15887.63
463.522	16336.13
463.727	16569.6
463.932	17417.46
464.138	17939.69
464.343	18740.45
464.549	18556.13
464.754	20075.73
464.959	20602.05
465.165	20784.32
465.37	20729.03
465.575	20827.33
465.781	22185.13
465.986	22733.99
466.191	22379.69
466.397	22561.96
466.602	22090.93
466.807	23313.56
467.012	23880.85
467.218	24300.69
467.423	24495.24
467.628	25017.47
467.833	26352.75
468.038	25683.06
468.244	25306.24
468.449	26635.37
468.654	26086.51
468.859	25959.54
469.064	26281.07
469.269	25293.95
469.474	25803.89
469.679	26307.69
469.885	25775.22
470.09	26053.75
470.295	25947.25
470.5	25494.65
470.705	25801.85
470.91	25017.47
471.115	24777.86
471.32	25013.38
471.525	25365.63
471.73	24335.5
471.935	24392.84
472.139	23411.87
472.344	23516.31
472.549	23123.1
472.754	23104.67
472.959	22434.99
473.164	21511.35
473.369	21128.38
473.574	21814.45
473.778	21687.48
473.983	21152.96
474.188	20741.32
474.393	20114.64
474.598	19760.34
474.802	19311.83
475.007	19133.66
475.212	18783.46
475.417	18150.64
475.621	18015.47
475.826	17646.83
476.031	17276.15
476.235	16833.79
476.44	16876.8
476.645	16491.78
476.849	16387.33
477.054	16190.73
477.259	15519
477.463	15688.98
477.668	15088.92
477.872	15023.39
478.077	14886.17
478.282	14402.85
478.486	14206.25
478.691	14200.1
478.895	13905.2
479.1	13681.97
479.304	13782.32
479.509	13403.44
479.713	13634.86
479.918	13237.56
480.122	12768.57
480.326	12948.79
480.531	12930.36
480.735	12676.41
480.94	12719.42
481.144	12842.3
481.348	12281.16
481.553	12340.55
481.757	12070.22
481.961	12184.9
482.166	12225.86
482.37	12068.17
482.574	11760.97
482.778	11744.59
482.983	12047.69
483.187	11740.49
483.391	11754.83
483.595	11572.56
483.8	11427.15
484.004	11392.34
484.208	11318.61
484.412	11203.93
484.616	11199.83
484.821	10784.09
485.025	10585.44
485.229	10906.97
485.433	10524
485.637	10646.88
485.841	10210.66
486.045	10233.19
486.249	10106.21
486.453	9788.78
486.657	9835.88
486.861	9569.65
487.065	9350.51
487.269	9405.81
487.473	9129.33
487.677	9364.85
487.881	9264.5
488.085	8897.91
488.289	8727.93
488.493	8355.2
488.697	8701.31
488.901	8226.18
489.105	8007.05
489.309	7931.27
489.512	7918.98
489.716	7871.88
489.92	7617.93
490.124	7574.92
490.328	7562.64
490.531	7220.63
490.735	7245.2
490.939	7183.76
491.143	6821.27
491.346	6774.17
491.55	6696.35
491.754	6690.2
491.958	6536.6
492.161	6401.44
492.365	6395.29
492.569	6235.55
492.772	6116.77
492.976	6153.63
493.18	6043.04
493.383	5942.69
493.587	5873.06
493.79	5954.98
493.994	5635.5
494.197	5733.8
494.401	5801.38
494.605	5572.01
494.808	5582.25
495.012	5526.96
495.215	5549.48
495.419	5588.39
495.622	5539.24
495.825	5440.94
496.029	5285.3
496.232	5529
496.436	5275.06
496.639	5615.02
496.843	5447.08
497.046	5412.27
497.249	5371.31
497.453	5424.56
497.656	5406.13
497.859	5356.97
498.063	5516.72
498.266	5518.76
498.469	5320.11
498.673	5453.23
498.876	5504.43
499.079	5576.11
499.282	5531.05
499.485	5963.17
499.689	5731.75
499.892	5860.77
500.095	5850.53
500.298	5848.49
500.501	5684.65
500.705	6038.95
500.908	5981.6
501.111	5989.8
501.314	6108.58
501.517	6247.84
501.72	6235.55
501.923	6393.25
502.126	6397.34
502.329	6550.94
502.532	6473.12
502.735	6731.16
502.938	6819.22
503.141	6847.9
503.344	6808.98
503.547	7132.56
503.75	7050.64
503.953	7140.76
504.156	7335.31
504.359	7447.95
504.562	7669.13
504.765	7603.6
504.968	7810.44
505.17	7945.61
505.373	8101.25
505.576	8414.59
505.779	8265.09
505.982	8527.23
506.185	8658.3
506.387	8791.42
506.59	8949.11
506.793	8875.38
506.996	9147.76
507.198	9557.36
507.401	9483.63
507.604	9760.11
507.807	9889.13
508.009	10198.37
508.212	10501.47
508.415	10653.02
508.617	10749.28
508.82	10954.07
509.022	11042.14
509.225	11697.49
509.428	11812.17
509.63	12082.5
509.833	12309.83
510.035	12866.88
510.238	13002.04
510.44	13006.14
510.643	13587.76
510.845	13905.2
511.048	13868.33
511.25	14339.37
511.453	14632.22
511.655	15324.44
511.858	15187.22
512.06	15543.57
512.262	15930.64
512.465	16426.25
512.667	16499.97
512.87	16960.77
513.072	17511.67
513.274	17945.84
513.477	18222.31
513.679	18746.59
513.881	18920.67
514.084	19649.75
514.286	19748.05
514.488	20389.06
514.69	20868.29
514.893	21351.61
515.095	21875.89
515.297	22285.48
515.499	22867.11
515.701	23051.42
515.904	23803.03
516.106	24245.39
516.308	24939.65
516.51	25635.96
516.712	25695.35
516.914	26070.13
517.116	26983.52
517.318	27276.38
517.52	27716.7
517.722	28216.4
517.925	28589.13
518.127	29467.71
518.329	30010.42
518.531	30022.71
518.733	31063.08
518.935	31437.86
519.136	31745.05
519.338	32664.59
519.54	32889.87
519.742	33756.16
519.944	33983.48
520.146	34675.69
520.348	35175.4
520.55	35462.11
520.752	35797.98
520.954	36660.18
521.155	36707.28
521.357	37295.05
521.559	38022.08
521.761	38269.88
521.963	38427.57
522.164	39027.63
522.366	39314.34
522.568	39588.77
522.77	40094.62
522.971	40586.13
523.173	40432.54
523.375	41188.24
523.576	40868.75
523.778	41278.35
523.98	41536.39
524.181	41892.74
524.383	42036.09
524.584	42349.43
524.786	42595.19
524.988	42523.51
525.189	42777.46
525.391	42709.88
525.592	42568.57
525.794	42605.43
525.995	42795.89
526.197	42765.17
526.398	42523.51
526.6	43041.65
526.801	42627.96
527.003	42617.72
527.204	42324.86
527.406	42728.31
527.607	42072.96
527.808	42830.71
528.01	41302.92
528.211	41681.8
528.412	41661.32
528.614	41429.9
528.815	40649.62
529.016	41202.57
529.218	40442.77
529.419	40125.34
529.62	39656.35
529.822	39556
530.023	39019.44
530.224	39041.96
530.425	38572.98
530.626	37596.1
530.828	37247.94
531.029	37833.66
531.23	36965.32
531.431	36367.32
531.632	36195.29
531.833	35847.13
532.035	35259.37
532.236	35023.85
532.437	34814.96
532.638	34141.18
532.839	33864.7
533.04	33604.61
533.241	32850.95
533.442	32810
533.643	31902.75
533.844	31810.59
534.045	31433.76
534.246	30213.17
534.447	30600.24
534.648	30082.1
534.849	29697.08
535.05	29058.12
535.251	28965.96
535.451	28537.93
535.652	28071
535.853	27864.15
536.054	27534.43
536.255	26856.55
536.456	26672.23
536.657	26618.99
536.857	25955.44
537.058	25484.41
537.259	25525.37
537.46	25087.11
537.66	24353.93
537.861	24462.47
538.062	24005.78
538.263	23936.15
538.463	23413.91
538.664	23082.14
538.865	22938.79
539.065	22430.89
539.266	22416.55
539.466	22066.35
539.667	21800.12
539.868	21832.88
540.068	21023.94
540.269	20909.25
540.469	20796.61
540.67	20669.64
540.87	20126.92
541.071	19938.51
541.271	20143.31
541.472	19659.99
541.672	19420.38
541.873	19377.37
542.073	18533.61
542.274	19016.93
542.474	18566.37
542.675	18035.95
542.875	18349.29
543.075	17892.59
543.276	17280.25
543.476	17730.8
543.676	17425.65
543.877	16844.03
544.077	16997.63
544.277	16563.46
544.478	16655.62
544.678	16641.28
544.878	16272.65
545.078	16053.52
545.279	15586.58
545.479	15635.73
545.679	15445.27
545.879	15312.15
546.079	15291.67
546.28	14816.54
546.48	14714.14
546.68	14857.5
546.88	14355.75
547.08	14365.99
547.28	14411.04
547.48	13743.41
547.68	13761.84
547.88	13610.29
548.081	13688.11
548.281	13356.34
548.481	13192.5
548.681	12999.99
548.881	12815.68
549.081	12488
549.28	12340.55
549.48	12410.18
549.68	12117.32
549.88	12115.27
550.08	11648.33
550.28	11601.23
550.48	11447.63
550.68	11447.63
550.88	11062.62
551.08	11052.38
551.279	10970.46
551.479	10657.12
551.679	10780
551.879	10126.69
552.079	10382.69
552.278	10171.75
552.478	10116.45
552.678	9811.31
552.878	9622.89
553.077	9223.54
553.277	9164.15
553.477	9287.03
553.676	9201.01
553.876	9117.04
554.076	8695.16
554.275	8600.96
554.475	8375.68
554.674	8459.65
554.874	8158.6
555.074	8111.49
555.273	8000.9
555.473	7773.58
555.672	7710.09
555.872	7550.35
556.071	7509.39
556.271	7564.68
556.47	7585.16
556.67	7064.98
556.869	7030.16
557.068	7075.22
557.268	7021.97
557.467	6548.89
557.667	6751.64
557.866	6593.95
558.065	6391.2
558.265	6188.45
558.464	6178.21
558.663	5985.7
558.863	5948.84
559.062	6075.81
559.261	5641.64
559.461	5821.86
559.66	5526.96
559.859	5529
560.058	5379.5
560.258	5365.17
560.457	5295.54
560.656	5260.72
560.855	5025.2
561.054	5088.69
561.253	4922.8
561.453	4783.54
561.652	4828.6
561.851	4795.83
562.05	4502.97
562.249	4484.54
562.448	4617.66
562.647	4386.24
562.846	4449.72
563.045	4423.1
563.244	4132.29
563.443	4289.98
563.642	4015.55
563.841	4044.23
564.04	3939.78
564.239	3990.98
564.438	3681.74
564.637	3814.85
564.836	3665.35
565.035	3628.49
565.234	3573.19
565.432	3521.99
565.631	3548.62
565.83	3409.36
566.029	3476.94
566.228	3372.49
566.427	3493.32
566.625	3145.17
566.824	3210.7
567.023	3132.88
567.222	3319.25
567.42	3005.91
567.619	3069.39
567.818	2893.27
568.016	3024.34
568.215	2835.92
568.414	2825.68
568.612	2831.83
568.811	2819.54
569.01	2692.57
569.208	2751.96
569.407	2772.44
569.605	2733.53
569.804	2667.99
570.002	2541.02
570.201	2340.32
570.4	2592.22
570.598	2438.62
570.797	2233.82
570.995	2356.7
571.193	2389.47
571.392	2325.98
571.59	2293.21
571.789	2256.35
571.987	2268.64
572.186	2252.25
572.384	2072.03
572.582	2055.65
572.781	2117.09
572.979	2020.83
573.177	1957.35
573.376	2008.55
573.574	2024.93
573.772	1996.26
573.971	1762.79
574.169	1691.11
574.367	1736.17
574.565	1703.4
574.763	1766.89
574.962	1697.25
575.16	1834.47
575.358	1619.43
575.556	1549.8
575.754	1646.05
575.952	1588.71
576.151	1594.86
576.349	1627.62
576.547	1400.3
576.745	1621.48
576.943	1482.22
577.141	1441.26
577.339	1390.06
577.537	1443.31
577.735	1424.87
577.933	1420.78
578.131	1353.2
578.329	1406.44
578.527	1316.33
578.725	1334.76
578.923	1138.16
579.121	1273.32
579.319	1185.26
579.516	1258.99
579.714	1318.38
579.912	1177.07
580.11	1031.66
580.308	1068.53
580.506	1039.86
580.704	1052.14
580.901	1019.38
581.099	1160.69
581.297	1043.95
581.495	931.31
581.692	988.66
581.89	1031.66
582.088	980.47
582.285	1115.63
582.483	873.97
582.681	984.56
582.878	949.75
583.076	869.87
583.274	867.83
583.471	1002.99
583.669	853.49
583.866	792.05
584.064	790
584.262	697.85
584.459	728.56
584.657	820.72
584.854	892.4
585.052	869.87
585.249	761.33
585.447	669.17
585.644	648.69
585.841	822.77
586.039	769.52
586.236	876.02
586.434	632.31
586.631	628.21
586.828	677.37
587.026	650.74
587.223	615.93
587.42	613.88
587.618	671.22
587.815	716.28
588.012	654.84
588.21	597.49
588.407	722.42
588.604	630.26
588.801	484.86
588.999	603.64
589.196	679.41
589.393	513.53
589.59	574.97
589.787	656.89
589.984	548.34
590.182	663.03
590.379	527.86
590.576	605.69
590.773	550.39
590.97	525.82
591.167	542.2
591.364	568.82
591.561	554.49
591.758	622.07
591.955	630.26
592.152	529.91
592.349	454.14
592.546	464.38
592.743	413.18
592.94	620.02
593.137	534.01
593.334	624.12
593.531	642.55
593.727	599.54
593.924	517.62
594.121	523.77
594.318	470.52
594.515	628.21
594.712	636.41
594.908	626.17
595.105	445.95
595.302	605.69
595.499	519.67
595.696	642.55
595.892	542.2
596.089	652.79
596.286	626.17
596.482	677.37
596.679	607.73
596.876	599.54
597.072	663.03
597.269	636.41
597.466	577.02
597.662	654.84
597.859	652.79
598.055	687.61
598.252	810.48
598.448	849.4
598.645	867.83
598.841	890.35
599.038	982.51
599.234	910.83
599.431	923.12
599.627	953.84
599.824	970.23
600.02	1035.76
600.217	904.69
600.413	1129.97
600.609	1107.44
600.806	1463.79
601.002	1134.06
601.198	1158.64
601.395	1295.85
601.591	1408.49
601.787	1361.39
601.984	1383.91
602.18	1510.89
602.376	1451.5
602.572	1564.14
602.769	1682.92
602.965	1803.75
603.161	1844.71
603.357	1834.47
603.553	1932.77
603.75	1906.15
603.946	2047.46
604.142	1965.54
604.338	2282.97
604.534	2205.15
604.73	2268.64
604.926	2377.18
605.122	2686.42
605.318	2387.42
605.514	2530.78
605.71	2647.51
605.906	2682.33
606.102	2856.4
606.298	3063.25
606.494	2958.8
606.69	3231.18
606.886	3116.5
607.082	3392.97
607.278	3272.14
607.474	3425.74
607.67	3659.21
607.866	3470.8
608.062	3847.62
608.257	3904.96
608.453	3806.66
608.649	3982.79
608.845	4132.29
609.041	4232.64
609.236	4396.48
609.432	4396.48
609.628	4511.16
609.824	4750.78
610.019	4892.09
610.215	5031.35
610.411	5248.43
610.606	5320.11
610.802	5410.22
610.998	5473.71
611.193	5797.29
611.389	5684.65
611.584	6018.47
611.78	6133.15
611.976	6219.17
612.171	6731.16
612.367	6602.14
612.562	6815.13
612.758	6913.43
612.953	7017.88
613.149	7335.31
613.344	7576.97
613.539	7845.26
613.735	7925.13
613.93	8095.11
614.126	8418.69
614.321	8541.57
614.517	8742.27
614.712	8865.14
614.907	9135.48
615.103	9428.34
615.298	9502.06
615.493	10055.01
615.688	9983.34
615.884	10462.56
616.079	10556.77
616.274	10902.87
616.47	11179.35
616.665	11566.42
616.86	11554.13
617.055	12033.35
617.25	12166.47
617.445	12483.91
617.641	12762.43
617.836	13086.01
618.031	13311.28
618.226	13825.33
618.421	14112.04
618.616	14456.1
618.811	14632.22
619.006	14959.9
619.201	15533.33
619.396	15985.93
619.591	15947.02
619.786	16661.76
619.981	16946.43
620.176	17478.9
620.371	17487.09
620.566	17935.6
620.761	18058.48
620.956	18781.41
621.151	18867.42
621.346	19305.69
621.541	19616.98
621.735	20268.23
621.93	20280.52
622.125	20888.77
622.32	21021.89
622.515	21433.53
622.709	22029.49
622.904	22477.99
623.099	22824.1
623.294	23190.69
623.488	23504.03
623.683	23784.6
623.878	24151.18
624.072	24800.39
624.267	24730.76
624.462	25734.26
624.656	25549.95
624.851	26362.99
625.046	26575.98
625.24	26999.91
625.435	27384.93
625.629	27872.34
625.824	27802.71
626.018	28574.8
626.213	28200.02
626.407	29135.94
626.602	28828.74
626.796	29461.57
626.991	29981.75
627.185	30241.84
627.38	30223.41
627.574	30383.15
627.768	30315.57
627.963	30764.07
628.157	30706.73
628.352	31087.65
628.546	31153.19
628.74	31343.65
628.935	30809.13
629.129	30983.21
629.323	30608.43
629.517	31357.99
629.712	30641.2
629.906	30483.5
630.1	30194.74
630.294	30266.42
630.489	29426.75
630.683	29568.06
630.877	28609.61
631.071	28146.77
631.265	28032.08
631.459	27231.33
631.653	26684.52
631.848	25947.25
632.042	25525.37
632.236	24906.88
632.43	24249.49
632.624	23735.45
632.818	22951.07
633.012	21953.71
633.206	21619.89
633.4	21015.74
633.594	20030.67
633.788	19731.67
633.982	18947.29
634.176	18533.61
634.369	17321.21
634.563	16796.93
634.757	16047.37
634.951	15758.61
635.145	15381.78
635.339	14820.64
635.533	14017.83
635.726	13407.54
635.92	12731.71
636.114	12350.79
636.308	11896.14
636.501	11406.67
636.695	11093.33
636.889	10327.39
637.083	10083.69
637.276	9606.51
637.47	9186.68
637.664	8846.71
637.857	8822.14
638.051	8105.35
638.244	8050.05
638.438	7583.12
638.632	7325.07
638.825	6913.43
639.019	6839.7
639.212	6370.72
639.406	6303.14
639.599	5688.75
639.793	5637.55
639.986	5488.04
640.18	5426.61
640.373	4892.09
640.567	4851.13
640.76	4689.34
640.954	4711.86
641.147	4265.41
641.34	4222.4
641.534	3982.79
641.727	3876.29
641.92	3741.13
642.114	3515.85
642.307	3462.6
642.5	3296.72
642.694	3116.5
642.887	3059.15
643.08	3065.3
643.273	2915.8
643.467	2680.28
643.66	2579.93
643.853	2528.73
644.046	2465.24
644.239	2280.93
644.432	2168.29
644.626	2145.76
644.819	2012.64
645.012	1998.31
645.205	1863.14
645.398	1981.92
645.591	1750.5
645.784	1603.05
645.977	1592.81
646.17	1596.9
646.363	1406.44
646.556	1457.64
646.749	1342.96
646.942	1324.52
647.135	1394.15
647.328	1175.02
647.521	1250.8
647.714	1248.75
647.907	1150.45
648.099	1019.38
648.292	1113.58
648.485	974.32
648.678	1037.81
648.871	806.39
649.064	992.75
649.256	863.73
649.449	712.18
649.642	787.96
649.835	714.23
650.027	720.37
650.22	814.58
650.413	648.69
650.605	761.33
650.798	706.04
650.991	636.41
651.183	574.97
651.376	646.65
651.568	669.17
651.761	515.58
651.954	585.21
652.146	374.27
652.339	519.67
652.531	534.01
652.724	493.05
652.916	366.07
653.109	290.3
653.301	486.9
653.494	493.05
653.686	445.95
653.879	411.13
654.071	351.74
654.263	355.83
654.456	335.35
654.648	470.52
654.84	413.18
655.033	267.77
655.225	394.75
655.417	243.2
655.61	404.99
655.802	398.84
655.994	364.03
656.186	275.96
656.379	370.17
656.571	183.81
656.763	261.63
656.955	210.43
657.148	255.48
657.34	359.93
657.532	159.23
657.724	294.4
657.916	269.82
658.108	292.35
658.3	224.76
658.492	255.48
658.684	192
658.876	230.91
659.068	130.56
659.26	124.41
659.452	73.21
659.644	310.78
659.836	364.03
660.028	165.37
660.22	161.28
660.412	175.61
660.604	136.7
660.796	204.28
660.988	206.33
661.18	220.67
661.372	243.2
661.563	148.99
661.755	216.57
661.947	91.65
662.139	198.14
662.331	208.38
662.522	108.03
662.714	101.89
662.906	122.37
663.097	179.71
663.289	36.35
663.481	52.74
663.673	128.51
663.864	173.57
664.056	163.33
664.247	110.08
664.439	200.19
664.631	148.99
664.822	214.52
665.014	85.5
665.205	130.56
665.397	157.18
665.588	81.41
665.78	112.13
665.971	278.01
666.163	101.89
666.354	177.66
666.546	67.07
666.737	71.17
666.929	89.6
667.12	85.5
667.311	169.47
667.503	87.55
667.694	185.85
667.885	136.7
668.077	165.37
668.268	38.4
668.459	200.19
668.651	69.12
668.842	32.26
669.033	81.41
669.224	11.78
669.416	267.77
669.607	58.88
669.798	-6.66
669.989	237.05
670.18	142.85
670.371	198.14
670.563	24.06
670.754	148.99
670.945	148.99
671.136	222.72
671.327	24.06
671.518	136.7
671.709	275.96
671.9	157.18
672.091	169.47
672.282	136.7
672.473	54.78
672.664	75.26
672.855	118.27
673.046	167.42
673.237	226.81
673.428	136.7
673.619	122.37
673.809	85.5
674	235
674.191	232.96
674.382	97.79
674.573	112.13
674.764	118.27
674.954	192
675.145	50.69
675.336	67.07
675.527	177.66
675.717	126.46
675.908	165.37
676.099	124.41
676.289	208.38
676.48	130.56
676.671	261.63
676.861	183.81
677.052	91.65
677.243	134.65
677.433	134.65
677.624	105.98
677.814	155.13
678.005	69.12
678.195	239.1
678.386	75.26
678.576	110.08
678.767	85.5
678.957	85.5
679.148	192
679.338	239.1
679.529	284.16
679.719	183.81
679.909	196.09
680.1	296.44
680.29	151.04
680.481	75.26
680.671	200.19
680.861	251.39
681.052	187.9
681.242	83.45
681.432	226.81
681.622	232.96
681.813	132.61
682.003	173.57
682.193	185.85
682.383	196.09
682.573	110.08
682.764	183.81
682.954	218.62
683.144	310.78
683.334	210.43
683.524	239.1
683.714	204.28
683.904	249.34
684.094	138.75
684.284	255.48
684.474	335.35
684.664	235
684.854	183.81
685.044	239.1
685.234	249.34
685.424	177.66
685.614	261.63
685.804	353.79
685.994	292.35
686.184	196.09
686.374	255.48
686.564	189.95
686.753	249.34
686.943	116.22
687.133	210.43
687.323	179.71
687.513	259.58
687.702	237.05
687.892	175.61
688.082	409.08
688.272	288.25
688.461	165.37
688.651	337.4
688.841	257.53
689.03	128.51
689.22	255.48
689.41	288.25
689.599	226.81
689.789	198.14
689.979	292.35
690.168	232.96
690.358	304.64
690.547	271.87
690.737	290.3
690.926	237.05
691.116	294.4
691.305	263.68
691.495	316.92
691.684	167.42
691.874	173.57
692.063	194.05
692.252	298.49
692.442	284.16
692.631	130.56
692.82	198.14
693.01	278.01
693.199	196.09
693.388	220.67
693.578	239.1
693.767	245.24
693.956	239.1
694.146	226.81
694.335	179.71
694.524	210.43
694.713	321.02
694.902	165.37
695.092	204.28
695.281	218.62
695.47	206.33
695.659	210.43
695.848	192
696.037	116.22
696.226	288.25
696.415	200.19
696.604	325.12
696.793	208.38
696.982	173.57
697.171	347.64
697.36	155.13
697.549	216.57
697.738	85.5
697.927	222.72
698.116	93.69
698.305	280.06
698.494	253.44
698.683	128.51
698.872	296.44
699.061	257.53
699.25	216.57
699.438	153.09
699.627	161.28
699.816	400.89
700.005	128.51
700.193	179.71
700.382	271.87
700.571	198.14
700.76	142.85
700.948	245.24
701.137	239.1
701.326	151.04
701.514	181.76
701.703	247.29
701.892	163.33
702.08	341.5
702.269	189.95
702.457	116.22
702.646	245.24
702.834	275.96
703.023	280.06
703.212	226.81
703.4	273.92
703.589	132.61
703.777	159.23
703.965	91.65
704.154	118.27
704.342	108.03
704.531	130.56
704.719	323.07
704.907	241.15
705.096	108.03
705.284	214.52
705.472	243.2
705.661	235
705.849	200.19
706.037	243.2
706.226	202.24
706.414	165.37
706.602	128.51
706.79	161.28
706.979	126.46
707.167	194.05
707.355	40.45
707.543	255.48
707.731	179.71
707.919	200.19
708.107	222.72
708.296	153.09
708.484	54.78
708.672	255.48
708.86	218.62
709.048	206.33
709.236	157.18
709.424	157.18
709.612	196.09
709.8	108.03
709.988	202.24
710.176	220.67
710.364	171.52
710.551	151.04
710.739	110.08
710.927	83.45
711.115	224.76
711.303	292.35
711.491	251.39
711.679	169.47
711.866	304.64
712.054	148.99
712.242	228.86
712.43	232.96
712.617	239.1
712.805	212.48
712.993	167.42
713.181	67.07
713.368	226.81
713.556	208.38
713.744	214.52
713.931	269.82
714.119	263.68
714.306	171.52
714.494	198.14
714.682	204.28
714.869	173.57
715.057	200.19
715.244	101.89
715.432	200.19
715.619	167.42
715.807	183.81
715.994	157.18
716.182	153.09
716.369	249.34
716.556	202.24
716.744	161.28
716.931	157.18
717.119	187.9
717.306	210.43
717.493	265.72
717.681	155.13
717.868	159.23
718.055	222.72
718.242	130.56
718.43	263.68
718.617	284.16
718.804	218.62
718.991	261.63
719.179	181.76
719.366	257.53
719.553	251.39
719.74	179.71
719.927	284.16
720.114	267.77
720.301	122.37
720.488	230.91
720.676	218.62
720.863	339.45
721.05	359.93
721.237	243.2
721.424	232.96
721.611	204.28
721.798	79.36
721.985	212.48
722.172	237.05
722.358	206.33
722.545	355.83
722.732	237.05
722.919	349.69
723.106	212.48
723.293	235
723.48	263.68
723.667	136.7
723.853	306.68
724.04	228.86
724.227	323.07
724.414	165.37
724.6	306.68
724.787	343.55
724.974	425.47
725.161	259.58
725.347	214.52
725.534	251.39
725.72	357.88
725.907	298.49
726.094	361.98
726.28	212.48
726.467	235
726.653	183.81
726.84	318.97
727.027	409.08
727.213	228.86
727.4	294.4
727.586	323.07
727.773	253.44
727.959	235
728.145	235
728.332	263.68
728.518	249.34
728.705	253.44
728.891	210.43
729.077	265.72
729.264	130.56
729.45	198.14
729.636	325.12
729.823	218.62
730.009	271.87
730.195	284.16
730.382	316.92
730.568	226.81
730.754	384.51
730.94	179.71
731.126	341.5
731.313	382.46
731.499	257.53
731.685	411.13
731.871	351.74
732.057	249.34
732.243	339.45
732.429	331.26
732.615	394.75
732.801	341.5
732.987	273.92
733.173	220.67
733.359	267.77
733.545	273.92
733.731	327.16
733.917	347.64
734.103	232.96
734.289	345.59
734.475	294.4
734.661	423.42
734.847	306.68
735.033	298.49
735.219	325.12
735.404	235
735.59	292.35
735.776	280.06
735.962	222.72
736.148	306.68
736.333	386.55
736.519	202.24
736.705	273.92
736.89	368.12
737.076	304.64
737.262	222.72
737.447	275.96
737.633	230.91
737.819	402.94
738.004	187.9
738.19	331.26
738.375	335.35
738.561	335.35
738.747	306.68
738.932	230.91
739.118	411.13
739.303	417.27
739.489	345.59
739.674	271.87
739.859	259.58
740.045	400.89
740.23	232.96
740.416	167.42
740.601	321.02
740.786	280.06
740.972	323.07
741.157	271.87
741.342	194.05
741.528	220.67
741.713	380.41
741.898	267.77
742.084	329.21
742.269	325.12
742.454	357.88
742.639	366.07
742.824	302.59
743.01	480.76
743.195	480.76
743.38	347.64
743.565	263.68
743.75	329.21
743.935	413.18
744.12	398.84
744.305	255.48
744.49	265.72
744.675	271.87
744.86	312.83
745.045	306.68
745.23	339.45
745.415	259.58
745.6	366.07
745.785	275.96
745.97	341.5
746.155	333.31
746.34	349.69
746.525	318.97
746.71	376.31
746.895	177.66
747.079	206.33
747.264	288.25
747.449	359.93
747.634	308.73
747.819	316.92
748.003	237.05
748.188	163.33
748.373	269.82
748.557	327.16
748.742	282.11
748.927	265.72
749.111	230.91
749.296	271.87
749.481	286.2
749.665	243.2
749.85	210.43
750.034	243.2
750.219	241.15
750.404	321.02
750.588	312.83
750.773	181.76
750.957	325.12
751.141	224.76
751.326	290.3
751.51	153.09
751.695	210.43
751.879	241.15
752.064	364.03
752.248	218.62
752.432	380.41
752.617	288.25
752.801	312.83
752.985	187.9
753.17	325.12
753.354	251.39
753.538	230.91
753.722	134.65
753.907	226.81
754.091	226.81
754.275	298.49
754.459	151.04
754.643	144.89
754.828	282.11
755.012	196.09
755.196	91.65
755.38	202.24
755.564	155.13
755.748	267.77
755.932	249.34
756.116	253.44
756.3	165.37
756.484	132.61
756.668	208.38
756.852	132.61
757.036	177.66
757.22	138.75
757.404	58.88
757.588	194.05
757.772	237.05
757.956	202.24
758.14	335.35
758.323	144.89
758.507	220.67
758.691	157.18
758.875	214.52
759.059	269.82
759.242	91.65
759.426	126.46
759.61	192
759.794	146.94
759.977	185.85
760.161	376.31
760.345	314.88
760.528	232.96
760.712	196.09
760.895	159.23
761.079	148.99
761.263	5.63
761.446	132.61
761.63	212.48
761.813	208.38
761.997	7.68
762.18	228.86
762.364	224.76
762.547	9.73
762.731	99.84
762.914	151.04
763.098	146.94
763.281	79.36
763.464	85.5
763.648	120.32
763.831	101.89
764.015	56.83
764.198	210.43
764.381	136.7
764.564	161.28
764.748	155.13
764.931	140.8
765.114	126.46
765.297	138.75
765.481	89.6
765.664	114.17
765.847	151.04
766.03	183.81
766.213	65.02
766.397	124.41
766.58	40.45
766.763	165.37
766.946	167.42
767.129	97.79
767.312	165.37
767.495	99.84
767.678	71.17
767.861	142.85
768.044	75.26
768.227	95.74
768.41	161.28
768.593	146.94
768.776	116.22
768.959	93.69
769.142	204.28
769.324	13.82
769.507	83.45
769.69	62.98
769.873	15.87
770.056	271.87
770.239	155.13
770.421	153.09
770.604	194.05
770.787	34.3
770.97	181.76
771.152	-10.75
771.335	108.03
771.518	19.97
771.7	194.05
771.883	226.81
772.066	116.22
772.248	93.69
772.431	151.04
772.613	71.17
772.796	87.55
772.978	163.33
773.161	185.85
773.343	79.36
773.526	-72.19
773.708	-18.94
773.891	40.45
774.073	97.79
774.256	-4.61
774.438	183.81
774.621	36.35
774.803	99.84
774.985	58.88
775.168	134.65
775.35	124.41
775.532	142.85
775.715	24.06
775.897	122.37
776.079	28.16
776.261	60.93
776.444	112.13
776.626	46.59
776.808	110.08
776.99	-29.18
777.173	85.5
777.355	75.26
777.537	52.74
777.719	75.26
777.901	36.35
778.083	62.98
778.265	62.98
778.447	140.8
778.629	15.87
778.811	165.37
778.993	89.6
779.175	48.64
779.357	75.26
779.539	65.02
779.721	48.64
779.903	130.56
780.085	-33.28
780.267	32.26
780.449	122.37
780.631	124.41
780.812	95.74
780.994	79.36
781.176	32.26
781.358	32.26
781.54	7.68
781.721	151.04
781.903	151.04
782.085	-10.75
782.267	132.61
782.448	-20.99
782.63	101.89
782.812	58.88
782.993	167.42
783.175	128.51
783.357	15.87
783.538	85.5
783.72	22.02
783.901	9.73
784.083	93.69
784.264	69.12
784.446	-51.71
784.627	-33.28
784.809	108.03
784.99	1.54
785.172	101.89
785.353	17.92
785.535	46.59
785.716	-51.71
785.897	-25.09
786.079	69.12
786.26	95.74
786.441	85.5
786.623	-55.81
786.804	7.68
786.985	50.69
787.167	34.3
787.348	9.73
787.529	48.64
787.71	126.46
787.891	17.92
788.073	5.63
788.254	-51.71
788.435	202.24
788.616	7.68
788.797	-27.14
788.978	5.63
789.159	9.73
789.34	73.21
789.522	-45.57
789.703	1.54
789.884	22.02
790.065	58.88
790.246	165.37
790.427	-12.8
790.607	157.18
790.788	48.64
790.969	17.92
791.15	73.21
791.331	22.02
791.512	-33.28
791.693	-16.9
791.874	13.82
792.054	177.66
792.235	136.7
792.416	-96.77
792.597	73.21
792.778	122.37
792.958	62.98
793.139	56.83
793.32	87.55
793.5	-57.86
793.681	153.09
793.862	15.87
794.042	26.11
794.223	-25.09
794.404	-4.61
794.584	-37.38
794.765	46.59
794.945	77.31
795.126	124.41
795.306	87.55
795.487	-53.76
795.667	11.78
795.848	69.12
796.028	50.69
796.209	67.07
796.389	118.27
796.57	-6.66
796.75	-64
796.93	-59.9
797.111	-64
797.291	-12.8
797.471	138.75
797.652	52.74
797.832	-76.29
798.012	87.55
798.192	-45.57
798.373	-59.9
798.553	105.98
798.733	11.78
798.913	-74.24
799.093	83.45
799.274	-41.47
799.454	89.6
799.634	48.64
799.814	73.21
799.994	-27.14
800.174	-16.9
800.354	40.45
800.534	-156.16
800.714	44.54
800.894	-27.14
801.074	-68.09
801.254	11.78
801.434	134.65
801.614	-18.94
801.794	-51.71
801.974	1861.09
802.154	-39.42
802.334	62.98
802.514	-74.24
802.693	-96.77
802.873	-47.62
803.053	108.03
803.233	32.26
803.413	1.54
803.592	3.58
803.772	-33.28
803.952	7.68
804.131	-125.44
804.311	173.57
804.491	91.65
804.67	-88.57
804.85	-76.29
805.03	56.83
805.209	60.93
805.389	-33.28
805.568	46.59
805.748	58.88
805.928	15.87
806.107	95.74
806.287	38.4
806.466	32.26
806.646	19.97
806.825	62.98
807.004	17.92
807.184	19.97
807.363	50.69
807.543	19.97
807.722	-41.47
807.901	58.88
808.081	93.69
808.26	-133.63
808.439	75.26
808.619	83.45
808.798	-78.33
808.977	36.35
809.156	97.79
809.336	48.64
809.515	50.69
809.694	-84.48
809.873	38.4
810.052	-25.09
810.231	75.26
810.411	-2.56
810.59	75.26
810.769	22.02
810.948	95.74
811.127	-68.09
811.306	-88.57
811.485	-2.56
811.664	103.93
811.843	-45.57
812.022	60.93
812.201	-70.14
812.38	-31.23
812.559	32.26
812.737	114.17
812.916	-16.9
813.095	-27.14
813.274	26.11
813.453	13.82
813.632	13.82
813.811	38.4
813.989	-131.58
814.168	-14.85
814.347	-0.51
814.526	-2.56
814.704	155.13
814.883	73.21
815.062	-59.9
815.24	87.55
815.419	1.54
815.598	32.26
815.776	-66.05
815.955	32.26
816.133	-115.2
816.312	3.58
816.49	34.3
816.669	1.54
816.847	62.98
817.026	-6.66
817.204	5.63
817.383	15.87
817.561	-18.94
817.74	-12.8
817.918	46.59
818.097	-35.33
818.275	-72.19
818.453	34.3
818.632	15.87
818.81	-82.43
818.988	-84.48
819.167	-29.18
819.345	50.69
819.523	-78.33
819.701	67.07
819.879	85.5
820.058	17.92
820.236	1.54
820.414	3.58
820.592	7.68
820.77	-51.71
820.948	-43.52
821.127	-115.2
821.305	7.68
821.483	-4.61
821.661	71.17
821.839	89.6
822.017	-107.01
822.195	-12.8
822.373	26.11
822.551	1.54
822.729	67.07
822.907	-6.66
823.085	32.26
823.262	3.58
823.44	3.58
823.618	-49.66
823.796	32.26
823.974	-98.81
824.152	-20.99
824.329	-18.94
824.507	-0.51
824.685	71.17
824.863	-51.71
825.04	-16.9
825.218	-12.8
825.396	-35.33
825.574	46.59
825.751	-33.28
825.929	24.06
826.107	-45.57
826.284	-23.04
826.462	48.64
826.639	-10.75
826.817	-41.47
826.994	-16.9
827.172	-39.42
827.349	97.79
827.527	65.02
827.704	26.11
827.882	122.37
828.059	65.02
828.237	-12.8
828.414	48.64
828.591	-115.2
828.769	1.54
828.946	-10.75
829.124	79.36
829.301	56.83
829.478	24.06
829.655	-14.85
829.833	-43.52
830.01	-94.72
830.187	62.98
830.364	17.92
830.542	-29.18
830.719	77.31
830.896	13.82
831.073	-37.38
831.25	69.12
831.427	81.41
831.604	-0.51
831.782	-16.9
831.959	71.17
832.136	116.22
832.313	71.17
832.49	-43.52
832.667	-0.51
832.844	-84.48
833.021	163.33
833.198	-20.99
833.374	48.64
833.551	40.45
833.728	-64
833.905	110.08
834.082	-64
834.259	32.26
834.436	146.94
834.612	-55.81
834.789	34.3
834.966	38.4
835.143	19.97
835.319	-14.85
835.496	48.64
835.673	83.45
835.85	40.45
836.026	30.21
836.203	91.65
836.38	-70.14
836.556	-94.72
836.733	-51.71
836.909	99.84
837.086	9.73
837.262	-119.29
837.439	-31.23
837.616	-90.62
837.792	54.78
837.968	126.46
838.145	-66.05
838.321	-31.23
838.498	19.97
838.674	36.35
838.851	67.07
839.027	-18.94
839.203	30.21
839.38	65.02
839.556	1.54
839.732	95.74
839.909	56.83
840.085	9.73
840.261	-109.05
840.437	126.46
840.614	1.54
840.79	24.06
840.966	75.26
841.142	7.68
841.318	-31.23
841.494	32.26
841.671	48.64
841.847	-39.42
842.023	-80.38
842.199	9.73
842.375	142.85
842.551	-59.9
842.727	-43.52
842.903	22.02
843.079	-111.1
843.255	42.5
843.431	-14.85
843.607	30.21
843.783	-100.86
843.959	-12.8
844.134	-61.95
844.31	58.88
844.486	-41.47
844.662	-29.18
844.838	-4.61
845.013	30.21
845.189	-8.7
845.365	11.78
845.541	30.21
845.716	15.87
845.892	79.36
846.068	-68.09
846.244	-39.42
846.419	79.36
846.595	-35.33
846.77	-66.05
846.946	50.69
847.122	17.92
847.297	-20.99
847.473	118.27
847.648	-76.29
847.824	-10.75
847.999	-104.96
848.175	-113.15
848.35	54.78
848.526	87.55
848.701	54.78
848.876	38.4
849.052	110.08
849.227	-59.9
849.403	-37.38
849.578	24.06
849.753	3.58
849.929	26.11
850.104	-12.8
850.279	-27.14
850.454	15.87
850.63	95.74
850.805	22.02
850.98	-18.94
851.155	-55.81
851.33	7.68
851.505	-64
851.681	77.31
851.856	-33.28
852.031	-20.99
852.206	26.11
852.381	-55.81
852.556	-68.09
852.731	108.03
852.906	75.26
853.081	40.45
853.256	58.88
853.431	-12.8
853.606	-72.19
853.781	-47.62
853.956	-133.63
854.131	46.59
854.305	-80.38
854.48	13.82
854.655	-27.14
854.83	38.4
855.005	-27.14
855.18	9.73
855.354	13.82
855.529	-39.42
855.704	5.63
855.879	73.21
856.053	-70.14
856.228	79.36
856.403	-0.51
856.577	50.69
856.752	-98.81
856.926	-12.8
857.101	-23.04
857.276	-104.96
857.45	-18.94
857.625	114.17
857.799	83.45
857.974	60.93
858.148	-88.57
858.323	11.78
858.497	-47.62
858.672	-49.66
858.846	-61.95
859.02	34.3
859.195	-72.19
859.369	30.21
859.543	30.21
859.718	-20.99
859.892	44.54
860.066	-25.09
860.241	13.82
860.415	-72.19
860.589	-14.85
860.763	24.06
860.938	-27.14
861.112	9.73
861.286	-49.66
861.46	22.02
861.634	-16.9
861.808	58.88
861.982	-45.57
862.157	-80.38
862.331	-123.39
862.505	-39.42
862.679	-78.33
862.853	-94.72
863.027	-33.28
863.201	122.37
863.375	30.21
863.549	114.17
863.722	-6.66
863.896	48.64
864.07	-86.53
864.244	-43.52
864.418	44.54
864.592	-18.94
864.766	-43.52
864.939	-35.33
865.113	-102.91
865.287	30.21
865.461	1.54
865.634	93.69
865.808	-0.51
865.982	-66.05
866.156	-47.62
866.329	-70.14
866.503	103.93
866.676	95.74
866.85	-31.23
867.024	-47.62
867.197	34.3
867.371	103.93
867.544	87.55
867.718	-168.45
867.891	89.6
868.065	-127.49
868.238	-18.94
868.412	42.5
868.585	-39.42
868.759	-18.94
868.932	-6.66
869.105	-78.33
869.279	34.3
869.452	-74.24
869.625	-8.7
869.799	-12.8
869.972	-111.1
870.145	-96.77
870.319	24.06
870.492	-61.95
870.665	56.83
870.838	-98.81
871.011	-86.53
871.185	-45.57
871.358	-66.05
871.531	15.87
871.704	-45.57
871.877	-41.47
872.05	-2.56
872.223	-143.87
872.396	81.41
872.569	30.21
872.742	-82.43
872.915	95.74
873.088	-8.7
873.261	-123.39
873.434	56.83
873.607	-66.05
873.78	56.83
873.953	-53.76
874.126	-18.94
874.299	-18.94
874.471	-94.72
874.644	-27.14
874.817	-10.75
874.99	81.41
875.163	5.63
875.335	-70.14
875.508	-35.33
875.681	118.27
875.853	-88.57
876.026	-47.62
876.199	48.64
876.371	65.02
876.544	-20.99
876.717	38.4
876.889	-66.05
877.062	-25.09
877.234	-74.24
877.407	-98.81
877.579	-39.42
877.752	42.5
877.924	69.12
878.097	-8.7
878.269	44.54
878.442	9.73
878.614	67.07
878.786	-8.7
878.959	26.11
879.131	7.68
879.303	-121.34
879.476	30.21
879.648	40.45
879.82	73.21
879.993	-10.75
880.165	7.68
880.337	-131.58
880.509	-4.61
880.681	-100.86
880.854	-16.9
881.026	-31.23
881.198	126.46
881.37	-16.9
881.542	-72.19
881.714	-51.71
881.886	-51.71
882.058	-41.47
882.23	-41.47
882.402	-74.24
882.574	17.92
882.746	75.26
882.918	81.41
883.09	-23.04
883.262	-47.62
883.434	-49.66
883.606	-147.97
883.778	-80.38
883.95	108.03
884.122	-23.04
884.293	50.69
884.465	-10.75
884.637	81.41
884.809	-35.33
884.98	-70.14
885.152	-45.57
885.324	-78.33
885.496	-76.29
885.667	-57.86
885.839	-14.85
886.011	46.59
886.182	22.02
886.354	-4.61
886.525	1.54
886.697	22.02
886.869	-72.19
887.04	17.92
887.212	124.41
887.383	52.74
887.555	-16.9
887.726	-160.25
887.897	-49.66
888.069	28.16
888.24	24.06
888.412	-35.33
888.583	-37.38
888.754	-45.57
888.926	-88.57
889.097	-37.38
889.268	-133.63
889.44	9.73
889.611	-23.04
889.782	-104.96
889.953	-82.43
890.125	114.17
890.296	-84.48
890.467	-12.8
890.638	-10.75
890.809	-68.09
890.98	-16.9
891.151	-6.66
891.323	34.3
891.494	-18.94
891.665	-78.33
891.836	-14.85
892.007	-10.75
892.178	38.4
892.349	36.35
892.52	24.06
892.691	3.58
892.862	-35.33
893.032	-31.23
893.203	-29.18
893.374	-35.33
893.545	140.8
893.716	-31.23
893.887	19.97
894.057	-72.19
894.228	95.74
894.399	-78.33
894.57	120.32
894.74	-23.04
894.911	28.16
895.082	-18.94
895.253	-160.25
895.423	11.78
895.594	30.21
895.764	28.16
895.935	-107.01
896.106	24.06
896.276	-45.57
896.447	-29.18
896.617	-41.47
896.788	-35.33
896.958	-94.72
897.129	-47.62
897.299	-57.86
897.47	-0.51
897.64	62.98
897.81	-0.51
897.981	-23.04
898.151	-6.66
898.322	36.35
898.492	65.02
898.662	-78.33
898.832	-102.91
899.003	-57.86
899.173	3.58
899.343	-72.19
899.513	-59.9
