Data from USB4F104151__32__10-24-29-040.txt Node

Date: Wed Feb 26 10:24:29 EST 2025
User: louis
Spectrometer: USB4F10415
Trigger mode: 4
Integration Time (sec): 1.000000E-1
Scans to average: 1
Electric dark correction enabled: true
Nonlinearity correction enabled: false
Boxcar width: 0
XAxis mode: Wavelengths
Number of Pixels in Spectrum: 3648
>>>>>Begin Spectral Data<<<<<
178.204	-433.32
178.424	-433.32
178.644	-433.32
178.864	-367.78
179.084	-363.69
179.304	13.14
179.524	7
179.744	-17.58
179.964	56.15
180.184	72.53
180.404	7
180.624	0.85
180.844	-11.43
181.064	-122.02
181.283	25.43
181.503	-95.4
181.723	64.34
181.943	-62.63
182.163	254.8
182.383	-33.96
182.602	78.68
182.822	119.64
183.042	41.81
183.262	7
183.482	15.19
183.701	0.85
183.921	66.39
184.141	45.91
184.361	101.2
184.58	9.05
184.8	80.72
185.02	-31.91
185.239	111.44
185.459	29.52
185.679	76.63
185.898	17.24
186.118	62.29
186.338	90.96
186.557	95.06
186.777	-58.54
186.997	21.33
187.216	9.05
187.436	174.93
187.655	105.3
187.875	93.01
188.095	47.96
188.314	74.58
188.534	105.3
188.753	50
188.973	156.5
189.192	168.79
189.412	27.48
189.631	15.19
189.851	68.44
190.07	105.3
190.29	-60.59
190.509	47.96
190.729	115.54
190.948	117.59
191.168	258.9
191.387	125.78
191.607	17.24
191.826	76.63
192.045	47.96
192.265	39.76
192.484	-3.24
192.704	45.91
192.923	-40.11
193.142	152.4
193.362	144.21
193.581	176.98
193.8	25.43
194.02	154.45
194.239	115.54
194.458	64.34
194.678	21.33
194.897	76.63
195.116	62.29
195.335	68.44
195.555	43.86
195.774	17.24
195.993	138.07
196.212	39.76
196.432	17.24
196.651	-7.34
196.87	19.29
197.089	258.9
197.308	82.77
197.528	66.39
197.747	11.09
197.966	115.54
198.185	56.15
198.404	-50.35
198.623	86.87
198.842	101.2
199.062	80.72
199.281	140.12
199.5	82.77
199.719	50
199.938	47.96
200.157	31.57
200.376	129.88
200.595	90.96
200.814	31.57
201.033	9.05
201.252	203.6
201.471	148.31
201.69	117.59
201.909	39.76
202.128	103.25
202.347	41.81
202.566	72.53
202.785	56.15
203.004	7
203.223	201.55
203.442	13.14
203.661	-48.3
203.879	45.91
204.098	80.72
204.317	17.24
204.536	129.88
204.755	68.44
204.974	72.53
205.193	43.86
205.411	133.97
205.63	68.44
205.849	62.29
206.068	45.91
206.287	-83.11
206.505	125.78
206.724	35.67
206.943	-1.19
207.162	13.14
207.381	21.33
207.599	-38.06
207.818	45.91
208.037	11.09
208.255	78.68
208.474	105.3
208.693	35.67
208.911	21.33
209.13	101.2
209.349	90.96
209.567	174.93
209.786	111.44
210.005	119.64
210.223	70.48
210.442	-89.26
210.661	43.86
210.879	2.9
211.098	19.29
211.316	76.63
211.535	88.92
211.753	31.57
211.972	72.53
212.191	-21.67
212.409	-17.58
212.628	97.11
212.846	-42.15
213.065	72.53
213.283	174.93
213.502	37.72
213.72	11.09
213.938	-11.43
214.157	33.62
214.375	99.16
214.594	9.05
214.812	93.01
215.031	37.72
215.249	123.73
215.467	64.34
215.686	68.44
215.904	35.67
216.122	31.57
216.341	174.93
216.559	76.63
216.778	43.86
216.996	95.06
217.214	9.05
217.432	-64.68
217.651	-52.39
217.869	47.96
218.087	82.77
218.306	4.95
218.524	101.2
218.742	-40.11
218.96	117.59
219.179	-3.24
219.397	43.86
219.615	144.21
219.833	150.36
220.051	-62.63
220.27	97.11
220.488	88.92
220.706	76.63
220.924	9.05
221.142	-27.82
221.36	47.96
221.578	99.16
221.796	25.43
222.015	2.9
222.233	209.75
222.451	105.3
222.669	-27.82
222.887	105.3
223.105	-1.19
223.323	43.86
223.541	-21.67
223.759	76.63
223.977	64.34
224.195	244.56
224.413	111.44
224.631	2.9
224.849	62.29
225.067	205.65
225.285	-48.3
225.503	7
225.721	0.85
225.939	-23.72
226.157	-17.58
226.375	150.36
226.592	-13.48
226.81	95.06
227.028	95.06
227.246	76.63
227.464	76.63
227.682	97.11
227.9	101.2
228.117	19.29
228.335	95.06
228.553	52.05
228.771	90.96
228.989	33.62
229.206	45.91
229.424	39.76
229.642	-29.87
229.86	-60.59
230.077	99.16
230.295	29.52
230.513	127.83
230.731	70.48
230.948	144.21
231.166	70.48
231.384	4.95
231.601	-38.06
231.819	176.98
232.037	29.52
232.254	-91.31
232.472	35.67
232.689	109.4
232.907	133.97
233.125	21.33
233.342	-70.83
233.56	-5.29
233.777	-23.72
233.995	35.67
234.213	148.31
234.43	138.07
234.648	-17.58
234.865	17.24
235.083	25.43
235.3	107.35
235.518	90.96
235.735	131.92
235.953	154.45
236.17	117.59
236.388	23.38
236.605	23.38
236.822	107.35
237.04	62.29
237.257	54.1
237.475	-48.3
237.692	125.78
237.909	113.49
238.127	-17.58
238.344	21.33
238.562	41.81
238.779	-48.3
238.996	23.38
239.214	23.38
239.431	76.63
239.648	23.38
239.865	93.01
240.083	109.4
240.3	41.81
240.517	-17.58
240.735	-9.39
240.952	93.01
241.169	27.48
241.386	113.49
241.603	31.57
241.821	54.1
242.038	129.88
242.255	47.96
242.472	-44.2
242.689	62.29
242.907	31.57
243.124	25.43
243.341	58.2
243.558	-46.25
243.775	-95.4
243.992	-64.68
244.209	78.68
244.426	193.36
244.643	121.68
244.86	86.87
245.078	152.4
245.295	56.15
245.512	62.29
245.729	-25.77
245.946	64.34
246.163	47.96
246.38	-62.63
246.597	84.82
246.814	78.68
247.031	107.35
247.248	58.2
247.464	115.54
247.681	50
247.898	-7.34
248.115	39.76
248.332	-60.59
248.549	148.31
248.766	197.46
248.983	131.92
249.2	136.02
249.417	86.87
249.633	33.62
249.85	146.26
250.067	50
250.284	23.38
250.501	56.15
250.717	60.24
250.934	-58.54
251.151	109.4
251.368	58.2
251.585	93.01
251.801	45.91
252.018	-81.07
252.235	154.45
252.451	-74.92
252.668	0.85
252.885	156.5
253.102	76.63
253.318	-27.82
253.535	2.9
253.752	9.05
253.968	2.9
254.185	-109.74
254.401	4.95
254.618	115.54
254.835	27.48
255.051	101.2
255.268	82.77
255.484	101.2
255.701	33.62
255.917	21.33
256.134	27.48
256.351	45.91
256.567	-40.11
256.784	35.67
257	-40.11
257.217	76.63
257.433	97.11
257.65	11.09
257.866	152.4
258.082	-66.73
258.299	33.62
258.515	144.21
258.732	-33.96
258.948	-21.67
259.165	31.57
259.381	35.67
259.597	15.19
259.814	119.64
260.03	50
260.246	19.29
260.463	90.96
260.679	90.96
260.895	129.88
261.112	33.62
261.328	-42.15
261.544	-13.48
261.761	222.03
261.977	33.62
262.193	15.19
262.409	103.25
262.626	2.9
262.842	72.53
263.058	-21.67
263.274	136.02
263.49	13.14
263.707	37.72
263.923	47.96
264.139	-15.53
264.355	103.25
264.571	123.73
264.787	64.34
265.004	88.92
265.22	19.29
265.436	0.85
265.652	78.68
265.868	0.85
266.084	-31.91
266.3	70.48
266.516	-13.48
266.732	23.38
266.948	113.49
267.164	13.14
267.38	136.02
267.596	64.34
267.812	68.44
268.028	58.2
268.244	-66.73
268.46	-31.91
268.676	-1.19
268.892	35.67
269.108	-3.24
269.324	-36.01
269.54	-42.15
269.756	133.97
269.972	-42.15
270.188	15.19
270.403	-52.39
270.619	84.82
270.835	9.05
271.051	60.24
271.267	-40.11
271.483	-1.19
271.698	58.2
271.914	136.02
272.13	17.24
272.346	-29.87
272.562	17.24
272.777	179.03
272.993	-19.63
273.209	25.43
273.425	84.82
273.64	-93.35
273.856	82.77
274.072	-9.39
274.287	31.57
274.503	72.53
274.719	50
274.934	-11.43
275.15	-40.11
275.366	74.58
275.581	-11.43
275.797	33.62
276.012	39.76
276.228	-76.97
276.444	76.63
276.659	97.11
276.875	17.24
277.09	41.81
277.306	27.48
277.521	41.81
277.737	56.15
277.952	19.29
278.168	101.2
278.383	74.58
278.599	27.48
278.814	88.92
279.03	39.76
279.245	183.12
279.461	17.24
279.676	185.17
279.892	-9.39
280.107	-23.72
280.322	7
280.538	86.87
280.753	0.85
280.969	119.64
281.184	62.29
281.399	152.4
281.615	37.72
281.83	52.05
282.045	-52.39
282.26	31.57
282.476	84.82
282.691	101.2
282.906	95.06
283.122	82.77
283.337	-38.06
283.552	127.83
283.767	-3.24
283.983	142.16
284.198	39.76
284.413	148.31
284.628	-60.59
284.843	-21.67
285.058	58.2
285.274	-15.53
285.489	4.95
285.704	101.2
285.919	-62.63
286.134	0.85
286.349	33.62
286.564	4.95
286.779	99.16
286.995	41.81
287.21	-27.82
287.425	56.15
287.64	-62.63
287.855	21.33
288.07	-29.87
288.285	101.2
288.5	115.54
288.715	50
288.93	54.1
289.145	-15.53
289.36	113.49
289.575	-3.24
289.79	86.87
290.004	-50.35
290.219	78.68
290.434	21.33
290.649	29.52
290.864	-15.53
291.079	-27.82
291.294	68.44
291.509	19.29
291.724	54.1
291.938	23.38
292.153	-9.39
292.368	33.62
292.583	66.39
292.798	70.48
293.012	15.19
293.227	101.2
293.442	-19.63
293.657	127.83
293.871	107.35
294.086	50
294.301	166.74
294.516	140.12
294.73	-5.29
294.945	-33.96
295.16	-29.87
295.374	144.21
295.589	131.92
295.804	0.85
296.018	15.19
296.233	133.97
296.447	64.34
296.662	-17.58
296.877	80.72
297.091	119.64
297.306	80.72
297.52	23.38
297.735	76.63
297.949	70.48
298.164	13.14
298.378	31.57
298.593	9.05
298.807	-29.87
299.022	82.77
299.236	236.37
299.451	25.43
299.665	35.67
299.88	29.52
300.094	56.15
300.309	23.38
300.523	101.2
300.737	35.67
300.952	74.58
301.166	72.53
301.381	-56.49
301.595	-46.25
301.809	19.29
302.024	31.57
302.238	-74.92
302.452	199.51
302.667	66.39
302.881	193.36
303.095	158.55
303.309	70.48
303.524	-42.15
303.738	-27.82
303.952	-7.34
304.166	103.25
304.381	-97.45
304.595	78.68
304.809	-9.39
305.023	39.76
305.237	-27.82
305.452	19.29
305.666	117.59
305.88	23.38
306.094	70.48
306.308	93.01
306.522	127.83
306.736	70.48
306.95	99.16
307.164	123.73
307.379	-21.67
307.593	154.45
307.807	144.21
308.021	127.83
308.235	88.92
308.449	-36.01
308.663	-5.29
308.877	205.65
309.091	4.95
309.305	103.25
309.519	-93.35
309.733	172.88
309.947	-101.55
310.161	66.39
310.374	158.55
310.588	142.16
310.802	-62.63
311.016	54.1
311.23	-3.24
311.444	74.58
311.658	-9.39
311.872	70.48
312.085	121.68
312.299	115.54
312.513	150.36
312.727	35.67
312.941	-11.43
313.154	11.09
313.368	0.85
313.582	25.43
313.796	7
314.009	80.72
314.223	97.11
314.437	-9.39
314.651	82.77
314.864	13.14
315.078	-19.63
315.292	-13.48
315.505	47.96
315.719	19.29
315.933	68.44
316.146	2.9
316.36	-33.96
316.573	199.51
316.787	74.58
317.001	64.34
317.214	33.62
317.428	21.33
317.641	-27.82
317.855	90.96
318.068	39.76
318.282	17.24
318.495	140.12
318.709	68.44
318.922	-1.19
319.136	131.92
319.349	103.25
319.563	9.05
319.776	119.64
319.99	-85.16
320.203	54.1
320.417	33.62
320.63	88.92
320.843	156.5
321.057	47.96
321.27	35.67
321.483	154.45
321.697	109.4
321.91	54.1
322.124	103.25
322.337	95.06
322.55	-19.63
322.763	60.24
322.977	37.72
323.19	-40.11
323.403	15.19
323.617	35.67
323.83	99.16
324.043	41.81
324.256	-5.29
324.469	-11.43
324.683	109.4
324.896	19.29
325.109	105.3
325.322	-21.67
325.535	174.93
325.748	179.03
325.962	-40.11
326.175	50
326.388	109.4
326.601	76.63
326.814	-21.67
327.027	111.44
327.24	158.55
327.453	-58.54
327.666	-9.39
327.879	97.11
328.092	125.78
328.305	74.58
328.518	4.95
328.731	-3.24
328.944	-42.15
329.157	105.3
329.37	41.81
329.583	162.64
329.796	172.88
330.009	-93.35
330.222	97.11
330.435	125.78
330.648	-21.67
330.861	41.81
331.073	43.86
331.286	140.12
331.499	15.19
331.712	-38.06
331.925	86.87
332.138	113.49
332.35	144.21
332.563	25.43
332.776	93.01
332.989	-36.01
333.202	-33.96
333.414	113.49
333.627	2.9
333.84	31.57
334.053	15.19
334.265	-7.34
334.478	-3.24
334.691	52.05
334.903	80.72
335.116	37.72
335.329	-7.34
335.541	179.03
335.754	170.83
335.966	31.57
336.179	47.96
336.392	-9.39
336.604	41.81
336.817	54.1
337.029	50
337.242	50
337.454	117.59
337.667	78.68
337.88	150.36
338.092	93.01
338.305	82.77
338.517	-38.06
338.729	115.54
338.942	179.03
339.154	-50.35
339.367	-48.3
339.579	84.82
339.792	23.38
340.004	-13.48
340.217	-38.06
340.429	80.72
340.641	58.2
340.854	-62.63
341.066	52.05
341.278	111.44
341.491	193.36
341.703	27.48
341.915	-40.11
342.128	62.29
342.34	119.64
342.552	-81.07
342.764	17.24
342.977	47.96
343.189	140.12
343.401	66.39
343.613	-3.24
343.826	37.72
344.038	64.34
344.25	70.48
344.462	-56.49
344.674	33.62
344.886	68.44
345.099	82.77
345.311	58.2
345.523	-19.63
345.735	-62.63
345.947	29.52
346.159	70.48
346.371	41.81
346.583	-27.82
346.795	226.13
347.007	-17.58
347.219	58.2
347.431	19.29
347.643	179.03
347.855	11.09
348.067	133.97
348.279	-58.54
348.491	58.2
348.703	50
348.915	78.68
349.127	-64.68
349.339	-27.82
349.551	13.14
349.763	9.05
349.975	117.59
350.187	160.59
350.399	99.16
350.61	54.1
350.822	78.68
351.034	111.44
351.246	150.36
351.458	7
351.669	60.24
351.881	93.01
352.093	160.59
352.305	86.87
352.517	68.44
352.728	148.31
352.94	76.63
353.152	58.2
353.363	19.29
353.575	25.43
353.787	131.92
353.999	35.67
354.21	176.98
354.422	-3.24
354.633	15.19
354.845	121.68
355.057	13.14
355.268	-3.24
355.48	84.82
355.692	-50.35
355.903	21.33
356.115	-23.72
356.326	-23.72
356.538	115.54
356.749	119.64
356.961	105.3
357.172	107.35
357.384	45.91
357.595	148.31
357.807	35.67
358.018	17.24
358.23	9.05
358.441	185.17
358.653	33.62
358.864	109.4
359.075	17.24
359.287	13.14
359.498	80.72
359.709	99.16
359.921	76.63
360.132	103.25
360.344	17.24
360.555	-60.59
360.766	27.48
360.977	4.95
361.189	185.17
361.4	-23.72
361.611	95.06
361.823	107.35
362.034	93.01
362.245	-27.82
362.456	23.38
362.667	68.44
362.879	-33.96
363.09	66.39
363.301	95.06
363.512	-3.24
363.723	23.38
363.935	2.9
364.146	95.06
364.357	11.09
364.568	33.62
364.779	56.15
364.99	121.68
365.201	-62.63
365.412	156.5
365.623	-85.16
365.834	113.49
366.045	35.67
366.256	90.96
366.467	162.64
366.678	84.82
366.889	9.05
367.1	-62.63
367.311	197.46
367.522	-21.67
367.733	23.38
367.944	95.06
368.155	21.33
368.366	74.58
368.577	138.07
368.788	176.98
368.999	70.48
369.209	74.58
369.42	179.03
369.631	142.16
369.842	142.16
370.053	54.1
370.264	148.31
370.474	103.25
370.685	37.72
370.896	113.49
371.107	13.14
371.317	15.19
371.528	-15.53
371.739	193.36
371.95	47.96
372.16	84.82
372.371	-50.35
372.582	21.33
372.792	121.68
373.003	13.14
373.214	70.48
373.424	47.96
373.635	-70.83
373.846	154.45
374.056	95.06
374.267	86.87
374.477	17.24
374.688	15.19
374.898	95.06
375.109	64.34
375.319	80.72
375.53	205.65
375.74	47.96
375.951	140.12
376.161	93.01
376.372	138.07
376.582	-17.58
376.793	105.3
377.003	17.24
377.214	41.81
377.424	64.34
377.635	68.44
377.845	-36.01
378.055	80.72
378.266	-31.91
378.476	31.57
378.686	47.96
378.897	45.91
379.107	88.92
379.317	13.14
379.528	-48.3
379.738	54.1
379.948	-62.63
380.158	76.63
380.369	117.59
380.579	74.58
380.789	101.2
380.999	101.2
381.21	142.16
381.42	193.36
381.63	70.48
381.84	140.12
382.05	25.43
382.261	172.88
382.471	154.45
382.681	35.67
382.891	174.93
383.101	80.72
383.311	-9.39
383.521	-3.24
383.731	99.16
383.941	156.5
384.151	47.96
384.361	58.2
384.571	66.39
384.781	52.05
384.991	205.65
385.201	234.32
385.411	54.1
385.621	97.11
385.831	142.16
386.041	13.14
386.251	86.87
386.461	121.68
386.671	29.52
386.881	54.1
387.091	117.59
387.301	78.68
387.511	37.72
387.72	86.87
387.93	101.2
388.14	-36.01
388.35	103.25
388.56	127.83
388.769	138.07
388.979	25.43
389.189	-7.34
389.399	-7.34
389.609	111.44
389.818	115.54
390.028	9.05
390.238	127.83
390.447	27.48
390.657	133.97
390.867	-38.06
391.076	-27.82
391.286	78.68
391.496	31.57
391.705	72.53
391.915	123.73
392.125	129.88
392.334	90.96
392.544	166.74
392.753	-40.11
392.963	17.24
393.172	41.81
393.382	-33.96
393.591	119.64
393.801	47.96
394.01	148.31
394.22	82.77
394.429	25.43
394.639	27.48
394.848	47.96
395.058	86.87
395.267	52.05
395.477	95.06
395.686	93.01
395.895	205.65
396.105	181.07
396.314	125.78
396.524	99.16
396.733	-29.87
396.942	119.64
397.152	138.07
397.361	41.81
397.57	50
397.78	47.96
397.989	78.68
398.198	121.68
398.407	58.2
398.617	109.4
398.826	39.76
399.035	113.49
399.244	148.31
399.453	17.24
399.663	76.63
399.872	90.96
400.081	-3.24
400.29	58.2
400.499	13.14
400.708	90.96
400.917	99.16
401.127	23.38
401.336	29.52
401.545	97.11
401.754	174.93
401.963	74.58
402.172	23.38
402.381	19.29
402.59	54.1
402.799	33.62
403.008	88.92
403.217	133.97
403.426	101.2
403.635	15.19
403.844	27.48
404.053	-3.24
404.262	7
404.471	127.83
404.68	109.4
404.888	54.1
405.097	129.88
405.306	52.05
405.515	74.58
405.724	11.09
405.933	80.72
406.142	-5.29
406.35	176.98
406.559	15.19
406.768	84.82
406.977	199.51
407.185	66.39
407.394	123.73
407.603	-60.59
407.812	33.62
408.02	138.07
408.229	35.67
408.438	60.24
408.646	-99.5
408.855	21.33
409.064	119.64
409.272	31.57
409.481	97.11
409.69	47.96
409.898	-36.01
410.107	99.16
410.315	115.54
410.524	31.57
410.733	13.14
410.941	47.96
411.15	176.98
411.358	109.4
411.567	154.45
411.775	4.95
411.984	105.3
412.192	123.73
412.401	62.29
412.609	82.77
412.818	78.68
413.026	131.92
413.234	121.68
413.443	117.59
413.651	17.24
413.86	54.1
414.068	119.64
414.276	144.21
414.485	111.44
414.693	181.07
414.901	174.93
415.11	131.92
415.318	-21.67
415.526	43.86
415.734	111.44
415.943	144.21
416.151	174.93
416.359	9.05
416.567	105.3
416.776	121.68
416.984	90.96
417.192	193.36
417.4	86.87
417.608	39.76
417.817	-9.39
418.025	133.97
418.233	142.16
418.441	74.58
418.649	-21.67
418.857	64.34
419.065	170.83
419.273	97.11
419.481	84.82
419.689	115.54
419.897	117.59
420.105	-17.58
420.313	80.72
420.521	201.55
420.729	133.97
420.937	39.76
421.145	-3.24
421.353	174.93
421.561	138.07
421.769	11.09
421.977	43.86
422.185	160.59
422.393	21.33
422.601	146.26
422.809	70.48
423.017	58.2
423.224	47.96
423.432	76.63
423.64	72.53
423.848	119.64
424.056	-79.02
424.263	191.31
424.471	11.09
424.679	222.03
424.887	-54.44
425.094	107.35
425.302	99.16
425.51	54.1
425.718	105.3
425.925	54.1
426.133	2.9
426.341	195.41
426.548	93.01
426.756	127.83
426.964	133.97
427.171	54.1
427.379	195.41
427.586	158.55
427.794	60.24
428.001	129.88
428.209	56.15
428.417	213.84
428.624	31.57
428.832	86.87
429.039	127.83
429.247	103.25
429.454	88.92
429.662	197.46
429.869	88.92
430.076	138.07
430.284	136.02
430.491	269.14
430.699	152.4
430.906	205.65
431.114	111.44
431.321	205.65
431.528	84.82
431.736	152.4
431.943	246.61
432.15	136.02
432.358	156.5
432.565	336.72
432.772	9.05
432.979	197.46
433.187	107.35
433.394	185.17
433.601	52.05
433.808	297.81
434.016	156.5
434.223	226.13
434.43	107.35
434.637	234.32
434.844	187.22
435.052	176.98
435.259	246.61
435.466	322.38
435.673	267.09
435.88	328.53
436.087	353.1
436.294	318.29
436.501	295.76
436.708	242.51
436.915	236.37
437.122	322.38
437.329	265.04
437.537	285.52
437.743	416.59
437.95	392.02
438.157	328.53
438.364	351.06
438.571	392.02
438.778	404.3
438.985	430.93
439.192	514.89
439.399	379.73
439.606	506.7
439.813	523.09
440.02	586.57
440.227	645.96
440.433	578.38
440.64	498.51
440.847	504.65
441.054	508.75
441.261	623.44
441.467	617.29
441.674	600.91
441.881	715.59
442.088	605
442.294	666.44
442.501	707.4
442.708	768.84
442.914	777.03
443.121	828.23
443.328	805.71
443.534	848.71
443.741	940.87
443.948	877.38
444.154	981.83
444.361	1080.13
444.568	987.97
444.774	1041.22
444.981	887.62
445.187	1168.2
445.394	1127.24
445.6	1057.61
445.807	1254.21
446.013	1117
446.22	1071.94
446.426	1348.42
446.633	1377.09
446.839	1631.04
447.046	1291.07
447.252	1610.56
447.459	1643.32
447.665	1579.84
447.871	1698.62
448.078	1792.83
448.284	1747.77
448.491	1975.1
448.697	1934.14
448.903	2069.3
449.11	2085.69
449.316	2034.49
449.522	2304.82
449.728	2388.78
449.935	2384.69
450.141	2495.28
450.347	2595.63
450.553	2546.48
450.76	2652.97
450.966	2859.82
451.172	2810.67
451.378	2966.31
451.584	3044.13
451.791	3287.84
451.997	3293.99
452.203	3457.82
452.409	3617.57
452.615	3668.77
452.821	3605.28
453.027	3756.83
453.233	4184.85
453.44	3988.25
453.646	4330.26
453.852	4336.4
454.058	4709.13
454.264	4803.34
454.47	5010.18
454.676	5020.42
454.882	5403.39
455.088	5325.57
455.294	5585.66
455.5	5804.8
455.705	6179.58
455.911	6308.6
456.117	6460.15
456.323	6619.89
456.529	6818.54
456.735	7383.78
456.941	7588.58
457.147	7824.09
457.352	8063.71
457.558	7992.03
457.764	8749.78
457.97	8782.54
458.176	9095.88
458.381	9644.74
458.587	9841.34
458.793	10365.62
458.999	10179.26
459.204	11780.77
459.41	12161.69
459.616	11811.49
459.821	12604.05
460.027	13167.24
460.233	13660.8
460.438	14086.78
460.644	14598.77
460.85	14873.2
461.055	15600.23
461.261	16106.08
461.466	15792.74
461.672	16149.09
461.878	17900.1
462.083	17683.02
462.289	17971.78
462.494	18823.73
462.7	19171.89
462.905	19431.98
463.111	20929.05
463.316	22061.57
463.522	22346.24
463.727	22837.75
463.932	23816.68
464.138	24523.23
464.343	25663.95
464.549	25616.85
464.754	27554.22
464.959	28477.86
465.165	28727.71
465.37	28643.74
465.575	28258.73
465.781	30441.86
465.986	31500.66
466.191	31287.67
466.397	31185.27
466.602	30476.68
466.807	32471.4
467.012	32797.02
467.218	33782.1
467.423	33630.55
467.628	34324.81
467.833	36469.03
468.038	35526.97
468.244	34949.44
468.449	36931.87
468.654	36180.27
468.859	36319.53
469.064	36124.97
469.269	35105.09
469.474	35367.23
469.679	36393.26
469.885	34951.49
470.09	36004.14
470.295	36063.54
470.5	35305.79
470.705	35655.99
470.91	34697.54
471.115	34281.8
471.32	34912.58
471.525	34730.31
471.73	33513.81
471.935	33544.53
472.139	32080.24
472.344	32371.05
472.549	31963.5
472.754	31463.8
472.959	30931.33
473.164	29553.04
473.369	29319.57
473.574	30321.03
473.778	29864.33
473.983	29108.63
474.188	28660.13
474.393	27384.24
474.598	27466.16
474.802	26489.28
475.007	26284.48
475.212	25954.76
475.417	24875.48
475.621	24519.14
475.826	24566.24
476.031	24166.88
476.235	23423.47
476.44	23794.15
476.645	22780.41
476.849	22411.78
477.054	22153.73
477.259	21940.74
477.463	21920.26
477.668	21062.16
477.872	21207.57
478.077	20646.43
478.282	20046.37
478.486	19900.97
478.691	19614.25
478.895	19546.67
479.1	19112.5
479.304	19147.31
479.509	18420.28
479.713	18879.03
479.918	18276.93
480.122	18113.09
480.326	18178.62
480.531	17928.77
480.735	17836.61
480.94	17576.52
481.144	18102.85
481.348	17015.38
481.553	17310.29
481.757	16974.42
481.961	16859.73
482.166	17207.89
482.37	16837.2
482.574	16538.2
482.778	16642.65
482.983	16781.91
483.187	16351.84
483.391	16392.8
483.595	16120.42
483.8	15819.36
484.004	15764.07
484.208	15923.81
484.412	15628.9
484.616	15413.87
484.821	15315.56
485.025	14871.15
485.229	14926.45
485.433	14547.58
485.637	14439.03
485.841	14314.11
486.045	14011.01
486.249	13890.18
486.453	13847.17
486.657	13744.77
486.861	13494.92
487.065	12792.47
487.269	13120.14
487.473	12632.72
487.677	12651.16
487.881	12632.72
488.085	12044.96
488.289	12044.96
488.493	11850.4
488.697	11915.94
488.901	11539.11
489.105	10977.97
489.309	11135.66
489.512	11084.46
489.716	10736.31
489.92	10261.18
490.124	10287.8
490.328	10427.06
490.531	9921.21
490.735	9837.25
490.939	9675.46
491.143	9308.87
491.346	9249.48
491.55	9237.19
491.754	8966.86
491.958	8948.43
492.161	8536.79
492.365	8727.25
492.569	8587.99
492.772	8356.57
492.976	8418
493.18	8037.08
493.383	8145.63
493.587	7951.07
493.79	8022.75
493.994	7512.8
494.197	7781.09
494.401	7733.98
494.605	7699.17
494.808	7635.68
495.012	7523.04
495.215	7330.53
495.419	7308.01
495.622	7099.11
495.825	7127.78
496.029	7127.78
496.232	7258.85
496.436	7158.5
496.639	7086.83
496.843	7047.91
497.046	7164.65
497.249	7535.33
497.453	7170.79
497.656	7013.1
497.859	7054.06
498.063	6988.52
498.266	7023.34
498.469	7185.13
498.673	7045.87
498.876	7242.47
499.079	7250.66
499.282	7480.04
499.485	7531.23
499.689	7457.51
499.892	7480.04
500.095	7373.54
500.298	7543.52
500.501	7484.13
500.705	7545.57
500.908	7676.64
501.111	7637.73
501.314	7879.39
501.517	7801.57
501.72	7897.82
501.923	7901.92
502.126	8092.38
502.329	8209.11
502.532	8303.32
502.735	8137.43
502.938	8477.4
503.141	8553.17
503.344	8375
503.547	8692.43
503.75	8663.76
503.953	8925.9
504.156	9257.67
504.359	9145.03
504.562	8989.39
504.765	9554.63
504.968	9577.16
505.17	9847.49
505.373	9597.63
505.576	10044.09
505.779	10052.28
505.982	10271.42
506.185	10615.48
506.387	10478.26
506.59	10812.08
506.793	10912.43
506.996	11272.87
507.198	11502.25
507.401	11664.04
507.604	11934.37
507.807	11946.66
508.009	12196.51
508.212	12624.53
508.415	12542.61
508.617	12991.12
508.82	13148.81
509.022	13316.75
509.225	13814.4
509.428	13884.03
509.63	14256.76
509.833	14488.18
510.035	15086.19
510.238	14994.03
510.44	15442.54
510.643	15856.23
510.845	16231.01
511.048	16388.7
511.25	16675.41
511.453	17062.48
511.655	18059.84
511.858	17902.15
512.06	18346.56
512.262	18418.24
512.465	18983.48
512.667	19440.17
512.87	19913.25
513.072	20421.15
513.274	20949.53
513.477	21150.23
513.679	21946.89
513.881	22403.58
514.084	22725.11
514.286	23306.74
514.488	23577.07
514.69	24289.76
514.893	24629.73
515.095	25149.91
515.297	25594.32
515.499	26098.12
515.701	26409.41
515.904	27331
516.106	28006.83
516.308	28432.8
516.51	28936.6
516.712	29776.27
516.914	30026.12
517.116	30556.55
517.318	30953.85
517.52	31422.84
517.722	32176.49
517.925	32682.34
518.127	33384.79
518.329	34222.41
518.531	34044.24
518.733	35121.47
518.935	35727.67
519.136	35633.46
519.338	36735.27
519.54	36811.04
519.742	37828.88
519.944	38076.69
520.146	38379.79
520.348	39344.38
520.55	39778.55
520.752	39586.04
520.954	40896.74
521.155	40564.97
521.357	41918.68
521.559	41961.69
521.761	42891.46
521.963	42729.67
522.164	42881.22
522.366	43124.93
522.568	44005.56
522.77	44134.58
522.971	44923.05
523.173	44196.02
523.375	45209.76
523.576	45099.17
523.778	45172.9
523.98	45623.45
524.181	46139.54
524.383	45650.08
524.584	46274.71
524.786	46639.25
524.988	46086.29
525.189	46323.86
525.391	46518.42
525.592	46727.31
525.794	46416.02
525.995	46753.93
526.197	46641.29
526.398	46061.72
526.6	46303.38
526.801	46291.09
527.003	46307.47
527.204	46031
527.406	45987.99
527.607	45682.84
527.808	45596.83
528.01	44482.73
528.211	44822.7
528.412	45156.52
528.614	44783.79
528.815	44062.9
529.016	43976.89
529.218	43301.06
529.419	43339.97
529.62	42877.13
529.822	42342.61
530.023	41906.39
530.224	41271.52
530.425	41335.01
530.626	40499.44
530.828	39995.64
531.029	40386.8
531.23	39614.71
531.431	39106.82
531.632	38633.74
531.833	38453.51
532.035	37452.06
532.236	37421.34
532.437	37124.38
532.638	35873.07
532.839	36079.92
533.04	36174.13
533.241	34953.54
533.442	35158.33
533.643	34195.79
533.844	33638.74
534.045	33536.34
534.246	32239.98
534.447	32391.53
534.648	31859.06
534.849	31498.61
535.05	30706.05
535.251	30695.81
535.451	30513.54
535.652	29774.22
535.853	29522.32
536.054	29495.7
536.255	28756.38
536.456	28316.07
536.657	28141.99
536.857	27693.49
537.058	27185.59
537.259	27167.16
537.46	26591.68
537.66	26071.5
537.861	25995.72
538.062	25739.72
538.263	25303.51
538.463	24879.58
538.664	25051.61
538.865	24281.57
539.065	24224.23
539.266	23622.12
539.466	23620.08
539.667	22944.25
539.868	23239.15
540.068	22622.72
540.269	22395.39
540.469	22368.77
540.67	21768.71
540.87	21522.96
541.071	21129.75
541.271	21479.95
541.472	20877.85
541.672	20701.72
541.873	20535.84
542.073	19855.91
542.274	19821.09
542.474	19606.06
542.675	19325.49
542.875	19472.94
543.075	19139.12
543.276	18563.64
543.476	18819.64
543.676	18565.69
543.877	17959.49
544.077	18029.12
544.277	17928.77
544.478	17371.72
544.678	17728.07
544.878	17140.3
545.078	16951.89
545.279	16820.82
545.479	16429.66
545.679	16599.64
545.879	16079.46
546.079	16022.11
546.28	15897.19
546.48	15919.71
546.68	15929.95
546.88	15393.39
547.08	15305.32
547.28	15018.61
547.48	14826.1
547.68	14774.9
547.88	14310.01
548.081	14353.02
548.281	14094.97
548.481	13888.13
548.681	13888.13
548.881	13591.17
549.081	13435.53
549.28	13120.14
549.48	13152.91
549.68	13054.61
549.88	12892.82
550.08	12294.81
550.28	12270.23
550.48	12452.5
550.68	12173.98
550.88	11608.74
551.08	11920.03
551.279	11864.74
551.479	11365.03
551.679	11319.98
551.879	11059.88
552.079	11014.83
552.278	10959.53
552.478	10896.05
552.678	10556.08
552.878	10486.45
553.077	10103.48
553.277	9697.99
553.477	9843.39
553.676	9667.27
553.876	9497.28
554.076	9335.49
554.275	9298.63
554.475	9091.79
554.674	9276.1
554.874	8862.41
555.074	8610.51
555.273	8549.07
555.473	8442.58
555.672	8100.57
555.872	8172.25
556.071	8129.24
556.271	7983.84
556.47	7914.2
556.67	7527.14
556.869	7557.86
557.068	7281.38
557.268	7303.91
557.467	7299.81
557.667	7248.61
557.866	7170.79
558.065	6812.4
558.265	6705.9
558.464	6607.6
558.663	6634.22
558.863	6372.08
559.062	6472.43
559.261	6208.25
559.461	6126.33
559.66	6005.5
559.859	5851.9
560.058	5798.65
560.258	5714.69
560.457	5581.57
560.656	5620.48
560.855	5378.82
561.054	5581.57
561.253	5243.65
561.453	5290.76
561.652	5182.21
561.851	5241.61
562.05	4918.03
562.249	4739.85
562.448	4952.84
562.647	4682.51
562.846	4770.57
563.045	4651.79
563.244	4530.96
563.443	4631.31
563.642	4283.16
563.841	4326.16
564.04	4440.85
564.239	4307.73
564.438	4168.47
564.637	4055.83
564.836	4131.61
565.035	4041.5
565.234	4008.73
565.432	3887.9
565.631	3851.03
565.83	3803.93
566.029	3658.53
566.228	3779.36
566.427	3683.1
566.625	3607.33
566.824	3627.81
567.023	3537.7
567.222	3470.11
567.42	3375.91
567.619	3224.36
567.818	3334.95
568.016	3353.38
568.215	3226.4
568.414	3277.6
568.612	3187.49
568.811	2982.7
569.01	2925.35
569.208	3035.94
569.407	3064.61
569.605	3111.72
569.804	2876.2
570.002	2753.32
570.201	2757.42
570.4	2773.8
570.598	2655.02
570.797	2679.6
570.995	2655.02
571.193	2513.71
571.392	2624.3
571.59	2425.65
571.789	2530.09
571.987	2495.28
572.186	2468.66
572.384	2206.52
572.582	2403.12
572.781	2442.03
572.979	2114.36
573.177	2224.95
573.376	2233.14
573.574	2218.8
573.772	2065.21
573.971	2097.97
574.169	1979.19
574.367	2138.93
574.565	2014.01
574.763	2001.72
574.962	1934.14
575.16	1915.7
575.358	1872.7
575.556	1907.51
575.754	1913.66
575.952	1833.79
576.151	1878.84
576.349	1831.74
576.547	1735.48
576.745	1706.81
576.943	1698.62
577.141	1635.13
577.339	1575.74
577.537	1571.65
577.735	1559.36
577.933	1647.42
578.131	1454.91
578.329	1710.91
578.527	1418.05
578.725	1502.01
578.923	1315.65
579.121	1502.01
579.319	1248.07
579.516	1297.22
579.714	1577.79
579.912	1413.95
580.11	1233.73
580.308	1264.45
580.506	1256.26
580.704	1061.7
580.901	1205.06
581.099	1405.76
581.297	1207.11
581.495	1223.49
581.692	1162.05
581.89	1268.55
582.088	1237.83
582.285	1213.25
582.483	944.97
582.681	1090.37
582.878	1073.99
583.076	1243.97
583.274	1035.08
583.471	1157.96
583.669	1043.27
583.866	969.54
584.064	959.3
584.262	875.34
584.459	897.86
584.657	938.82
584.854	985.93
585.052	934.73
585.249	1026.89
585.447	867.14
585.644	848.71
585.841	940.87
586.039	959.3
586.236	897.86
586.434	793.42
586.631	762.7
586.828	742.22
587.026	752.46
587.223	719.69
587.42	697.16
587.618	867.14
587.815	836.42
588.012	744.27
588.21	686.92
588.407	811.85
588.604	738.12
588.801	774.99
588.999	734.03
589.196	785.23
589.393	633.68
589.59	787.27
589.787	803.66
589.984	738.12
590.182	740.17
590.379	684.87
590.576	623.44
590.773	752.46
590.97	621.39
591.167	779.08
591.364	744.27
591.561	637.77
591.758	703.31
591.955	742.22
592.152	613.2
592.349	621.39
592.546	658.25
592.743	549.71
592.94	586.57
593.137	717.64
593.334	736.07
593.531	770.89
593.727	770.89
593.924	633.68
594.121	617.29
594.318	562
594.515	699.21
594.712	842.57
594.908	795.47
595.105	437.07
595.302	777.03
595.499	713.55
595.696	779.08
595.892	742.22
596.089	897.86
596.286	760.65
596.482	955.21
596.679	867.14
596.876	758.6
597.072	846.66
597.269	774.99
597.466	916.3
597.662	875.34
597.859	803.66
598.055	1028.93
598.252	1018.69
598.448	1102.66
598.645	1141.57
598.841	1207.11
599.038	1334.08
599.234	1346.37
599.431	1207.11
599.627	1252.16
599.824	1362.75
600.02	1372.99
600.217	1366.85
600.413	1456.96
600.609	1518.4
600.806	1725.24
601.002	1672
601.198	1639.23
601.395	1758.01
601.591	1753.91
601.787	2044.73
601.984	1999.67
602.18	1921.85
602.376	2183.99
602.572	2206.52
602.769	2339.63
602.965	2343.73
603.161	2528.05
603.357	2648.88
603.553	2794.28
603.75	2687.79
603.946	2829.1
604.142	2982.7
604.338	3085.09
604.534	2974.5
604.73	3189.54
604.926	3234.6
605.122	3500.83
605.318	3502.88
605.514	3674.91
605.71	3912.47
605.906	3828.51
606.102	3894.04
606.298	4307.73
606.494	4307.73
606.69	4383.51
606.886	4506.38
607.082	4510.48
607.278	4756.24
607.474	4870.92
607.67	5131.02
607.866	5001.99
608.062	5409.54
608.257	5409.54
608.453	5554.94
608.649	5839.61
608.845	5833.47
609.041	5872.38
609.236	6167.29
609.432	6431.48
609.628	6703.86
609.824	6875.88
610.019	6681.33
610.215	7082.73
610.411	7310.05
610.606	7633.63
610.802	7756.51
610.998	7867.1
611.193	8205.02
611.389	8086.23
611.584	8544.98
611.78	8714.96
611.976	8925.9
612.171	9210.57
612.367	9677.51
612.562	9677.51
612.758	9837.25
612.953	10044.09
613.149	10363.58
613.344	10699.44
613.539	11104.94
613.735	11416.23
613.93	11748
614.126	11815.59
614.321	12360.34
614.517	12655.25
614.712	13116.05
614.907	13329.03
615.103	13488.78
615.298	13650.57
615.493	14254.72
615.688	14426.75
615.884	15131.25
616.079	15094.38
616.274	15964.77
616.47	16085.6
616.665	16667.22
616.86	16884.31
617.055	17156.69
617.25	17787.46
617.445	18625.08
617.641	18530.87
617.836	19221.04
618.031	19374.64
618.226	20140.58
618.421	20507.16
618.616	21129.75
618.811	21398.03
619.006	22305.28
619.201	22149.64
619.396	23171.57
619.591	23169.52
619.786	23949.8
619.981	24009.19
620.176	25182.68
620.371	25168.34
620.566	26163.65
620.761	26575.3
620.956	27312.56
621.151	27371.96
621.346	28453.28
621.541	28252.58
621.735	29335.96
621.93	29393.3
622.125	30161.29
622.32	30937.47
622.515	31449.46
622.709	31881.58
622.904	32584.04
623.099	33282.39
623.294	33909.07
623.488	33958.22
623.683	35029.31
623.878	35187
624.072	36036.91
624.267	36391.21
624.462	36895.01
624.656	37275.93
624.851	38443.27
625.046	38754.57
625.24	39225.6
625.435	39667.96
625.629	40655.08
625.824	41052.39
626.018	41468.12
626.213	41359.58
626.407	42391.76
626.602	42062.04
626.796	43262.15
626.991	43514.05
627.185	43845.82
627.38	44222.64
627.574	44511.41
627.768	44691.63
627.963	44941.48
628.157	44806.31
628.352	45416.61
628.546	44304.56
628.74	45602.97
628.935	44961.96
629.129	45441.18
629.323	45037.73
629.517	44769.45
629.712	44472.49
629.906	44206.26
630.1	43911.35
630.294	43794.62
630.489	43337.92
630.683	42942.66
630.877	41656.54
631.071	41609.43
631.265	41113.83
631.459	39958.77
631.653	39006.47
631.848	38379.79
632.042	37402.91
632.236	36583.72
632.43	35561.78
632.624	35019.07
632.818	33616.21
633.012	32606.56
633.206	31615.35
633.4	30792.06
633.594	29862.29
633.788	29161.88
633.982	27945.39
634.176	27034.04
634.369	25889.23
634.563	24754.65
634.757	23869.93
634.951	23351.79
635.145	22305.28
635.339	21545.48
635.533	20285.98
635.726	19851.81
635.92	18944.56
636.114	18364.99
636.308	17580.62
636.501	17060.43
636.695	16122.46
636.889	15403.63
637.083	14948.98
637.276	14088.83
637.47	13646.47
637.664	13138.57
637.857	12640.92
638.051	12034.72
638.244	11713.19
638.438	11211.43
638.632	10803.89
638.825	10076.86
639.019	10050.24
639.212	9392.84
639.406	9153.23
639.599	8901.33
639.793	8483.54
639.986	8143.58
640.18	7803.61
640.373	7684.83
640.567	7152.36
640.76	7015.15
640.954	6613.74
641.147	6363.89
641.34	6099.7
641.534	5991.16
641.727	5749.5
641.92	5661.44
642.114	5313.28
642.307	5198.6
642.5	4924.17
642.694	4692.75
642.887	4612.88
643.08	4520.72
643.273	4352.79
643.467	4174.61
643.66	3810.08
643.853	3705.63
644.046	3578.65
644.239	3519.26
644.432	3506.98
644.626	3074.85
644.819	3046.18
645.012	3121.96
645.205	2986.79
645.398	2837.29
645.591	2673.45
645.784	2540.33
645.977	2476.85
646.17	2341.68
646.363	2257.71
646.556	2251.57
646.749	2167.6
646.942	2097.97
647.135	2016.05
647.328	1839.93
647.521	1790.78
647.714	1766.2
647.907	1700.67
648.099	1504.06
648.292	1669.95
648.485	1602.36
648.678	1444.67
648.871	1327.94
649.064	1424.19
649.256	1229.63
649.449	1327.94
649.642	1039.17
649.835	1135.43
650.027	1114.95
650.22	1182.53
650.413	1065.8
650.605	992.07
650.798	934.73
650.991	891.72
651.183	840.52
651.376	914.25
651.568	895.82
651.761	861
651.954	836.42
652.146	715.59
652.339	873.29
652.531	846.66
652.724	635.72
652.916	721.74
653.109	537.42
653.301	740.17
653.494	676.68
653.686	631.63
653.879	693.07
654.071	703.31
654.263	592.72
654.456	553.8
654.648	688.97
654.84	543.57
655.033	588.62
655.225	627.53
655.417	371.54
655.61	553.8
655.802	506.7
655.994	611.15
656.186	357.2
656.379	478.03
656.571	410.45
656.763	342.86
656.955	432.97
657.148	432.97
657.34	518.99
657.532	394.06
657.724	318.29
657.916	469.84
658.108	473.93
658.3	441.17
658.492	346.96
658.684	277.33
658.876	410.45
659.068	258.9
659.26	226.13
659.452	246.61
659.644	379.73
659.836	357.2
660.028	260.95
660.22	252.75
660.412	154.45
660.604	293.71
660.796	283.47
660.988	396.11
661.18	344.91
661.372	416.59
661.563	324.43
661.755	246.61
661.947	209.75
662.139	262.99
662.331	265.04
662.522	195.41
662.714	201.55
662.906	162.64
663.097	256.85
663.289	187.22
663.481	131.92
663.673	242.51
663.864	174.93
664.056	197.46
664.247	160.59
664.439	295.76
664.631	189.27
664.822	234.32
665.014	191.31
665.205	176.98
665.397	205.65
665.588	183.12
665.78	256.85
665.971	324.43
666.163	238.42
666.354	217.94
666.546	197.46
666.737	195.41
666.929	250.71
667.12	234.32
667.311	195.41
667.503	203.6
667.694	150.36
667.885	238.42
668.077	281.43
668.268	174.93
668.459	230.23
668.651	193.36
668.842	156.5
669.033	99.16
669.224	68.44
669.416	285.52
669.607	269.14
669.798	90.96
669.989	273.23
670.18	201.55
670.371	293.71
670.563	140.12
670.754	287.57
670.945	224.08
671.136	217.94
671.327	142.16
671.518	367.44
671.709	295.76
671.9	217.94
672.091	248.66
672.282	189.27
672.473	148.31
672.664	232.27
672.855	250.71
673.046	281.43
673.237	265.04
673.428	246.61
673.619	328.53
673.809	230.23
674	285.52
674.191	267.09
674.382	238.42
674.573	271.19
674.764	269.14
674.954	279.38
675.145	193.36
675.336	172.88
675.527	181.07
675.717	197.46
675.908	189.27
676.099	256.85
676.289	277.33
676.48	209.75
676.671	269.14
676.861	228.18
677.052	338.77
677.243	275.28
677.433	262.99
677.624	400.21
677.814	342.86
678.005	285.52
678.195	404.3
678.386	277.33
678.576	265.04
678.767	224.08
678.957	271.19
679.148	432.97
679.338	453.45
679.529	332.62
679.719	340.82
679.909	451.41
680.1	373.58
680.29	422.73
680.481	240.47
680.671	422.73
680.861	377.68
681.052	365.39
681.242	289.62
681.432	430.93
681.622	320.34
681.813	332.62
682.003	412.5
682.193	316.24
682.383	357.2
682.573	369.49
682.764	328.53
682.954	353.1
683.144	463.69
683.334	365.39
683.524	418.64
683.714	416.59
683.904	353.1
684.094	422.73
684.284	426.83
684.474	463.69
684.664	428.88
684.854	439.12
685.044	375.63
685.234	371.54
685.424	385.87
685.614	328.53
685.804	500.56
685.994	422.73
686.184	435.02
686.374	459.6
686.564	412.5
686.753	400.21
686.943	306
687.133	385.87
687.323	404.3
687.513	424.78
687.702	457.55
687.892	418.64
688.082	414.54
688.272	437.07
688.461	459.6
688.651	598.86
688.841	490.32
689.03	398.16
689.22	394.06
689.41	408.4
689.599	334.67
689.789	365.39
689.979	525.13
690.168	373.58
690.358	523.09
690.547	414.54
690.737	432.97
690.926	308.05
691.116	426.83
691.305	422.73
691.495	430.93
691.684	316.24
691.874	310.1
692.063	475.98
692.252	457.55
692.442	383.82
692.631	351.06
692.82	353.1
693.01	324.43
693.199	275.28
693.388	416.59
693.578	330.58
693.767	426.83
693.956	484.17
694.146	381.78
694.335	373.58
694.524	265.04
694.713	389.97
694.902	306
695.092	252.75
695.281	371.54
695.47	320.34
695.659	303.95
695.848	381.78
696.037	353.1
696.226	447.31
696.415	328.53
696.604	445.26
696.793	398.16
696.982	295.76
697.171	443.21
697.36	279.38
697.549	379.73
697.738	205.65
697.927	353.1
698.116	222.03
698.305	400.21
698.494	349.01
698.683	291.66
698.872	455.5
699.061	373.58
699.25	293.71
699.438	322.38
699.627	293.71
699.816	383.82
700.005	246.61
700.193	316.24
700.382	353.1
700.571	326.48
700.76	279.38
700.948	406.35
701.137	430.93
701.326	299.86
701.514	318.29
701.703	293.71
701.892	260.95
702.08	490.32
702.269	301.9
702.457	281.43
702.646	283.47
702.834	267.09
703.023	295.76
703.212	398.16
703.4	310.1
703.589	279.38
703.777	308.05
703.965	236.37
704.154	326.48
704.342	236.37
704.531	336.72
704.719	279.38
704.907	316.24
705.096	201.55
705.284	201.55
705.472	365.39
705.661	365.39
705.849	367.44
706.037	346.96
706.226	357.2
706.414	381.78
706.602	236.37
706.79	359.25
706.979	262.99
707.167	242.51
707.355	164.69
707.543	293.71
707.731	328.53
707.919	316.24
708.107	318.29
708.296	236.37
708.484	236.37
708.672	338.77
708.86	361.3
709.048	285.52
709.236	209.75
709.424	353.1
709.612	301.9
709.8	244.56
709.988	303.95
710.176	375.63
710.364	422.73
710.551	262.99
710.739	324.43
710.927	318.29
711.115	303.95
711.303	394.06
711.491	400.21
711.679	230.23
711.866	404.3
712.054	197.46
712.242	224.08
712.43	420.69
712.617	236.37
712.805	373.58
712.993	322.38
713.181	271.19
713.368	430.93
713.556	398.16
713.744	217.94
713.931	498.51
714.119	314.19
714.306	267.09
714.494	248.66
714.682	385.87
714.869	258.9
715.057	306
715.244	154.45
715.432	375.63
715.619	222.03
715.807	316.24
715.994	303.95
716.182	297.81
716.369	367.44
716.556	402.26
716.744	279.38
716.931	240.47
717.119	365.39
717.306	398.16
717.493	455.5
717.681	306
717.868	283.47
718.055	430.93
718.242	414.54
718.43	400.21
718.617	398.16
718.804	351.06
718.991	416.59
719.179	389.97
719.366	365.39
719.553	402.26
719.74	406.35
719.927	318.29
720.114	389.97
720.301	279.38
720.488	283.47
720.676	312.14
720.863	521.04
721.05	449.36
721.237	469.84
721.424	465.74
721.611	463.69
721.798	314.19
721.985	365.39
722.172	340.82
722.358	383.82
722.545	349.01
722.732	475.98
722.919	449.36
723.106	523.09
723.293	418.64
723.48	355.15
723.667	330.58
723.853	494.41
724.04	465.74
724.227	484.17
724.414	314.19
724.6	416.59
724.787	512.85
724.974	529.23
725.161	518.99
725.347	342.86
725.534	471.89
725.72	527.18
725.907	498.51
726.094	553.8
726.28	303.95
726.467	420.69
726.653	437.07
726.84	512.85
727.027	553.8
727.213	377.68
727.4	459.6
727.586	484.17
727.773	426.83
727.959	408.4
728.145	461.65
728.332	424.78
728.518	398.16
728.705	484.17
728.891	486.22
729.077	465.74
729.264	361.3
729.45	445.26
729.636	570.19
729.823	469.84
730.009	463.69
730.195	494.41
730.382	557.9
730.568	428.88
730.754	482.13
730.94	443.21
731.126	504.65
731.313	480.08
731.499	467.79
731.685	480.08
731.871	543.57
732.057	654.16
732.243	527.18
732.429	553.8
732.615	576.33
732.801	598.86
732.987	521.04
733.173	504.65
733.359	494.41
733.545	502.61
733.731	473.93
733.917	615.24
734.103	568.14
734.289	549.71
734.475	416.59
734.661	662.35
734.847	623.44
735.033	529.23
735.219	650.06
735.404	490.32
735.59	494.41
735.776	482.13
735.962	490.32
736.148	600.91
736.333	615.24
736.519	582.48
736.705	543.57
736.89	484.17
737.076	531.28
737.262	471.89
737.447	615.24
737.633	547.66
737.819	707.4
738.004	582.48
738.19	564.04
738.375	467.79
738.561	643.92
738.747	592.72
738.932	568.14
739.118	701.26
739.303	600.91
739.489	635.72
739.674	502.61
739.859	467.79
740.045	578.38
740.23	611.15
740.416	443.21
740.601	566.09
740.786	580.43
740.972	506.7
741.157	475.98
741.342	494.41
741.528	549.71
741.713	619.34
741.898	547.66
742.084	617.29
742.269	543.57
742.454	578.38
742.639	512.85
742.824	592.72
743.01	721.74
743.195	652.11
743.38	531.28
743.565	508.75
743.75	662.35
743.935	510.8
744.12	721.74
744.305	506.7
744.49	598.86
744.675	574.28
744.86	480.08
745.045	559.95
745.23	559.95
745.415	508.75
745.6	652.11
745.785	521.04
745.97	645.96
746.155	531.28
746.34	609.1
746.525	605
746.71	564.04
746.895	529.23
747.079	506.7
747.264	508.75
747.449	582.48
747.634	609.1
747.819	467.79
748.003	527.18
748.188	432.97
748.373	557.9
748.557	500.56
748.742	490.32
748.927	478.03
749.111	510.8
749.296	437.07
749.481	547.66
749.665	531.28
749.85	369.49
750.034	562
750.219	418.64
750.404	512.85
750.588	475.98
750.773	408.4
750.957	465.74
751.141	439.12
751.326	537.42
751.51	353.1
751.695	424.78
751.879	394.06
752.064	564.04
752.248	455.5
752.432	643.92
752.617	463.69
752.801	441.17
752.985	478.03
753.17	420.69
753.354	459.6
753.538	457.55
753.722	336.72
753.907	463.69
754.091	308.05
754.275	373.58
754.459	230.23
754.643	353.1
754.828	416.59
755.012	443.21
755.196	363.34
755.38	478.03
755.564	406.35
755.748	375.63
755.932	375.63
756.116	488.27
756.3	537.42
756.484	326.48
756.668	449.36
756.852	289.62
757.036	340.82
757.22	285.52
757.404	295.76
757.588	297.81
757.772	541.52
757.956	367.44
758.14	457.55
758.323	275.28
758.507	398.16
758.691	330.58
758.875	410.45
759.059	396.11
759.242	242.51
759.426	338.77
759.61	418.64
759.794	328.53
759.977	398.16
760.161	469.84
760.345	389.97
760.528	310.1
760.712	369.49
760.895	355.15
761.079	301.9
761.263	181.07
761.446	179.03
761.63	281.43
761.813	432.97
761.997	248.66
762.18	262.99
762.364	387.92
762.547	174.93
762.731	295.76
762.914	342.86
763.098	316.24
763.281	285.52
763.464	226.13
763.648	301.9
763.831	234.32
764.015	281.43
764.198	349.01
764.381	256.85
764.564	244.56
764.748	287.57
764.931	299.86
765.114	271.19
765.297	326.48
765.481	219.99
765.664	213.84
765.847	185.17
766.03	394.06
766.213	283.47
766.397	334.67
766.58	174.93
766.763	379.73
766.946	162.64
767.129	271.19
767.312	160.59
767.495	293.71
767.678	238.42
767.861	224.08
768.044	273.23
768.227	236.37
768.41	189.27
768.593	287.57
768.776	238.42
768.959	269.14
769.142	320.34
769.324	99.16
769.507	195.41
769.69	281.43
769.873	193.36
770.056	353.1
770.239	226.13
770.421	297.81
770.604	287.57
770.787	219.99
770.97	224.08
771.152	103.25
771.335	303.95
771.518	88.92
771.7	240.47
771.883	334.67
772.066	205.65
772.248	267.09
772.431	236.37
772.613	271.19
772.796	117.59
772.978	209.75
773.161	262.99
773.343	172.88
773.526	97.11
773.708	88.92
773.891	101.2
774.073	166.74
774.256	107.35
774.438	226.13
774.621	176.98
774.803	256.85
774.985	168.79
775.168	183.12
775.35	148.31
775.532	174.93
775.715	95.06
775.897	279.38
776.079	164.69
776.261	127.83
776.444	154.45
776.626	158.55
776.808	170.83
776.99	78.68
777.173	111.44
777.355	176.98
777.537	164.69
777.719	195.41
777.901	131.92
778.083	76.63
778.265	97.11
778.447	209.75
778.629	103.25
778.811	76.63
778.993	199.51
779.175	119.64
779.357	174.93
779.539	95.06
779.721	148.31
779.903	144.21
780.085	56.15
780.267	185.17
780.449	168.79
780.631	174.93
780.812	154.45
780.994	78.68
781.176	164.69
781.358	136.02
781.54	115.54
781.721	115.54
781.903	164.69
782.085	101.2
782.267	228.18
782.448	64.34
782.63	170.83
782.812	168.79
782.993	201.55
783.175	191.31
783.357	52.05
783.538	168.79
783.72	82.77
783.901	142.16
784.083	123.73
784.264	144.21
784.446	29.52
784.627	39.76
784.809	138.07
784.99	43.86
785.172	142.16
785.353	144.21
785.535	101.2
785.716	25.43
785.897	117.59
786.079	76.63
786.26	15.19
786.441	90.96
786.623	64.34
786.804	-19.63
786.985	74.58
787.167	105.3
787.348	84.82
787.529	35.67
787.71	201.55
787.891	219.99
788.073	50
788.254	-15.53
788.435	179.03
788.616	154.45
788.797	95.06
788.978	50
789.159	78.68
789.34	88.92
789.522	86.87
789.703	29.52
789.884	84.82
790.065	70.48
790.246	262.99
790.427	45.91
790.607	209.75
790.788	99.16
790.969	76.63
791.15	107.35
791.331	78.68
791.512	-5.29
791.693	-3.24
791.874	84.82
792.054	226.13
792.235	201.55
792.416	15.19
792.597	-15.53
792.778	158.55
792.958	97.11
793.139	52.05
793.32	2.9
793.5	-31.91
793.681	64.34
793.862	111.44
794.042	88.92
794.223	-13.48
794.404	-17.58
794.584	-5.29
794.765	-13.48
794.945	21.33
795.126	82.77
795.306	103.25
795.487	17.24
795.667	37.72
795.848	101.2
796.028	50
796.209	17.24
796.389	144.21
796.57	78.68
796.75	21.33
796.93	97.11
797.111	54.1
797.291	23.38
797.471	109.4
797.652	17.24
797.832	19.29
798.012	90.96
798.192	50
798.373	62.29
798.553	29.52
798.733	54.1
798.913	74.58
799.093	-3.24
799.274	107.35
799.454	150.36
799.634	146.26
799.814	58.2
799.994	152.4
800.174	133.97
800.354	95.06
800.534	-36.01
800.714	2.9
800.894	-7.34
801.074	35.67
801.254	-56.49
801.434	109.4
801.614	82.77
801.794	-19.63
801.974	2081.59
802.154	64.34
802.334	140.12
802.514	-48.3
802.693	27.48
802.873	9.05
803.053	154.45
803.233	43.86
803.413	70.48
803.592	-44.2
803.772	31.57
803.952	50
804.131	-54.44
804.311	62.29
804.491	84.82
804.67	2.9
804.85	76.63
805.03	113.49
805.209	70.48
805.389	47.96
805.568	80.72
805.748	-15.53
805.928	-13.48
806.107	74.58
806.287	41.81
806.466	62.29
806.646	54.1
806.825	17.24
807.004	-7.34
807.184	90.96
807.363	21.33
807.543	70.48
807.722	-25.77
807.901	95.06
808.081	158.55
808.26	-54.44
808.439	31.57
808.619	45.91
808.798	70.48
808.977	70.48
809.156	86.87
809.336	41.81
809.515	33.62
809.694	-52.39
809.873	-60.59
810.052	119.64
810.231	62.29
810.411	123.73
810.59	136.02
810.769	-7.34
810.948	160.59
811.127	-42.15
811.306	-1.19
811.485	-15.53
811.664	131.92
811.843	68.44
812.022	66.39
812.201	4.95
812.38	25.43
812.559	-11.43
812.737	95.06
812.916	11.09
813.095	-25.77
813.274	27.48
813.453	33.62
813.632	84.82
813.811	152.4
813.989	-72.87
814.168	58.2
814.347	33.62
814.526	74.58
814.704	101.2
814.883	154.45
815.062	4.95
815.24	70.48
815.419	-76.97
815.598	131.92
815.776	-81.07
815.955	23.38
816.133	-7.34
816.312	-17.58
816.49	-27.82
816.669	31.57
816.847	41.81
817.026	121.68
817.204	-40.11
817.383	39.76
817.561	15.19
817.74	39.76
817.918	21.33
818.097	-38.06
818.275	-11.43
818.453	23.38
818.632	80.72
818.81	35.67
818.988	52.05
819.167	25.43
819.345	-54.44
819.523	-44.2
819.701	13.14
819.879	158.55
820.058	45.91
820.236	136.02
820.414	35.67
820.592	-23.72
820.77	-3.24
820.948	-5.29
821.127	58.2
821.305	39.76
821.483	-1.19
821.661	35.67
821.839	60.24
822.017	19.29
822.195	-13.48
822.373	133.97
822.551	52.05
822.729	19.29
822.907	62.29
823.085	43.86
823.262	35.67
823.44	-72.87
823.618	-40.11
823.796	64.34
823.974	-7.34
824.152	11.09
824.329	-21.67
824.507	31.57
824.685	58.2
824.863	27.48
825.04	35.67
825.218	9.05
825.396	-21.67
825.574	54.1
825.751	-27.82
825.929	72.53
826.107	-38.06
826.284	-15.53
826.462	13.14
826.639	9.05
826.817	-124.07
826.994	88.92
827.172	-89.26
827.349	93.01
827.527	39.76
827.704	21.33
827.882	56.15
828.059	13.14
828.237	-87.21
828.414	80.72
828.591	-76.97
828.769	-25.77
828.946	-36.01
829.124	111.44
829.301	125.78
829.478	76.63
829.655	95.06
829.833	19.29
830.01	-115.88
830.187	127.83
830.364	23.38
830.542	19.29
830.719	52.05
830.896	119.64
831.073	56.15
831.25	41.81
831.427	21.33
831.604	-7.34
831.782	-62.63
831.959	76.63
832.136	64.34
832.313	54.1
832.49	-40.11
832.667	54.1
832.844	-74.92
833.021	62.29
833.198	21.33
833.374	-15.53
833.551	80.72
833.728	7
833.905	99.16
834.082	-74.92
834.259	64.34
834.436	93.01
834.612	-21.67
834.789	68.44
834.966	39.76
835.143	-54.44
835.319	-42.15
835.496	19.29
835.673	43.86
835.85	47.96
836.026	27.48
836.203	43.86
836.38	-23.72
836.556	27.48
836.733	-13.48
836.909	160.59
837.086	37.72
837.262	-72.87
837.439	-23.72
837.616	-142.5
837.792	19.29
837.968	-21.67
838.145	-87.21
838.321	60.24
838.498	4.95
838.674	39.76
838.851	72.53
839.027	-58.54
839.203	-40.11
839.38	11.09
839.556	-29.87
839.732	25.43
839.909	-1.19
840.085	47.96
840.261	-62.63
840.437	72.53
840.614	-3.24
840.79	99.16
840.966	4.95
841.142	84.82
841.318	7
841.494	119.64
841.671	54.1
841.847	-40.11
842.023	-15.53
842.199	21.33
842.375	101.2
842.551	-29.87
842.727	-27.82
842.903	97.11
843.079	-101.55
843.255	68.44
843.431	23.38
843.607	31.57
843.783	-117.93
843.959	-46.25
844.134	-21.67
844.31	23.38
844.486	-29.87
844.662	-23.72
844.838	56.15
845.013	60.24
845.189	-1.19
845.365	-7.34
845.541	54.1
845.716	-15.53
845.892	133.97
846.068	-87.21
846.244	-19.63
846.419	39.76
846.595	-70.83
846.77	-23.72
846.946	56.15
847.122	-64.68
847.297	-21.67
847.473	76.63
847.648	-72.87
847.824	41.81
847.999	-126.12
848.175	27.48
848.35	-42.15
848.526	142.16
848.701	60.24
848.876	54.1
849.052	140.12
849.227	33.62
849.403	4.95
849.578	-1.19
849.753	45.91
849.929	45.91
850.104	-134.31
850.279	0.85
850.454	19.29
850.63	41.81
850.805	0.85
850.98	-3.24
851.155	-31.91
851.33	50
851.505	-87.21
851.681	66.39
851.856	-5.29
852.031	29.52
852.206	93.01
852.381	-68.78
852.556	0.85
852.731	45.91
852.906	13.14
853.081	7
853.256	140.12
853.431	-13.48
853.606	-7.34
853.781	-64.68
853.956	-214.18
854.131	41.81
854.305	-122.02
854.48	-5.29
854.655	-27.82
854.83	7
855.005	27.48
855.18	58.2
855.354	27.48
855.529	21.33
855.704	17.24
855.879	29.52
856.053	2.9
856.228	-5.29
856.403	-68.78
856.577	-5.29
856.752	-89.26
856.926	31.57
857.101	39.76
857.276	-40.11
857.45	62.29
857.625	21.33
857.799	66.39
857.974	-44.2
858.148	-76.97
858.323	-29.87
858.497	29.52
858.672	-23.72
858.846	-81.07
859.02	-1.19
859.195	-50.35
859.369	-11.43
859.543	80.72
859.718	64.34
859.892	33.62
860.066	56.15
860.241	-7.34
860.415	-64.68
860.589	64.34
860.763	-31.91
860.938	-154.79
861.112	-70.83
861.286	-3.24
861.46	-19.63
861.634	-58.54
861.808	78.68
861.982	-44.2
862.157	-81.07
862.331	-33.96
862.505	-72.87
862.679	-81.07
862.853	-31.91
863.027	-21.67
863.201	105.3
863.375	-33.96
863.549	25.43
863.722	7
863.896	107.35
864.07	-44.2
864.244	-9.39
864.418	25.43
864.592	-7.34
864.766	-5.29
864.939	-25.77
865.113	29.52
865.287	90.96
865.461	-15.53
865.634	37.72
865.808	4.95
865.982	-40.11
866.156	-60.59
866.329	-52.39
866.503	37.72
866.676	45.91
866.85	15.19
867.024	-91.31
867.197	31.57
867.371	9.05
867.544	29.52
867.718	-89.26
867.891	21.33
868.065	-87.21
868.238	-91.31
868.412	133.97
868.585	52.05
868.759	15.19
868.932	2.9
869.105	-48.3
869.279	-3.24
869.452	-74.92
869.625	62.29
869.799	-40.11
869.972	-13.48
870.145	-17.58
870.319	105.3
870.492	-66.73
870.665	-31.91
870.838	19.29
871.011	-122.02
871.185	7
871.358	-68.78
871.531	-31.91
871.704	45.91
871.877	25.43
872.05	-103.59
872.223	-27.82
872.396	99.16
872.569	58.2
872.742	-44.2
872.915	2.9
873.088	-56.49
873.261	-17.58
873.434	70.48
873.607	17.24
873.78	90.96
873.953	-79.02
874.126	-1.19
874.299	66.39
874.471	11.09
874.644	35.67
874.817	62.29
874.99	43.86
875.163	-70.83
875.335	50
875.508	-11.43
875.681	74.58
875.853	-36.01
876.026	9.05
876.199	54.1
876.371	-15.53
876.544	-9.39
876.717	-5.29
876.889	7
877.062	68.44
877.234	-85.16
877.407	-74.92
877.579	35.67
877.752	-31.91
877.924	37.72
878.097	58.2
878.269	33.62
878.442	4.95
878.614	19.29
878.786	37.72
878.959	-70.83
879.131	17.24
879.303	-105.64
879.476	-44.2
879.648	103.25
879.82	-36.01
879.993	2.9
880.165	-23.72
880.337	-109.74
880.509	43.86
880.681	-11.43
880.854	-66.73
881.026	35.67
881.198	164.69
881.37	17.24
881.542	29.52
881.714	-9.39
881.886	-38.06
882.058	25.43
882.23	62.29
882.402	11.09
882.574	-40.11
882.746	11.09
882.918	129.88
883.09	54.1
883.262	33.62
883.434	39.76
883.606	-150.7
883.778	-5.29
883.95	84.82
884.122	-111.78
884.293	45.91
884.465	-111.78
884.637	105.3
884.809	-76.97
884.98	-5.29
885.152	43.86
885.324	27.48
885.496	-15.53
885.667	-3.24
885.839	-21.67
886.011	119.64
886.182	78.68
886.354	76.63
886.525	-1.19
886.697	-5.29
886.869	-54.44
887.04	-17.58
887.212	146.26
887.383	138.07
887.555	60.24
887.726	4.95
887.897	-85.16
888.069	-13.48
888.24	45.91
888.412	25.43
888.583	-33.96
888.754	17.24
888.926	-113.83
889.097	0.85
889.268	-134.31
889.44	37.72
889.611	-101.55
889.782	-76.97
889.953	-89.26
890.125	93.01
890.296	-83.11
890.467	-25.77
890.638	-58.54
890.809	-1.19
890.98	-56.49
891.151	76.63
891.323	29.52
891.494	21.33
891.665	-13.48
891.836	-44.2
892.007	-29.87
892.178	23.38
892.349	-27.82
892.52	-31.91
892.691	27.48
892.862	-36.01
893.032	-89.26
893.203	-3.24
893.374	7
893.545	62.29
893.716	-25.77
893.887	-1.19
894.057	-19.63
894.228	23.38
894.399	-76.97
894.57	62.29
894.74	-60.59
894.911	54.1
895.082	35.67
895.253	-72.87
895.423	-17.58
895.594	117.59
895.764	74.58
895.935	-89.26
896.106	37.72
896.276	-23.72
896.447	-23.72
896.617	-38.06
896.788	-83.11
896.958	-97.45
897.129	-21.67
897.299	-99.5
897.47	179.03
897.64	54.1
897.81	-13.48
897.981	39.76
898.151	-25.77
898.322	37.72
898.492	72.53
898.662	-19.63
898.832	-58.54
899.003	-85.16
899.173	19.29
899.343	-33.96
899.513	47.96
