Data from USB4F104151__62__10-26-38-326.txt Node

Date: Wed Feb 26 10:26:38 EST 2025
User: louis
Spectrometer: USB4F10415
Trigger mode: 4
Integration Time (sec): 1.000000E-1
Scans to average: 1
Electric dark correction enabled: true
Nonlinearity correction enabled: false
Boxcar width: 0
XAxis mode: Wavelengths
Number of Pixels in Spectrum: 3648
>>>>>Begin Spectral Data<<<<<
178.204	-382.29
178.424	-382.29
178.644	-382.29
178.864	-398.67
179.084	-449.87
179.304	6.83
179.524	-17.75
179.744	-71
179.964	-11.61
180.184	45.74
180.404	80.55
180.624	-3.41
180.844	6.83
181.064	-15.7
181.283	6.83
181.503	-48.47
181.723	21.16
181.943	-109.91
182.163	156.33
182.383	2.73
182.602	21.16
182.822	215.72
183.042	129.7
183.262	-27.99
183.482	45.74
183.701	82.6
183.921	103.08
184.141	-25.94
184.361	76.46
184.58	55.98
184.8	82.6
185.02	-95.57
185.239	133.8
185.459	90.79
185.679	160.42
185.898	-68.95
186.118	68.27
186.338	6.83
186.557	164.52
186.777	-13.65
186.997	-1.37
187.216	41.64
187.436	98.99
187.655	25.26
187.875	109.23
188.095	39.59
188.314	94.89
188.534	101.03
188.753	-81.24
188.973	45.74
189.192	166.57
189.412	55.98
189.631	72.36
189.851	133.8
190.07	164.52
190.29	-73.04
190.509	78.51
190.729	33.45
190.948	129.7
191.168	299.69
191.387	105.13
191.607	-36.18
191.826	133.8
192.045	47.79
192.265	29.35
192.484	78.51
192.704	53.93
192.923	-52.56
193.142	123.56
193.362	137.9
193.581	141.99
193.8	47.79
194.02	76.46
194.239	60.07
194.458	31.4
194.678	58.03
194.897	-54.61
195.116	96.94
195.335	62.12
195.555	68.27
195.774	80.55
195.993	103.08
196.212	8.87
196.432	-64.85
196.651	-11.61
196.87	45.74
197.089	271.01
197.308	107.18
197.528	41.64
197.747	-9.56
197.966	51.88
198.185	135.85
198.404	15.02
198.623	109.23
198.842	101.03
199.062	131.75
199.281	123.56
199.5	12.97
199.719	94.89
199.938	76.46
200.157	82.6
200.376	78.51
200.595	137.9
200.814	51.88
201.033	0.68
201.252	74.41
201.471	78.51
201.69	70.31
201.909	35.5
202.128	47.79
202.347	119.46
202.566	68.27
202.785	-17.75
203.004	-7.51
203.223	223.91
203.442	21.16
203.661	25.26
203.879	49.83
204.098	107.18
204.317	-5.46
204.536	180.9
204.755	129.7
204.974	66.22
205.193	10.92
205.411	92.84
205.63	68.27
205.849	27.31
206.068	0.68
206.287	-7.51
206.505	64.17
206.724	92.84
206.943	2.73
207.162	25.26
207.381	-9.56
207.599	60.07
207.818	74.41
208.037	35.5
208.255	-17.75
208.474	80.55
208.693	-5.46
208.911	4.78
209.13	115.37
209.349	92.84
209.567	156.33
209.786	146.09
210.005	123.56
210.223	37.55
210.442	-93.52
210.661	25.26
210.879	29.35
211.098	6.83
211.316	49.83
211.535	144.04
211.753	90.79
211.972	90.79
212.191	41.64
212.409	76.46
212.628	62.12
212.846	-52.56
213.065	51.88
213.283	109.23
213.502	47.79
213.72	-38.23
213.938	49.83
214.157	-27.99
214.375	90.79
214.594	19.11
214.812	146.09
215.031	27.31
215.249	92.84
215.467	49.83
215.686	-17.75
215.904	94.89
216.122	129.7
216.341	191.14
216.559	72.36
216.778	105.13
216.996	92.84
217.214	-9.56
217.432	88.75
217.651	-54.61
217.869	41.64
218.087	21.16
218.306	-11.61
218.524	-9.56
218.742	25.26
218.96	117.42
219.179	45.74
219.397	15.02
219.615	221.86
219.833	90.79
220.051	-54.61
220.27	45.74
220.488	94.89
220.706	76.46
220.924	-48.47
221.142	-23.89
221.36	139.94
221.578	101.03
221.796	8.87
222.015	-23.89
222.233	115.37
222.451	98.99
222.669	-62.8
222.887	41.64
223.105	-25.94
223.323	19.11
223.541	15.02
223.759	-7.51
223.977	19.11
224.195	211.62
224.413	88.75
224.631	58.03
224.849	90.79
225.067	242.34
225.285	49.83
225.503	-9.56
225.721	-93.52
225.939	23.21
226.157	-11.61
226.375	236.2
226.592	-30.04
226.81	-3.41
227.028	68.27
227.246	121.51
227.464	-7.51
227.682	117.42
227.9	121.51
228.117	64.17
228.335	53.93
228.553	96.94
228.771	70.31
228.989	39.59
229.206	82.6
229.424	21.16
229.642	80.55
229.86	2.73
230.077	185
230.295	10.92
230.513	109.23
230.731	133.8
230.948	49.83
231.166	178.86
231.384	72.36
231.601	6.83
231.819	146.09
232.037	-7.51
232.254	-11.61
232.472	70.31
232.689	31.4
232.907	105.13
233.125	23.21
233.342	0.68
233.56	31.4
233.777	103.08
233.995	25.26
234.213	115.37
234.43	94.89
234.648	27.31
234.865	-1.37
235.083	129.7
235.3	23.21
235.518	47.79
235.735	127.66
235.953	62.12
236.17	133.8
236.388	23.21
236.605	51.88
236.822	156.33
237.04	127.66
237.257	21.16
237.475	47.79
237.692	74.41
237.909	88.75
238.127	-44.37
238.344	78.51
238.562	103.08
238.779	-27.99
238.996	49.83
239.214	68.27
239.431	74.41
239.648	51.88
239.865	29.35
240.083	74.41
240.3	-32.08
240.517	111.27
240.735	66.22
240.952	152.23
241.169	113.32
241.386	119.46
241.603	10.92
241.821	-89.43
242.038	103.08
242.255	160.42
242.472	-17.75
242.689	45.74
242.907	68.27
243.124	88.75
243.341	47.79
243.558	-7.51
243.775	-46.42
243.992	-32.08
244.209	90.79
244.426	199.34
244.643	117.42
244.86	4.78
245.078	174.76
245.295	103.08
245.512	0.68
245.729	-9.56
245.946	113.32
246.163	29.35
246.38	45.74
246.597	92.84
246.814	58.03
247.031	27.31
247.248	55.98
247.464	117.42
247.681	172.71
247.898	96.94
248.115	101.03
248.332	6.83
248.549	144.04
248.766	185
248.983	90.79
249.2	-23.89
249.417	72.36
249.633	-36.18
249.85	37.55
250.067	-54.61
250.284	70.31
250.501	66.22
250.717	101.03
250.934	15.02
251.151	-38.23
251.368	39.59
251.585	160.42
251.801	96.94
252.018	-64.85
252.235	117.42
252.451	-109.91
252.668	-3.41
252.885	125.61
253.102	33.45
253.318	39.59
253.535	12.97
253.752	0.68
253.968	2.73
254.185	-101.72
254.401	21.16
254.618	66.22
254.835	-15.7
255.051	166.57
255.268	78.51
255.484	31.4
255.701	70.31
255.917	29.35
256.134	53.93
256.351	21.16
256.567	-44.37
256.784	-9.56
257	-109.91
257.217	66.22
257.433	131.75
257.65	27.31
257.866	84.65
258.082	-3.41
258.299	19.11
258.515	105.13
258.732	39.59
258.948	4.78
259.165	-9.56
259.381	-23.89
259.597	72.36
259.814	-23.89
260.03	12.97
260.246	-15.7
260.463	70.31
260.679	160.42
260.895	72.36
261.112	80.55
261.328	8.87
261.544	-1.37
261.761	195.24
261.977	-34.13
262.193	-89.43
262.409	137.9
262.626	8.87
262.842	41.64
263.058	111.27
263.274	129.7
263.49	6.83
263.707	66.22
263.923	146.09
264.139	-15.7
264.355	37.55
264.571	51.88
264.787	111.27
265.004	96.94
265.22	64.17
265.436	-52.56
265.652	-40.28
265.868	92.84
266.084	-15.7
266.3	62.12
266.516	-81.24
266.732	-89.43
266.948	133.8
267.164	-30.04
267.38	176.81
267.596	111.27
267.812	238.25
268.028	45.74
268.244	4.78
268.46	82.6
268.676	160.42
268.892	47.79
269.108	-50.52
269.324	43.69
269.54	55.98
269.756	60.07
269.972	-83.28
270.188	74.41
270.403	-54.61
270.619	-5.46
270.835	109.23
271.051	47.79
271.267	64.17
271.483	-21.84
271.698	187.05
271.914	80.55
272.13	0.68
272.346	23.21
272.562	80.55
272.777	41.64
272.993	64.17
273.209	33.45
273.425	58.03
273.64	4.78
273.856	109.23
274.072	-13.65
274.287	43.69
274.503	88.75
274.719	119.46
274.934	-19.8
275.15	-25.94
275.366	94.89
275.581	-30.04
275.797	88.75
276.012	31.4
276.228	45.74
276.444	31.4
276.659	82.6
276.875	6.83
277.09	45.74
277.306	-13.65
277.521	43.69
277.737	-9.56
277.952	166.57
278.168	2.73
278.383	6.83
278.599	80.55
278.814	111.27
279.03	76.46
279.245	98.99
279.461	70.31
279.676	96.94
279.892	0.68
280.107	-27.99
280.322	-13.65
280.538	39.59
280.753	2.73
280.969	58.03
281.184	2.73
281.399	141.99
281.615	58.03
281.83	107.18
282.045	-17.75
282.26	-5.46
282.476	31.4
282.691	70.31
282.906	66.22
283.122	78.51
283.337	29.35
283.552	47.79
283.767	51.88
283.983	62.12
284.198	49.83
284.413	78.51
284.628	0.68
284.843	27.31
285.058	103.08
285.274	74.41
285.489	23.21
285.704	182.95
285.919	41.64
286.134	-15.7
286.349	23.21
286.564	4.78
286.779	185
286.995	4.78
287.21	27.31
287.425	2.73
287.64	35.5
287.855	115.37
288.07	12.97
288.285	189.1
288.5	90.79
288.715	119.46
288.93	-54.61
289.145	-48.47
289.36	55.98
289.575	12.97
289.79	86.7
290.004	-48.47
290.219	49.83
290.434	-13.65
290.649	64.17
290.864	-38.23
291.079	31.4
291.294	31.4
291.509	103.08
291.724	15.02
291.938	-19.8
292.153	152.23
292.368	4.78
292.583	154.28
292.798	131.75
293.012	49.83
293.227	90.79
293.442	29.35
293.657	121.51
293.871	113.32
294.086	39.59
294.301	187.05
294.516	185
294.73	78.51
294.945	8.87
295.16	45.74
295.374	148.14
295.589	107.18
295.804	80.55
296.018	60.07
296.233	158.38
296.447	-1.37
296.662	62.12
296.877	37.55
297.091	148.14
297.306	88.75
297.52	0.68
297.735	109.23
297.949	45.74
298.164	41.64
298.378	78.51
298.593	-75.09
298.807	-7.51
299.022	25.26
299.236	156.33
299.451	68.27
299.665	105.13
299.88	72.36
300.094	150.18
300.309	-48.47
300.523	82.6
300.737	15.02
300.952	78.51
301.166	90.79
301.381	-36.18
301.595	-36.18
301.809	-9.56
302.024	-71
302.238	62.12
302.452	144.04
302.667	70.31
302.881	90.79
303.095	107.18
303.309	72.36
303.524	31.4
303.738	80.55
303.952	-25.94
304.166	60.07
304.381	-44.37
304.595	156.33
304.809	33.45
305.023	35.5
305.237	19.11
305.452	23.21
305.666	80.55
305.88	43.69
306.094	121.51
306.308	74.41
306.522	107.18
306.736	137.9
306.95	84.65
307.164	47.79
307.379	47.79
307.593	139.94
307.807	219.82
308.021	96.94
308.235	51.88
308.449	-48.47
308.663	64.17
308.877	236.2
309.091	123.56
309.305	51.88
309.519	-101.72
309.733	117.42
309.947	51.88
310.161	90.79
310.374	74.41
310.588	148.14
310.802	-44.37
311.016	-21.84
311.23	21.16
311.444	-19.8
311.658	21.16
311.872	127.66
312.085	105.13
312.299	121.51
312.513	152.23
312.727	64.17
312.941	17.07
313.154	82.6
313.368	39.59
313.582	80.55
313.796	80.55
314.009	53.93
314.223	172.71
314.437	78.51
314.651	103.08
314.864	0.68
315.078	6.83
315.292	-34.13
315.505	31.4
315.719	68.27
315.933	76.46
316.146	21.16
316.36	-27.99
316.573	96.94
316.787	21.16
317.001	37.55
317.214	17.07
317.428	37.55
317.641	-17.75
317.855	25.26
318.068	86.7
318.282	41.64
318.495	180.9
318.709	45.74
318.922	74.41
319.136	62.12
319.349	146.09
319.563	-1.37
319.776	39.59
319.99	-54.61
320.203	148.14
320.417	-34.13
320.63	82.6
320.843	154.28
321.057	125.61
321.27	31.4
321.483	92.84
321.697	201.38
321.91	109.23
322.124	96.94
322.337	146.09
322.55	62.12
322.763	35.5
322.977	74.41
323.19	45.74
323.403	78.51
323.617	160.42
323.83	150.18
324.043	103.08
324.256	107.18
324.469	15.02
324.683	109.23
324.896	62.12
325.109	12.97
325.322	-32.08
325.535	109.23
325.748	117.42
325.962	31.4
326.175	49.83
326.388	98.99
326.601	127.66
326.814	-13.65
327.027	-56.66
327.24	185
327.453	-21.84
327.666	113.32
327.879	109.23
328.092	58.03
328.305	88.75
328.518	-32.08
328.731	-75.09
328.944	-25.94
329.157	105.13
329.37	-5.46
329.583	164.52
329.796	154.28
330.009	-27.99
330.222	113.32
330.435	129.7
330.648	78.51
330.861	125.61
331.073	123.56
331.286	84.65
331.499	92.84
331.712	80.55
331.925	58.03
332.138	58.03
332.35	82.6
332.563	45.74
332.776	139.94
332.989	-7.51
333.202	47.79
333.414	-46.42
333.627	55.98
333.84	60.07
334.053	82.6
334.265	2.73
334.478	-50.52
334.691	94.89
334.903	-52.56
335.116	-7.51
335.329	-23.89
335.541	74.41
335.754	164.52
335.966	62.12
336.179	84.65
336.392	70.31
336.604	74.41
336.817	146.09
337.029	33.45
337.242	17.07
337.454	125.61
337.667	64.17
337.88	162.47
338.092	4.78
338.305	152.23
338.517	21.16
338.729	111.27
338.942	141.99
339.154	-44.37
339.367	17.07
339.579	72.36
339.792	-13.65
340.004	94.89
340.217	19.11
340.429	139.94
340.641	0.68
340.854	35.5
341.066	-34.13
341.278	176.81
341.491	266.92
341.703	-17.75
341.915	25.26
342.128	60.07
342.34	-15.7
342.552	-3.41
342.764	70.31
342.977	-1.37
343.189	90.79
343.401	66.22
343.613	-17.75
343.826	60.07
344.038	-34.13
344.25	25.26
344.462	-52.56
344.674	6.83
344.886	53.93
345.099	92.84
345.311	49.83
345.523	45.74
345.735	-68.95
345.947	6.83
346.159	92.84
346.371	6.83
346.583	2.73
346.795	158.38
347.007	41.64
347.219	90.79
347.431	-11.61
347.643	158.38
347.855	12.97
348.067	166.57
348.279	-54.61
348.491	35.5
348.703	105.13
348.915	23.21
349.127	2.73
349.339	23.21
349.551	-38.23
349.763	182.95
349.975	55.98
350.187	131.75
350.399	150.18
350.61	53.93
350.822	55.98
351.034	82.6
351.246	41.64
351.458	39.59
351.669	115.37
351.881	37.55
352.093	82.6
352.305	92.84
352.517	72.36
352.728	168.62
352.94	6.83
353.152	70.31
353.363	43.69
353.575	76.46
353.787	201.38
353.999	49.83
354.21	135.85
354.422	-89.43
354.633	-9.56
354.845	41.64
355.057	58.03
355.268	66.22
355.48	150.18
355.692	-60.76
355.903	119.46
356.115	-23.89
356.326	-93.52
356.538	191.14
356.749	162.47
356.961	182.95
357.172	47.79
357.384	21.16
357.595	215.72
357.807	6.83
358.018	35.5
358.23	-7.51
358.441	158.38
358.653	68.27
358.864	72.36
359.075	-9.56
359.287	125.61
359.498	68.27
359.709	25.26
359.921	4.78
360.132	35.5
360.344	84.65
360.555	33.45
360.766	-32.08
360.977	35.5
361.189	29.35
361.4	17.07
361.611	191.14
361.823	141.99
362.034	53.93
362.245	-71
362.456	33.45
362.667	78.51
362.879	4.78
363.09	31.4
363.301	162.47
363.512	29.35
363.723	8.87
363.935	41.64
364.146	133.8
364.357	115.37
364.568	19.11
364.779	-1.37
364.99	125.61
365.201	31.4
365.412	125.61
365.623	-44.37
365.834	146.09
366.045	53.93
366.256	127.66
366.467	172.71
366.678	47.79
366.889	33.45
367.1	-3.41
367.311	135.85
367.522	-7.51
367.733	66.22
367.944	88.75
368.155	37.55
368.366	107.18
368.577	125.61
368.788	144.04
368.999	-17.75
369.209	53.93
369.42	154.28
369.631	238.25
369.842	185
370.053	49.83
370.264	191.14
370.474	-27.99
370.685	64.17
370.896	27.31
371.107	88.75
371.317	105.13
371.528	-5.46
371.739	41.64
371.95	121.51
372.16	17.07
372.371	-54.61
372.582	12.97
372.792	31.4
373.003	86.7
373.214	70.31
373.424	150.18
373.635	21.16
373.846	113.32
374.056	21.16
374.267	15.02
374.477	150.18
374.688	-44.37
374.898	94.89
375.109	23.21
375.319	109.23
375.53	154.28
375.74	62.12
375.951	17.07
376.161	53.93
376.372	152.23
376.582	-27.99
376.793	27.31
377.003	-34.13
377.214	-50.52
377.424	101.03
377.635	107.18
377.845	37.55
378.055	137.9
378.266	-83.28
378.476	66.22
378.686	84.65
378.897	117.42
379.107	115.37
379.317	23.21
379.528	2.73
379.738	154.28
379.948	2.73
380.158	25.26
380.369	-21.84
380.579	172.71
380.789	70.31
380.999	84.65
381.21	66.22
381.42	170.66
381.63	107.18
381.84	127.66
382.05	127.66
382.261	180.9
382.471	150.18
382.681	-38.23
382.891	137.9
383.101	82.6
383.311	19.11
383.521	8.87
383.731	115.37
383.941	156.33
384.151	-48.47
384.361	74.41
384.571	47.79
384.781	94.89
384.991	176.81
385.201	199.34
385.411	113.32
385.621	146.09
385.831	64.17
386.041	-11.61
386.251	55.98
386.461	82.6
386.671	-62.8
386.881	29.35
387.091	58.03
387.301	107.18
387.511	58.03
387.72	92.84
387.93	82.6
388.14	-42.32
388.35	53.93
388.56	178.86
388.769	146.09
388.979	64.17
389.189	25.26
389.399	82.6
389.609	39.59
389.818	201.38
390.028	133.8
390.238	53.93
390.447	-34.13
390.657	82.6
390.867	2.73
391.076	-52.56
391.286	137.9
391.496	39.59
391.705	68.27
391.915	141.99
392.125	187.05
392.334	0.68
392.544	158.38
392.753	107.18
392.963	-46.42
393.172	92.84
393.382	-25.94
393.591	160.42
393.801	23.21
394.01	182.95
394.22	119.46
394.429	-38.23
394.639	19.11
394.848	127.66
395.058	58.03
395.267	25.26
395.477	103.08
395.686	84.65
395.895	152.23
396.105	225.96
396.314	47.79
396.524	47.79
396.733	-21.84
396.942	176.81
397.152	53.93
397.361	107.18
397.57	101.03
397.78	78.51
397.989	74.41
398.198	191.14
398.407	43.69
398.617	84.65
398.826	35.5
399.035	23.21
399.244	119.46
399.453	31.4
399.663	111.27
399.872	53.93
400.081	-21.84
400.29	62.12
400.499	-44.37
400.708	154.28
400.917	53.93
401.127	98.99
401.336	-32.08
401.545	197.29
401.754	119.46
401.963	92.84
402.172	62.12
402.381	-25.94
402.59	15.02
402.799	55.98
403.008	121.51
403.217	115.37
403.426	92.84
403.635	-23.89
403.844	58.03
404.053	64.17
404.262	74.41
404.471	170.66
404.68	-30.04
404.888	74.41
405.097	15.02
405.306	25.26
405.515	135.85
405.724	66.22
405.933	62.12
406.142	47.79
406.35	187.05
406.559	41.64
406.768	76.46
406.977	96.94
407.185	15.02
407.394	80.55
407.603	-32.08
407.812	74.41
408.02	195.24
408.229	35.5
408.438	105.13
408.646	-32.08
408.855	90.79
409.064	107.18
409.272	-7.51
409.481	133.8
409.69	8.87
409.898	6.83
410.107	164.52
410.315	201.38
410.524	-3.41
410.733	74.41
410.941	10.92
411.15	133.8
411.358	148.14
411.567	146.09
411.775	27.31
411.984	164.52
412.192	111.27
412.401	37.55
412.609	146.09
412.818	125.61
413.026	111.27
413.234	43.69
413.443	-15.7
413.651	66.22
413.86	76.46
414.068	60.07
414.276	240.3
414.485	4.78
414.693	117.42
414.901	172.71
415.11	66.22
415.318	25.26
415.526	123.56
415.734	76.46
415.943	8.87
416.151	275.11
416.359	-71
416.567	119.46
416.776	148.14
416.984	78.51
417.192	238.25
417.4	45.74
417.608	19.11
417.817	45.74
418.025	72.36
418.233	178.86
418.441	-19.8
418.649	-36.18
418.857	90.79
419.065	219.82
419.273	111.27
419.481	90.79
419.689	37.55
419.897	45.74
420.105	-27.99
420.313	82.6
420.521	64.17
420.729	150.18
420.937	4.78
421.145	-36.18
421.353	172.71
421.561	191.14
421.769	107.18
421.977	-25.94
422.185	178.86
422.393	74.41
422.601	166.57
422.809	123.56
423.017	80.55
423.224	150.18
423.432	166.57
423.64	92.84
423.848	178.86
424.056	27.31
424.263	131.75
424.471	101.03
424.679	201.38
424.887	8.87
425.094	96.94
425.302	101.03
425.51	68.27
425.718	146.09
425.925	141.99
426.133	15.02
426.341	201.38
426.548	78.51
426.756	156.33
426.964	185
427.171	72.36
427.379	144.04
427.586	123.56
427.794	117.42
428.001	172.71
428.209	90.79
428.417	213.67
428.624	152.23
428.832	156.33
429.039	55.98
429.247	101.03
429.454	68.27
429.662	213.67
429.869	133.8
430.076	199.34
430.284	141.99
430.491	166.57
430.699	195.24
430.906	215.72
431.114	166.57
431.321	172.71
431.528	117.42
431.736	277.16
431.943	178.86
432.15	234.15
432.358	273.06
432.565	291.49
432.772	76.46
432.979	199.34
433.187	168.62
433.394	289.45
433.601	225.96
433.808	246.44
434.016	254.63
434.223	244.39
434.43	250.53
434.637	299.69
434.844	275.11
435.052	189.1
435.259	264.87
435.466	320.17
435.673	342.69
435.88	369.32
436.087	389.8
436.294	387.75
436.501	389.8
436.708	293.54
436.915	221.86
437.122	277.16
437.329	260.77
437.537	393.89
437.743	334.5
437.95	467.62
438.157	490.15
438.364	418.47
438.571	441
438.778	461.48
438.985	492.2
439.192	424.61
439.399	426.66
439.606	574.11
439.813	584.35
440.02	656.03
440.227	649.89
440.433	565.92
440.64	561.83
440.847	588.45
441.054	688.8
441.261	715.42
441.467	572.07
441.674	643.74
441.881	682.66
442.088	639.65
442.294	811.68
442.501	805.53
442.708	971.42
442.914	926.36
443.121	860.83
443.328	979.61
443.534	1098.39
443.741	1004.19
443.948	844.45
444.154	1102.49
444.361	1145.5
444.568	1178.26
444.774	1104.54
444.981	1114.78
445.187	1280.66
445.394	1346.2
445.6	1346.2
445.807	1352.34
446.013	1405.59
446.22	1381.01
446.426	1493.65
446.633	1702.54
446.839	1829.52
447.046	1647.25
447.252	1761.94
447.459	1772.18
447.665	1733.26
447.871	1958.54
448.078	2206.35
448.284	2153.1
448.491	2171.53
448.697	2259.59
448.903	2386.57
449.11	2351.75
449.316	2364.04
449.522	2517.64
449.728	2777.73
449.935	2706.05
450.141	2867.84
450.347	3015.29
450.553	2960
450.76	2990.72
450.966	3369.59
451.172	3412.6
451.378	3576.44
451.584	3646.07
451.791	3836.53
451.997	3981.93
452.203	3902.06
452.409	4151.92
452.615	4334.18
452.821	4225.64
453.027	4317.8
453.233	4846.18
453.44	4786.79
453.646	4960.86
453.852	5071.45
454.058	5233.24
454.264	5610.07
454.47	5929.55
454.676	5890.64
454.882	6353.48
455.088	5993.04
455.294	6527.56
455.5	6918.72
455.705	7098.94
455.911	7156.29
456.117	7248.44
456.323	7729.72
456.529	7748.15
456.735	8360.49
456.941	8561.19
457.147	9050.66
457.352	9357.85
457.558	9392.67
457.764	9835.03
457.97	10414.6
458.176	10547.72
458.381	11268.61
458.587	11358.72
458.793	11887.09
458.999	11764.22
459.204	13410.78
459.41	14016.98
459.616	13849.05
459.821	14488.01
460.027	15169.99
460.233	15684.03
460.438	15784.38
460.644	16931.24
460.85	17013.16
461.055	17615.26
461.261	18487.7
461.466	18047.38
461.672	18280.85
461.878	20556.15
462.083	20164.98
462.289	21014.89
462.494	21860.7
462.7	21881.18
462.905	22030.68
463.111	23812.42
463.316	25104.68
463.522	25260.33
463.727	26208.54
463.932	27412.74
464.138	28363
464.343	29237.48
464.549	29350.12
464.754	31525.07
464.959	32561.34
465.165	33167.54
465.37	32673.98
465.575	33079.47
465.781	34914.45
465.986	36026.5
466.191	35565.71
466.397	36053.12
466.602	34871.45
466.807	37529.71
467.012	37877.86
467.218	38326.37
467.423	38287.46
467.628	39434.32
467.833	42020.91
468.038	40783.93
468.244	39874.63
468.449	42326.05
468.654	41154.61
468.859	41171
469.064	40976.44
469.269	39893.07
469.474	40577.09
469.679	41699.37
469.885	40515.65
470.09	41363.51
470.295	41324.6
470.5	40761.4
470.705	40888.38
470.91	40009.8
471.115	39333.97
471.32	39833.67
471.525	39508.05
471.73	38873.18
471.935	38428.77
472.139	36905.08
472.344	36974.71
472.549	36796.54
472.754	36298.88
472.959	35207.31
473.164	34394.27
473.369	33560.75
473.574	34334.88
473.778	34109.6
473.983	33345.71
474.188	32522.43
474.393	30855.38
474.598	31127.76
474.802	30300.38
475.007	29722.85
475.212	29741.28
475.417	28733.68
475.621	28377.34
475.826	27937.02
476.031	27138.32
476.235	27029.77
476.44	26738.96
476.645	26239.26
476.849	25774.37
477.054	25755.94
477.259	24873.26
477.463	24813.87
477.668	24074.56
477.872	23927.1
478.077	23697.73
478.282	22759.76
478.486	22845.77
478.691	22448.47
478.895	22235.48
479.1	21864.8
479.304	22010.2
479.509	21207.4
479.713	21459.3
479.918	21150.06
480.122	20638.06
480.326	20707.69
480.531	20769.13
480.735	20486.51
480.94	19923.32
481.144	20578.67
481.348	19747.2
481.553	19784.06
481.757	19308.93
481.961	19665.28
482.166	19480.96
482.37	19399.04
482.574	18717.07
482.778	18549.14
482.983	19224.97
483.187	18512.27
483.391	18420.11
483.595	18289.04
483.8	17969.56
484.004	18239.89
484.208	17904.03
484.412	17340.83
484.616	17502.62
484.821	17408.42
485.025	16904.62
485.229	16955.82
485.433	16837.03
485.637	16538.03
485.841	16153.01
486.045	16101.81
486.249	16052.66
486.453	15456.7
486.657	15610.3
486.861	15196.61
487.065	14809.54
487.269	14764.49
487.473	14371.28
487.677	14590.41
487.881	14324.18
488.085	13900.25
488.289	13742.55
488.493	13357.53
488.697	13423.07
488.901	13072.87
489.105	12726.76
489.309	12591.59
489.512	12474.86
489.716	12153.33
489.92	11919.86
490.124	11715.06
490.328	11733.5
490.531	11262.46
490.735	11067.91
490.939	10979.84
491.143	10906.12
491.346	10535.43
491.55	10473.99
491.754	10320.4
491.958	10269.2
492.161	10076.69
492.365	9814.55
492.569	9603.61
492.772	9402.91
492.976	9312.8
493.18	9320.99
493.383	9316.89
493.587	9026.08
493.79	8981.03
493.994	8804.9
494.197	8946.21
494.401	8610.34
494.605	8602.15
494.808	8563.24
495.012	8378.92
495.215	8362.54
495.419	8401.45
495.622	8180.27
495.825	8088.11
496.029	8167.98
496.232	8413.74
496.436	7791.16
496.639	8067.63
496.843	8024.62
497.046	7991.86
497.249	8170.03
497.453	8008.24
497.656	8014.38
497.859	7946.8
498.063	8063.54
498.266	8254
498.469	7954.99
498.673	8065.58
498.876	8122.93
499.079	8069.68
499.282	8077.87
499.485	8608.3
499.689	8481.32
499.892	8325.68
500.095	8413.74
500.298	8403.5
500.501	8348.2
500.705	8503.85
500.908	8589.86
501.111	8612.39
501.314	8876.58
501.517	8841.76
501.72	8962.59
501.923	8819.24
502.126	9138.72
502.329	9269.79
502.532	9392.67
502.735	9370.14
502.938	9550.36
503.141	9595.42
503.344	9785.88
503.547	9986.58
503.75	9787.93
503.953	10019.35
504.156	10236.43
504.359	10316.3
504.562	10402.32
504.765	10740.23
504.968	10545.67
505.17	10957.32
505.373	10945.03
505.576	11301.37
505.779	11559.42
505.982	11598.33
506.185	11725.3
506.387	11889.14
506.59	12134.9
506.793	12411.37
506.996	12505.58
507.198	12943.85
507.401	13246.94
507.604	13373.92
507.807	13550.04
508.009	13677.02
508.212	14107.09
508.415	14371.28
508.617	14365.14
508.82	14852.55
509.022	14977.48
509.225	15581.63
509.428	15706.56
509.63	16103.86
509.833	16163.25
510.035	16832.94
510.238	17013.16
510.44	17162.66
510.643	18143.64
510.845	18393.49
511.048	18676.11
511.25	18506.13
511.453	19202.44
511.655	20027.77
511.858	19898.75
512.06	20423.03
512.262	20717.93
512.465	21201.26
512.667	21838.17
512.87	22049.11
513.072	22610.26
513.274	23347.53
513.477	23750.98
513.679	24328.5
513.881	24840.5
514.084	25289
514.286	25864.48
514.488	26265.88
514.69	27123.98
514.893	27328.78
515.095	27996.42
515.297	28877.04
515.499	28700.92
515.701	29679.85
515.904	30515.42
516.106	31008.98
516.308	31336.65
516.51	32469.18
516.712	32555.19
516.914	33452.2
517.116	33953.96
517.318	34453.66
517.52	35059.86
517.722	35518.6
517.925	36153.47
518.127	37111.92
518.329	37605.48
518.531	37967.98
518.733	38799.45
518.935	39340.11
519.136	39692.36
519.338	40650.81
519.54	40951.87
519.742	41388.08
519.944	41893.93
520.146	42618.91
520.348	43202.58
520.55	43393.04
520.752	43956.24
520.954	44787.71
521.155	44769.28
521.357	45852.65
521.559	46006.25
521.761	46925.79
521.963	46815.2
522.164	47550.42
522.366	47396.82
522.568	48119.76
522.77	48367.56
522.971	49217.47
523.173	48553.93
523.375	49358.78
523.576	49037.25
523.778	49246.14
523.98	50073.52
524.181	49751.99
524.383	50157.49
524.584	50929.57
524.786	50304.94
524.988	50075.57
525.189	50759.59
525.391	50892.71
525.592	50808.74
525.794	50864.03
525.995	50364.33
526.197	50628.52
526.398	50624.42
526.6	50177.96
526.801	50077.61
527.003	49893.3
527.204	49991.6
527.406	50030.51
527.607	49727.41
527.808	49358.78
528.01	48269.26
528.211	48596.93
528.412	48920.51
528.614	48357.32
528.815	47878.1
529.016	48099.28
529.218	46919.65
529.419	46800.86
529.62	46323.69
529.822	46108.65
530.023	45533.17
530.224	45008.89
530.425	44345.35
530.626	43847.69
530.828	43493.39
531.029	43712.53
531.23	43003.93
531.431	41869.36
531.632	42098.73
531.833	41578.54
532.035	41359.41
532.236	40468.55
532.437	40271.94
532.638	39131.22
532.839	39327.83
533.04	38695
533.241	37812.33
533.442	37974.12
533.643	37427.31
533.844	36757.63
534.045	36372.61
534.246	35379.34
534.447	35381.39
534.648	35133.59
534.849	34455.71
535.05	33761.45
535.251	33358
535.451	32602.3
535.652	32499.9
535.853	31885.51
536.054	31803.59
536.255	31492.3
536.456	30546.14
536.657	30888.15
536.857	30034.14
537.058	29554.92
537.259	29221.1
537.46	29049.07
537.66	28557.56
537.861	27908.35
538.062	27678.98
538.263	27363.59
538.463	26726.67
538.664	26579.22
538.865	26263.83
539.065	26329.37
539.266	25739.55
539.466	25387.3
539.667	24883.5
539.868	25014.57
540.068	24516.92
540.269	23992.64
540.469	23974.2
540.67	23345.48
540.87	23396.68
541.071	23150.92
541.271	22765.9
541.472	22448.47
541.672	22124.89
541.873	21797.21
542.073	21305.7
542.274	21578.08
542.474	21049.71
542.675	21090.66
542.875	20736.37
543.075	20541.81
543.276	20093.3
543.476	20255.09
543.676	19804.54
543.877	19755.39
544.077	19351.94
544.277	19306.88
544.478	18944.39
544.678	18661.77
544.878	18651.53
545.078	18313.62
545.279	18047.38
545.479	17820.06
545.679	17922.46
545.879	17549.73
546.079	17392.03
546.28	17119.65
546.48	16771.5
546.68	16781.74
546.88	16574.89
547.08	16218.55
547.28	16253.36
547.48	15839.67
547.68	15722.94
547.88	15593.92
548.081	15430.08
548.281	15022.53
548.481	14913.99
548.681	14852.55
548.881	14723.53
549.081	14592.46
549.28	14408.14
549.48	14004.69
549.68	13826.52
549.88	14039.51
550.08	13437.41
550.28	13402.59
550.48	13261.28
550.68	13289.95
550.88	12642.79
551.08	12360.17
551.279	12540.4
551.479	12425.71
551.679	12218.86
551.879	11954.68
552.079	11905.52
552.278	11571.71
552.478	11457.02
552.678	11168.26
552.878	10981.89
553.077	11014.66
553.277	10709.51
553.477	10650.12
553.676	10541.58
553.876	10285.58
554.076	10033.68
554.275	9959.95
554.475	9716.25
554.674	9828.88
554.874	9482.78
555.074	9253.41
555.273	9394.72
555.473	9024.03
555.672	8782.37
555.872	8849.96
556.071	8622.63
556.271	8735.27
556.47	8509.99
556.67	8270.38
556.869	8131.12
557.068	7983.66
557.268	7993.9
557.467	7600.69
557.667	7641.65
557.866	7387.71
558.065	7191.1
558.265	7121.47
558.464	6904.39
558.663	7004.74
558.863	6859.33
559.062	6888
559.261	6758.98
559.461	6623.81
559.66	6214.22
559.859	6277.71
560.058	6339.15
560.258	6083.15
560.457	6031.95
560.656	6173.26
560.855	5913.17
561.054	5814.87
561.253	5718.61
561.453	5634.64
561.652	5581.4
561.851	5603.93
562.05	5313.11
562.249	5196.38
562.448	5364.31
562.647	5073.5
562.846	5177.95
563.045	5128.8
563.244	4936.29
563.443	5024.35
563.642	4751.97
563.841	4895.33
564.04	4649.57
564.239	4479.59
564.438	4479.59
564.637	4395.62
564.836	4448.87
565.035	4108.91
565.234	4313.7
565.432	4166.25
565.631	4164.2
565.83	4125.29
566.029	4022.89
566.228	3863.15
566.427	4147.82
566.625	3770.99
566.824	3777.14
567.023	3822.19
567.222	3695.22
567.42	3703.41
567.619	3754.61
567.818	3539.57
568.016	3691.12
568.215	3457.65
568.414	3457.65
568.612	3404.41
568.811	3402.36
569.01	3299.96
569.208	3388.02
569.407	3318.39
569.605	3140.22
569.804	3080.83
570.002	3109.5
570.201	3027.58
570.4	3054.2
570.598	2855.55
570.797	2855.55
570.995	2847.36
571.193	2833.02
571.392	2787.97
571.59	2673.28
571.789	2714.24
571.987	2781.82
572.186	2589.32
572.384	2546.31
572.582	2548.36
572.781	2630.27
572.979	2312.84
573.177	2374.28
573.376	2374.28
573.574	2488.96
573.772	2284.17
573.971	2192.01
574.169	2105.99
574.367	2318.98
574.565	2269.83
574.763	2169.48
574.962	2069.13
575.16	2153.1
575.358	1981.07
575.556	1964.68
575.754	2050.7
575.952	1958.54
576.151	1938.06
576.349	1981.07
576.547	1737.36
576.745	1925.77
576.943	1825.42
577.141	1794.7
577.339	1632.91
577.537	1720.98
577.735	1714.83
577.933	1768.08
578.131	1626.77
578.329	1776.27
578.527	1737.36
578.725	1632.91
578.923	1436.31
579.121	1553.04
579.319	1497.75
579.516	1381.01
579.714	1594
579.912	1383.06
580.11	1278.62
580.308	1374.87
580.506	1327.77
580.704	1280.66
580.901	1360.53
581.099	1450.64
581.297	1340.05
581.495	1247.9
581.692	1223.32
581.89	1450.64
582.088	1286.81
582.285	1266.33
582.483	1196.7
582.681	1311.38
582.878	1170.07
583.076	1157.79
583.274	1211.03
583.471	1276.57
583.669	1106.59
583.866	1088.15
584.064	1127.07
584.262	1034.91
584.459	1014.43
584.657	957.08
584.854	1041.05
585.052	1036.95
585.249	983.71
585.447	1028.76
585.644	881.31
585.841	1057.43
586.039	1071.77
586.236	1110.68
586.434	899.74
586.631	932.51
586.828	848.54
587.026	881.31
587.223	850.59
587.42	762.53
587.618	885.41
587.815	1030.81
588.012	899.74
588.21	756.38
588.407	899.74
588.604	787.1
588.801	735.9
588.999	864.93
589.196	897.69
589.393	676.51
589.59	674.46
589.787	811.68
589.984	789.15
590.182	811.68
590.379	752.29
590.576	768.67
590.773	715.42
590.97	619.17
591.167	766.62
591.364	766.62
591.561	772.77
591.758	856.73
591.955	864.93
592.152	760.48
592.349	725.66
592.546	682.66
592.743	662.18
592.94	791.2
593.137	647.84
593.334	817.82
593.531	821.92
593.727	696.99
593.924	727.71
594.121	729.76
594.318	668.32
594.515	797.34
594.712	914.08
594.908	834.21
595.105	664.22
595.302	750.24
595.499	713.38
595.696	889.5
595.892	725.66
596.089	955.04
596.286	811.68
596.482	942.75
596.679	895.65
596.876	819.87
597.072	1020.57
597.269	920.22
597.466	983.71
597.662	1051.29
597.859	967.32
598.055	1022.62
598.252	1149.59
598.448	1108.63
598.645	1219.22
598.841	1186.46
599.038	1247.9
599.234	1284.76
599.431	1450.64
599.627	1436.31
599.824	1376.92
600.02	1401.49
600.217	1389.21
600.413	1555.09
600.609	1610.39
600.806	1923.73
601.002	1780.37
601.198	1708.69
601.395	1956.49
601.591	2026.12
601.787	2036.36
601.984	2142.86
602.18	2292.36
602.376	2304.65
602.572	2339.46
602.769	2513.54
602.965	2458.25
603.161	2552.45
603.357	2536.07
603.553	2935.42
603.75	2935.42
603.946	2820.74
604.142	3086.97
604.338	3215.99
604.534	3256.95
604.73	3404.41
604.926	3398.26
605.122	3637.88
605.318	3680.88
605.514	3963.5
605.71	3904.11
605.906	4012.65
606.102	4162.16
606.298	4432.49
606.494	4579.94
606.69	4651.62
606.886	4754.02
607.082	4811.36
607.278	4915.81
607.474	5079.65
607.67	5223
607.866	5317.21
608.062	5657.17
608.257	5839.44
608.453	5804.63
608.649	6070.86
608.845	6152.78
609.041	6267.47
609.236	6578.76
609.432	6715.97
609.628	6935.1
609.824	6947.39
610.019	7201.34
610.215	7467.58
610.411	7836.21
610.606	8010.29
610.802	8045.1
610.998	8192.56
611.193	8745.51
611.389	8563.24
611.584	8741.41
611.78	8974.88
611.976	9245.21
612.171	9982.48
612.367	9904.66
612.562	10097.17
612.758	10291.73
612.953	10521.1
613.149	11028.99
613.344	11110.91
613.539	11670.01
613.735	11866.61
613.93	12141.04
614.126	12339.69
614.321	12702.18
614.517	13109.73
614.712	13492.7
614.907	13824.47
615.103	14408.14
615.298	14313.94
615.493	14885.32
615.688	15114.69
615.884	15780.28
616.079	15978.93
616.274	16638.38
616.47	16843.18
616.665	17295.78
616.86	17611.17
617.055	18260.37
617.25	18594.19
617.445	19384.71
617.641	19329.41
617.836	20371.83
618.031	20222.33
618.226	21162.34
618.421	21463.4
618.616	22141.27
618.811	22434.13
619.006	23220.55
619.201	23443.78
619.396	24140.09
619.591	24138.04
619.786	25420.07
619.981	25493.8
620.176	26470.68
620.371	26628.37
620.566	27611.4
620.761	27582.73
620.956	28678.39
621.151	28645.62
621.346	29913.31
621.541	29509.86
621.735	30937.3
621.93	30857.43
622.125	32053.44
622.32	32288.96
622.515	32964.79
622.709	33730.73
622.904	34343.07
623.099	34697.37
623.294	35367.06
623.488	35825.8
623.683	36720.76
623.878	36673.66
624.072	37273.71
624.267	38486.11
624.462	38684.76
624.656	39323.73
624.851	40241.22
625.046	40210.5
625.24	41492.53
625.435	41752.62
625.629	42395.68
625.824	42584.1
626.018	43534.35
626.213	43051.03
626.407	44326.92
626.602	44234.76
626.796	45527.03
626.991	45742.06
627.185	46180.33
627.38	46260.2
627.574	46409.7
627.768	46927.84
627.963	47179.74
628.157	46706.66
628.352	47824.85
628.546	47146.97
628.74	47876.05
628.935	47085.53
629.129	47734.74
629.323	47017.95
629.517	47228.89
629.712	46872.54
629.906	46569.44
630.1	46125.03
630.294	46014.44
630.489	45387.77
630.683	45283.32
630.877	44046.35
631.071	43106.33
631.265	43446.29
631.459	42137.64
631.653	41060.41
631.848	40474.69
632.042	39651.41
632.236	39030.87
632.43	37437.55
632.624	36847.74
632.818	35633.29
633.012	34357.41
633.206	33609.9
633.4	33237.17
633.594	31006.93
633.788	31031.51
633.982	29720.81
634.176	28508.41
634.369	27654.4
634.563	26462.49
634.757	25352.49
634.951	24787.25
635.145	23685.44
635.339	22798.67
635.533	21756.25
635.726	21238.12
635.92	20042.1
636.114	19388.8
636.308	18497.94
636.501	17959.32
636.695	16957.86
636.889	16179.64
637.083	15720.89
637.276	14930.37
637.47	14469.58
637.664	13724.12
637.857	13601.24
638.051	12796.39
638.244	12456.43
638.438	11891.19
638.632	11702.78
638.825	10922.5
639.019	10596.87
639.212	10058.26
639.406	9738.77
639.599	9458.2
639.793	8925.73
639.986	8352.3
640.18	8204.85
640.373	7911.99
640.567	7531.06
640.76	7289.4
640.954	7270.97
641.147	6746.69
641.34	6695.49
641.534	6310.47
641.727	6228.56
641.92	5825.11
642.114	5669.46
642.307	5315.16
642.5	5206.62
642.694	4944.48
642.887	4819.55
643.08	4725.35
643.273	4715.11
643.467	4311.66
643.66	4186.73
643.853	3949.17
644.046	3938.93
644.239	3431.03
644.432	3496.57
644.626	3240.57
644.819	3232.38
645.012	3220.09
645.205	3115.64
645.398	3095.16
645.591	2810.5
645.784	2687.62
645.977	2572.93
646.17	2718.34
646.363	2423.43
646.556	2251.4
646.749	2077.32
646.942	2220.68
647.135	2155.15
647.328	1944.21
647.521	1952.4
647.714	1946.25
647.907	1784.46
648.099	1641.11
648.292	1780.37
648.485	1718.93
648.678	1655.44
648.871	1450.64
649.064	1475.22
649.256	1387.16
649.449	1282.71
649.642	1229.46
649.835	1333.91
650.027	1165.98
650.22	1254.04
650.413	1180.31
650.605	1176.22
650.798	959.13
650.991	1020.57
651.183	1028.76
651.376	901.79
651.568	989.85
651.761	842.4
651.954	862.88
652.146	901.79
652.339	858.78
652.531	893.6
652.724	795.29
652.916	684.7
653.109	567.97
653.301	731.81
653.494	795.29
653.686	688.8
653.879	656.03
654.071	770.72
654.263	633.5
654.456	500.39
654.648	551.59
654.84	606.88
655.033	533.15
655.225	578.21
655.417	475.81
655.61	635.55
655.802	553.63
655.994	600.74
656.186	387.75
656.379	592.55
656.571	430.76
656.763	410.28
656.955	289.45
657.148	438.95
657.34	578.21
657.532	363.17
657.724	428.71
657.916	414.37
658.108	420.52
658.3	441
658.492	445.09
658.684	336.55
658.876	426.66
659.068	236.2
659.26	293.54
659.452	258.73
659.644	348.84
659.836	447.14
660.028	238.25
660.22	268.97
660.412	371.37
660.604	303.78
660.796	342.69
660.988	287.4
661.18	254.63
661.372	268.97
661.563	250.53
661.755	244.39
661.947	209.58
662.139	144.04
662.331	299.69
662.522	275.11
662.714	141.99
662.906	172.71
663.097	230.06
663.289	156.33
663.481	154.28
663.673	281.25
663.864	223.91
664.056	260.77
664.247	178.86
664.439	293.54
664.631	189.1
664.822	242.34
665.014	182.95
665.205	168.62
665.397	258.73
665.588	160.42
665.78	189.1
665.971	238.25
666.163	195.24
666.354	217.77
666.546	78.51
666.737	266.92
666.929	172.71
667.12	88.75
667.311	205.48
667.503	168.62
667.694	168.62
667.885	185
668.077	244.39
668.268	176.81
668.459	176.81
668.651	154.28
668.842	252.58
669.033	103.08
669.224	125.61
669.416	346.79
669.607	105.13
669.798	98.99
669.989	236.2
670.18	117.42
670.371	164.52
670.563	58.03
670.754	225.96
670.945	213.67
671.136	305.83
671.327	170.66
671.518	203.43
671.709	303.78
671.9	213.67
672.091	285.35
672.282	197.29
672.473	148.14
672.664	166.57
672.855	191.14
673.046	148.14
673.237	271.01
673.428	178.86
673.619	291.49
673.809	180.9
674	287.4
674.191	266.92
674.382	170.66
674.573	187.05
674.764	105.13
674.954	174.76
675.145	223.91
675.336	166.57
675.527	127.66
675.717	170.66
675.908	125.61
676.099	123.56
676.289	252.58
676.48	119.46
676.671	150.18
676.861	225.96
677.052	195.24
677.243	166.57
677.433	182.95
677.624	268.97
677.814	228.01
678.005	221.86
678.195	379.56
678.386	236.2
678.576	205.48
678.767	166.57
678.957	262.82
679.148	266.92
679.338	301.73
679.529	209.58
679.719	236.2
679.909	293.54
680.1	295.59
680.29	260.77
680.481	144.04
680.671	336.55
680.861	303.78
681.052	228.01
681.242	256.68
681.432	275.11
681.622	211.62
681.813	176.81
682.003	299.69
682.193	197.29
682.383	213.67
682.573	199.34
682.764	217.77
682.954	273.06
683.144	293.54
683.334	221.86
683.524	266.92
683.714	264.87
683.904	336.55
684.094	254.63
684.284	252.58
684.474	369.32
684.664	266.92
684.854	287.4
685.044	273.06
685.234	211.62
685.424	338.6
685.614	240.3
685.804	391.84
685.994	242.34
686.184	260.77
686.374	311.97
686.564	311.97
686.753	279.21
686.943	254.63
687.133	297.64
687.323	246.44
687.513	299.69
687.702	334.5
687.892	264.87
688.082	268.97
688.272	365.22
688.461	350.89
688.651	414.37
688.841	301.73
689.03	219.82
689.22	309.93
689.41	223.91
689.599	271.01
689.789	174.76
689.979	408.23
690.168	258.73
690.358	303.78
690.547	168.62
690.737	275.11
690.926	242.34
691.116	277.16
691.305	295.59
691.495	303.78
691.684	266.92
691.874	238.25
692.063	182.95
692.252	330.41
692.442	316.07
692.631	189.1
692.82	189.1
693.01	277.16
693.199	187.05
693.388	242.34
693.578	230.06
693.767	359.08
693.956	256.68
694.146	242.34
694.335	357.03
694.524	248.49
694.713	262.82
694.902	199.34
695.092	305.83
695.281	322.21
695.47	234.15
695.659	172.71
695.848	252.58
696.037	203.43
696.226	248.49
696.415	221.86
696.604	281.25
696.793	287.4
696.982	209.58
697.171	314.02
697.36	195.24
697.549	148.14
697.738	139.94
697.927	150.18
698.116	180.9
698.305	285.35
698.494	129.7
698.683	199.34
698.872	305.83
699.061	172.71
699.25	74.41
699.438	221.86
699.627	178.86
699.816	338.6
700.005	119.46
700.193	152.23
700.382	291.49
700.571	277.16
700.76	211.62
700.948	248.49
701.137	266.92
701.326	260.77
701.514	129.7
701.703	250.53
701.892	221.86
702.08	354.98
702.269	172.71
702.457	197.29
702.646	254.63
702.834	156.33
703.023	268.97
703.212	242.34
703.4	262.82
703.589	211.62
703.777	166.57
703.965	146.09
704.154	209.58
704.342	154.28
704.531	180.9
704.719	238.25
704.907	250.53
705.096	146.09
705.284	127.66
705.472	209.58
705.661	234.15
705.849	207.53
706.037	268.97
706.226	180.9
706.414	205.48
706.602	125.61
706.79	215.72
706.979	178.86
707.167	256.68
707.355	80.55
707.543	207.53
707.731	258.73
707.919	228.01
708.107	254.63
708.296	117.42
708.484	174.76
708.672	215.72
708.86	225.96
709.048	262.82
709.236	86.7
709.424	203.43
709.612	271.01
709.8	189.1
709.988	101.03
710.176	273.06
710.364	234.15
710.551	158.38
710.739	211.62
710.927	209.58
711.115	199.34
711.303	305.83
711.491	248.49
711.679	121.51
711.866	254.63
712.054	117.42
712.242	234.15
712.43	357.03
712.617	133.8
712.805	324.26
712.993	141.99
713.181	111.27
713.368	277.16
713.556	248.49
713.744	211.62
713.931	383.65
714.119	195.24
714.306	178.86
714.494	166.57
714.682	252.58
714.869	156.33
715.057	211.62
715.244	107.18
715.432	314.02
715.619	217.77
715.807	195.24
715.994	223.91
716.182	221.86
716.369	225.96
716.556	258.73
716.744	39.59
716.931	164.52
717.119	287.4
717.306	172.71
717.493	240.3
717.681	201.38
717.868	156.33
718.055	283.3
718.242	293.54
718.43	228.01
718.617	324.26
718.804	248.49
718.991	330.41
719.179	277.16
719.366	258.73
719.553	309.93
719.74	262.82
719.927	266.92
720.114	266.92
720.301	152.23
720.488	160.42
720.676	277.16
720.863	234.15
721.05	375.46
721.237	254.63
721.424	254.63
721.611	225.96
721.798	219.82
721.985	228.01
722.172	221.86
722.358	236.2
722.545	412.32
722.732	291.49
722.919	346.79
723.106	309.93
723.293	234.15
723.48	238.25
723.667	246.44
723.853	320.17
724.04	289.45
724.227	320.17
724.414	248.49
724.6	289.45
724.787	344.74
724.974	481.96
725.161	283.3
725.347	258.73
725.534	254.63
725.72	297.64
725.907	326.31
726.094	334.5
726.28	281.25
726.467	303.78
726.653	180.9
726.84	410.28
727.027	373.41
727.213	350.89
727.4	381.6
727.586	348.84
727.773	303.78
727.959	357.03
728.145	264.87
728.332	297.64
728.518	262.82
728.705	309.93
728.891	305.83
729.077	322.21
729.264	307.88
729.45	367.27
729.636	375.46
729.823	303.78
730.009	438.95
730.195	301.73
730.382	320.17
730.568	281.25
730.754	250.53
730.94	311.97
731.126	324.26
731.313	295.59
731.499	336.55
731.685	357.03
731.871	434.85
732.057	336.55
732.243	477.86
732.429	354.98
732.615	432.8
732.801	365.22
732.987	277.16
733.173	357.03
733.359	303.78
733.545	330.41
733.731	346.79
733.917	406.18
734.103	397.99
734.289	424.61
734.475	299.69
734.661	539.3
734.847	348.84
735.033	334.5
735.219	367.27
735.404	381.6
735.59	402.08
735.776	328.36
735.962	463.52
736.148	418.47
736.333	434.85
736.519	336.55
736.705	326.31
736.89	326.31
737.076	365.22
737.262	361.13
737.447	281.25
737.633	330.41
737.819	486.05
738.004	402.08
738.19	406.18
738.375	471.72
738.561	481.96
738.747	385.7
738.932	332.45
739.118	490.15
739.303	490.15
739.489	379.56
739.674	275.11
739.859	332.45
740.045	357.03
740.23	455.33
740.416	326.31
740.601	354.98
740.786	338.6
740.972	357.03
741.157	338.6
741.342	264.87
741.528	354.98
741.713	451.24
741.898	363.17
742.084	395.94
742.269	416.42
742.454	291.49
742.639	391.84
742.824	430.76
743.01	367.27
743.195	541.35
743.38	434.85
743.565	324.26
743.75	359.08
743.935	395.94
744.12	508.58
744.305	279.21
744.49	332.45
744.675	451.24
744.86	367.27
745.045	330.41
745.23	381.6
745.415	371.37
745.6	463.52
745.785	273.06
745.97	453.28
746.155	395.94
746.34	477.86
746.525	354.98
746.71	447.14
746.895	219.82
747.079	289.45
747.264	379.56
747.449	400.04
747.634	387.75
747.819	434.85
748.003	438.95
748.188	334.5
748.373	453.28
748.557	379.56
748.742	338.6
748.927	391.84
749.111	262.82
749.296	365.22
749.481	359.08
749.665	387.75
749.85	320.17
750.034	387.75
750.219	352.93
750.404	252.58
750.588	410.28
750.773	185
750.957	320.17
751.141	258.73
751.326	424.61
751.51	299.69
751.695	285.35
751.879	314.02
752.064	402.08
752.248	301.73
752.432	412.32
752.617	389.8
752.801	408.23
752.985	342.69
753.17	322.21
753.354	336.55
753.538	279.21
753.722	234.15
753.907	322.21
754.091	209.58
754.275	291.49
754.459	207.53
754.643	170.66
754.828	320.17
755.012	217.77
755.196	162.47
755.38	287.4
755.564	178.86
755.748	316.07
755.932	279.21
756.116	246.44
756.3	363.17
756.484	154.28
756.668	369.32
756.852	160.42
757.036	279.21
757.22	258.73
757.404	189.1
757.588	268.97
757.772	316.07
757.956	182.95
758.14	377.51
758.323	238.25
758.507	246.44
758.691	277.16
758.875	332.45
759.059	283.3
759.242	228.01
759.426	326.31
759.61	234.15
759.794	96.94
759.977	311.97
760.161	447.14
760.345	340.65
760.528	344.74
760.712	352.93
760.895	164.52
761.079	174.76
761.263	287.4
761.446	92.84
761.63	182.95
761.813	291.49
761.997	176.81
762.18	246.44
762.364	185
762.547	92.84
762.731	131.75
762.914	182.95
763.098	180.9
763.281	221.86
763.464	172.71
763.648	266.92
763.831	133.8
764.015	80.55
764.198	277.16
764.381	187.05
764.564	162.47
764.748	160.42
764.931	254.63
765.114	189.1
765.297	246.44
765.481	107.18
765.664	176.81
765.847	154.28
766.03	223.91
766.213	150.18
766.397	197.29
766.58	41.64
766.763	217.77
766.946	152.23
767.129	86.7
767.312	107.18
767.495	191.14
767.678	209.58
767.861	232.1
768.044	174.76
768.227	58.03
768.41	103.08
768.593	174.76
768.776	101.03
768.959	103.08
769.142	209.58
769.324	150.18
769.507	199.34
769.69	109.23
769.873	185
770.056	369.32
770.239	144.04
770.421	187.05
770.604	203.43
770.787	144.04
770.97	197.29
771.152	74.41
771.335	207.53
771.518	111.27
771.7	244.39
771.883	228.01
772.066	96.94
772.248	187.05
772.431	234.15
772.613	207.53
772.796	158.38
772.978	162.47
773.161	211.62
773.343	107.18
773.526	6.83
773.708	31.4
773.891	96.94
774.073	135.85
774.256	86.7
774.438	266.92
774.621	139.94
774.803	215.72
774.985	107.18
775.168	203.43
775.35	115.37
775.532	185
775.715	166.57
775.897	125.61
776.079	49.83
776.261	189.1
776.444	154.28
776.626	133.8
776.808	60.07
776.99	37.55
777.173	148.14
777.355	72.36
777.537	88.75
777.719	88.75
777.901	84.65
778.083	6.83
778.265	64.17
778.447	197.29
778.629	68.27
778.811	168.62
778.993	127.66
779.175	137.9
779.357	94.89
779.539	43.69
779.721	15.02
779.903	90.79
780.085	17.07
780.267	135.85
780.449	109.23
780.631	131.75
780.812	189.1
780.994	129.7
781.176	115.37
781.358	92.84
781.54	113.32
781.721	117.42
781.903	139.94
782.085	66.22
782.267	101.03
782.448	12.97
782.63	27.31
782.812	111.27
782.993	189.1
783.175	137.9
783.357	64.17
783.538	98.99
783.72	33.45
783.901	76.46
784.083	121.51
784.264	82.6
784.446	-17.75
784.627	31.4
784.809	148.14
784.99	51.88
785.172	129.7
785.353	107.18
785.535	86.7
785.716	-19.8
785.897	72.36
786.079	94.89
786.26	146.09
786.441	39.59
786.623	-32.08
786.804	82.6
786.985	23.21
787.167	109.23
787.348	6.83
787.529	131.75
787.71	172.71
787.891	109.23
788.073	25.26
788.254	-81.24
788.435	158.38
788.616	88.75
788.797	0.68
788.978	103.08
789.159	107.18
789.34	129.7
789.522	58.03
789.703	33.45
789.884	117.42
790.065	39.59
790.246	162.47
790.427	0.68
790.607	137.9
790.788	115.37
790.969	4.78
791.15	86.7
791.331	109.23
791.512	15.02
791.693	-13.65
791.874	-3.41
792.054	285.35
792.235	148.14
792.416	12.97
792.597	19.11
792.778	115.37
792.958	96.94
793.139	78.51
793.32	47.79
793.5	45.74
793.681	164.52
793.862	74.41
794.042	4.78
794.223	21.16
794.404	23.21
794.584	-58.71
794.765	133.8
794.945	62.12
795.126	90.79
795.306	111.27
795.487	17.07
795.667	17.07
795.848	47.79
796.028	-19.8
796.209	33.45
796.389	109.23
796.57	53.93
796.75	10.92
796.93	53.93
797.111	8.87
797.291	64.17
797.471	168.62
797.652	94.89
797.832	-114
798.012	74.41
798.192	-44.37
798.373	-36.18
798.553	-25.94
798.733	105.13
798.913	-60.76
799.093	35.5
799.274	53.93
799.454	62.12
799.634	150.18
799.814	127.66
799.994	53.93
800.174	111.27
800.354	33.45
800.534	0.68
800.714	43.69
800.894	-13.65
801.074	15.02
801.254	-36.18
801.434	176.81
801.614	51.88
801.794	-11.61
801.974	1862.29
802.154	31.4
802.334	33.45
802.514	6.83
802.693	10.92
802.873	-21.84
803.053	121.51
803.233	90.79
803.413	53.93
803.592	-34.13
803.772	-30.04
803.952	58.03
804.131	-50.52
804.311	37.55
804.491	164.52
804.67	-50.52
804.85	-9.56
805.03	33.45
805.209	131.75
805.389	98.99
805.568	-7.51
805.748	49.83
805.928	62.12
806.107	31.4
806.287	58.03
806.466	41.64
806.646	39.59
806.825	35.5
807.004	39.59
807.184	41.64
807.363	53.93
807.543	19.11
807.722	-27.99
807.901	144.04
808.081	121.51
808.26	-99.67
808.439	-13.65
808.619	45.74
808.798	-136.53
808.977	84.65
809.156	139.94
809.336	78.51
809.515	66.22
809.694	-36.18
809.873	-11.61
810.052	15.02
810.231	144.04
810.411	129.7
810.59	49.83
810.769	76.46
810.948	117.42
811.127	-48.47
811.306	-32.08
811.485	-50.52
811.664	150.18
811.843	-5.46
812.022	47.79
812.201	15.02
812.38	31.4
812.559	41.64
812.737	39.59
812.916	-32.08
813.095	15.02
813.274	39.59
813.453	10.92
813.632	72.36
813.811	68.27
813.989	-81.24
814.168	105.13
814.347	-21.84
814.526	31.4
814.704	107.18
814.883	176.81
815.062	-109.91
815.24	74.41
815.419	-66.9
815.598	62.12
815.776	-85.33
815.955	51.88
816.133	-93.52
816.312	60.07
816.49	-30.04
816.669	37.55
816.847	47.79
817.026	-7.51
817.204	0.68
817.383	-13.65
817.561	-3.41
817.74	123.56
817.918	66.22
818.097	-36.18
818.275	55.98
818.453	86.7
818.632	90.79
818.81	0.68
818.988	-19.8
819.167	8.87
819.345	-7.51
819.523	37.55
819.701	35.5
819.879	27.31
820.058	-9.56
820.236	6.83
820.414	66.22
820.592	8.87
820.77	-19.8
820.948	-5.46
821.127	-36.18
821.305	127.66
821.483	-36.18
821.661	62.12
821.839	-1.37
822.017	-58.71
822.195	-42.32
822.373	80.55
822.551	-11.61
822.729	66.22
822.907	-54.61
823.085	135.85
823.262	43.69
823.44	27.31
823.618	-5.46
823.796	62.12
823.974	-17.75
824.152	31.4
824.329	19.11
824.507	51.88
824.685	8.87
824.863	-7.51
825.04	41.64
825.218	76.46
825.396	-13.65
825.574	-19.8
825.751	6.83
825.929	62.12
826.107	-38.23
826.284	4.78
826.462	27.31
826.639	-25.94
826.817	-36.18
826.994	-3.41
827.172	-101.72
827.349	109.23
827.527	64.17
827.704	64.17
827.882	105.13
828.059	88.75
828.237	-15.7
828.414	55.98
828.591	-107.86
828.769	68.27
828.946	-68.95
829.124	96.94
829.301	119.46
829.478	82.6
829.655	68.27
829.833	53.93
830.01	-50.52
830.187	37.55
830.364	-54.61
830.542	55.98
830.719	41.64
830.896	66.22
831.073	107.18
831.25	90.79
831.427	60.07
831.604	27.31
831.782	-36.18
831.959	-3.41
832.136	35.5
832.313	25.26
832.49	-42.32
832.667	90.79
832.844	-15.7
833.021	98.99
833.198	-15.7
833.374	27.31
833.551	15.02
833.728	8.87
833.905	90.79
834.082	-97.62
834.259	98.99
834.436	123.56
834.612	-13.65
834.789	84.65
834.966	62.12
835.143	8.87
835.319	-30.04
835.496	64.17
835.673	41.64
835.85	43.69
836.026	31.4
836.203	86.7
836.38	-40.28
836.556	49.83
836.733	-27.99
836.909	111.27
837.086	-38.23
837.262	-62.8
837.439	29.35
837.616	-91.48
837.792	-46.42
837.968	62.12
838.145	-97.62
838.321	23.21
838.498	64.17
838.674	47.79
838.851	2.73
839.027	-3.41
839.203	-21.84
839.38	-9.56
839.556	-30.04
839.732	64.17
839.909	2.73
840.085	70.31
840.261	-56.66
840.437	15.02
840.614	45.74
840.79	47.79
840.966	117.42
841.142	-17.75
841.318	74.41
841.494	29.35
841.671	29.35
841.847	-13.65
842.023	-68.95
842.199	90.79
842.375	160.42
842.551	-150.87
842.727	-17.75
842.903	230.06
843.079	-122.2
843.255	129.7
843.431	-21.84
843.607	76.46
843.783	-111.96
843.959	12.97
844.134	-62.8
844.31	162.47
844.486	-77.14
844.662	-44.37
844.838	4.78
845.013	55.98
845.189	70.31
845.365	45.74
845.541	-42.32
845.716	-34.13
845.892	84.65
846.068	-23.89
846.244	6.83
846.419	29.35
846.595	78.51
846.77	-58.71
846.946	148.14
847.122	-64.85
847.297	-54.61
847.473	84.65
847.648	-99.67
847.824	43.69
847.999	-157.01
848.175	-54.61
848.35	25.26
848.526	98.99
848.701	68.27
848.876	0.68
849.052	51.88
849.227	0.68
849.403	-1.37
849.578	49.83
849.753	66.22
849.929	41.64
850.104	-114
850.279	15.02
850.454	-1.37
850.63	29.35
850.805	23.21
850.98	-27.99
851.155	-60.76
851.33	70.31
851.505	-111.96
851.681	84.65
851.856	-56.66
852.031	-5.46
852.206	41.64
852.381	-13.65
852.556	-73.04
852.731	66.22
852.906	92.84
853.081	39.59
853.256	152.23
853.431	6.83
853.606	-7.51
853.781	-36.18
853.956	-95.57
854.131	0.68
854.305	-21.84
854.48	-44.37
854.655	-52.56
854.83	-46.42
855.005	-25.94
855.18	31.4
855.354	-81.24
855.529	51.88
855.704	10.92
855.879	66.22
856.053	-48.47
856.228	39.59
856.403	-85.33
856.577	49.83
856.752	-95.57
856.926	25.26
857.101	-23.89
857.276	-89.43
857.45	152.23
857.625	31.4
857.799	-11.61
857.974	15.02
858.148	-109.91
858.323	35.5
858.497	-73.04
858.672	-38.23
858.846	-64.85
859.02	37.55
859.195	-73.04
859.369	-25.94
859.543	21.16
859.718	29.35
859.892	17.07
860.066	31.4
860.241	-81.24
860.415	-40.28
860.589	-46.42
860.763	-25.94
860.938	-48.47
861.112	39.59
861.286	-9.56
861.46	-7.51
861.634	21.16
861.808	72.36
861.982	-11.61
862.157	-46.42
862.331	-21.84
862.505	-77.14
862.679	-77.14
862.853	-5.46
863.027	-44.37
863.201	168.62
863.375	-3.41
863.549	35.5
863.722	53.93
863.896	158.38
864.07	-91.48
864.244	8.87
864.418	55.98
864.592	-48.47
864.766	45.74
864.939	2.73
865.113	-36.18
865.287	111.27
865.461	-48.47
865.634	21.16
865.808	-68.95
865.982	-54.61
866.156	-83.28
866.329	-79.19
866.503	-27.99
866.676	80.55
866.85	-19.8
867.024	-21.84
867.197	82.6
867.371	60.07
867.544	10.92
867.718	-93.52
867.891	78.51
868.065	-101.72
868.238	-1.37
868.412	12.97
868.585	35.5
868.759	-40.28
868.932	0.68
869.105	-48.47
869.279	-42.32
869.452	-81.24
869.625	113.32
869.799	17.07
869.972	-30.04
870.145	-60.76
870.319	21.16
870.492	-54.61
870.665	-3.41
870.838	-54.61
871.011	-19.8
871.185	49.83
871.358	2.73
871.531	62.12
871.704	8.87
871.877	49.83
872.05	0.68
872.223	-107.86
872.396	137.9
872.569	15.02
872.742	-77.14
872.915	21.16
873.088	-48.47
873.261	-107.86
873.434	62.12
873.607	-56.66
873.78	107.18
873.953	-79.19
874.126	21.16
874.299	107.18
874.471	-44.37
874.644	-30.04
874.817	-1.37
874.99	129.7
875.163	-62.8
875.335	0.68
875.508	15.02
875.681	92.84
875.853	-11.61
876.026	-32.08
876.199	37.55
876.371	64.17
876.544	-13.65
876.717	-95.57
876.889	-44.37
877.062	31.4
877.234	-85.33
877.407	-7.51
877.579	0.68
877.752	17.07
877.924	84.65
878.097	47.79
878.269	-46.42
878.442	31.4
878.614	76.46
878.786	6.83
878.959	29.35
879.131	49.83
879.303	-85.33
879.476	-17.75
879.648	123.56
879.82	4.78
879.993	-40.28
880.165	-83.28
880.337	-60.76
880.509	-15.7
880.681	-73.04
880.854	0.68
881.026	68.27
881.198	152.23
881.37	31.4
881.542	-99.67
881.714	66.22
881.886	-75.09
882.058	62.12
882.23	-30.04
882.402	2.73
882.574	17.07
882.746	64.17
882.918	98.99
883.09	0.68
883.262	15.02
883.434	-32.08
883.606	-85.33
883.778	17.07
883.95	164.52
884.122	25.26
884.293	15.02
884.465	-68.95
884.637	29.35
884.809	-85.33
884.98	27.31
885.152	64.17
885.324	86.7
885.496	-58.71
885.667	-56.66
885.839	-52.56
886.011	133.8
886.182	76.46
886.354	127.66
886.525	-7.51
886.697	-23.89
886.869	-50.52
887.04	60.07
887.212	92.84
887.383	168.62
887.555	47.79
887.726	-17.75
887.897	-38.23
888.069	8.87
888.24	60.07
888.412	23.21
888.583	-52.56
888.754	-34.13
888.926	-126.29
889.097	-34.13
889.268	-73.04
889.44	-1.37
889.611	-93.52
889.782	-17.75
889.953	-44.37
890.125	115.37
890.296	-107.86
890.467	-23.89
890.638	8.87
890.809	47.79
890.98	-85.33
891.151	27.31
891.323	103.08
891.494	8.87
891.665	-34.13
891.836	-25.94
892.007	-9.56
892.178	-79.19
892.349	-30.04
892.52	-48.47
892.691	39.59
892.862	-114
893.032	-132.44
893.203	-27.99
893.374	-21.84
893.545	109.23
893.716	-105.81
893.887	115.37
894.057	6.83
894.228	-17.75
894.399	-32.08
894.57	90.79
894.74	25.26
894.911	-7.51
895.082	-38.23
895.253	-27.99
895.423	35.5
895.594	64.17
895.764	-30.04
895.935	-83.28
896.106	43.69
896.276	-75.09
896.447	23.21
896.617	-9.56
896.788	-62.8
896.958	-3.41
897.129	-13.65
897.299	-46.42
897.47	74.41
897.64	82.6
897.81	-11.61
897.981	29.35
898.151	-56.66
898.322	78.51
898.492	-15.7
898.662	-42.32
898.832	-13.65
899.003	-52.56
899.173	17.07
899.343	39.59
899.513	-54.61
