Data from USB4F104151__116__10-36-31-922.txt Node

Date: Wed Feb 26 10:36:31 EST 2025
User: louis
Spectrometer: USB4F10415
Trigger mode: 4
Integration Time (sec): 1.000000E-1
Scans to average: 1
Electric dark correction enabled: true
Nonlinearity correction enabled: false
Boxcar width: 0
XAxis mode: Wavelengths
Number of Pixels in Spectrum: 3648
>>>>>Begin Spectral Data<<<<<
178.204	-377.85
178.424	-377.85
178.644	-377.85
178.864	-394.23
179.084	-412.67
179.304	7.17
179.524	15.36
179.744	-54.27
179.964	-11.26
180.184	7.17
180.404	3.07
180.624	3.07
180.844	41.98
181.064	-93.18
181.283	66.56
181.503	-27.65
181.723	41.98
181.943	-64.51
182.163	207.87
182.383	-23.55
182.602	33.79
182.822	146.43
183.042	48.13
183.262	-25.6
183.482	-27.65
183.701	15.36
183.921	60.42
184.141	-64.51
184.361	95.23
184.58	101.37
184.8	140.29
185.02	48.13
185.239	177.15
185.459	144.38
185.679	101.37
185.898	-152.57
186.118	17.41
186.338	35.84
186.557	175.1
186.777	-11.26
186.997	-7.17
187.216	87.04
187.436	193.53
187.655	105.47
187.875	101.37
188.095	9.22
188.314	156.67
188.534	105.47
188.753	-31.74
188.973	130.05
189.192	259.07
189.412	-7.17
189.631	41.98
189.851	156.67
190.07	107.52
190.29	21.5
190.509	-37.89
190.729	62.46
190.948	136.19
191.168	228.35
191.387	54.27
191.607	-11.26
191.826	54.27
192.045	136.19
192.265	-41.98
192.484	29.7
192.704	31.74
192.923	-58.37
193.142	218.11
193.362	154.62
193.581	109.57
193.8	140.29
194.02	152.57
194.239	72.7
194.458	109.57
194.678	11.26
194.897	115.71
195.116	37.89
195.335	41.98
195.555	60.42
195.774	7.17
195.993	132.09
196.212	95.23
196.432	25.6
196.651	72.7
196.87	11.26
197.089	201.72
197.308	66.56
197.528	76.8
197.747	-50.18
197.966	60.42
198.185	109.57
198.404	-37.89
198.623	97.28
198.842	78.85
199.062	48.13
199.281	203.77
199.5	15.36
199.719	111.61
199.938	87.04
200.157	121.85
200.376	134.14
200.595	150.53
200.814	138.24
201.033	-27.65
201.252	136.19
201.471	74.75
201.69	46.08
201.909	78.85
202.128	138.24
202.347	99.33
202.566	1.02
202.785	-13.31
203.004	35.84
203.223	175.1
203.442	-68.61
203.661	-17.41
203.879	70.65
204.098	140.29
204.317	-46.08
204.536	111.61
204.755	84.99
204.974	99.33
205.193	13.31
205.411	128
205.63	89.09
205.849	52.22
206.068	52.22
206.287	-54.27
206.505	132.09
206.724	7.17
206.943	-7.17
207.162	-31.74
207.381	80.89
207.599	72.7
207.818	113.66
208.037	-17.41
208.255	-50.18
208.474	66.56
208.693	80.89
208.911	48.13
209.13	164.86
209.349	76.8
209.567	76.8
209.786	68.61
210.005	136.19
210.223	54.27
210.442	-146.43
210.661	62.46
210.879	105.47
211.098	97.28
211.316	19.46
211.535	125.95
211.753	9.22
211.972	87.04
212.191	29.7
212.409	50.18
212.628	97.28
212.846	17.41
213.065	52.22
213.283	150.53
213.502	52.22
213.72	21.5
213.938	68.61
214.157	-9.22
214.375	148.48
214.594	84.99
214.812	58.37
215.031	64.51
215.249	7.17
215.467	74.75
215.686	-7.17
215.904	101.37
216.122	21.5
216.341	205.82
216.559	91.13
216.778	105.47
216.996	89.09
217.214	-17.41
217.432	19.46
217.651	1.02
217.869	80.89
218.087	23.55
218.306	-46.08
218.524	64.51
218.742	48.13
218.96	195.58
219.179	-29.7
219.397	37.89
219.615	242.68
219.833	134.14
220.051	-48.13
220.27	144.38
220.488	119.81
220.706	70.65
220.924	-1.02
221.142	23.55
221.36	84.99
221.578	74.75
221.796	21.5
222.015	54.27
222.233	119.81
222.451	175.1
222.669	-27.65
222.887	101.37
223.105	46.08
223.323	35.84
223.541	-35.84
223.759	48.13
223.977	101.37
224.195	173.05
224.413	105.47
224.631	-3.07
224.849	50.18
225.067	199.68
225.285	-37.89
225.503	39.94
225.721	-29.7
225.939	52.22
226.157	95.23
226.375	248.83
226.592	3.07
226.81	-7.17
227.028	70.65
227.246	195.58
227.464	13.31
227.682	115.71
227.9	70.65
228.117	31.74
228.335	33.79
228.553	35.84
228.771	-37.89
228.989	33.79
229.206	95.23
229.424	13.31
229.642	66.56
229.86	-35.84
230.077	168.96
230.295	58.37
230.513	91.13
230.731	72.7
230.948	128
231.166	148.48
231.384	15.36
231.601	-66.56
231.819	197.63
232.037	13.31
232.254	7.17
232.472	72.7
232.689	35.84
232.907	134.14
233.125	3.07
233.342	13.31
233.56	84.99
233.777	82.94
233.995	-11.26
234.213	183.29
234.43	74.75
234.648	78.85
234.865	15.36
235.083	46.08
235.3	84.99
235.518	76.8
235.735	199.68
235.953	117.76
236.17	60.42
236.388	44.03
236.605	105.47
236.822	140.29
237.04	56.32
237.257	64.51
237.475	23.55
237.692	41.98
237.909	46.08
238.127	27.65
238.344	97.28
238.562	62.46
238.779	-84.99
238.996	-11.26
239.214	37.89
239.431	64.51
239.648	66.56
239.865	62.46
240.083	64.51
240.3	23.55
240.517	5.12
240.735	105.47
240.952	150.53
241.169	9.22
241.386	87.04
241.603	41.98
241.821	52.22
242.038	99.33
242.255	158.72
242.472	-39.94
242.689	78.85
242.907	44.03
243.124	130.05
243.341	56.32
243.558	39.94
243.775	-1.02
243.992	-15.36
244.209	117.76
244.426	222.2
244.643	91.13
244.86	70.65
245.078	44.03
245.295	76.8
245.512	84.99
245.729	-31.74
245.946	54.27
246.163	111.61
246.38	121.85
246.597	62.46
246.814	93.18
247.031	58.37
247.248	-46.08
247.464	89.09
247.681	44.03
247.898	78.85
248.115	60.42
248.332	9.22
248.549	29.7
248.766	175.1
248.983	60.42
249.2	17.41
249.417	84.99
249.633	-1.02
249.85	84.99
250.067	23.55
250.284	107.52
250.501	56.32
250.717	123.9
250.934	-41.98
251.151	50.18
251.368	-5.12
251.585	107.52
251.801	140.29
252.018	-27.65
252.235	105.47
252.451	5.12
252.668	91.13
252.885	171.01
253.102	54.27
253.318	29.7
253.535	-33.79
253.752	-35.84
253.968	-56.32
254.185	-58.37
254.401	91.13
254.618	44.03
254.835	-23.55
255.051	136.19
255.268	82.94
255.484	72.7
255.701	54.27
255.917	132.09
256.134	-23.55
256.351	-9.22
256.567	29.7
256.784	39.94
257	-9.22
257.217	101.37
257.433	173.05
257.65	109.57
257.866	130.05
258.082	-27.65
258.299	80.89
258.515	39.94
258.732	29.7
258.948	39.94
259.165	11.26
259.381	-13.31
259.597	48.13
259.814	87.04
260.03	35.84
260.246	52.22
260.463	82.94
260.679	201.72
260.895	101.37
261.112	15.36
261.328	-7.17
261.544	23.55
261.761	134.14
261.977	-60.42
262.193	-23.55
262.409	123.9
262.626	87.04
262.842	11.26
263.058	56.32
263.274	50.18
263.49	39.94
263.707	87.04
263.923	56.32
264.139	-103.42
264.355	-13.31
264.571	74.75
264.787	121.85
265.004	101.37
265.22	33.79
265.436	-21.5
265.652	7.17
265.868	48.13
266.084	7.17
266.3	35.84
266.516	-37.89
266.732	56.32
266.948	48.13
267.164	60.42
267.38	146.43
267.596	80.89
267.812	179.2
268.028	125.95
268.244	-13.31
268.46	121.85
268.676	37.89
268.892	128
269.108	7.17
269.324	-11.26
269.54	-27.65
269.756	123.9
269.972	-9.22
270.188	-11.26
270.403	-60.42
270.619	41.98
270.835	134.14
271.051	39.94
271.267	-89.09
271.483	9.22
271.698	99.33
271.914	78.85
272.13	76.8
272.346	46.08
272.562	66.56
272.777	158.72
272.993	-50.18
273.209	72.7
273.425	117.76
273.64	-35.84
273.856	93.18
274.072	-13.31
274.287	-54.27
274.503	23.55
274.719	72.7
274.934	-48.13
275.15	-66.56
275.366	27.65
275.581	-29.7
275.797	33.79
276.012	84.99
276.228	-33.79
276.444	41.98
276.659	138.24
276.875	-56.32
277.09	1.02
277.306	95.23
277.521	33.79
277.737	70.65
277.952	52.22
278.168	62.46
278.383	50.18
278.599	66.56
278.814	41.98
279.03	-5.12
279.245	87.04
279.461	93.18
279.676	130.05
279.892	70.65
280.107	-41.98
280.322	-23.55
280.538	113.66
280.753	-33.79
280.969	35.84
281.184	23.55
281.399	140.29
281.615	48.13
281.83	-9.22
282.045	-9.22
282.26	-27.65
282.476	76.8
282.691	87.04
282.906	113.66
283.122	64.51
283.337	-46.08
283.552	48.13
283.767	-5.12
283.983	125.95
284.198	29.7
284.413	62.46
284.628	-1.02
284.843	72.7
285.058	93.18
285.274	3.07
285.489	3.07
285.704	78.85
285.919	25.6
286.134	80.89
286.349	31.74
286.564	87.04
286.779	119.81
286.995	-7.17
287.21	-66.56
287.425	95.23
287.64	-48.13
287.855	66.56
288.07	-19.46
288.285	121.85
288.5	136.19
288.715	76.8
288.93	33.79
289.145	15.36
289.36	80.89
289.575	-11.26
289.79	97.28
290.004	-21.5
290.219	136.19
290.434	31.74
290.649	-41.98
290.864	-11.26
291.079	9.22
291.294	119.81
291.509	60.42
291.724	-23.55
291.938	-23.55
292.153	29.7
292.368	-35.84
292.583	93.18
292.798	91.13
293.012	76.8
293.227	76.8
293.442	-72.7
293.657	113.66
293.871	101.37
294.086	56.32
294.301	138.24
294.516	211.96
294.73	29.7
294.945	-66.56
295.16	70.65
295.374	97.28
295.589	95.23
295.804	-66.56
296.018	-19.46
296.233	171.01
296.447	107.52
296.662	39.94
296.877	72.7
297.091	48.13
297.306	-13.31
297.52	41.98
297.735	109.57
297.949	60.42
298.164	50.18
298.378	128
298.593	48.13
298.807	41.98
299.022	56.32
299.236	189.44
299.451	23.55
299.665	99.33
299.88	74.75
300.094	64.51
300.309	7.17
300.523	117.76
300.737	-48.13
300.952	89.09
301.166	78.85
301.381	44.03
301.595	25.6
301.809	41.98
302.024	111.61
302.238	29.7
302.452	140.29
302.667	19.46
302.881	103.42
303.095	27.65
303.309	117.76
303.524	56.32
303.738	58.37
303.952	54.27
304.166	99.33
304.381	-95.23
304.595	144.38
304.809	25.6
305.023	46.08
305.237	84.99
305.452	56.32
305.666	80.89
305.88	33.79
306.094	99.33
306.308	-19.46
306.522	130.05
306.736	58.37
306.95	193.53
307.164	13.31
307.379	27.65
307.593	189.44
307.807	181.25
308.021	89.09
308.235	60.42
308.449	-52.22
308.663	39.94
308.877	267.26
309.091	58.37
309.305	87.04
309.519	-68.61
309.733	123.9
309.947	7.17
310.161	113.66
310.374	93.18
310.588	142.33
310.802	-56.32
311.016	52.22
311.23	154.62
311.444	-23.55
311.658	44.03
311.872	130.05
312.085	41.98
312.299	195.58
312.513	183.29
312.727	134.14
312.941	-3.07
313.154	89.09
313.368	33.79
313.582	31.74
313.796	132.09
314.009	-9.22
314.223	109.57
314.437	-3.07
314.651	89.09
314.864	25.6
315.078	91.13
315.292	-97.28
315.505	15.36
315.719	89.09
315.933	166.91
316.146	21.5
316.36	-7.17
316.573	201.72
316.787	148.48
317.001	99.33
317.214	-9.22
317.428	52.22
317.641	-21.5
317.855	3.07
318.068	35.84
318.282	3.07
318.495	177.15
318.709	54.27
318.922	39.94
319.136	132.09
319.349	164.86
319.563	-52.22
319.776	103.42
319.99	-76.8
320.203	5.12
320.417	44.03
320.63	84.99
320.843	148.48
321.057	5.12
321.27	54.27
321.483	48.13
321.697	93.18
321.91	74.75
322.124	132.09
322.337	93.18
322.55	15.36
322.763	78.85
322.977	-13.31
323.19	119.81
323.403	11.26
323.617	33.79
323.83	193.53
324.043	27.65
324.256	41.98
324.469	-60.42
324.683	121.85
324.896	119.81
325.109	33.79
325.322	-37.89
325.535	123.9
325.748	33.79
325.962	35.84
326.175	76.8
326.388	5.12
326.601	142.33
326.814	29.7
327.027	134.14
327.24	105.47
327.453	-89.09
327.666	56.32
327.879	99.33
328.092	50.18
328.305	68.61
328.518	-23.55
328.731	-44.03
328.944	19.46
329.157	109.57
329.37	-33.79
329.583	242.68
329.796	162.81
330.009	27.65
330.222	76.8
330.435	128
330.648	54.27
330.861	70.65
331.073	146.43
331.286	56.32
331.499	97.28
331.712	97.28
331.925	13.31
332.138	17.41
332.35	87.04
332.563	9.22
332.776	125.95
332.989	-1.02
333.202	11.26
333.414	3.07
333.627	21.5
333.84	107.52
334.053	103.42
334.265	31.74
334.478	-7.17
334.691	60.42
334.903	-11.26
335.116	5.12
335.329	-7.17
335.541	3.07
335.754	191.49
335.966	13.31
336.179	31.74
336.392	-21.5
336.604	-17.41
336.817	91.13
337.029	91.13
337.242	105.47
337.454	134.14
337.667	29.7
337.88	234.49
338.092	-17.41
338.305	146.43
338.517	-23.55
338.729	54.27
338.942	220.16
339.154	-105.47
339.367	-46.08
339.579	130.05
339.792	9.22
340.004	164.86
340.217	15.36
340.429	66.56
340.641	-7.17
340.854	76.8
341.066	-7.17
341.278	103.42
341.491	224.25
341.703	80.89
341.915	-62.46
342.128	66.56
342.34	115.71
342.552	-15.36
342.764	109.57
342.977	-13.31
343.189	66.56
343.401	84.99
343.613	-37.89
343.826	37.89
344.038	-25.6
344.25	60.42
344.462	-52.22
344.674	70.65
344.886	95.23
345.099	33.79
345.311	-23.55
345.523	46.08
345.735	-39.94
345.947	46.08
346.159	-5.12
346.371	-25.6
346.583	21.5
346.795	177.15
347.007	35.84
347.219	144.38
347.431	7.17
347.643	125.95
347.855	-5.12
348.067	134.14
348.279	-82.94
348.491	15.36
348.703	76.8
348.915	-5.12
349.127	23.55
349.339	62.46
349.551	1.02
349.763	84.99
349.975	78.85
350.187	166.91
350.399	132.09
350.61	97.28
350.822	-21.5
351.034	117.76
351.246	-27.65
351.458	142.33
351.669	130.05
351.881	93.18
352.093	148.48
352.305	121.85
352.517	91.13
352.728	121.85
352.94	9.22
353.152	103.42
353.363	44.03
353.575	58.37
353.787	113.66
353.999	64.51
354.21	193.53
354.422	9.22
354.633	78.85
354.845	27.65
355.057	50.18
355.268	95.23
355.48	56.32
355.692	-41.98
355.903	89.09
356.115	-3.07
356.326	-5.12
356.538	68.61
356.749	93.18
356.961	78.85
357.172	-70.65
357.384	-52.22
357.595	177.15
357.807	-1.02
358.018	-35.84
358.23	37.89
358.441	142.33
358.653	50.18
358.864	-25.6
359.075	56.32
359.287	68.61
359.498	144.38
359.709	152.57
359.921	125.95
360.132	5.12
360.344	52.22
360.555	89.09
360.766	70.65
360.977	-7.17
361.189	205.82
361.4	-9.22
361.611	183.29
361.823	156.67
362.034	84.99
362.245	-9.22
362.456	29.7
362.667	107.52
362.879	-27.65
363.09	11.26
363.301	39.94
363.512	44.03
363.723	-23.55
363.935	-21.5
364.146	56.32
364.357	-21.5
364.568	87.04
364.779	-19.46
364.99	95.23
365.201	39.94
365.412	185.34
365.623	11.26
365.834	78.85
366.045	60.42
366.256	142.33
366.467	95.23
366.678	64.51
366.889	115.71
367.1	-60.42
367.311	56.32
367.522	-7.17
367.733	72.7
367.944	78.85
368.155	48.13
368.366	162.81
368.577	31.74
368.788	128
368.999	35.84
369.209	7.17
369.42	289.79
369.631	209.92
369.842	35.84
370.053	60.42
370.264	29.7
370.474	9.22
370.685	158.72
370.896	54.27
371.107	166.91
371.317	56.32
371.528	39.94
371.739	105.47
371.95	23.55
372.16	97.28
372.371	23.55
372.582	89.09
372.792	66.56
373.003	150.53
373.214	31.74
373.424	84.99
373.635	-46.08
373.846	125.95
374.056	-5.12
374.267	3.07
374.477	31.74
374.688	-29.7
374.898	115.71
375.109	46.08
375.319	15.36
375.53	72.7
375.74	152.57
375.951	-17.41
376.161	50.18
376.372	134.14
376.582	84.99
376.793	31.74
377.003	25.6
377.214	62.46
377.424	130.05
377.635	25.6
377.845	-11.26
378.055	150.53
378.266	-158.72
378.476	29.7
378.686	91.13
378.897	121.85
379.107	121.85
379.317	91.13
379.528	27.65
379.738	123.9
379.948	25.6
380.158	146.43
380.369	66.56
380.579	109.57
380.789	7.17
380.999	168.96
381.21	58.37
381.42	244.73
381.63	70.65
381.84	82.94
382.05	187.39
382.261	123.9
382.471	78.85
382.681	70.65
382.891	191.49
383.101	-3.07
383.311	1.02
383.521	25.6
383.731	123.9
383.941	72.7
384.151	89.09
384.361	68.61
384.571	97.28
384.781	99.33
384.991	181.25
385.201	158.72
385.411	146.43
385.621	107.52
385.831	150.53
386.041	84.99
386.251	48.13
386.461	125.95
386.671	5.12
386.881	29.7
387.091	76.8
387.301	140.29
387.511	46.08
387.72	119.81
387.93	119.81
388.14	-99.33
388.35	64.51
388.56	136.19
388.769	93.18
388.979	35.84
389.189	-27.65
389.399	-27.65
389.609	154.62
389.818	39.94
390.028	68.61
390.238	109.57
390.447	54.27
390.657	144.38
390.867	58.37
391.076	-64.51
391.286	31.74
391.496	39.94
391.705	-3.07
391.915	107.52
392.125	125.95
392.334	35.84
392.544	220.16
392.753	50.18
392.963	-66.56
393.172	44.03
393.382	15.36
393.591	156.67
393.801	3.07
394.01	164.86
394.22	130.05
394.429	25.6
394.639	11.26
394.848	46.08
395.058	107.52
395.267	-3.07
395.477	60.42
395.686	82.94
395.895	162.81
396.105	244.73
396.314	142.33
396.524	97.28
396.733	68.61
396.942	136.19
397.152	121.85
397.361	130.05
397.57	97.28
397.78	-5.12
397.989	103.42
398.198	162.81
398.407	72.7
398.617	50.18
398.826	74.75
399.035	9.22
399.244	156.67
399.453	35.84
399.663	93.18
399.872	91.13
400.081	29.7
400.29	162.81
400.499	-33.79
400.708	166.91
400.917	17.41
401.127	3.07
401.336	41.98
401.545	154.62
401.754	99.33
401.963	146.43
402.172	70.65
402.381	-52.22
402.59	93.18
402.799	17.41
403.008	125.95
403.217	-23.55
403.426	66.56
403.635	54.27
403.844	70.65
404.053	3.07
404.262	3.07
404.471	185.34
404.68	25.6
404.888	64.51
405.097	44.03
405.306	-23.55
405.515	130.05
405.724	113.66
405.933	158.72
406.142	35.84
406.35	128
406.559	121.85
406.768	60.42
406.977	166.91
407.185	13.31
407.394	9.22
407.603	-58.37
407.812	80.89
408.02	105.47
408.229	76.8
408.438	160.77
408.646	-5.12
408.855	44.03
409.064	70.65
409.272	-5.12
409.481	89.09
409.69	-21.5
409.898	58.37
410.107	60.42
410.315	166.91
410.524	19.46
410.733	37.89
410.941	-5.12
411.15	138.24
411.358	56.32
411.567	148.48
411.775	64.51
411.984	154.62
412.192	78.85
412.401	78.85
412.609	164.86
412.818	191.49
413.026	97.28
413.234	70.65
413.443	21.5
413.651	60.42
413.86	-33.79
414.068	138.24
414.276	203.77
414.485	21.5
414.693	175.1
414.901	224.25
415.11	128
415.318	99.33
415.526	89.09
415.734	154.62
415.943	93.18
416.151	105.47
416.359	41.98
416.567	82.94
416.776	142.33
416.984	123.9
417.192	183.29
417.4	35.84
417.608	3.07
417.817	5.12
418.025	111.61
418.233	175.1
418.441	54.27
418.649	-33.79
418.857	62.46
419.065	115.71
419.273	-15.36
419.481	44.03
419.689	103.42
419.897	-48.13
420.105	-23.55
420.313	119.81
420.521	74.75
420.729	89.09
420.937	29.7
421.145	74.75
421.353	128
421.561	105.47
421.769	74.75
421.977	29.7
422.185	107.52
422.393	82.94
422.601	119.81
422.809	80.89
423.017	84.99
423.224	70.65
423.432	183.29
423.64	64.51
423.848	134.14
424.056	117.76
424.263	117.76
424.471	80.89
424.679	154.62
424.887	52.22
425.094	232.44
425.302	103.42
425.51	7.17
425.718	140.29
425.925	119.81
426.133	-48.13
426.341	164.86
426.548	56.32
426.756	66.56
426.964	44.03
427.171	13.31
427.379	125.95
427.586	87.04
427.794	111.61
428.001	103.42
428.209	111.61
428.417	211.96
428.624	205.82
428.832	115.71
429.039	207.87
429.247	111.61
429.454	136.19
429.662	224.25
429.869	76.8
430.076	64.51
430.284	175.1
430.491	277.5
430.699	214.01
430.906	203.77
431.114	183.29
431.321	228.35
431.528	89.09
431.736	162.81
431.943	154.62
432.15	226.3
432.358	214.01
432.565	295.93
432.772	-7.17
432.979	162.81
433.187	128
433.394	224.25
433.601	119.81
433.808	220.16
434.016	265.21
434.223	261.12
434.43	205.82
434.637	275.45
434.844	252.92
435.052	187.39
435.259	291.84
435.466	289.79
435.673	330.75
435.88	263.16
436.087	345.08
436.294	304.12
436.501	345.08
436.708	302.08
436.915	287.74
437.122	347.13
437.329	236.54
437.537	371.71
437.743	271.36
437.95	457.72
438.157	410.62
438.364	259.07
438.571	269.31
438.778	400.38
438.985	355.32
439.192	392.19
439.399	326.65
439.606	455.67
439.813	396.28
440.02	541.69
440.227	652.28
440.433	564.22
440.64	525.3
440.847	467.96
441.054	527.35
441.261	625.65
441.467	519.16
441.674	492.54
441.881	617.46
442.088	594.93
442.294	615.41
442.501	662.52
442.708	826.36
442.914	666.61
443.121	740.34
443.328	846.84
443.534	850.93
443.741	824.31
443.948	748.53
444.154	887.79
444.361	1031.15
444.568	859.12
444.774	887.79
444.981	834.55
445.187	1018.86
445.394	1022.96
445.6	1035.25
445.807	1256.43
446.013	1244.14
446.22	1051.63
446.426	1168.37
446.633	1383.4
446.839	1471.47
447.046	1233.9
447.252	1514.47
447.459	1381.35
447.665	1502.19
447.871	1700.84
448.078	1614.82
448.284	1706.98
448.491	1754.09
448.697	1934.31
448.903	1866.72
449.11	1979.36
449.316	1919.97
449.522	2171.87
449.728	2186.21
449.935	2311.13
450.141	2337.76
450.347	2581.46
450.553	2348
450.76	2489.31
450.966	2548.7
451.172	2675.67
451.378	2722.77
451.584	2780.12
451.791	3177.42
451.997	3093.46
452.203	3263.44
452.409	3439.56
452.615	3437.52
452.821	3507.15
453.027	3531.72
453.233	3929.03
453.44	3701.7
453.646	3965.89
453.852	4131.78
454.058	4336.57
454.264	4332.48
454.47	4731.83
454.676	4768.7
454.882	5192.62
455.088	4854.71
455.294	5127.09
455.5	5542.83
455.705	5909.41
455.911	5927.85
456.117	6151.07
456.323	6296.48
456.529	6308.77
456.735	6792.09
456.941	7144.34
457.147	7455.63
457.352	7351.18
457.558	7555.98
457.764	8133.51
457.97	8373.12
458.176	8508.29
458.381	9278.32
458.587	9479.02
458.793	9562.99
458.999	9649
459.204	10728.28
459.41	11330.39
459.616	11096.92
459.821	11627.34
460.027	12399.43
460.233	12780.35
460.438	12970.81
460.644	13691.7
460.85	13693.74
461.055	14261.03
461.261	15061.79
461.466	14660.38
461.672	14926.62
461.878	16667.39
462.083	16651.01
462.289	16769.79
462.494	17081.08
462.7	17652.47
462.905	18148.08
463.111	19249.88
463.316	20536.01
463.522	20716.23
463.727	21109.44
463.932	22315.69
464.138	22586.02
464.343	23968.4
464.549	24040.08
464.754	25463.42
464.959	26374.77
465.165	26724.97
465.37	26389.1
465.575	26618.47
465.781	28195.41
465.986	29307.46
466.191	28834.38
466.397	28971.59
466.602	28754.51
466.807	29565.5
467.012	30499.37
467.218	31154.72
467.423	31414.82
467.628	31844.89
467.833	33456.64
468.038	32993.8
468.244	32510.48
468.449	34337.27
468.654	33274.37
468.859	33149.45
469.064	33473.03
469.269	32629.26
469.474	32596.49
469.679	33735.17
469.885	32774.67
470.09	33589.76
470.295	33053.19
470.5	32635.41
470.705	32985.61
470.91	31848.99
471.115	31298.08
471.32	32084.5
471.525	32096.79
471.73	31087.14
471.935	30452.27
472.139	29749.82
472.344	29796.92
472.549	29286.98
472.754	29110.85
472.959	28555.85
473.164	27427.42
473.369	27009.64
473.574	27632.22
473.778	27177.57
473.983	26337.9
474.188	26098.29
474.393	24851.08
474.598	25043.59
474.802	24246.93
475.007	24134.29
475.212	23782.04
475.417	22921.89
475.621	22581.93
475.826	22327.98
476.031	21936.82
476.235	21584.57
476.44	21439.16
476.645	21011.14
476.849	20751.04
477.054	20423.37
477.259	19821.27
477.463	20112.08
477.668	19256.03
477.872	19409.62
478.077	18866.91
478.282	18324.2
478.486	18303.72
478.691	17937.13
478.895	17736.43
479.1	17705.71
479.304	17578.74
479.509	16823.04
479.713	17201.91
479.918	16794.37
480.122	16323.33
480.326	16747.26
480.531	16769.79
480.735	16388.87
480.94	16040.72
481.144	16655.11
481.348	15747.86
481.553	15940.36
481.757	15411.99
481.961	15368.98
482.166	15532.82
482.37	15516.44
482.574	15149.85
482.778	15110.94
482.983	15381.27
483.187	14818.08
483.391	14795.55
483.595	14805.79
483.8	14474.02
484.004	14603.04
484.208	14535.46
484.412	14185.26
484.616	13984.55
484.821	13947.69
485.025	13259.57
485.229	13474.61
485.433	13466.42
485.637	13241.14
485.841	13065.02
486.045	12890.94
486.249	12688.19
486.453	12444.48
486.657	12534.59
486.861	12385.09
487.065	11858.76
487.269	11944.78
487.473	11488.08
487.677	11780.94
487.881	11619.15
488.085	11219.8
488.289	11006.81
488.493	10580.83
488.697	10738.52
488.901	10632.03
489.105	10206.05
489.309	10240.87
489.512	10077.03
489.716	9847.66
489.92	9573.23
490.124	9436.02
490.328	9513.84
490.531	9155.44
490.735	9300.85
490.939	8987.51
491.143	8663.93
491.346	8625.02
491.55	8342.4
491.754	8385.41
491.958	8485.76
492.161	8006.53
492.365	7973.77
492.569	8004.49
492.772	7781.26
492.976	7652.24
493.18	7334.8
493.383	7496.59
493.587	7498.64
493.79	7416.72
493.994	7218.07
494.197	7216.02
494.401	7095.19
494.605	6947.73
494.808	6927.25
495.012	6919.06
495.215	6972.31
495.419	6806.42
495.622	6783.9
495.825	6757.27
496.029	6675.35
496.232	6767.51
496.436	6728.6
496.639	6927.25
496.843	6679.45
497.046	6532
497.249	6894.49
497.453	6794.14
497.656	6728.6
497.859	6718.36
498.063	6714.27
498.266	6921.11
498.469	6577.05
498.673	6691.74
498.876	6923.16
499.079	6751.13
499.282	6837.14
499.485	7211.92
499.689	6988.69
499.892	7134.1
500.095	7175.06
500.298	7281.55
500.501	7220.11
500.705	7357.33
500.908	7351.18
501.111	7359.38
501.314	7504.78
501.517	7461.77
501.72	7744.39
501.923	7791.5
502.126	7844.74
502.329	8027.01
502.532	8201.09
502.735	7949.19
502.938	8297.35
503.141	8344.45
503.344	8182.66
503.547	8467.33
503.75	8686.46
503.953	8655.74
504.156	8838.01
504.359	8825.72
504.562	9098.1
504.765	9143.16
504.968	9431.92
505.17	9620.33
505.373	9722.73
505.576	10111.85
505.779	10072.93
505.982	9933.67
506.185	10269.54
506.387	10380.13
506.59	10566.49
506.793	10855.26
506.996	11035.48
507.198	11492.18
507.401	11529.04
507.604	11602.77
507.807	12133.19
508.009	12276.55
508.212	12510.02
508.415	12684.09
508.617	13108.02
508.82	13419.32
509.022	13165.37
509.225	13806.38
509.428	13894.44
509.63	14140.2
509.833	14418.72
510.035	15123.23
510.238	15190.81
510.44	15340.31
510.643	15899.41
510.845	16388.87
511.048	16169.74
511.25	16773.89
511.453	17019.64
511.655	18131.69
511.858	18184.94
512.06	18436.84
512.262	18545.38
512.465	18954.97
512.667	19598.04
512.87	20062.93
513.072	20425.42
513.274	20974.27
513.477	21361.34
513.679	22037.17
513.881	22307.5
514.084	22860.45
514.286	23417.5
514.488	23734.93
514.69	24633.99
514.893	25062.02
515.095	25182.85
515.297	25692.79
515.499	26202.74
515.701	26983.01
515.904	27462.24
516.106	28338.77
516.308	28527.18
516.51	29278.79
516.712	29104.71
516.914	30089.78
517.116	31224.36
517.318	31140.39
517.52	31582.75
517.722	31959.58
517.925	33028.62
518.127	33745.41
518.329	33942.01
518.531	34316.79
518.733	35109.35
518.935	35938.78
519.136	36012.51
519.338	37050.83
519.54	37333.45
519.742	38068.67
519.944	38066.62
520.146	38918.57
520.348	39586.21
520.55	39721.38
520.752	40378.78
520.954	41259.4
521.155	41011.6
521.357	42207.61
521.559	42479.99
521.761	43057.52
521.963	43198.83
522.164	43499.88
522.366	43495.78
522.568	43966.82
522.77	44036.45
522.971	44710.23
523.173	44587.35
523.375	45039.95
523.576	45035.86
523.778	45543.75
523.98	46063.94
524.181	46350.65
524.383	45957.44
524.584	46721.34
524.786	46498.11
524.988	46383.42
525.189	46842.17
525.391	47135.02
525.592	47116.59
525.794	46694.71
525.995	46645.56
526.197	46727.48
526.398	46483.77
526.6	46543.16
526.801	46741.81
527.003	46317.89
527.204	46002.5
527.406	46117.18
527.607	45947.2
527.808	46051.65
528.01	44671.32
528.211	44390.75
528.412	45691.21
528.614	44781.91
528.815	44505.43
529.016	44339.55
529.218	43471.21
529.419	43483.5
529.62	43059.57
529.822	42578.29
530.023	42072.45
530.224	42045.82
530.425	41355.66
530.626	40690.07
530.828	39940.51
531.029	40481.17
531.23	39643.56
531.431	39004.59
531.632	39129.51
531.833	38224.31
532.035	37968.32
532.236	37564.87
532.437	37409.22
532.638	36182.49
532.839	36133.34
533.04	35893.72
533.241	35033.58
533.442	35060.2
533.643	34562.54
533.844	33972.73
534.045	33614.34
534.246	32715.28
534.447	32752.14
534.648	32094.74
534.849	31826.46
535.05	31216.16
535.251	31119.91
535.451	30728.75
535.652	30282.29
535.853	29585.98
536.054	29442.62
536.255	28858.95
536.456	27992.66
536.657	28396.11
536.857	27822.68
537.058	27507.29
537.259	26915.43
537.46	26657.39
537.66	26538.6
537.861	26196.59
538.062	25674.36
538.263	25195.14
538.463	25096.83
538.664	24717.96
538.865	24191.63
539.065	24306.32
539.266	23689.88
539.466	23532.18
539.667	23073.44
539.868	23009.95
540.068	22852.26
540.269	22497.96
540.469	22172.33
540.67	21975.73
540.87	21854.9
541.071	21197.5
541.271	21068.48
541.472	20849.35
541.672	20529.86
541.873	20343.5
542.073	20081.36
542.274	20159.18
542.474	19577.56
542.675	19606.23
542.875	19620.56
543.075	19215.07
543.276	18737.89
543.476	19100.38
543.676	18533.09
543.877	18072.3
544.077	18143.98
544.277	17752.82
544.478	17601.27
544.678	17384.18
544.878	17044.22
545.078	16997.12
545.279	16818.94
545.479	16483.08
545.679	16433.93
545.879	16333.57
546.079	16243.46
546.28	15723.28
546.48	15520.53
546.68	15637.27
546.88	15627.03
547.08	15155.99
547.28	15158.04
547.48	14617.38
547.68	14574.37
547.88	14324.52
548.081	14187.3
548.281	14162.73
548.481	13667.12
548.681	13871.92
548.881	13671.22
549.081	13368.12
549.28	13065.02
549.48	13273.91
549.68	13081.4
549.88	12839.74
550.08	12370.76
550.28	12272.45
550.48	12243.78
550.68	12239.69
550.88	11799.37
551.08	11670.35
551.279	11834.19
551.479	11498.32
551.679	11303.76
551.879	10967.9
552.079	11017.05
552.278	10687.32
552.478	10869.59
552.678	10402.66
552.878	10357.6
553.077	10140.52
553.277	10048.36
553.477	9868.14
553.676	9786.22
553.876	9489.26
554.076	9313.14
554.275	9180.02
554.475	9165.68
554.674	8934.26
554.874	8823.67
555.074	8418.18
555.273	8584.06
555.473	8526.72
555.672	8498.05
555.872	8233.86
556.071	8082.31
556.271	8045.45
556.47	7863.18
556.67	7568.27
556.869	7547.79
557.068	7478.16
557.268	7060.37
557.467	7191.44
557.667	7048.08
557.866	7099.28
558.065	6943.64
558.265	6695.83
558.464	6542.24
558.663	6636.44
558.863	6419.36
559.062	6257.57
559.261	6212.51
559.461	6069.16
559.66	5983.14
559.859	5839.78
560.058	5721
560.258	5757.86
560.457	5536.68
560.656	5651.37
560.855	5524.4
561.054	5528.49
561.253	5215.15
561.453	5270.45
561.652	5223.34
561.851	5174.19
562.05	4934.58
562.249	4871.09
562.448	4912.05
562.647	4658.1
562.846	4744.12
563.045	4748.22
563.244	4596.67
563.443	4684.73
563.642	4512.7
563.841	4430.78
564.04	4404.16
564.239	4348.86
564.438	4271.04
564.637	4062.15
564.836	4129.73
565.035	3972.04
565.234	3879.88
565.432	3855.3
565.631	3875.78
565.83	3775.43
566.029	3689.42
566.228	3644.36
566.427	3845.06
566.625	3519.43
566.824	3589.07
567.023	3484.62
567.222	3371.98
567.42	3271.63
567.619	3437.52
567.818	3247.05
568.016	3578.83
568.215	3068.88
568.414	3148.75
568.612	3146.7
568.811	3050.45
569.01	3021.78
569.208	2962.39
569.407	2966.48
569.605	3019.73
569.804	2870.23
570.002	2876.37
570.201	2733.01
570.4	2853.84
570.598	2730.97
570.797	2675.67
570.995	2575.32
571.193	2540.51
571.392	2579.42
571.59	2405.34
571.789	2497.5
571.987	2462.68
572.186	2530.27
572.384	2446.3
572.582	2307.04
572.781	2526.17
572.979	2264.03
573.177	2233.31
573.376	2200.54
573.574	2196.45
573.772	2237.41
573.971	2085.86
574.169	1950.69
574.367	2001.89
574.565	1985.51
574.763	2026.47
574.962	2044.9
575.16	1803.24
575.358	1805.28
575.556	1813.48
575.754	1893.35
575.952	1727.46
576.151	1827.81
576.349	1731.56
576.547	1653.73
576.745	1647.59
576.943	1762.28
577.141	1496.04
577.339	1573.86
577.537	1565.67
577.735	1655.78
577.933	1608.68
578.131	1475.56
578.329	1557.48
578.527	1448.94
578.725	1455.08
578.923	1471.47
579.121	1504.23
579.319	1227.76
579.516	1264.62
579.714	1567.72
579.912	1385.45
580.11	1227.76
580.308	1344.49
580.506	1311.72
580.704	1139.69
580.901	1162.22
581.099	1305.58
581.297	1235.95
581.495	1129.45
581.692	1154.03
581.89	1287.15
582.088	1168.37
582.285	1149.93
582.483	1033.2
582.681	1108.98
582.878	1108.98
583.076	1164.27
583.274	1106.93
583.471	1156.08
583.669	1002.48
583.866	957.43
584.064	934.9
584.262	963.57
584.459	887.79
584.657	979.95
584.854	1092.59
585.052	990.19
585.249	959.47
585.447	955.38
585.644	746.48
585.841	848.88
586.039	945.14
586.236	918.51
586.434	875.51
586.631	812.02
586.828	754.68
587.026	871.41
587.223	797.68
587.42	658.42
587.618	846.84
587.815	826.36
588.012	762.87
588.21	687.09
588.407	809.97
588.604	754.68
588.801	639.99
588.999	740.34
589.196	728.05
589.393	668.66
589.59	726
589.787	721.91
589.984	668.66
590.182	685.05
590.379	580.6
590.576	615.41
590.773	572.41
590.97	662.52
591.167	680.95
591.364	637.94
591.561	592.89
591.758	836.6
591.955	773.11
592.152	703.48
592.349	558.07
592.546	592.89
592.743	574.46
592.94	611.32
593.137	754.68
593.334	639.99
593.531	666.61
593.727	678.9
593.924	687.09
594.121	613.37
594.318	695.29
594.515	693.24
594.712	822.26
594.908	756.72
595.105	588.79
595.302	617.46
595.499	693.24
595.696	807.92
595.892	601.08
596.089	844.79
596.286	666.61
596.482	881.65
596.679	769.01
596.876	746.48
597.072	877.55
597.269	717.81
597.466	869.36
597.662	738.29
597.859	664.57
598.055	883.7
598.252	855.03
598.448	951.28
598.645	1022.96
598.841	945.14
599.038	1098.74
599.234	1174.51
599.431	1178.61
599.627	1119.21
599.824	1207.28
600.02	1219.57
600.217	1254.38
600.413	1332.2
600.609	1260.52
600.806	1631.21
601.002	1539.05
601.198	1514.47
601.395	1729.51
601.591	1661.93
601.787	1655.78
601.984	1735.65
602.18	1901.54
602.376	1975.27
602.572	1932.26
602.769	2087.9
602.965	2110.43
603.161	2319.32
603.357	2239.45
603.553	2417.63
603.75	2436.06
603.946	2477.02
604.142	2597.85
604.338	2778.07
604.534	2702.29
604.73	2816.98
604.926	2907.09
605.122	3058.64
605.318	3148.75
605.514	3255.25
605.71	3249.1
605.906	3343.31
606.102	3548.11
606.298	3724.23
606.494	3771.33
606.69	3935.17
606.886	3832.77
607.082	3941.32
607.278	4283.33
607.474	4203.46
607.67	4389.82
607.866	4406.2
608.062	4717.5
608.257	4830.13
608.453	4760.5
608.649	5274.54
608.845	5073.84
609.041	5161.91
609.236	5440.43
609.432	5602.22
609.628	5817.26
609.824	6085.54
610.019	6038.44
610.215	6181.79
610.411	6470.56
610.606	6624.15
610.802	6562.72
610.998	6810.52
611.193	7267.22
611.389	7252.88
611.584	7426.96
611.78	7560.08
611.976	7707.53
612.171	8162.18
612.367	8207.23
612.562	8270.72
612.758	8436.61
612.953	8840.06
613.149	9161.59
613.344	9350
613.539	9786.22
613.735	9870.19
613.93	10326.88
614.126	10363.75
614.321	10789.72
614.517	10963.8
614.712	11197.27
614.907	11363.15
615.103	11694.93
615.298	11866.95
615.493	12407.62
615.688	12424
615.884	13101.88
616.079	13253.43
616.274	13679.41
616.47	14007.08
616.665	14222.12
616.86	14902.04
617.055	14938.91
617.25	15313.69
617.445	15663.89
617.641	16010
617.836	16515.84
618.031	16782.08
618.226	17482.49
618.421	17996.53
618.616	18395.88
618.811	18520.81
619.006	19233.5
619.201	19444.44
619.396	20161.23
619.591	20026.06
619.786	20701.89
619.981	21013.18
620.176	21834.42
620.371	21938.87
620.566	22669.99
620.761	23098.02
620.956	23573.14
621.151	23646.87
621.346	24613.51
621.541	24650.38
621.735	25733.75
621.93	25561.72
622.125	26165.87
622.32	26430.06
622.515	27466.33
622.709	27642.46
622.904	28166.74
623.099	28709.45
623.294	29149.76
623.488	29348.42
623.683	30478.89
623.878	30116.4
624.072	31322.66
624.267	31433.25
624.462	32352.79
624.656	32328.21
624.851	33292.8
625.046	33554.94
625.24	33919.48
625.435	34263.54
625.629	35140.07
625.824	35428.84
626.018	35830.24
626.213	35668.45
626.407	36319.7
626.602	36610.51
626.796	37331.4
626.991	37644.74
627.185	37796.29
627.38	38072.76
627.574	38097.34
627.768	38310.33
627.963	38592.95
628.157	38465.97
628.352	39168.43
628.546	38246.84
628.74	39309.74
628.935	38797.74
629.129	38984.11
629.323	38183.35
629.517	38850.99
629.712	38357.43
629.906	37908.93
630.1	37538.24
630.294	37734.85
630.489	36704.72
630.683	36700.62
630.877	35520.99
631.071	35168.74
631.265	35312.1
631.459	34009.59
631.653	33591.81
631.848	32573.97
632.042	31902.23
632.236	31277.6
632.43	30382.64
632.624	29739.58
632.818	28633.68
633.012	27941.46
633.206	26815.08
633.4	26268.27
633.594	25078.4
633.788	24584.84
633.982	23589.53
634.176	22794.92
634.369	21902
634.563	21125.82
634.757	20419.27
634.951	19868.37
635.145	18670.31
635.339	18307.82
635.533	17441.53
635.726	17119.99
635.92	15979.28
636.114	15432.47
636.308	14856.99
636.501	14275.37
636.695	13593.39
636.889	12985.15
637.083	12294.98
637.276	11938.63
637.47	11330.39
637.664	11025.24
637.857	10769.24
638.051	10314.59
638.244	9972.58
638.438	9399.15
638.632	9290.61
638.825	8582.01
639.019	8502.14
639.212	7998.34
639.406	7576.46
639.599	7455.63
639.793	7166.87
639.986	6658.97
640.18	6742.94
640.373	6335.39
640.567	6167.46
640.76	5747.62
640.954	5669.8
641.147	5319.6
641.34	5311.41
641.534	5041.08
641.727	5090.23
641.92	4754.36
642.114	4467.64
642.307	4279.23
642.5	4217.79
642.694	4004.8
642.887	3890.12
643.08	3941.32
643.273	3574.73
643.467	3509.19
643.66	3101.65
643.853	3175.38
644.046	3150.8
644.239	3038.16
644.432	2886.61
644.626	2724.82
644.819	2632.66
645.012	2399.2
645.205	2505.69
645.398	2407.39
645.591	2302.94
645.784	2096.1
645.977	1981.41
646.17	2036.7
646.363	1924.07
646.556	1874.92
646.749	1586.15
646.942	1772.52
647.135	1678.31
647.328	1557.48
647.521	1557.48
647.714	1475.56
647.907	1397.74
648.099	1418.22
648.292	1399.79
648.485	1319.92
648.678	1100.78
648.871	1162.22
649.064	1156.08
649.256	1031.15
649.449	1010.67
649.642	941.04
649.835	1070.06
650.027	941.04
650.22	934.9
650.413	877.55
650.605	926.71
650.798	840.69
650.991	781.3
651.183	771.06
651.376	775.16
651.568	773.11
651.761	683
651.954	732.15
652.146	617.46
652.339	666.61
652.531	656.37
652.724	498.68
652.916	558.07
653.109	474.1
653.301	584.7
653.494	539.64
653.686	580.6
653.879	601.08
654.071	601.08
654.263	422.91
654.456	351.23
654.648	541.69
654.84	414.71
655.033	429.05
655.225	527.35
655.417	248.83
655.61	502.78
655.802	494.58
655.994	437.24
656.186	326.65
656.379	439.29
656.571	336.89
656.763	271.36
656.955	306.17
657.148	310.27
657.34	418.81
657.532	310.27
657.724	291.84
657.916	214.01
658.108	336.89
658.3	343.03
658.492	322.56
658.684	214.01
658.876	308.22
659.068	183.29
659.26	234.49
659.452	218.11
659.644	269.31
659.836	283.64
660.028	265.21
660.22	187.39
660.412	242.68
660.604	230.4
660.796	230.4
660.988	275.45
661.18	203.77
661.372	289.79
661.563	207.87
661.755	216.06
661.947	119.81
662.139	150.53
662.331	160.77
662.522	218.11
662.714	93.18
662.906	128
663.097	183.29
663.289	50.18
663.481	80.89
663.673	230.4
663.864	130.05
664.056	181.25
664.247	87.04
664.439	232.44
664.631	240.64
664.822	203.77
665.014	158.72
665.205	74.75
665.397	123.9
665.588	156.67
665.78	177.15
665.971	130.05
666.163	128
666.354	191.49
666.546	52.22
666.737	121.85
666.929	162.81
667.12	132.09
667.311	177.15
667.503	128
667.694	187.39
667.885	158.72
668.077	130.05
668.268	33.79
668.459	197.63
668.651	99.33
668.842	244.73
669.033	109.57
669.224	33.79
669.416	306.17
669.607	125.95
669.798	97.28
669.989	275.45
670.18	140.29
670.371	144.38
670.563	56.32
670.754	201.72
670.945	146.43
671.136	185.34
671.327	87.04
671.518	193.53
671.709	242.68
671.9	228.35
672.091	177.15
672.282	150.53
672.473	82.94
672.664	89.09
672.855	123.9
673.046	158.72
673.237	134.14
673.428	136.19
673.619	181.25
673.809	111.61
674	236.54
674.191	246.78
674.382	134.14
674.573	187.39
674.764	148.48
674.954	191.49
675.145	91.13
675.336	138.24
675.527	144.38
675.717	164.86
675.908	66.56
676.099	72.7
676.289	179.2
676.48	13.31
676.671	44.03
676.861	84.99
677.052	185.34
677.243	93.18
677.433	60.42
677.624	220.16
677.814	101.37
678.005	107.52
678.195	144.38
678.386	68.61
678.576	150.53
678.767	82.94
678.957	121.85
679.148	224.25
679.338	142.33
679.529	199.68
679.719	117.76
679.909	179.2
680.1	191.49
680.29	134.14
680.481	78.85
680.671	297.98
680.861	185.34
681.052	199.68
681.242	105.47
681.432	201.72
681.622	171.01
681.813	72.7
682.003	195.58
682.193	46.08
682.383	226.3
682.573	99.33
682.764	97.28
682.954	162.81
683.144	185.34
683.334	254.97
683.524	148.48
683.714	119.81
683.904	218.11
684.094	168.96
684.284	162.81
684.474	291.84
684.664	211.96
684.854	205.82
685.044	152.57
685.234	168.96
685.424	203.77
685.614	177.15
685.804	349.18
685.994	125.95
686.184	97.28
686.374	173.05
686.564	109.57
686.753	216.06
686.943	119.81
687.133	175.1
687.323	138.24
687.513	259.07
687.702	222.2
687.892	130.05
688.082	246.78
688.272	242.68
688.461	113.66
688.651	349.18
688.841	173.05
689.03	244.73
689.22	197.63
689.41	154.62
689.599	220.16
689.789	201.72
689.979	236.54
690.168	72.7
690.358	250.88
690.547	123.9
690.737	240.64
690.926	136.19
691.116	158.72
691.305	230.4
691.495	310.27
691.684	33.79
691.874	179.2
692.063	173.05
692.252	195.58
692.442	228.35
692.631	179.2
692.82	179.2
693.01	252.92
693.199	173.05
693.388	209.92
693.578	101.37
693.767	244.73
693.956	246.78
694.146	134.14
694.335	156.67
694.524	185.34
694.713	252.92
694.902	156.67
695.092	87.04
695.281	207.87
695.47	130.05
695.659	107.52
695.848	244.73
696.037	119.81
696.226	230.4
696.415	168.96
696.604	189.44
696.793	142.33
696.982	187.39
697.171	275.45
697.36	80.89
697.549	191.49
697.738	-48.13
697.927	113.66
698.116	146.43
698.305	207.87
698.494	130.05
698.683	78.85
698.872	242.68
699.061	138.24
699.25	84.99
699.438	209.92
699.627	173.05
699.816	234.49
700.005	123.9
700.193	123.9
700.382	240.64
700.571	214.01
700.76	257.02
700.948	164.86
701.137	146.43
701.326	238.59
701.514	144.38
701.703	197.63
701.892	156.67
702.08	322.56
702.269	115.71
702.457	123.9
702.646	187.39
702.834	62.46
703.023	220.16
703.212	179.2
703.4	158.72
703.589	154.62
703.777	130.05
703.965	132.09
704.154	185.34
704.342	62.46
704.531	78.85
704.719	193.53
704.907	216.06
705.096	111.61
705.284	50.18
705.472	164.86
705.661	132.09
705.849	203.77
706.037	257.02
706.226	197.63
706.414	201.72
706.602	107.52
706.79	179.2
706.979	168.96
707.167	181.25
707.355	97.28
707.543	201.72
707.731	125.95
707.919	119.81
708.107	115.71
708.296	97.28
708.484	105.47
708.672	216.06
708.86	111.61
709.048	187.39
709.236	138.24
709.424	207.87
709.612	205.82
709.8	29.7
709.988	113.66
710.176	160.77
710.364	240.64
710.551	158.72
710.739	78.85
710.927	121.85
711.115	199.68
711.303	177.15
711.491	199.68
711.679	154.62
711.866	269.31
712.054	154.62
712.242	201.72
712.43	93.18
712.617	78.85
712.805	295.93
712.993	246.78
713.181	54.27
713.368	191.49
713.556	121.85
713.744	136.19
713.931	330.75
714.119	209.92
714.306	148.48
714.494	93.18
714.682	146.43
714.869	29.7
715.057	123.9
715.244	93.18
715.432	214.01
715.619	117.76
715.807	185.34
715.994	105.47
716.182	152.57
716.369	283.64
716.556	189.44
716.744	154.62
716.931	113.66
717.119	300.03
717.306	134.14
717.493	203.77
717.681	107.52
717.868	136.19
718.055	191.49
718.242	234.49
718.43	179.2
718.617	179.2
718.804	144.38
718.991	246.78
719.179	224.25
719.366	257.02
719.553	134.14
719.74	166.91
719.927	134.14
720.114	140.29
720.301	121.85
720.488	207.87
720.676	109.57
720.863	246.78
721.05	291.84
721.237	179.2
721.424	205.82
721.611	218.11
721.798	138.24
721.985	220.16
722.172	164.86
722.358	236.54
722.545	261.12
722.732	312.32
722.919	318.46
723.106	197.63
723.293	179.2
723.48	146.43
723.667	148.48
723.853	240.64
724.04	250.88
724.227	275.45
724.414	224.25
724.6	232.44
724.787	293.88
724.974	420.86
725.161	252.92
725.347	121.85
725.534	177.15
725.72	187.39
725.907	273.4
726.094	308.22
726.28	154.62
726.467	261.12
726.653	242.68
726.84	289.79
727.027	371.71
727.213	218.11
727.4	234.49
727.586	214.01
727.773	244.73
727.959	164.86
728.145	216.06
728.332	240.64
728.518	175.1
728.705	257.02
728.891	166.91
729.077	230.4
729.264	121.85
729.45	134.14
729.636	267.26
729.823	185.34
730.009	318.46
730.195	254.97
730.382	312.32
730.568	152.57
730.754	166.91
730.94	228.35
731.126	269.31
731.313	304.12
731.499	302.08
731.685	320.51
731.871	324.6
732.057	271.36
732.243	340.99
732.429	275.45
732.615	324.6
732.801	248.83
732.987	332.79
733.173	248.83
733.359	136.19
733.545	336.89
733.731	218.11
733.917	392.19
734.103	314.36
734.289	199.68
734.475	183.29
734.661	359.42
734.847	177.15
735.033	347.13
735.219	216.06
735.404	218.11
735.59	267.26
735.776	238.59
735.962	216.06
736.148	302.08
736.333	386.04
736.519	308.22
736.705	271.36
736.89	277.5
737.076	367.61
737.262	257.02
737.447	175.1
737.633	316.41
737.819	295.93
738.004	351.23
738.19	261.12
738.375	375.8
738.561	345.08
738.747	320.51
738.932	193.53
739.118	416.76
739.303	379.9
739.489	320.51
739.674	267.26
739.859	244.73
740.045	304.12
740.23	302.08
740.416	138.24
740.601	304.12
740.786	250.88
740.972	269.31
741.157	228.35
741.342	257.02
741.528	177.15
741.713	398.33
741.898	306.17
742.084	287.74
742.269	252.92
742.454	283.64
742.639	332.79
742.824	289.79
743.01	355.32
743.195	455.67
743.38	267.26
743.565	302.08
743.75	343.03
743.935	291.84
744.12	281.6
744.305	209.92
744.49	293.88
744.675	254.97
744.86	218.11
745.045	285.69
745.23	259.07
745.415	201.72
745.6	433.15
745.785	228.35
745.97	304.12
746.155	316.41
746.34	383.99
746.525	273.4
746.71	349.18
746.895	234.49
747.079	181.25
747.264	271.36
747.449	261.12
747.634	287.74
747.819	250.88
748.003	265.21
748.188	152.57
748.373	283.64
748.557	300.03
748.742	236.54
748.927	261.12
749.111	252.92
749.296	306.17
749.481	312.32
749.665	293.88
749.85	228.35
750.034	297.98
750.219	287.74
750.404	248.83
750.588	295.93
750.773	175.1
750.957	185.34
751.141	191.49
751.326	289.79
751.51	156.67
751.695	154.62
751.879	144.38
752.064	345.08
752.248	322.56
752.432	283.64
752.617	269.31
752.801	246.78
752.985	158.72
753.17	295.93
753.354	224.25
753.538	285.69
753.722	246.78
753.907	257.02
754.091	168.96
754.275	211.96
754.459	89.09
754.643	228.35
754.828	220.16
755.012	277.5
755.196	103.42
755.38	173.05
755.564	150.53
755.748	252.92
755.932	199.68
756.116	228.35
756.3	236.54
756.484	99.33
756.668	244.73
756.852	50.18
757.036	175.1
757.22	205.82
757.404	164.86
757.588	134.14
757.772	340.99
757.956	207.87
758.14	367.61
758.323	205.82
758.507	201.72
758.691	142.33
758.875	306.17
759.059	297.98
759.242	160.77
759.426	166.91
759.61	171.01
759.794	175.1
759.977	252.92
760.161	435.19
760.345	273.4
760.528	240.64
760.712	216.06
760.895	195.58
761.079	105.47
761.263	146.43
761.446	95.23
761.63	168.96
761.813	189.44
761.997	119.81
762.18	150.53
762.364	238.59
762.547	23.55
762.731	140.29
762.914	121.85
763.098	105.47
763.281	76.8
763.464	105.47
763.648	201.72
763.831	105.47
764.015	119.81
764.198	263.16
764.381	164.86
764.564	125.95
764.748	140.29
764.931	185.34
765.114	62.46
765.297	189.44
765.481	78.85
765.664	158.72
765.847	189.44
766.03	297.98
766.213	150.53
766.397	173.05
766.58	84.99
766.763	148.48
766.946	144.38
767.129	128
767.312	74.75
767.495	162.81
767.678	84.99
767.861	171.01
768.044	123.9
768.227	158.72
768.41	183.29
768.593	183.29
768.776	56.32
768.959	70.65
769.142	211.96
769.324	142.33
769.507	64.51
769.69	60.42
769.873	87.04
770.056	271.36
770.239	144.38
770.421	197.63
770.604	128
770.787	183.29
770.97	125.95
771.152	35.84
771.335	68.61
771.518	78.85
771.7	259.07
771.883	201.72
772.066	78.85
772.248	97.28
772.431	240.64
772.613	156.67
772.796	179.2
772.978	205.82
773.161	205.82
773.343	76.8
773.526	39.94
773.708	1.02
773.891	46.08
774.073	44.03
774.256	37.89
774.438	205.82
774.621	107.52
774.803	105.47
774.985	60.42
775.168	150.53
775.35	11.26
775.532	125.95
775.715	-9.22
775.897	183.29
776.079	41.98
776.261	144.38
776.444	154.62
776.626	89.09
776.808	66.56
776.99	74.75
777.173	101.37
777.355	64.51
777.537	60.42
777.719	150.53
777.901	113.66
778.083	76.8
778.265	-5.12
778.447	138.24
778.629	58.37
778.811	144.38
778.993	121.85
779.175	179.2
779.357	140.29
779.539	58.37
779.721	123.9
779.903	115.71
780.085	39.94
780.267	9.22
780.449	52.22
780.631	168.96
780.812	158.72
780.994	21.5
781.176	54.27
781.358	25.6
781.54	29.7
781.721	103.42
781.903	115.71
782.085	66.56
782.267	183.29
782.448	-23.55
782.63	29.7
782.812	60.42
782.993	236.54
783.175	74.75
783.357	80.89
783.538	11.26
783.72	29.7
783.901	121.85
784.083	130.05
784.264	144.38
784.446	-13.31
784.627	-15.36
784.809	103.42
784.99	91.13
785.172	107.52
785.353	37.89
785.535	64.51
785.716	13.31
785.897	-46.08
786.079	52.22
786.26	72.7
786.441	52.22
786.623	-54.27
786.804	64.51
786.985	56.32
787.167	125.95
787.348	19.46
787.529	72.7
787.71	60.42
787.891	82.94
788.073	19.46
788.254	-19.46
788.435	238.59
788.616	44.03
788.797	19.46
788.978	68.61
789.159	-11.26
789.34	78.85
789.522	76.8
789.703	-37.89
789.884	29.7
790.065	93.18
790.246	177.15
790.427	54.27
790.607	117.76
790.788	89.09
790.969	-15.36
791.15	158.72
791.331	46.08
791.512	9.22
791.693	13.31
791.874	39.94
792.054	181.25
792.235	130.05
792.416	-13.31
792.597	29.7
792.778	-17.41
792.958	31.74
793.139	99.33
793.32	82.94
793.5	1.02
793.681	121.85
793.862	84.99
794.042	-7.17
794.223	-117.76
794.404	-11.26
794.584	-44.03
794.765	107.52
794.945	3.07
795.126	154.62
795.306	164.86
795.487	29.7
795.667	37.89
795.848	62.46
796.028	58.37
796.209	33.79
796.389	33.79
796.57	91.13
796.75	31.74
796.93	-7.17
797.111	-58.37
797.291	-9.22
797.471	48.13
797.652	48.13
797.832	29.7
798.012	37.89
798.192	46.08
798.373	-113.66
798.553	13.31
798.733	103.42
798.913	-25.6
799.093	7.17
799.274	33.79
799.454	148.48
799.634	105.47
799.814	91.13
799.994	105.47
800.174	62.46
800.354	-13.31
800.534	-109.57
800.714	107.52
800.894	-54.27
801.074	-54.27
801.254	5.12
801.434	183.29
801.614	-50.18
801.794	-41.98
801.974	1860.58
802.154	-37.89
802.334	123.9
802.514	5.12
802.693	-5.12
802.873	101.37
803.053	134.14
803.233	-11.26
803.413	5.12
803.592	-5.12
803.772	11.26
803.952	23.55
804.131	-54.27
804.311	72.7
804.491	70.65
804.67	-41.98
804.85	-5.12
805.03	68.61
805.209	128
805.389	41.98
805.568	-76.8
805.748	-25.6
805.928	-5.12
806.107	13.31
806.287	-5.12
806.466	101.37
806.646	60.42
806.825	-48.13
807.004	-5.12
807.184	70.65
807.363	107.52
807.543	113.66
807.722	-39.94
807.901	76.8
808.081	87.04
808.26	-123.9
808.439	37.89
808.619	66.56
808.798	7.17
808.977	9.22
809.156	140.29
809.336	66.56
809.515	66.56
809.694	-74.75
809.873	-31.74
810.052	68.61
810.231	44.03
810.411	5.12
810.59	78.85
810.769	58.37
810.948	80.89
811.127	-37.89
811.306	-9.22
811.485	-33.79
811.664	134.14
811.843	62.46
812.022	70.65
812.201	1.02
812.38	-17.41
812.559	-58.37
812.737	62.46
812.916	-60.42
813.095	-9.22
813.274	44.03
813.453	46.08
813.632	93.18
813.811	95.23
813.989	-74.75
814.168	64.51
814.347	-17.41
814.526	56.32
814.704	97.28
814.883	134.14
815.062	-31.74
815.24	125.95
815.419	-91.13
815.598	46.08
815.776	-68.61
815.955	58.37
816.133	-50.18
816.312	23.55
816.49	-19.46
816.669	52.22
816.847	89.09
817.026	35.84
817.204	-17.41
817.383	48.13
817.561	5.12
817.74	60.42
817.918	62.46
818.097	13.31
818.275	31.74
818.453	76.8
818.632	93.18
818.81	-5.12
818.988	-41.98
819.167	29.7
819.345	21.5
819.523	-35.84
819.701	37.89
819.879	74.75
820.058	-1.02
820.236	50.18
820.414	-39.94
820.592	-9.22
820.77	72.7
820.948	-101.37
821.127	21.5
821.305	11.26
821.483	7.17
821.661	-1.02
821.839	41.98
822.017	-21.5
822.195	-21.5
822.373	64.51
822.551	3.07
822.729	39.94
822.907	33.79
823.085	103.42
823.262	72.7
823.44	31.74
823.618	37.89
823.796	46.08
823.974	-41.98
824.152	-54.27
824.329	-56.32
824.507	19.46
824.685	58.37
824.863	-54.27
825.04	-11.26
825.218	62.46
825.396	-50.18
825.574	76.8
825.751	76.8
825.929	-11.26
826.107	-52.22
826.284	54.27
826.462	109.57
826.639	-76.8
826.817	-9.22
826.994	31.74
827.172	5.12
827.349	119.81
827.527	-7.17
827.704	62.46
827.882	78.85
828.059	-25.6
828.237	-84.99
828.414	52.22
828.591	-107.52
828.769	68.61
828.946	-80.89
829.124	41.98
829.301	144.38
829.478	-37.89
829.655	-9.22
829.833	74.75
830.01	-97.28
830.187	39.94
830.364	103.42
830.542	29.7
830.719	158.72
830.896	56.32
831.073	13.31
831.25	-11.26
831.427	76.8
831.604	-44.03
831.782	-80.89
831.959	-33.79
832.136	29.7
832.313	76.8
832.49	-80.89
832.667	11.26
832.844	-46.08
833.021	101.37
833.198	19.46
833.374	72.7
833.551	103.42
833.728	-33.79
833.905	107.52
834.082	-140.29
834.259	64.51
834.436	152.57
834.612	-15.36
834.789	46.08
834.966	50.18
835.143	3.07
835.319	-21.5
835.496	35.84
835.673	-25.6
835.85	107.52
836.026	31.74
836.203	103.42
836.38	29.7
836.556	-39.94
836.733	-7.17
836.909	95.23
837.086	5.12
837.262	-78.85
837.439	44.03
837.616	-64.51
837.792	-3.07
837.968	66.56
838.145	-103.42
838.321	-19.46
838.498	78.85
838.674	60.42
838.851	15.36
839.027	-9.22
839.203	-27.65
839.38	54.27
839.556	-15.36
839.732	25.6
839.909	-29.7
840.085	7.17
840.261	-35.84
840.437	-7.17
840.614	-27.65
840.79	39.94
840.966	-9.22
841.142	-11.26
841.318	70.65
841.494	5.12
841.671	56.32
841.847	-62.46
842.023	-50.18
842.199	1.02
842.375	41.98
842.551	-80.89
842.727	-76.8
842.903	132.09
843.079	-44.03
843.255	58.37
843.431	-7.17
843.607	-39.94
843.783	-68.61
843.959	48.13
844.134	-9.22
844.31	115.71
844.486	11.26
844.662	-76.8
844.838	46.08
845.013	111.61
845.189	60.42
845.365	37.89
845.541	25.6
845.716	68.61
845.892	140.29
846.068	60.42
846.244	-33.79
846.419	64.51
846.595	-39.94
846.77	-95.23
846.946	89.09
847.122	-1.02
847.297	-13.31
847.473	175.1
847.648	-162.81
847.824	9.22
847.999	-130.05
848.175	-48.13
848.35	33.79
848.526	84.99
848.701	103.42
848.876	105.47
849.052	76.8
849.227	19.46
849.403	-87.04
849.578	-64.51
849.753	3.07
849.929	66.56
850.104	-78.85
850.279	-39.94
850.454	62.46
850.63	48.13
850.805	11.26
850.98	56.32
851.155	-17.41
851.33	84.99
851.505	-60.42
851.681	66.56
851.856	-31.74
852.031	58.37
852.206	64.51
852.381	-37.89
852.556	-39.94
852.731	52.22
852.906	23.55
853.081	21.5
853.256	58.37
853.431	-48.13
853.606	-76.8
853.781	-50.18
853.956	-105.47
854.131	9.22
854.305	-54.27
854.48	7.17
854.655	-80.89
854.83	-11.26
855.005	-31.74
855.18	39.94
855.354	97.28
855.529	80.89
855.704	72.7
855.879	23.55
856.053	-17.41
856.228	50.18
856.403	-109.57
856.577	33.79
856.752	-113.66
856.926	13.31
857.101	128
857.276	-19.46
857.45	54.27
857.625	109.57
857.799	35.84
857.974	21.5
858.148	-134.14
858.323	37.89
858.497	-17.41
858.672	-3.07
858.846	-25.6
859.02	60.42
859.195	-54.27
859.369	-13.31
859.543	-66.56
859.718	-31.74
859.892	44.03
860.066	52.22
860.241	-89.09
860.415	-66.56
860.589	-25.6
860.763	-23.55
860.938	31.74
861.112	41.98
861.286	-27.65
861.46	39.94
861.634	48.13
861.808	105.47
861.982	-95.23
862.157	-76.8
862.331	56.32
862.505	15.36
862.679	-99.33
862.853	-41.98
863.027	-41.98
863.201	107.52
863.375	-74.75
863.549	44.03
863.722	-5.12
863.896	72.7
864.07	-60.42
864.244	-64.51
864.418	3.07
864.592	-70.65
864.766	-3.07
864.939	5.12
865.113	-84.99
865.287	89.09
865.461	-105.47
865.634	-60.42
865.808	17.41
865.982	-93.18
866.156	-91.13
866.329	-72.7
866.503	-7.17
866.676	119.81
866.85	23.55
867.024	-54.27
867.197	66.56
867.371	119.81
867.544	17.41
867.718	-15.36
867.891	99.33
868.065	-117.76
868.238	50.18
868.412	76.8
868.585	41.98
868.759	-91.13
868.932	35.84
869.105	-89.09
869.279	62.46
869.452	-56.32
869.625	52.22
869.799	-11.26
869.972	-37.89
870.145	-15.36
870.319	46.08
870.492	-115.71
870.665	-52.22
870.838	15.36
871.011	-144.38
871.185	-13.31
871.358	-62.46
871.531	50.18
871.704	29.7
871.877	11.26
872.05	-134.14
872.223	-115.71
872.396	52.22
872.569	-1.02
872.742	-111.61
872.915	-25.6
873.088	1.02
873.261	-35.84
873.434	44.03
873.607	33.79
873.78	78.85
873.953	-60.42
874.126	-9.22
874.299	66.56
874.471	-37.89
874.644	7.17
874.817	31.74
874.99	95.23
875.163	-19.46
875.335	31.74
875.508	-62.46
875.681	72.7
875.853	-1.02
876.026	-1.02
876.199	39.94
876.371	50.18
876.544	-1.02
876.717	-74.75
876.889	-5.12
877.062	19.46
877.234	-19.46
877.407	78.85
877.579	72.7
877.752	-19.46
877.924	46.08
878.097	-46.08
878.269	46.08
878.442	-11.26
878.614	31.74
878.786	-23.55
878.959	-27.65
879.131	15.36
879.303	-48.13
879.476	-66.56
879.648	52.22
879.82	-68.61
879.993	-5.12
880.165	-31.74
880.337	-17.41
880.509	23.55
880.681	-29.7
880.854	-132.09
881.026	25.6
881.198	78.85
881.37	44.03
881.542	37.89
881.714	-23.55
881.886	-11.26
882.058	-27.65
882.23	-11.26
882.402	-44.03
882.574	-1.02
882.746	62.46
882.918	93.18
883.09	21.5
883.262	-74.75
883.434	-44.03
883.606	-46.08
883.778	-35.84
883.95	119.81
884.122	-15.36
884.293	66.56
884.465	-19.46
884.637	37.89
884.809	7.17
884.98	29.7
885.152	-1.02
885.324	87.04
885.496	-33.79
885.667	21.5
885.839	3.07
886.011	107.52
886.182	78.85
886.354	37.89
886.525	5.12
886.697	-11.26
886.869	-7.17
887.04	-13.31
887.212	64.51
887.383	142.33
887.555	37.89
887.726	-72.7
887.897	-93.18
888.069	46.08
888.24	68.61
888.412	68.61
888.583	31.74
888.754	50.18
888.926	-95.23
889.097	-37.89
889.268	-76.8
889.44	54.27
889.611	1.02
889.782	-87.04
889.953	-89.09
890.125	125.95
890.296	-64.51
890.467	-39.94
890.638	-37.89
890.809	21.5
890.98	-103.42
891.151	-9.22
891.323	164.86
891.494	39.94
891.665	-41.98
891.836	3.07
892.007	-37.89
892.178	29.7
892.349	17.41
892.52	-66.56
892.691	3.07
892.862	-1.02
893.032	-39.94
893.203	-27.65
893.374	5.12
893.545	150.53
893.716	-3.07
893.887	41.98
894.057	-54.27
894.228	-21.5
894.399	-27.65
894.57	1.02
894.74	-17.41
894.911	-19.46
895.082	-111.61
895.253	-25.6
895.423	-9.22
895.594	46.08
895.764	44.03
895.935	-1.02
896.106	-27.65
896.276	-41.98
896.447	84.99
896.617	-87.04
896.788	-54.27
896.958	-54.27
897.129	58.37
897.299	-80.89
897.47	111.61
897.64	101.37
897.81	-3.07
897.981	52.22
898.151	-66.56
898.322	-9.22
898.492	35.84
898.662	-66.56
898.832	-62.46
899.003	-13.31
899.173	93.18
899.343	-58.37
899.513	-21.5
