Data from USB4F104151__17__10-23-21-848.txt Node

Date: Wed Feb 26 10:23:21 EST 2025
User: louis
Spectrometer: USB4F10415
Trigger mode: 4
Integration Time (sec): 1.000000E-1
Scans to average: 1
Electric dark correction enabled: true
Nonlinearity correction enabled: false
Boxcar width: 0
XAxis mode: Wavelengths
Number of Pixels in Spectrum: 3648
>>>>>Begin Spectral Data<<<<<
178.204	-439.12
178.424	-439.12
178.644	-439.12
178.864	-359.25
179.084	-381.78
179.304	-43.86
179.524	-62.29
179.744	36.01
179.964	48.3
180.184	-11.09
180.404	23.72
180.624	-29.52
180.844	31.91
181.064	-66.39
181.283	95.4
181.503	-11.09
181.723	-11.09
181.943	-86.87
182.163	199.85
182.383	-64.34
182.602	29.87
182.822	212.14
183.042	33.96
183.262	-4.95
183.482	9.39
183.701	-54.1
183.921	36.01
184.141	-0.85
184.361	97.45
184.58	31.91
184.8	38.06
185.02	36.01
185.239	99.5
185.459	89.26
185.679	93.35
185.898	-97.11
186.118	93.35
186.338	7.34
186.557	122.02
186.777	13.48
186.997	19.63
187.216	38.06
187.436	148.65
187.655	79.02
187.875	60.59
188.095	13.48
188.314	132.26
188.534	117.93
188.753	-111.44
188.973	64.68
189.192	150.7
189.412	1.19
189.631	60.59
189.851	9.39
190.07	181.42
190.29	7.34
190.509	23.72
190.729	68.78
190.948	185.51
191.168	263.33
191.387	52.39
191.607	5.29
191.826	87.21
192.045	-39.76
192.265	1.19
192.484	48.3
192.704	97.45
192.923	-66.39
193.142	244.9
193.362	91.31
193.581	197.8
193.8	64.68
194.02	76.97
194.239	23.72
194.458	11.43
194.678	-0.85
194.897	52.39
195.116	21.67
195.335	33.96
195.555	91.31
195.774	-0.85
195.993	79.02
196.212	46.25
196.432	-9.05
196.651	-15.19
196.87	17.58
197.089	214.18
197.308	29.87
197.528	76.97
197.747	-19.29
197.966	21.67
198.185	158.89
198.404	-70.48
198.623	60.59
198.842	95.4
199.062	87.21
199.281	122.02
199.5	-2.9
199.719	15.53
199.938	85.16
200.157	38.06
200.376	119.98
200.595	122.02
200.814	74.92
201.033	-2.9
201.252	142.5
201.471	83.11
201.69	17.58
201.909	-2.9
202.128	95.4
202.347	126.12
202.566	33.96
202.785	-84.82
203.004	-41.81
203.223	220.33
203.442	97.45
203.661	-37.72
203.879	70.83
204.098	158.89
204.317	3.24
204.536	48.3
204.755	105.64
204.974	99.5
205.193	-27.48
205.411	101.55
205.63	103.59
205.849	40.11
206.068	-2.9
206.287	-23.38
206.505	117.93
206.724	25.77
206.943	-31.57
207.162	3.24
207.381	85.16
207.599	70.83
207.818	91.31
208.037	-27.48
208.255	-21.33
208.474	54.44
208.693	83.11
208.911	31.91
209.13	66.73
209.349	13.48
209.567	128.17
209.786	76.97
210.005	101.55
210.223	-9.05
210.442	-62.29
210.661	72.87
210.879	40.11
211.098	17.58
211.316	40.11
211.535	156.84
211.753	54.44
211.972	38.06
212.191	-17.24
212.409	13.48
212.628	56.49
212.846	-11.09
213.065	36.01
213.283	128.17
213.502	36.01
213.72	-11.09
213.938	62.63
214.157	15.53
214.375	79.02
214.594	42.15
214.812	33.96
215.031	58.54
215.249	-15.19
215.467	31.91
215.686	23.72
215.904	48.3
216.122	91.31
216.341	117.93
216.559	23.72
216.778	52.39
216.996	165.03
217.214	76.97
217.432	-17.24
217.651	7.34
217.869	54.44
218.087	-15.19
218.306	-39.76
218.524	76.97
218.742	66.73
218.96	101.55
219.179	42.15
219.397	5.29
219.615	203.94
219.833	128.17
220.051	13.48
220.27	70.83
220.488	148.65
220.706	119.98
220.924	52.39
221.142	-4.95
221.36	60.59
221.578	64.68
221.796	9.39
222.015	62.63
222.233	89.26
222.451	128.17
222.669	-68.44
222.887	87.21
223.105	5.29
223.323	74.92
223.541	-21.33
223.759	128.17
223.977	-27.48
224.195	130.22
224.413	33.96
224.631	107.69
224.849	-21.33
225.067	230.57
225.285	13.48
225.503	-72.53
225.721	-68.44
225.939	79.02
226.157	25.77
226.375	185.51
226.592	95.4
226.81	19.63
227.028	85.16
227.246	183.46
227.464	68.78
227.682	105.64
227.9	95.4
228.117	97.45
228.335	66.73
228.553	74.92
228.771	40.11
228.989	91.31
229.206	97.45
229.424	-60.24
229.642	40.11
229.86	-37.72
230.077	169.13
230.295	48.3
230.513	128.17
230.731	33.96
230.948	165.03
231.166	189.61
231.384	58.54
231.601	72.87
231.819	156.84
232.037	25.77
232.254	19.63
232.472	-9.05
232.689	56.49
232.907	162.98
233.125	-11.09
233.342	-35.67
233.56	-33.62
233.777	50.35
233.995	66.73
234.213	107.69
234.43	27.82
234.648	124.07
234.865	29.87
235.083	68.78
235.3	72.87
235.518	23.72
235.735	136.36
235.953	42.15
236.17	64.68
236.388	27.82
236.605	38.06
236.822	36.01
237.04	146.6
237.257	66.73
237.475	7.34
237.692	97.45
237.909	44.2
238.127	29.87
238.344	38.06
238.562	70.83
238.779	-50
238.996	-66.39
239.214	144.55
239.431	111.78
239.648	-29.52
239.865	64.68
240.083	58.54
240.3	31.91
240.517	46.25
240.735	162.98
240.952	70.83
241.169	-45.91
241.386	58.54
241.603	72.87
241.821	31.91
242.038	85.16
242.255	44.2
242.472	-52.05
242.689	-17.24
242.907	52.39
243.124	132.26
243.341	-66.39
243.558	-66.39
243.775	48.3
243.992	-41.81
244.209	38.06
244.426	181.42
244.643	105.64
244.86	-13.14
245.078	25.77
245.295	3.24
245.512	68.78
245.729	19.63
245.946	79.02
246.163	48.3
246.38	19.63
246.597	124.07
246.814	68.78
247.031	-17.24
247.248	38.06
247.464	132.26
247.681	17.58
247.898	81.07
248.115	-9.05
248.332	31.91
248.549	136.36
248.766	158.89
248.983	23.72
249.2	132.26
249.417	138.41
249.633	50.35
249.85	9.39
250.067	93.35
250.284	23.72
250.501	-29.52
250.717	95.4
250.934	-25.43
251.151	44.2
251.368	15.53
251.585	89.26
251.801	62.63
252.018	-35.67
252.235	144.55
252.451	-27.48
252.668	-0.85
252.885	152.74
253.102	31.91
253.318	56.49
253.535	-11.09
253.752	-70.48
253.968	13.48
254.185	-35.67
254.401	60.59
254.618	81.07
254.835	23.72
255.051	97.45
255.268	52.39
255.484	87.21
255.701	-11.09
255.917	126.12
256.134	9.39
256.351	23.72
256.567	-37.72
256.784	11.43
257	-47.96
257.217	146.6
257.433	3.24
257.65	54.44
257.866	134.31
258.082	-58.2
258.299	-43.86
258.515	101.55
258.732	17.58
258.948	42.15
259.165	58.54
259.381	-52.05
259.597	56.49
259.814	95.4
260.03	9.39
260.246	23.72
260.463	58.54
260.679	27.82
260.895	-25.43
261.112	3.24
261.328	50.35
261.544	-23.38
261.761	234.66
261.977	31.91
262.193	27.82
262.409	17.58
262.626	17.58
262.842	83.11
263.058	-19.29
263.274	128.17
263.49	31.91
263.707	44.2
263.923	101.55
264.139	-45.91
264.355	44.2
264.571	46.25
264.787	19.63
265.004	95.4
265.22	1.19
265.436	36.01
265.652	85.16
265.868	83.11
266.084	-0.85
266.3	13.48
266.516	-50
266.732	15.53
266.948	119.98
267.164	-4.95
267.38	119.98
267.596	83.11
267.812	115.88
268.028	70.83
268.244	-4.95
268.46	93.35
268.676	17.58
268.892	38.06
269.108	-99.16
269.324	38.06
269.54	-99.16
269.756	105.64
269.972	-0.85
270.188	76.97
270.403	31.91
270.619	46.25
270.835	56.49
271.051	31.91
271.267	-2.9
271.483	-37.72
271.698	97.45
271.914	56.49
272.13	66.73
272.346	62.63
272.562	40.11
272.777	140.46
272.993	-64.34
273.209	-45.91
273.425	74.92
273.64	-93.01
273.856	21.67
274.072	27.82
274.287	-11.09
274.503	115.88
274.719	85.16
274.934	-33.62
275.15	9.39
275.366	7.34
275.581	-76.63
275.797	79.02
276.012	66.73
276.228	-72.53
276.444	52.39
276.659	130.22
276.875	-162.64
277.09	99.5
277.306	31.91
277.521	36.01
277.737	50.35
277.952	99.5
278.168	60.59
278.383	-2.9
278.599	-56.15
278.814	162.98
279.03	-31.57
279.245	156.84
279.461	-39.76
279.676	91.31
279.892	-47.96
280.107	-60.24
280.322	-15.19
280.538	46.25
280.753	5.29
280.969	126.12
281.184	66.73
281.399	136.36
281.615	66.73
281.83	50.35
282.045	-54.1
282.26	-60.24
282.476	132.26
282.691	93.35
282.906	-13.14
283.122	64.68
283.337	40.11
283.552	17.58
283.767	-37.72
283.983	31.91
284.198	-0.85
284.413	142.5
284.628	-23.38
284.843	36.01
285.058	132.26
285.274	36.01
285.489	33.96
285.704	109.74
285.919	13.48
286.134	74.92
286.349	-23.38
286.564	38.06
286.779	122.02
286.995	72.87
287.21	-37.72
287.425	48.3
287.64	64.68
287.855	25.77
288.07	9.39
288.285	154.79
288.5	81.07
288.715	29.87
288.93	9.39
289.145	13.48
289.36	68.78
289.575	-50
289.79	128.17
290.004	-58.2
290.219	203.94
290.434	-7
290.649	-56.15
290.864	76.97
291.079	-39.76
291.294	56.49
291.509	117.93
291.724	-7
291.938	17.58
292.153	87.21
292.368	64.68
292.583	142.5
292.798	87.21
293.012	-21.33
293.227	122.02
293.442	-0.85
293.657	85.16
293.871	48.3
294.086	52.39
294.301	187.56
294.516	128.17
294.73	62.63
294.945	13.48
295.16	29.87
295.374	136.36
295.589	95.4
295.804	13.48
296.018	60.59
296.233	99.5
296.447	7.34
296.662	87.21
296.877	134.31
297.091	99.5
297.306	31.91
297.52	-7
297.735	126.12
297.949	42.15
298.164	44.2
298.378	107.69
298.593	-52.05
298.807	-17.24
299.022	79.02
299.236	156.84
299.451	5.29
299.665	124.07
299.88	25.77
300.094	5.29
300.309	7.34
300.523	40.11
300.737	-25.43
300.952	87.21
301.166	48.3
301.381	19.63
301.595	3.24
301.809	-47.96
302.024	25.77
302.238	-35.67
302.452	107.69
302.667	76.97
302.881	132.26
303.095	138.41
303.309	72.87
303.524	17.58
303.738	5.29
303.952	21.67
304.166	44.2
304.381	-101.2
304.595	183.46
304.809	-47.96
305.023	68.78
305.237	9.39
305.452	-4.95
305.666	154.79
305.88	85.16
306.094	130.22
306.308	113.83
306.522	101.55
306.736	-9.05
306.95	87.21
307.164	-29.52
307.379	25.77
307.593	87.21
307.807	150.7
308.021	46.25
308.235	70.83
308.449	-131.92
308.663	134.31
308.877	208.04
309.091	9.39
309.305	19.63
309.519	-105.3
309.733	130.22
309.947	-33.62
310.161	21.67
310.374	175.27
310.588	103.59
310.802	-19.29
311.016	-19.29
311.23	-13.14
311.444	11.43
311.658	68.78
311.872	130.22
312.085	175.27
312.299	208.04
312.513	132.26
312.727	79.02
312.941	-31.57
313.154	48.3
313.368	93.35
313.582	-17.24
313.796	13.48
314.009	13.48
314.223	134.31
314.437	76.97
314.651	79.02
314.864	-9.05
315.078	64.68
315.292	29.87
315.505	-54.1
315.719	44.2
315.933	62.63
316.146	-9.05
316.36	-27.48
316.573	115.88
316.787	46.25
317.001	66.73
317.214	31.91
317.428	148.65
317.641	-13.14
317.855	-11.09
318.068	113.83
318.282	48.3
318.495	220.33
318.709	66.73
318.922	19.63
319.136	160.94
319.349	173.22
319.563	-33.62
319.776	93.35
319.99	-21.33
320.203	142.5
320.417	70.83
320.63	48.3
320.843	165.03
321.057	126.12
321.27	23.72
321.483	72.87
321.697	130.22
321.91	83.11
322.124	87.21
322.337	83.11
322.55	-27.48
322.763	66.73
322.977	-13.14
323.19	21.67
323.403	54.44
323.617	46.25
323.83	150.7
324.043	31.91
324.256	97.45
324.469	40.11
324.683	138.41
324.896	29.87
325.109	15.53
325.322	-95.06
325.535	97.45
325.748	107.69
325.962	-9.05
326.175	25.77
326.388	87.21
326.601	83.11
326.814	-0.85
327.027	36.01
327.24	140.46
327.453	-86.87
327.666	68.78
327.879	21.67
328.092	54.44
328.305	101.55
328.518	25.77
328.731	-2.9
328.944	29.87
329.157	66.73
329.37	5.29
329.583	107.69
329.796	220.33
330.009	-88.92
330.222	79.02
330.435	48.3
330.648	40.11
330.861	105.64
331.073	52.39
331.286	122.02
331.499	15.53
331.712	42.15
331.925	-17.24
332.138	91.31
332.35	134.31
332.563	-60.24
332.776	87.21
332.989	-56.15
333.202	72.87
333.414	25.77
333.627	60.59
333.84	31.91
334.053	-25.43
334.265	-7
334.478	-58.2
334.691	-19.29
334.903	122.02
335.116	-68.44
335.329	52.39
335.541	115.88
335.754	152.74
335.966	-35.67
336.179	44.2
336.392	89.26
336.604	68.78
336.817	44.2
337.029	-0.85
337.242	76.97
337.454	81.07
337.667	72.87
337.88	93.35
338.092	46.25
338.305	87.21
338.517	9.39
338.729	91.31
338.942	128.17
339.154	-82.77
339.367	9.39
339.579	76.97
339.792	33.96
340.004	79.02
340.217	11.43
340.429	31.91
340.641	-13.14
340.854	-29.52
341.066	31.91
341.278	107.69
341.491	205.99
341.703	58.54
341.915	-2.9
342.128	81.07
342.34	89.26
342.552	25.77
342.764	70.83
342.977	-58.2
343.189	-0.85
343.401	85.16
343.613	-97.11
343.826	9.39
344.038	-11.09
344.25	89.26
344.462	-74.58
344.674	79.02
344.886	27.82
345.099	119.98
345.311	70.83
345.523	52.39
345.735	-95.06
345.947	107.69
346.159	105.64
346.371	15.53
346.583	1.19
346.795	255.14
347.007	54.44
347.219	52.39
347.431	23.72
347.643	91.31
347.855	-66.39
348.067	99.5
348.279	-47.96
348.491	56.49
348.703	52.39
348.915	-2.9
349.127	-60.24
349.339	48.3
349.551	-25.43
349.763	48.3
349.975	19.63
350.187	21.67
350.399	185.51
350.61	66.73
350.822	-37.72
351.034	58.54
351.246	19.63
351.458	97.45
351.669	25.77
351.881	79.02
352.093	128.17
352.305	76.97
352.517	25.77
352.728	132.26
352.94	48.3
353.152	91.31
353.363	-39.76
353.575	56.49
353.787	154.79
353.999	19.63
354.21	122.02
354.422	-2.9
354.633	105.64
354.845	68.78
355.057	93.35
355.268	13.48
355.48	119.98
355.692	-113.49
355.903	-27.48
356.115	-29.52
356.326	-47.96
356.538	142.5
356.749	46.25
356.961	177.32
357.172	-37.72
357.384	3.24
357.595	214.18
357.807	-11.09
358.018	13.48
358.23	38.06
358.441	158.89
358.653	126.12
358.864	15.53
359.075	-43.86
359.287	11.43
359.498	111.78
359.709	58.54
359.921	79.02
360.132	66.73
360.344	29.87
360.555	-47.96
360.766	62.63
360.977	-35.67
361.189	144.55
361.4	-7
361.611	134.31
361.823	148.65
362.034	95.4
362.245	-64.34
362.456	36.01
362.667	-4.95
362.879	13.48
363.09	21.67
363.301	95.4
363.512	42.15
363.723	-35.67
363.935	-25.43
364.146	74.92
364.357	23.72
364.568	97.45
364.779	-11.09
364.99	97.45
365.201	-121.68
365.412	117.93
365.623	-27.48
365.834	48.3
366.045	-0.85
366.256	48.3
366.467	58.54
366.678	-9.05
366.889	58.54
367.1	-35.67
367.311	142.5
367.522	79.02
367.733	11.43
367.944	25.77
368.155	83.11
368.366	81.07
368.577	128.17
368.788	50.35
368.999	13.48
369.209	40.11
369.42	218.28
369.631	173.22
369.842	103.59
370.053	44.2
370.264	62.63
370.474	5.29
370.685	60.59
370.896	89.26
371.107	128.17
371.317	50.35
371.528	36.01
371.739	126.12
371.95	50.35
372.16	119.98
372.371	-95.06
372.582	-13.14
372.792	38.06
373.003	91.31
373.214	87.21
373.424	50.35
373.635	-80.72
373.846	89.26
374.056	25.77
374.267	-9.05
374.477	105.64
374.688	-52.05
374.898	17.58
375.109	95.4
375.319	-11.09
375.53	134.31
375.74	117.93
375.951	42.15
376.161	64.68
376.372	85.16
376.582	-9.05
376.793	134.31
377.003	-31.57
377.214	-37.72
377.424	103.59
377.635	-2.9
377.845	29.87
378.055	144.55
378.266	-60.24
378.476	17.58
378.686	91.31
378.897	97.45
379.107	81.07
379.317	-21.33
379.528	-60.24
379.738	68.78
379.948	-17.24
380.158	156.84
380.369	-21.33
380.579	23.72
380.789	19.63
380.999	-9.05
381.21	36.01
381.42	175.27
381.63	13.48
381.84	64.68
382.05	1.19
382.261	122.02
382.471	167.08
382.681	-33.62
382.891	156.84
383.101	66.73
383.311	-7
383.521	52.39
383.731	76.97
383.941	83.11
384.151	29.87
384.361	9.39
384.571	66.73
384.781	58.54
384.991	187.56
385.201	244.9
385.411	66.73
385.621	79.02
385.831	140.46
386.041	-7
386.251	72.87
386.461	148.65
386.671	-31.57
386.881	97.45
387.091	1.19
387.301	95.4
387.511	62.63
387.72	25.77
387.93	13.48
388.14	-47.96
388.35	13.48
388.56	66.73
388.769	132.26
388.979	36.01
389.189	25.77
389.399	19.63
389.609	152.74
389.818	109.74
390.028	85.16
390.238	72.87
390.447	-7
390.657	44.2
390.867	7.34
391.076	3.24
391.286	89.26
391.496	-41.81
391.705	81.07
391.915	126.12
392.125	130.22
392.334	7.34
392.544	99.5
392.753	62.63
392.963	-0.85
393.172	79.02
393.382	17.58
393.591	197.8
393.801	42.15
394.01	105.64
394.22	81.07
394.429	-7
394.639	23.72
394.848	136.36
395.058	76.97
395.267	85.16
395.477	79.02
395.686	-7
395.895	187.56
396.105	124.07
396.314	99.5
396.524	56.49
396.733	79.02
396.942	89.26
397.152	89.26
397.361	113.83
397.57	91.31
397.78	44.2
397.989	101.55
398.198	189.61
398.407	-29.52
398.617	52.39
398.826	17.58
399.035	-17.24
399.244	148.65
399.453	21.67
399.663	68.78
399.872	122.02
400.081	-23.38
400.29	136.36
400.499	-41.81
400.708	122.02
400.917	83.11
401.127	132.26
401.336	72.87
401.545	234.66
401.754	111.78
401.963	160.94
402.172	36.01
402.381	40.11
402.59	9.39
402.799	44.2
403.008	156.84
403.217	23.72
403.426	107.69
403.635	-72.53
403.844	-17.24
404.053	52.39
404.262	11.43
404.471	212.14
404.68	60.59
404.888	11.43
405.097	-35.67
405.306	44.2
405.515	117.93
405.724	50.35
405.933	27.82
406.142	111.78
406.35	179.37
406.559	3.24
406.768	54.44
406.977	101.55
407.185	54.44
407.394	33.96
407.603	38.06
407.812	122.02
408.02	38.06
408.229	66.73
408.438	9.39
408.646	-11.09
408.855	-27.48
409.064	76.97
409.272	-9.05
409.481	97.45
409.69	-25.43
409.898	-52.05
410.107	60.59
410.315	95.4
410.524	70.83
410.733	-29.52
410.941	5.29
411.15	193.7
411.358	29.87
411.567	222.38
411.775	54.44
411.984	111.78
412.192	101.55
412.401	58.54
412.609	195.75
412.818	109.74
413.026	89.26
413.234	70.83
413.443	97.45
413.651	-74.58
413.86	9.39
414.068	109.74
414.276	158.89
414.485	93.35
414.693	64.68
414.901	171.18
415.11	40.11
415.318	44.2
415.526	68.78
415.734	154.79
415.943	54.44
416.151	101.55
416.359	36.01
416.567	122.02
416.776	-13.14
416.984	126.12
417.192	148.65
417.4	9.39
417.608	21.67
417.817	36.01
418.025	156.84
418.233	218.28
418.441	42.15
418.649	-7
418.857	56.49
419.065	171.18
419.273	-17.24
419.481	119.98
419.689	72.87
419.897	42.15
420.105	-21.33
420.313	132.26
420.521	146.6
420.729	95.4
420.937	42.15
421.145	-13.14
421.353	246.95
421.561	195.75
421.769	111.78
421.977	-70.48
422.185	83.11
422.393	70.83
422.601	226.47
422.809	52.39
423.017	93.35
423.224	62.63
423.432	50.35
423.64	52.39
423.848	58.54
424.056	-11.09
424.263	19.63
424.471	31.91
424.679	140.46
424.887	29.87
425.094	189.61
425.302	54.44
425.51	60.59
425.718	144.55
425.925	27.82
426.133	-2.9
426.341	167.08
426.548	29.87
426.756	79.02
426.964	70.83
427.171	83.11
427.379	101.55
427.586	83.11
427.794	124.07
428.001	83.11
428.209	97.45
428.417	142.5
428.624	87.21
428.832	111.78
429.039	165.03
429.247	162.98
429.454	169.13
429.662	175.27
429.869	60.59
430.076	89.26
430.284	130.22
430.491	185.51
430.699	62.63
430.906	232.62
431.114	175.27
431.321	158.89
431.528	81.07
431.736	195.75
431.943	158.89
432.15	177.32
432.358	205.99
432.565	238.76
432.772	-19.29
432.979	132.26
433.187	136.36
433.394	171.18
433.601	38.06
433.808	298.15
434.016	222.38
434.223	191.66
434.43	189.61
434.637	330.92
434.844	255.14
435.052	240.81
435.259	240.81
435.466	298.15
435.673	287.91
435.88	224.42
436.087	378.02
436.294	328.87
436.501	304.29
436.708	240.81
436.915	275.62
437.122	351.4
437.329	214.18
437.537	271.53
437.743	330.92
437.95	343.21
438.157	322.73
438.364	345.25
438.571	388.26
438.778	427.17
438.985	455.84
439.192	474.28
439.399	418.98
439.606	492.71
439.813	427.17
440.02	685.22
440.227	564.39
440.433	496.8
440.64	521.38
440.847	480.42
441.054	556.19
441.261	711.84
441.467	617.63
441.674	578.72
441.881	715.94
442.088	588.96
442.294	672.93
442.501	742.56
442.708	724.13
442.914	720.03
443.121	748.7
443.328	844.96
443.534	928.92
443.741	801.95
443.948	783.52
444.154	853.15
444.361	996.51
444.568	961.69
444.774	982.17
444.981	824.48
445.187	1174.68
445.394	1094.81
445.6	1176.73
445.807	1195.16
446.013	1221.78
446.22	1131.67
446.426	1256.6
446.633	1369.24
446.839	1561.75
447.046	1264.79
447.252	1541.27
447.459	1442.96
447.665	1541.27
447.871	1649.81
448.078	1840.27
448.284	1653.91
448.491	1873.04
448.697	1901.71
448.903	2053.26
449.11	2088.07
449.316	1975.44
449.522	2288.78
449.728	2200.71
449.935	2305.16
450.141	2333.83
450.347	2628.74
450.553	2548.87
450.76	2522.24
450.966	2681.99
451.172	2790.53
451.378	2813.06
451.584	2995.32
451.791	3183.74
451.997	3241.08
452.203	3349.62
452.409	3671.15
452.615	3619.96
452.821	3507.32
453.027	3478.65
453.233	4181.1
453.44	3982.45
453.646	4134
453.852	4281.45
454.058	4267.11
454.264	4615.27
454.47	4998.24
454.676	4732
454.882	5395.54
455.088	5149.79
455.294	5450.84
455.5	5737.56
455.705	6104.14
455.911	6054.99
456.117	6286.41
456.323	6677.57
456.529	6437.96
456.735	7107.65
456.941	7308.35
457.147	7574.58
457.352	7797.81
457.558	8025.14
457.764	8504.36
457.97	8633.38
458.176	9106.46
458.381	9376.8
458.587	9759.77
458.793	9985.04
458.999	10206.22
459.204	11136
459.41	11766.78
459.616	11447.29
459.821	12264.43
460.027	12864.49
460.233	13341.66
460.438	13204.45
460.644	14072.79
460.85	13937.62
461.055	14812.1
461.261	15616.96
461.466	15147.97
461.672	15498.17
461.878	17077.16
462.083	17128.36
462.289	17488.8
462.494	17978.26
462.7	18123.67
462.905	18738.06
463.111	19987.32
463.316	21068.65
463.522	21238.63
463.727	22322.01
463.932	22954.83
464.138	23970.62
464.343	24247.1
464.549	24769.33
464.754	26370.84
464.959	27124.49
465.165	27400.97
465.37	27671.3
465.575	27306.76
465.781	29168.37
465.986	30313.18
466.191	29469.42
466.397	30180.06
466.602	29256.43
466.807	30855.89
467.012	31494.86
467.218	31933.12
467.423	31759.05
467.628	32791.22
467.833	34495.13
468.038	33794.73
468.244	32987.83
468.449	35369.61
468.654	34288.29
468.859	34380.45
469.064	34464.41
469.269	33397.42
469.474	33551.02
469.679	34572.96
469.885	33991.33
470.09	34284.19
470.295	34364.06
470.5	33731.24
470.705	33860.26
470.91	32582.33
471.115	32737.98
471.32	32901.81
471.525	32912.05
471.73	31955.65
471.935	31902.4
472.139	30694.1
472.344	30554.84
472.549	30223.07
472.754	29934.31
472.959	29065.97
473.164	28396.28
473.369	27790.08
473.574	28414.71
473.778	27624.2
473.983	27433.74
474.188	27101.97
474.393	25785.12
474.598	25668.39
474.802	25119.53
475.007	24300.34
475.212	24503.09
475.417	23456.58
475.621	23302.98
475.826	23038.8
476.031	22440.79
476.235	22002.52
476.44	22008.67
476.645	21420.9
476.849	21048.17
477.054	20876.14
477.259	20317.04
477.463	20308.85
477.668	19852.16
477.872	19829.63
478.077	19409.79
478.282	18666.38
478.486	18688.91
478.691	18512.78
478.895	18119.57
479.1	18064.28
479.304	17984.41
479.509	17439.65
479.713	17769.37
479.918	17138.6
480.122	16651.18
480.326	16952.23
480.531	16946.09
480.735	16851.88
480.94	16423.86
481.144	16851.88
481.348	16040.89
481.553	16147.38
481.757	15825.85
481.961	15930.3
482.166	16079.8
482.37	15727.55
482.574	15211.46
482.778	15535.04
482.983	15592.38
483.187	15154.12
483.391	15229.89
483.595	14795.72
483.8	14840.78
484.004	14750.67
484.208	14623.69
484.412	14531.53
484.616	14521.29
484.821	14138.32
485.025	13921.24
485.229	14070.74
485.433	13747.16
485.637	13568.99
485.841	13421.53
486.045	13284.32
486.249	13046.76
486.453	13054.95
486.657	12624.87
486.861	12633.07
487.065	12211.18
487.269	12198.9
487.473	11789.3
487.677	12039.15
487.881	11801.59
488.085	11318.27
488.289	11107.33
488.493	10726.41
488.697	10935.3
488.901	10695.69
489.105	10621.96
489.309	10423.31
489.512	10218.51
489.716	9841.68
489.92	9929.75
490.124	9888.79
490.328	9692.18
490.531	9223.2
490.735	9258.01
490.939	8967.2
491.143	8920.1
491.346	8731.69
491.55	8766.5
491.754	8500.26
491.958	8475.69
492.161	8105.01
492.365	8213.55
492.569	8018.99
492.772	7830.58
492.976	7889.97
493.18	7679.03
493.383	7758.9
493.587	7484.47
493.79	7490.62
493.994	7310.4
494.197	7220.28
494.401	7222.33
494.605	7115.84
494.808	7142.46
495.012	7146.56
495.215	7074.88
495.419	7167.04
495.622	6937.66
495.825	6911.04
496.029	6775.88
496.232	6827.07
496.436	6679.62
496.639	6861.89
496.843	6718.53
497.046	6806.59
497.249	6958.14
497.453	6683.72
497.656	6628.42
497.859	6906.95
498.063	7001.15
498.266	7009.34
498.469	6841.41
498.673	6808.64
498.876	6804.55
499.079	6792.26
499.282	6837.31
499.485	7377.98
499.689	7208
499.892	7113.79
500.095	7046.21
500.298	7271.48
500.501	7222.33
500.705	7398.46
500.908	7416.89
501.111	7535.67
501.314	7660.6
501.517	7713.84
501.72	7822.39
501.923	7590.97
502.126	7801.91
502.329	8197.17
502.532	8027.18
502.735	8145.97
502.938	8152.11
503.141	8342.57
503.344	8612.9
503.547	8631.33
503.75	8662.05
503.953	8829.99
504.156	8973.35
504.359	8877.09
504.562	8959.01
504.765	9434.14
504.968	9417.75
505.17	9677.85
505.373	9757.72
505.576	9962.51
505.779	9899.03
505.982	10116.11
506.185	10513.42
506.387	10435.6
506.59	10707.98
506.793	10937.35
506.996	11101.19
507.198	11445.24
507.401	11596.79
507.604	11805.69
507.807	11918.32
508.009	12344.3
508.212	12325.87
508.415	12731.37
508.617	12927.97
508.82	13280.22
509.022	13226.98
509.225	13773.78
509.428	13964.25
509.63	14320.59
509.833	14461.9
510.035	14986.18
510.238	14971.85
510.44	15250.37
510.643	15762.36
510.845	16196.53
511.048	16343.99
511.25	16665.52
511.453	17101.73
511.655	17994.65
511.858	17910.68
512.06	18545.55
512.262	18690.96
512.465	18924.43
512.667	19626.88
512.87	20022.14
513.072	20071.29
513.274	20878.19
513.477	21226.34
513.679	21785.44
513.881	22119.26
514.084	22516.56
514.286	23300.94
514.488	23743.3
514.69	24365.88
514.893	24918.83
515.095	25070.38
515.297	25604.9
515.499	26434.33
515.701	26657.56
515.904	27396.87
516.106	28003.07
516.308	28173.05
516.51	28766.96
516.712	29182.7
516.914	30243.55
517.116	30595.8
517.318	31191.76
517.52	31353.55
517.722	31869.64
517.925	32654.01
518.127	33106.61
518.329	33700.52
518.531	34058.91
518.733	34661.02
518.935	35535.5
519.136	35486.35
519.338	36272.77
519.54	36661.88
519.742	37026.42
519.944	37980.78
520.146	38457.95
520.348	38922.84
520.55	39246.42
520.752	39592.53
520.954	40561.22
521.155	40245.83
521.357	40698.43
521.559	41298.48
521.761	42170.92
521.963	41992.75
522.164	42295.85
522.366	42441.25
522.568	43258.39
522.77	43667.98
522.971	44122.63
523.173	43553.3
523.375	44820.99
523.576	44399.11
523.778	44313.09
523.98	44757.5
524.181	44851.71
524.383	45148.67
524.584	45668.85
524.786	45474.29
524.988	44874.24
525.189	45386.23
525.391	45617.65
525.592	45707.76
525.794	45666.8
525.995	45259.26
526.197	45281.78
526.398	45511.16
526.6	45402.61
526.801	45140.47
527.003	45052.41
527.204	44681.73
527.406	44706.3
527.607	44130.83
527.808	44798.46
528.01	43672.08
528.211	43921.93
528.412	43792.91
528.614	43428.37
528.815	43061.79
529.016	43172.38
529.218	42265.13
529.419	42068.52
529.62	41632.3
529.822	41585.2
530.023	40784.44
530.224	40446.53
530.425	40278.6
530.626	39320.15
530.828	38804.06
531.029	39400.02
531.23	37966.44
531.431	38054.5
531.632	37677.68
531.833	37456.5
532.035	36770.43
532.236	36184.71
532.437	36215.43
532.638	35349.14
532.839	34880.15
533.04	34808.47
533.241	33735.34
533.442	34189.98
533.643	33288.88
533.844	33172.14
534.045	32484.03
534.246	31939.27
534.447	31568.58
534.648	30976.72
534.849	30763.73
535.05	30137.05
535.251	30055.14
535.451	29151.98
535.652	28990.19
535.853	28824.31
536.054	28263.16
536.255	28136.19
536.456	27476.74
536.657	27458.31
536.857	26835.73
537.058	26383.13
537.259	26198.81
537.46	26030.88
537.66	25307.94
537.861	24941.36
538.062	24724.27
538.263	24519.48
538.463	24087.36
538.664	23835.45
538.865	23706.43
539.065	23505.73
539.266	22936.4
539.466	22821.71
539.667	22502.23
539.868	22539.09
540.068	21801.82
540.269	21451.62
540.469	21597.03
540.67	21263.21
540.87	20835.18
541.071	20706.16
541.271	20405.11
541.472	20394.87
541.672	19921.79
541.873	19768.19
542.073	19190.66
542.274	19555.2
542.474	19012.49
542.675	18836.36
542.875	18836.36
543.075	18328.47
543.276	18113.43
543.476	18125.72
543.676	17693.6
543.877	17562.53
544.077	17281.95
544.277	17394.59
544.478	17050.53
544.678	17044.39
544.878	16651.18
545.078	16634.8
545.279	16147.38
545.479	15932.34
545.679	15979.45
545.879	15754.17
546.079	15553.47
546.28	15225.79
546.48	15162.31
546.68	15051.72
546.88	14865.35
547.08	14652.36
547.28	14685.13
547.48	14128.08
547.68	14205.91
547.88	13954.01
548.081	13718.49
548.281	13505.5
548.481	13556.7
548.681	13536.22
548.881	13356
549.081	13118.43
549.28	12858.34
549.48	12561.39
549.68	12112.88
549.88	12407.79
550.08	12039.15
550.28	11938.8
550.48	11908.08
550.68	11869.17
550.88	11488.25
551.08	11303.93
551.279	11267.07
551.479	10888.2
551.679	11179.01
551.879	10658.82
552.079	10730.5
552.278	10376.2
552.478	10474.51
552.678	9980.95
552.878	9858.07
553.077	9653.27
553.277	9677.85
553.477	9653.27
553.676	9466.91
553.876	9241.63
554.076	9120.8
554.275	8827.94
554.475	8717.35
554.674	8750.12
554.874	8639.53
555.074	8211.5
555.273	8236.08
555.473	8133.68
555.672	7799.86
555.872	7879.73
556.071	7824.44
556.271	7767.09
556.47	7447.61
556.67	7330.87
556.869	7140.41
557.068	7234.62
557.268	7005.25
557.467	6911.04
557.667	6870.08
557.866	6747.2
558.065	6589.51
558.265	6413.38
558.464	6243.4
558.663	6480.97
558.863	6227.02
559.062	6267.98
559.261	5805.14
559.461	6124.62
559.66	5610.58
559.859	5708.88
560.058	5471.32
560.258	5377.11
560.457	5407.83
560.656	5485.65
560.855	5162.08
561.054	5145.69
561.253	5182.56
561.453	5043.29
561.652	5049.44
561.851	5031.01
562.05	4850.78
562.249	4555.88
562.448	4754.53
562.647	4484.2
562.846	4531.3
563.045	4537.45
563.244	4502.63
563.443	4308.07
563.642	4105.32
563.841	4256.87
564.04	4170.86
564.239	4131.95
564.438	4144.24
564.637	3970.16
564.836	3847.28
565.035	3757.17
565.234	3789.94
565.432	3849.33
565.631	3757.17
565.83	3638.39
566.029	3585.14
566.228	3464.31
566.427	3570.8
566.625	3341.43
566.824	3384.44
567.023	3392.63
567.222	3329.14
567.42	3282.04
567.619	3200.12
567.818	3183.74
568.016	3224.7
568.215	3034.24
568.414	3157.11
568.612	3011.71
568.811	2925.69
569.01	2927.74
569.208	2921.6
569.407	2952.32
569.605	2923.65
569.804	2761.86
570.002	2796.67
570.201	2503.81
570.4	2618.5
570.598	2583.68
570.797	2657.41
570.995	2479.24
571.193	2385.03
571.392	2464.9
571.59	2286.73
571.789	2479.24
571.987	2348.17
572.186	2327.69
572.384	2235.53
572.582	2182.28
572.781	2217.1
572.979	2145.42
573.177	2141.32
573.376	2073.74
573.574	2213
573.772	1983.63
573.971	1901.71
574.169	1905.81
574.367	2016.4
574.565	1789.07
574.763	1965.2
574.962	1819.79
575.16	1784.98
575.358	1727.63
575.556	1701.01
575.754	1807.5
575.952	1754.26
576.151	1838.22
576.349	1842.32
576.547	1614.99
576.745	1621.14
576.943	1639.57
577.141	1553.55
577.339	1535.12
577.537	1629.33
577.735	1533.08
577.933	1555.6
578.131	1338.52
578.329	1639.57
578.527	1334.42
578.725	1453.2
578.923	1234.07
579.121	1391.77
579.319	1264.79
579.516	1299.61
579.714	1508.5
579.912	1246.36
580.11	1201.3
580.308	1307.8
580.506	1254.55
580.704	1035.42
580.901	1086.62
581.099	1305.75
581.297	1197.21
581.495	1156.25
581.692	1127.58
581.89	1193.11
582.088	1211.54
582.285	1123.48
582.483	1012.89
582.681	978.08
582.878	1039.51
583.076	990.36
583.274	965.79
583.471	1074.33
583.669	961.69
583.866	980.12
584.064	953.5
584.262	763.04
584.459	908.44
584.657	875.68
584.854	910.49
585.052	926.88
585.249	955.55
585.447	928.92
585.644	785.57
585.841	894.11
586.039	838.81
586.236	869.53
586.434	765.09
586.631	787.61
586.828	720.03
587.026	783.52
587.223	638.11
587.42	683.17
587.618	797.85
587.815	842.91
588.012	787.61
588.21	683.17
588.407	795.81
588.604	717.98
588.801	693.41
588.999	666.78
589.196	808.09
589.393	650.4
589.59	650.4
589.787	681.12
589.984	685.22
590.182	736.42
590.379	529.57
590.576	658.59
590.773	691.36
590.97	584.87
591.167	693.41
591.364	638.11
591.561	556.19
591.758	734.37
591.955	660.64
592.152	527.52
592.349	623.78
592.546	576.67
592.743	564.39
592.94	570.53
593.137	677.02
593.334	683.17
593.531	711.84
593.727	781.47
593.924	668.83
594.121	591.01
594.318	588.96
594.515	683.17
594.712	775.33
594.908	703.65
595.105	537.76
595.302	672.93
595.499	578.72
595.696	758.94
595.892	650.4
596.089	677.02
596.286	662.69
596.482	717.98
596.679	705.7
596.876	763.04
597.072	824.48
597.269	701.6
597.466	853.15
597.662	781.47
597.859	785.57
598.055	904.35
598.252	869.53
598.448	930.97
598.645	1023.13
598.841	1000.6
599.038	1123.48
599.234	1125.53
599.431	1262.74
599.627	1105.05
599.824	1137.82
600.02	1205.4
600.217	1162.39
600.413	1289.37
600.609	1320.09
600.806	1606.8
601.002	1404.05
601.198	1498.26
601.395	1668.24
601.591	1647.76
601.787	1688.72
601.984	1729.68
602.18	1748.11
602.376	1877.13
602.572	1903.76
602.769	2151.56
602.965	2090.12
603.161	2180.23
603.357	2258.06
603.553	2321.54
603.75	2260.1
603.946	2419.85
604.142	2507.91
604.338	2724.99
604.534	2598.02
604.73	2673.79
604.926	2751.62
605.122	2942.08
605.318	3019.9
605.514	3253.37
605.71	3247.23
605.906	3316.86
606.102	3427.45
606.298	3759.22
606.494	3701.87
606.69	3822.7
606.886	3720.31
607.082	3841.14
607.278	4187.24
607.474	4226.15
607.67	4445.29
607.866	4291.69
608.062	4719.71
608.257	4785.25
608.453	4660.32
608.649	5018.72
608.845	5094.49
609.041	5067.87
609.236	5303.39
609.432	5450.84
609.628	5792.85
609.824	5745.75
610.019	5925.97
610.215	6003.79
610.411	6304.84
610.606	6454.34
610.802	6655.05
610.998	6724.68
611.193	6999.1
611.389	6923.33
611.584	7214.14
611.78	7486.52
611.976	7705.65
612.171	7994.42
612.367	8154.16
612.562	8182.83
612.758	8508.46
612.953	8557.61
613.149	8885.28
613.344	9088.03
613.539	9479.19
613.735	9616.41
613.93	9868.31
614.126	9987.09
614.321	10472.46
614.517	10810.37
614.712	10757.13
614.907	11224.06
615.103	11455.48
615.298	11488.25
615.493	12065.78
615.688	12119.03
615.884	12624.87
616.079	12729.32
616.274	13241.31
616.47	13480.92
616.665	13900.76
616.86	14064.6
617.055	14515.15
617.25	14971.85
617.445	15717.31
617.641	15586.24
617.836	16151.48
618.031	16153.52
618.226	17062.82
618.421	17132.45
618.616	17859.48
618.811	17660.83
619.006	18580.37
619.201	18434.96
619.396	19481.47
619.591	19440.51
619.786	19848.06
619.981	20169.59
620.176	21191.53
620.371	21078.89
620.566	21652.32
620.761	22440.79
620.956	22819.66
621.151	23079.75
621.346	23821.12
621.541	23892.8
621.735	24597.3
621.93	24783.66
622.125	25340.71
622.32	25543.46
622.515	26141.47
622.709	26684.18
622.904	27149.07
623.099	27630.34
623.294	28285.69
623.488	28207.87
623.683	29170.41
623.878	29106.93
624.072	30257.88
624.267	30583.51
624.462	30749.4
624.656	31056.59
624.851	31865.54
625.046	32021.19
625.24	32760.5
625.435	33278.64
625.629	33493.68
625.824	34247.33
626.018	34366.11
626.213	34394.78
626.407	35220.11
626.602	35302.03
626.796	35930.76
626.991	36321.92
627.185	36641.4
627.38	36870.78
627.574	36919.93
627.768	36780.67
627.963	37415.54
628.157	37335.66
628.352	37509.74
628.546	37139.06
628.74	38115.94
628.935	37212.79
629.129	37837.42
629.323	37280.37
629.517	37116.53
629.712	37065.33
629.906	37022.33
630.1	36375.17
630.294	36379.26
630.489	35748.49
630.683	35381.9
630.877	34394.78
631.071	33946.28
631.265	33905.32
631.459	32740.02
631.653	32078.53
631.848	31431.37
632.042	30726.87
632.236	30376.67
632.43	29543.14
632.624	28875.51
632.818	28209.92
633.012	26811.15
633.206	26118.94
633.4	25525.03
633.594	24333.11
633.788	23921.47
633.982	23081.8
634.176	22111.07
634.369	21226.34
634.563	20478.83
634.757	19411.84
634.951	19233.67
635.145	18430.87
635.339	17847.19
635.533	16952.23
635.726	16309.17
635.92	15545.28
636.114	15014.85
636.308	14218.19
636.501	13777.88
636.695	13286.37
636.889	12588.01
637.083	12037.11
637.276	11535.35
637.47	10963.97
637.664	10658.82
637.857	10421.26
638.051	9931.8
638.244	9528.35
638.438	9047.07
638.632	8877.09
638.825	8291.37
639.019	8318
639.212	7679.03
639.406	7402.55
639.599	7142.46
639.793	6933.57
639.986	6671.43
640.18	6583.37
640.373	6044.75
640.567	5903.44
640.76	5811.28
640.954	5639.25
641.147	5098.59
641.34	5039.2
641.534	4856.93
641.727	4797.54
641.92	4602.98
642.114	4441.19
642.307	4158.57
642.5	4142.19
642.694	3875.95
642.887	3720.31
643.08	3693.68
643.273	3470.45
643.467	3259.51
643.66	3279.99
643.853	3177.59
644.046	2872.45
644.239	2835.58
644.432	2610.31
644.626	2542.72
644.819	2602.11
645.012	2575.49
645.205	2425.99
645.398	2280.58
645.591	2274.44
645.784	2102.41
645.977	1975.44
646.17	1901.71
646.363	1725.58
646.556	1713.3
646.749	1655.95
646.942	1694.86
647.135	1682.58
647.328	1559.7
647.521	1481.88
647.714	1356.95
647.907	1381.53
648.099	1311.89
648.292	1363.09
648.485	1264.79
648.678	1184.92
648.871	1186.97
649.064	1100.95
649.256	951.45
649.449	971.93
649.642	914.59
649.835	873.63
650.027	853.15
650.22	967.84
650.413	867.49
650.605	885.92
650.798	836.77
650.991	801.95
651.183	765.09
651.376	699.55
651.568	787.61
651.761	599.2
651.954	697.5
652.146	613.54
652.339	720.03
652.531	634.02
652.724	496.8
652.916	507.04
653.109	431.27
653.301	636.06
653.494	519.33
653.686	490.66
653.879	625.83
654.071	515.23
654.263	449.7
654.456	425.12
654.648	517.28
654.84	486.56
655.033	439.46
655.225	488.61
655.417	298.15
655.61	564.39
655.802	416.93
655.994	416.93
656.186	226.47
656.379	455.84
656.571	367.78
656.763	298.15
656.955	306.34
657.148	314.53
657.34	386.21
657.532	253.09
657.724	289.96
657.916	306.34
658.108	347.3
658.3	345.25
658.492	337.06
658.684	232.62
658.876	269.48
659.068	249
659.26	193.7
659.452	165.03
659.644	191.66
659.836	343.21
660.028	189.61
660.22	146.6
660.412	218.28
660.604	255.14
660.796	289.96
660.988	259.24
661.18	251.05
661.372	289.96
661.563	199.85
661.755	218.28
661.947	191.66
662.139	105.64
662.331	205.99
662.522	138.41
662.714	134.31
662.906	124.07
663.097	150.7
663.289	169.13
663.481	97.45
663.673	148.65
663.864	228.52
664.056	257.19
664.247	85.16
664.439	236.71
664.631	167.08
664.822	249
665.014	160.94
665.205	132.26
665.397	15.53
665.588	144.55
665.78	171.18
665.971	212.14
666.163	158.89
666.354	187.56
666.546	91.31
666.737	154.79
666.929	136.36
667.12	48.3
667.311	144.55
667.503	160.94
667.694	212.14
667.885	195.75
668.077	167.08
668.268	27.82
668.459	132.26
668.651	132.26
668.842	173.22
669.033	101.55
669.224	72.87
669.416	289.96
669.607	54.44
669.798	72.87
669.989	236.71
670.18	93.35
670.371	113.83
670.563	50.35
670.754	224.42
670.945	109.74
671.136	165.03
671.327	15.53
671.518	300.2
671.709	220.33
671.9	144.55
672.091	136.36
672.282	142.5
672.473	130.22
672.664	113.83
672.855	167.08
673.046	144.55
673.237	189.61
673.428	140.46
673.619	191.66
673.809	83.11
674	277.67
674.191	181.42
674.382	11.43
674.573	107.69
674.764	138.41
674.954	226.47
675.145	91.31
675.336	50.35
675.527	113.83
675.717	66.73
675.908	40.11
676.099	97.45
676.289	72.87
676.48	25.77
676.671	103.59
676.861	103.59
677.052	99.5
677.243	152.74
677.433	58.54
677.624	208.04
677.814	128.17
678.005	130.22
678.195	226.47
678.386	15.53
678.576	130.22
678.767	23.72
678.957	105.64
679.148	181.42
679.338	220.33
679.529	181.42
679.719	97.45
679.909	218.28
680.1	173.22
680.29	128.17
680.481	3.24
680.671	177.32
680.861	107.69
681.052	95.4
681.242	150.7
681.432	136.36
681.622	167.08
681.813	76.97
682.003	119.98
682.193	38.06
682.383	195.75
682.573	105.64
682.764	89.26
682.954	156.84
683.144	277.67
683.334	144.55
683.524	136.36
683.714	99.5
683.904	154.79
684.094	74.92
684.284	173.22
684.474	345.25
684.664	246.95
684.854	162.98
685.044	169.13
685.234	218.28
685.424	212.14
685.614	138.41
685.804	214.18
685.994	246.95
686.184	165.03
686.374	185.51
686.564	244.9
686.753	99.5
686.943	95.4
687.133	144.55
687.323	150.7
687.513	269.48
687.702	136.36
687.892	132.26
688.082	203.94
688.272	144.55
688.461	150.7
688.651	275.62
688.841	251.05
689.03	122.02
689.22	111.78
689.41	195.75
689.599	156.84
689.789	115.88
689.979	232.62
690.168	119.98
690.358	185.51
690.547	160.94
690.737	185.51
690.926	214.18
691.116	208.04
691.305	199.85
691.495	189.61
691.684	56.49
691.874	103.59
692.063	158.89
692.252	236.71
692.442	193.7
692.631	46.25
692.82	158.89
693.01	185.51
693.199	111.78
693.388	222.38
693.578	136.36
693.767	228.52
693.956	236.71
694.146	107.69
694.335	173.22
694.524	173.22
694.713	234.66
694.902	162.98
695.092	156.84
695.281	181.42
695.47	107.69
695.659	167.08
695.848	148.65
696.037	31.91
696.226	216.23
696.415	144.55
696.604	265.38
696.793	240.81
696.982	130.22
697.171	263.33
697.36	128.17
697.549	185.51
697.738	-11.09
697.927	44.2
698.116	95.4
698.305	230.57
698.494	242.85
698.683	162.98
698.872	326.82
699.061	199.85
699.25	156.84
699.438	119.98
699.627	111.78
699.816	298.15
700.005	167.08
700.193	99.5
700.382	205.99
700.571	160.94
700.76	189.61
700.948	185.51
701.137	187.56
701.326	122.02
701.514	130.22
701.703	199.85
701.892	228.52
702.08	324.77
702.269	179.37
702.457	144.55
702.646	169.13
702.834	111.78
703.023	214.18
703.212	171.18
703.4	289.96
703.589	54.44
703.777	138.41
703.965	99.5
704.154	146.6
704.342	36.01
704.531	111.78
704.719	177.32
704.907	281.77
705.096	177.32
705.284	109.74
705.472	154.79
705.661	134.31
705.849	212.14
706.037	230.57
706.226	144.55
706.414	171.18
706.602	130.22
706.79	216.23
706.979	130.22
707.167	165.03
707.355	128.17
707.543	132.26
707.731	197.8
707.919	216.23
708.107	128.17
708.296	91.31
708.484	56.49
708.672	181.42
708.86	85.16
709.048	203.94
709.236	83.11
709.424	187.56
709.612	150.7
709.8	58.54
709.988	179.37
710.176	253.09
710.364	242.85
710.551	105.64
710.739	130.22
710.927	146.6
711.115	144.55
711.303	208.04
711.491	263.33
711.679	158.89
711.866	144.55
712.054	122.02
712.242	150.7
712.43	173.22
712.617	195.75
712.805	253.09
712.993	169.13
713.181	25.77
713.368	224.42
713.556	132.26
713.744	103.59
713.931	328.87
714.119	216.23
714.306	162.98
714.494	128.17
714.682	220.33
714.869	103.59
715.057	189.61
715.244	48.3
715.432	269.48
715.619	154.79
715.807	122.02
715.994	177.32
716.182	154.79
716.369	275.62
716.556	238.76
716.744	87.21
716.931	58.54
717.119	212.14
717.306	144.55
717.493	140.46
717.681	195.75
717.868	136.36
718.055	224.42
718.242	109.74
718.43	150.7
718.617	267.43
718.804	124.07
718.991	244.9
719.179	169.13
719.366	253.09
719.553	238.76
719.74	249
719.927	158.89
720.114	205.99
720.301	70.83
720.488	150.7
720.676	122.02
720.863	271.53
721.05	267.43
721.237	240.81
721.424	275.62
721.611	134.31
721.798	72.87
721.985	242.85
722.172	191.66
722.358	181.42
722.545	281.77
722.732	177.32
722.919	289.96
723.106	238.76
723.293	183.46
723.48	238.76
723.667	208.04
723.853	287.91
724.04	208.04
724.227	339.11
724.414	214.18
724.6	240.81
724.787	412.84
724.974	410.79
725.161	234.66
725.347	148.65
725.534	263.33
725.72	257.19
725.907	324.77
726.094	199.85
726.28	263.33
726.467	218.28
726.653	197.8
726.84	357.54
727.027	345.25
727.213	216.23
727.4	230.57
727.586	230.57
727.773	226.47
727.959	201.9
728.145	171.18
728.332	251.05
728.518	253.09
728.705	322.73
728.891	289.96
729.077	230.57
729.264	222.38
729.45	302.25
729.636	249
729.823	332.97
730.009	300.2
730.195	251.05
730.382	292.01
730.568	228.52
730.754	281.77
730.94	230.57
731.126	261.29
731.313	341.16
731.499	244.9
731.685	341.16
731.871	326.82
732.057	255.14
732.243	320.68
732.429	314.53
732.615	464.04
732.801	242.85
732.987	316.58
733.173	269.48
733.359	228.52
733.545	273.57
733.731	269.48
733.917	328.87
734.103	273.57
734.289	310.44
734.475	165.03
734.661	447.65
734.847	380.07
735.033	296.1
735.219	326.82
735.404	277.67
735.59	292.01
735.776	332.97
735.962	265.38
736.148	373.92
736.333	355.49
736.519	269.48
736.705	242.85
736.89	316.58
737.076	298.15
737.262	285.86
737.447	269.48
737.633	265.38
737.819	382.12
738.004	324.77
738.19	304.29
738.375	246.95
738.561	312.49
738.747	287.91
738.932	253.09
739.118	355.49
739.303	351.4
739.489	365.73
739.674	287.91
739.859	218.28
740.045	361.64
740.23	269.48
740.416	167.08
740.601	251.05
740.786	312.49
740.972	294.05
741.157	242.85
741.342	212.14
741.528	185.51
741.713	373.92
741.898	275.62
742.084	236.71
742.269	386.21
742.454	371.88
742.639	281.77
742.824	378.02
743.01	367.78
743.195	445.6
743.38	380.07
743.565	330.92
743.75	341.16
743.935	224.42
744.12	380.07
744.305	214.18
744.49	296.1
744.675	246.95
744.86	296.1
745.045	326.82
745.23	343.21
745.415	283.81
745.6	382.12
745.785	267.43
745.97	396.45
746.155	427.17
746.34	332.97
746.525	310.44
746.71	423.08
746.895	294.05
747.079	222.38
747.264	199.85
747.449	318.63
747.634	341.16
747.819	355.49
748.003	199.85
748.188	97.45
748.373	433.32
748.557	275.62
748.742	330.92
748.927	294.05
749.111	169.13
749.296	251.05
749.481	316.58
749.665	263.33
749.85	244.9
750.034	345.25
750.219	312.49
750.404	197.8
750.588	281.77
750.773	156.84
750.957	292.01
751.141	179.37
751.326	210.09
751.51	158.89
751.695	210.09
751.879	193.7
752.064	382.12
752.248	271.53
752.432	310.44
752.617	337.06
752.801	328.87
752.985	203.94
753.17	292.01
753.354	246.95
753.538	259.24
753.722	216.23
753.907	238.76
754.091	175.27
754.275	304.29
754.459	158.89
754.643	134.31
754.828	162.98
755.012	224.42
755.196	119.98
755.38	148.65
755.564	205.99
755.748	195.75
755.932	306.34
756.116	277.67
756.3	281.77
756.484	99.5
756.668	339.11
756.852	31.91
757.036	199.85
757.22	177.32
757.404	101.55
757.588	124.07
757.772	224.42
757.956	113.83
758.14	218.28
758.323	160.94
758.507	285.86
758.691	132.26
758.875	302.25
759.059	199.85
759.242	175.27
759.426	210.09
759.61	119.98
759.794	119.98
759.977	244.9
760.161	382.12
760.345	310.44
760.528	289.96
760.712	201.9
760.895	244.9
761.079	132.26
761.263	48.3
761.446	122.02
761.63	179.37
761.813	310.44
761.997	136.36
762.18	162.98
762.364	292.01
762.547	58.54
762.731	162.98
762.914	212.14
763.098	99.5
763.281	171.18
763.464	79.02
763.648	179.37
763.831	165.03
764.015	111.78
764.198	222.38
764.381	146.6
764.564	165.03
764.748	189.61
764.931	177.32
765.114	117.93
765.297	205.99
765.481	29.87
765.664	128.17
765.847	128.17
766.03	218.28
766.213	27.82
766.397	150.7
766.58	23.72
766.763	162.98
766.946	58.54
767.129	148.65
767.312	124.07
767.495	119.98
767.678	93.35
767.861	117.93
768.044	132.26
768.227	97.45
768.41	107.69
768.593	25.77
768.776	193.7
768.959	136.36
769.142	210.09
769.324	113.83
769.507	111.78
769.69	107.69
769.873	68.78
770.056	203.94
770.239	87.21
770.421	136.36
770.604	169.13
770.787	160.94
770.97	54.44
771.152	56.49
771.335	109.74
771.518	64.68
771.7	156.84
771.883	150.7
772.066	64.68
772.248	165.03
772.431	177.32
772.613	142.5
772.796	124.07
772.978	128.17
773.161	132.26
773.343	85.16
773.526	42.15
773.708	-35.67
773.891	31.91
774.073	70.83
774.256	99.5
774.438	195.75
774.621	119.98
774.803	50.35
774.985	126.12
775.168	95.4
775.35	-7
775.532	119.98
775.715	95.4
775.897	119.98
776.079	66.73
776.261	122.02
776.444	79.02
776.626	126.12
776.808	81.07
776.99	-7
777.173	87.21
777.355	107.69
777.537	60.59
777.719	111.78
777.901	46.25
778.083	146.6
778.265	42.15
778.447	158.89
778.629	79.02
778.811	87.21
778.993	105.64
779.175	130.22
779.357	115.88
779.539	-97.11
779.721	76.97
779.903	89.26
780.085	91.31
780.267	183.46
780.449	140.46
780.631	95.4
780.812	140.46
780.994	58.54
781.176	187.56
781.358	40.11
781.54	25.77
781.721	70.83
781.903	146.6
782.085	79.02
782.267	117.93
782.448	-27.48
782.63	103.59
782.812	60.59
782.993	87.21
783.175	74.92
783.357	89.26
783.538	156.84
783.72	50.35
783.901	58.54
784.083	128.17
784.264	91.31
784.446	-27.48
784.627	38.06
784.809	128.17
784.99	31.91
785.172	117.93
785.353	50.35
785.535	62.63
785.716	-21.33
785.897	1.19
786.079	23.72
786.26	60.59
786.441	29.87
786.623	-45.91
786.804	-9.05
786.985	36.01
787.167	25.77
787.348	91.31
787.529	9.39
787.71	212.14
787.891	58.54
788.073	33.96
788.254	-72.53
788.435	191.66
788.616	62.63
788.797	-66.39
788.978	36.01
789.159	-0.85
789.34	83.11
789.522	76.97
789.703	3.24
789.884	83.11
790.065	50.35
790.246	124.07
790.427	-21.33
790.607	191.66
790.788	113.83
790.969	-11.09
791.15	48.3
791.331	17.58
791.512	5.29
791.693	-35.67
791.874	-33.62
792.054	212.14
792.235	95.4
792.416	5.29
792.597	19.63
792.778	25.77
792.958	85.16
793.139	42.15
793.32	42.15
793.5	1.19
793.681	105.64
793.862	154.79
794.042	-17.24
794.223	-45.91
794.404	3.24
794.584	-17.24
794.765	-13.14
794.945	-0.85
795.126	76.97
795.306	162.98
795.487	52.39
795.667	40.11
795.848	3.24
796.028	1.19
796.209	1.19
796.389	162.98
796.57	109.74
796.75	50.35
796.93	19.63
797.111	-50
797.291	-41.81
797.471	60.59
797.652	44.2
797.832	33.96
798.012	81.07
798.192	17.58
798.373	-78.68
798.553	50.35
798.733	81.07
798.913	-144.21
799.093	42.15
799.274	17.58
799.454	85.16
799.634	107.69
799.814	31.91
799.994	42.15
800.174	50.35
800.354	15.53
800.534	-52.05
800.714	-4.95
800.894	-45.91
801.074	-58.2
801.254	-11.09
801.434	146.6
801.614	-74.58
801.794	3.24
801.974	1823.89
802.154	-37.72
802.334	115.88
802.514	-39.76
802.693	46.25
802.873	-0.85
803.053	162.98
803.233	62.63
803.413	5.29
803.592	-93.01
803.772	-7
803.952	-17.24
804.131	-72.53
804.311	97.45
804.491	85.16
804.67	56.49
804.85	-21.33
805.03	68.78
805.209	124.07
805.389	-45.91
805.568	23.72
805.748	13.48
805.928	68.78
806.107	105.64
806.287	50.35
806.466	25.77
806.646	-31.57
806.825	27.82
807.004	-41.81
807.184	48.3
807.363	46.25
807.543	-11.09
807.722	-23.38
807.901	66.73
808.081	130.22
808.26	-113.49
808.439	29.87
808.619	13.48
808.798	-27.48
808.977	81.07
809.156	150.7
809.336	52.39
809.515	66.73
809.694	-62.29
809.873	-52.05
810.052	64.68
810.231	150.7
810.411	40.11
810.59	148.65
810.769	52.39
810.948	68.78
811.127	-136.02
811.306	-27.48
811.485	-7
811.664	167.08
811.843	13.48
812.022	29.87
812.201	38.06
812.38	-66.39
812.559	-50
812.737	85.16
812.916	-72.53
813.095	-60.24
813.274	44.2
813.453	23.72
813.632	93.35
813.811	36.01
813.989	11.43
814.168	91.31
814.347	-47.96
814.526	11.43
814.704	97.45
814.883	95.4
815.062	-52.05
815.24	48.3
815.419	60.59
815.598	42.15
815.776	-80.72
815.955	29.87
816.133	-78.68
816.312	85.16
816.49	-52.05
816.669	-9.05
816.847	-41.81
817.026	15.53
817.204	-19.29
817.383	-31.57
817.561	79.02
817.74	40.11
817.918	-15.19
818.097	23.72
818.275	-23.38
818.453	11.43
818.632	52.39
818.81	27.82
818.988	-37.72
819.167	-25.43
819.345	60.59
819.523	15.53
819.701	-11.09
819.879	27.82
820.058	85.16
820.236	56.49
820.414	19.63
820.592	60.59
820.77	17.58
820.948	-168.79
821.127	-11.09
821.305	83.11
821.483	-41.81
821.661	62.63
821.839	21.67
822.017	27.82
822.195	31.91
822.373	48.3
822.551	-15.19
822.729	58.54
822.907	3.24
823.085	99.5
823.262	-11.09
823.44	-58.2
823.618	-52.05
823.796	11.43
823.974	-4.95
824.152	-74.58
824.329	-31.57
824.507	-19.29
824.685	79.02
824.863	9.39
825.04	58.54
825.218	29.87
825.396	48.3
825.574	21.67
825.751	31.91
825.929	44.2
826.107	-39.76
826.284	54.44
826.462	93.35
826.639	-138.07
826.817	-37.72
826.994	-27.48
827.172	15.53
827.349	179.37
827.527	83.11
827.704	64.68
827.882	87.21
828.059	-41.81
828.237	-7
828.414	48.3
828.591	-129.88
828.769	-23.38
828.946	-84.82
829.124	38.06
829.301	136.36
829.478	11.43
829.655	36.01
829.833	29.87
830.01	-97.11
830.187	-7
830.364	7.34
830.542	-62.29
830.719	136.36
830.896	105.64
831.073	19.63
831.25	5.29
831.427	54.44
831.604	-45.91
831.782	-58.2
831.959	48.3
832.136	19.63
832.313	50.35
832.49	-47.96
832.667	31.91
832.844	-25.43
833.021	9.39
833.198	5.29
833.374	-23.38
833.551	11.43
833.728	3.24
833.905	25.77
834.082	-0.85
834.259	31.91
834.436	74.92
834.612	-113.49
834.789	76.97
834.966	50.35
835.143	38.06
835.319	-82.77
835.496	15.53
835.673	9.39
835.85	44.2
836.026	31.91
836.203	21.67
836.38	-56.15
836.556	17.58
836.733	36.01
836.909	160.94
837.086	21.67
837.262	-29.52
837.439	115.88
837.616	-23.38
837.792	-27.48
837.968	-4.95
838.145	-78.68
838.321	72.87
838.498	19.63
838.674	1.19
838.851	21.67
839.027	-37.72
839.203	-27.48
839.38	160.94
839.556	1.19
839.732	156.84
839.909	-54.1
840.085	76.97
840.261	-37.72
840.437	19.63
840.614	-109.4
840.79	148.65
840.966	15.53
841.142	7.34
841.318	-82.77
841.494	23.72
841.671	70.83
841.847	1.19
842.023	-35.67
842.199	126.12
842.375	144.55
842.551	-107.35
842.727	-47.96
842.903	144.55
843.079	-101.2
843.255	72.87
843.431	21.67
843.607	40.11
843.783	-107.35
843.959	44.2
844.134	-72.53
844.31	128.17
844.486	-43.86
844.662	-47.96
844.838	-52.05
845.013	50.35
845.189	91.31
845.365	31.91
845.541	-13.14
845.716	105.64
845.892	101.55
846.068	-72.53
846.244	5.29
846.419	31.91
846.595	13.48
846.77	-9.05
846.946	132.26
847.122	3.24
847.297	-29.52
847.473	83.11
847.648	-80.72
847.824	54.44
847.999	-185.17
848.175	29.87
848.35	89.26
848.526	158.89
848.701	91.31
848.876	-29.52
849.052	76.97
849.227	31.91
849.403	-39.76
849.578	29.87
849.753	13.48
849.929	33.96
850.104	-62.29
850.279	-17.24
850.454	56.49
850.63	48.3
850.805	91.31
850.98	5.29
851.155	23.72
851.33	31.91
851.505	-17.24
851.681	165.03
851.856	-23.38
852.031	25.77
852.206	99.5
852.381	-41.81
852.556	-31.57
852.731	36.01
852.906	50.35
853.081	15.53
853.256	124.07
853.431	25.77
853.606	-15.19
853.781	-41.81
853.956	-123.73
854.131	-23.38
854.305	-117.59
854.48	-25.43
854.655	-23.38
854.83	-64.34
855.005	-43.86
855.18	-47.96
855.354	15.53
855.529	38.06
855.704	13.48
855.879	36.01
856.053	-154.45
856.228	-13.14
856.403	-76.63
856.577	-27.48
856.752	-162.64
856.926	-7
857.101	66.73
857.276	-17.24
857.45	54.44
857.625	74.92
857.799	91.31
857.974	66.73
858.148	-105.3
858.323	-0.85
858.497	-27.48
858.672	-21.33
858.846	-72.53
859.02	134.31
859.195	-109.4
859.369	-2.9
859.543	46.25
859.718	-39.76
859.892	-11.09
860.066	101.55
860.241	-88.92
860.415	-15.19
860.589	-84.82
860.763	-11.09
860.938	-21.33
861.112	9.39
861.286	-62.29
861.46	25.77
861.634	-11.09
861.808	72.87
861.982	-74.58
862.157	-95.06
862.331	-99.16
862.505	-58.2
862.679	-129.88
862.853	5.29
863.027	-31.57
863.201	54.44
863.375	-109.4
863.549	7.34
863.722	-15.19
863.896	1.19
864.07	-72.53
864.244	31.91
864.418	15.53
864.592	-15.19
864.766	-25.43
864.939	31.91
865.113	3.24
865.287	68.78
865.461	-70.48
865.634	9.39
865.808	23.72
865.982	-39.76
866.156	-86.87
866.329	-103.25
866.503	-23.38
866.676	68.78
866.85	9.39
867.024	-43.86
867.197	-17.24
867.371	62.63
867.544	21.67
867.718	-127.83
867.891	109.74
868.065	-160.59
868.238	33.96
868.412	31.91
868.585	-47.96
868.759	-68.44
868.932	-23.38
869.105	-113.49
869.279	-39.76
869.452	-13.14
869.625	15.53
869.799	3.24
869.972	-136.02
870.145	-58.2
870.319	29.87
870.492	5.29
870.665	-50
870.838	-105.3
871.011	-176.98
871.185	-0.85
871.358	-39.76
871.531	85.16
871.704	-21.33
871.877	19.63
872.05	-39.76
872.223	-58.2
872.396	-0.85
872.569	23.72
872.742	-80.72
872.915	23.72
873.088	29.87
873.261	-113.49
873.434	38.06
873.607	-11.09
873.78	107.69
873.953	-64.34
874.126	7.34
874.299	79.02
874.471	33.96
874.644	-15.19
874.817	64.68
874.99	101.55
875.163	-99.16
875.335	48.3
875.508	-35.67
875.681	103.59
875.853	15.53
876.026	-47.96
876.199	25.77
876.371	7.34
876.544	-27.48
876.717	13.48
876.889	-37.72
877.062	17.58
877.234	-23.38
877.407	-82.77
877.579	-50
877.752	89.26
877.924	-27.48
878.097	13.48
878.269	21.67
878.442	31.91
878.614	54.44
878.786	29.87
878.959	-15.19
879.131	-15.19
879.303	-64.34
879.476	-19.29
879.648	19.63
879.82	56.49
879.993	-68.44
880.165	-2.9
880.337	-133.97
880.509	-27.48
880.681	-131.92
880.854	-60.24
881.026	52.39
881.198	140.46
881.37	-41.81
881.542	-97.11
881.714	7.34
881.886	-17.24
882.058	25.77
882.23	17.58
882.402	-0.85
882.574	-78.68
882.746	25.77
882.918	122.02
883.09	74.92
883.262	40.11
883.434	64.68
883.606	-160.59
883.778	27.82
883.95	201.9
884.122	-50
884.293	-23.38
884.465	31.91
884.637	83.11
884.809	-35.67
884.98	-2.9
885.152	3.24
885.324	17.58
885.496	-62.29
885.667	-7
885.839	-64.34
886.011	136.36
886.182	9.39
886.354	9.39
886.525	70.83
886.697	-7
886.869	5.29
887.04	-70.48
887.212	103.59
887.383	132.26
887.555	31.91
887.726	-56.15
887.897	25.77
888.069	-23.38
888.24	-35.67
888.412	42.15
888.583	-13.14
888.754	-47.96
888.926	-43.86
889.097	-148.31
889.268	-50
889.44	-43.86
889.611	-103.25
889.782	-86.87
889.953	-9.05
890.125	60.59
890.296	-64.34
890.467	-39.76
890.638	-97.11
890.809	-140.12
890.98	11.43
891.151	76.97
891.323	-9.05
891.494	25.77
891.665	-13.14
891.836	-54.1
892.007	-64.34
892.178	56.49
892.349	76.97
892.52	-39.76
892.691	13.48
892.862	38.06
893.032	-142.16
893.203	-43.86
893.374	62.63
893.545	58.54
893.716	-82.77
893.887	50.35
894.057	-64.34
894.228	-27.48
894.399	-66.39
894.57	76.97
894.74	-39.76
894.911	-47.96
895.082	-47.96
895.253	-47.96
895.423	25.77
895.594	19.63
895.764	-52.05
895.935	-43.86
896.106	36.01
896.276	31.91
896.447	-9.05
896.617	-33.62
896.788	-4.95
896.958	-33.62
897.129	-76.63
897.299	-119.64
897.47	113.83
897.64	81.07
897.81	-35.67
897.981	79.02
898.151	-62.29
898.322	5.29
898.492	17.58
898.662	-66.39
898.832	-43.86
899.003	-58.2
899.173	83.11
899.343	-37.72
899.513	-121.68
