Data from USB4F104151__7__09-24-45-227.txt Node

Date: Wed Feb 26 09:24:45 EST 2025
User: louis
Spectrometer: USB4F10415
Trigger mode: 4
Integration Time (sec): 1.000000E-1
Scans to average: 1
Electric dark correction enabled: true
Nonlinearity correction enabled: false
Boxcar width: 0
XAxis mode: Wavelengths
Number of Pixels in Spectrum: 3648
>>>>>Begin Spectral Data<<<<<
178.204	-329.89
178.424	-329.89
178.644	-329.89
178.864	-366.76
179.084	-270.5
179.304	-41.13
179.524	-2.22
179.744	-41.13
179.964	83.8
180.184	-26.79
180.404	18.26
180.624	22.36
180.844	12.12
181.064	-71.85
181.283	63.32
181.503	-100.52
181.723	83.8
181.943	-110.76
182.163	139.09
182.383	-41.13
182.602	44.88
182.822	108.37
183.042	48.98
183.262	-34.99
183.482	38.74
183.701	-80.04
183.921	14.17
184.141	-53.42
184.361	69.46
184.58	-30.89
184.8	55.12
185.02	-18.6
185.239	67.41
185.459	38.74
185.679	20.31
185.898	-133.29
186.118	104.28
186.338	-53.42
186.557	-16.55
186.777	-28.84
186.997	-59.56
187.216	-26.79
187.436	157.52
187.655	71.51
187.875	20.31
188.095	5.97
188.314	120.66
188.534	79.7
188.753	-8.36
188.973	-12.46
189.192	100.18
189.412	18.26
189.631	5.97
189.851	22.36
190.07	145.24
190.29	-51.37
190.509	-8.36
190.729	-8.36
190.948	83.8
191.168	200.53
191.387	67.41
191.607	10.07
191.826	124.76
192.045	24.4
192.265	-41.13
192.484	53.08
192.704	-10.41
192.923	-43.18
193.142	132.95
193.362	69.46
193.581	137.04
193.8	51.03
194.02	38.74
194.239	-6.31
194.458	-16.55
194.678	51.03
194.897	-28.84
195.116	44.88
195.335	10.07
195.555	22.36
195.774	10.07
195.993	-18.6
196.212	14.17
196.432	-4.27
196.651	-32.94
196.87	5.97
197.089	124.76
197.308	57.17
197.528	55.12
197.747	-86.19
197.966	5.97
198.185	108.37
198.404	-73.9
198.623	91.99
198.842	-6.31
199.062	38.74
199.281	73.56
199.5	-41.13
199.719	85.84
199.938	30.55
200.157	106.32
200.376	36.69
200.595	132.95
200.814	14.17
201.033	-69.8
201.252	108.37
201.471	59.22
201.69	22.36
201.909	73.56
202.128	38.74
202.347	12.12
202.566	28.5
202.785	-80.04
203.004	-45.23
203.223	163.67
203.442	22.36
203.661	-188.58
203.879	5.97
204.098	161.62
204.317	-49.32
204.536	32.6
204.755	100.18
204.974	135
205.193	10.07
205.411	141.14
205.63	85.84
205.849	116.56
206.068	-26.79
206.287	-47.27
206.505	71.51
206.724	12.12
206.943	-12.46
207.162	5.97
207.381	46.93
207.599	-104.62
207.818	-6.31
208.037	16.21
208.255	18.26
208.474	-14.51
208.693	-18.6
208.911	-2.22
209.13	40.79
209.349	48.98
209.567	42.84
209.786	55.12
210.005	46.93
210.223	3.93
210.442	-123.05
210.661	30.55
210.879	87.89
211.098	38.74
211.316	26.45
211.535	79.7
211.753	26.45
211.972	36.69
212.191	-14.51
212.409	30.55
212.628	81.75
212.846	-114.86
213.065	38.74
213.283	135
213.502	48.98
213.72	71.51
213.938	3.93
214.157	-45.23
214.375	-26.79
214.594	87.89
214.812	61.27
215.031	-100.52
215.249	30.55
215.467	-86.19
215.686	-18.6
215.904	75.6
216.122	98.13
216.341	-2.22
216.559	53.08
216.778	42.84
216.996	44.88
217.214	-4.27
217.432	-18.6
217.651	-6.31
217.869	83.8
218.087	-14.51
218.306	22.36
218.524	16.21
218.742	32.6
218.96	65.36
219.179	48.98
219.397	40.79
219.615	137.04
219.833	94.04
220.051	-18.6
220.27	57.17
220.488	61.27
220.706	102.23
220.924	-30.89
221.142	-14.51
221.36	16.21
221.578	30.55
221.796	83.8
222.015	-10.41
222.233	20.31
222.451	151.38
222.669	12.12
222.887	83.8
223.105	-26.79
223.323	-63.66
223.541	-80.04
223.759	118.61
223.977	-10.41
224.195	79.7
224.413	67.41
224.631	-8.36
224.849	30.55
225.067	184.15
225.285	-10.41
225.503	-55.47
225.721	-112.81
225.939	30.55
226.157	38.74
226.375	132.95
226.592	-20.65
226.81	1.88
227.028	44.88
227.246	126.8
227.464	-12.46
227.682	12.12
227.9	34.64
228.117	-22.7
228.335	40.79
228.553	1.88
228.771	5.97
228.989	71.51
229.206	67.41
229.424	-43.18
229.642	24.4
229.86	-18.6
230.077	218.96
230.295	36.69
230.513	63.32
230.731	85.84
230.948	104.28
231.166	81.75
231.384	24.4
231.601	-4.27
231.819	132.95
232.037	30.55
232.254	-59.56
232.472	42.84
232.689	-34.99
232.907	-4.27
233.125	61.27
233.342	42.84
233.56	28.5
233.777	-28.84
233.995	28.5
234.213	102.23
234.43	79.7
234.648	5.97
234.865	30.55
235.083	38.74
235.3	91.99
235.518	44.88
235.735	137.04
235.953	10.07
236.17	-26.79
236.388	-24.75
236.605	38.74
236.822	38.74
237.04	153.43
237.257	30.55
237.475	-45.23
237.692	18.26
237.909	26.45
238.127	34.64
238.344	51.03
238.562	12.12
238.779	-26.79
238.996	-41.13
239.214	-16.55
239.431	55.12
239.648	-30.89
239.865	30.55
240.083	8.02
240.3	59.22
240.517	-30.89
240.735	46.93
240.952	44.88
241.169	79.7
241.386	42.84
241.603	-47.27
241.821	-43.18
242.038	30.55
242.255	178
242.472	-61.61
242.689	55.12
242.907	38.74
243.124	-20.65
243.341	-18.6
243.558	-57.51
243.775	-51.37
243.992	-75.95
244.209	44.88
244.426	36.69
244.643	36.69
244.86	-0.17
245.078	83.8
245.295	46.93
245.512	32.6
245.729	40.79
245.946	36.69
246.163	18.26
246.38	40.79
246.597	12.12
246.814	42.84
247.031	14.17
247.248	-18.6
247.464	36.69
247.681	34.64
247.898	85.84
248.115	79.7
248.332	-77.99
248.549	94.04
248.766	169.81
248.983	67.41
249.2	118.61
249.417	28.5
249.633	-55.47
249.85	55.12
250.067	8.02
250.284	-18.6
250.501	30.55
250.717	83.8
250.934	-71.85
251.151	20.31
251.368	-14.51
251.585	30.55
251.801	26.45
252.018	18.26
252.235	61.27
252.451	-86.19
252.668	-80.04
252.885	96.08
253.102	20.31
253.318	-51.37
253.535	3.93
253.752	-24.75
253.968	83.8
254.185	-123.05
254.401	38.74
254.618	1.88
254.835	-80.04
255.051	85.84
255.268	61.27
255.484	38.74
255.701	-8.36
255.917	18.26
256.134	22.36
256.351	44.88
256.567	18.26
256.784	51.03
257	-24.75
257.217	63.32
257.433	46.93
257.65	-34.99
257.866	120.66
258.082	-45.23
258.299	-32.94
258.515	3.93
258.732	-34.99
258.948	-94.38
259.165	71.51
259.381	-43.18
259.597	51.03
259.814	16.21
260.03	5.97
260.246	5.97
260.463	128.85
260.679	65.36
260.895	-10.41
261.112	53.08
261.328	-8.36
261.544	-14.51
261.761	153.43
261.977	-26.79
262.193	-86.19
262.409	28.5
262.626	114.52
262.842	-14.51
263.058	-22.7
263.274	100.18
263.49	69.46
263.707	14.17
263.923	20.31
264.139	-63.66
264.355	18.26
264.571	38.74
264.787	5.97
265.004	104.28
265.22	28.5
265.436	-39.08
265.652	46.93
265.868	14.17
266.084	-47.27
266.3	10.07
266.516	-12.46
266.732	-18.6
266.948	-43.18
267.164	-45.23
267.38	-41.13
267.596	48.98
267.812	206.67
268.028	-6.31
268.244	-43.18
268.46	-2.22
268.676	77.65
268.892	48.98
269.108	28.5
269.324	-65.71
269.54	-82.09
269.756	73.56
269.972	-116.9
270.188	20.31
270.403	-47.27
270.619	-45.23
270.835	36.69
271.051	10.07
271.267	-26.79
271.483	-20.65
271.698	81.75
271.914	-14.51
272.13	34.64
272.346	-24.75
272.562	65.36
272.777	91.99
272.993	30.55
273.209	-34.99
273.425	46.93
273.64	-53.42
273.856	114.52
274.072	-39.08
274.287	-14.51
274.503	14.17
274.719	-14.51
274.934	14.17
275.15	-37.03
275.366	-16.55
275.581	-39.08
275.797	5.97
276.012	8.02
276.228	12.12
276.444	36.69
276.659	77.65
276.875	-20.65
277.09	26.45
277.306	-22.7
277.521	26.45
277.737	-30.89
277.952	139.09
278.168	-14.51
278.383	55.12
278.599	8.02
278.814	59.22
279.03	5.97
279.245	71.51
279.461	-10.41
279.676	81.75
279.892	-6.31
280.107	48.98
280.322	-18.6
280.538	-0.17
280.753	-84.14
280.969	51.03
281.184	38.74
281.399	184.15
281.615	22.36
281.83	-51.37
282.045	-14.51
282.26	-30.89
282.476	10.07
282.691	104.28
282.906	28.5
283.122	-18.6
283.337	-94.38
283.552	14.17
283.767	22.36
283.983	55.12
284.198	-34.99
284.413	-10.41
284.628	-141.48
284.843	102.23
285.058	55.12
285.274	30.55
285.489	-57.51
285.704	106.32
285.919	18.26
286.134	28.5
286.349	-37.03
286.564	-63.66
286.779	96.08
286.995	-51.37
287.21	28.5
287.425	5.97
287.64	-8.36
287.855	-2.22
288.07	-129.19
288.285	96.08
288.5	34.64
288.715	51.03
288.93	-39.08
289.145	-39.08
289.36	57.17
289.575	12.12
289.79	61.27
290.004	61.27
290.219	51.03
290.434	-8.36
290.649	38.74
290.864	-16.55
291.079	48.98
291.294	55.12
291.509	44.88
291.724	-0.17
291.938	-22.7
292.153	-4.27
292.368	18.26
292.583	69.46
292.798	118.61
293.012	63.32
293.227	59.22
293.442	-53.42
293.657	38.74
293.871	81.75
294.086	30.55
294.301	126.8
294.516	141.14
294.73	14.17
294.945	-88.23
295.16	65.36
295.374	40.79
295.589	32.6
295.804	-59.56
296.018	77.65
296.233	124.76
296.447	-22.7
296.662	-4.27
296.877	42.84
297.091	3.93
297.306	-12.46
297.52	-39.08
297.735	81.75
297.949	87.89
298.164	1.88
298.378	8.02
298.593	-2.22
298.807	-12.46
299.022	-51.37
299.236	108.37
299.451	-71.85
299.665	-18.6
299.88	-26.79
300.094	63.32
300.309	-77.99
300.523	3.93
300.737	48.98
300.952	22.36
301.166	-28.84
301.381	-30.89
301.595	12.12
301.809	51.03
302.024	63.32
302.238	14.17
302.452	79.7
302.667	-6.31
302.881	106.32
303.095	65.36
303.309	-32.94
303.524	-10.41
303.738	14.17
303.952	-18.6
304.166	22.36
304.381	-164.01
304.595	53.08
304.809	-6.31
305.023	59.22
305.237	-14.51
305.452	-69.8
305.666	18.26
305.88	30.55
306.094	55.12
306.308	28.5
306.522	-26.79
306.736	44.88
306.95	63.32
307.164	22.36
307.379	5.97
307.593	44.88
307.807	89.94
308.021	32.6
308.235	51.03
308.449	-125.1
308.663	-86.19
308.877	132.95
309.091	-6.31
309.305	46.93
309.519	-84.14
309.733	36.69
309.947	-59.56
310.161	26.45
310.374	128.85
310.588	137.04
310.802	-2.22
311.016	-43.18
311.23	38.74
311.444	-71.85
311.658	-37.03
311.872	141.14
312.085	38.74
312.299	38.74
312.513	61.27
312.727	-67.75
312.941	12.12
313.154	53.08
313.368	1.88
313.582	26.45
313.796	40.79
314.009	5.97
314.223	91.99
314.437	77.65
314.651	40.79
314.864	12.12
315.078	-8.36
315.292	-61.61
315.505	-4.27
315.719	14.17
315.933	10.07
316.146	-55.47
316.36	3.93
316.573	46.93
316.787	-43.18
317.001	16.21
317.214	-4.27
317.428	16.21
317.641	14.17
317.855	-28.84
318.068	14.17
318.282	10.07
318.495	130.9
318.709	30.55
318.922	-6.31
319.136	135
319.349	128.85
319.563	-32.94
319.776	30.55
319.99	-80.04
320.203	53.08
320.417	5.97
320.63	67.41
320.843	83.8
321.057	24.4
321.27	-18.6
321.483	75.6
321.697	61.27
321.91	34.64
322.124	-39.08
322.337	28.5
322.55	-73.9
322.763	98.13
322.977	-49.32
323.19	-39.08
323.403	34.64
323.617	36.69
323.83	22.36
324.043	14.17
324.256	71.51
324.469	-90.28
324.683	151.38
324.896	10.07
325.109	-63.66
325.322	8.02
325.535	63.32
325.748	75.6
325.962	18.26
326.175	69.46
326.388	8.02
326.601	159.57
326.814	-20.65
327.027	87.89
327.24	30.55
327.453	-65.71
327.666	18.26
327.879	69.46
328.092	81.75
328.305	116.56
328.518	-6.31
328.731	-24.75
328.944	-24.75
329.157	-4.27
329.37	40.79
329.583	186.19
329.796	77.65
330.009	-28.84
330.222	100.18
330.435	100.18
330.648	38.74
330.861	77.65
331.073	89.94
331.286	94.04
331.499	22.36
331.712	3.93
331.925	53.08
332.138	63.32
332.35	20.31
332.563	73.56
332.776	53.08
332.989	-116.9
333.202	26.45
333.414	14.17
333.627	28.5
333.84	10.07
334.053	5.97
334.265	-18.6
334.478	36.69
334.691	-16.55
334.903	-6.31
335.116	-67.75
335.329	34.64
335.541	-0.17
335.754	65.36
335.966	-20.65
336.179	-67.75
336.392	-26.79
336.604	-10.41
336.817	79.7
337.029	-2.22
337.242	-12.46
337.454	83.8
337.667	-10.41
337.88	67.41
338.092	-30.89
338.305	169.81
338.517	5.97
338.729	22.36
338.942	100.18
339.154	-8.36
339.367	5.97
339.579	79.7
339.792	-51.37
340.004	108.37
340.217	-30.89
340.429	67.41
340.641	-32.94
340.854	-8.36
341.066	14.17
341.278	137.04
341.491	130.9
341.703	46.93
341.915	-112.81
342.128	63.32
342.34	-30.89
342.552	8.02
342.764	12.12
342.977	28.5
343.189	69.46
343.401	-4.27
343.613	-59.56
343.826	34.64
344.038	5.97
344.25	8.02
344.462	-18.6
344.674	-16.55
344.886	22.36
345.099	-4.27
345.311	63.32
345.523	-57.51
345.735	-96.43
345.947	10.07
346.159	-65.71
346.371	20.31
346.583	-10.41
346.795	141.14
347.007	85.84
347.219	59.22
347.431	44.88
347.643	137.04
347.855	-86.19
348.067	161.62
348.279	-34.99
348.491	-24.75
348.703	108.37
348.915	-55.47
349.127	1.88
349.339	-51.37
349.551	-69.8
349.763	83.8
349.975	24.4
350.187	81.75
350.399	106.32
350.61	24.4
350.822	-86.19
351.034	-61.61
351.246	14.17
351.458	14.17
351.669	79.7
351.881	141.14
352.093	122.71
352.305	104.28
352.517	-49.32
352.728	137.04
352.94	-2.22
353.152	75.6
353.363	-12.46
353.575	28.5
353.787	132.95
353.999	104.28
354.21	198.48
354.422	32.6
354.633	-14.51
354.845	48.98
355.057	18.26
355.268	20.31
355.48	69.46
355.692	-151.72
355.903	-22.7
356.115	-73.9
356.326	-143.53
356.538	104.28
356.749	34.64
356.961	44.88
357.172	46.93
357.384	3.93
357.595	89.94
357.807	1.88
358.018	-20.65
358.23	10.07
358.441	112.47
358.653	28.5
358.864	44.88
359.075	32.6
359.287	22.36
359.498	65.36
359.709	24.4
359.921	3.93
360.132	44.88
360.344	-18.6
360.555	20.31
360.766	-28.84
360.977	38.74
361.189	-20.65
361.4	20.31
361.611	87.89
361.823	40.79
362.034	-45.23
362.245	-137.38
362.456	-20.65
362.667	87.89
362.879	-34.99
363.09	75.6
363.301	-34.99
363.512	28.5
363.723	-84.14
363.935	-4.27
364.146	112.47
364.357	-47.27
364.568	32.6
364.779	-55.47
364.99	94.04
365.201	-67.75
365.412	112.47
365.623	-88.23
365.834	-10.41
366.045	73.56
366.256	87.89
366.467	77.65
366.678	61.27
366.889	-39.08
367.1	-73.9
367.311	94.04
367.522	-59.56
367.733	63.32
367.944	106.32
368.155	-12.46
368.366	10.07
368.577	106.32
368.788	55.12
368.999	-96.43
369.209	-6.31
369.42	87.89
369.631	190.29
369.842	75.6
370.053	73.56
370.264	55.12
370.474	-92.33
370.685	30.55
370.896	46.93
371.107	143.19
371.317	94.04
371.528	-22.7
371.739	94.04
371.95	79.7
372.16	110.42
372.371	-37.03
372.582	-67.75
372.792	-34.99
373.003	34.64
373.214	44.88
373.424	42.84
373.635	-28.84
373.846	59.22
374.056	1.88
374.267	-2.22
374.477	-30.89
374.688	1.88
374.898	89.94
375.109	85.84
375.319	18.26
375.53	83.8
375.74	-18.6
375.951	46.93
376.161	14.17
376.372	79.7
376.582	-6.31
376.793	75.6
377.003	67.41
377.214	-14.51
377.424	71.51
377.635	42.84
377.845	-57.51
378.055	75.6
378.266	-63.66
378.476	-43.18
378.686	-30.89
378.897	110.42
379.107	79.7
379.317	-51.37
379.528	51.03
379.738	28.5
379.948	-10.41
380.158	51.03
380.369	5.97
380.579	34.64
380.789	79.7
380.999	-20.65
381.21	75.6
381.42	163.67
381.63	-4.27
381.84	120.66
382.05	30.55
382.261	118.61
382.471	-10.41
382.681	-12.46
382.891	87.89
383.101	83.8
383.311	-47.27
383.521	-102.57
383.731	12.12
383.941	59.22
384.151	143.19
384.361	-0.17
384.571	-77.99
384.781	46.93
384.991	126.8
385.201	98.13
385.411	5.97
385.621	120.66
385.831	53.08
386.041	38.74
386.251	-69.8
386.461	79.7
386.671	28.5
386.881	10.07
387.091	5.97
387.301	46.93
387.511	-18.6
387.72	81.75
387.93	42.84
388.14	1.88
388.35	-24.75
388.56	67.41
388.769	120.66
388.979	-10.41
389.189	-10.41
389.399	30.55
389.609	26.45
389.818	153.43
390.028	32.6
390.238	94.04
390.447	-26.79
390.657	-2.22
390.867	-2.22
391.076	-39.08
391.286	36.69
391.496	18.26
391.705	10.07
391.915	159.57
392.125	151.38
392.334	36.69
392.544	104.28
392.753	38.74
392.963	-51.37
393.172	10.07
393.382	-10.41
393.591	165.71
393.801	-0.17
394.01	67.41
394.22	46.93
394.429	55.12
394.639	128.85
394.848	-22.7
395.058	53.08
395.267	3.93
395.477	53.08
395.686	124.76
395.895	110.42
396.105	169.81
396.314	-51.37
396.524	18.26
396.733	-51.37
396.942	67.41
397.152	59.22
397.361	128.85
397.57	12.12
397.78	98.13
397.989	137.04
398.198	145.24
398.407	59.22
398.617	65.36
398.826	-55.47
399.035	16.21
399.244	14.17
399.453	46.93
399.663	5.97
399.872	30.55
400.081	-45.23
400.29	51.03
400.499	-45.23
400.708	104.28
400.917	-37.03
401.127	3.93
401.336	42.84
401.545	167.76
401.754	128.85
401.963	14.17
402.172	42.84
402.381	-12.46
402.59	26.45
402.799	73.56
403.008	137.04
403.217	30.55
403.426	36.69
403.635	14.17
403.844	10.07
404.053	24.4
404.262	40.79
404.471	132.95
404.68	59.22
404.888	5.97
405.097	3.93
405.306	44.88
405.515	96.08
405.724	18.26
405.933	55.12
406.142	34.64
406.35	28.5
406.559	-14.51
406.768	12.12
406.977	149.33
407.185	42.84
407.394	-0.17
407.603	14.17
407.812	61.27
408.02	106.32
408.229	-63.66
408.438	-2.22
408.646	14.17
408.855	-4.27
409.064	-10.41
409.272	46.93
409.481	5.97
409.69	36.69
409.898	-22.7
410.107	10.07
410.315	87.89
410.524	46.93
410.733	22.36
410.941	34.64
411.15	26.45
411.358	65.36
411.567	120.66
411.775	-51.37
411.984	22.36
412.192	122.71
412.401	-45.23
412.609	165.71
412.818	87.89
413.026	-26.79
413.234	3.93
413.443	71.51
413.651	-20.65
413.86	63.32
414.068	98.13
414.276	178
414.485	3.93
414.693	149.33
414.901	186.19
415.11	22.36
415.318	34.64
415.526	10.07
415.734	10.07
415.943	-10.41
416.151	116.56
416.359	32.6
416.567	26.45
416.776	120.66
416.984	38.74
417.192	145.24
417.4	24.4
417.608	24.4
417.817	-45.23
418.025	83.8
418.233	122.71
418.441	-55.47
418.649	-24.75
418.857	75.6
419.065	157.52
419.273	-2.22
419.481	14.17
419.689	-51.37
419.897	-10.41
420.105	-86.19
420.313	112.47
420.521	75.6
420.729	120.66
420.937	-6.31
421.145	-18.6
421.353	96.08
421.561	91.99
421.769	-57.51
421.977	26.45
422.185	124.76
422.393	34.64
422.601	137.04
422.809	67.41
423.017	71.51
423.224	-30.89
423.432	32.6
423.64	-24.75
423.848	100.18
424.056	40.79
424.263	79.7
424.471	26.45
424.679	130.9
424.887	-12.46
425.094	96.08
425.302	53.08
425.51	8.02
425.718	110.42
425.925	36.69
426.133	53.08
426.341	182.1
426.548	-2.22
426.756	96.08
426.964	8.02
427.171	1.88
427.379	104.28
427.586	22.36
427.794	128.85
428.001	128.85
428.209	173.91
428.417	114.52
428.624	89.94
428.832	87.89
429.039	38.74
429.247	147.28
429.454	114.52
429.662	135
429.869	112.47
430.076	143.19
430.284	98.13
430.491	79.7
430.699	206.67
430.906	87.89
431.114	108.37
431.321	85.84
431.528	132.95
431.736	69.46
431.943	67.41
432.15	126.8
432.358	116.56
432.565	155.47
432.772	79.7
432.979	229.2
433.187	79.7
433.394	161.62
433.601	206.67
433.808	274.26
434.016	153.43
434.223	126.8
434.43	147.28
434.637	145.24
434.844	298.83
435.052	247.63
435.259	223.06
435.466	311.12
435.673	184.15
435.88	337.74
436.087	296.78
436.294	327.5
436.501	282.45
436.708	239.44
436.915	284.5
437.122	333.65
437.329	259.92
437.537	274.26
437.743	294.74
437.95	399.18
438.157	415.57
438.364	321.36
438.571	462.67
438.778	423.76
438.985	456.53
439.192	436.05
439.399	411.47
439.606	415.57
439.813	423.76
440.02	552.78
440.227	575.31
440.433	522.06
440.64	491.34
440.847	493.39
441.054	511.82
441.261	724.81
441.467	591.69
441.674	610.12
441.881	776.01
442.088	620.36
442.294	733
442.501	759.63
442.708	821.06
442.914	796.49
443.121	714.57
443.328	864.07
443.534	919.37
443.741	886.6
443.948	835.4
444.154	966.47
444.361	1146.69
444.568	954.18
444.774	1050.44
444.981	1011.53
445.187	1230.66
445.394	1072.96
445.6	1165.12
445.807	1341.25
446.013	1281.86
446.22	1216.32
446.426	1324.87
446.633	1431.36
446.839	1601.34
447.046	1439.55
447.252	1627.96
447.459	1640.25
447.665	1580.86
447.871	1773.37
448.078	1967.93
448.284	1914.68
448.491	2094.9
448.697	2166.58
448.903	2225.97
449.11	2275.12
449.316	2129.72
449.522	2416.43
449.728	2443.06
449.935	2615.09
450.141	2553.65
450.347	2811.69
450.553	2639.66
450.76	2785.07
450.966	3133.22
451.172	2983.72
451.378	3180.32
451.584	3254.05
451.791	3434.27
451.997	3354.4
452.203	3505.95
452.409	3667.74
452.615	3987.22
452.821	3884.83
453.027	3962.65
453.233	4536.08
453.44	4400.91
453.646	4552.46
453.852	4769.55
454.058	5011.21
454.264	4984.59
454.47	5355.27
454.676	5392.13
454.882	5945.08
455.088	5545.73
455.294	5949.18
455.5	6301.43
455.705	6776.56
455.911	6567.67
456.117	6971.11
456.323	7048.94
456.529	7266.02
456.735	7800.54
456.941	7948
457.147	8279.77
457.352	8373.97
457.558	8783.57
457.764	9244.36
457.97	9580.23
458.176	9930.43
458.381	10469.05
458.587	10636.98
458.793	10833.58
458.999	10983.09
459.204	12590.74
459.41	13108.88
459.616	12687
459.821	13448.84
460.027	14141.05
460.233	14710.39
460.438	14587.51
460.644	15717.99
460.85	15847.01
461.055	16316
461.261	17256.01
461.466	16809.56
461.672	17225.29
461.878	19146.29
462.083	18871.86
462.289	19265.07
462.494	20114.98
462.7	20479.52
462.905	20567.58
463.111	22210.05
463.316	23487.98
463.522	23617
463.727	24827.35
463.932	25312.72
464.138	26484.16
464.343	27747.76
464.549	27583.92
464.754	29336.98
464.959	30117.26
465.165	30729.6
465.37	30512.52
465.575	30535.04
465.781	32335.21
465.986	33666.39
466.191	32955.74
466.397	33287.51
466.602	32621.92
466.807	34481.48
467.012	34850.11
467.218	35433.78
467.423	35579.19
467.628	36812.07
467.833	38550.79
468.038	37756.18
468.244	37014.82
468.449	39603.45
468.654	38311.18
468.859	38178.06
469.064	38165.77
469.269	37229.85
469.474	37260.57
469.679	39013.63
469.885	37666.07
470.09	38216.97
470.295	38565.13
470.5	37322.01
470.705	37647.64
470.91	36908.32
471.115	36126
471.32	36674.85
471.525	36566.31
471.73	35601.72
471.935	35564.85
472.139	33922.38
472.344	34282.83
472.549	34225.48
472.754	33312.09
472.959	32337.26
473.164	31585.65
473.369	31178.11
473.574	31495.54
473.778	30940.54
473.983	30475.65
474.188	30113.16
474.393	28513.7
474.598	28452.26
474.802	28048.81
475.007	27788.72
475.212	27225.53
475.417	26303.94
475.621	25963.98
475.826	25877.96
476.031	25091.54
476.235	24806.87
476.44	24821.21
476.645	24042.98
476.849	23870.95
477.054	23496.17
477.259	22699.51
477.463	22699.51
477.668	22021.64
477.872	22087.17
478.077	21640.72
478.282	20835.86
478.486	20784.66
478.691	20616.73
478.895	20346.4
479.1	20125.22
479.304	20186.66
479.509	19715.62
479.713	19670.57
479.918	19123.76
480.122	18845.24
480.326	19168.82
480.531	18804.28
480.735	18720.31
480.94	18515.51
481.144	19002.93
481.348	17919.56
481.553	18249.28
481.757	17729.09
481.961	18087.49
482.166	18169.41
482.37	17671.75
482.574	17231.44
482.778	17458.76
482.983	17409.61
483.187	17225.29
483.391	16989.78
483.595	16840.28
483.8	16463.45
484.004	16852.56
484.208	16555.61
484.412	16275.04
484.616	16307.8
484.821	16131.68
485.025	15492.71
485.229	15568.49
485.433	15175.28
485.637	15269.48
485.841	14986.86
486.045	14911.09
486.249	14585.46
486.453	14474.87
486.657	14075.52
486.861	13870.72
487.065	13618.82
487.269	13557.38
487.473	12981.9
487.677	13332.11
487.881	13235.85
488.085	12797.59
488.289	12723.86
488.493	12228.25
488.697	12195.48
488.901	11953.82
489.105	11716.26
489.309	11443.88
489.512	11261.61
489.716	11122.35
489.92	10929.84
490.124	10651.31
490.328	10802.86
490.531	10391.22
490.735	10542.77
490.939	10106.56
491.143	9840.32
491.346	9733.82
491.55	9678.53
491.754	9451.21
491.958	9350.85
492.161	9230.02
492.365	8982.22
492.569	8804.05
492.772	8658.64
492.976	8787.66
493.18	8482.52
493.383	8214.23
493.587	8355.54
493.79	8214.23
493.994	8013.53
494.197	8034.01
494.401	8222.42
494.605	7751.39
494.808	7902.94
495.012	7821.02
495.215	7737.06
495.419	7749.34
495.622	7585.51
495.825	7507.68
496.029	7458.53
496.232	7464.68
496.436	7339.75
496.639	7407.33
496.843	7309.03
497.046	7489.25
497.249	7395.04
497.453	7468.77
497.656	7476.96
497.859	7366.37
498.063	7411.43
498.266	7558.88
498.469	7442.15
498.673	7382.76
498.876	7669.47
499.079	7610.08
499.282	7585.51
499.485	7880.41
499.689	7720.67
499.892	7827.17
500.095	7845.6
500.298	7796.45
500.501	7726.82
500.705	8038.11
500.908	8003.29
501.111	8117.98
501.314	8230.62
501.517	8376.02
501.72	8390.36
501.923	8449.75
502.126	8433.36
502.329	8750.8
502.532	8769.23
502.735	8681.17
502.938	8945.36
503.141	9025.23
503.344	9045.71
503.547	9301.7
503.75	9369.29
503.953	9209.54
504.156	9481.92
504.359	9780.93
504.562	9766.59
504.765	9975.49
504.968	10237.63
505.17	10383.03
505.373	10372.79
505.576	10622.64
505.779	10684.08
505.982	11204.27
506.185	11273.9
506.387	11361.96
506.59	11615.91
506.793	11808.42
506.996	11771.55
507.198	12369.56
507.401	12402.33
507.604	12517.01
507.807	13090.45
508.009	13170.32
508.212	13596.29
508.415	13653.64
508.617	13842.05
508.82	14366.33
509.022	14212.73
509.225	14677.62
509.428	15128.17
509.63	15390.31
509.833	15634.02
510.035	16125.54
510.238	16365.15
510.44	16795.22
510.643	17190.48
510.845	17641.03
511.048	17993.28
511.25	18417.21
511.453	18806.33
511.655	19615.27
511.858	19637.8
512.06	20311.58
512.262	20536.86
512.465	20803.1
512.667	21521.93
512.87	21894.66
513.072	22330.88
513.274	23385.58
513.477	23350.77
513.679	24012.26
513.881	24884.7
514.084	25183.7
514.286	25494.99
514.488	26019.27
514.69	26924.47
514.893	27502
515.095	27983.27
515.297	28546.47
515.499	29283.73
515.701	30018.96
515.904	30506.37
516.106	31069.56
516.308	31511.92
516.51	32466.28
516.712	32849.25
516.914	33351
517.116	34667.84
517.318	34954.56
517.52	35421.5
517.722	35792.18
517.925	36816.16
518.127	37829.91
518.329	38518.03
518.531	38585.61
518.733	39355.64
518.935	40129.78
519.136	40746.22
519.338	41520.35
519.54	42136.79
519.742	42757.32
519.944	43293.89
520.146	44481.71
520.348	45268.13
520.55	45620.38
520.752	45745.31
520.954	46580.88
521.155	46838.92
521.357	48022.65
521.559	48301.17
521.761	48962.67
521.963	49044.58
522.164	49568.86
522.366	49683.55
522.568	50371.67
522.77	50693.2
522.971	52024.38
523.173	51348.55
523.375	52036.67
523.576	52268.09
523.778	52126.78
523.98	53062.7
524.181	53156.91
524.383	53349.42
524.584	53421.09
524.786	53984.29
524.988	53574.69
525.189	54178.84
525.391	54426.65
525.592	54357.02
525.794	54230.04
525.995	54275.1
526.197	54139.93
526.398	54152.22
526.6	53879.84
526.801	54041.63
527.003	54336.54
527.204	53675.04
527.406	54045.72
527.607	53709.86
527.808	53806.11
528.01	52329.53
528.211	52775.98
528.412	53052.46
528.614	52378.68
528.815	52079.67
529.016	52149.31
529.218	51391.56
529.419	50637.9
529.62	50488.4
529.822	50271.32
530.023	49841.24
530.224	49273.96
530.425	48970.86
530.626	47979.64
530.828	47553.66
531.029	48077.94
531.23	46961.8
531.431	46384.27
531.632	45737.12
531.833	45464.74
532.035	45391.01
532.236	44643.5
532.437	43883.7
532.638	43662.52
532.839	42855.62
533.04	42978.5
533.241	41776.34
533.442	41917.65
533.643	41112.8
533.844	40475.88
534.045	40326.38
534.246	39345.4
534.447	39156.99
534.648	38862.08
534.849	38100.24
535.05	37383.45
535.251	36855.07
535.451	36209.96
535.652	36377.9
535.853	35458.36
536.054	35202.36
536.255	34819.39
536.456	34118.99
536.657	34129.23
536.857	33475.93
537.058	32535.91
537.259	32374.12
537.46	31970.67
537.66	31460.73
537.861	31272.31
538.062	30846.33
538.263	30330.25
538.463	30422.41
538.664	29586.83
538.865	29568.4
539.065	29271.45
539.266	28655.01
539.466	28413.35
539.667	27700.65
539.868	28229.03
540.068	27309.49
540.269	27018.68
540.469	26604.99
540.67	26363.33
540.87	26191.3
541.071	25808.33
541.271	25624.01
541.472	25142.74
541.672	25208.28
541.873	24597.98
542.073	24415.71
542.274	24335.84
542.474	23547.37
542.675	23272.95
542.875	23514.61
543.075	22951.42
543.276	22730.23
543.476	22668.8
543.676	22212.1
543.877	22265.35
544.077	21906.95
544.277	21411.34
544.478	21423.63
544.678	21298.7
544.878	20917.78
545.078	20786.71
545.279	20217.38
545.479	20192.8
545.679	19858.98
545.879	19564.07
546.079	19443.24
546.28	19277.36
546.48	18822.71
546.68	18759.22
546.88	18845.24
547.08	18415.16
547.28	18136.64
547.48	17944.13
547.68	17813.06
547.88	17524.3
548.081	17362.51
548.281	16932.43
548.481	16844.37
548.681	16860.76
548.881	16279.13
549.081	16221.79
549.28	15963.75
549.48	15933.03
549.68	15607.4
549.88	15586.92
550.08	15234.67
550.28	15132.27
550.48	14986.86
550.68	14700.15
550.88	14360.19
551.08	14149.25
551.279	14118.53
551.479	13678.21
551.679	13600.39
551.879	13196.94
552.079	13317.77
552.278	12910.22
552.478	12981.9
552.678	12711.57
552.878	12605.08
553.077	12215.96
553.277	11927.2
553.477	11906.72
553.676	11697.83
553.876	11605.67
554.076	11470.5
554.275	11073.2
554.475	10880.69
554.674	10942.13
554.874	10819.25
555.074	10575.54
555.273	10337.98
555.473	10161.85
555.672	9852.61
555.872	9895.61
556.071	9633.47
556.271	9860.8
556.47	9377.48
556.67	9289.42
556.869	9121.48
557.068	9043.66
557.268	8746.7
557.467	8668.88
557.667	8629.97
557.866	8464.08
558.065	8156.89
558.265	7976.67
558.464	7937.76
558.663	8111.83
558.863	7675.62
559.062	7780.06
559.261	7319.27
559.461	7544.55
559.66	7212.78
559.859	7065.32
560.058	6846.19
560.258	6971.11
560.457	6713.07
560.656	7005.93
560.855	6452.98
561.054	6672.11
561.253	6461.17
561.453	6176.5
561.652	6205.17
561.851	6289.14
562.05	6080.25
562.249	5838.59
562.448	5746.43
562.647	5594.88
562.846	5742.33
563.045	5613.31
563.244	5416.71
563.443	5396.23
563.642	5457.67
563.841	5218.05
564.04	5082.89
564.239	5046.02
564.438	5041.93
564.637	4736.78
564.836	4949.77
565.035	4636.43
565.234	4708.11
565.432	4609.81
565.631	4624.14
565.83	4601.62
566.029	4462.35
566.228	4312.85
566.427	4480.78
566.625	4192.02
566.824	4146.97
567.023	4114.2
567.222	3964.7
567.42	3981.08
567.619	3987.22
567.818	3966.74
568.016	3933.98
568.215	3700.51
568.414	3729.18
568.612	3788.57
568.811	3551.01
569.01	3526.43
569.208	3460.9
569.407	3600.16
569.605	3407.65
569.804	3405.6
570.002	3213.09
570.201	3135.27
570.4	3116.84
570.598	3209
570.797	3204.9
570.995	3069.73
571.193	3014.44
571.392	3168.04
571.59	2834.22
571.789	2901.8
571.987	2899.75
572.186	2873.13
572.384	2627.37
572.582	2705.2
572.781	2740.01
572.979	2535.21
573.177	2535.21
573.376	2516.78
573.574	2545.45
573.772	2416.43
573.971	2361.14
574.169	2283.31
574.367	2248.5
574.565	2381.62
574.763	2287.41
574.962	2205.49
575.16	2172.72
575.358	2053.94
575.556	2168.63
575.754	2146.1
575.952	2025.27
576.151	2060.09
576.349	2023.22
576.547	1879.86
576.745	1918.78
576.943	1849.15
577.141	1849.15
577.339	1783.61
577.537	1744.7
577.735	1765.18
577.933	1873.72
578.131	1636.16
578.329	1820.47
578.527	1740.6
578.725	1785.66
578.923	1527.61
579.121	1642.3
579.319	1509.18
579.516	1519.42
579.714	1701.69
579.912	1480.51
580.11	1406.78
580.308	1482.56
580.506	1476.41
580.704	1275.71
580.901	1496.89
581.099	1402.69
581.297	1320.77
581.495	1234.75
581.692	1365.82
581.89	1326.91
582.088	1333.06
582.285	1247.04
582.483	1236.8
582.681	1226.56
582.878	1201.99
583.076	1161.03
583.274	1087.3
583.471	1204.03
583.669	1140.55
583.866	1087.3
584.064	970.57
584.262	984.9
584.459	1060.68
584.657	1118.02
584.854	1089.35
585.052	1150.79
585.249	1118.02
585.447	1009.48
585.644	968.52
585.841	972.61
586.039	952.13
586.236	1060.68
586.434	841.54
586.631	837.45
586.828	870.22
587.026	864.07
587.223	816.97
587.42	900.94
587.618	845.64
587.815	845.64
588.012	851.78
588.21	849.74
588.407	833.35
588.604	870.22
588.801	786.25
588.999	866.12
589.196	839.5
589.393	798.54
589.59	786.25
589.787	784.2
589.984	825.16
590.182	747.34
590.379	665.42
590.576	720.71
590.773	780.11
590.97	673.61
591.167	780.11
591.364	847.69
591.561	520.01
591.758	802.63
591.955	812.87
592.152	763.72
592.349	739.15
592.546	655.18
592.743	638.8
592.94	739.15
593.137	663.37
593.334	759.63
593.531	698.19
593.727	677.71
593.924	831.3
594.121	694.09
594.318	689.99
594.515	694.09
594.712	810.82
594.908	862.02
595.105	628.56
595.302	792.39
595.499	753.48
595.696	878.41
595.892	724.81
596.089	894.79
596.286	737.1
596.482	900.94
596.679	866.12
596.876	816.97
597.072	997.19
597.269	882.5
597.466	974.66
597.662	935.75
597.859	898.89
598.055	972.61
598.252	1062.73
598.448	1038.15
598.645	1093.44
598.841	1150.79
599.038	1210.18
599.234	1347.39
599.431	1251.14
599.627	1324.87
599.824	1437.5
600.02	1488.7
600.217	1431.36
600.413	1455.94
600.609	1552.19
600.806	1879.86
601.002	1736.51
601.198	1656.64
601.395	1871.67
601.591	1886.01
601.787	2033.46
601.984	2021.17
602.18	2101.05
602.376	2205.49
602.572	2402.1
602.769	2332.47
602.965	2455.34
603.161	2592.56
603.357	2574.13
603.553	2686.76
603.75	2799.4
603.946	2791.21
604.142	2987.82
604.338	3206.95
604.534	3165.99
604.73	3249.96
604.926	3409.7
605.122	3546.91
605.318	3516.19
605.514	3716.89
605.71	3819.29
605.906	4009.75
606.102	3948.31
606.298	4314.9
606.494	4388.63
606.69	4495.12
606.886	4534.03
607.082	4622.09
607.278	4945.67
607.474	4873.99
607.67	5086.98
607.866	5183.24
608.062	5510.91
608.257	5402.37
608.453	5742.33
608.649	5969.66
608.845	5936.89
609.041	6084.34
609.236	6231.8
609.432	6559.47
609.628	6573.81
609.824	6862.57
610.019	7038.7
610.215	7220.97
610.411	7687.9
610.606	7616.23
610.802	7896.8
610.998	7831.26
611.193	8144.6
611.389	8392.41
611.584	8730.32
611.78	8855.25
611.976	9041.61
612.171	9400.01
612.367	9602.75
612.562	9799.36
612.758	10096.32
612.953	10280.63
613.149	10790.58
613.344	10774.19
613.539	11515.56
613.735	11593.38
613.93	11792.03
614.126	12054.17
614.321	12533.4
614.517	12799.63
614.712	13293.19
614.907	13506.18
615.103	13700.74
615.298	14102.14
615.493	14456.44
615.688	14417.53
615.884	15283.82
616.079	15545.96
616.274	16062.05
616.47	16352.86
616.665	16776.79
616.86	17108.56
617.055	17638.98
617.25	17950.28
617.445	18646.58
617.641	18789.94
617.836	19312.17
618.031	19506.73
618.226	20327.97
618.421	20835.86
618.616	21493.26
618.811	21974.53
619.006	22365.7
619.201	22578.68
619.396	23148.02
619.591	23365.1
619.786	24518.11
619.981	24530.4
620.176	25345.49
620.371	25675.21
620.566	26201.54
620.761	27114.94
620.956	27397.56
621.151	27667.89
621.346	28573.09
621.541	28603.81
621.735	30186.89
621.93	29605.27
622.125	30649.73
622.32	30750.08
622.515	31804.78
622.709	32109.93
622.904	32648.55
623.099	33054.04
623.294	34121.04
623.488	34417.99
623.683	35439.93
623.878	35491.13
624.072	36007.22
624.267	36955.43
624.462	37225.76
624.656	37797.14
624.851	38460.68
625.046	38690.05
625.24	39396.6
625.435	40023.28
625.629	40506.6
625.824	41151.71
626.018	41563.36
626.213	41641.18
626.407	42474.7
626.602	42132.69
626.796	44080.31
626.991	43609.28
627.185	44350.64
627.38	44031.16
627.574	44727.47
627.768	44715.18
627.963	44549.29
628.157	44698.8
628.352	45581.47
628.546	44600.49
628.74	45622.43
628.935	45014.18
629.129	45264.03
629.323	44797.1
629.517	44860.58
629.712	44539.05
629.906	44045.49
630.1	43746.49
630.294	43392.19
630.489	42794.18
630.683	42618.06
630.877	41147.62
631.071	40854.76
631.265	40639.72
631.459	39296.25
631.653	38526.22
631.848	38090
632.042	36621.61
632.236	36594.98
632.43	35218.75
632.624	34467.14
632.818	33498.45
633.012	32480.61
633.206	31139.19
633.4	30705.02
633.594	29160.86
633.788	28485.03
633.982	27266.49
634.176	26734.01
634.369	25441.75
634.563	24464.86
634.757	23340.53
634.951	23082.49
635.145	22185.47
635.339	21016.08
635.533	20008.48
635.726	19652.14
635.92	18443.84
636.114	17991.23
636.308	17100.37
636.501	16531.03
636.695	15883.87
636.889	15240.81
637.083	14716.53
637.276	14077.57
637.47	13141.64
637.664	12869.26
637.857	12252.83
638.051	11732.64
638.244	11372.2
638.438	10882.74
638.632	10344.12
638.825	9912
639.019	9596.61
639.212	9309.9
639.406	8822.48
639.599	8595.15
639.793	8310.49
639.986	7909.08
640.18	7681.76
640.373	7206.63
640.567	7012.07
640.76	6700.78
640.954	6538.99
641.147	6207.22
641.34	5902.08
641.534	5904.12
641.727	5609.22
641.92	5297.92
642.114	5115.66
642.307	4955.91
642.5	4863.76
642.694	4454.16
642.887	4486.93
643.08	4294.42
643.273	4069.14
643.467	4026.14
643.66	3718.94
643.853	3653.41
644.046	3538.72
644.239	3327.78
644.432	3143.46
644.626	2961.19
644.819	2930.47
645.012	2834.22
645.205	2754.35
645.398	2750.25
645.591	2555.69
645.784	2443.06
645.977	2271.03
646.17	2281.27
646.363	2176.82
646.556	2113.33
646.749	2047.8
646.942	1849.15
647.135	1906.49
647.328	1781.56
647.521	1795.9
647.714	1783.61
647.907	1548.09
648.099	1570.62
648.292	1642.3
648.485	1369.92
648.678	1414.98
648.871	1242.95
649.064	1331.01
649.256	1199.94
649.449	1175.36
649.642	933.7
649.835	968.52
650.027	999.24
650.22	1111.88
650.413	1025.86
650.605	917.32
650.798	964.42
650.991	882.5
651.183	841.54
651.376	954.18
651.568	880.46
651.761	726.86
651.954	771.91
652.146	538.45
652.339	876.36
652.531	788.3
652.724	626.51
652.916	661.32
653.109	505.68
653.301	679.75
653.494	644.94
653.686	571.21
653.879	618.32
654.071	565.07
654.263	483.15
654.456	505.68
654.648	583.5
654.84	477.01
655.033	423.76
655.225	522.06
655.417	347.98
655.61	569.16
655.802	350.03
655.994	401.23
656.186	366.42
656.379	405.33
656.571	333.65
656.763	352.08
656.955	333.65
657.148	399.18
657.34	360.27
657.532	274.26
657.724	264.02
657.916	333.65
658.108	444.24
658.3	341.84
658.492	325.46
658.684	288.59
658.876	362.32
659.068	329.55
659.26	147.28
659.452	149.33
659.644	257.87
659.836	438.09
660.028	304.98
660.22	266.07
660.412	298.83
660.604	290.64
660.796	311.12
660.988	364.37
661.18	237.39
661.372	251.73
661.563	264.02
661.755	192.34
661.947	161.62
662.139	190.29
662.331	284.5
662.522	175.95
662.714	159.57
662.906	151.38
663.097	180.05
663.289	200.53
663.481	79.7
663.673	251.73
663.864	173.91
664.056	214.87
664.247	116.56
664.439	210.77
664.631	200.53
664.822	321.36
665.014	165.71
665.205	227.15
665.397	169.81
665.588	151.38
665.78	171.86
665.971	223.06
666.163	137.04
666.354	161.62
666.546	104.28
666.737	225.11
666.929	175.95
667.12	151.38
667.311	210.77
667.503	214.87
667.694	192.34
667.885	223.06
668.077	159.57
668.268	100.18
668.459	218.96
668.651	145.24
668.842	120.66
669.033	153.43
669.224	114.52
669.416	304.98
669.607	128.85
669.798	163.67
669.989	227.15
670.18	161.62
670.371	231.25
670.563	30.55
670.754	309.07
670.945	94.04
671.136	253.78
671.327	61.27
671.518	280.4
671.709	313.17
671.9	167.76
672.091	321.36
672.282	184.15
672.473	163.67
672.664	96.08
672.855	141.14
673.046	210.77
673.237	210.77
673.428	184.15
673.619	276.31
673.809	141.14
674	286.54
674.191	194.39
674.382	163.67
674.573	214.87
674.764	175.95
674.954	268.11
675.145	55.12
675.336	178
675.527	186.19
675.717	188.24
675.908	173.91
676.099	218.96
676.289	132.95
676.48	120.66
676.671	141.14
676.861	223.06
677.052	315.22
677.243	233.3
677.433	190.29
677.624	276.31
677.814	239.44
678.005	155.47
678.195	300.88
678.386	141.14
678.576	210.77
678.767	178
678.957	282.45
679.148	280.4
679.338	307.02
679.529	290.64
679.719	290.64
679.909	378.7
680.1	270.16
680.29	399.18
680.481	184.15
680.671	233.3
680.861	327.5
681.052	286.54
681.242	208.72
681.432	276.31
681.622	292.69
681.813	251.73
682.003	231.25
682.193	276.31
682.383	343.89
682.573	380.75
682.764	251.73
682.954	341.84
683.144	423.76
683.334	304.98
683.524	249.68
683.714	347.98
683.904	345.94
684.094	278.35
684.284	386.9
684.474	401.23
684.664	436.05
684.854	362.32
685.044	399.18
685.234	294.74
685.424	397.14
685.614	255.83
685.804	569.16
685.994	399.18
686.184	388.94
686.374	388.94
686.564	350.03
686.753	315.22
686.943	323.41
687.133	300.88
687.323	366.42
687.513	442.19
687.702	345.94
687.892	356.18
688.082	413.52
688.272	399.18
688.461	450.38
688.651	489.29
688.841	415.57
689.03	345.94
689.22	405.33
689.41	374.61
689.599	423.76
689.789	345.94
689.979	429.9
690.168	429.9
690.358	350.03
690.547	386.9
690.737	413.52
690.926	362.32
691.116	421.71
691.305	390.99
691.495	347.98
691.684	243.54
691.874	317.26
692.063	364.37
692.252	436.05
692.442	309.07
692.631	309.07
692.82	388.94
693.01	319.31
693.199	325.46
693.388	350.03
693.578	347.98
693.767	362.32
693.956	376.66
694.146	286.54
694.335	366.42
694.524	266.07
694.713	399.18
694.902	325.46
695.092	380.75
695.281	331.6
695.47	317.26
695.659	296.78
695.848	331.6
696.037	284.5
696.226	462.67
696.415	317.26
696.604	386.9
696.793	399.18
696.982	337.74
697.171	376.66
697.36	350.03
697.549	319.31
697.738	208.72
697.927	276.31
698.116	243.54
698.305	370.51
698.494	327.5
698.683	257.87
698.872	436.05
699.061	300.88
699.25	298.83
699.438	358.22
699.627	214.87
699.816	415.57
700.005	270.16
700.193	296.78
700.382	384.85
700.571	405.33
700.76	350.03
700.948	366.42
701.137	339.79
701.326	399.18
701.514	235.35
701.703	362.32
701.892	298.83
702.08	399.18
702.269	366.42
702.457	282.45
702.646	276.31
702.834	296.78
703.023	300.88
703.212	337.74
703.4	356.18
703.589	352.08
703.777	331.6
703.965	233.3
704.154	268.11
704.342	284.5
704.531	333.65
704.719	302.93
704.907	368.46
705.096	257.87
705.284	280.4
705.472	282.45
705.661	307.02
705.849	247.63
706.037	409.42
706.226	225.11
706.414	368.46
706.602	251.73
706.79	284.5
706.979	266.07
707.167	356.18
707.355	241.49
707.543	292.69
707.731	362.32
707.919	307.02
708.107	300.88
708.296	188.24
708.484	343.89
708.672	294.74
708.86	292.69
709.048	313.17
709.236	216.91
709.424	341.84
709.612	317.26
709.8	235.35
709.988	331.6
710.176	339.79
710.364	431.95
710.551	227.15
710.739	323.41
710.927	368.46
711.115	339.79
711.303	403.28
711.491	358.22
711.679	327.5
711.866	347.98
712.054	251.73
712.242	296.78
712.43	280.4
712.617	309.07
712.805	360.27
712.993	378.7
713.181	296.78
713.368	456.53
713.556	274.26
713.744	329.55
713.931	546.64
714.119	360.27
714.306	323.41
714.494	331.6
714.682	395.09
714.869	257.87
715.057	337.74
715.244	229.2
715.432	284.5
715.619	298.83
715.807	331.6
715.994	304.98
716.182	366.42
716.369	362.32
716.556	423.76
716.744	259.92
716.931	298.83
717.119	407.38
717.306	378.7
717.493	343.89
717.681	233.3
717.868	411.47
718.055	345.94
718.242	329.55
718.43	323.41
718.617	376.66
718.804	272.21
718.991	403.28
719.179	374.61
719.366	364.37
719.553	407.38
719.74	341.84
719.927	339.79
720.114	358.22
720.301	358.22
720.488	249.68
720.676	286.54
720.863	380.75
721.05	415.57
721.237	366.42
721.424	386.9
721.611	360.27
721.798	284.5
721.985	325.46
722.172	374.61
722.358	337.74
722.545	456.53
722.732	436.05
722.919	382.8
723.106	438.09
723.293	282.45
723.48	388.94
723.667	358.22
723.853	417.61
724.04	431.95
724.227	446.29
724.414	388.94
724.6	378.7
724.787	427.85
724.974	524.11
725.161	372.56
725.347	300.88
725.534	401.23
725.72	419.66
725.907	419.66
726.094	493.39
726.28	294.74
726.467	386.9
726.653	304.98
726.84	470.86
727.027	552.78
727.213	378.7
727.4	405.33
727.586	421.71
727.773	411.47
727.959	456.53
728.145	448.33
728.332	368.46
728.518	376.66
728.705	483.15
728.891	364.37
729.077	456.53
729.264	358.22
729.45	427.85
729.636	399.18
729.823	378.7
730.009	468.81
730.195	419.66
730.382	427.85
730.568	395.09
730.754	462.67
730.94	464.72
731.126	483.15
731.313	470.86
731.499	358.22
731.685	366.42
731.871	470.86
732.057	448.33
732.243	468.81
732.429	390.99
732.615	481.1
732.801	464.72
732.987	425.81
733.173	489.29
733.359	431.95
733.545	448.33
733.731	397.14
733.917	450.38
734.103	417.61
734.289	364.37
734.475	390.99
734.661	603.98
734.847	425.81
735.033	446.29
735.219	466.77
735.404	397.14
735.59	313.17
735.776	421.71
735.962	483.15
736.148	526.16
736.333	489.29
736.519	468.81
736.705	466.77
736.89	507.73
737.076	382.8
737.262	331.6
737.447	415.57
737.633	448.33
737.819	491.34
738.004	474.96
738.19	390.99
738.375	462.67
738.561	620.36
738.747	448.33
738.932	354.13
739.118	505.68
739.303	456.53
739.489	479.05
739.674	483.15
739.859	362.32
740.045	477.01
740.23	513.87
740.416	376.66
740.601	374.61
740.786	458.57
740.972	407.38
741.157	485.2
741.342	390.99
741.528	315.22
741.713	489.29
741.898	450.38
742.084	376.66
742.269	434
742.454	386.9
742.639	454.48
742.824	390.99
743.01	485.2
743.195	571.21
743.38	479.05
743.565	431.95
743.75	530.25
743.935	444.24
744.12	530.25
744.305	423.76
744.49	386.9
744.675	358.22
744.86	347.98
745.045	399.18
745.23	415.57
745.415	317.26
745.6	472.91
745.785	327.5
745.97	513.87
746.155	470.86
746.34	522.06
746.525	409.42
746.71	468.81
746.895	284.5
747.079	329.55
747.264	382.8
747.449	425.81
747.634	366.42
747.819	423.76
748.003	386.9
748.188	274.26
748.373	427.85
748.557	434
748.742	325.46
748.927	352.08
749.111	390.99
749.296	456.53
749.481	438.09
749.665	481.1
749.85	403.28
750.034	472.91
750.219	364.37
750.404	341.84
750.588	409.42
750.773	274.26
750.957	352.08
751.141	380.75
751.326	407.38
751.51	323.41
751.695	311.12
751.879	370.51
752.064	364.37
752.248	302.93
752.432	409.42
752.617	358.22
752.801	343.89
752.985	309.07
753.17	429.9
753.354	282.45
753.538	296.78
753.722	214.87
753.907	249.68
754.091	233.3
754.275	376.66
754.459	286.54
754.643	171.86
754.828	313.17
755.012	442.19
755.196	210.77
755.38	315.22
755.564	313.17
755.748	264.02
755.932	311.12
756.116	243.54
756.3	323.41
756.484	296.78
756.668	276.31
756.852	231.25
757.036	229.2
757.22	335.7
757.404	167.76
757.588	304.98
757.772	259.92
757.956	233.3
758.14	331.6
758.323	264.02
758.507	161.62
758.691	225.11
758.875	241.49
759.059	292.69
759.242	218.96
759.426	192.34
759.61	266.07
759.794	221.01
759.977	210.77
760.161	468.81
760.345	227.15
760.528	345.94
760.712	235.35
760.895	137.04
761.079	112.47
761.263	167.76
761.446	194.39
761.63	190.29
761.813	243.54
761.997	135
762.18	167.76
762.364	188.24
762.547	182.1
762.731	208.72
762.914	247.63
763.098	141.14
763.281	192.34
763.464	120.66
763.648	255.83
763.831	151.38
764.015	173.91
764.198	282.45
764.381	167.76
764.564	186.19
764.748	145.24
764.931	229.2
765.114	204.63
765.297	229.2
765.481	184.15
765.664	139.09
765.847	73.56
766.03	292.69
766.213	67.41
766.397	218.96
766.58	102.23
766.763	155.47
766.946	145.24
767.129	128.85
767.312	175.95
767.495	79.7
767.678	143.19
767.861	159.57
768.044	145.24
768.227	104.28
768.41	159.57
768.593	145.24
768.776	163.67
768.959	141.14
769.142	206.67
769.324	190.29
769.507	165.71
769.69	167.76
769.873	190.29
770.056	298.83
770.239	67.41
770.421	124.76
770.604	210.77
770.787	169.81
770.97	196.43
771.152	85.84
771.335	100.18
771.518	77.65
771.7	178
771.883	251.73
772.066	110.42
772.248	143.19
772.431	296.78
772.613	126.8
772.796	81.75
772.978	118.61
773.161	290.64
773.343	112.47
773.526	30.55
773.708	1.88
773.891	10.07
774.073	102.23
774.256	65.36
774.438	206.67
774.621	75.6
774.803	112.47
774.985	24.4
775.168	81.75
775.35	69.46
775.532	149.33
775.715	61.27
775.897	120.66
776.079	96.08
776.261	98.13
776.444	114.52
776.626	139.09
776.808	116.56
776.99	26.45
777.173	71.51
777.355	53.08
777.537	112.47
777.719	75.6
777.901	30.55
778.083	71.51
778.265	59.22
778.447	145.24
778.629	75.6
778.811	120.66
778.993	102.23
779.175	104.28
779.357	155.47
779.539	32.6
779.721	141.14
779.903	161.62
780.085	34.64
780.267	104.28
780.449	124.76
780.631	38.74
780.812	192.34
780.994	75.6
781.176	20.31
781.358	77.65
781.54	59.22
781.721	118.61
781.903	106.32
782.085	63.32
782.267	85.84
782.448	67.41
782.63	-39.08
782.812	81.75
782.993	83.8
783.175	85.84
783.357	63.32
783.538	112.47
783.72	10.07
783.901	1.88
784.083	34.64
784.264	87.89
784.446	69.46
784.627	-14.51
784.809	67.41
784.99	-10.41
785.172	38.74
785.353	22.36
785.535	55.12
785.716	18.26
785.897	14.17
786.079	73.56
786.26	81.75
786.441	36.69
786.623	-80.04
786.804	5.97
786.985	28.5
787.167	110.42
787.348	38.74
787.529	14.17
787.71	157.52
787.891	145.24
788.073	38.74
788.254	-39.08
788.435	151.38
788.616	30.55
788.797	-51.37
788.978	-24.75
789.159	-10.41
789.34	69.46
789.522	46.93
789.703	55.12
789.884	5.97
790.065	69.46
790.246	124.76
790.427	55.12
790.607	53.08
790.788	87.89
790.969	-4.27
791.15	81.75
791.331	-32.94
791.512	106.32
791.693	-16.55
791.874	-20.65
792.054	210.77
792.235	106.32
792.416	-14.51
792.597	-28.84
792.778	67.41
792.958	42.84
793.139	79.7
793.32	69.46
793.5	-26.79
793.681	161.62
793.862	42.84
794.042	102.23
794.223	-141.48
794.404	-39.08
794.584	-53.42
794.765	30.55
794.945	46.93
795.126	112.47
795.306	32.6
795.487	24.4
795.667	-34.99
795.848	32.6
796.028	14.17
796.209	30.55
796.389	36.69
796.57	51.03
796.75	-14.51
796.93	28.5
797.111	-24.75
797.291	-10.41
797.471	48.98
797.652	10.07
797.832	-10.41
798.012	34.64
798.192	-51.37
798.373	-59.56
798.553	-22.7
798.733	12.12
798.913	-49.32
799.093	-14.51
799.274	14.17
799.454	91.99
799.634	91.99
799.814	79.7
799.994	-10.41
800.174	1.88
800.354	10.07
800.534	-106.67
800.714	128.85
800.894	-32.94
801.074	-104.62
801.254	-30.89
801.434	91.99
801.614	5.97
801.794	44.88
801.974	1470.27
802.154	-4.27
802.334	85.84
802.514	-59.56
802.693	-24.75
802.873	-51.37
803.053	-8.36
803.233	91.99
803.413	51.03
803.592	-57.51
803.772	-125.1
803.952	44.88
804.131	-43.18
804.311	67.41
804.491	10.07
804.67	57.17
804.85	-12.46
805.03	26.45
805.209	175.95
805.389	-32.94
805.568	-10.41
805.748	18.26
805.928	12.12
806.107	24.4
806.287	30.55
806.466	-14.51
806.646	14.17
806.825	-80.04
807.004	-67.75
807.184	18.26
807.363	77.65
807.543	-4.27
807.722	-12.46
807.901	67.41
808.081	24.4
808.26	-149.67
808.439	10.07
808.619	-12.46
808.798	-67.75
808.977	59.22
809.156	34.64
809.336	14.17
809.515	48.98
809.694	-102.57
809.873	-20.65
810.052	14.17
810.231	112.47
810.411	77.65
810.59	-47.27
810.769	1.88
810.948	24.4
811.127	-47.27
811.306	-61.61
811.485	-10.41
811.664	112.47
811.843	-6.31
812.022	-22.7
812.201	-59.56
812.38	36.69
812.559	36.69
812.737	94.04
812.916	-137.38
813.095	-137.38
813.274	-8.36
813.453	-4.27
813.632	65.36
813.811	44.88
813.989	-84.14
814.168	14.17
814.347	-26.79
814.526	81.75
814.704	-10.41
814.883	28.5
815.062	-22.7
815.24	46.93
815.419	-88.23
815.598	24.4
815.776	-176.3
815.955	-67.75
816.133	-127.14
816.312	-59.56
816.49	5.97
816.669	-55.47
816.847	-0.17
817.026	-4.27
817.204	-45.23
817.383	22.36
817.561	-80.04
817.74	57.17
817.918	3.93
818.097	-30.89
818.275	-45.23
818.453	22.36
818.632	75.6
818.81	-39.08
818.988	-34.99
819.167	28.5
819.345	-8.36
819.523	-10.41
819.701	63.32
819.879	55.12
820.058	8.02
820.236	79.7
820.414	-2.22
820.592	-80.04
820.77	-16.55
820.948	-34.99
821.127	-26.79
821.305	3.93
821.483	-22.7
821.661	59.22
821.839	-14.51
822.017	-90.28
822.195	-2.22
822.373	32.6
822.551	-18.6
822.729	5.97
822.907	30.55
823.085	59.22
823.262	3.93
823.44	-121
823.618	26.45
823.796	-63.66
823.974	-37.03
824.152	-10.41
824.329	38.74
824.507	1.88
824.685	55.12
824.863	-6.31
825.04	-18.6
825.218	-22.7
825.396	10.07
825.574	-4.27
825.751	-47.27
825.929	-10.41
826.107	-112.81
826.284	-10.41
826.462	-45.23
826.639	-80.04
826.817	-43.18
826.994	-30.89
827.172	-67.75
827.349	34.64
827.527	30.55
827.704	-12.46
827.882	38.74
828.059	5.97
828.237	-30.89
828.414	59.22
828.591	-184.49
828.769	30.55
828.946	-80.04
829.124	46.93
829.301	46.93
829.478	-47.27
829.655	59.22
829.833	-30.89
830.01	-98.47
830.187	32.6
830.364	-12.46
830.542	34.64
830.719	28.5
830.896	85.84
831.073	61.27
831.25	-10.41
831.427	-18.6
831.604	-63.66
831.782	32.6
831.959	38.74
832.136	-30.89
832.313	71.51
832.49	-18.6
832.667	-10.41
832.844	-67.75
833.021	34.64
833.198	-51.37
833.374	10.07
833.551	69.46
833.728	-75.95
833.905	5.97
834.082	-80.04
834.259	-55.47
834.436	55.12
834.612	-65.71
834.789	-24.75
834.966	38.74
835.143	77.65
835.319	-110.76
835.496	10.07
835.673	-104.62
835.85	24.4
836.026	22.36
836.203	73.56
836.38	3.93
836.556	-51.37
836.733	-18.6
836.909	100.18
837.086	-30.89
837.262	-102.57
837.439	16.21
837.616	-63.66
837.792	-24.75
837.968	-49.32
838.145	-88.23
838.321	79.7
838.498	-59.56
838.674	-26.79
838.851	85.84
839.027	22.36
839.203	-2.22
839.38	-16.55
839.556	-47.27
839.732	69.46
839.909	-53.42
840.085	46.93
840.261	-57.51
840.437	-24.75
840.614	-71.85
840.79	46.93
840.966	-18.6
841.142	-59.56
841.318	3.93
841.494	71.51
841.671	-18.6
841.847	-57.51
842.023	-37.03
842.199	14.17
842.375	63.32
842.551	-75.95
842.727	-112.81
842.903	120.66
843.079	-57.51
843.255	46.93
843.431	-45.23
843.607	79.7
843.783	-186.54
843.959	22.36
844.134	-86.19
844.31	85.84
844.486	-118.95
844.662	-45.23
844.838	-26.79
845.013	-8.36
845.189	3.93
845.365	26.45
845.541	-53.42
845.716	28.5
845.892	26.45
846.068	-84.14
846.244	-63.66
846.419	36.69
846.595	-110.76
846.77	-65.71
846.946	55.12
847.122	-59.56
847.297	-8.36
847.473	55.12
847.648	-135.34
847.824	-88.23
847.999	-106.67
848.175	8.02
848.35	-32.94
848.526	63.32
848.701	55.12
848.876	-51.37
849.052	22.36
849.227	-26.79
849.403	-47.27
849.578	-45.23
849.753	67.41
849.929	-0.17
850.104	-67.75
850.279	-10.41
850.454	-59.56
850.63	-43.18
850.805	10.07
850.98	73.56
851.155	-80.04
851.33	-51.37
851.505	-63.66
851.681	159.57
851.856	-71.85
852.031	-20.65
852.206	30.55
852.381	-53.42
852.556	-67.75
852.731	-12.46
852.906	26.45
853.081	-28.84
853.256	141.14
853.431	-18.6
853.606	-51.37
853.781	-67.75
853.956	-141.48
854.131	-24.75
854.305	-59.56
854.48	48.98
854.655	-16.55
854.83	-14.51
855.005	12.12
855.18	30.55
855.354	1.88
855.529	-12.46
855.704	-47.27
855.879	-4.27
856.053	-98.47
856.228	12.12
856.403	-69.8
856.577	-10.41
856.752	-47.27
856.926	-6.31
857.101	28.5
857.276	-80.04
857.45	-106.67
857.625	44.88
857.799	-20.65
857.974	-2.22
858.148	-151.72
858.323	-18.6
858.497	-37.03
858.672	-16.55
858.846	-67.75
859.02	30.55
859.195	-2.22
859.369	-80.04
859.543	-43.18
859.718	-43.18
859.892	38.74
860.066	-51.37
860.241	-22.7
860.415	-80.04
860.589	-55.47
860.763	-30.89
860.938	-53.42
861.112	34.64
861.286	-59.56
861.46	-75.95
861.634	-20.65
861.808	100.18
861.982	-149.67
862.157	-34.99
862.331	-53.42
862.505	-75.95
862.679	-77.99
862.853	-43.18
863.027	-88.23
863.201	132.95
863.375	-34.99
863.549	-8.36
863.722	-12.46
863.896	30.55
864.07	-14.51
864.244	-16.55
864.418	36.69
864.592	-41.13
864.766	-34.99
864.939	1.88
865.113	-43.18
865.287	12.12
865.461	-28.84
865.634	-94.38
865.808	-22.7
865.982	-88.23
866.156	-55.47
866.329	-104.62
866.503	-80.04
866.676	28.5
866.85	-34.99
867.024	-51.37
867.197	38.74
867.371	14.17
867.544	-71.85
867.718	-47.27
867.891	42.84
868.065	-133.29
868.238	-47.27
868.412	77.65
868.585	34.64
868.759	-20.65
868.932	-37.03
869.105	-63.66
869.279	10.07
869.452	-20.65
869.625	36.69
869.799	-22.7
869.972	-32.94
870.145	-137.38
870.319	-69.8
870.492	-86.19
870.665	-30.89
870.838	-49.32
871.011	-129.19
871.185	-71.85
871.358	-45.23
871.531	38.74
871.704	-26.79
871.877	5.97
872.05	-6.31
872.223	-86.19
872.396	-2.22
872.569	48.98
872.742	-118.95
872.915	-6.31
873.088	-59.56
873.261	-116.9
873.434	26.45
873.607	-96.43
873.78	91.99
873.953	-157.86
874.126	-55.47
874.299	-45.23
874.471	-47.27
874.644	-65.71
874.817	71.51
874.99	20.31
875.163	-84.14
875.335	14.17
875.508	-39.08
875.681	-0.17
875.853	-63.66
876.026	38.74
876.199	98.13
876.371	-18.6
876.544	-51.37
876.717	-63.66
876.889	-12.46
877.062	53.08
877.234	-47.27
877.407	-59.56
877.579	-14.51
877.752	51.03
877.924	28.5
878.097	20.31
878.269	61.27
878.442	-75.95
878.614	32.6
878.786	10.07
878.959	-8.36
879.131	42.84
879.303	-26.79
879.476	-65.71
879.648	83.8
879.82	-4.27
879.993	-86.19
880.165	-6.31
880.337	-55.47
880.509	46.93
880.681	-129.19
880.854	-45.23
881.026	-80.04
881.198	143.19
881.37	46.93
881.542	-80.04
881.714	38.74
881.886	-57.51
882.058	51.03
882.23	-34.99
882.402	-61.61
882.574	-0.17
882.746	63.32
882.918	143.19
883.09	71.51
883.262	-34.99
883.434	-55.47
883.606	-141.48
883.778	14.17
883.95	61.27
884.122	-32.94
884.293	-37.03
884.465	-39.08
884.637	12.12
884.809	-43.18
884.98	-84.14
885.152	61.27
885.324	55.12
885.496	-104.62
885.667	-88.23
885.839	14.17
886.011	71.51
886.182	20.31
886.354	40.79
886.525	-32.94
886.697	53.08
886.869	-135.34
887.04	-102.57
887.212	-2.22
887.383	108.37
887.555	-75.95
887.726	-96.43
887.897	-34.99
888.069	20.31
888.24	24.4
888.412	8.02
888.583	-43.18
888.754	36.69
888.926	-59.56
889.097	1.88
889.268	-112.81
889.44	18.26
889.611	-80.04
889.782	-135.34
889.953	-151.72
890.125	12.12
890.296	-77.99
890.467	-59.56
890.638	-141.48
890.809	-104.62
890.98	-26.79
891.151	-43.18
891.323	55.12
891.494	-12.46
891.665	-26.79
891.836	-53.42
892.007	-14.51
892.178	30.55
892.349	12.12
892.52	-67.75
892.691	-53.42
892.862	-45.23
893.032	-112.81
893.203	-37.03
893.374	-34.99
893.545	-41.13
893.716	-53.42
893.887	5.97
894.057	-65.71
894.228	-94.38
894.399	-45.23
894.57	83.8
894.74	-32.94
894.911	-47.27
895.082	-37.03
895.253	-63.66
895.423	-71.85
895.594	-10.41
895.764	-49.32
895.935	-55.47
896.106	-2.22
896.276	-53.42
896.447	-4.27
896.617	-141.48
896.788	-61.61
896.958	-26.79
897.129	-75.95
897.299	-51.37
897.47	75.6
897.64	-10.41
897.81	-16.55
897.981	-20.65
898.151	-12.46
898.322	-16.55
898.492	-18.6
898.662	-80.04
898.832	-77.99
899.003	-102.57
899.173	-12.46
899.343	-22.7
899.513	-26.79
