Data from USB4F104151__56__10-26-10-330.txt Node

Date: Wed Feb 26 10:26:10 EST 2025
User: louis
Spectrometer: USB4F10415
Trigger mode: 4
Integration Time (sec): 1.000000E-1
Scans to average: 1
Electric dark correction enabled: true
Nonlinearity correction enabled: false
Boxcar width: 0
XAxis mode: Wavelengths
Number of Pixels in Spectrum: 3648
>>>>>Begin Spectral Data<<<<<
178.204	-391.33
178.424	-391.33
178.644	-391.33
178.864	-336.04
179.084	-417.96
179.304	-39.08
179.524	-39.08
179.744	5.97
179.964	28.5
180.184	-2.22
180.404	71.51
180.624	-53.42
180.844	-63.66
181.064	-53.42
181.283	110.42
181.503	-26.79
181.723	61.27
181.943	-47.27
182.163	235.35
182.383	-10.41
182.602	178
182.822	186.19
183.042	118.61
183.262	-69.8
183.482	-12.46
183.701	94.04
183.921	44.88
184.141	-20.65
184.361	110.42
184.58	87.89
184.8	100.18
185.02	53.08
185.239	73.56
185.459	114.52
185.679	108.37
185.898	-127.14
186.118	85.84
186.338	63.32
186.557	122.71
186.777	-26.79
186.997	-6.31
187.216	34.64
187.436	227.15
187.655	122.71
187.875	116.56
188.095	5.97
188.314	137.04
188.534	71.51
188.753	16.21
188.973	53.08
189.192	173.91
189.412	10.07
189.631	81.75
189.851	157.52
190.07	139.09
190.29	-18.6
190.509	-28.84
190.729	16.21
190.948	85.84
191.168	245.59
191.387	55.12
191.607	32.6
191.826	3.93
192.045	100.18
192.265	40.79
192.484	69.46
192.704	55.12
192.923	-94.38
193.142	206.67
193.362	85.84
193.581	110.42
193.8	36.69
194.02	110.42
194.239	24.4
194.458	155.47
194.678	65.36
194.897	1.88
195.116	-4.27
195.335	94.04
195.555	98.13
195.774	-32.94
195.993	135
196.212	16.21
196.432	-45.23
196.651	-51.37
196.87	32.6
197.089	298.83
197.308	118.61
197.528	36.69
197.747	-69.8
197.966	48.98
198.185	178
198.404	3.93
198.623	163.67
198.842	169.81
199.062	120.66
199.281	94.04
199.5	20.31
199.719	100.18
199.938	55.12
200.157	89.94
200.376	116.56
200.595	102.23
200.814	73.56
201.033	-10.41
201.252	171.86
201.471	69.46
201.69	67.41
201.909	-0.17
202.128	83.8
202.347	100.18
202.566	53.08
202.785	-82.09
203.004	26.45
203.223	290.64
203.442	-45.23
203.661	-55.47
203.879	106.32
204.098	126.8
204.317	1.88
204.536	98.13
204.755	40.79
204.974	153.43
205.193	10.07
205.411	204.63
205.63	94.04
205.849	85.84
206.068	24.4
206.287	-18.6
206.505	159.57
206.724	73.56
206.943	42.84
207.162	10.07
207.381	57.17
207.599	155.47
207.818	73.56
208.037	18.26
208.255	-12.46
208.474	40.79
208.693	104.28
208.911	26.45
209.13	124.76
209.349	116.56
209.567	79.7
209.786	163.67
210.005	53.08
210.223	81.75
210.442	-34.99
210.661	79.7
210.879	124.76
211.098	73.56
211.316	91.99
211.535	106.32
211.753	120.66
211.972	38.74
212.191	24.4
212.409	38.74
212.628	73.56
212.846	32.6
213.065	34.64
213.283	122.71
213.502	81.75
213.72	85.84
213.938	-34.99
214.157	51.03
214.375	122.71
214.594	94.04
214.812	112.47
215.031	96.08
215.249	91.99
215.467	26.45
215.686	40.79
215.904	34.64
216.122	20.31
216.341	83.8
216.559	26.45
216.778	135
216.996	202.58
217.214	61.27
217.432	85.84
217.651	-53.42
217.869	159.57
218.087	83.8
218.306	-30.89
218.524	96.08
218.742	14.17
218.96	124.76
219.179	22.36
219.397	102.23
219.615	237.39
219.833	46.93
220.051	-0.17
220.27	24.4
220.488	141.14
220.706	59.22
220.924	61.27
221.142	-47.27
221.36	-6.31
221.578	94.04
221.796	-2.22
222.015	8.02
222.233	85.84
222.451	85.84
222.669	-43.18
222.887	59.22
223.105	-51.37
223.323	32.6
223.541	-75.95
223.759	85.84
223.977	42.84
224.195	276.31
224.413	18.26
224.631	-8.36
224.849	12.12
225.067	231.25
225.285	73.56
225.503	81.75
225.721	-67.75
225.939	65.36
226.157	94.04
226.375	85.84
226.592	-16.55
226.81	42.84
227.028	114.52
227.246	98.13
227.464	38.74
227.682	91.99
227.9	200.53
228.117	34.64
228.335	100.18
228.553	71.51
228.771	96.08
228.989	106.32
229.206	63.32
229.424	-0.17
229.642	-43.18
229.86	-0.17
230.077	132.95
230.295	-30.89
230.513	73.56
230.731	67.41
230.948	274.26
231.166	184.15
231.384	83.8
231.601	34.64
231.819	151.38
232.037	-49.32
232.254	-20.65
232.472	44.88
232.689	-4.27
232.907	32.6
233.125	-22.7
233.342	-0.17
233.56	26.45
233.777	3.93
233.995	22.36
234.213	81.75
234.43	48.98
234.648	89.94
234.865	104.28
235.083	100.18
235.3	44.88
235.518	77.65
235.735	235.35
235.953	77.65
236.17	48.98
236.388	40.79
236.605	12.12
236.822	102.23
237.04	157.52
237.257	-49.32
237.475	5.97
237.692	89.94
237.909	98.13
238.127	-26.79
238.344	28.5
238.562	71.51
238.779	40.79
238.996	-20.65
239.214	114.52
239.431	89.94
239.648	-6.31
239.865	118.61
240.083	106.32
240.3	46.93
240.517	-16.55
240.735	51.03
240.952	126.8
241.169	59.22
241.386	106.32
241.603	75.6
241.821	-4.27
242.038	120.66
242.255	81.75
242.472	-49.32
242.689	145.24
242.907	114.52
243.124	59.22
243.341	48.98
243.558	44.88
243.775	-26.79
243.992	-94.38
244.209	126.8
244.426	137.04
244.643	55.12
244.86	73.56
245.078	110.42
245.295	87.89
245.512	48.98
245.729	32.6
245.946	67.41
246.163	71.51
246.38	38.74
246.597	30.55
246.814	116.56
247.031	106.32
247.248	83.8
247.464	94.04
247.681	20.31
247.898	63.32
248.115	75.6
248.332	-26.79
248.549	63.32
248.766	175.95
248.983	104.28
249.2	98.13
249.417	83.8
249.633	-8.36
249.85	114.52
250.067	98.13
250.284	61.27
250.501	157.52
250.717	112.47
250.934	28.5
251.151	3.93
251.368	63.32
251.585	94.04
251.801	87.89
252.018	-22.7
252.235	143.19
252.451	-14.51
252.668	3.93
252.885	118.61
253.102	59.22
253.318	14.17
253.535	-24.75
253.752	12.12
253.968	42.84
254.185	-57.51
254.401	55.12
254.618	128.85
254.835	16.21
255.051	149.33
255.268	48.98
255.484	36.69
255.701	69.46
255.917	108.37
256.134	-34.99
256.351	-2.22
256.567	-26.79
256.784	77.65
257	-57.51
257.217	178
257.433	63.32
257.65	83.8
257.866	126.8
258.082	-4.27
258.299	-6.31
258.515	130.9
258.732	32.6
258.948	-59.56
259.165	173.91
259.381	-10.41
259.597	46.93
259.814	65.36
260.03	-4.27
260.246	75.6
260.463	120.66
260.679	182.1
260.895	75.6
261.112	96.08
261.328	34.64
261.544	-135.34
261.761	153.43
261.977	40.79
262.193	36.69
262.409	106.32
262.626	61.27
262.842	3.93
263.058	32.6
263.274	169.81
263.49	65.36
263.707	169.81
263.923	126.8
264.139	-34.99
264.355	81.75
264.571	110.42
264.787	57.17
265.004	153.43
265.22	38.74
265.436	-37.03
265.652	8.02
265.868	18.26
266.084	-61.61
266.3	51.03
266.516	-51.37
266.732	-18.6
266.948	102.23
267.164	10.07
267.38	102.23
267.596	112.47
267.812	204.63
268.028	71.51
268.244	106.32
268.46	55.12
268.676	-75.95
268.892	18.26
269.108	20.31
269.324	24.4
269.54	40.79
269.756	14.17
269.972	-28.84
270.188	-41.13
270.403	-20.65
270.619	59.22
270.835	173.91
271.051	61.27
271.267	20.31
271.483	12.12
271.698	75.6
271.914	61.27
272.13	98.13
272.346	-0.17
272.562	73.56
272.777	116.56
272.993	46.93
273.209	-18.6
273.425	59.22
273.64	1.88
273.856	126.8
274.072	-10.41
274.287	8.02
274.503	85.84
274.719	100.18
274.934	16.21
275.15	-80.04
275.366	14.17
275.581	-0.17
275.797	20.31
276.012	110.42
276.228	5.97
276.444	8.02
276.659	147.28
276.875	-39.08
277.09	-14.51
277.306	30.55
277.521	3.93
277.737	79.7
277.952	65.36
278.168	94.04
278.383	104.28
278.599	73.56
278.814	157.52
279.03	55.12
279.245	200.53
279.461	53.08
279.676	126.8
279.892	-59.56
280.107	-90.28
280.322	-30.89
280.538	24.4
280.753	-49.32
280.969	120.66
281.184	81.75
281.399	153.43
281.615	-41.13
281.83	51.03
282.045	12.12
282.26	89.94
282.476	171.86
282.691	73.56
282.906	-16.55
283.122	12.12
283.337	-18.6
283.552	48.98
283.767	48.98
283.983	137.04
284.198	59.22
284.413	143.19
284.628	12.12
284.843	77.65
285.058	44.88
285.274	16.21
285.489	-80.04
285.704	171.86
285.919	-22.7
286.134	55.12
286.349	81.75
286.564	20.31
286.779	79.7
286.995	44.88
287.21	-63.66
287.425	48.98
287.64	5.97
287.855	55.12
288.07	-59.56
288.285	108.37
288.5	186.19
288.715	59.22
288.93	46.93
289.145	-77.99
289.36	81.75
289.575	51.03
289.79	116.56
290.004	59.22
290.219	202.58
290.434	94.04
290.649	-30.89
290.864	-18.6
291.079	42.84
291.294	63.32
291.509	71.51
291.724	-14.51
291.938	28.5
292.153	42.84
292.368	36.69
292.583	61.27
292.798	40.79
293.012	102.23
293.227	83.8
293.442	24.4
293.657	77.65
293.871	155.47
294.086	-20.65
294.301	202.58
294.516	163.67
294.73	5.97
294.945	38.74
295.16	-24.75
295.374	85.84
295.589	180.05
295.804	-20.65
296.018	73.56
296.233	153.43
296.447	57.17
296.662	-34.99
296.877	186.19
297.091	141.14
297.306	65.36
297.52	-24.75
297.735	38.74
297.949	24.4
298.164	36.69
298.378	34.64
298.593	40.79
298.807	-0.17
299.022	51.03
299.236	132.95
299.451	57.17
299.665	28.5
299.88	48.98
300.094	114.52
300.309	67.41
300.523	106.32
300.737	14.17
300.952	32.6
301.166	120.66
301.381	12.12
301.595	42.84
301.809	59.22
302.024	8.02
302.238	-43.18
302.452	137.04
302.667	40.79
302.881	194.39
303.095	126.8
303.309	87.89
303.524	53.08
303.738	83.8
303.952	106.32
304.166	-22.7
304.381	-73.9
304.595	71.51
304.809	18.26
305.023	79.7
305.237	40.79
305.452	42.84
305.666	102.23
305.88	67.41
306.094	106.32
306.308	87.89
306.522	112.47
306.736	81.75
306.95	85.84
307.164	22.36
307.379	34.64
307.593	157.52
307.807	171.86
308.021	106.32
308.235	16.21
308.449	-24.75
308.663	106.32
308.877	247.63
309.091	94.04
309.305	83.8
309.519	-110.76
309.733	182.1
309.947	-32.94
310.161	122.71
310.374	63.32
310.588	122.71
310.802	-32.94
311.016	14.17
311.23	89.94
311.444	10.07
311.658	53.08
311.872	130.9
312.085	186.19
312.299	106.32
312.513	87.89
312.727	-90.28
312.941	1.88
313.154	100.18
313.368	55.12
313.582	83.8
313.796	57.17
314.009	-39.08
314.223	102.23
314.437	36.69
314.651	126.8
314.864	3.93
315.078	-2.22
315.292	-0.17
315.505	69.46
315.719	65.36
315.933	81.75
316.146	28.5
316.36	38.74
316.573	120.66
316.787	98.13
317.001	102.23
317.214	-49.32
317.428	91.99
317.641	57.17
317.855	20.31
318.068	42.84
318.282	51.03
318.495	178
318.709	143.19
318.922	12.12
319.136	67.41
319.349	139.09
319.563	8.02
319.776	75.6
319.99	-20.65
320.203	141.14
320.417	73.56
320.63	67.41
320.843	198.48
321.057	61.27
321.27	48.98
321.483	149.33
321.697	186.19
321.91	73.56
322.124	73.56
322.337	81.75
322.55	28.5
322.763	73.56
322.977	30.55
323.19	-2.22
323.403	8.02
323.617	116.56
323.83	108.37
324.043	94.04
324.256	73.56
324.469	-12.46
324.683	94.04
324.896	51.03
325.109	106.32
325.322	-0.17
325.535	149.33
325.748	110.42
325.962	18.26
326.175	-4.27
326.388	51.03
326.601	126.8
326.814	46.93
327.027	106.32
327.24	151.38
327.453	-53.42
327.666	40.79
327.879	98.13
328.092	51.03
328.305	53.08
328.518	51.03
328.731	18.26
328.944	73.56
329.157	71.51
329.37	20.31
329.583	208.72
329.796	167.76
330.009	-71.85
330.222	126.8
330.435	141.14
330.648	67.41
330.861	139.09
331.073	89.94
331.286	67.41
331.499	46.93
331.712	-20.65
331.925	108.37
332.138	130.9
332.35	73.56
332.563	46.93
332.776	173.91
332.989	-61.61
333.202	24.4
333.414	20.31
333.627	-8.36
333.84	-12.46
334.053	83.8
334.265	-45.23
334.478	44.88
334.691	16.21
334.903	-24.75
335.116	28.5
335.329	32.6
335.541	122.71
335.754	192.34
335.966	-20.65
336.179	61.27
336.392	57.17
336.604	91.99
336.817	71.51
337.029	89.94
337.242	40.79
337.454	53.08
337.667	157.52
337.88	114.52
338.092	42.84
338.305	65.36
338.517	14.17
338.729	73.56
338.942	241.49
339.154	5.97
339.367	57.17
339.579	100.18
339.792	-16.55
340.004	65.36
340.217	69.46
340.429	98.13
340.641	3.93
340.854	-47.27
341.066	36.69
341.278	153.43
341.491	159.57
341.703	77.65
341.915	-2.22
342.128	-0.17
342.34	40.79
342.552	-24.75
342.764	40.79
342.977	89.94
343.189	98.13
343.401	44.88
343.613	-80.04
343.826	61.27
344.038	-55.47
344.25	118.61
344.462	-4.27
344.674	77.65
344.886	83.8
345.099	87.89
345.311	178
345.523	79.7
345.735	-94.38
345.947	20.31
346.159	30.55
346.371	61.27
346.583	22.36
346.795	116.56
347.007	-34.99
347.219	69.46
347.431	30.55
347.643	139.09
347.855	20.31
348.067	188.24
348.279	-10.41
348.491	-18.6
348.703	114.52
348.915	24.4
349.127	-4.27
349.339	46.93
349.551	-67.75
349.763	42.84
349.975	75.6
350.187	69.46
350.399	108.37
350.61	108.37
350.822	-18.6
351.034	73.56
351.246	1.88
351.458	102.23
351.669	87.89
351.881	98.13
352.093	147.28
352.305	61.27
352.517	159.57
352.728	135
352.94	65.36
353.152	110.42
353.363	16.21
353.575	132.95
353.787	196.43
353.999	98.13
354.21	100.18
354.422	-53.42
354.633	3.93
354.845	40.79
355.057	36.69
355.268	73.56
355.48	206.67
355.692	-2.22
355.903	128.85
356.115	24.4
356.326	-82.09
356.538	137.04
356.749	63.32
356.961	167.76
357.172	96.08
357.384	-49.32
357.595	218.96
357.807	22.36
358.018	-47.27
358.23	48.98
358.441	165.71
358.653	151.38
358.864	102.23
359.075	-20.65
359.287	91.99
359.498	71.51
359.709	96.08
359.921	55.12
360.132	108.37
360.344	18.26
360.555	-10.41
360.766	20.31
360.977	24.4
361.189	155.47
361.4	-69.8
361.611	184.15
361.823	118.61
362.034	83.8
362.245	-45.23
362.456	48.98
362.667	46.93
362.879	-61.61
363.09	153.43
363.301	124.76
363.512	67.41
363.723	40.79
363.935	36.69
364.146	118.61
364.357	104.28
364.568	20.31
364.779	-8.36
364.99	196.43
365.201	73.56
365.412	171.86
365.623	-86.19
365.834	77.65
366.045	65.36
366.256	94.04
366.467	12.12
366.678	26.45
366.889	89.94
367.1	-28.84
367.311	206.67
367.522	-34.99
367.733	44.88
367.944	110.42
368.155	32.6
368.366	81.75
368.577	161.62
368.788	130.9
368.999	-18.6
369.209	75.6
369.42	208.72
369.631	274.26
369.842	108.37
370.053	38.74
370.264	122.71
370.474	-41.13
370.685	65.36
370.896	42.84
371.107	106.32
371.317	79.7
371.528	26.45
371.739	100.18
371.95	122.71
372.16	180.05
372.371	-26.79
372.582	34.64
372.792	36.69
373.003	210.77
373.214	102.23
373.424	108.37
373.635	10.07
373.846	120.66
374.056	104.28
374.267	79.7
374.477	75.6
374.688	57.17
374.898	100.18
375.109	-30.89
375.319	32.6
375.53	114.52
375.74	75.6
375.951	75.6
376.161	53.08
376.372	155.47
376.582	-12.46
376.793	120.66
377.003	-67.75
377.214	53.08
377.424	124.76
377.635	8.02
377.845	91.99
378.055	42.84
378.266	30.55
378.476	75.6
378.686	28.5
378.897	67.41
379.107	139.09
379.317	149.33
379.528	5.97
379.738	18.26
379.948	22.36
380.158	106.32
380.369	63.32
380.579	83.8
380.789	114.52
380.999	28.5
381.21	126.8
381.42	198.48
381.63	38.74
381.84	175.95
382.05	65.36
382.261	87.89
382.471	126.8
382.681	12.12
382.891	175.95
383.101	91.99
383.311	-18.6
383.521	-12.46
383.731	96.08
383.941	75.6
384.151	48.98
384.361	34.64
384.571	22.36
384.781	55.12
384.991	235.35
385.201	227.15
385.411	139.09
385.621	96.08
385.831	96.08
386.041	65.36
386.251	-6.31
386.461	79.7
386.671	28.5
386.881	63.32
387.091	77.65
387.301	118.61
387.511	57.17
387.72	79.7
387.93	28.5
388.14	-34.99
388.35	53.08
388.56	118.61
388.769	73.56
388.979	34.64
389.189	26.45
389.399	42.84
389.609	151.38
389.818	83.8
390.028	139.09
390.238	53.08
390.447	65.36
390.657	147.28
390.867	75.6
391.076	-30.89
391.286	141.14
391.496	53.08
391.705	141.14
391.915	32.6
392.125	130.9
392.334	28.5
392.544	137.04
392.753	46.93
392.963	32.6
393.172	69.46
393.382	24.4
393.591	175.95
393.801	-20.65
394.01	132.95
394.22	14.17
394.429	16.21
394.639	14.17
394.848	28.5
395.058	12.12
395.267	36.69
395.477	184.15
395.686	69.46
395.895	192.34
396.105	206.67
396.314	106.32
396.524	8.02
396.733	36.69
396.942	128.85
397.152	153.43
397.361	151.38
397.57	71.51
397.78	79.7
397.989	130.9
398.198	184.15
398.407	57.17
398.617	38.74
398.826	85.84
399.035	20.31
399.244	137.04
399.453	83.8
399.663	53.08
399.872	83.8
400.081	-32.94
400.29	94.04
400.499	-26.79
400.708	206.67
400.917	149.33
401.127	16.21
401.336	-0.17
401.545	135
401.754	141.14
401.963	233.3
402.172	26.45
402.381	-16.55
402.59	28.5
402.799	51.03
403.008	110.42
403.217	81.75
403.426	46.93
403.635	34.64
403.844	28.5
404.053	30.55
404.262	40.79
404.471	171.86
404.68	81.75
404.888	132.95
405.097	10.07
405.306	73.56
405.515	91.99
405.724	89.94
405.933	128.85
406.142	40.79
406.35	202.58
406.559	79.7
406.768	75.6
406.977	233.3
407.185	85.84
407.394	34.64
407.603	-18.6
407.812	81.75
408.02	137.04
408.229	34.64
408.438	108.37
408.646	16.21
408.855	81.75
409.064	85.84
409.272	48.98
409.481	98.13
409.69	-2.22
409.898	32.6
410.107	32.6
410.315	116.56
410.524	-30.89
410.733	110.42
410.941	8.02
411.15	116.56
411.358	139.09
411.567	188.24
411.775	79.7
411.984	24.4
412.192	147.28
412.401	18.26
412.609	126.8
412.818	180.05
413.026	106.32
413.234	59.22
413.443	48.98
413.651	42.84
413.86	32.6
414.068	141.14
414.276	182.1
414.485	16.21
414.693	204.63
414.901	235.35
415.11	120.66
415.318	69.46
415.526	36.69
415.734	89.94
415.943	104.28
416.151	132.95
416.359	28.5
416.567	67.41
416.776	128.85
416.984	114.52
417.192	178
417.4	-18.6
417.608	-0.17
417.817	-20.65
418.025	118.61
418.233	169.81
418.441	-10.41
418.649	1.88
418.857	98.13
419.065	126.8
419.273	-6.31
419.481	81.75
419.689	102.23
419.897	-10.41
420.105	-47.27
420.313	159.57
420.521	231.25
420.729	196.43
420.937	77.65
421.145	18.26
421.353	59.22
421.561	194.39
421.769	87.89
421.977	-10.41
422.185	145.24
422.393	67.41
422.601	98.13
422.809	130.9
423.017	38.74
423.224	141.14
423.432	163.67
423.64	55.12
423.848	200.53
424.056	63.32
424.263	130.9
424.471	46.93
424.679	132.95
424.887	-22.7
425.094	120.66
425.302	57.17
425.51	32.6
425.718	34.64
425.925	69.46
426.133	114.52
426.341	173.91
426.548	79.7
426.756	188.24
426.964	94.04
427.171	67.41
427.379	114.52
427.586	124.76
427.794	141.14
428.001	149.33
428.209	159.57
428.417	192.34
428.624	171.86
428.832	202.58
429.039	128.85
429.247	178
429.454	139.09
429.662	313.17
429.869	169.81
430.076	112.47
430.284	153.43
430.491	155.47
430.699	192.34
430.906	264.02
431.114	186.19
431.321	190.29
431.528	163.67
431.736	157.52
431.943	218.96
432.15	149.33
432.358	155.47
432.565	247.63
432.772	3.93
432.979	274.26
433.187	153.43
433.394	221.01
433.601	132.95
433.808	325.46
434.016	243.54
434.223	329.55
434.43	204.63
434.637	319.31
434.844	292.69
435.052	286.54
435.259	298.83
435.466	286.54
435.673	229.2
435.88	366.42
436.087	388.94
436.294	405.33
436.501	399.18
436.708	356.18
436.915	405.33
437.122	399.18
437.329	366.42
437.537	421.71
437.743	419.66
437.95	548.68
438.157	505.68
438.364	386.9
438.571	481.1
438.778	474.96
438.985	569.16
439.192	509.77
439.399	517.97
439.606	509.77
439.813	585.55
440.02	675.66
440.227	735.05
440.433	673.61
440.64	575.31
440.847	563.02
441.054	692.04
441.261	773.96
441.467	685.9
441.674	661.32
441.881	773.96
442.088	726.86
442.294	857.93
442.501	839.5
442.708	939.85
442.914	888.65
443.121	1015.62
443.328	964.42
443.534	1120.07
443.741	1062.73
443.948	1056.58
444.154	1115.97
444.361	1216.32
444.568	1120.07
444.774	1244.99
444.981	1163.08
445.187	1410.88
445.394	1351.49
445.6	1314.63
445.807	1587.01
446.013	1521.47
446.22	1468.22
446.426	1664.83
446.633	1744.7
446.839	1888.06
447.046	1724.22
447.252	1820.47
447.459	1822.52
447.665	2021.17
447.871	2203.44
448.078	2221.88
448.284	2213.68
448.491	2277.17
448.697	2455.34
448.903	2531.12
449.11	2572.08
449.316	2590.51
449.522	2789.16
449.728	2862.89
449.935	3036.97
450.141	3096.36
450.347	3190.56
450.553	3112.74
450.76	3176.23
450.966	3577.63
451.172	3454.75
451.378	3632.93
451.584	3669.79
451.791	3966.74
451.997	4165.4
452.203	4034.33
452.409	4437.78
452.615	4511.5
452.821	4456.21
453.027	4628.24
453.233	5078.79
453.44	4978.44
453.646	5099.27
453.852	5314.31
454.058	5740.29
454.264	5854.97
454.47	6174.46
454.676	6268.66
454.882	6960.88
455.088	6416.12
455.294	6803.18
455.5	7268.07
455.705	7624.42
455.911	7603.94
456.117	7833.31
456.323	8408.79
456.529	8263.38
456.735	8906.45
456.941	9115.34
457.147	9524.93
457.352	9791.17
457.558	9965.25
457.764	10583.73
457.97	10978.99
458.176	11134.64
458.381	11810.47
458.587	12005.02
458.793	12625.56
458.999	12711.57
459.204	14386.81
459.41	14814.84
459.616	14333.56
459.821	15416.94
460.027	16152.16
460.233	16850.52
460.438	16989.78
460.644	17712.71
460.85	18226.75
461.055	18738.74
461.261	19746.34
461.466	19121.71
461.672	19682.86
461.878	21816.84
462.083	21730.83
462.289	22130.18
462.494	22941.18
462.7	23004.66
462.905	23418.35
463.111	25517.52
463.316	26832.32
463.522	27057.59
463.727	28030.38
463.932	29423
464.138	29904.27
464.343	31210.87
464.549	31397.24
464.754	33391.96
464.959	34301.26
465.165	34979.14
465.37	34501.96
465.575	34749.76
465.781	36939.04
465.986	38044.94
466.191	37569.82
466.397	38083.86
466.602	36867.36
466.807	39120.13
467.012	40099.06
467.218	40637.67
467.423	40846.57
467.628	41694.43
467.833	44344.5
468.038	43271.36
468.244	42132.69
468.449	44704.94
468.654	43355.33
468.859	43521.21
469.064	43910.33
469.269	42337.49
469.474	42906.82
469.679	44086.45
469.885	42794.18
470.09	43668.67
470.295	43803.83
470.5	42427.6
470.705	43173.06
470.91	41788.63
471.115	41618.65
471.32	42317.01
471.525	42009.81
471.73	40932.58
471.935	40664.3
472.139	38833.41
472.344	39224.57
472.549	38853.89
472.754	38270.22
472.959	37197.09
473.164	36058.42
473.369	35394.87
473.574	36255.02
473.778	35489.08
473.983	35460.41
474.188	34567.49
474.393	32691.55
474.598	32937.31
474.802	32048.49
475.007	31800.69
475.212	31415.67
475.417	30188.94
475.621	29695.38
475.826	29660.56
476.031	28927.39
476.235	28202.41
476.44	28558.75
476.645	27590.06
476.849	27073.98
477.054	26914.23
477.259	26205.64
477.463	25978.31
477.668	25572.82
477.872	25574.86
478.077	24737.24
478.282	23959.02
478.486	24006.12
478.691	23838.19
478.895	23711.21
479.1	23481.84
479.304	23326.19
479.509	22396.42
479.713	22605.31
479.918	22132.23
480.122	21556.75
480.326	21636.62
480.531	21663.24
480.735	21394.96
480.94	20860.44
481.144	22068.74
481.348	20712.99
481.553	20872.73
481.757	20276.77
481.961	20676.12
482.166	20538.91
482.37	20370.97
482.574	19605.03
482.778	20028.96
482.983	20031.01
483.187	19699.24
483.391	19680.81
483.595	19441.2
483.8	18937.4
484.004	19031.6
484.208	18968.12
484.412	18714.17
484.616	18544.19
484.821	18490.94
485.025	17835.59
485.229	17931.84
485.433	17450.57
485.637	17360.46
485.841	17188.43
486.045	16965.2
486.249	17057.36
486.453	16754.26
486.657	16365.15
486.861	16158.3
487.065	15468.14
487.269	15754.85
487.473	15152.75
487.677	15216.24
487.881	15181.42
488.085	14679.67
488.289	14700.15
488.493	14210.68
488.697	14038.66
488.901	13995.65
489.105	13655.68
489.309	13319.82
489.512	13366.92
489.716	12670.61
489.92	12871.31
490.124	12590.74
490.328	12318.36
490.531	12045.98
490.735	11914.91
490.939	11726.5
491.143	11304.62
491.346	11384.49
491.55	11151.02
491.754	10819.25
491.958	10796.72
492.161	10677.94
492.365	10383.03
492.569	10481.33
492.772	10081.98
492.976	10016.44
493.18	9901.76
493.383	9895.61
493.587	9649.86
493.79	9553.6
493.994	9416.39
494.197	9363.14
494.401	9365.19
494.605	9109.19
494.808	9047.76
495.012	8945.36
495.215	9242.31
495.419	9017.04
495.622	8984.27
495.825	8816.33
496.029	8888.01
496.232	8896.21
496.436	8523.48
496.639	9072.33
496.843	8660.69
497.046	8720.08
497.249	8957.64
497.453	8599.25
497.656	8611.54
497.859	8656.59
498.063	8754.9
498.266	8840.91
498.469	8750.8
498.673	8898.25
498.876	9043.66
499.079	8888.01
499.282	8797.9
499.485	9215.69
499.689	9090.76
499.892	9223.88
500.095	9039.56
500.298	9230.02
500.501	9074.38
500.705	9397.96
500.908	9199.3
501.111	9680.58
501.314	9672.39
501.517	9873.09
501.72	9811.65
501.923	9799.36
502.126	9973.44
502.329	10221.24
502.532	10239.67
502.735	10436.28
502.938	10614.45
503.141	10614.45
503.344	10868.4
503.547	10905.26
503.75	10970.8
503.953	10995.37
504.156	11370.15
504.359	11568.8
504.562	11620
504.765	11769.51
504.968	12191.39
505.17	12334.75
505.373	12271.26
505.576	12662.42
505.779	12748.43
505.982	12891.79
506.185	13264.52
506.387	13233.8
506.59	13631.11
506.793	14116.48
506.996	13938.3
507.198	14339.71
507.401	14890.61
507.604	14896.75
507.807	15246.96
508.009	15515.24
508.212	15865.44
508.415	16084.58
508.617	16488.03
508.82	16717.4
509.022	16907.86
509.225	17534.54
509.428	17757.77
509.63	18261.57
509.833	18228.8
510.035	18992.69
510.238	19433
510.44	19471.92
510.643	20250.14
510.845	20469.28
511.048	20780.57
511.25	21384.72
511.453	21650.95
511.655	23019
511.858	23096.82
512.06	23191.03
512.262	23862.76
512.465	24006.12
512.667	24765.92
512.87	25427.41
513.072	25732.56
513.274	26482.11
513.477	27045.3
513.679	27772.33
513.881	28245.41
514.084	29148.57
514.286	29164.95
514.488	30006.67
514.69	30979.45
514.893	31470.97
515.095	31642.99
515.297	32355.69
515.499	33088.86
515.701	33918.29
515.904	34374.98
516.106	35564.85
516.308	35841.33
516.51	36476.2
516.712	36924.71
516.914	37930.26
517.116	38601.99
517.318	38905.09
517.52	39980.28
517.722	40230.13
517.925	40998.12
518.127	42298.58
518.329	42874.06
518.531	42853.58
518.733	43840.7
518.935	44463.28
519.136	45147.3
519.338	46247.06
519.54	46478.48
519.742	47457.41
519.944	47754.36
520.146	48469.11
520.348	48989.29
520.55	49679.46
520.752	50181.21
520.954	51051.59
521.155	50941
521.357	52102.2
521.559	52489.27
521.761	52872.24
521.963	53337.13
522.164	53462.05
522.366	54326.3
522.568	54551.57
522.77	54764.56
522.971	55989.25
523.173	55272.46
523.375	56009.73
523.576	55694.34
523.778	55913.47
523.98	56577.01
524.181	56804.34
524.383	56443.9
524.584	57574.37
524.786	57631.72
524.988	56677.36
525.189	57953.25
525.391	57627.62
525.592	57385.96
525.794	57291.76
525.995	57099.25
526.197	57447.4
526.398	56806.39
526.6	57287.66
526.801	57263.08
527.003	57031.66
527.204	56818.67
527.406	56775.67
527.607	55696.39
527.808	56108.03
528.01	55489.54
528.211	54862.86
528.412	55776.26
528.614	54922.26
528.815	54576.15
529.016	54588.44
529.218	53474.34
529.419	53333.03
529.62	52915.25
529.822	52460.6
530.023	51737.66
530.224	51393.61
530.425	51029.07
530.626	49886.3
530.828	49153.13
531.029	49833.05
531.23	48385.14
531.431	48350.32
531.632	47998.07
531.833	47105.16
532.035	46840.97
532.236	46240.92
532.437	45868.19
532.638	44825.77
532.839	44958.89
533.04	44047.54
533.241	43267.27
533.442	43553.98
533.643	42499.28
533.844	41698.52
534.045	41520.35
534.246	40649.96
534.447	40508.65
534.648	39544.06
534.849	39220.48
535.05	38085.9
535.251	37881.11
535.451	37430.55
535.652	37029.15
535.853	36586.79
536.054	36169.01
536.255	35622.2
536.456	35175.74
536.657	34972.99
536.857	33879.38
537.058	33477.97
537.259	33711.44
537.46	32900.45
537.66	32552.29
537.861	31923.57
538.062	31585.65
538.263	31268.22
538.463	30598.53
538.664	30279.05
538.865	29877.65
539.065	30029.2
539.266	29437.33
539.466	29285.78
539.667	28403.11
539.868	28540.32
540.068	27905.45
540.269	27571.63
540.469	27399.6
540.67	26856.89
540.87	26846.65
541.071	26244.55
541.271	26056.14
541.472	25642.45
541.672	25470.42
541.873	24919.51
542.073	24665.56
542.274	24819.16
542.474	24104.42
542.675	23946.73
542.875	24018.41
543.075	23404.02
543.276	23117.3
543.476	22992.37
543.676	22789.63
543.877	22570.49
544.077	22195.71
544.277	21890.57
544.478	21743.11
544.678	21368.34
544.878	21100.05
545.078	21036.56
545.279	20743.7
545.479	20442.65
545.679	20340.25
545.879	19994.15
546.079	19879.46
546.28	19633.71
546.48	19064.37
546.68	19500.59
546.88	18976.31
547.08	18519.61
547.28	18511.42
547.48	17995.33
547.68	18083.39
547.88	17751.62
548.081	17894.98
548.281	17206.86
548.481	17098.32
548.681	17331.79
548.881	16625.24
549.081	16520.79
549.28	16363.1
549.48	16223.84
549.68	15744.61
549.88	15881.83
550.08	15255.15
550.28	15296.11
550.48	15165.04
550.68	14771.83
550.88	14456.44
551.08	14378.62
551.279	14323.32
551.479	13964.93
551.679	13870.72
551.879	13551.24
552.079	13317.77
552.278	13266.57
552.478	13094.54
552.678	12785.3
552.878	12439.19
553.077	12474.01
553.277	12017.31
553.477	12041.89
553.676	11876
553.876	11861.66
554.076	11427.49
554.275	11544.23
554.475	11022
554.674	11134.64
554.874	10890.93
555.074	10520.24
555.273	10428.09
555.473	10512.05
555.672	10114.75
555.872	10079.93
556.071	10004.16
556.271	9881.28
556.47	9567.94
556.67	9213.64
556.869	9400.01
557.068	9305.8
557.268	8752.85
557.467	8783.57
557.667	8709.84
557.866	8689.36
558.065	8439.51
558.265	8247
558.464	7982.81
558.663	8152.79
558.863	7829.21
559.062	7902.94
559.261	7659.23
559.461	7542.5
559.66	7374.56
559.859	7194.34
560.058	6962.92
560.258	7034.6
560.457	6948.59
560.656	7077.61
560.855	6493.94
561.054	6840.04
561.253	6526.71
561.453	6516.47
561.652	6518.51
561.851	6442.74
562.05	6033.15
562.249	6010.62
562.448	6106.87
562.647	5834.49
562.846	5740.29
563.045	5738.24
563.244	5601.02
563.443	5537.54
563.642	5496.58
563.841	5652.22
564.04	5338.88
564.239	5179.14
564.438	5236.49
564.637	4919.05
564.836	5037.83
565.035	4906.76
565.234	4849.42
565.432	4763.4
565.631	4738.83
565.83	4833.04
566.029	4411.15
566.228	4488.98
566.427	4601.62
566.625	4388.63
566.824	4470.55
567.023	4290.32
567.222	4228.88
567.42	4243.22
567.619	4163.35
567.818	4185.88
568.016	4280.08
568.215	4022.04
568.414	3970.84
568.612	3929.88
568.811	3784.48
569.01	3868.44
569.208	3653.41
569.407	3720.99
569.605	3663.65
569.804	3471.14
570.002	3530.53
570.201	3389.22
570.4	3503.9
570.598	3278.63
570.797	3260.2
570.995	3309.35
571.193	3135.27
571.392	3264.29
571.59	3053.35
571.789	3086.12
571.987	3053.35
572.186	3049.25
572.384	3047.21
572.582	2862.89
572.781	2922.28
572.979	2737.96
573.177	2750.25
573.376	2715.44
573.574	2672.43
573.772	2549.55
573.971	2570.03
574.169	2445.1
574.367	2557.74
574.565	2520.88
574.763	2410.29
574.962	2379.57
575.16	2185.01
575.358	2334.51
575.556	2254.64
575.754	2305.84
575.952	2240.31
576.151	2203.44
576.349	2266.93
576.547	1998.65
576.745	2135.86
576.943	2115.38
577.141	2076.47
577.339	2090.81
577.537	2066.23
577.735	1937.21
577.933	1963.83
578.131	1875.77
578.329	1929.02
578.527	1814.33
578.725	1900.34
578.923	1736.51
579.121	1838.91
579.319	1666.88
579.516	1720.12
579.714	1949.5
579.912	1656.64
580.11	1513.28
580.308	1457.98
580.506	1582.91
580.704	1568.57
580.901	1462.08
581.099	1554.24
581.297	1562.43
581.495	1509.18
581.692	1500.99
581.89	1488.7
582.088	1421.12
582.285	1380.16
582.483	1281.86
582.681	1445.7
582.878	1263.43
583.076	1328.96
583.274	1292.1
583.471	1453.89
583.669	1230.66
583.866	1177.41
584.064	1122.12
584.262	1136.45
584.459	1216.32
584.657	1169.22
584.854	1279.81
585.052	1152.84
585.249	1126.21
585.447	1197.89
585.644	995.14
585.841	1226.56
586.039	1077.06
586.236	1068.87
586.434	1046.34
586.631	841.54
586.828	849.74
587.026	1017.67
587.223	966.47
587.42	894.79
587.618	945.99
587.815	1052.49
588.012	954.18
588.21	859.98
588.407	997.19
588.604	993.09
588.801	909.13
588.999	913.22
589.196	1056.58
589.393	819.02
589.59	919.37
589.787	1005.38
589.984	929.61
590.182	827.21
590.379	804.68
590.576	812.87
590.773	841.54
590.97	702.28
591.167	808.78
591.364	810.82
591.561	751.43
591.758	933.7
591.955	814.92
592.152	835.4
592.349	792.39
592.546	745.29
592.743	784.2
592.94	728.91
593.137	827.21
593.334	862.02
593.531	816.97
593.727	763.72
593.924	788.3
594.121	767.82
594.318	812.87
594.515	868.17
594.712	935.75
594.908	956.23
595.105	776.01
595.302	847.69
595.499	835.4
595.696	980.81
595.892	835.4
596.089	1017.67
596.286	827.21
596.482	980.81
596.679	911.18
596.876	935.75
597.072	1032.01
597.269	1023.81
597.466	1083.2
597.662	1013.57
597.859	1046.34
598.055	1101.64
598.252	1193.8
598.448	1271.62
598.645	1279.81
598.841	1312.58
599.038	1382.21
599.234	1378.11
599.431	1410.88
599.627	1548.09
599.824	1535.81
600.02	1605.44
600.217	1568.57
600.413	1681.21
600.609	1851.19
600.806	2031.41
601.002	2012.98
601.198	1900.34
601.395	1955.64
601.591	2135.86
601.787	2221.88
601.984	2260.79
602.18	2273.07
602.376	2385.71
602.572	2541.36
602.769	2789.16
602.965	2617.13
603.161	2895.66
603.357	3012.39
603.553	3030.82
603.75	2895.66
603.946	3186.47
604.142	3342.11
604.338	3442.46
604.534	3462.94
604.73	3645.21
604.926	3739.42
605.122	3755.8
605.318	3985.18
605.514	4118.29
605.71	4366.1
605.906	4366.1
606.102	4425.49
606.298	4761.36
606.494	4781.84
606.69	5025.54
606.886	5066.5
607.082	5179.14
607.278	5234.44
607.474	5662.46
607.67	5678.85
607.866	5582.59
608.062	5959.42
608.257	6166.26
608.453	6221.56
608.649	6375.16
608.845	6661.87
609.041	6596.34
609.236	6981.35
609.432	7122.66
609.628	7470.82
609.824	7515.87
610.019	7618.27
610.215	7958.24
610.411	8341.21
610.606	8416.98
610.802	8683.22
610.998	8900.3
611.193	9158.35
611.389	9174.73
611.584	9637.57
611.78	9590.47
611.976	10006.2
612.171	10489.53
612.367	10548.92
612.562	10634.93
612.758	11067.05
612.953	11445.93
613.149	11722.4
613.344	11841.18
613.539	12355.22
613.735	12730
613.93	13051.53
614.126	13188.75
614.321	13909.63
614.517	13878.91
614.712	14458.49
614.907	14718.58
615.103	15302.25
615.298	15435.37
615.493	16199.26
615.688	16146.01
615.884	17045.07
616.079	17069.65
616.274	17618.5
616.47	17993.28
616.665	18564.67
616.86	19064.37
617.055	19547.69
617.25	19824.17
617.445	20346.4
617.641	20561.44
617.836	21480.97
618.031	21370.38
618.226	22502.91
618.421	22994.42
618.616	23694.83
618.811	23881.19
619.006	24767.96
619.201	25003.48
619.396	25599.44
619.591	25732.56
619.786	26797.5
619.981	27010.49
620.176	27944.36
620.371	28439.97
620.566	28851.61
620.761	29705.62
620.956	30825.85
621.151	30883.2
621.346	31647.09
621.541	31452.53
621.735	33248.6
621.93	32605.54
622.125	33615.19
622.32	33789.27
622.515	34839.87
622.709	35738.93
622.904	36470.06
623.099	36629.8
623.294	37739.8
623.488	37848.34
623.683	38735.11
623.878	38782.21
624.072	40099.06
624.267	40576.23
624.462	40985.83
624.656	41526.49
624.851	42622.15
625.046	42837.19
625.24	43541.69
625.435	44029.11
625.629	44739.75
625.824	44946.6
626.018	46058.65
626.213	45898.9
626.407	46589.07
626.602	46691.47
626.796	48026.74
626.991	48268.4
627.185	48217.21
627.38	48680.05
627.574	49398.88
627.768	49323.11
627.963	49501.28
628.157	49615.97
628.352	50162.78
628.546	49575.01
628.74	50582.61
628.935	50146.39
629.129	50035.8
629.323	48839.79
629.517	49462.37
629.712	49046.63
629.906	49325.16
630.1	48252.02
630.294	48374.9
630.489	47512.7
630.683	47393.92
630.877	46460.05
631.071	45823.13
631.265	45345.95
631.459	44090.55
631.653	43455.68
631.848	42994.89
632.042	41430.24
632.236	41004.26
632.43	39595.26
632.624	38839.56
632.818	37127.45
633.012	36121.9
633.206	35079.49
633.4	34383.18
633.594	32894.3
633.788	32091.5
633.982	31231.35
634.176	30053.77
634.369	28675.49
634.563	27786.67
634.757	26623.42
634.951	25867.72
635.145	24774.11
635.339	23514.61
635.533	22906.36
635.726	22367.74
635.92	21143.06
636.114	20203.04
636.308	19330.61
636.501	18529.85
636.695	17976.9
636.889	17065.55
637.083	16778.84
637.276	15488.62
637.47	15066.74
637.664	14386.81
637.857	14040.7
638.051	13430.41
638.244	12789.39
638.438	12242.59
638.632	11921.06
638.825	11329.19
639.019	11087.53
639.212	10362.55
639.406	10153.66
639.599	9852.61
639.793	9387.72
639.986	9137.87
640.18	8697.55
640.373	8345.3
640.567	7839.45
640.76	7685.86
640.954	7384.8
641.147	6991.59
641.34	6700.78
641.534	6543.09
641.727	6522.61
641.92	6139.64
642.114	5928.7
642.307	5734.14
642.5	5582.59
642.694	5074.7
642.887	5041.93
643.08	4951.82
643.273	4828.94
643.467	4491.02
643.66	4278.04
643.853	4048.66
644.046	3940.12
644.239	3886.87
644.432	3477.28
644.626	3485.47
644.819	3313.44
645.012	3301.15
645.205	3233.57
645.398	3172.13
645.591	2973.48
645.784	2883.37
645.977	2697
646.17	2572.08
646.363	2469.68
646.556	2430.77
646.749	2207.54
646.942	2297.65
647.135	2273.07
647.328	2043.7
647.521	2105.14
647.714	1926.97
647.907	1898.3
648.099	1773.37
648.292	1888.06
648.485	1685.31
648.678	1564.48
648.871	1480.51
649.064	1597.24
649.256	1328.96
649.449	1288
649.642	1228.61
649.835	1201.99
650.027	1161.03
650.22	1306.43
650.413	1101.64
650.605	1058.63
650.798	1058.63
650.991	1079.11
651.183	1027.91
651.376	1032.01
651.568	980.81
651.761	923.46
651.954	896.84
652.146	857.93
652.339	931.66
652.531	864.07
652.724	757.58
652.916	671.56
653.109	636.75
653.301	759.63
653.494	675.66
653.686	712.52
653.879	712.52
654.071	710.47
654.263	569.16
654.456	571.21
654.648	685.9
654.84	610.12
655.033	550.73
655.225	620.36
655.417	495.44
655.61	653.13
655.802	622.41
655.994	571.21
656.186	440.14
656.379	585.55
656.571	401.23
656.763	382.8
656.955	448.33
657.148	411.47
657.34	434
657.532	429.9
657.724	446.29
657.916	405.33
658.108	520.01
658.3	401.23
658.492	448.33
658.684	321.36
658.876	511.82
659.068	278.35
659.26	235.35
659.452	321.36
659.644	401.23
659.836	444.24
660.028	245.59
660.22	343.89
660.412	300.88
660.604	276.31
660.796	284.5
660.988	368.46
661.18	247.63
661.372	294.74
661.563	208.72
661.755	216.91
661.947	268.11
662.139	208.72
662.331	274.26
662.522	192.34
662.714	233.3
662.906	169.81
663.097	317.26
663.289	208.72
663.481	114.52
663.673	259.92
663.864	184.15
664.056	341.84
664.247	167.76
664.439	302.93
664.631	290.64
664.822	280.4
665.014	128.85
665.205	165.71
665.397	200.53
665.588	233.3
665.78	167.76
665.971	274.26
666.163	173.91
666.354	169.81
666.546	202.58
666.737	161.62
666.929	204.63
667.12	190.29
667.311	239.44
667.503	182.1
667.694	198.48
667.885	210.77
668.077	231.25
668.268	137.04
668.459	200.53
668.651	196.43
668.842	321.36
669.033	130.9
669.224	110.42
669.416	380.75
669.607	128.85
669.798	100.18
669.989	309.07
670.18	167.76
670.371	221.01
670.563	51.03
670.754	214.87
670.945	214.87
671.136	221.01
671.327	147.28
671.518	288.59
671.709	329.55
671.9	192.34
672.091	298.83
672.282	221.01
672.473	257.87
672.664	130.9
672.855	247.63
673.046	229.2
673.237	251.73
673.428	204.63
673.619	264.02
673.809	147.28
674	255.83
674.191	255.83
674.382	216.91
674.573	180.05
674.764	235.35
674.954	272.21
675.145	81.75
675.336	79.7
675.527	198.48
675.717	194.39
675.908	151.38
676.099	198.48
676.289	161.62
676.48	122.71
676.671	175.95
676.861	190.29
677.052	202.58
677.243	163.67
677.433	200.53
677.624	233.3
677.814	237.39
678.005	165.71
678.195	376.66
678.386	147.28
678.576	241.49
678.767	237.39
678.957	165.71
679.148	253.78
679.338	403.28
679.529	302.93
679.719	272.21
679.909	280.4
680.1	315.22
680.29	225.11
680.481	196.43
680.671	386.9
680.861	270.16
681.052	343.89
681.242	178
681.432	313.17
681.622	347.98
681.813	180.05
682.003	300.88
682.193	210.77
682.383	270.16
682.573	315.22
682.764	311.12
682.954	341.84
683.144	384.85
683.334	206.67
683.524	192.34
683.714	296.78
683.904	345.94
684.094	335.7
684.284	325.46
684.474	415.57
684.664	253.78
684.854	237.39
685.044	274.26
685.234	360.27
685.424	296.78
685.614	286.54
685.804	446.29
685.994	300.88
686.184	376.66
686.374	407.38
686.564	341.84
686.753	347.98
686.943	239.44
687.133	259.92
687.323	227.15
687.513	321.36
687.702	294.74
687.892	296.78
688.082	401.23
688.272	333.65
688.461	352.08
688.651	307.02
688.841	345.94
689.03	245.59
689.22	259.92
689.41	337.74
689.599	374.61
689.789	241.49
689.979	397.14
690.168	214.87
690.358	395.09
690.547	286.54
690.737	276.31
690.926	366.42
691.116	409.42
691.305	323.41
691.495	390.99
691.684	247.63
691.874	169.81
692.063	212.82
692.252	251.73
692.442	292.69
692.631	192.34
692.82	206.67
693.01	264.02
693.199	270.16
693.388	257.87
693.578	212.82
693.767	356.18
693.956	292.69
694.146	225.11
694.335	319.31
694.524	280.4
694.713	354.13
694.902	241.49
695.092	184.15
695.281	225.11
695.47	239.44
695.659	241.49
695.848	241.49
696.037	175.95
696.226	311.12
696.415	257.87
696.604	298.83
696.793	309.07
696.982	257.87
697.171	331.6
697.36	210.77
697.549	300.88
697.738	89.94
697.927	200.53
698.116	190.29
698.305	298.83
698.494	259.92
698.683	198.48
698.872	380.75
699.061	202.58
699.25	194.39
699.438	360.27
699.627	178
699.816	370.51
700.005	143.19
700.193	137.04
700.382	245.59
700.571	282.45
700.76	243.54
700.948	325.46
701.137	249.68
701.326	182.1
701.514	128.85
701.703	192.34
701.892	266.07
702.08	397.14
702.269	218.96
702.457	221.01
702.646	290.64
702.834	214.87
703.023	319.31
703.212	173.91
703.4	276.31
703.589	145.24
703.777	106.32
703.965	94.04
704.154	204.63
704.342	151.38
704.531	212.82
704.719	198.48
704.907	270.16
705.096	137.04
705.284	214.87
705.472	218.96
705.661	198.48
705.849	253.78
706.037	272.21
706.226	255.83
706.414	210.77
706.602	178
706.79	276.31
706.979	200.53
707.167	206.67
707.355	178
707.543	280.4
707.731	247.63
707.919	169.81
708.107	210.77
708.296	171.86
708.484	186.19
708.672	237.39
708.86	231.25
709.048	241.49
709.236	184.15
709.424	272.21
709.612	239.44
709.8	159.57
709.988	175.95
710.176	294.74
710.364	354.13
710.551	196.43
710.739	247.63
710.927	221.01
711.115	208.72
711.303	284.5
711.491	290.64
711.679	130.9
711.866	282.45
712.054	309.07
712.242	188.24
712.43	360.27
712.617	208.72
712.805	329.55
712.993	200.53
713.181	165.71
713.368	245.59
713.556	298.83
713.744	173.91
713.931	315.22
714.119	290.64
714.306	186.19
714.494	210.77
714.682	167.76
714.869	200.53
715.057	274.26
715.244	192.34
715.432	298.83
715.619	208.72
715.807	227.15
715.994	137.04
716.182	194.39
716.369	390.99
716.556	268.11
716.744	130.9
716.931	225.11
717.119	223.06
717.306	198.48
717.493	233.3
717.681	186.19
717.868	225.11
718.055	251.73
718.242	284.5
718.43	304.98
718.617	280.4
718.804	221.01
718.991	292.69
719.179	347.98
719.366	284.5
719.553	278.35
719.74	178
719.927	253.78
720.114	313.17
720.301	210.77
720.488	290.64
720.676	233.3
720.863	341.84
721.05	405.33
721.237	350.03
721.424	307.02
721.611	327.5
721.798	288.59
721.985	178
722.172	200.53
722.358	317.26
722.545	333.65
722.732	327.5
722.919	372.56
723.106	339.79
723.293	221.01
723.48	354.13
723.667	268.11
723.853	288.59
724.04	388.94
724.227	319.31
724.414	237.39
724.6	329.55
724.787	376.66
724.974	431.95
725.161	302.93
725.347	311.12
725.534	286.54
725.72	325.46
725.907	405.33
726.094	415.57
726.28	257.87
726.467	317.26
726.653	182.1
726.84	364.37
727.027	413.52
727.213	259.92
727.4	370.51
727.586	311.12
727.773	274.26
727.959	311.12
728.145	337.74
728.332	331.6
728.518	313.17
728.705	358.22
728.891	249.68
729.077	386.9
729.264	302.93
729.45	333.65
729.636	382.8
729.823	311.12
730.009	419.66
730.195	333.65
730.382	374.61
730.568	270.16
730.754	366.42
730.94	356.18
731.126	409.42
731.313	390.99
731.499	212.82
731.685	446.29
731.871	380.75
732.057	417.61
732.243	302.93
732.429	431.95
732.615	507.73
732.801	397.14
732.987	329.55
733.173	393.04
733.359	290.64
733.545	436.05
733.731	399.18
733.917	472.91
734.103	489.29
734.289	370.51
734.475	350.03
734.661	460.62
734.847	335.7
735.033	388.94
735.219	470.86
735.404	454.48
735.59	337.74
735.776	362.32
735.962	493.39
736.148	438.09
736.333	458.57
736.519	286.54
736.705	444.24
736.89	360.27
737.076	321.36
737.262	298.83
737.447	352.08
737.633	345.94
737.819	413.52
738.004	399.18
738.19	350.03
738.375	485.2
738.561	472.91
738.747	452.43
738.932	321.36
739.118	579.4
739.303	446.29
739.489	399.18
739.674	388.94
739.859	397.14
740.045	429.9
740.23	388.94
740.416	268.11
740.601	409.42
740.786	417.61
740.972	470.86
741.157	444.24
741.342	362.32
741.528	319.31
741.713	472.91
741.898	354.13
742.084	382.8
742.269	415.57
742.454	470.86
742.639	415.57
742.824	323.41
743.01	407.38
743.195	507.73
743.38	331.6
743.565	352.08
743.75	493.39
743.935	423.76
744.12	390.99
744.305	347.98
744.49	409.42
744.675	388.94
744.86	345.94
745.045	411.47
745.23	376.66
745.415	474.96
745.6	460.62
745.785	331.6
745.97	458.57
746.155	440.14
746.34	485.2
746.525	407.38
746.71	421.71
746.895	370.51
747.079	237.39
747.264	286.54
747.449	393.04
747.634	399.18
747.819	378.7
748.003	333.65
748.188	282.45
748.373	497.49
748.557	413.52
748.742	413.52
748.927	360.27
749.111	345.94
749.296	466.77
749.481	491.34
749.665	343.89
749.85	368.46
750.034	331.6
750.219	388.94
750.404	386.9
750.588	425.81
750.773	315.22
750.957	380.75
751.141	366.42
751.326	397.14
751.51	266.07
751.695	241.49
751.879	405.33
752.064	425.81
752.248	307.02
752.432	501.58
752.617	434
752.801	401.23
752.985	300.88
753.17	403.28
753.354	337.74
753.538	272.21
753.722	309.07
753.907	231.25
754.091	194.39
754.275	415.57
754.459	245.59
754.643	292.69
754.828	307.02
755.012	307.02
755.196	184.15
755.38	315.22
755.564	274.26
755.748	315.22
755.932	388.94
756.116	327.5
756.3	350.03
756.484	229.2
756.668	241.49
756.852	184.15
757.036	292.69
757.22	358.22
757.404	270.16
757.588	178
757.772	321.36
757.956	249.68
758.14	335.7
758.323	210.77
758.507	245.59
758.691	171.86
758.875	374.61
759.059	380.75
759.242	245.59
759.426	325.46
759.61	264.02
759.794	196.43
759.977	274.26
760.161	448.33
760.345	288.59
760.528	274.26
760.712	233.3
760.895	239.44
761.079	155.47
761.263	184.15
761.446	132.95
761.63	169.81
761.813	290.64
761.997	106.32
762.18	255.83
762.364	282.45
762.547	116.56
762.731	210.77
762.914	214.87
763.098	200.53
763.281	171.86
763.464	85.84
763.648	221.01
763.831	180.05
764.015	186.19
764.198	186.19
764.381	139.09
764.564	231.25
764.748	218.96
764.931	237.39
765.114	184.15
765.297	225.11
765.481	85.84
765.664	128.85
765.847	87.89
766.03	251.73
766.213	98.13
766.397	175.95
766.58	126.8
766.763	309.07
766.946	255.83
767.129	200.53
767.312	96.08
767.495	178
767.678	106.32
767.861	147.28
768.044	192.34
768.227	180.05
768.41	151.38
768.593	157.52
768.776	169.81
768.959	161.62
769.142	237.39
769.324	167.76
769.507	112.47
769.69	128.85
769.873	159.57
770.056	313.17
770.239	112.47
770.421	169.81
770.604	206.67
770.787	79.7
770.97	178
771.152	106.32
771.335	137.04
771.518	163.67
771.7	208.72
771.883	257.87
772.066	112.47
772.248	212.82
772.431	173.91
772.613	139.09
772.796	59.22
772.978	137.04
773.161	171.86
773.343	94.04
773.526	65.36
773.708	65.36
773.891	34.64
774.073	139.09
774.256	122.71
774.438	221.01
774.621	118.61
774.803	151.38
774.985	114.52
775.168	214.87
775.35	137.04
775.532	163.67
775.715	65.36
775.897	100.18
776.079	85.84
776.261	132.95
776.444	143.19
776.626	120.66
776.808	151.38
776.99	5.97
777.173	132.95
777.355	173.91
777.537	126.8
777.719	110.42
777.901	61.27
778.083	71.51
778.265	40.79
778.447	87.89
778.629	110.42
778.811	102.23
778.993	141.14
779.175	225.11
779.357	137.04
779.539	26.45
779.721	151.38
779.903	130.9
780.085	135
780.267	100.18
780.449	85.84
780.631	208.72
780.812	61.27
780.994	89.94
781.176	89.94
781.358	22.36
781.54	112.47
781.721	110.42
781.903	118.61
782.085	75.6
782.267	132.95
782.448	18.26
782.63	10.07
782.812	81.75
782.993	108.37
783.175	89.94
783.357	87.89
783.538	137.04
783.72	40.79
783.901	108.37
784.083	135
784.264	122.71
784.446	-30.89
784.627	-16.55
784.809	147.28
784.99	22.36
785.172	108.37
785.353	73.56
785.535	114.52
785.716	149.33
785.897	12.12
786.079	40.79
786.26	91.99
786.441	120.66
786.623	-106.67
786.804	-8.36
786.985	44.88
787.167	87.89
787.348	8.02
787.529	53.08
787.71	151.38
787.891	98.13
788.073	-32.94
788.254	-100.52
788.435	173.91
788.616	108.37
788.797	-12.46
788.978	16.21
789.159	63.32
789.34	83.8
789.522	51.03
789.703	1.88
789.884	73.56
790.065	110.42
790.246	210.77
790.427	46.93
790.607	196.43
790.788	173.91
790.969	46.93
791.15	-12.46
791.331	32.6
791.512	61.27
791.693	20.31
791.874	-10.41
792.054	274.26
792.235	161.62
792.416	-24.75
792.597	83.8
792.778	126.8
792.958	83.8
793.139	106.32
793.32	106.32
793.5	-22.7
793.681	57.17
793.862	63.32
794.042	8.02
794.223	-4.27
794.404	-12.46
794.584	-112.81
794.765	57.17
794.945	85.84
795.126	132.95
795.306	151.38
795.487	75.6
795.667	-37.03
795.848	169.81
796.028	91.99
796.209	-47.27
796.389	100.18
796.57	26.45
796.75	-43.18
796.93	167.76
797.111	-20.65
797.291	-4.27
797.471	178
797.652	22.36
797.832	-49.32
798.012	130.9
798.192	38.74
798.373	-0.17
798.553	71.51
798.733	38.74
798.913	-26.79
799.093	-47.27
799.274	130.9
799.454	40.79
799.634	81.75
799.814	94.04
799.994	161.62
800.174	120.66
800.354	57.17
800.534	-65.71
800.714	75.6
800.894	-8.36
801.074	-61.61
801.254	48.98
801.434	132.95
801.614	20.31
801.794	-14.51
801.974	1709.88
802.154	51.03
802.334	130.9
802.514	-69.8
802.693	73.56
802.873	32.6
803.053	126.8
803.233	81.75
803.413	-34.99
803.592	24.4
803.772	-37.03
803.952	12.12
804.131	-0.17
804.311	65.36
804.491	110.42
804.67	16.21
804.85	-45.23
805.03	81.75
805.209	51.03
805.389	5.97
805.568	44.88
805.748	71.51
805.928	24.4
806.107	106.32
806.287	102.23
806.466	85.84
806.646	28.5
806.825	55.12
807.004	40.79
807.184	-24.75
807.363	79.7
807.543	36.69
807.722	10.07
807.901	98.13
808.081	118.61
808.26	-164.01
808.439	16.21
808.619	22.36
808.798	-12.46
808.977	26.45
809.156	46.93
809.336	5.97
809.515	137.04
809.694	-63.66
809.873	14.17
810.052	98.13
810.231	100.18
810.411	65.36
810.59	110.42
810.769	153.43
810.948	26.45
811.127	-67.75
811.306	-14.51
811.485	-22.7
811.664	147.28
811.843	98.13
812.022	18.26
812.201	-6.31
812.38	30.55
812.559	-4.27
812.737	94.04
812.916	-67.75
813.095	36.69
813.274	83.8
813.453	-6.31
813.632	30.55
813.811	102.23
813.989	-22.7
814.168	55.12
814.347	-20.65
814.526	44.88
814.704	87.89
814.883	89.94
815.062	-37.03
815.24	94.04
815.419	-12.46
815.598	57.17
815.776	-55.47
815.955	42.84
816.133	-86.19
816.312	67.41
816.49	-63.66
816.669	63.32
816.847	-14.51
817.026	61.27
817.204	40.79
817.383	44.88
817.561	36.69
817.74	98.13
817.918	44.88
818.097	28.5
818.275	-26.79
818.453	57.17
818.632	63.32
818.81	-0.17
818.988	-69.8
819.167	14.17
819.345	24.4
819.523	-30.89
819.701	16.21
819.879	53.08
820.058	-16.55
820.236	-2.22
820.414	87.89
820.592	-4.27
820.77	-0.17
820.948	8.02
821.127	-20.65
821.305	77.65
821.483	-28.84
821.661	75.6
821.839	81.75
822.017	-69.8
822.195	-12.46
822.373	24.4
822.551	81.75
822.729	20.31
822.907	57.17
823.085	30.55
823.262	20.31
823.44	-8.36
823.618	44.88
823.796	61.27
823.974	-28.84
824.152	-28.84
824.329	-26.79
824.507	30.55
824.685	42.84
824.863	48.98
825.04	34.64
825.218	16.21
825.396	10.07
825.574	-26.79
825.751	14.17
825.929	51.03
826.107	-57.51
826.284	42.84
826.462	94.04
826.639	-26.79
826.817	-14.51
826.994	38.74
827.172	-41.13
827.349	98.13
827.527	-10.41
827.704	98.13
827.882	53.08
828.059	8.02
828.237	-53.42
828.414	65.36
828.591	-92.33
828.769	-71.85
828.946	-18.6
829.124	51.03
829.301	51.03
829.478	-55.47
829.655	102.23
829.833	57.17
830.01	-139.43
830.187	24.4
830.364	14.17
830.542	-26.79
830.719	98.13
830.896	44.88
831.073	71.51
831.25	26.45
831.427	20.31
831.604	12.12
831.782	-16.55
831.959	42.84
832.136	44.88
832.313	-39.08
832.49	-24.75
832.667	48.98
832.844	-80.04
833.021	153.43
833.198	-8.36
833.374	16.21
833.551	44.88
833.728	24.4
833.905	85.84
834.082	-53.42
834.259	34.64
834.436	153.43
834.612	-20.65
834.789	36.69
834.966	-43.18
835.143	12.12
835.319	-133.29
835.496	34.64
835.673	69.46
835.85	96.08
836.026	28.5
836.203	57.17
836.38	-47.27
836.556	67.41
836.733	-32.94
836.909	214.87
837.086	-45.23
837.262	-53.42
837.439	-65.71
837.616	-77.99
837.792	-39.08
837.968	5.97
838.145	-71.85
838.321	24.4
838.498	-22.7
838.674	53.08
838.851	24.4
839.027	-49.32
839.203	22.36
839.38	53.08
839.556	-6.31
839.732	57.17
839.909	-30.89
840.085	59.22
840.261	-39.08
840.437	3.93
840.614	5.97
840.79	149.33
840.966	12.12
841.142	42.84
841.318	-32.94
841.494	18.26
841.671	22.36
841.847	-43.18
842.023	-34.99
842.199	77.65
842.375	30.55
842.551	-98.47
842.727	-80.04
842.903	182.1
843.079	-73.9
843.255	83.8
843.431	-96.43
843.607	-24.75
843.783	-82.09
843.959	100.18
844.134	-12.46
844.31	94.04
844.486	-30.89
844.662	-53.42
844.838	12.12
845.013	44.88
845.189	38.74
845.365	46.93
845.541	1.88
845.716	61.27
845.892	38.74
846.068	-37.03
846.244	-8.36
846.419	12.12
846.595	-65.71
846.77	-53.42
846.946	114.52
847.122	-0.17
847.297	-26.79
847.473	120.66
847.648	-86.19
847.824	-20.65
847.999	-75.95
848.175	10.07
848.35	57.17
848.526	110.42
848.701	28.5
848.876	59.22
849.052	126.8
849.227	-34.99
849.403	12.12
849.578	-30.89
849.753	48.98
849.929	18.26
850.104	-90.28
850.279	46.93
850.454	94.04
850.63	55.12
850.805	36.69
850.98	18.26
851.155	5.97
851.33	-18.6
851.505	-61.61
851.681	184.15
851.856	-18.6
852.031	132.95
852.206	5.97
852.381	-4.27
852.556	28.5
852.731	28.5
852.906	120.66
853.081	20.31
853.256	118.61
853.431	-22.7
853.606	-71.85
853.781	3.93
853.956	-153.77
854.131	36.69
854.305	-14.51
854.48	-80.04
854.655	1.88
854.83	-43.18
855.005	-22.7
855.18	26.45
855.354	-20.65
855.529	44.88
855.704	-88.23
855.879	100.18
856.053	-49.32
856.228	8.02
856.403	-30.89
856.577	-24.75
856.752	-106.67
856.926	48.98
857.101	8.02
857.276	-96.43
857.45	51.03
857.625	106.32
857.799	63.32
857.974	24.4
858.148	-34.99
858.323	1.88
858.497	-43.18
858.672	-92.33
858.846	-51.37
859.02	75.6
859.195	-18.6
859.369	-16.55
859.543	34.64
859.718	-0.17
859.892	32.6
860.066	1.88
860.241	-80.04
860.415	-10.41
860.589	-6.31
860.763	1.88
860.938	24.4
861.112	79.7
861.286	-45.23
861.46	108.37
861.634	-8.36
861.808	98.13
861.982	-51.37
862.157	-106.67
862.331	-100.52
862.505	-63.66
862.679	-53.42
862.853	26.45
863.027	-32.94
863.201	200.53
863.375	-45.23
863.549	91.99
863.722	42.84
863.896	73.56
864.07	-106.67
864.244	-45.23
864.418	59.22
864.592	61.27
864.766	26.45
864.939	10.07
865.113	-112.81
865.287	77.65
865.461	-57.51
865.634	81.75
865.808	-16.55
865.982	-26.79
866.156	-49.32
866.329	-116.9
866.503	-28.84
866.676	73.56
866.85	5.97
867.024	-45.23
867.197	182.1
867.371	28.5
867.544	40.79
867.718	-57.51
867.891	51.03
868.065	-86.19
868.238	61.27
868.412	104.28
868.585	32.6
868.759	-59.56
868.932	-96.43
869.105	-73.9
869.279	24.4
869.452	-86.19
869.625	-14.51
869.799	-30.89
869.972	-106.67
870.145	-45.23
870.319	77.65
870.492	-59.56
870.665	-61.61
870.838	-73.9
871.011	-145.58
871.185	-16.55
871.358	-61.61
871.531	-20.65
871.704	-20.65
871.877	-0.17
872.05	28.5
872.223	-202.92
872.396	16.21
872.569	61.27
872.742	-8.36
872.915	40.79
873.088	61.27
873.261	-65.71
873.434	-37.03
873.607	20.31
873.78	98.13
873.953	-59.56
874.126	34.64
874.299	30.55
874.471	14.17
874.644	32.6
874.817	100.18
874.99	102.23
875.163	-12.46
875.335	-37.03
875.508	-84.14
875.681	155.47
875.853	-6.31
876.026	-12.46
876.199	61.27
876.371	10.07
876.544	-73.9
876.717	59.22
876.889	-16.55
877.062	-24.75
877.234	-59.56
877.407	-30.89
877.579	5.97
877.752	-90.28
877.924	5.97
878.097	75.6
878.269	-2.22
878.442	24.4
878.614	-37.03
878.786	77.65
878.959	18.26
879.131	36.69
879.303	-123.05
879.476	28.5
879.648	55.12
879.82	26.45
879.993	-80.04
880.165	-18.6
880.337	3.93
880.509	16.21
880.681	-114.86
880.854	-88.23
881.026	89.94
881.198	163.67
881.37	-53.42
881.542	3.93
881.714	51.03
881.886	44.88
882.058	30.55
882.23	1.88
882.402	16.21
882.574	8.02
882.746	61.27
882.918	132.95
883.09	10.07
883.262	-2.22
883.434	57.17
883.606	-125.1
883.778	46.93
883.95	94.04
884.122	-37.03
884.293	-4.27
884.465	34.64
884.637	30.55
884.809	-26.79
884.98	48.98
885.152	20.31
885.324	67.41
885.496	-49.32
885.667	-47.27
885.839	-41.13
886.011	69.46
886.182	57.17
886.354	102.23
886.525	-59.56
886.697	77.65
886.869	-116.9
887.04	-14.51
887.212	143.19
887.383	38.74
887.555	-8.36
887.726	-0.17
887.897	-37.03
888.069	67.41
888.24	98.13
888.412	1.88
888.583	8.02
888.754	1.88
888.926	-102.57
889.097	-82.09
889.268	-90.28
889.44	-10.41
889.611	-118.95
889.782	-59.56
889.953	-39.08
890.125	118.61
890.296	-59.56
890.467	-16.55
890.638	-14.51
890.809	30.55
890.98	-61.61
891.151	48.98
891.323	57.17
891.494	40.79
891.665	20.31
891.836	28.5
892.007	20.31
892.178	77.65
892.349	65.36
892.52	-82.09
892.691	18.26
892.862	-37.03
893.032	-69.8
893.203	59.22
893.374	40.79
893.545	87.89
893.716	8.02
893.887	61.27
894.057	-43.18
894.228	-41.13
894.399	-86.19
894.57	96.08
894.74	-28.84
894.911	32.6
895.082	-49.32
895.253	-12.46
895.423	61.27
895.594	85.84
895.764	38.74
895.935	-73.9
896.106	65.36
896.276	-16.55
896.447	81.75
896.617	-28.84
896.788	-8.36
896.958	-77.99
897.129	-16.55
897.299	-8.36
897.47	151.38
897.64	28.5
897.81	28.5
897.981	1.88
898.151	-43.18
898.322	-6.31
898.492	-12.46
898.662	-63.66
898.832	-51.37
899.003	14.17
899.173	57.17
899.343	-108.71
899.513	-77.99
