Data from USB4F104151__87__11-31-36-560.txt Node

Date: Wed Feb 26 11:31:36 EST 2025
User: louis
Spectrometer: USB4F10415
Trigger mode: 4
Integration Time (sec): 1.000000E-1
Scans to average: 1
Electric dark correction enabled: true
Nonlinearity correction enabled: false
Boxcar width: 0
XAxis mode: Wavelengths
Number of Pixels in Spectrum: 3648
>>>>>Begin Spectral Data<<<<<
178.204	-396.45
178.424	-396.45
178.644	-396.45
178.864	-421.03
179.084	-285.86
179.304	15.19
179.524	11.09
179.744	-25.77
179.964	35.67
180.184	-9.39
180.404	43.86
180.624	-23.72
180.844	7
181.064	-146.6
181.283	50
181.503	0.85
181.723	41.81
181.943	-152.74
182.163	150.36
182.383	-48.3
182.602	58.2
182.822	150.36
183.042	35.67
183.262	7
183.482	-31.91
183.701	13.14
183.921	60.24
184.141	-97.45
184.361	45.91
184.58	21.33
184.8	78.68
185.02	11.09
185.239	17.24
185.459	168.79
185.679	95.06
185.898	-83.11
186.118	54.1
186.338	19.29
186.557	99.16
186.777	-1.19
186.997	2.9
187.216	54.1
187.436	170.83
187.655	35.67
187.875	27.48
188.095	17.24
188.314	127.83
188.534	121.68
188.753	-27.82
188.973	123.73
189.192	148.31
189.412	66.39
189.631	68.44
189.851	-25.77
190.07	162.64
190.29	-52.39
190.509	-62.63
190.729	66.39
190.948	181.07
191.168	232.27
191.387	-15.53
191.607	35.67
191.826	84.82
192.045	-60.59
192.265	62.29
192.484	41.81
192.704	117.59
192.923	-109.74
193.142	209.75
193.362	140.12
193.581	109.4
193.8	39.76
194.02	9.05
194.239	56.15
194.458	45.91
194.678	-19.63
194.897	-109.74
195.116	0.85
195.335	84.82
195.555	66.39
195.774	-38.06
195.993	115.54
196.212	-5.29
196.432	-23.72
196.651	-7.34
196.87	9.05
197.089	207.7
197.308	82.77
197.528	41.81
197.747	-83.11
197.966	-1.19
198.185	136.02
198.404	-11.43
198.623	115.54
198.842	144.21
199.062	187.22
199.281	88.92
199.5	66.39
199.719	-60.59
199.938	95.06
200.157	56.15
200.376	111.44
200.595	111.44
200.814	21.33
201.033	23.38
201.252	121.68
201.471	125.78
201.69	93.01
201.909	88.92
202.128	25.43
202.347	117.59
202.566	56.15
202.785	-70.83
203.004	-87.21
203.223	199.51
203.442	54.1
203.661	-109.74
203.879	43.86
204.098	160.59
204.317	-46.25
204.536	160.59
204.755	62.29
204.974	101.2
205.193	-27.82
205.411	217.94
205.63	111.44
205.849	103.25
206.068	-21.67
206.287	-50.35
206.505	97.11
206.724	-5.29
206.943	-1.19
207.162	-11.43
207.381	95.06
207.599	33.62
207.818	-17.58
208.037	-11.43
208.255	64.34
208.474	76.63
208.693	23.38
208.911	37.72
209.13	136.02
209.349	2.9
209.567	47.96
209.786	25.43
210.005	121.68
210.223	82.77
210.442	-103.59
210.661	29.52
210.879	80.72
211.098	33.62
211.316	66.39
211.535	82.77
211.753	119.64
211.972	111.44
212.191	25.43
212.409	54.1
212.628	64.34
212.846	50
213.065	29.52
213.283	136.02
213.502	13.14
213.72	-29.87
213.938	80.72
214.157	-99.5
214.375	162.64
214.594	-64.68
214.812	76.63
215.031	66.39
215.249	43.86
215.467	131.92
215.686	33.62
215.904	43.86
216.122	-54.44
216.341	105.3
216.559	0.85
216.778	158.55
216.996	29.52
217.214	-56.49
217.432	13.14
217.651	-23.72
217.869	-1.19
218.087	-15.53
218.306	45.91
218.524	68.44
218.742	86.87
218.96	101.2
219.179	37.72
219.397	64.34
219.615	273.23
219.833	45.91
220.051	54.1
220.27	138.07
220.488	121.68
220.706	52.05
220.924	-31.91
221.142	70.48
221.36	-1.19
221.578	52.05
221.796	70.48
222.015	19.29
222.233	11.09
222.451	168.79
222.669	-38.06
222.887	54.1
223.105	11.09
223.323	4.95
223.541	-97.45
223.759	-23.72
223.977	78.68
224.195	129.88
224.413	54.1
224.631	76.63
224.849	-19.63
225.067	179.03
225.285	25.43
225.503	35.67
225.721	-136.36
225.939	19.29
226.157	29.52
226.375	287.57
226.592	-60.59
226.81	-33.96
227.028	101.2
227.246	127.83
227.464	80.72
227.682	56.15
227.9	105.3
228.117	19.29
228.335	25.43
228.553	62.29
228.771	35.67
228.989	125.78
229.206	127.83
229.424	52.05
229.642	-3.24
229.86	-17.58
230.077	99.16
230.295	70.48
230.513	97.11
230.731	127.83
230.948	52.05
231.166	88.92
231.384	-3.24
231.601	-58.54
231.819	203.6
232.037	4.95
232.254	-44.2
232.472	52.05
232.689	2.9
232.907	160.59
233.125	19.29
233.342	27.48
233.56	-27.82
233.777	-25.77
233.995	-7.34
234.213	70.48
234.43	21.33
234.648	54.1
234.865	39.76
235.083	80.72
235.3	88.92
235.518	68.44
235.735	66.39
235.953	121.68
236.17	88.92
236.388	7
236.605	0.85
236.822	74.58
237.04	117.59
237.257	95.06
237.475	23.38
237.692	103.25
237.909	70.48
238.127	-1.19
238.344	29.52
238.562	52.05
238.779	-95.4
238.996	-25.77
239.214	90.96
239.431	17.24
239.648	-5.29
239.865	97.11
240.083	39.76
240.3	-11.43
240.517	60.24
240.735	2.9
240.952	86.87
241.169	84.82
241.386	47.96
241.603	66.39
241.821	-31.91
242.038	115.54
242.255	84.82
242.472	-70.83
242.689	88.92
242.907	13.14
243.124	56.15
243.341	-7.34
243.558	7
243.775	-21.67
243.992	-44.2
244.209	111.44
244.426	256.85
244.643	103.25
244.86	23.38
245.078	105.3
245.295	15.19
245.512	101.2
245.729	-15.53
245.946	15.19
246.163	-1.19
246.38	0.85
246.597	52.05
246.814	80.72
247.031	-13.48
247.248	-3.24
247.464	97.11
247.681	56.15
247.898	62.29
248.115	78.68
248.332	-5.29
248.549	86.87
248.766	111.44
248.983	21.33
249.2	27.48
249.417	2.9
249.633	7
249.85	64.34
250.067	21.33
250.284	68.44
250.501	11.09
250.717	78.68
250.934	-48.3
251.151	54.1
251.368	9.05
251.585	7
251.801	9.05
252.018	-5.29
252.235	113.49
252.451	-60.59
252.668	-38.06
252.885	99.16
253.102	45.91
253.318	35.67
253.535	19.29
253.752	-9.39
253.968	-5.29
254.185	-48.3
254.401	43.86
254.618	60.24
254.835	11.09
255.051	158.55
255.268	93.01
255.484	23.38
255.701	23.38
255.917	21.33
256.134	43.86
256.351	90.96
256.567	-95.4
256.784	2.9
257	-64.68
257.217	37.72
257.433	99.16
257.65	62.29
257.866	103.25
258.082	-70.83
258.299	62.29
258.515	17.24
258.732	-3.24
258.948	37.72
259.165	-9.39
259.381	-50.35
259.597	76.63
259.814	25.43
260.03	136.02
260.246	-13.48
260.463	115.54
260.679	80.72
260.895	9.05
261.112	52.05
261.328	0.85
261.544	25.43
261.761	154.45
261.977	-52.39
262.193	-31.91
262.409	76.63
262.626	115.54
262.842	35.67
263.058	-70.83
263.274	76.63
263.49	58.2
263.707	82.77
263.923	127.83
264.139	19.29
264.355	2.9
264.571	66.39
264.787	17.24
265.004	70.48
265.22	93.01
265.436	-64.68
265.652	13.14
265.868	45.91
266.084	-27.82
266.3	23.38
266.516	-31.91
266.732	27.48
266.948	107.35
267.164	58.2
267.38	113.49
267.596	123.73
267.812	156.5
268.028	78.68
268.244	0.85
268.46	90.96
268.676	35.67
268.892	-38.06
269.108	41.81
269.324	-13.48
269.54	29.52
269.756	74.58
269.972	9.05
270.188	-42.15
270.403	-60.59
270.619	-3.24
270.835	80.72
271.051	84.82
271.267	2.9
271.483	-44.2
271.698	76.63
271.914	54.1
272.13	23.38
272.346	17.24
272.562	84.82
272.777	52.05
272.993	-42.15
273.209	56.15
273.425	82.77
273.64	-19.63
273.856	64.34
274.072	-17.58
274.287	-25.77
274.503	99.16
274.719	105.3
274.934	-11.43
275.15	-58.54
275.366	-27.82
275.581	-25.77
275.797	27.48
276.012	54.1
276.228	41.81
276.444	25.43
276.659	76.63
276.875	9.05
277.09	35.67
277.306	-15.53
277.521	-5.29
277.737	107.35
277.952	115.54
278.168	43.86
278.383	109.4
278.599	62.29
278.814	115.54
279.03	-11.43
279.245	183.12
279.461	21.33
279.676	95.06
279.892	-36.01
280.107	82.77
280.322	4.95
280.538	82.77
280.753	-70.83
280.969	29.52
281.184	37.72
281.399	90.96
281.615	15.19
281.83	23.38
282.045	-40.11
282.26	-15.53
282.476	-23.72
282.691	88.92
282.906	99.16
283.122	78.68
283.337	-64.68
283.552	56.15
283.767	-48.3
283.983	150.36
284.198	19.29
284.413	144.21
284.628	-19.63
284.843	23.38
285.058	119.64
285.274	21.33
285.489	50
285.704	121.68
285.919	-79.02
286.134	4.95
286.349	-17.58
286.564	-5.29
286.779	136.02
286.995	27.48
287.21	-54.44
287.425	7
287.64	27.48
287.855	29.52
288.07	-64.68
288.285	127.83
288.5	129.88
288.715	50
288.93	70.48
289.145	41.81
289.36	115.54
289.575	136.02
289.79	107.35
290.004	-70.83
290.219	123.73
290.434	-62.63
290.649	-29.87
290.864	-3.24
291.079	-29.87
291.294	35.67
291.509	13.14
291.724	0.85
291.938	-38.06
292.153	76.63
292.368	19.29
292.583	-66.73
292.798	117.59
293.012	127.83
293.227	86.87
293.442	52.05
293.657	45.91
293.871	164.69
294.086	82.77
294.301	111.44
294.516	95.06
294.73	70.48
294.945	-15.53
295.16	-44.2
295.374	72.53
295.589	74.58
295.804	-54.44
296.018	66.39
296.233	70.48
296.447	43.86
296.662	41.81
296.877	82.77
297.091	86.87
297.306	23.38
297.52	52.05
297.735	78.68
297.949	131.92
298.164	76.63
298.378	119.64
298.593	11.09
298.807	-15.53
299.022	21.33
299.236	109.4
299.451	-44.2
299.665	13.14
299.88	-5.29
300.094	93.01
300.309	56.15
300.523	119.64
300.737	0.85
300.952	74.58
301.166	62.29
301.381	-21.67
301.595	-36.01
301.809	21.33
302.024	-5.29
302.238	-3.24
302.452	4.95
302.667	111.44
302.881	123.73
303.095	95.06
303.309	76.63
303.524	-33.96
303.738	-1.19
303.952	21.33
304.166	138.07
304.381	-74.92
304.595	76.63
304.809	-72.87
305.023	29.52
305.237	-1.19
305.452	99.16
305.666	95.06
305.88	80.72
306.094	95.06
306.308	52.05
306.522	99.16
306.736	41.81
306.95	86.87
307.164	95.06
307.379	21.33
307.593	74.58
307.807	52.05
308.021	21.33
308.235	23.38
308.449	-64.68
308.663	66.39
308.877	293.71
309.091	103.25
309.305	99.16
309.519	-68.78
309.733	181.07
309.947	-11.43
310.161	78.68
310.374	82.77
310.588	78.68
310.802	-21.67
311.016	-13.48
311.23	58.2
311.444	-19.63
311.658	39.76
311.872	117.59
312.085	185.17
312.299	54.1
312.513	90.96
312.727	31.57
312.941	7
313.154	90.96
313.368	35.67
313.582	-9.39
313.796	11.09
314.009	66.39
314.223	164.69
314.437	97.11
314.651	84.82
314.864	2.9
315.078	23.38
315.292	-13.48
315.505	29.52
315.719	64.34
315.933	52.05
316.146	-60.59
316.36	13.14
316.573	230.23
316.787	103.25
317.001	21.33
317.214	-38.06
317.428	21.33
317.641	-76.97
317.855	13.14
318.068	84.82
318.282	-17.58
318.495	232.27
318.709	64.34
318.922	-46.25
319.136	136.02
319.349	162.64
319.563	41.81
319.776	78.68
319.99	-93.35
320.203	99.16
320.417	72.53
320.63	88.92
320.843	199.51
321.057	109.4
321.27	60.24
321.483	119.64
321.697	113.49
321.91	33.62
322.124	56.15
322.337	72.53
322.55	-58.54
322.763	74.58
322.977	-3.24
323.19	-9.39
323.403	47.96
323.617	45.91
323.83	88.92
324.043	-68.78
324.256	43.86
324.469	-109.74
324.683	66.39
324.896	-15.53
325.109	52.05
325.322	-50.35
325.535	74.58
325.748	39.76
325.962	-11.43
326.175	68.44
326.388	58.2
326.601	127.83
326.814	41.81
327.027	17.24
327.24	133.97
327.453	-83.11
327.666	52.05
327.879	56.15
328.092	39.76
328.305	43.86
328.518	-27.82
328.731	-13.48
328.944	-33.96
329.157	-1.19
329.37	-11.43
329.583	179.03
329.796	125.78
330.009	-70.83
330.222	74.58
330.435	174.93
330.648	93.01
330.861	70.48
331.073	9.05
331.286	84.82
331.499	29.52
331.712	-52.39
331.925	95.06
332.138	-1.19
332.35	62.29
332.563	-15.53
332.776	152.4
332.989	-48.3
333.202	11.09
333.414	50
333.627	56.15
333.84	-48.3
334.053	80.72
334.265	-13.48
334.478	27.48
334.691	54.1
334.903	23.38
335.116	-40.11
335.329	2.9
335.541	111.44
335.754	76.63
335.966	-1.19
336.179	4.95
336.392	37.72
336.604	50
336.817	111.44
337.029	33.62
337.242	90.96
337.454	78.68
337.667	-23.72
337.88	154.45
338.092	88.92
338.305	97.11
338.517	13.14
338.729	52.05
338.942	142.16
339.154	-42.15
339.367	-33.96
339.579	-40.11
339.792	-21.67
340.004	107.35
340.217	4.95
340.429	113.49
340.641	-62.63
340.854	-7.34
341.066	15.19
341.278	78.68
341.491	181.07
341.703	54.1
341.915	56.15
342.128	187.22
342.34	27.48
342.552	-54.44
342.764	29.52
342.977	7
343.189	84.82
343.401	72.53
343.613	-23.72
343.826	15.19
344.038	47.96
344.25	35.67
344.462	-7.34
344.674	43.86
344.886	-1.19
345.099	58.2
345.311	31.57
345.523	70.48
345.735	-107.69
345.947	76.63
346.159	54.1
346.371	97.11
346.583	-3.24
346.795	172.88
347.007	35.67
347.219	47.96
347.431	11.09
347.643	172.88
347.855	4.95
348.067	95.06
348.279	-29.87
348.491	29.52
348.703	41.81
348.915	47.96
349.127	2.9
349.339	68.44
349.551	-72.87
349.763	60.24
349.975	47.96
350.187	41.81
350.399	195.41
350.61	70.48
350.822	11.09
351.034	45.91
351.246	21.33
351.458	109.4
351.669	117.59
351.881	103.25
352.093	37.72
352.305	119.64
352.517	82.77
352.728	154.45
352.94	52.05
353.152	86.87
353.363	2.9
353.575	72.53
353.787	183.12
353.999	78.68
354.21	160.59
354.422	-72.87
354.633	45.91
354.845	25.43
355.057	70.48
355.268	25.43
355.48	168.79
355.692	-7.34
355.903	58.2
356.115	-29.87
356.326	-93.35
356.538	121.68
356.749	58.2
356.961	60.24
357.172	33.62
357.384	-56.49
357.595	181.07
357.807	-21.67
358.018	-3.24
358.23	-11.43
358.441	119.64
358.653	115.54
358.864	47.96
359.075	-85.16
359.287	62.29
359.498	125.78
359.709	127.83
359.921	-31.91
360.132	74.58
360.344	-25.77
360.555	21.33
360.766	172.88
360.977	-36.01
361.189	86.87
361.4	25.43
361.611	72.53
361.823	154.45
362.034	64.34
362.245	-54.44
362.456	-21.67
362.667	74.58
362.879	-27.82
363.09	64.34
363.301	80.72
363.512	-60.59
363.723	-76.97
363.935	-115.88
364.146	99.16
364.357	17.24
364.568	-13.48
364.779	-11.43
364.99	174.93
365.201	41.81
365.412	136.02
365.623	-93.35
365.834	121.68
366.045	41.81
366.256	29.52
366.467	56.15
366.678	25.43
366.889	64.34
367.1	-13.48
367.311	103.25
367.522	-60.59
367.733	43.86
367.944	45.91
368.155	-9.39
368.366	107.35
368.577	72.53
368.788	129.88
368.999	-19.63
369.209	97.11
369.42	252.75
369.631	209.75
369.842	140.12
370.053	4.95
370.264	95.06
370.474	31.57
370.685	-7.34
370.896	15.19
371.107	47.96
371.317	-60.59
371.528	47.96
371.739	93.01
371.95	105.3
372.16	90.96
372.371	-29.87
372.582	23.38
372.792	13.14
373.003	-17.58
373.214	-33.96
373.424	82.77
373.635	-48.3
373.846	86.87
374.056	-40.11
374.267	183.12
374.477	27.48
374.688	-13.48
374.898	-38.06
375.109	-3.24
375.319	-13.48
375.53	136.02
375.74	113.49
375.951	39.76
376.161	97.11
376.372	152.4
376.582	39.76
376.793	127.83
377.003	19.29
377.214	-97.45
377.424	107.35
377.635	80.72
377.845	47.96
378.055	103.25
378.266	11.09
378.476	52.05
378.686	72.53
378.897	80.72
379.107	109.4
379.317	43.86
379.528	-44.2
379.738	101.2
379.948	-31.91
380.158	144.21
380.369	-1.19
380.579	76.63
380.789	60.24
380.999	93.01
381.21	54.1
381.42	203.6
381.63	23.38
381.84	127.83
382.05	158.55
382.261	117.59
382.471	76.63
382.681	27.48
382.891	125.78
383.101	68.44
383.311	-36.01
383.521	-13.48
383.731	154.45
383.941	107.35
384.151	101.2
384.361	52.05
384.571	78.68
384.781	-1.19
384.991	228.18
385.201	164.69
385.411	133.97
385.621	103.25
385.831	31.57
386.041	23.38
386.251	25.43
386.461	62.29
386.671	52.05
386.881	33.62
387.091	11.09
387.301	78.68
387.511	60.24
387.72	99.16
387.93	23.38
388.14	-52.39
388.35	39.76
388.56	103.25
388.769	119.64
388.979	-19.63
389.189	15.19
389.399	21.33
389.609	90.96
389.818	152.4
390.028	105.3
390.238	68.44
390.447	54.1
390.657	33.62
390.867	0.85
391.076	-62.63
391.286	68.44
391.496	25.43
391.705	-76.97
391.915	117.59
392.125	170.83
392.334	9.05
392.544	95.06
392.753	86.87
392.963	-44.2
393.172	37.72
393.382	19.29
393.591	189.27
393.801	31.57
394.01	121.68
394.22	107.35
394.429	60.24
394.639	68.44
394.848	76.63
395.058	4.95
395.267	66.39
395.477	88.92
395.686	70.48
395.895	234.32
396.105	193.36
396.314	60.24
396.524	13.14
396.733	41.81
396.942	123.73
397.152	15.19
397.361	101.2
397.57	47.96
397.78	7
397.989	54.1
398.198	176.98
398.407	50
398.617	-81.07
398.826	90.96
399.035	-27.82
399.244	109.4
399.453	99.16
399.663	21.33
399.872	17.24
400.081	-5.29
400.29	193.36
400.499	-7.34
400.708	105.3
400.917	13.14
401.127	86.87
401.336	82.77
401.545	168.79
401.754	140.12
401.963	140.12
402.172	-27.82
402.381	-21.67
402.59	74.58
402.799	-1.19
403.008	123.73
403.217	90.96
403.426	99.16
403.635	-17.58
403.844	62.29
404.053	13.14
404.262	-15.53
404.471	131.92
404.68	47.96
404.888	80.72
405.097	19.29
405.306	13.14
405.515	23.38
405.724	31.57
405.933	93.01
406.142	66.39
406.35	93.01
406.559	37.72
406.768	58.2
406.977	185.17
407.185	62.29
407.394	45.91
407.603	-29.87
407.812	78.68
408.02	148.31
408.229	7
408.438	52.05
408.646	-58.54
408.855	54.1
409.064	113.49
409.272	-15.53
409.481	115.54
409.69	-40.11
409.898	-36.01
410.107	68.44
410.315	123.73
410.524	82.77
410.733	47.96
410.941	23.38
411.15	60.24
411.358	25.43
411.567	113.49
411.775	52.05
411.984	82.77
412.192	54.1
412.401	-5.29
412.609	174.93
412.818	205.65
413.026	62.29
413.234	29.52
413.443	64.34
413.651	-72.87
413.86	88.92
414.068	133.97
414.276	70.48
414.485	-27.82
414.693	152.4
414.901	209.75
415.11	97.11
415.318	-7.34
415.526	80.72
415.734	105.3
415.943	54.1
416.151	119.64
416.359	97.11
416.567	52.05
416.776	80.72
416.984	140.12
417.192	189.27
417.4	62.29
417.608	-15.53
417.817	-1.19
418.025	56.15
418.233	185.17
418.441	-33.96
418.649	-1.19
418.857	11.09
419.065	170.83
419.273	-38.06
419.481	29.52
419.689	39.76
419.897	13.14
420.105	-1.19
420.313	213.84
420.521	146.26
420.729	101.2
420.937	15.19
421.145	-9.39
421.353	66.39
421.561	52.05
421.769	99.16
421.977	-68.78
422.185	72.53
422.393	72.53
422.601	164.69
422.809	66.39
423.017	-19.63
423.224	-11.43
423.432	136.02
423.64	43.86
423.848	119.64
424.056	-83.11
424.263	154.45
424.471	109.4
424.679	138.07
424.887	-58.54
425.094	109.4
425.302	70.48
425.51	70.48
425.718	230.23
425.925	121.68
426.133	27.48
426.341	138.07
426.548	-7.34
426.756	33.62
426.964	15.19
427.171	43.86
427.379	86.87
427.586	66.39
427.794	54.1
428.001	181.07
428.209	168.79
428.417	170.83
428.624	158.55
428.832	127.83
429.039	15.19
429.247	29.52
429.454	45.91
429.662	181.07
429.869	115.54
430.076	84.82
430.284	170.83
430.491	193.36
430.699	70.48
430.906	224.08
431.114	25.43
431.321	152.4
431.528	64.34
431.736	109.4
431.943	172.88
432.15	99.16
432.358	174.93
432.565	203.6
432.772	41.81
432.979	189.27
433.187	68.44
433.394	176.98
433.601	111.44
433.808	250.71
434.016	166.74
434.223	154.45
434.43	258.9
434.637	230.23
434.844	179.03
435.052	285.52
435.259	291.66
435.466	330.58
435.673	232.27
435.88	185.17
436.087	361.3
436.294	279.38
436.501	258.9
436.708	236.37
436.915	326.48
437.122	363.34
437.329	283.47
437.537	267.09
437.743	312.14
437.95	365.39
438.157	340.82
438.364	293.71
438.571	357.2
438.778	398.16
438.985	373.58
439.192	357.2
439.399	385.87
439.606	410.45
439.813	518.99
440.02	516.94
440.227	518.99
440.433	551.76
440.64	457.55
440.847	494.41
441.054	551.76
441.261	617.29
441.467	586.57
441.674	631.63
441.881	678.73
442.088	580.43
442.294	703.31
442.501	742.22
442.708	744.27
442.914	742.22
443.121	705.35
443.328	809.8
443.534	920.39
443.741	824.14
443.948	584.52
444.154	869.19
444.361	1067.85
444.568	1000.26
444.774	983.88
444.981	799.56
445.187	1057.61
445.394	1061.7
445.6	1014.6
445.807	1235.78
446.013	1090.37
446.22	1174.34
446.426	1284.93
446.633	1340.22
446.839	1577.79
447.046	1321.79
447.252	1428.29
447.459	1495.87
447.665	1395.52
447.871	1573.69
448.078	1760.06
448.284	1784.63
448.491	1805.11
448.697	1889.08
448.903	2009.91
449.11	2124.6
449.316	2050.87
449.522	2239.28
449.728	2259.76
449.935	2435.89
450.141	2347.83
450.347	2607.92
450.553	2495.28
450.76	2636.59
450.966	2714.41
451.172	2859.82
451.378	2972.46
451.584	2992.94
451.791	3226.4
451.997	3232.55
452.203	3263.27
452.409	3408.67
452.615	3568.41
452.821	3537.7
453.027	3515.17
453.233	3914.52
453.44	3984.15
453.646	4010.78
453.852	4174.61
454.058	4457.23
454.264	4565.78
454.47	4850.44
454.676	4862.73
454.882	5427.97
455.088	5090.06
455.294	5489.41
455.5	5653.25
455.705	5919.48
455.911	6066.94
456.117	6310.65
456.323	6318.84
456.529	6556.4
456.735	6990.57
456.941	7160.55
457.147	7578.34
457.352	7652.06
457.558	7940.83
457.764	8454.87
457.97	8520.4
458.176	8815.31
458.381	9294.54
458.587	9558.72
458.793	9976.51
458.999	10080.96
459.204	11240.11
459.41	11451.05
459.616	11453.09
459.821	12288.67
460.027	12786.32
460.233	13234.83
460.438	13269.64
460.644	14070.4
460.85	14322.3
461.055	14852.72
461.261	15542.89
461.466	15123.05
461.672	15403.63
461.878	17019.47
462.083	17025.62
462.289	17427.02
462.494	18238.02
462.7	18195.01
462.905	18655.8
463.111	20029.99
463.316	21013.01
463.522	21584.4
463.727	22080
463.932	23157.24
464.138	23710.19
464.343	24752.6
464.549	24783.32
464.754	26575.3
464.959	27314.61
465.165	27912.62
465.37	27390.39
465.575	27816.36
465.781	29356.44
465.986	29821.33
466.191	29802.89
466.397	30419.33
466.602	29438.36
466.807	31168.89
467.012	31654.26
467.218	32215.4
467.423	32004.46
467.628	33411.42
467.833	34636.1
468.038	34212.17
468.244	33270.11
468.449	35031.36
468.654	34498.89
468.859	34470.22
469.064	34441.54
469.269	33372.5
469.474	33732.95
469.679	34801.99
469.885	33702.23
470.09	34300.23
470.295	34189.64
470.5	33489.24
470.705	33825.11
470.91	32702.82
471.115	32790.88
471.32	32936.29
471.525	32545.12
471.73	31664.5
471.935	31975.79
472.139	30466.44
472.344	30577.03
472.549	30431.62
472.754	29933.96
472.959	29534.61
473.164	28185
473.369	27869.61
473.574	28512.67
473.778	28064.17
473.983	27333.04
474.188	27031.99
474.393	26030.54
474.598	25592.27
474.802	24875.48
475.007	24842.71
475.212	24289.76
475.417	23656.94
475.621	23040.5
475.826	23233.01
476.031	22690.3
476.235	22190.59
476.44	22202.88
476.645	21817.86
476.849	21101.08
477.054	20843.03
477.259	20339.23
477.463	20320.8
477.668	20029.99
477.872	19790.38
478.077	19577.39
478.282	18498.11
478.486	18692.66
478.691	18192.96
478.895	18319.93
479.1	18301.5
479.304	17984.07
479.509	17295.95
479.713	17766.98
479.918	17420.88
480.122	16818.77
480.326	16998.99
480.531	17080.91
480.735	16704.09
480.94	16296.54
481.144	17130.06
481.348	16085.6
481.553	16489.05
481.757	15737.45
481.961	16013.92
482.166	15911.52
482.37	15872.61
482.574	15301.23
482.778	15510.12
482.983	15743.59
483.187	15356.52
483.391	15233.64
483.595	15180.4
483.8	14758.52
484.004	14836.34
484.208	14783.09
484.412	14645.88
484.616	14563.96
484.821	14340.73
485.025	13986.43
485.229	13881.99
485.433	13537.93
485.637	13578.89
485.841	13431.43
486.045	13415.05
486.249	13118.09
486.453	12800.66
486.657	12860.05
486.861	12421.78
487.065	12421.78
487.269	12126.88
487.473	11598.5
487.677	11821.73
487.881	11827.87
488.085	11225.77
488.289	11211.43
488.493	10717.87
488.697	10853.04
488.901	10676.91
489.105	10396.34
489.309	10361.53
489.512	10451.64
489.716	9923.26
489.92	9833.15
490.124	9550.53
490.328	9511.62
490.531	9130.7
490.735	9192.14
490.939	9059.02
491.143	8907.47
491.346	8690.38
491.55	8483.54
491.754	8452.82
491.958	8327.89
492.161	8053.47
492.365	7944.92
492.569	7838.43
492.772	7811.81
492.976	7738.08
493.18	7686.88
493.383	7445.22
493.587	7537.38
493.79	7357.16
493.994	7236.33
494.197	7066.35
494.401	6916.84
494.605	6632.18
494.808	6814.45
495.012	6771.44
495.215	6877.93
495.419	6789.87
495.622	6714.09
495.825	6564.59
496.029	6570.74
496.232	6703.86
496.436	6464.24
496.639	6537.97
496.843	6623.98
497.046	6515.44
497.249	6644.46
497.453	6468.34
497.656	6484.72
497.859	6478.58
498.063	6621.94
498.266	6728.43
498.469	6419.19
498.673	6411
498.876	6619.89
499.079	6666.99
499.282	6628.08
499.485	6886.12
499.689	6929.13
499.892	6855.4
500.095	6613.74
500.298	6843.12
500.501	6744.81
500.705	7041.77
500.908	7056.11
501.111	7135.98
501.314	7447.27
501.517	7359.21
501.72	7166.7
501.923	7361.25
502.126	7400.16
502.329	7625.44
502.532	7482.08
502.735	7557.86
502.938	7791.33
503.141	7920.35
503.344	7811.81
503.547	8043.23
503.75	8094.43
503.953	8221.4
504.156	8336.09
504.359	8485.59
504.562	8432.34
504.765	8741.58
504.968	8878.8
505.17	8956.62
505.373	9163.47
505.576	9315.02
505.779	9607.87
505.982	9671.36
506.185	9745.09
506.387	9943.74
506.59	9949.89
506.793	10240.7
506.996	10173.11
507.198	10810.03
507.401	10881.71
507.604	11100.84
507.807	11295.4
508.009	11297.45
508.212	11735.71
508.415	11903.65
508.617	12047.01
508.82	12421.78
509.022	12300.95
509.225	12581.53
509.428	13038.22
509.63	13458.06
509.833	13673.09
510.035	14197.37
510.238	14234.24
510.44	14584.44
510.643	15121.01
510.845	15149.68
511.048	15241.84
511.25	15831.65
511.453	16122.46
511.655	16992.85
511.858	17220.17
512.06	17242.7
512.262	17719.88
512.465	18131.52
512.667	18348.61
512.87	18856.5
513.072	19296.81
513.274	20159.01
513.477	20521.5
513.679	20703.77
513.881	21320.21
514.084	22012.42
514.286	22290.95
514.488	22821.37
514.69	23552.49
514.893	23925.22
515.095	24408.54
515.297	24521.18
515.499	25231.83
515.701	25741.77
515.904	26270.15
516.106	27285.94
516.308	27339.19
516.51	28074.41
516.712	28578.21
516.914	28961.18
517.116	29901.2
517.318	30278.02
517.52	31172.99
517.722	31369.59
517.925	32149.87
518.127	33046.88
518.329	33679.7
518.531	33605.97
518.733	34556.23
518.935	35365.18
519.136	35422.52
519.338	36352.3
519.54	36700.45
519.742	37398.81
519.944	37656.85
520.146	38525.19
520.348	39459.07
520.55	39428.35
520.752	40403.18
520.954	40874.21
521.155	40935.65
521.357	41904.34
521.559	42354.9
521.761	43055.3
521.963	43016.39
522.164	43874.49
522.366	43800.76
522.568	44634.28
522.77	45025.45
522.971	45162.66
523.173	44988.58
523.375	45811.87
523.576	46022.81
523.778	46135.45
523.98	46475.41
524.181	47169.67
524.383	46997.64
524.584	47747.2
524.786	47599.74
524.988	46971.02
525.189	47761.53
525.391	48089.21
525.592	47888.51
525.794	48162.93
525.995	48187.51
526.197	47841.4
526.398	48087.16
526.6	47575.17
526.801	48042.1
527.003	47601.79
527.204	47564.93
527.406	47917.18
527.607	47136.9
527.808	47622.27
528.01	46588.05
528.211	46721.16
528.412	47075.46
528.614	46782.6
528.815	46016.66
529.016	46430.35
529.218	45498.53
529.419	45234.34
529.62	44501.17
529.822	44216.5
530.023	44406.96
530.224	43600.06
530.425	43038.92
530.626	42686.67
530.828	42084.56
531.029	42571.98
531.23	41474.27
531.431	41396.45
531.632	41433.31
531.833	41011.43
532.035	40208.62
532.236	39942.39
532.437	38869.25
532.638	38506.76
532.839	38189.33
533.04	38164.75
533.241	37146.91
533.442	37585.18
533.643	36567.34
533.844	35905.84
534.045	35406.14
534.246	35234.11
534.447	34777.41
534.648	34376.01
534.849	33796.43
535.05	33042.78
535.251	33057.12
535.451	32508.26
535.652	32242.03
535.853	32020.84
536.054	31187.32
536.255	31259
536.456	30189.96
536.657	30572.93
536.857	29397.4
537.058	29184.41
537.259	28905.88
537.46	28635.55
537.66	27998.63
537.861	27953.58
538.062	27478.45
538.263	27220.41
538.463	26829.24
538.664	26456.51
538.865	25876.94
539.065	26018.25
539.266	25596.37
539.466	25397.71
539.667	24658.4
539.868	24801.75
540.068	24435.17
540.269	24170.98
540.469	23824.87
540.67	23355.89
540.87	23364.08
541.071	22931.96
541.271	22860.28
541.472	22206.98
541.672	22022.66
541.873	22012.42
542.073	21596.68
542.274	21651.98
542.474	21387.79
542.675	20978.2
542.875	20822.55
543.075	20361.76
543.276	20169.25
543.476	19966.5
543.676	19771.94
543.877	19968.55
544.077	19315.25
544.277	19388.97
544.478	18870.84
544.678	18985.52
544.878	18721.34
545.078	18434.62
545.279	17967.68
545.479	18041.41
545.679	18088.51
545.879	17553.99
546.079	17289.81
546.28	17132.11
546.48	16843.35
546.68	17039.95
546.88	16794.2
547.08	16314.97
547.28	16228.96
547.48	15792.74
547.68	15784.55
547.88	15735.4
548.081	15532.65
548.281	15192.69
548.481	15069.81
548.681	14899.83
548.881	14865.01
549.081	14742.13
549.28	14545.53
549.48	14158.46
549.68	14287.48
549.88	13900.42
550.08	13279.88
550.28	13548.17
550.48	13341.32
550.68	13124.24
550.88	12845.71
551.08	12704.4
551.279	12710.55
551.479	12362.39
551.679	12444.31
551.879	11842.21
552.079	11862.69
552.278	11532.97
552.478	11520.68
552.678	11393.7
552.878	11279.02
553.077	11031.21
553.277	10617.52
553.477	10697.39
553.676	10451.64
553.876	10295.99
554.076	10140.35
554.275	10207.93
554.475	9724.61
554.674	9761.47
554.874	9482.95
555.074	9269.96
555.273	9200.33
555.473	9149.13
555.672	8850.13
555.872	8692.43
556.071	8698.58
556.271	8628.95
556.47	8366.81
556.67	8229.59
556.869	8078.04
557.068	7994.08
557.268	7752.42
557.467	7707.36
557.667	7801.57
557.866	7760.61
558.065	7387.88
558.265	7088.87
558.464	7039.72
558.663	7154.41
558.863	6669.04
559.062	6931.18
559.261	6497.01
559.461	6681.33
559.66	6456.05
559.859	6449.91
560.058	6157.05
560.258	6087.42
560.457	6169.34
560.656	6179.58
560.855	5765.89
561.054	5833.47
561.253	5567.23
561.453	5495.55
561.652	5677.82
561.851	5595.9
562.05	5298.95
562.249	4981.51
562.448	5194.5
562.647	4958.99
562.846	5004.04
563.045	5139.21
563.244	4930.31
563.443	4858.64
563.642	4686.61
563.841	4786.96
564.04	4526.86
564.239	4573.97
564.438	4403.99
564.637	4426.51
564.836	4236.05
565.035	4170.52
565.234	4461.33
565.432	4006.68
565.631	4127.51
565.83	4193.05
566.029	3871.51
566.228	3859.23
566.427	3980.06
566.625	3740.44
566.824	3765.02
567.023	3601.18
567.222	3615.52
567.42	3582.75
567.619	3580.7
567.818	3545.89
568.016	3490.59
568.215	3400.48
568.414	3353.38
568.612	3371.81
568.811	3175.2
569.01	3201.83
569.208	3056.42
569.407	3081
569.605	2984.74
569.804	2894.63
570.002	2937.64
570.201	2892.59
570.4	3085.09
570.598	2634.54
570.797	2722.6
570.995	2700.08
571.193	2698.03
571.392	2571.05
571.59	2566.96
571.789	2599.73
571.987	2542.38
572.186	2523.95
572.384	2364.21
572.582	2417.46
572.781	2493.23
572.979	2169.65
573.177	2276.15
573.376	2227
573.574	2251.57
573.772	2153.27
573.971	2173.75
574.169	2130.74
574.367	2190.13
574.565	1981.24
574.763	2097.97
574.962	2024.25
575.16	1979.19
575.358	1917.75
575.556	1811.26
575.754	1911.61
575.952	1782.59
576.151	1866.55
576.349	1819.45
576.547	1639.23
576.745	1839.93
576.943	1741.63
577.141	1579.84
577.339	1540.93
577.537	1567.55
577.735	1649.47
577.933	1596.22
578.131	1569.6
578.329	1604.41
578.527	1407.81
578.725	1559.36
578.923	1315.65
579.121	1403.71
579.319	1348.42
579.516	1340.22
579.714	1637.18
579.912	1446.72
580.11	1266.5
580.308	1241.92
580.506	1342.27
580.704	1078.08
580.901	1237.83
581.099	1450.82
581.297	1211.2
581.495	1211.2
581.692	1147.72
581.89	1327.94
582.088	1203.01
582.285	1139.52
582.483	1035.08
582.681	1059.65
582.878	1106.76
583.076	983.88
583.274	1119.04
583.471	1170.24
583.669	990.02
583.866	893.77
584.064	854.86
584.262	881.48
584.459	934.73
584.657	1000.26
584.854	1092.42
585.052	973.64
585.249	947.01
585.447	1002.31
585.644	846.66
585.841	977.73
586.039	875.34
586.236	910.15
586.434	768.84
586.631	795.47
586.828	807.75
587.026	848.71
587.223	762.7
587.42	738.12
587.618	807.75
587.815	877.38
588.012	684.87
588.21	699.21
588.407	830.28
588.604	805.71
588.801	639.82
588.999	715.59
589.196	791.37
589.393	725.83
589.59	688.97
589.787	660.3
589.984	727.88
590.182	674.64
590.379	607.05
590.576	637.77
590.773	674.64
590.97	627.53
591.167	707.4
591.364	695.11
591.561	615.24
591.758	787.27
591.955	676.68
592.152	652.11
592.349	613.2
592.546	543.57
592.743	600.91
592.94	641.87
593.137	740.17
593.334	738.12
593.531	629.58
593.727	748.36
593.924	607.05
594.121	664.4
594.318	596.81
594.515	672.59
594.712	822.09
594.908	795.47
595.105	551.76
595.302	731.98
595.499	723.79
595.696	805.71
595.892	631.63
596.089	727.88
596.286	578.38
596.482	944.97
596.679	748.36
596.876	680.78
597.072	875.34
597.269	828.23
597.466	797.51
597.662	875.34
597.859	893.77
598.055	924.49
598.252	998.21
598.448	969.54
598.645	1028.93
598.841	1030.98
599.038	1301.31
599.234	1108.8
599.431	1135.43
599.627	1301.31
599.824	1309.51
600.02	1282.88
600.217	1258.31
600.413	1422.14
600.609	1407.81
600.806	1719.1
601.002	1592.13
601.198	1555.26
601.395	1647.42
601.591	1772.35
601.787	1792.83
601.984	1956.66
602.18	1927.99
602.376	1923.9
602.572	2153.27
602.769	2310.96
602.965	2181.94
603.161	2227
603.357	2364.21
603.553	2626.35
603.75	2450.22
603.946	2671.4
604.142	2638.64
604.338	2954.02
604.534	2855.72
604.73	2972.46
604.926	3062.57
605.122	3330.85
605.318	3416.87
605.514	3461.92
605.71	3476.26
605.906	3562.27
606.102	3734.3
606.298	3857.18
606.494	3988.25
606.69	4162.33
606.886	4037.4
607.082	4127.51
607.278	4389.65
607.474	4608.78
607.67	4739.85
607.866	4682.51
608.062	4913.93
608.257	5051.14
608.453	5073.67
608.649	5229.32
608.845	5430.02
609.041	5593.86
609.236	5794.56
609.432	6060.79
609.628	5989.11
609.824	6212.34
610.019	6415.09
610.215	6597.36
610.411	6693.62
610.606	6984.43
610.802	7013.1
610.998	7064.3
611.193	7574.24
611.389	7480.04
611.584	7883.49
611.78	7885.53
611.976	8024.79
612.171	8542.93
612.367	8772.3
612.562	8854.22
612.758	9124.55
612.953	9292.49
613.149	9732.8
613.344	9685.7
613.539	10091.2
613.735	10369.72
613.93	10642.1
614.126	10797.74
614.321	11215.53
614.517	11434.66
614.712	11750.05
614.907	11971.23
615.103	12266.14
615.298	12647.06
615.493	13148.81
615.688	13009.55
615.884	13791.87
616.079	13965.95
616.274	14158.46
616.47	14471.8
616.665	14957.17
616.86	15420.01
617.055	15538.79
617.25	15911.52
617.445	16460.38
617.641	16587.35
617.836	17119.82
618.031	17187.41
618.226	18082.37
618.421	18563.64
618.616	19069.49
618.811	19223.09
619.006	19984.93
619.201	20001.32
619.396	20785.69
619.591	20861.46
619.786	21774.86
619.981	21834.25
620.176	22639.1
620.371	22520.32
620.566	23355.89
620.761	23820.78
620.956	24429.02
621.151	24168.93
621.346	25467.34
621.541	25661.9
621.735	26264
621.93	26325.44
622.125	27128.25
622.32	27150.78
622.515	28180.9
622.709	28553.63
622.904	29084.06
623.099	29454.74
623.294	29753.74
623.488	30290.31
623.683	31000.96
623.878	30984.57
624.072	31867.25
624.267	32485.73
624.462	33106.27
624.656	33341.78
624.851	34099.53
625.046	34341.19
625.24	35123.52
625.435	35215.68
625.629	35805.49
625.824	36407.59
626.018	36794.66
626.213	36903.2
626.407	37290.27
626.602	37568.79
626.796	38502.67
626.991	38668.55
627.185	38422.8
627.38	38816.01
627.574	39045.38
627.768	39444.73
627.963	39117.06
628.157	39422.2
628.352	40143.09
628.546	39639.29
628.74	40265.97
628.935	39565.56
629.129	39809.27
629.323	39385.34
629.517	39385.34
629.712	39139.58
629.906	38916.36
630.1	38168.85
630.294	38279.44
630.489	37243.17
630.683	37130.53
630.877	36116.78
631.071	35367.23
631.265	35141.95
631.459	34595.14
631.653	33460.57
631.848	33061.21
632.042	32323.94
632.236	31830.38
632.43	30667.14
632.624	29618.58
632.818	28737.95
633.012	27550.13
633.206	26915.26
633.4	26307.01
633.594	25147.86
633.788	24523.23
633.982	23704.04
634.176	23099.89
634.369	22088.2
634.563	21037.59
634.757	20171.3
634.951	19753.51
635.145	19012.15
635.339	17949.25
635.533	17207.89
635.726	16896.6
635.92	15843.94
636.114	15235.69
636.308	14445.18
636.501	14180.99
636.695	13589.13
636.889	13048.46
637.083	12470.94
637.276	11850.4
637.47	11426.47
637.664	10842.8
637.857	10697.39
638.051	9984.7
638.244	9620.16
638.438	9239.24
638.632	8911.57
638.825	8262.36
639.019	8127.19
639.212	7860.96
639.406	7586.53
639.599	7314.15
639.793	6961.9
639.986	6585.07
640.18	6753.01
640.373	6136.57
640.567	5939.96
640.76	5944.06
640.954	5616.38
641.147	5212.93
641.34	5038.86
641.534	4991.75
641.727	4817.68
641.92	4537.1
642.114	4385.55
642.307	4164.37
642.5	4025.11
642.694	3935
642.887	3767.07
643.08	3679.01
643.273	3580.7
643.467	3263.27
643.66	3183.4
643.853	3046.18
644.046	2992.94
644.239	2753.32
644.432	2517.81
644.626	2464.56
644.819	2482.99
645.012	2370.35
645.205	2290.48
645.398	2345.78
645.591	2276.15
645.784	1971
645.977	2024.25
646.17	1903.42
646.363	1950.52
646.556	1741.63
646.749	1749.82
646.942	1497.92
647.135	1639.23
647.328	1502.01
647.521	1467.2
647.714	1405.76
647.907	1450.82
648.099	1215.3
648.292	1348.42
648.485	1186.63
648.678	1102.66
648.871	1043.27
649.064	1108.8
649.256	967.49
649.449	981.83
649.642	852.81
649.835	936.78
650.027	858.95
650.22	961.35
650.413	822.09
650.605	846.66
650.798	709.45
650.991	897.86
651.183	883.53
651.376	805.71
651.568	742.22
651.761	658.25
651.954	682.83
652.146	592.72
652.339	662.35
652.531	623.44
652.724	516.94
652.916	545.61
653.109	377.68
653.301	703.31
653.494	533.33
653.686	512.85
653.879	715.59
654.071	537.42
654.263	414.54
654.456	295.76
654.648	541.52
654.84	488.27
655.033	408.4
655.225	465.74
655.417	250.71
655.61	523.09
655.802	469.84
655.994	447.31
656.186	330.58
656.379	469.84
656.571	394.06
656.763	318.29
656.955	291.66
657.148	357.2
657.34	400.21
657.532	238.42
657.724	326.48
657.916	334.67
658.108	478.03
658.3	244.56
658.492	308.05
658.684	191.31
658.876	338.77
659.068	219.99
659.26	172.88
659.452	232.27
659.644	322.38
659.836	400.21
660.028	250.71
660.22	170.83
660.412	185.17
660.604	234.32
660.796	238.42
660.988	306
661.18	215.89
661.372	308.05
661.563	250.71
661.755	260.95
661.947	115.54
662.139	158.55
662.331	189.27
662.522	242.51
662.714	156.5
662.906	121.68
663.097	168.79
663.289	150.36
663.481	136.02
663.673	238.42
663.864	156.5
664.056	215.89
664.247	164.69
664.439	277.33
664.631	181.07
664.822	244.56
665.014	166.74
665.205	105.3
665.397	129.88
665.588	213.84
665.78	156.5
665.971	252.75
666.163	119.64
666.354	179.03
666.546	99.16
666.737	123.73
666.929	140.12
667.12	95.06
667.311	191.31
667.503	172.88
667.694	146.26
667.885	199.51
668.077	219.99
668.268	90.96
668.459	162.64
668.651	222.03
668.842	265.04
669.033	109.4
669.224	103.25
669.416	377.68
669.607	111.44
669.798	154.45
669.989	248.66
670.18	185.17
670.371	213.84
670.563	99.16
670.754	303.95
670.945	320.34
671.136	258.9
671.327	70.48
671.518	248.66
671.709	258.9
671.9	283.47
672.091	283.47
672.282	121.68
672.473	228.18
672.664	142.16
672.855	129.88
673.046	185.17
673.237	254.8
673.428	238.42
673.619	260.95
673.809	172.88
674	203.6
674.191	256.85
674.382	154.45
674.573	207.7
674.764	246.61
674.954	299.86
675.145	158.55
675.336	117.59
675.527	195.41
675.717	168.79
675.908	101.2
676.099	236.37
676.289	201.55
676.48	62.29
676.671	197.46
676.861	172.88
677.052	254.8
677.243	269.14
677.433	154.45
677.624	316.24
677.814	328.53
678.005	146.26
678.195	355.15
678.386	236.37
678.576	224.08
678.767	136.02
678.957	209.75
679.148	330.58
679.338	400.21
679.529	332.62
679.719	232.27
679.909	336.72
680.1	260.95
680.29	349.01
680.481	203.6
680.671	303.95
680.861	277.33
681.052	346.96
681.242	285.52
681.432	314.19
681.622	332.62
681.813	172.88
682.003	258.9
682.193	240.47
682.383	306
682.573	281.43
682.764	258.9
682.954	279.38
683.144	369.49
683.334	258.9
683.524	377.68
683.714	351.06
683.904	392.02
684.094	271.19
684.284	336.72
684.474	463.69
684.664	346.96
684.854	371.54
685.044	346.96
685.234	394.06
685.424	369.49
685.614	222.03
685.804	398.16
685.994	342.86
686.184	244.56
686.374	363.34
686.564	353.1
686.753	379.73
686.943	269.14
687.133	306
687.323	392.02
687.513	369.49
687.702	297.81
687.892	373.58
688.082	375.63
688.272	443.21
688.461	365.39
688.651	521.04
688.841	435.02
689.03	375.63
689.22	293.71
689.41	375.63
689.599	375.63
689.789	262.99
689.979	437.07
690.168	412.5
690.358	392.02
690.547	406.35
690.737	392.02
690.926	342.86
691.116	445.26
691.305	469.84
691.495	377.68
691.684	273.23
691.874	293.71
692.063	355.15
692.252	457.55
692.442	432.97
692.631	279.38
692.82	371.54
693.01	369.49
693.199	316.24
693.388	412.5
693.578	279.38
693.767	404.3
693.956	416.59
694.146	217.94
694.335	355.15
694.524	330.58
694.713	430.93
694.902	312.14
695.092	340.82
695.281	361.3
695.47	351.06
695.659	332.62
695.848	299.86
696.037	203.6
696.226	402.26
696.415	367.44
696.604	492.37
696.793	420.69
696.982	273.23
697.171	510.8
697.36	342.86
697.549	314.19
697.738	242.51
697.927	303.95
698.116	195.41
698.305	324.43
698.494	359.25
698.683	316.24
698.872	447.31
699.061	363.34
699.25	256.85
699.438	332.62
699.627	328.53
699.816	461.65
700.005	226.13
700.193	275.28
700.382	406.35
700.571	373.58
700.76	260.95
700.948	394.06
701.137	375.63
701.326	344.91
701.514	256.85
701.703	314.19
701.892	377.68
702.08	463.69
702.269	349.01
702.457	310.1
702.646	326.48
702.834	336.72
703.023	385.87
703.212	402.26
703.4	312.14
703.589	271.19
703.777	273.23
703.965	295.76
704.154	346.96
704.342	277.33
704.531	295.76
704.719	338.77
704.907	402.26
705.096	258.9
705.284	238.42
705.472	369.49
705.661	308.05
705.849	328.53
706.037	430.93
706.226	308.05
706.414	340.82
706.602	244.56
706.79	349.01
706.979	318.29
707.167	342.86
707.355	197.46
707.543	289.62
707.731	320.34
707.919	389.97
708.107	332.62
708.296	279.38
708.484	219.99
708.672	418.64
708.86	373.58
709.048	320.34
709.236	273.23
709.424	283.47
709.612	334.67
709.8	211.79
709.988	336.72
710.176	369.49
710.364	387.92
710.551	295.76
710.739	342.86
710.927	322.38
711.115	400.21
711.303	435.02
711.491	410.45
711.679	267.09
711.866	398.16
712.054	314.19
712.242	338.77
712.43	357.2
712.617	351.06
712.805	449.36
712.993	359.25
713.181	318.29
713.368	326.48
713.556	351.06
713.744	293.71
713.931	469.84
714.119	396.11
714.306	322.38
714.494	344.91
714.682	369.49
714.869	222.03
715.057	289.62
715.244	349.01
715.432	430.93
715.619	306
715.807	426.83
715.994	381.78
716.182	277.33
716.369	441.17
716.556	383.82
716.744	195.41
716.931	328.53
717.119	439.12
717.306	408.4
717.493	359.25
717.681	283.47
717.868	349.01
718.055	389.97
718.242	271.19
718.43	273.23
718.617	478.03
718.804	340.82
718.991	400.21
719.179	412.5
719.366	443.21
719.553	322.38
719.74	289.62
719.927	265.04
720.114	357.2
720.301	271.19
720.488	334.67
720.676	322.38
720.863	422.73
721.05	518.99
721.237	375.63
721.424	414.54
721.611	396.11
721.798	283.47
721.985	310.1
722.172	439.12
722.358	219.99
722.545	451.41
722.732	359.25
722.919	514.89
723.106	445.26
723.293	400.21
723.48	453.45
723.667	330.58
723.853	414.54
724.04	449.36
724.227	473.93
724.414	416.59
724.6	408.4
724.787	387.92
724.974	510.8
725.161	455.5
725.347	383.82
725.534	445.26
725.72	424.78
725.907	525.13
726.094	465.74
726.28	441.17
726.467	406.35
726.653	326.48
726.84	537.42
727.027	521.04
727.213	414.54
727.4	394.06
727.586	531.28
727.773	453.45
727.959	402.26
728.145	398.16
728.332	469.84
728.518	371.54
728.705	465.74
728.891	430.93
729.077	445.26
729.264	265.04
729.45	457.55
729.636	459.6
729.823	449.36
730.009	492.37
730.195	379.73
730.382	418.64
730.568	369.49
730.754	435.02
730.94	416.59
731.126	445.26
731.313	508.75
731.499	510.8
731.685	480.08
731.871	469.84
732.057	447.31
732.243	428.88
732.429	408.4
732.615	588.62
732.801	418.64
732.987	400.21
733.173	422.73
733.359	387.92
733.545	441.17
733.731	385.87
733.917	500.56
734.103	463.69
734.289	426.83
734.475	385.87
734.661	641.87
734.847	467.79
735.033	463.69
735.219	523.09
735.404	400.21
735.59	418.64
735.776	445.26
735.962	439.12
736.148	521.04
736.333	557.9
736.519	396.11
736.705	545.61
736.89	439.12
737.076	490.32
737.262	447.31
737.447	410.45
737.633	371.54
737.819	508.75
738.004	465.74
738.19	488.27
738.375	486.22
738.561	510.8
738.747	471.89
738.932	351.06
739.118	617.29
739.303	496.46
739.489	514.89
739.674	426.83
739.859	389.97
740.045	535.37
740.23	471.89
740.416	332.62
740.601	484.17
740.786	435.02
740.972	414.54
741.157	369.49
741.342	420.69
741.528	359.25
741.713	504.65
741.898	367.44
742.084	508.75
742.269	475.98
742.454	562
742.639	430.93
742.824	392.02
743.01	600.91
743.195	576.33
743.38	396.11
743.565	486.22
743.75	459.6
743.935	492.37
744.12	584.52
744.305	303.95
744.49	432.97
744.675	420.69
744.86	379.73
745.045	535.37
745.23	373.58
745.415	418.64
745.6	543.57
745.785	453.45
745.97	549.71
746.155	439.12
746.34	463.69
746.525	424.78
746.71	445.26
746.895	310.1
747.079	424.78
747.264	359.25
747.449	432.97
747.634	482.13
747.819	502.61
748.003	469.84
748.188	332.62
748.373	363.34
748.557	482.13
748.742	478.03
748.927	406.35
749.111	414.54
749.296	379.73
749.481	478.03
749.665	406.35
749.85	373.58
750.034	400.21
750.219	404.3
750.404	324.43
750.588	428.88
750.773	303.95
750.957	293.71
751.141	322.38
751.326	410.45
751.51	349.01
751.695	373.58
751.879	373.58
752.064	510.8
752.248	385.87
752.432	424.78
752.617	441.17
752.801	389.97
752.985	295.76
753.17	426.83
753.354	383.82
753.538	412.5
753.722	326.48
753.907	346.96
754.091	236.37
754.275	394.06
754.459	244.56
754.643	209.75
754.828	322.38
755.012	334.67
755.196	297.81
755.38	351.06
755.564	242.51
755.748	250.71
755.932	312.14
756.116	330.58
756.3	293.71
756.484	215.89
756.668	326.48
756.852	172.88
757.036	205.65
757.22	224.08
757.404	246.61
757.588	373.58
757.772	357.2
757.956	236.37
758.14	414.54
758.323	232.27
758.507	349.01
758.691	219.99
758.875	326.48
759.059	361.3
759.242	205.65
759.426	265.04
759.61	285.52
759.794	207.7
759.977	334.67
760.161	379.73
760.345	381.78
760.528	262.99
760.712	250.71
760.895	242.51
761.079	207.7
761.263	174.93
761.446	158.55
761.63	129.88
761.813	303.95
761.997	168.79
762.18	213.84
762.364	226.13
762.547	133.97
762.731	203.6
762.914	179.03
763.098	213.84
763.281	183.12
763.464	172.88
763.648	238.42
763.831	193.36
764.015	172.88
764.198	316.24
764.381	242.51
764.564	199.51
764.748	224.08
764.931	172.88
765.114	176.98
765.297	254.8
765.481	174.93
765.664	238.42
765.847	187.22
766.03	250.71
766.213	172.88
766.397	158.55
766.58	54.1
766.763	240.47
766.946	183.12
767.129	123.73
767.312	99.16
767.495	146.26
767.678	107.35
767.861	117.59
768.044	150.36
768.227	74.58
768.41	140.12
768.593	219.99
768.776	162.64
768.959	103.25
769.142	279.38
769.324	166.74
769.507	148.31
769.69	187.22
769.873	97.11
770.056	336.72
770.239	133.97
770.421	244.56
770.604	193.36
770.787	123.73
770.97	224.08
771.152	72.53
771.335	172.88
771.518	127.83
771.7	164.69
771.883	240.47
772.066	68.44
772.248	181.07
772.431	256.85
772.613	152.4
772.796	166.74
772.978	142.16
773.161	258.9
773.343	60.24
773.526	47.96
773.708	11.09
773.891	27.48
774.073	119.64
774.256	140.12
774.438	185.17
774.621	95.06
774.803	236.37
774.985	111.44
775.168	258.9
775.35	111.44
775.532	142.16
775.715	78.68
775.897	240.47
776.079	136.02
776.261	166.74
776.444	74.58
776.626	72.53
776.808	156.5
776.99	4.95
777.173	-1.19
777.355	107.35
777.537	127.83
777.719	138.07
777.901	-3.24
778.083	78.68
778.265	-58.54
778.447	111.44
778.629	43.86
778.811	136.02
778.993	70.48
779.175	131.92
779.357	162.64
779.539	21.33
779.721	72.53
779.903	113.49
780.085	97.11
780.267	111.44
780.449	90.96
780.631	144.21
780.812	250.71
780.994	76.63
781.176	119.64
781.358	64.34
781.54	70.48
781.721	68.44
781.903	170.83
782.085	88.92
782.267	111.44
782.448	-3.24
782.63	2.9
782.812	86.87
782.993	136.02
783.175	101.2
783.357	11.09
783.538	117.59
783.72	-68.78
783.901	60.24
784.083	115.54
784.264	156.5
784.446	11.09
784.627	-21.67
784.809	62.29
784.99	4.95
785.172	172.88
785.353	74.58
785.535	21.33
785.716	25.43
785.897	-117.93
786.079	37.72
786.26	160.59
786.441	37.72
786.623	-23.72
786.804	-11.43
786.985	93.01
787.167	70.48
787.348	33.62
787.529	13.14
787.71	133.97
787.891	136.02
788.073	52.05
788.254	15.19
788.435	174.93
788.616	160.59
788.797	15.19
788.978	-7.34
789.159	-17.58
789.34	80.72
789.522	-9.39
789.703	17.24
789.884	97.11
790.065	35.67
790.246	219.99
790.427	25.43
790.607	148.31
790.788	93.01
790.969	-29.87
791.15	119.64
791.331	-27.82
791.512	21.33
791.693	15.19
791.874	-44.2
792.054	140.12
792.235	156.5
792.416	13.14
792.597	-48.3
792.778	103.25
792.958	33.62
793.139	7
793.32	90.96
793.5	-42.15
793.681	88.92
793.862	136.02
794.042	56.15
794.223	-33.96
794.404	19.29
794.584	-105.64
794.765	17.24
794.945	50
795.126	41.81
795.306	80.72
795.487	0.85
795.667	-5.29
795.848	70.48
796.028	-40.11
796.209	76.63
796.389	78.68
796.57	78.68
796.75	70.48
796.93	101.2
797.111	29.52
797.291	58.2
797.471	72.53
797.652	-31.91
797.832	-54.44
798.012	15.19
798.192	-3.24
798.373	-62.63
798.553	-33.96
798.733	74.58
798.913	-31.91
799.093	-23.72
799.274	107.35
799.454	117.59
799.634	90.96
799.814	58.2
799.994	-13.48
800.174	35.67
800.354	-33.96
800.534	-42.15
800.714	136.02
800.894	-93.35
801.074	-9.39
801.254	-23.72
801.434	74.58
801.614	25.43
801.794	-68.78
801.974	1729.34
802.154	-1.19
802.334	93.01
802.514	-79.02
802.693	7
802.873	-5.29
803.053	62.29
803.233	15.19
803.413	-1.19
803.592	-60.59
803.772	-113.83
803.952	50
804.131	-95.4
804.311	131.92
804.491	9.05
804.67	-21.67
804.85	41.81
805.03	29.52
805.209	144.21
805.389	7
805.568	-46.25
805.748	-9.39
805.928	-33.96
806.107	56.15
806.287	58.2
806.466	115.54
806.646	50
806.825	15.19
807.004	25.43
807.184	9.05
807.363	27.48
807.543	82.77
807.722	-5.29
807.901	43.86
808.081	119.64
808.26	-136.36
808.439	62.29
808.619	11.09
808.798	0.85
808.977	11.09
809.156	209.75
809.336	15.19
809.515	64.34
809.694	-36.01
809.873	-48.3
810.052	13.14
810.231	64.34
810.411	-9.39
810.59	144.21
810.769	50
810.948	140.12
811.127	-81.07
811.306	-3.24
811.485	-64.68
811.664	195.41
811.843	-29.87
812.022	72.53
812.201	0.85
812.38	-11.43
812.559	-11.43
812.737	88.92
812.916	-128.17
813.095	-29.87
813.274	58.2
813.453	45.91
813.632	27.48
813.811	62.29
813.989	-27.82
814.168	-31.91
814.347	-42.15
814.526	62.29
814.704	160.59
814.883	43.86
815.062	-72.87
815.24	88.92
815.419	-79.02
815.598	31.57
815.776	-144.55
815.955	-17.58
816.133	-68.78
816.312	9.05
816.49	-38.06
816.669	70.48
816.847	-38.06
817.026	84.82
817.204	11.09
817.383	-25.77
817.561	-33.96
817.74	27.48
817.918	62.29
818.097	-21.67
818.275	-42.15
818.453	56.15
818.632	60.24
818.81	23.38
818.988	-25.77
819.167	9.05
819.345	33.62
819.523	15.19
819.701	27.48
819.879	-33.96
820.058	31.57
820.236	7
820.414	43.86
820.592	-1.19
820.77	13.14
820.948	-23.72
821.127	15.19
821.305	107.35
821.483	-130.22
821.661	80.72
821.839	-7.34
822.017	-72.87
822.195	4.95
822.373	152.4
822.551	35.67
822.729	117.59
822.907	7
823.085	56.15
823.262	29.52
823.44	-9.39
823.618	-7.34
823.796	4.95
823.974	-1.19
824.152	-46.25
824.329	45.91
824.507	123.73
824.685	88.92
824.863	-23.72
825.04	62.29
825.218	31.57
825.396	7
825.574	31.57
825.751	27.48
825.929	80.72
826.107	-27.82
826.284	-27.82
826.462	90.96
826.639	2.9
826.817	25.43
826.994	19.29
827.172	-52.39
827.349	117.59
827.527	7
827.704	0.85
827.882	47.96
828.059	62.29
828.237	-52.39
828.414	11.09
828.591	-89.26
828.769	74.58
828.946	-60.59
829.124	72.53
829.301	41.81
829.478	13.14
829.655	11.09
829.833	-15.53
830.01	-156.84
830.187	-54.44
830.364	23.38
830.542	19.29
830.719	156.5
830.896	-42.15
831.073	25.43
831.25	-31.91
831.427	25.43
831.604	13.14
831.782	-93.35
831.959	31.57
832.136	-42.15
832.313	-3.24
832.49	-56.49
832.667	84.82
832.844	-48.3
833.021	97.11
833.198	23.38
833.374	56.15
833.551	4.95
833.728	-21.67
833.905	136.02
834.082	-122.02
834.259	-13.48
834.436	86.87
834.612	-91.31
834.789	84.82
834.966	-52.39
835.143	84.82
835.319	-33.96
835.496	68.44
835.673	9.05
835.85	82.77
836.026	39.76
836.203	64.34
836.38	-42.15
836.556	0.85
836.733	-29.87
836.909	119.64
837.086	-40.11
837.262	-201.9
837.439	33.62
837.616	-60.59
837.792	-3.24
837.968	-15.53
838.145	-19.63
838.321	-31.91
838.498	54.1
838.674	66.39
838.851	15.19
839.027	13.14
839.203	-48.3
839.38	21.33
839.556	0.85
839.732	39.76
839.909	21.33
840.085	70.48
840.261	-50.35
840.437	37.72
840.614	-64.68
840.79	90.96
840.966	72.53
841.142	54.1
841.318	-31.91
841.494	-19.63
841.671	13.14
841.847	-44.2
842.023	-158.89
842.199	-29.87
842.375	109.4
842.551	-111.78
842.727	-85.16
842.903	160.59
843.079	-113.83
843.255	109.4
843.431	-58.54
843.607	27.48
843.783	-138.41
843.959	52.05
844.134	-62.63
844.31	117.59
844.486	-52.39
844.662	-62.63
844.838	15.19
845.013	37.72
845.189	84.82
845.365	23.38
845.541	41.81
845.716	-62.63
845.892	31.57
846.068	-48.3
846.244	56.15
846.419	-7.34
846.595	-109.74
846.77	-68.78
846.946	78.68
847.122	-7.34
847.297	-81.07
847.473	103.25
847.648	-60.59
847.824	50
847.999	-111.78
848.175	-29.87
848.35	13.14
848.526	93.01
848.701	17.24
848.876	56.15
849.052	76.63
849.227	41.81
849.403	-42.15
849.578	-27.82
849.753	7
849.929	-23.72
850.104	-52.39
850.279	-54.44
850.454	50
850.63	17.24
850.805	21.33
850.98	0.85
851.155	41.81
851.33	58.2
851.505	-76.97
851.681	54.1
851.856	-117.93
852.031	60.24
852.206	-25.77
852.381	-79.02
852.556	-25.77
852.731	-7.34
852.906	41.81
853.081	9.05
853.256	105.3
853.431	-46.25
853.606	-76.97
853.781	-13.48
853.956	-87.21
854.131	0.85
854.305	-124.07
854.48	-17.58
854.655	-76.97
854.83	-91.31
855.005	-29.87
855.18	-15.53
855.354	13.14
855.529	2.9
855.704	-21.67
855.879	33.62
856.053	-25.77
856.228	43.86
856.403	-117.93
856.577	-9.39
856.752	-72.87
856.926	-42.15
857.101	68.44
857.276	-74.92
857.45	56.15
857.625	88.92
857.799	-21.67
857.974	37.72
858.148	-13.48
858.323	17.24
858.497	-44.2
858.672	-9.39
858.846	-70.83
859.02	142.16
859.195	-74.92
859.369	-27.82
859.543	-46.25
859.718	76.63
859.892	-27.82
860.066	-109.74
860.241	-11.43
860.415	-62.63
860.589	9.05
860.763	56.15
860.938	-19.63
861.112	111.44
861.286	-19.63
861.46	11.09
861.634	-7.34
861.808	21.33
861.982	-58.54
862.157	-109.74
862.331	-58.54
862.505	-99.5
862.679	-66.73
862.853	-89.26
863.027	-83.11
863.201	74.58
863.375	-56.49
863.549	2.9
863.722	9.05
863.896	56.15
864.07	-44.2
864.244	-36.01
864.418	29.52
864.592	45.91
864.766	-66.73
864.939	-33.96
865.113	-134.31
865.287	107.35
865.461	-93.35
865.634	27.48
865.808	74.58
865.982	-40.11
866.156	-93.35
866.329	-132.26
866.503	-64.68
866.676	62.29
866.85	35.67
867.024	-31.91
867.197	119.64
867.371	-15.53
867.544	60.24
867.718	-175.27
867.891	113.49
868.065	-119.98
868.238	43.86
868.412	68.44
868.585	-5.29
868.759	-46.25
868.932	0.85
869.105	-42.15
869.279	-95.4
869.452	-103.59
869.625	117.59
869.799	-66.73
869.972	-46.25
870.145	25.43
870.319	70.48
870.492	-81.07
870.665	-27.82
870.838	-68.78
871.011	-126.12
871.185	-36.01
871.358	-126.12
871.531	37.72
871.704	-68.78
871.877	-9.39
872.05	31.57
872.223	-1.19
872.396	-15.53
872.569	84.82
872.742	-25.77
872.915	-38.06
873.088	29.52
873.261	-81.07
873.434	76.63
873.607	33.62
873.78	43.86
873.953	-70.83
874.126	58.2
874.299	76.63
874.471	-25.77
874.644	-33.96
874.817	103.25
874.99	70.48
875.163	-50.35
875.335	47.96
875.508	-60.59
875.681	72.53
875.853	0.85
876.026	-62.63
876.199	41.81
876.371	19.29
876.544	37.72
876.717	29.52
876.889	-44.2
877.062	-1.19
877.234	-36.01
877.407	-21.67
877.579	31.57
877.752	-13.48
877.924	31.57
878.097	-3.24
878.269	-3.24
878.442	4.95
878.614	25.43
878.786	-29.87
878.959	50
879.131	82.77
879.303	-109.74
879.476	7
879.648	4.95
879.82	47.96
879.993	-33.96
880.165	-33.96
880.337	-87.21
880.509	-13.48
880.681	-23.72
880.854	-68.78
881.026	123.73
881.198	129.88
881.37	11.09
881.542	19.29
881.714	-46.25
881.886	-9.39
882.058	-62.63
882.23	127.83
882.402	-9.39
882.574	-7.34
882.746	21.33
882.918	74.58
883.09	-3.24
883.262	-36.01
883.434	35.67
883.606	-95.4
883.778	41.81
883.95	78.68
884.122	37.72
884.293	82.77
884.465	-19.63
884.637	62.29
884.809	-70.83
884.98	58.2
885.152	-21.67
885.324	23.38
885.496	-85.16
885.667	13.14
885.839	0.85
886.011	107.35
886.182	35.67
886.354	35.67
886.525	82.77
886.697	7
886.869	-85.16
887.04	-1.19
887.212	105.3
887.383	90.96
887.555	-38.06
887.726	-68.78
887.897	-3.24
888.069	-79.02
888.24	-5.29
888.412	23.38
888.583	-46.25
888.754	7
888.926	-119.98
889.097	-15.53
889.268	-36.01
889.44	-5.29
889.611	-134.31
889.782	-117.93
889.953	-3.24
890.125	88.92
890.296	-42.15
890.467	-124.07
890.638	-50.35
890.809	-7.34
890.98	-107.69
891.151	41.81
891.323	127.83
891.494	-48.3
891.665	-29.87
891.836	64.34
892.007	39.76
892.178	-3.24
892.349	4.95
892.52	-85.16
892.691	-72.87
892.862	-56.49
893.032	-124.07
893.203	-62.63
893.374	0.85
893.545	88.92
893.716	-111.78
893.887	70.48
894.057	-91.31
894.228	-52.39
894.399	-62.63
894.57	88.92
894.74	0.85
894.911	-17.58
895.082	-109.74
895.253	-122.02
895.423	-60.59
895.594	-9.39
895.764	21.33
895.935	-11.43
896.106	76.63
896.276	-76.97
896.447	-25.77
896.617	-36.01
896.788	17.24
896.958	-40.11
897.129	-83.11
897.299	-109.74
897.47	39.76
897.64	7
897.81	-48.3
897.981	-9.39
898.151	-105.64
898.322	-68.78
898.492	15.19
898.662	-54.44
898.832	15.19
899.003	-44.2
899.173	-11.43
899.343	-97.45
899.513	-48.3
