Data from USB4F104151__95__11-31-46-258.txt Node

Date: Wed Feb 26 11:31:46 EST 2025
User: louis
Spectrometer: USB4F10415
Trigger mode: 4
Integration Time (sec): 1.000000E-1
Scans to average: 1
Electric dark correction enabled: true
Nonlinearity correction enabled: false
Boxcar width: 0
XAxis mode: Wavelengths
Number of Pixels in Spectrum: 3648
>>>>>Begin Spectral Data<<<<<
178.204	-409.94
178.424	-409.94
178.644	-409.94
178.864	-436.56
179.084	-340.3
179.304	42.67
179.524	-78.16
179.744	-24.92
179.964	34.47
180.184	-4.44
180.404	87.72
180.624	-29.01
180.844	20.14
181.064	-35.16
181.283	9.9
181.503	-53.59
181.723	30.38
181.943	-86.36
182.163	149.16
182.383	48.81
182.602	24.23
182.822	163.5
183.042	67.24
183.262	-29.01
183.482	-18.77
183.701	77.48
183.921	52.91
184.141	-16.73
184.361	48.81
184.58	-4.44
184.8	32.43
185.02	-72.02
185.239	145.06
185.459	52.91
185.679	138.92
185.898	-65.88
186.118	54.95
186.338	106.15
186.557	38.57
186.777	-43.35
186.997	36.52
187.216	108.2
187.436	202.41
187.655	61.1
187.875	132.78
188.095	67.24
188.314	83.63
188.534	104.11
188.753	-22.87
188.973	73.39
189.192	226.98
189.412	38.57
189.631	42.67
189.851	-6.49
190.07	161.45
190.29	-8.53
190.509	-86.36
190.729	50.86
190.948	130.73
191.168	202.41
191.387	42.67
191.607	-22.87
191.826	52.91
192.045	28.33
192.265	-12.63
192.484	65.19
192.704	5.8
192.923	-55.64
193.142	161.45
193.362	83.63
193.581	126.63
193.8	71.34
194.02	22.19
194.239	20.14
194.458	40.62
194.678	69.29
194.897	-14.68
195.116	112.3
195.335	75.43
195.555	75.43
195.774	26.28
195.993	83.63
196.212	32.43
196.432	-29.01
196.651	34.47
196.87	38.57
197.089	229.03
197.308	-4.44
197.528	50.86
197.747	-45.4
197.966	36.52
198.185	145.06
198.404	7.85
198.623	61.1
198.842	122.54
199.062	140.97
199.281	181.93
199.5	30.38
199.719	11.95
199.938	71.34
200.157	71.34
200.376	122.54
200.595	77.48
200.814	30.38
201.033	63.15
201.252	251.56
201.471	11.95
201.69	108.2
201.909	69.29
202.128	212.65
202.347	65.19
202.566	83.63
202.785	-8.53
203.004	44.71
203.223	292.52
203.442	24.23
203.661	-16.73
203.879	85.67
204.098	100.01
204.317	-10.58
204.536	165.54
204.755	65.19
204.974	89.77
205.193	32.43
205.411	124.58
205.63	77.48
205.849	32.43
206.068	28.33
206.287	-51.54
206.505	179.88
206.724	18.09
206.943	20.14
207.162	-6.49
207.381	59.05
207.599	40.62
207.818	104.11
208.037	-22.87
208.255	100.01
208.474	65.19
208.693	159.4
208.911	-8.53
209.13	138.92
209.349	48.81
209.567	120.49
209.786	63.15
210.005	75.43
210.223	57
210.442	-115.03
210.661	16.04
210.879	114.34
211.098	44.71
211.316	57
211.535	59.05
211.753	46.76
211.972	40.62
212.191	-6.49
212.409	22.19
212.628	77.48
212.846	-14.68
213.065	24.23
213.283	48.81
213.502	24.23
213.72	50.86
213.938	65.19
214.157	26.28
214.375	81.58
214.594	11.95
214.812	102.06
215.031	20.14
215.249	32.43
215.467	57
215.686	69.29
215.904	59.05
216.122	52.91
216.341	138.92
216.559	73.39
216.778	110.25
216.996	149.16
217.214	5.8
217.432	32.43
217.651	-63.83
217.869	22.19
218.087	67.24
218.306	-53.59
218.524	126.63
218.742	-6.49
218.96	112.3
219.179	40.62
219.397	1.71
219.615	269.99
219.833	87.72
220.051	11.95
220.27	130.73
220.488	122.54
220.706	83.63
220.924	-22.87
221.142	11.95
221.36	93.87
221.578	83.63
221.796	65.19
222.015	93.87
222.233	65.19
222.451	134.82
222.669	-53.59
222.887	63.15
223.105	-12.63
223.323	16.04
223.541	-8.53
223.759	-22.87
223.977	73.39
224.195	216.74
224.413	38.57
224.631	104.11
224.849	3.75
225.067	257.7
225.285	-88.4
225.503	-33.11
225.721	-88.4
225.939	3.75
226.157	36.52
226.375	196.26
226.592	-41.3
226.81	13.99
227.028	102.06
227.246	116.39
227.464	24.23
227.682	89.77
227.9	128.68
228.117	34.47
228.335	65.19
228.553	-6.49
228.771	18.09
228.989	61.1
229.206	42.67
229.424	59.05
229.642	36.52
229.86	-12.63
230.077	169.64
230.295	57
230.513	89.77
230.731	48.81
230.948	204.46
231.166	136.87
231.384	-22.87
231.601	3.75
231.819	226.98
232.037	-14.68
232.254	7.85
232.472	46.76
232.689	-20.82
232.907	106.15
233.125	34.47
233.342	-10.58
233.56	32.43
233.777	63.15
233.995	11.95
234.213	77.48
234.43	130.73
234.648	65.19
234.865	-12.63
235.083	65.19
235.3	89.77
235.518	48.81
235.735	147.11
235.953	112.3
236.17	5.8
236.388	28.33
236.605	67.24
236.822	54.95
237.04	208.55
237.257	28.33
237.475	-104.79
237.692	-20.82
237.909	65.19
238.127	40.62
238.344	100.01
238.562	-26.96
238.779	5.8
238.996	-112.98
239.214	104.11
239.431	128.68
239.648	18.09
239.865	38.57
240.083	106.15
240.3	24.23
240.517	-10.58
240.735	93.87
240.952	73.39
241.169	28.33
241.386	104.11
241.603	36.52
241.821	7.85
242.038	91.82
242.255	120.49
242.472	-10.58
242.689	110.25
242.907	73.39
243.124	22.19
243.341	52.91
243.558	-53.59
243.775	7.85
243.992	-53.59
244.209	157.35
244.426	134.82
244.643	59.05
244.86	59.05
245.078	102.06
245.295	77.48
245.512	79.53
245.729	22.19
245.946	104.11
246.163	59.05
246.38	26.28
246.597	138.92
246.814	65.19
247.031	-49.49
247.248	-12.63
247.464	116.39
247.681	34.47
247.898	102.06
248.115	159.4
248.332	104.11
248.549	104.11
248.766	140.97
248.983	59.05
249.2	52.91
249.417	34.47
249.633	-100.69
249.85	87.72
250.067	11.95
250.284	-8.53
250.501	93.87
250.717	102.06
250.934	-47.44
251.151	9.9
251.368	89.77
251.585	30.38
251.801	81.58
252.018	-41.3
252.235	81.58
252.451	-69.97
252.668	18.09
252.885	108.2
253.102	73.39
253.318	44.71
253.535	65.19
253.752	-59.73
253.968	36.52
254.185	-6.49
254.401	106.15
254.618	122.54
254.835	-26.96
255.051	112.3
255.268	16.04
255.484	34.47
255.701	44.71
255.917	57
256.134	1.71
256.351	34.47
256.567	-14.68
256.784	32.43
257	-80.21
257.217	130.73
257.433	-61.78
257.65	87.72
257.866	177.83
258.082	11.95
258.299	75.43
258.515	65.19
258.732	42.67
258.948	-49.49
259.165	-12.63
259.381	-43.35
259.597	188.07
259.814	61.1
260.03	24.23
260.246	36.52
260.463	95.91
260.679	124.58
260.895	67.24
261.112	-4.44
261.328	114.34
261.544	-24.92
261.761	110.25
261.977	-90.45
262.193	-33.11
262.409	91.82
262.626	97.96
262.842	-2.39
263.058	13.99
263.274	85.67
263.49	-14.68
263.707	77.48
263.923	155.3
264.139	87.72
264.355	-14.68
264.571	130.73
264.787	95.91
265.004	108.2
265.22	63.15
265.436	-2.39
265.652	36.52
265.868	75.43
266.084	-35.16
266.3	36.52
266.516	-26.96
266.732	28.33
266.948	63.15
267.164	32.43
267.38	63.15
267.596	61.1
267.812	214.7
268.028	-26.96
268.244	22.19
268.46	61.1
268.676	32.43
268.892	175.78
269.108	-8.53
269.324	97.96
269.54	22.19
269.756	63.15
269.972	3.75
270.188	108.2
270.403	-55.64
270.619	3.75
270.835	93.87
271.051	20.14
271.267	-35.16
271.483	40.62
271.698	155.3
271.914	112.3
272.13	9.9
272.346	16.04
272.562	110.25
272.777	50.86
272.993	-12.63
273.209	-94.55
273.425	59.05
273.64	-29.01
273.856	112.3
274.072	30.38
274.287	61.1
274.503	77.48
274.719	87.72
274.934	26.28
275.15	-24.92
275.366	65.19
275.581	-33.11
275.797	61.1
276.012	87.72
276.228	50.86
276.444	36.52
276.659	79.53
276.875	32.43
277.09	40.62
277.306	-16.73
277.521	75.43
277.737	59.05
277.952	100.01
278.168	-24.92
278.383	42.67
278.599	40.62
278.814	50.86
279.03	44.71
279.245	114.34
279.461	73.39
279.676	167.59
279.892	-35.16
280.107	-51.54
280.322	-55.64
280.538	38.57
280.753	-4.44
280.969	3.75
281.184	108.2
281.399	126.63
281.615	42.67
281.83	71.34
282.045	-59.73
282.26	30.38
282.476	16.04
282.691	126.63
282.906	59.05
283.122	108.2
283.337	-0.34
283.552	44.71
283.767	13.99
283.983	100.01
284.198	57
284.413	124.58
284.628	-35.16
284.843	46.76
285.058	140.97
285.274	-18.77
285.489	-41.3
285.704	130.73
285.919	-24.92
286.134	-0.34
286.349	85.67
286.564	30.38
286.779	114.34
286.995	-35.16
287.21	-104.79
287.425	59.05
287.64	-8.53
287.855	97.96
288.07	-96.6
288.285	128.68
288.5	38.57
288.715	102.06
288.93	-6.49
289.145	-65.88
289.36	79.53
289.575	22.19
289.79	175.78
290.004	-76.12
290.219	165.54
290.434	-90.45
290.649	-69.97
290.864	9.9
291.079	52.91
291.294	48.81
291.509	71.34
291.724	-63.83
291.938	46.76
292.153	32.43
292.368	50.86
292.583	-2.39
292.798	155.3
293.012	67.24
293.227	85.67
293.442	-2.39
293.657	89.77
293.871	143.02
294.086	50.86
294.301	177.83
294.516	57
294.73	81.58
294.945	-39.25
295.16	-4.44
295.374	124.58
295.589	63.15
295.804	-47.44
296.018	140.97
296.233	69.29
296.447	57
296.662	-39.25
296.877	132.78
297.091	97.96
297.306	18.09
297.52	-51.54
297.735	16.04
297.949	-18.77
298.164	79.53
298.378	36.52
298.593	22.19
298.807	34.47
299.022	75.43
299.236	192.17
299.451	-12.63
299.665	46.76
299.88	-20.82
300.094	54.95
300.309	42.67
300.523	9.9
300.737	48.81
300.952	-31.06
301.166	106.15
301.381	-74.07
301.595	112.3
301.809	-8.53
302.024	61.1
302.238	-65.88
302.452	136.87
302.667	155.3
302.881	128.68
303.095	91.82
303.309	5.8
303.524	73.39
303.738	-33.11
303.952	13.99
304.166	165.54
304.381	-16.73
304.595	130.73
304.809	5.8
305.023	1.71
305.237	-22.87
305.452	100.01
305.666	100.01
305.88	157.35
306.094	54.95
306.308	67.24
306.522	155.3
306.736	102.06
306.95	106.15
307.164	48.81
307.379	-20.82
307.593	130.73
307.807	202.41
308.021	50.86
308.235	63.15
308.449	-96.6
308.663	75.43
308.877	151.21
309.091	13.99
309.305	79.53
309.519	-18.77
309.733	145.06
309.947	5.8
310.161	48.81
310.374	110.25
310.588	190.12
310.802	-26.96
311.016	18.09
311.23	79.53
311.444	50.86
311.658	20.14
311.872	81.58
312.085	179.88
312.299	106.15
312.513	124.58
312.727	69.29
312.941	-0.34
313.154	57
313.368	54.95
313.582	13.99
313.796	40.62
314.009	69.29
314.223	50.86
314.437	67.24
314.651	69.29
314.864	-49.49
315.078	48.81
315.292	-26.96
315.505	34.47
315.719	61.1
315.933	147.11
316.146	20.14
316.36	22.19
316.573	108.2
316.787	120.49
317.001	102.06
317.214	7.85
317.428	28.33
317.641	-0.34
317.855	30.38
318.068	52.91
318.282	40.62
318.495	173.74
318.709	112.3
318.922	-6.49
319.136	161.45
319.349	136.87
319.563	-8.53
319.776	42.67
319.99	-69.97
320.203	95.91
320.417	-74.07
320.63	136.87
320.843	171.69
321.057	91.82
321.27	69.29
321.483	59.05
321.697	200.36
321.91	63.15
322.124	-29.01
322.337	54.95
322.55	-37.2
322.763	69.29
322.977	26.28
323.19	24.23
323.403	36.52
323.617	5.8
323.83	165.54
324.043	-53.59
324.256	24.23
324.469	-18.77
324.683	71.34
324.896	-4.44
325.109	83.63
325.322	-63.83
325.535	145.06
325.748	171.69
325.962	30.38
326.175	59.05
326.388	73.39
326.601	83.63
326.814	5.8
327.027	89.77
327.24	179.88
327.453	-35.16
327.666	102.06
327.879	110.25
328.092	155.3
328.305	71.34
328.518	-33.11
328.731	-8.53
328.944	13.99
329.157	89.77
329.37	48.81
329.583	120.49
329.796	83.63
330.009	7.85
330.222	57
330.435	73.39
330.648	46.76
330.861	52.91
331.073	24.23
331.286	75.43
331.499	91.82
331.712	20.14
331.925	69.29
332.138	-16.73
332.35	120.49
332.563	-35.16
332.776	67.24
332.989	16.04
333.202	1.71
333.414	9.9
333.627	-29.01
333.84	-16.73
334.053	36.52
334.265	-41.3
334.478	-49.49
334.691	11.95
334.903	85.67
335.116	61.1
335.329	5.8
335.541	28.33
335.754	114.34
335.966	-18.77
336.179	-51.54
336.392	46.76
336.604	67.24
336.817	106.15
337.029	65.19
337.242	81.58
337.454	61.1
337.667	-18.77
337.88	112.3
338.092	140.97
338.305	50.86
338.517	-4.44
338.729	118.44
338.942	122.54
339.154	-53.59
339.367	-16.73
339.579	28.33
339.792	30.38
340.004	122.54
340.217	-12.63
340.429	28.33
340.641	11.95
340.854	-10.58
341.066	-12.63
341.278	220.84
341.491	151.21
341.703	124.58
341.915	-16.73
342.128	73.39
342.34	97.96
342.552	-106.84
342.764	24.23
342.977	-39.25
343.189	104.11
343.401	22.19
343.613	-106.84
343.826	67.24
344.038	-0.34
344.25	118.44
344.462	36.52
344.674	71.34
344.886	-26.96
345.099	65.19
345.311	69.29
345.523	-55.64
345.735	-47.44
345.947	59.05
346.159	28.33
346.371	-10.58
346.583	73.39
346.795	183.98
347.007	-22.87
347.219	89.77
347.431	16.04
347.643	89.77
347.855	34.47
348.067	143.02
348.279	-65.88
348.491	7.85
348.703	30.38
348.915	73.39
349.127	34.47
349.339	7.85
349.551	26.28
349.763	104.11
349.975	147.11
350.187	85.67
350.399	128.68
350.61	73.39
350.822	-12.63
351.034	73.39
351.246	18.09
351.458	30.38
351.669	83.63
351.881	85.67
352.093	102.06
352.305	77.48
352.517	52.91
352.728	73.39
352.94	95.91
353.152	65.19
353.363	18.09
353.575	59.05
353.787	169.64
353.999	97.96
354.21	161.45
354.422	-55.64
354.633	18.09
354.845	100.01
355.057	32.43
355.268	42.67
355.48	95.91
355.692	-59.73
355.903	11.95
356.115	-35.16
356.326	-12.63
356.538	118.44
356.749	81.58
356.961	124.58
357.172	67.24
357.384	13.99
357.595	208.55
357.807	-47.44
358.018	-57.68
358.23	57
358.441	173.74
358.653	136.87
358.864	57
359.075	-88.4
359.287	32.43
359.498	65.19
359.709	83.63
359.921	-14.68
360.132	67.24
360.344	-20.82
360.555	22.19
360.766	81.58
360.977	-16.73
361.189	48.81
361.4	-22.87
361.611	132.78
361.823	104.11
362.034	102.06
362.245	-78.16
362.456	16.04
362.667	188.07
362.879	-33.11
363.09	140.97
363.301	132.78
363.512	79.53
363.723	-53.59
363.935	-45.4
364.146	100.01
364.357	-20.82
364.568	34.47
364.779	-10.58
364.99	202.41
365.201	13.99
365.412	102.06
365.623	-67.92
365.834	104.11
366.045	20.14
366.256	102.06
366.467	85.67
366.678	40.62
366.889	-8.53
367.1	32.43
367.311	126.63
367.522	34.47
367.733	100.01
367.944	114.34
368.155	1.71
368.366	112.3
368.577	124.58
368.788	239.27
368.999	18.09
369.209	42.67
369.42	241.32
369.631	253.61
369.842	138.92
370.053	77.48
370.264	63.15
370.474	-0.34
370.685	36.52
370.896	18.09
371.107	110.25
371.317	122.54
371.528	-4.44
371.739	145.06
371.95	93.87
372.16	42.67
372.371	1.71
372.582	-0.34
372.792	79.53
373.003	9.9
373.214	151.21
373.424	120.49
373.635	-8.53
373.846	222.89
374.056	42.67
374.267	77.48
374.477	77.48
374.688	1.71
374.898	44.71
375.109	112.3
375.319	16.04
375.53	145.06
375.74	106.15
375.951	-2.39
376.161	110.25
376.372	151.21
376.582	26.28
376.793	77.48
377.003	13.99
377.214	16.04
377.424	112.3
377.635	57
377.845	3.75
378.055	167.59
378.266	-88.4
378.476	16.04
378.686	38.57
378.897	69.29
379.107	89.77
379.317	9.9
379.528	-2.39
379.738	157.35
379.948	-24.92
380.158	73.39
380.369	108.2
380.579	122.54
380.789	32.43
380.999	118.44
381.21	73.39
381.42	143.02
381.63	30.38
381.84	73.39
382.05	52.91
382.261	36.52
382.471	138.92
382.681	-0.34
382.891	179.88
383.101	65.19
383.311	16.04
383.521	36.52
383.731	7.85
383.941	116.39
384.151	108.2
384.361	65.19
384.571	116.39
384.781	38.57
384.991	261.8
385.201	169.64
385.411	24.23
385.621	102.06
385.831	38.57
386.041	104.11
386.251	32.43
386.461	46.76
386.671	18.09
386.881	-8.53
387.091	7.85
387.301	114.34
387.511	120.49
387.72	110.25
387.93	97.96
388.14	1.71
388.35	52.91
388.56	110.25
388.769	165.54
388.979	-31.06
389.189	61.1
389.399	112.3
389.609	161.45
389.818	114.34
390.028	36.52
390.238	-8.53
390.447	-90.45
390.657	32.43
390.867	-8.53
391.076	-12.63
391.286	124.58
391.496	24.23
391.705	130.73
391.915	83.63
392.125	196.26
392.334	26.28
392.544	40.62
392.753	24.23
392.963	-39.25
393.172	102.06
393.382	5.8
393.591	173.74
393.801	-45.4
394.01	163.5
394.22	89.77
394.429	-24.92
394.639	-4.44
394.848	132.78
395.058	32.43
395.267	42.67
395.477	71.34
395.686	116.39
395.895	153.26
396.105	138.92
396.314	77.48
396.524	44.71
396.733	5.8
396.942	161.45
397.152	116.39
397.361	143.02
397.57	40.62
397.78	-4.44
397.989	102.06
398.198	269.99
398.407	44.71
398.617	-24.92
398.826	-0.34
399.035	57
399.244	79.53
399.453	26.28
399.663	71.34
399.872	85.67
400.081	5.8
400.29	120.49
400.499	-26.96
400.708	159.4
400.917	28.33
401.127	11.95
401.336	-31.06
401.545	183.98
401.754	106.15
401.963	116.39
402.172	-6.49
402.381	-22.87
402.59	30.38
402.799	48.81
403.008	57
403.217	120.49
403.426	69.29
403.635	-4.44
403.844	63.15
404.053	11.95
404.262	57
404.471	231.08
404.68	61.1
404.888	138.92
405.097	95.91
405.306	116.39
405.515	75.43
405.724	36.52
405.933	26.28
406.142	93.87
406.35	97.96
406.559	-16.73
406.768	40.62
406.977	177.83
407.185	48.81
407.394	65.19
407.603	-53.59
407.812	104.11
408.02	155.3
408.229	110.25
408.438	30.38
408.646	-51.54
408.855	93.87
409.064	63.15
409.272	59.05
409.481	73.39
409.69	-16.73
409.898	-98.64
410.107	89.77
410.315	106.15
410.524	-20.82
410.733	28.33
410.941	42.67
411.15	120.49
411.358	112.3
411.567	128.68
411.775	30.38
411.984	122.54
412.192	169.64
412.401	30.38
412.609	151.21
412.818	151.21
413.026	110.25
413.234	65.19
413.443	61.1
413.651	-2.39
413.86	42.67
414.068	85.67
414.276	167.59
414.485	18.09
414.693	59.05
414.901	157.35
415.11	126.63
415.318	50.86
415.526	93.87
415.734	97.96
415.943	114.34
416.151	204.46
416.359	42.67
416.567	97.96
416.776	155.3
416.984	65.19
417.192	274.09
417.4	32.43
417.608	81.58
417.817	22.19
418.025	124.58
418.233	143.02
418.441	-59.73
418.649	42.67
418.857	122.54
419.065	179.88
419.273	87.72
419.481	24.23
419.689	67.24
419.897	65.19
420.105	32.43
420.313	188.07
420.521	163.5
420.729	130.73
420.937	22.19
421.145	-8.53
421.353	147.11
421.561	212.65
421.769	100.01
421.977	-26.96
422.185	83.63
422.393	50.86
422.601	97.96
422.809	44.71
423.017	67.24
423.224	63.15
423.432	130.73
423.64	40.62
423.848	140.97
424.056	20.14
424.263	167.59
424.471	7.85
424.679	204.46
424.887	-10.58
425.094	188.07
425.302	102.06
425.51	75.43
425.718	116.39
425.925	110.25
426.133	69.29
426.341	198.31
426.548	122.54
426.756	44.71
426.964	91.82
427.171	153.26
427.379	71.34
427.586	63.15
427.794	122.54
428.001	167.59
428.209	145.06
428.417	186.02
428.624	108.2
428.832	108.2
429.039	128.68
429.247	159.4
429.454	95.91
429.662	235.18
429.869	116.39
430.076	183.98
430.284	114.34
430.491	114.34
430.699	194.22
430.906	159.4
431.114	140.97
431.321	120.49
431.528	104.11
431.736	229.03
431.943	167.59
432.15	173.74
432.358	151.21
432.565	315.05
432.772	59.05
432.979	214.7
433.187	106.15
433.394	175.78
433.601	91.82
433.808	171.69
434.016	292.52
434.223	222.89
434.43	202.41
434.637	222.89
434.844	292.52
435.052	251.56
435.259	284.33
435.466	282.28
435.673	317.09
435.88	339.62
436.087	362.15
436.294	327.33
436.501	280.23
436.708	280.23
436.915	296.61
437.122	444.07
437.329	284.33
437.537	374.44
437.743	380.58
437.95	550.56
438.157	317.09
438.364	374.44
438.571	366.25
438.778	382.63
438.985	466.6
439.192	458.4
439.399	511.65
439.606	419.49
439.813	525.99
440.02	536.23
440.227	667.3
440.433	632.48
440.64	558.75
440.847	528.03
441.054	638.62
441.261	736.93
441.467	671.39
441.674	700.06
441.881	693.92
442.088	636.58
442.294	865.95
442.501	784.03
442.708	931.48
442.914	757.41
443.121	913.05
443.328	923.29
443.534	970.4
443.741	958.11
443.948	890.53
444.154	1046.17
444.361	1107.61
444.568	1078.94
444.774	1138.33
444.981	968.35
445.187	1269.4
445.394	1267.35
445.6	1316.5
445.807	1384.09
446.013	1449.62
446.22	1441.43
446.426	1539.73
446.633	1576.59
446.839	1820.3
447.046	1588.88
447.252	1775.25
447.459	1816.21
447.665	1865.36
447.871	1969.8
448.078	2096.78
448.284	2090.63
448.491	2203.27
448.697	2221.7
448.903	2334.34
449.11	2391.69
449.316	2322.06
449.522	2567.81
449.728	2670.21
449.935	2662.02
450.141	2715.27
450.347	3006.08
450.553	2948.73
450.76	3036.8
450.966	3245.69
451.172	3298.94
451.378	3395.19
451.584	3509.88
451.791	3761.78
451.997	3694.19
452.203	3890.8
452.409	3993.2
452.615	4249.19
452.821	4136.56
453.027	4073.07
453.233	4810.34
453.44	4513.38
453.646	4703.84
453.852	4910.69
454.058	5191.26
454.264	5318.23
454.47	5723.73
454.676	5674.58
454.882	6260.3
455.088	6043.21
455.294	6354.51
455.5	6567.49
455.705	6954.56
455.911	6985.28
456.117	7116.35
456.323	7638.58
456.529	7589.43
456.735	8355.37
456.941	8633.89
457.147	8779.3
457.352	9088.54
457.558	9303.58
457.764	9852.44
457.97	9870.87
458.176	10368.52
458.381	10964.48
458.587	11191.81
458.793	11775.48
458.999	12037.62
459.204	13194.72
459.41	13555.16
459.616	13598.17
459.821	14163.41
460.027	14996.93
460.233	15728.06
460.438	15734.2
460.644	16422.32
460.85	16706.99
461.055	17341.86
461.261	18294.16
461.466	17644.96
461.672	18271.64
461.878	20237.69
462.083	20073.85
462.289	20477.3
462.494	21187.94
462.7	21501.28
462.905	21878.11
463.111	23534.92
463.316	24827.18
463.522	25191.72
463.727	26004.77
463.932	26782.99
464.138	27825.41
464.343	28699.89
464.549	28642.55
464.754	31300.81
464.959	32027.84
465.165	32330.94
465.37	32199.87
465.575	32353.47
465.781	33926.31
465.986	35357.84
466.191	34557.08
466.397	35341.46
466.602	34329.76
466.807	36545.66
467.012	37108.85
467.218	37557.36
467.423	37608.56
467.628	38634.59
467.833	40649.79
468.038	39730.25
468.244	39378
468.449	41194.55
468.654	40293.44
468.859	39877.71
469.064	40653.89
469.269	39410.77
469.474	39568.46
469.679	40858.68
469.885	39693.39
470.09	40475.71
470.295	40373.31
470.5	39554.13
470.705	39984.2
470.91	38679.64
471.115	38286.43
471.32	38941.78
471.525	38810.71
471.73	37602.41
471.935	37487.73
472.139	35925.13
472.344	36390.02
472.549	35929.22
472.754	35155.09
472.959	34366.62
473.164	33211.57
473.369	32799.93
473.574	33643.69
473.778	33156.27
473.983	32079.04
474.188	31706.31
474.393	30299.36
474.598	30434.52
474.802	29465.83
475.007	29170.93
475.212	28886.26
475.417	27579.65
475.621	27630.85
475.826	26995.98
476.031	26449.18
476.235	25922.85
476.44	25955.61
476.645	25146.67
476.849	25240.87
477.054	24696.11
477.259	23866.69
477.463	23977.28
477.668	23459.14
477.872	23393.61
478.077	22451.54
478.282	22099.29
478.486	21667.17
478.691	21577.06
478.895	21398.88
479.1	21142.89
479.304	21575.01
479.509	20456.82
479.713	20737.39
479.918	20313.46
480.122	19707.26
480.326	20202.87
480.531	20303.22
480.735	19715.45
480.94	19553.66
481.144	20247.93
481.348	18890.12
481.553	19178.89
481.757	18668.94
481.961	18816.4
482.166	19002.76
482.37	18732.43
482.574	18236.82
482.778	17966.49
482.983	18765.2
483.187	18251.16
483.391	17962.39
483.595	17606.05
483.8	17479.07
484.004	17421.73
484.208	17206.69
484.412	17259.94
484.616	16889.26
484.821	16938.41
485.025	16270.77
485.229	16788.91
485.433	16158.13
485.637	16096.69
485.841	15779.26
486.045	15746.49
486.249	15568.32
486.453	15261.12
486.657	15195.59
486.861	14831.05
487.065	14222.8
487.269	14642.64
487.473	13997.53
487.677	14085.59
487.881	13966.81
488.085	13397.47
488.289	13221.34
488.493	12912.1
488.697	12899.81
488.901	12707.3
489.105	12180.98
489.309	12312.05
489.512	12299.76
489.716	11718.14
489.92	11601.4
490.124	11298.3
490.328	11533.82
490.531	11062.79
490.735	11062.79
490.939	10491.4
491.143	10495.5
491.346	10262.03
491.55	10173.97
491.754	10044.95
491.958	9831.96
492.161	9618.97
492.365	9655.83
492.569	9336.35
492.772	9334.3
492.976	9188.89
493.18	9215.52
493.383	9113.12
493.587	8893.99
493.79	9141.79
493.994	8472.11
494.197	8699.43
494.401	8703.53
494.605	8490.54
494.808	8412.71
495.012	8402.47
495.215	8285.74
495.419	8341.04
495.622	8050.22
495.825	8212.01
496.029	7958.07
496.232	8171.05
496.436	7984.69
496.639	8314.41
496.843	7863.86
497.046	8087.09
497.249	8154.67
497.453	8099.38
497.656	8074.8
497.859	8228.4
498.063	8291.88
498.266	8267.31
498.469	8107.57
498.673	8111.66
498.876	8166.96
499.079	8216.11
499.282	8414.76
499.485	8607.27
499.689	8379.95
499.892	8570.41
500.095	8422.95
500.298	8730.15
500.501	8359.47
500.705	8611.37
500.908	8627.75
501.111	8803.88
501.314	9131.55
501.517	9248.29
501.72	9340.44
501.923	9266.72
502.126	9238.05
502.329	9631.26
502.532	9637.4
502.735	9621.02
502.938	9797.14
503.141	9928.21
503.344	10055.19
503.547	10090
503.75	10350.09
503.953	10417.68
504.156	10673.67
504.359	10788.36
504.562	10860.04
504.765	11079.17
504.968	11046.4
505.17	11511.29
505.373	11615.74
505.576	11900.41
505.779	12019.19
505.982	12119.54
506.185	12498.41
506.387	12613.1
506.59	12824.04
506.793	13065.7
506.996	13379.04
507.198	13886.93
507.401	13759.96
507.604	14321.1
507.807	14505.42
508.009	14775.75
508.212	14980.55
508.415	15087.04
508.617	15513.02
508.82	15893.94
509.022	15863.22
509.225	16645.55
509.428	16967.08
509.63	17038.76
509.833	17612.19
510.035	18304.4
510.238	18202
510.44	18699.66
510.643	19168.65
510.845	19557.76
511.048	19600.77
511.25	20186.49
511.453	20802.93
511.655	21861.73
511.858	21747.04
512.06	22609.23
512.262	22977.87
512.465	23065.93
512.667	23854.4
512.87	24167.74
513.072	24735.03
513.274	25566.5
513.477	26152.22
513.679	26920.21
513.881	27444.49
514.084	27938.05
514.286	28349.69
514.488	29201.65
514.69	30215.39
514.893	30463.19
515.095	30985.43
515.297	31683.78
515.499	32087.23
515.701	32877.75
515.904	33649.83
516.106	34837.66
516.308	35230.87
516.51	35835.02
516.712	36435.07
516.914	37176.44
517.116	38067.3
517.318	38718.56
517.52	39208.02
517.722	39990.34
517.925	40977.47
518.127	41514.03
518.329	42415.14
518.531	42601.5
518.733	44182.54
518.935	44067.85
519.136	44446.72
519.338	45548.53
519.54	46275.56
519.742	47356.89
519.944	47664.08
520.146	48858.05
520.348	49212.35
520.55	49460.15
520.752	50627.49
520.954	51450.78
521.155	51420.06
521.357	52501.39
521.559	52667.27
521.761	53924.72
521.963	53961.59
522.164	54686.57
522.366	54721.38
522.568	55524.19
522.77	55415.65
522.971	56367.95
523.173	55984.98
523.375	56816.46
523.576	57035.59
523.778	56933.19
523.98	58123.06
524.181	58006.33
524.383	58151.73
524.584	58606.38
524.786	58915.62
524.988	58092.34
525.189	59083.56
525.391	58927.91
525.592	59202.34
525.794	59065.13
525.995	59118.37
526.197	58868.52
526.398	59198.24
526.6	59114.28
526.801	59421.47
527.003	59015.97
527.204	58641.2
527.406	58778.41
527.607	57963.32
527.808	58413.87
528.01	57307.97
528.211	57262.91
528.412	57869.11
528.614	57062.21
528.815	57047.88
529.016	56976.2
529.218	55751.51
529.419	55894.87
529.62	55092.07
529.822	54768.49
530.023	54272.88
530.224	54252.4
530.425	53293.95
530.626	52536.2
530.828	51798.93
531.029	52534.15
531.23	51272.6
531.431	50832.29
531.632	50402.22
531.833	50408.36
532.035	49316.79
532.236	48763.84
532.437	48513.99
532.638	47883.22
532.839	46855.14
533.04	46359.53
533.241	45437.94
533.442	46142.44
533.643	44741.63
533.844	44379.14
534.045	43475.99
534.246	42757.15
534.447	42697.76
534.648	42071.08
534.849	41714.73
535.05	40737.85
535.251	40260.68
535.451	39799.88
535.652	39126.1
535.853	38712.41
536.054	38370.4
536.255	37907.56
536.456	37033.08
536.657	37254.26
536.857	36271.23
537.058	35728.52
537.259	35681.42
537.46	35099.8
537.66	34651.29
537.861	34305.18
538.062	33430.7
538.263	33471.66
538.463	32539.83
538.664	32306.37
538.865	32210.11
539.065	32021.7
539.266	31112.4
539.466	31382.73
539.667	30381.28
539.868	30760.15
540.068	29836.52
540.269	29451.5
540.469	29275.37
540.67	28699.89
540.87	28628.21
541.071	28230.91
541.271	28022.02
541.472	27813.12
541.672	27190.54
541.873	27065.61
542.073	26402.07
542.274	26596.63
542.474	26299.67
542.675	25511.21
542.875	25423.14
543.075	25066.8
543.276	24859.95
543.476	24821.04
543.676	24298.81
543.877	24147.26
544.077	24022.33
544.277	23799.1
544.478	23295.3
544.678	23123.27
544.878	22410.58
545.078	22379.86
545.279	22168.92
545.479	21818.72
545.679	21747.04
545.879	21816.67
546.079	21063.02
546.28	21085.54
546.48	20802.93
546.68	20620.66
546.88	20673.9
547.08	20473.2
547.28	20041.08
547.48	19416.45
547.68	19459.46
547.88	18959.75
548.081	19201.41
548.281	18689.42
548.481	18490.77
548.681	18388.37
548.881	18142.61
549.081	18001.3
549.28	17472.93
549.48	17315.23
549.68	17081.77
549.88	16905.64
550.08	16504.24
550.28	16690.6
550.48	16207.28
550.68	16201.14
550.88	15680.96
551.08	15375.81
551.279	15414.72
551.479	15111.62
551.679	15052.23
551.879	14507.47
552.079	14554.57
552.278	14409.17
552.478	14022.1
552.678	14007.76
552.878	13868.5
553.077	13463.01
553.277	13420
553.477	13200.87
553.676	12645.87
553.876	12699.11
554.076	12482.03
554.275	12254.7
554.475	11734.52
554.674	11875.83
554.874	11830.77
555.074	11472.38
555.273	11357.69
555.473	11316.73
555.672	10997.25
555.872	10665.48
556.071	10714.63
556.271	10618.38
556.47	10219.02
556.67	10051.09
556.869	9903.64
557.068	9659.93
557.268	9569.82
557.467	9475.61
557.667	9274.91
557.866	9244.19
558.065	9020.96
558.265	8934.95
558.464	8556.07
558.663	8713.77
558.863	8263.21
559.062	8345.13
559.261	8107.57
559.461	8087.09
559.66	7753.27
559.859	7847.47
560.058	7818.8
560.258	7355.96
560.457	7364.15
560.656	7482.94
560.855	7059.01
561.054	7190.08
561.253	7126.59
561.453	6938.18
561.652	6641.22
561.851	6821.44
562.05	6536.77
562.249	6266.44
562.448	6479.43
562.647	6131.28
562.846	6188.62
563.045	6213.2
563.244	5877.33
563.443	5873.23
563.642	5795.41
563.841	6043.21
564.04	5658.2
564.239	5672.53
564.438	5508.69
564.637	5289.56
564.836	5273.18
565.035	5283.42
565.234	5166.68
565.432	5113.44
565.631	5058.14
565.83	5064.29
566.029	4728.42
566.228	4693.6
566.427	4752.99
566.625	4527.72
566.824	4529.77
567.023	4517.48
567.222	4404.84
567.42	4429.42
567.619	4400.74
567.818	4386.41
568.016	4378.22
568.215	4140.65
568.414	4193.9
568.612	4034.16
568.811	3933.81
569.01	3886.7
569.208	3829.36
569.407	3901.04
569.605	3741.3
569.804	3767.92
570.002	3808.88
570.201	3518.07
570.4	3585.65
570.598	3452.53
570.797	3399.29
570.995	3247.74
571.193	3399.29
571.392	3300.98
571.59	3174.01
571.789	3253.88
571.987	3219.07
572.186	3133.05
572.384	2989.69
572.582	2961.02
572.781	2967.17
572.979	2727.55
573.177	2782.85
573.376	2827.9
573.574	2856.58
573.772	2760.32
573.971	2535.04
574.169	2588.29
574.367	2713.22
574.565	2653.83
574.763	2412.17
574.962	2469.51
575.16	2403.97
575.358	2397.83
575.556	2481.8
575.754	2320.01
575.952	2309.77
576.151	2324.1
576.349	2360.97
576.547	1994.38
576.745	2127.5
576.943	2141.83
577.141	2109.07
577.339	2082.44
577.537	2029.2
577.735	1957.52
577.933	2012.81
578.131	1791.63
578.329	1949.32
578.527	1945.23
578.725	1853.07
578.923	1738.38
579.121	1797.78
579.319	1681.04
579.516	1752.72
579.714	1918.61
579.912	1638.03
580.11	1531.54
580.308	1650.32
580.506	1599.12
580.704	1480.34
580.901	1429.14
581.099	1691.28
581.297	1541.78
581.495	1496.72
581.692	1363.61
581.89	1668.75
582.088	1400.47
582.285	1392.28
582.483	1472.15
582.681	1427.09
582.878	1392.28
583.076	1357.46
583.274	1304.21
583.471	1398.42
583.669	1240.73
583.866	1191.58
584.064	1201.82
584.262	1154.71
584.459	1148.57
584.657	1199.77
584.854	1109.66
585.052	1187.48
585.249	1140.38
585.447	1185.43
585.644	1091.23
585.841	1257.11
586.039	1087.13
586.236	1224.34
586.434	968.35
586.631	988.83
586.828	1005.21
587.026	1025.69
587.223	861.85
587.42	786.08
587.618	1128.09
587.815	1080.99
588.012	945.82
588.21	927.39
588.407	980.64
588.604	978.59
588.801	890.53
588.999	855.71
589.196	990.88
589.393	857.76
589.59	851.61
589.787	898.72
589.984	947.87
590.182	902.81
590.379	657.06
590.576	757.41
590.773	865.95
590.97	773.79
591.167	790.17
591.364	886.43
591.561	710.3
591.758	939.68
591.955	843.42
592.152	769.69
592.349	745.12
592.546	777.89
592.743	792.22
592.94	747.17
593.137	865.95
593.334	900.76
593.531	853.66
593.727	855.71
593.924	939.68
594.121	810.65
594.318	853.66
594.515	878.24
594.712	880.29
594.908	927.39
595.105	773.79
595.302	896.67
595.499	829.09
595.696	1003.16
595.892	810.65
596.089	1011.36
596.286	876.19
596.482	978.59
596.679	1066.65
596.876	974.49
597.072	1021.6
597.269	1115.8
597.466	1074.84
597.662	1074.84
597.859	1214.1
598.055	1234.58
598.252	1255.06
598.448	1334.93
598.645	1318.55
598.841	1484.44
599.038	1556.11
599.234	1527.44
599.431	1519.25
599.627	1511.06
599.824	1601.17
600.02	1595.03
600.217	1642.13
600.413	1826.45
600.609	1738.38
600.806	2078.35
601.002	2070.16
601.198	1912.46
601.395	2104.97
601.591	2109.07
601.787	2289.29
601.984	2348.68
602.18	2463.37
602.376	2492.04
602.572	2750.08
602.769	2856.58
602.965	2832
603.161	3008.12
603.357	3131
603.553	3235.45
603.75	3249.79
603.946	3339.9
604.142	3513.97
604.338	3802.74
604.534	3739.25
604.73	3778.16
604.926	3929.71
605.122	4046.44
605.318	4138.6
605.514	4378.22
605.71	4634.21
605.906	4497
606.102	4646.5
606.298	5002.85
606.494	5035.61
606.69	5297.75
606.886	5361.24
607.082	5371.48
607.278	5551.7
607.474	5772.88
607.67	6006.35
607.866	5989.97
608.062	6446.66
608.257	6616.65
608.453	6534.73
608.649	6794.82
608.845	6778.44
609.041	7167.55
609.236	7317.05
609.432	7384.63
609.628	7857.71
609.824	7941.68
610.019	8267.31
610.215	8371.75
610.411	8678.95
610.606	8889.89
610.802	9053.73
610.998	9117.22
611.193	9641.5
611.389	9649.69
611.584	9856.53
611.78	10063.38
611.976	10288.65
612.171	10851.85
612.367	11163.14
612.562	11269.63
612.758	11640.31
612.953	11843.06
613.149	12303.85
613.344	12672.49
613.539	12969.44
613.735	13116.9
613.93	13714.91
614.126	14046.68
614.321	14564.81
614.517	14958.02
614.712	14902.73
614.907	15588.8
615.103	15789.5
615.298	16264.63
615.493	16764.33
615.688	16936.36
615.884	17859.99
616.079	17692.06
616.274	18605.45
616.47	19047.82
616.665	19451.27
616.86	19608.96
617.055	20276.6
617.25	20456.82
617.445	21546.34
617.641	21493.09
617.836	22338.9
618.031	22426.96
618.226	23491.91
618.421	23704.9
618.616	24882.48
618.811	24954.16
619.006	25654.56
619.201	25877.79
619.396	27047.18
619.591	26944.78
619.786	27913.47
619.981	28542.2
620.176	29426.92
620.371	29689.06
620.566	29906.15
620.761	30745.81
620.956	31667.4
621.151	31911.11
621.346	32513.21
621.541	33074.35
621.735	34456.73
621.93	34342.05
622.125	35282.06
622.32	35488.91
622.515	36582.52
622.709	36840.57
622.904	37885.03
623.099	38460.51
623.294	39330.9
623.488	39248.98
623.683	40338.5
623.878	40614.97
624.072	42026.03
624.267	42050.6
624.462	42923.04
624.656	43230.23
624.851	43979.79
625.046	44413.96
625.24	45032.44
625.435	46068.72
625.629	46685.15
625.824	47317.98
626.018	47616.98
626.213	47326.17
626.407	48303.05
626.602	48651.2
626.796	49957.81
626.991	50058.16
627.185	50576.29
627.38	50942.88
627.574	51030.94
627.768	50951.07
627.963	51344.28
628.157	51282.84
628.352	51860.37
628.546	51332
628.74	52177.81
628.935	51532.7
629.129	51663.77
629.323	51237.79
629.517	51444.63
629.712	51123.1
629.906	50811.81
630.1	49527.73
630.294	50052.01
630.489	49140.67
630.683	48651.2
630.877	47543.25
631.071	46627.81
631.265	45994.99
631.459	45091.83
631.653	44258.31
631.848	43387.92
632.042	42531.87
632.236	41786.41
632.43	40258.63
632.624	39212.12
632.818	37848.17
633.012	37143.67
633.206	35867.78
633.4	34614.43
633.594	33481.9
633.788	32507.07
633.982	31362.25
634.176	30336.22
634.369	29142.25
634.563	27909.38
634.757	26668.31
634.951	26058.01
635.145	24943.92
635.339	24012.09
635.533	22967.63
635.726	22340.95
635.92	21241.19
636.114	20473.2
636.308	19324.29
636.501	18797.96
636.695	18183.57
636.889	17110.44
637.083	16487.86
637.276	15900.09
637.47	15349.18
637.664	14851.53
637.857	14093.78
638.051	13692.38
638.244	12957.16
638.438	12451.31
638.632	12187.12
638.825	11216.38
639.019	10939.91
639.212	10423.82
639.406	10159.63
639.599	9653.78
639.793	9496.09
639.986	9141.79
640.18	8885.8
640.373	8429.1
640.567	7947.83
640.76	7792.18
640.954	7497.27
641.147	6923.84
641.34	6874.69
641.534	6721.09
641.727	6297.16
641.92	6227.53
642.114	5987.92
642.307	5492.31
642.5	5516.89
642.694	5066.33
642.887	5170.78
643.08	4978.27
643.273	4822.63
643.467	4427.37
643.66	4281.96
643.853	4152.94
644.046	4062.83
644.239	3950.19
644.432	3708.53
644.626	3397.24
644.819	3405.43
645.012	3315.32
645.205	3219.07
645.398	3149.43
645.591	2864.77
645.784	2737.79
645.977	2741.89
646.17	2582.15
646.363	2623.11
646.556	2279.05
646.749	2332.3
646.942	2184.84
647.135	2190.99
647.328	2068.11
647.521	2084.49
647.714	1818.25
647.907	1941.13
648.099	1719.95
648.292	1722
648.485	1652.37
648.678	1523.35
648.871	1580.69
649.064	1521.3
649.256	1334.93
649.449	1392.28
649.642	1285.78
649.835	1318.55
650.027	1183.38
650.22	1253.02
650.413	1314.45
650.605	1185.43
650.798	1003.16
650.991	970.4
651.183	1040.03
651.376	997.02
651.568	915.1
651.761	843.42
651.954	988.83
652.146	841.37
652.339	970.4
652.531	851.61
652.724	757.41
652.916	730.78
653.109	620.19
653.301	720.54
653.494	638.62
653.686	710.3
653.879	761.5
654.071	730.78
654.263	632.48
654.456	630.43
654.648	622.24
654.84	661.15
655.033	528.03
655.225	597.67
655.417	425.64
655.61	630.43
655.802	583.33
655.994	583.33
656.186	523.94
656.379	595.62
656.571	452.26
656.763	448.16
656.955	478.88
657.148	366.25
657.34	552.61
657.532	353.96
657.724	296.61
657.916	413.35
658.108	519.84
658.3	442.02
658.492	401.06
658.684	345.77
658.876	425.64
659.068	247.46
659.26	261.8
659.452	341.67
659.644	333.48
659.836	462.5
660.028	382.63
660.22	347.81
660.412	315.05
660.604	206.5
660.796	368.29
660.988	386.72
661.18	313
661.372	356.01
661.563	284.33
661.755	294.57
661.947	163.5
662.139	204.46
662.331	218.79
662.522	220.84
662.714	179.88
662.906	212.65
663.097	257.7
663.289	204.46
663.481	122.54
663.673	222.89
663.864	204.46
664.056	337.57
664.247	179.88
664.439	269.99
664.631	306.85
664.822	261.8
665.014	208.55
665.205	143.02
665.397	231.08
665.588	196.26
665.78	198.31
665.971	186.02
666.163	169.64
666.354	259.75
666.546	165.54
666.737	210.6
666.929	69.29
667.12	210.6
667.311	188.07
667.503	208.55
667.694	196.26
667.885	210.6
668.077	208.55
668.268	97.96
668.459	239.27
668.651	202.41
668.842	136.87
669.033	100.01
669.224	163.5
669.416	304.81
669.607	157.35
669.798	116.39
669.989	276.13
670.18	147.11
670.371	224.94
670.563	69.29
670.754	243.37
670.945	239.27
671.136	306.85
671.327	155.3
671.518	218.79
671.709	296.61
671.9	175.78
672.091	321.19
672.282	190.12
672.473	145.06
672.664	118.44
672.855	173.74
673.046	239.27
673.237	247.46
673.428	153.26
673.619	269.99
673.809	206.5
674	310.95
674.191	255.65
674.382	208.55
674.573	132.78
674.764	179.88
674.954	323.24
675.145	136.87
675.336	118.44
675.527	59.05
675.717	130.73
675.908	163.5
676.099	212.65
676.289	229.03
676.48	122.54
676.671	140.97
676.861	206.5
677.052	153.26
677.243	214.7
677.433	218.79
677.624	300.71
677.814	239.27
678.005	136.87
678.195	237.22
678.386	143.02
678.576	198.31
678.767	114.34
678.957	175.78
679.148	358.05
679.338	356.01
679.529	224.94
679.719	245.41
679.909	280.23
680.1	255.65
680.29	274.09
680.481	157.35
680.671	290.47
680.861	257.7
681.052	229.03
681.242	249.51
681.432	315.05
681.622	290.47
681.813	175.78
682.003	282.28
682.193	237.22
682.383	261.8
682.573	249.51
682.764	308.9
682.954	409.25
683.144	347.81
683.334	321.19
683.524	212.65
683.714	388.77
683.904	370.34
684.094	243.37
684.284	310.95
684.474	335.53
684.664	294.57
684.854	282.28
685.044	304.81
685.234	323.24
685.424	245.41
685.614	226.98
685.804	372.39
685.994	401.06
686.184	210.6
686.374	331.43
686.564	405.16
686.753	296.61
686.943	216.74
687.133	249.51
687.323	263.85
687.513	335.53
687.702	319.14
687.892	302.76
688.082	339.62
688.272	417.44
688.461	403.11
688.651	423.59
688.841	370.34
689.03	231.08
689.22	249.51
689.41	302.76
689.599	364.2
689.789	247.46
689.979	417.44
690.168	345.77
690.358	298.66
690.547	343.72
690.737	343.72
690.926	394.92
691.116	282.28
691.305	341.67
691.495	364.2
691.684	253.61
691.874	345.77
692.063	331.43
692.252	331.43
692.442	433.83
692.631	296.61
692.82	269.99
693.01	288.42
693.199	292.52
693.388	286.37
693.578	339.62
693.767	329.38
693.956	356.01
694.146	237.22
694.335	315.05
694.524	267.94
694.713	425.64
694.902	290.47
695.092	319.14
695.281	364.2
695.47	204.46
695.659	255.65
695.848	257.7
696.037	239.27
696.226	331.43
696.415	233.13
696.604	417.44
696.793	308.9
696.982	349.86
697.171	466.6
697.36	296.61
697.549	368.29
697.738	208.55
697.927	130.73
698.116	251.56
698.305	358.05
698.494	378.53
698.683	325.29
698.872	421.54
699.061	304.81
699.25	265.89
699.438	339.62
699.627	253.61
699.816	454.31
700.005	278.18
700.193	294.57
700.382	370.34
700.571	353.96
700.76	321.19
700.948	298.66
701.137	294.57
701.326	333.48
701.514	249.51
701.703	374.44
701.892	343.72
702.08	458.4
702.269	306.85
702.457	296.61
702.646	351.91
702.834	351.91
703.023	331.43
703.212	267.94
703.4	276.13
703.589	306.85
703.777	300.71
703.965	274.09
704.154	292.52
704.342	192.17
704.531	263.85
704.719	333.48
704.907	374.44
705.096	235.18
705.284	200.36
705.472	325.29
705.661	249.51
705.849	368.29
706.037	378.53
706.226	296.61
706.414	341.67
706.602	226.98
706.79	386.72
706.979	243.37
707.167	329.38
707.355	202.41
707.543	331.43
707.731	358.05
707.919	343.72
708.107	192.17
708.296	241.32
708.484	257.7
708.672	368.29
708.86	313
709.048	390.82
709.236	243.37
709.424	452.26
709.612	384.68
709.8	239.27
709.988	276.13
710.176	405.16
710.364	364.2
710.551	251.56
710.739	239.27
710.927	269.99
711.115	216.74
711.303	386.72
711.491	423.59
711.679	220.84
711.866	321.19
712.054	317.09
712.242	241.32
712.43	290.47
712.617	364.2
712.805	405.16
712.993	329.38
713.181	241.32
713.368	335.53
713.556	278.18
713.744	206.5
713.931	501.41
714.119	370.34
714.306	321.19
714.494	290.47
714.682	269.99
714.869	200.36
715.057	325.29
715.244	274.09
715.432	335.53
715.619	255.65
715.807	313
715.994	269.99
716.182	306.85
716.369	325.29
716.556	386.72
716.744	253.61
716.931	251.56
717.119	392.87
717.306	351.91
717.493	437.92
717.681	259.75
717.868	300.71
718.055	351.91
718.242	323.24
718.43	401.06
718.617	403.11
718.804	339.62
718.991	364.2
719.179	374.44
719.366	390.82
719.553	392.87
719.74	351.91
719.927	396.96
720.114	409.25
720.301	243.37
720.488	306.85
720.676	345.77
720.863	415.4
721.05	476.84
721.237	331.43
721.424	378.53
721.611	345.77
721.798	290.47
721.985	315.05
722.172	356.01
722.358	358.05
722.545	390.82
722.732	394.92
722.919	474.79
723.106	429.73
723.293	392.87
723.48	372.39
723.667	323.24
723.853	435.88
724.04	343.72
724.227	429.73
724.414	296.61
724.6	390.82
724.787	460.45
724.974	573.09
725.161	372.39
725.347	220.84
725.534	364.2
725.72	382.63
725.907	448.16
726.094	394.92
726.28	392.87
726.467	353.96
726.653	257.7
726.84	499.36
727.027	464.55
727.213	325.29
727.4	366.25
727.586	382.63
727.773	372.39
727.959	313
728.145	390.82
728.332	439.97
728.518	409.25
728.705	495.27
728.891	409.25
729.077	413.35
729.264	319.14
729.45	269.99
729.636	388.77
729.823	390.82
730.009	503.46
730.195	423.59
730.382	433.83
730.568	296.61
730.754	347.81
730.94	341.67
731.126	388.77
731.313	380.58
731.499	360.1
731.685	497.32
731.871	421.54
732.057	482.98
732.243	462.5
732.429	427.68
732.615	501.41
732.801	503.46
732.987	396.96
733.173	403.11
733.359	427.68
733.545	413.35
733.731	360.1
733.917	493.22
734.103	411.3
734.289	380.58
734.475	315.05
734.661	534.18
734.847	433.83
735.033	407.2
735.219	472.74
735.404	401.06
735.59	343.72
735.776	405.16
735.962	458.4
736.148	470.69
736.333	487.08
736.519	472.74
736.705	442.02
736.89	487.08
737.076	439.97
737.262	372.39
737.447	356.01
737.633	503.46
737.819	560.8
738.004	472.74
738.19	411.3
738.375	485.03
738.561	493.22
738.747	468.64
738.932	382.63
739.118	566.95
739.303	474.79
739.489	542.37
739.674	446.12
739.859	351.91
740.045	487.08
740.23	456.36
740.416	321.19
740.601	405.16
740.786	470.69
740.972	454.31
741.157	489.12
741.342	444.07
741.528	321.19
741.713	505.51
741.898	376.48
742.084	489.12
742.269	450.21
742.454	442.02
742.639	439.97
742.824	403.11
743.01	495.27
743.195	540.32
743.38	487.08
743.565	419.49
743.75	442.02
743.935	458.4
744.12	601.76
744.305	306.85
744.49	368.29
744.675	392.87
744.86	435.88
745.045	452.26
745.23	415.4
745.415	431.78
745.6	466.6
745.785	353.96
745.97	568.99
746.155	403.11
746.34	456.36
746.525	378.53
746.71	519.84
746.895	333.48
747.079	290.47
747.264	405.16
747.449	456.36
747.634	392.87
747.819	372.39
748.003	360.1
748.188	329.38
748.373	437.92
748.557	323.24
748.742	433.83
748.927	366.25
749.111	392.87
749.296	413.35
749.481	493.22
749.665	452.26
749.85	372.39
750.034	403.11
750.219	358.05
750.404	337.57
750.588	396.96
750.773	294.57
750.957	351.91
751.141	319.14
751.326	392.87
751.51	304.81
751.695	292.52
751.879	274.09
752.064	417.44
752.248	313
752.432	407.2
752.617	356.01
752.801	349.86
752.985	321.19
753.17	353.96
753.354	384.68
753.538	364.2
753.722	257.7
753.907	212.65
754.091	220.84
754.275	347.81
754.459	190.12
754.643	286.37
754.828	339.62
755.012	335.53
755.196	249.51
755.38	247.46
755.564	210.6
755.748	263.85
755.932	310.95
756.116	243.37
756.3	267.94
756.484	179.88
756.668	327.33
756.852	134.82
757.036	261.8
757.22	284.33
757.404	261.8
757.588	229.03
757.772	286.37
757.956	159.4
758.14	353.96
758.323	272.04
758.507	284.33
758.691	204.46
758.875	224.94
759.059	360.1
759.242	161.45
759.426	304.81
759.61	315.05
759.794	188.07
759.977	247.46
760.161	409.25
760.345	343.72
760.528	333.48
760.712	237.22
760.895	226.98
761.079	196.26
761.263	169.64
761.446	108.2
761.63	179.88
761.813	329.38
761.997	140.97
762.18	204.46
762.364	255.65
762.547	102.06
762.731	196.26
762.914	208.55
763.098	263.85
763.281	200.36
763.464	167.59
763.648	286.37
763.831	134.82
764.015	140.97
764.198	235.18
764.381	128.68
764.564	159.4
764.748	220.84
764.931	181.93
765.114	157.35
765.297	243.37
765.481	149.16
765.664	188.07
765.847	124.58
766.03	294.57
766.213	130.73
766.397	202.41
766.58	120.49
766.763	226.98
766.946	165.54
767.129	116.39
767.312	81.58
767.495	206.5
767.678	118.44
767.861	212.65
768.044	159.4
768.227	216.74
768.41	171.69
768.593	128.68
768.776	153.26
768.959	126.63
769.142	290.47
769.324	77.48
769.507	175.78
769.69	106.15
769.873	212.65
770.056	296.61
770.239	126.63
770.421	245.41
770.604	198.31
770.787	163.5
770.97	171.69
771.152	46.76
771.335	153.26
771.518	143.02
771.7	245.41
771.883	292.52
772.066	167.59
772.248	136.87
772.431	204.46
772.613	159.4
772.796	116.39
772.978	192.17
773.161	304.81
773.343	188.07
773.526	124.58
773.708	91.82
773.891	30.38
774.073	147.11
774.256	134.82
774.438	259.75
774.621	116.39
774.803	163.5
774.985	85.67
775.168	138.92
775.35	175.78
775.532	134.82
775.715	73.39
775.897	77.48
776.079	124.58
776.261	87.72
776.444	126.63
776.626	179.88
776.808	126.63
776.99	42.67
777.173	77.48
777.355	79.53
777.537	116.39
777.719	155.3
777.901	110.25
778.083	13.99
778.265	-0.34
778.447	132.78
778.629	7.85
778.811	116.39
778.993	124.58
779.175	241.32
779.357	120.49
779.539	42.67
779.721	128.68
779.903	134.82
780.085	87.72
780.267	83.63
780.449	93.87
780.631	177.83
780.812	175.78
780.994	106.15
781.176	65.19
781.358	38.57
781.54	81.58
781.721	124.58
781.903	102.06
782.085	7.85
782.267	186.02
782.448	26.28
782.63	83.63
782.812	97.96
782.993	95.91
783.175	122.54
783.357	67.24
783.538	169.64
783.72	18.09
783.901	13.99
784.083	151.21
784.264	175.78
784.446	26.28
784.627	30.38
784.809	126.63
784.99	20.14
785.172	75.43
785.353	93.87
785.535	157.35
785.716	-18.77
785.897	104.11
786.079	69.29
786.26	69.29
786.441	63.15
786.623	-0.34
786.804	38.57
786.985	-74.07
787.167	34.47
787.348	42.67
787.529	-26.96
787.71	206.5
787.891	85.67
788.073	7.85
788.254	-39.25
788.435	214.7
788.616	77.48
788.797	22.19
788.978	22.19
789.159	24.23
789.34	102.06
789.522	16.04
789.703	-4.44
789.884	63.15
790.065	73.39
790.246	153.26
790.427	46.76
790.607	216.74
790.788	132.78
790.969	36.52
791.15	143.02
791.331	-55.64
791.512	3.75
791.693	-2.39
791.874	100.01
792.054	179.88
792.235	97.96
792.416	-8.53
792.597	16.04
792.778	93.87
792.958	73.39
793.139	44.71
793.32	91.82
793.5	1.71
793.681	165.54
793.862	63.15
794.042	13.99
794.223	-61.78
794.404	61.1
794.584	-63.83
794.765	38.57
794.945	40.62
795.126	106.15
795.306	145.06
795.487	44.71
795.667	22.19
795.848	83.63
796.028	-8.53
796.209	-16.73
796.389	65.19
796.57	-22.87
796.75	26.28
796.93	-69.97
797.111	-10.58
797.291	-8.53
797.471	104.11
797.652	11.95
797.832	-16.73
798.012	112.3
798.192	-16.73
798.373	-6.49
798.553	-6.49
798.733	169.64
798.913	-57.68
799.093	-0.34
799.274	54.95
799.454	71.34
799.634	44.71
799.814	48.81
799.994	108.2
800.174	34.47
800.354	32.43
800.534	-76.12
800.714	102.06
800.894	-74.07
801.074	-131.41
801.254	-4.44
801.434	26.28
801.614	9.9
801.794	3.75
801.974	1654.42
802.154	71.34
802.334	83.63
802.514	-33.11
802.693	65.19
802.873	-33.11
803.053	130.73
803.233	50.86
803.413	-8.53
803.592	48.81
803.772	18.09
803.952	36.52
804.131	-47.44
804.311	83.63
804.491	112.3
804.67	-96.6
804.85	42.67
805.03	28.33
805.209	122.54
805.389	-49.49
805.568	-8.53
805.748	52.91
805.928	40.62
806.107	89.77
806.287	102.06
806.466	54.95
806.646	24.23
806.825	32.43
807.004	46.76
807.184	110.25
807.363	153.26
807.543	-31.06
807.722	57
807.901	28.33
808.081	65.19
808.26	-90.45
808.439	16.04
808.619	-0.34
808.798	-22.87
808.977	40.62
809.156	91.82
809.336	-8.53
809.515	108.2
809.694	16.04
809.873	-67.92
810.052	130.73
810.231	171.69
810.411	54.95
810.59	128.68
810.769	40.62
810.948	54.95
811.127	-86.36
811.306	-12.63
811.485	26.28
811.664	155.3
811.843	54.95
812.022	63.15
812.201	-8.53
812.38	9.9
812.559	-53.59
812.737	95.91
812.916	-47.44
813.095	-45.4
813.274	87.72
813.453	-18.77
813.632	34.47
813.811	89.77
813.989	-121.17
814.168	30.38
814.347	-41.3
814.526	30.38
814.704	116.39
814.883	134.82
815.062	-94.55
815.24	42.67
815.419	-51.54
815.598	59.05
815.776	-98.64
815.955	36.52
816.133	-123.22
816.312	44.71
816.49	-45.4
816.669	7.85
816.847	-26.96
817.026	79.53
817.204	-14.68
817.383	32.43
817.561	-2.39
817.74	114.34
817.918	-2.39
818.097	24.23
818.275	-33.11
818.453	-49.49
818.632	1.71
818.81	30.38
818.988	9.9
819.167	13.99
819.345	9.9
819.523	-104.79
819.701	16.04
819.879	77.48
820.058	57
820.236	30.38
820.414	3.75
820.592	40.62
820.77	9.9
820.948	-41.3
821.127	28.33
821.305	1.71
821.483	-49.49
821.661	59.05
821.839	11.95
822.017	-53.59
822.195	24.23
822.373	63.15
822.551	-29.01
822.729	85.67
822.907	5.8
823.085	52.91
823.262	-8.53
823.44	1.71
823.618	-18.77
823.796	5.8
823.974	-59.73
824.152	-26.96
824.329	-29.01
824.507	54.95
824.685	24.23
824.863	-2.39
825.04	42.67
825.218	38.57
825.396	20.14
825.574	16.04
825.751	16.04
825.929	-6.49
826.107	-110.93
826.284	-6.49
826.462	-4.44
826.639	44.71
826.817	-41.3
826.994	40.62
827.172	-82.26
827.349	110.25
827.527	57
827.704	-12.63
827.882	36.52
828.059	75.43
828.237	-41.3
828.414	59.05
828.591	-76.12
828.769	40.62
828.946	-55.64
829.124	36.52
829.301	-4.44
829.478	-0.34
829.655	26.28
829.833	30.38
830.01	-106.84
830.187	20.14
830.364	73.39
830.542	-20.82
830.719	91.82
830.896	3.75
831.073	-29.01
831.25	65.19
831.427	52.91
831.604	-31.06
831.782	-72.02
831.959	87.72
832.136	-4.44
832.313	-22.87
832.49	3.75
832.667	30.38
832.844	-31.06
833.021	114.34
833.198	-8.53
833.374	61.1
833.551	59.05
833.728	42.67
833.905	87.72
834.082	-117.08
834.259	-0.34
834.436	67.24
834.612	-115.03
834.789	40.62
834.966	30.38
835.143	-18.77
835.319	-49.49
835.496	-2.39
835.673	30.38
835.85	46.76
836.026	-6.49
836.203	106.15
836.38	30.38
836.556	-47.44
836.733	48.81
836.909	65.19
837.086	-0.34
837.262	-80.21
837.439	67.24
837.616	-67.92
837.792	-47.44
837.968	-24.92
838.145	-82.26
838.321	-29.01
838.498	54.95
838.674	-18.77
838.851	30.38
839.027	-49.49
839.203	3.75
839.38	18.09
839.556	-41.3
839.732	89.77
839.909	9.9
840.085	57
840.261	-33.11
840.437	1.71
840.614	-55.64
840.79	75.43
840.966	44.71
841.142	1.71
841.318	-147.8
841.494	16.04
841.671	46.76
841.847	-72.02
842.023	-67.92
842.199	-43.35
842.375	93.87
842.551	-67.92
842.727	-8.53
842.903	112.3
843.079	28.33
843.255	112.3
843.431	-33.11
843.607	22.19
843.783	-145.75
843.959	73.39
844.134	-16.73
844.31	83.63
844.486	-2.39
844.662	36.52
844.838	36.52
845.013	1.71
845.189	118.44
845.365	26.28
845.541	-4.44
845.716	30.38
845.892	118.44
846.068	-26.96
846.244	-35.16
846.419	-51.54
846.595	-63.83
846.77	5.8
846.946	81.58
847.122	-69.97
847.297	-80.21
847.473	81.58
847.648	-115.03
847.824	81.58
847.999	-133.46
848.175	-57.68
848.35	-4.44
848.526	83.63
848.701	42.67
848.876	-6.49
849.052	34.47
849.227	-106.84
849.403	-24.92
849.578	3.75
849.753	-35.16
849.929	108.2
850.104	-43.35
850.279	-20.82
850.454	77.48
850.63	69.29
850.805	-37.2
850.98	73.39
851.155	-33.11
851.33	54.95
851.505	-80.21
851.681	145.06
851.856	13.99
852.031	46.76
852.206	54.95
852.381	9.9
852.556	-39.25
852.731	-74.07
852.906	24.23
853.081	-47.44
853.256	59.05
853.431	-51.54
853.606	-86.36
853.781	-149.84
853.956	-139.6
854.131	-12.63
854.305	-55.64
854.48	9.9
854.655	-119.12
854.83	-125.27
855.005	-0.34
855.18	100.01
855.354	-6.49
855.529	-16.73
855.704	-4.44
855.879	50.86
856.053	-82.26
856.228	-4.44
856.403	-80.21
856.577	108.2
856.752	-51.54
856.926	18.09
857.101	-33.11
857.276	-33.11
857.45	50.86
857.625	34.47
857.799	7.85
857.974	7.85
858.148	-59.73
858.323	-127.32
858.497	-45.4
858.672	-63.83
858.846	-69.97
859.02	13.99
859.195	-35.16
859.369	-78.16
859.543	-26.96
859.718	24.23
859.892	61.1
860.066	-90.45
860.241	-49.49
860.415	-74.07
860.589	-4.44
860.763	52.91
860.938	-53.59
861.112	65.19
861.286	-22.87
861.46	50.86
861.634	-24.92
861.808	44.71
861.982	-29.01
862.157	-102.74
862.331	-69.97
862.505	-53.59
862.679	-102.74
862.853	-72.02
863.027	-67.92
863.201	130.73
863.375	-41.3
863.549	-0.34
863.722	-37.2
863.896	128.68
864.07	-72.02
864.244	-20.82
864.418	38.57
864.592	-45.4
864.766	54.95
864.939	30.38
865.113	-24.92
865.287	91.82
865.461	-74.07
865.634	71.34
865.808	-59.73
865.982	-43.35
866.156	-98.64
866.329	-86.36
866.503	1.71
866.676	65.19
866.85	73.39
867.024	-33.11
867.197	67.24
867.371	73.39
867.544	18.09
867.718	-82.26
867.891	196.26
868.065	-98.64
868.238	-65.88
868.412	91.82
868.585	-20.82
868.759	-53.59
868.932	20.14
869.105	-24.92
869.279	13.99
869.452	11.95
869.625	-72.02
869.799	-49.49
869.972	-143.7
870.145	-0.34
870.319	57
870.492	5.8
870.665	-14.68
870.838	-53.59
871.011	-115.03
871.185	-6.49
871.358	-41.3
871.531	52.91
871.704	-45.4
871.877	-47.44
872.05	22.19
872.223	-72.02
872.396	38.57
872.569	-16.73
872.742	-119.12
872.915	93.87
873.088	-49.49
873.261	-108.88
873.434	50.86
873.607	-4.44
873.78	20.14
873.953	-57.68
874.126	40.62
874.299	38.57
874.471	-43.35
874.644	3.75
874.817	26.28
874.99	140.97
875.163	1.71
875.335	-12.63
875.508	-29.01
875.681	24.23
875.853	-41.3
876.026	5.8
876.199	50.86
876.371	7.85
876.544	26.28
876.717	-8.53
876.889	-110.93
877.062	69.29
877.234	-119.12
877.407	-43.35
877.579	-53.59
877.752	40.62
877.924	114.34
878.097	-57.68
878.269	26.28
878.442	22.19
878.614	73.39
878.786	28.33
878.959	-47.44
879.131	38.57
879.303	-115.03
879.476	-22.87
879.648	26.28
879.82	-53.59
879.993	-41.3
880.165	-94.55
880.337	-166.23
880.509	-10.58
880.681	-94.55
880.854	-51.54
881.026	136.87
881.198	112.3
881.37	102.06
881.542	-41.3
881.714	-47.44
881.886	30.38
882.058	3.75
882.23	67.24
882.402	40.62
882.574	5.8
882.746	85.67
882.918	79.53
883.09	-2.39
883.262	-67.92
883.434	24.23
883.606	-112.98
883.778	-20.82
883.95	69.29
884.122	-37.2
884.293	138.92
884.465	-45.4
884.637	106.15
884.809	-37.2
884.98	1.71
885.152	59.05
885.324	38.57
885.496	-6.49
885.667	-4.44
885.839	-14.68
886.011	118.44
886.182	-37.2
886.354	73.39
886.525	-24.92
886.697	22.19
886.869	-131.41
887.04	-45.4
887.212	95.91
887.383	67.24
887.555	-12.63
887.726	-90.45
887.897	-82.26
888.069	-14.68
888.24	93.87
888.412	-72.02
888.583	-26.96
888.754	-33.11
888.926	-96.6
889.097	-8.53
889.268	-31.06
889.44	-47.44
889.611	-131.41
889.782	-57.68
889.953	-98.64
890.125	28.33
890.296	-143.7
890.467	24.23
890.638	34.47
890.809	-2.39
890.98	-24.92
891.151	-2.39
891.323	44.71
891.494	-98.64
891.665	11.95
891.836	-90.45
892.007	-6.49
892.178	28.33
892.349	-0.34
892.52	-76.12
892.691	13.99
892.862	-33.11
893.032	-43.35
893.203	-61.78
893.374	22.19
893.545	40.62
893.716	-10.58
893.887	50.86
894.057	-84.31
894.228	-2.39
894.399	-78.16
894.57	71.34
894.74	-61.78
894.911	3.75
895.082	1.71
895.253	-112.98
895.423	-18.77
895.594	97.96
895.764	73.39
895.935	-10.58
896.106	26.28
896.276	-57.68
896.447	-72.02
896.617	-100.69
896.788	-16.73
896.958	22.19
897.129	-51.54
897.299	7.85
897.47	136.87
897.64	-53.59
897.81	-59.73
897.981	9.9
898.151	-65.88
898.322	22.19
898.492	18.09
898.662	-57.68
898.832	-45.4
899.003	-0.34
899.173	52.91
899.343	-92.5
899.513	-90.45
