Data from USB4F104151__86__10-34-33-834.txt Node

Date: Wed Feb 26 10:34:33 EST 2025
User: louis
Spectrometer: USB4F10415
Trigger mode: 4
Integration Time (sec): 1.000000E-1
Scans to average: 1
Electric dark correction enabled: true
Nonlinearity correction enabled: false
Boxcar width: 0
XAxis mode: Wavelengths
Number of Pixels in Spectrum: 3648
>>>>>Begin Spectral Data<<<<<
178.204	-376.66
178.424	-376.66
178.644	-376.66
178.864	-372.56
179.084	-376.66
179.304	-22.36
179.524	-87.89
179.744	-1.88
179.964	106.67
180.184	-1.88
180.404	61.61
180.624	-48.98
180.844	-51.03
181.064	-34.64
181.283	39.08
181.503	-22.36
181.723	63.66
181.943	-44.88
182.163	161.96
182.383	-34.64
182.602	88.23
182.822	94.38
183.042	59.56
183.262	-53.08
183.482	47.27
183.701	-18.26
183.921	88.23
184.141	-42.84
184.361	67.75
184.58	110.76
184.8	55.47
185.02	45.23
185.239	53.42
185.459	67.75
185.679	96.43
185.898	-87.89
186.118	-3.93
186.338	75.95
186.557	121
186.777	-5.97
186.997	-24.4
187.216	63.66
187.436	149.67
187.655	14.51
187.875	84.14
188.095	67.75
188.314	170.15
188.534	198.82
188.753	-34.64
188.973	26.79
189.192	219.3
189.412	63.66
189.631	55.47
189.851	100.52
190.07	170.15
190.29	-38.74
190.509	4.27
190.729	10.41
190.948	125.1
191.168	276.65
191.387	114.86
191.607	6.31
191.826	104.62
192.045	-42.84
192.265	-89.94
192.484	182.44
192.704	67.75
192.923	-16.21
193.142	178.34
193.362	116.9
193.581	123.05
193.8	30.89
194.02	110.76
194.239	18.6
194.458	147.62
194.678	0.17
194.897	-8.02
195.116	86.19
195.335	16.55
195.555	65.71
195.774	24.75
195.993	133.29
196.212	53.42
196.432	-28.5
196.651	8.36
196.87	0.17
197.089	178.34
197.308	45.23
197.528	151.72
197.747	10.41
197.966	61.61
198.185	86.19
198.404	49.32
198.623	90.28
198.842	188.58
199.062	69.8
199.281	159.91
199.5	2.22
199.719	75.95
199.938	65.71
200.157	41.13
200.376	106.67
200.595	153.77
200.814	51.37
201.033	-55.12
201.252	106.67
201.471	37.03
201.69	28.84
201.909	18.6
202.128	106.67
202.347	82.09
202.566	67.75
202.785	-55.12
203.004	43.18
203.223	280.74
203.442	20.65
203.661	-73.56
203.879	102.57
204.098	106.67
204.317	-59.22
204.536	110.76
204.755	131.24
204.974	182.44
205.193	8.36
205.411	139.43
205.63	61.61
205.849	-8.02
206.068	49.32
206.287	-44.88
206.505	125.1
206.724	67.75
206.943	-42.84
207.162	-10.07
207.381	86.19
207.599	12.46
207.818	49.32
208.037	20.65
208.255	-20.31
208.474	125.1
208.693	77.99
208.911	14.51
209.13	55.47
209.349	73.9
209.567	86.19
209.786	84.14
210.005	94.38
210.223	84.14
210.442	-75.6
210.661	-8.02
210.879	73.9
211.098	69.8
211.316	53.42
211.535	123.05
211.753	92.33
211.972	98.47
212.191	-34.64
212.409	22.7
212.628	180.39
212.846	-5.97
213.065	88.23
213.283	73.9
213.502	49.32
213.72	84.14
213.938	65.71
214.157	84.14
214.375	45.23
214.594	22.7
214.812	77.99
215.031	2.22
215.249	57.51
215.467	22.7
215.686	67.75
215.904	116.9
216.122	39.08
216.341	102.57
216.559	90.28
216.778	108.71
216.996	114.86
217.214	65.71
217.432	-34.64
217.651	41.13
217.869	-8.02
218.087	41.13
218.306	75.95
218.524	55.47
218.742	96.43
218.96	37.03
219.179	2.22
219.397	49.32
219.615	192.68
219.833	143.53
220.051	-10.07
220.27	129.19
220.488	151.72
220.706	55.47
220.924	34.99
221.142	10.41
221.36	84.14
221.578	59.56
221.796	39.08
222.015	53.42
222.233	157.86
222.451	235.69
222.669	-18.26
222.887	96.43
223.105	-26.45
223.323	-34.64
223.541	-12.12
223.759	88.23
223.977	37.03
224.195	135.34
224.413	139.43
224.631	110.76
224.849	14.51
225.067	229.54
225.285	24.75
225.503	69.8
225.721	-114.52
225.939	32.94
226.157	53.42
226.375	194.73
226.592	39.08
226.81	51.37
227.028	161.96
227.246	180.39
227.464	-12.12
227.682	57.51
227.9	98.47
228.117	129.19
228.335	65.71
228.553	94.38
228.771	108.71
228.989	73.9
229.206	24.75
229.424	6.31
229.642	-18.26
229.86	55.47
230.077	116.9
230.295	28.84
230.513	90.28
230.731	53.42
230.948	184.49
231.166	176.3
231.384	49.32
231.601	75.95
231.819	143.53
232.037	-32.6
232.254	-44.88
232.472	34.99
232.689	75.95
232.907	108.71
233.125	10.41
233.342	49.32
233.56	75.95
233.777	41.13
233.995	24.75
234.213	123.05
234.43	94.38
234.648	-46.93
234.865	-28.5
235.083	129.19
235.3	47.27
235.518	166.06
235.735	164.01
235.953	53.42
236.17	73.9
236.388	-36.69
236.605	0.17
236.822	141.48
237.04	166.06
237.257	104.62
237.475	22.7
237.692	43.18
237.909	104.62
238.127	34.99
238.344	88.23
238.562	34.99
238.779	82.09
238.996	-36.69
239.214	49.32
239.431	67.75
239.648	4.27
239.865	53.42
240.083	114.86
240.3	-81.75
240.517	-36.69
240.735	45.23
240.952	73.9
241.169	69.8
241.386	127.14
241.603	63.66
241.821	-51.03
242.038	92.33
242.255	77.99
242.472	-87.89
242.689	8.36
242.907	61.61
243.124	18.6
243.341	77.99
243.558	4.27
243.775	-38.74
243.992	-12.12
244.209	106.67
244.426	121
244.643	92.33
244.86	59.56
245.078	41.13
245.295	28.84
245.512	67.75
245.729	0.17
245.946	61.61
246.163	114.86
246.38	-85.84
246.597	84.14
246.814	106.67
247.031	-26.45
247.248	6.31
247.464	151.72
247.681	14.51
247.898	53.42
248.115	116.9
248.332	-61.27
248.549	121
248.766	137.38
248.983	69.8
249.2	63.66
249.417	127.14
249.633	14.51
249.85	61.61
250.067	92.33
250.284	45.23
250.501	67.75
250.717	34.99
250.934	-32.6
251.151	4.27
251.368	39.08
251.585	57.51
251.801	43.18
252.018	-40.79
252.235	100.52
252.451	39.08
252.668	39.08
252.885	80.04
253.102	53.42
253.318	-61.27
253.535	67.75
253.752	37.03
253.968	92.33
254.185	-32.6
254.401	45.23
254.618	102.57
254.835	69.8
255.051	219.3
255.268	129.19
255.484	12.46
255.701	53.42
255.917	137.38
256.134	-5.97
256.351	45.23
256.567	-32.6
256.784	22.7
257	-110.42
257.217	61.61
257.433	133.29
257.65	-1.88
257.866	125.1
258.082	-71.51
258.299	43.18
258.515	32.94
258.732	28.84
258.948	24.75
259.165	12.46
259.381	16.55
259.597	51.37
259.814	14.51
260.03	153.77
260.246	-20.31
260.463	145.58
260.679	63.66
260.895	59.56
261.112	51.37
261.328	-8.02
261.544	57.51
261.761	178.34
261.977	28.84
262.193	-61.27
262.409	39.08
262.626	98.47
262.842	49.32
263.058	67.75
263.274	110.76
263.49	114.86
263.707	86.19
263.923	49.32
264.139	-36.69
264.355	77.99
264.571	147.62
264.787	65.71
265.004	114.86
265.22	100.52
265.436	-46.93
265.652	73.9
265.868	30.89
266.084	-12.12
266.3	-44.88
266.516	26.79
266.732	-24.4
266.948	45.23
267.164	77.99
267.38	88.23
267.596	121
267.812	133.29
268.028	39.08
268.244	-1.88
268.46	80.04
268.676	12.46
268.892	84.14
269.108	8.36
269.324	-51.03
269.54	16.55
269.756	178.34
269.972	-38.74
270.188	20.65
270.403	-98.13
270.619	55.47
270.835	100.52
271.051	88.23
271.267	16.55
271.483	18.6
271.698	53.42
271.914	116.9
272.13	49.32
272.346	-10.07
272.562	8.36
272.777	215.21
272.993	73.9
273.209	-18.26
273.425	26.79
273.64	-8.02
273.856	114.86
274.072	-73.56
274.287	-20.31
274.503	80.04
274.719	61.61
274.934	53.42
275.15	-51.03
275.366	69.8
275.581	-48.98
275.797	49.32
276.012	-26.45
276.228	-16.21
276.444	10.41
276.659	88.23
276.875	6.31
277.09	94.38
277.306	98.47
277.521	96.43
277.737	90.28
277.952	133.29
278.168	43.18
278.383	10.41
278.599	20.65
278.814	53.42
279.03	49.32
279.245	121
279.461	8.36
279.676	61.61
279.892	-14.17
280.107	4.27
280.322	28.84
280.538	106.67
280.753	-28.5
280.969	49.32
281.184	18.6
281.399	157.86
281.615	14.51
281.83	123.05
282.045	-8.02
282.26	0.17
282.476	65.71
282.691	45.23
282.906	41.13
283.122	37.03
283.337	-32.6
283.552	90.28
283.767	30.89
283.983	102.57
284.198	20.65
284.413	-5.97
284.628	-34.64
284.843	112.81
285.058	61.61
285.274	73.9
285.489	20.65
285.704	92.33
285.919	2.22
286.134	49.32
286.349	37.03
286.564	-24.4
286.779	92.33
286.995	16.55
287.21	-55.12
287.425	131.24
287.64	59.56
287.855	116.9
288.07	-44.88
288.285	96.43
288.5	53.42
288.715	49.32
288.93	-73.56
289.145	-24.4
289.36	57.51
289.575	75.95
289.79	92.33
290.004	55.47
290.219	161.96
290.434	-20.31
290.649	12.46
290.864	61.61
291.079	8.36
291.294	61.61
291.509	106.67
291.724	-48.98
291.938	12.46
292.153	69.8
292.368	-61.27
292.583	69.8
292.798	133.29
293.012	82.09
293.227	104.62
293.442	2.22
293.657	108.71
293.871	92.33
294.086	-24.4
294.301	200.87
294.516	63.66
294.73	0.17
294.945	-22.36
295.16	131.24
295.374	151.72
295.589	114.86
295.804	51.37
296.018	12.46
296.233	57.51
296.447	18.6
296.662	32.94
296.877	121
297.091	82.09
297.306	69.8
297.52	-34.64
297.735	114.86
297.949	100.52
298.164	39.08
298.378	63.66
298.593	-3.93
298.807	45.23
299.022	84.14
299.236	110.76
299.451	2.22
299.665	0.17
299.88	106.67
300.094	67.75
300.309	8.36
300.523	80.04
300.737	26.79
300.952	84.14
301.166	80.04
301.381	8.36
301.595	16.55
301.809	24.75
302.024	-32.6
302.238	-34.64
302.452	168.1
302.667	14.51
302.881	63.66
303.095	84.14
303.309	67.75
303.524	32.94
303.738	30.89
303.952	-16.21
304.166	123.05
304.381	-94.04
304.595	172.2
304.809	57.51
305.023	65.71
305.237	61.61
305.452	16.55
305.666	73.9
305.88	63.66
306.094	98.47
306.308	67.75
306.522	151.72
306.736	104.62
306.95	133.29
307.164	39.08
307.379	-3.93
307.593	102.57
307.807	51.37
308.021	71.85
308.235	135.34
308.449	-81.75
308.663	16.55
308.877	221.35
309.091	116.9
309.305	131.24
309.519	-116.56
309.733	164.01
309.947	-104.28
310.161	96.43
310.374	94.38
310.588	182.44
310.802	-38.74
311.016	41.13
311.23	30.89
311.444	34.99
311.658	104.62
311.872	108.71
312.085	84.14
312.299	166.06
312.513	108.71
312.727	82.09
312.941	-81.75
313.154	75.95
313.368	94.38
313.582	106.67
313.796	71.85
314.009	18.6
314.223	141.48
314.437	86.19
314.651	59.56
314.864	-32.6
315.078	43.18
315.292	-73.56
315.505	-3.93
315.719	149.67
315.933	67.75
316.146	22.7
316.36	-71.51
316.573	123.05
316.787	149.67
317.001	133.29
317.214	18.6
317.428	45.23
317.641	-67.41
317.855	14.51
318.068	59.56
318.282	59.56
318.495	202.92
318.709	12.46
318.922	-26.45
319.136	172.2
319.349	112.81
319.563	-3.93
319.776	151.72
319.99	-18.26
320.203	135.34
320.417	2.22
320.63	96.43
320.843	284.84
321.057	63.66
321.27	-20.31
321.483	161.96
321.697	172.2
321.91	114.86
322.124	63.66
322.337	69.8
322.55	-18.26
322.763	63.66
322.977	92.33
323.19	45.23
323.403	43.18
323.617	-3.93
323.83	125.1
324.043	123.05
324.256	118.95
324.469	-89.94
324.683	110.76
324.896	49.32
325.109	-5.97
325.322	-100.18
325.535	139.43
325.748	149.67
325.962	108.71
326.175	47.27
326.388	108.71
326.601	53.42
326.814	4.27
327.027	-1.88
327.24	200.87
327.453	-42.84
327.666	16.55
327.879	155.82
328.092	57.51
328.305	149.67
328.518	55.47
328.731	-73.56
328.944	28.84
329.157	86.19
329.37	47.27
329.583	231.59
329.796	202.92
330.009	-83.8
330.222	57.51
330.435	131.24
330.648	37.03
330.861	16.55
331.073	4.27
331.286	59.56
331.499	123.05
331.712	-20.31
331.925	2.22
332.138	24.75
332.35	112.81
332.563	0.17
332.776	118.95
332.989	-28.5
333.202	45.23
333.414	49.32
333.627	49.32
333.84	28.84
334.053	-3.93
334.265	82.09
334.478	20.65
334.691	39.08
334.903	37.03
335.116	-18.26
335.329	8.36
335.541	73.9
335.754	141.48
335.966	112.81
336.179	18.6
336.392	92.33
336.604	-1.88
336.817	143.53
337.029	37.03
337.242	63.66
337.454	57.51
337.667	0.17
337.88	141.48
338.092	121
338.305	100.52
338.517	69.8
338.729	106.67
338.942	108.71
339.154	-73.56
339.367	-69.46
339.579	-3.93
339.792	-73.56
340.004	63.66
340.217	82.09
340.429	45.23
340.641	16.55
340.854	-69.46
341.066	37.03
341.278	106.67
341.491	137.38
341.703	84.14
341.915	-36.69
342.128	145.58
342.34	8.36
342.552	4.27
342.764	51.37
342.977	26.79
343.189	161.96
343.401	86.19
343.613	-34.64
343.826	20.65
344.038	75.95
344.25	159.91
344.462	28.84
344.674	53.42
344.886	24.75
345.099	57.51
345.311	104.62
345.523	37.03
345.735	0.17
345.947	34.99
346.159	57.51
346.371	2.22
346.583	18.6
346.795	176.3
347.007	8.36
347.219	51.37
347.431	37.03
347.643	131.24
347.855	0.17
348.067	211.11
348.279	-38.74
348.491	2.22
348.703	98.47
348.915	-16.21
349.127	18.6
349.339	67.75
349.551	28.84
349.763	100.52
349.975	80.04
350.187	51.37
350.399	121
350.61	114.86
350.822	-3.93
351.034	114.86
351.246	49.32
351.458	39.08
351.669	75.95
351.881	118.95
352.093	94.38
352.305	104.62
352.517	57.51
352.728	121
352.94	57.51
353.152	61.61
353.363	-8.02
353.575	24.75
353.787	161.96
353.999	98.47
354.21	196.78
354.422	-18.26
354.633	8.36
354.845	-5.97
355.057	39.08
355.268	92.33
355.48	59.56
355.692	-28.5
355.903	6.31
356.115	-22.36
356.326	-73.56
356.538	192.68
356.749	100.52
356.961	121
357.172	73.9
357.384	2.22
357.595	159.91
357.807	86.19
358.018	-61.27
358.23	137.38
358.441	143.53
358.653	104.62
358.864	24.75
359.075	-30.55
359.287	14.51
359.498	123.05
359.709	71.85
359.921	116.9
360.132	39.08
360.344	77.99
360.555	37.03
360.766	123.05
360.977	-10.07
361.189	110.76
361.4	75.95
361.611	137.38
361.823	164.01
362.034	102.57
362.245	-89.94
362.456	-36.69
362.667	69.8
362.879	-10.07
363.09	6.31
363.301	65.71
363.512	49.32
363.723	47.27
363.935	-26.45
364.146	75.95
364.357	-57.17
364.568	88.23
364.779	-28.5
364.99	133.29
365.201	4.27
365.412	151.72
365.623	-22.36
365.834	123.05
366.045	45.23
366.256	41.13
366.467	55.47
366.678	47.27
366.889	10.41
367.1	30.89
367.311	168.1
367.522	45.23
367.733	157.86
367.944	34.99
368.155	16.55
368.366	168.1
368.577	106.67
368.788	151.72
368.999	-1.88
369.209	102.57
369.42	204.97
369.631	215.21
369.842	51.37
370.053	-22.36
370.264	63.66
370.474	-40.79
370.685	112.81
370.896	-14.17
371.107	190.63
371.317	61.61
371.528	-18.26
371.739	161.96
371.95	41.13
372.16	63.66
372.371	-44.88
372.582	8.36
372.792	6.31
373.003	20.65
373.214	77.99
373.424	45.23
373.635	-59.22
373.846	61.61
374.056	77.99
374.267	65.71
374.477	4.27
374.688	12.46
374.898	143.53
375.109	166.06
375.319	24.75
375.53	71.85
375.74	137.38
375.951	4.27
376.161	67.75
376.372	131.24
376.582	-26.45
376.793	73.9
377.003	18.6
377.214	53.42
377.424	155.82
377.635	92.33
377.845	-22.36
378.055	157.86
378.266	16.55
378.476	2.22
378.686	30.89
378.897	123.05
379.107	159.91
379.317	149.67
379.528	96.43
379.738	147.62
379.948	-12.12
380.158	123.05
380.369	71.85
380.579	51.37
380.789	-67.41
380.999	51.37
381.21	102.57
381.42	145.58
381.63	49.32
381.84	41.13
382.05	14.51
382.261	98.47
382.471	125.1
382.681	30.89
382.891	180.39
383.101	55.47
383.311	-81.75
383.521	-44.88
383.731	92.33
383.941	73.9
384.151	69.8
384.361	112.81
384.571	59.56
384.781	59.56
384.991	233.64
385.201	80.04
385.411	129.19
385.621	118.95
385.831	18.6
386.041	26.79
386.251	18.6
386.461	143.53
386.671	20.65
386.881	86.19
387.091	73.9
387.301	116.9
387.511	65.71
387.72	127.14
387.93	135.34
388.14	-61.27
388.35	39.08
388.56	133.29
388.769	80.04
388.979	20.65
389.189	-5.97
389.399	30.89
389.609	88.23
389.818	133.29
390.028	84.14
390.238	98.47
390.447	-46.93
390.657	100.52
390.867	-53.08
391.076	-94.04
391.286	80.04
391.496	26.79
391.705	47.27
391.915	141.48
392.125	75.95
392.334	-12.12
392.544	88.23
392.753	45.23
392.963	-69.46
393.172	39.08
393.382	24.75
393.591	184.49
393.801	16.55
394.01	121
394.22	114.86
394.429	26.79
394.639	37.03
394.848	104.62
395.058	-14.17
395.267	2.22
395.477	180.39
395.686	47.27
395.895	151.72
396.105	194.73
396.314	69.8
396.524	69.8
396.733	-22.36
396.942	116.9
397.152	106.67
397.361	90.28
397.57	37.03
397.78	43.18
397.989	102.57
398.198	192.68
398.407	92.33
398.617	43.18
398.826	45.23
399.035	-26.45
399.244	116.9
399.453	69.8
399.663	-24.4
399.872	86.19
400.081	-96.08
400.29	100.52
400.499	-3.93
400.708	82.09
400.917	0.17
401.127	59.56
401.336	-46.93
401.545	215.21
401.754	102.57
401.963	153.77
402.172	10.41
402.381	30.89
402.59	26.79
402.799	26.79
403.008	30.89
403.217	45.23
403.426	123.05
403.635	-36.69
403.844	16.55
404.053	26.79
404.262	-42.84
404.471	157.86
404.68	10.41
404.888	73.9
405.097	71.85
405.306	39.08
405.515	100.52
405.724	55.47
405.933	110.76
406.142	10.41
406.35	145.58
406.559	20.65
406.768	69.8
406.977	202.92
407.185	55.47
407.394	98.47
407.603	-57.17
407.812	88.23
408.02	114.86
408.229	4.27
408.438	57.51
408.646	-63.32
408.855	61.61
409.064	108.71
409.272	114.86
409.481	51.37
409.69	51.37
409.898	-48.98
410.107	90.28
410.315	-20.31
410.524	-14.17
410.733	88.23
410.941	47.27
411.15	45.23
411.358	-10.07
411.567	188.58
411.775	41.13
411.984	12.46
412.192	57.51
412.401	51.37
412.609	188.58
412.818	127.14
413.026	57.51
413.234	65.71
413.443	0.17
413.651	-26.45
413.86	-10.07
414.068	188.58
414.276	204.97
414.485	-3.93
414.693	125.1
414.901	207.02
415.11	104.62
415.318	71.85
415.526	34.99
415.734	73.9
415.943	41.13
416.151	90.28
416.359	63.66
416.567	34.99
416.776	82.09
416.984	57.51
417.192	190.63
417.4	67.75
417.608	-94.04
417.817	55.47
418.025	102.57
418.233	178.34
418.441	24.75
418.649	10.41
418.857	100.52
419.065	159.91
419.273	18.6
419.481	73.9
419.689	65.71
419.897	-10.07
420.105	-1.88
420.313	164.01
420.521	114.86
420.729	151.72
420.937	-53.08
421.145	-46.93
421.353	22.7
421.561	123.05
421.769	129.19
421.977	-30.55
422.185	73.9
422.393	96.43
422.601	155.82
422.809	92.33
423.017	6.31
423.224	139.43
423.432	108.71
423.64	71.85
423.848	41.13
424.056	-30.55
424.263	110.76
424.471	37.03
424.679	143.53
424.887	10.41
425.094	63.66
425.302	77.99
425.51	-36.69
425.718	57.51
425.925	84.14
426.133	14.51
426.341	235.69
426.548	18.6
426.756	-10.07
426.964	4.27
427.171	-1.88
427.379	127.14
427.586	135.34
427.794	26.79
428.001	145.58
428.209	106.67
428.417	204.97
428.624	143.53
428.832	55.47
429.039	135.34
429.247	75.95
429.454	176.3
429.662	139.43
429.869	55.47
430.076	94.38
430.284	106.67
430.491	180.39
430.699	43.18
430.906	149.67
431.114	98.47
431.321	98.47
431.528	32.94
431.736	123.05
431.943	155.82
432.15	143.53
432.358	157.86
432.565	143.53
432.772	18.6
432.979	114.86
433.187	73.9
433.394	161.96
433.601	65.71
433.808	131.24
434.016	209.06
434.223	268.45
434.43	198.82
434.637	137.38
434.844	92.33
435.052	143.53
435.259	184.49
435.466	176.3
435.673	211.11
435.88	243.88
436.087	284.84
436.294	164.01
436.501	266.41
436.708	223.4
436.915	176.3
437.122	188.58
437.329	172.2
437.537	157.86
437.743	90.28
437.95	333.99
438.157	252.07
438.364	194.73
438.571	290.98
438.778	315.56
438.985	215.21
439.192	297.13
439.399	327.85
439.606	319.65
439.813	366.76
440.02	368.81
440.227	438.44
440.433	417.96
440.64	331.94
440.847	297.13
441.054	344.23
441.261	442.53
441.467	297.13
441.674	295.08
441.881	483.49
442.088	346.28
442.294	426.15
442.501	456.87
442.708	555.17
442.914	477.35
443.121	436.39
443.328	469.16
443.534	612.51
443.741	526.5
443.948	454.82
444.154	508.07
444.361	731.3
444.568	663.71
444.774	696.48
444.981	551.07
445.187	729.25
445.394	663.71
445.6	641.18
445.807	805.02
446.013	659.62
446.22	692.38
446.426	823.45
446.633	905.37
446.839	1034.39
447.046	805.02
447.252	1058.97
447.459	954.52
447.665	1040.54
447.871	1050.78
448.078	1147.03
448.284	1192.09
448.491	1208.47
448.697	1327.25
448.903	1302.68
449.11	1390.74
449.316	1202.33
449.522	1280.15
449.728	1437.84
449.935	1388.69
450.141	1466.52
450.347	1605.78
450.553	1558.67
450.76	1693.84
450.966	1724.56
451.172	1802.38
451.378	1876.11
451.584	1892.49
451.791	2039.95
451.997	2078.86
452.203	2123.91
452.409	2318.47
452.615	2347.14
452.821	2175.11
453.027	2240.65
453.233	2623.62
453.44	2453.64
453.646	2650.24
453.852	2703.49
454.058	2893.95
454.264	2875.52
454.47	3127.42
454.676	3170.43
454.882	3426.42
455.088	3221.63
455.294	3317.88
455.5	3717.23
455.705	3893.36
455.911	3733.62
456.117	3977.33
456.323	4151.4
456.529	4114.54
456.735	4364.39
456.941	4567.14
457.147	4753.51
457.352	4786.27
457.558	4898.91
457.764	5271.64
457.97	5539.93
458.176	5644.37
458.381	5933.14
458.587	5945.42
458.793	6348.87
458.999	6430.79
459.204	7114.81
459.41	7540.79
459.616	7118.91
459.821	7907.38
460.027	7952.43
460.233	8382.51
460.438	8607.78
460.644	8986.66
460.85	9007.14
461.055	9467.93
461.261	9885.72
461.466	9629.72
461.672	10010.64
461.878	10956.8
462.083	10690.57
462.289	11005.95
462.494	11489.28
462.7	11550.71
462.905	11497.47
463.111	12728.3
463.316	13221.86
463.522	13516.76
463.727	14045.14
463.932	14641.1
464.138	14899.14
464.343	15591.36
464.549	15890.36
464.754	16742.32
464.959	17270.69
465.165	17362.85
465.37	17543.07
465.575	17381.28
465.781	18677.65
465.986	19117.96
466.191	18745.23
466.397	18952.07
466.602	18483.09
466.807	19681.15
467.012	19855.23
467.218	20549.49
467.423	20496.24
467.628	21041
467.833	21999.45
468.038	21356.39
468.244	21049.19
468.449	22366.04
468.654	21731.17
468.859	21892.96
469.064	22081.37
469.269	21378.92
469.474	21679.97
469.679	22216.54
469.885	21577.57
470.09	21792.61
470.295	22075.23
470.5	21165.93
470.705	21600.1
470.91	21170.02
471.115	20686.7
471.32	21141.35
471.525	20811.63
471.73	20535.15
471.935	20301.68
472.139	19507.07
472.344	19539.84
472.549	19656.57
472.754	19040.14
472.959	18673.55
473.164	18157.46
473.369	17522.59
473.574	18139.03
473.778	17700.76
473.983	17647.52
474.188	17477.54
474.393	16150.45
474.598	16299.95
474.802	16058.29
475.007	15636.41
475.212	15599.55
475.417	15044.55
475.621	14727.11
475.826	14753.74
476.031	14299.09
476.235	14180.31
476.44	14141.39
476.645	13815.77
476.849	13586.4
477.054	13092.83
477.259	13084.64
477.463	12918.76
477.668	12779.5
477.872	12648.43
478.077	12287.98
478.282	11997.17
478.486	11976.69
478.691	11687.93
478.895	11757.56
479.1	11616.25
479.304	11601.91
479.509	11218.94
479.713	11225.09
479.918	10825.73
480.122	10612.74
480.326	10932.23
480.531	10866.69
480.735	10690.57
480.94	10461.2
481.144	10702.86
481.348	10119.18
481.553	10401.8
481.757	10137.62
481.961	10154
482.166	10395.66
482.37	10096.66
482.574	9852.95
482.778	9820.18
482.983	10000.4
483.187	9807.89
483.391	9697.3
483.595	9672.73
483.8	9310.24
484.004	9404.44
484.208	9492.51
484.412	9297.95
484.616	9166.88
484.821	9068.58
485.025	8865.83
485.229	8845.35
485.433	8783.91
485.637	8687.65
485.841	8468.52
486.045	8546.34
486.249	8554.54
486.453	8167.47
486.657	8310.83
486.861	8128.56
487.065	7776.31
487.269	7897.14
487.473	7581.75
487.677	7682.1
487.881	7745.59
488.085	7088.19
488.289	7446.59
488.493	7008.32
488.697	7133.25
488.901	6950.98
489.105	6840.39
489.309	6547.53
489.512	6754.37
489.716	6412.36
489.92	6481.99
490.124	6236.24
490.328	6226
490.531	6015.05
490.735	5892.18
490.939	5890.13
491.143	5615.7
491.346	5724.24
491.55	5611.61
491.754	5593.17
491.958	5476.44
492.161	5314.65
492.365	5202.01
492.569	5189.72
492.772	5173.34
492.976	5185.63
493.18	4808.8
493.383	5128.28
493.587	4876.38
493.79	5064.8
493.994	4790.37
494.197	4810.85
494.401	4669.54
494.605	4612.2
494.808	4638.82
495.012	4604
495.215	4657.25
495.419	4665.44
495.622	4438.12
495.825	4438.12
496.029	4370.54
496.232	4618.34
496.436	4407.4
496.639	4610.15
496.843	4485.22
497.046	4409.45
497.249	4698.21
497.453	4604
497.656	4550.76
497.859	4577.38
498.063	4644.96
498.266	4718.69
498.469	4497.51
498.673	4569.19
498.876	4651.11
499.079	4690.02
499.282	4581.48
499.485	4939.87
499.689	4786.27
499.892	4991.07
500.095	4847.71
500.298	4882.53
500.501	4827.23
500.705	5068.89
500.908	5103.71
501.111	5025.89
501.314	5191.77
501.517	5251.16
501.72	5245.02
501.923	5394.52
502.126	5501.01
502.329	5554.26
502.532	5503.06
502.735	5601.37
502.938	5566.55
503.141	5687.38
503.344	5750.87
503.547	6017.1
503.75	5974.1
503.953	5945.42
504.156	6359.11
504.359	6129.74
504.562	6109.26
504.765	6406.22
504.968	6555.72
505.17	6606.92
505.373	6615.11
505.576	6840.39
505.779	7012.42
505.982	7067.71
506.185	7327.8
506.387	7399.48
506.59	7491.64
506.793	7573.56
506.996	7696.44
507.198	8134.7
507.401	8255.53
507.604	8249.39
507.807	8372.27
508.009	8458.28
508.212	8738.85
508.415	8945.7
508.617	9156.64
508.82	9236.51
509.022	9306.14
509.225	9732.12
509.428	9926.68
509.63	10262.54
509.833	10207.25
510.035	10729.48
510.238	10860.55
510.44	11302.91
510.643	11356.16
510.845	11704.31
511.048	11665.4
511.25	11945.97
511.453	12410.86
511.655	12824.55
511.858	13187.04
512.06	13471.71
512.262	13359.07
512.465	13653.98
512.667	14034.9
512.87	14575.56
513.072	14821.32
513.274	15239.11
513.477	15429.57
513.679	15898.55
513.881	16170.93
514.084	16678.83
514.286	16723.88
514.488	17436.58
514.69	17776.54
514.893	18145.17
515.095	18325.4
515.297	18861.96
515.499	19128.2
515.701	19754.88
515.904	20391.8
516.106	20551.54
516.308	21270.37
516.51	21356.39
516.712	21458.79
516.914	22284.12
517.116	22841.17
517.318	23310.15
517.52	23482.18
517.722	24205.11
517.925	24528.69
518.127	25052.97
518.329	25421.61
518.531	25845.54
518.733	26609.43
518.935	26928.91
519.136	27227.92
519.338	27782.91
519.54	28225.28
519.742	28772.08
519.944	29005.55
520.146	29736.68
520.348	29812.45
520.55	30287.58
520.752	30355.16
520.954	31250.13
521.155	31155.92
521.357	32147.14
521.559	32308.93
521.761	32868.02
521.963	33191.6
522.164	33160.88
522.366	33380.01
522.568	33801.89
522.77	34332.32
522.971	35149.46
523.173	34821.78
523.375	35432.08
523.576	35546.76
523.778	35262.1
523.98	36079.24
524.181	35813
524.383	36132.48
524.584	36712.06
524.786	36099.72
524.988	36150.92
525.189	36474.49
525.391	36808.31
525.592	36941.43
525.794	36984.44
525.995	36763.26
526.197	36509.31
526.398	37170.8
526.6	37111.41
526.801	36896.38
527.003	36816.5
527.204	36497.02
527.406	36642.43
527.607	36492.93
527.808	36431.49
528.01	35417.74
528.211	35907.21
528.412	35866.25
528.614	35661.45
528.815	35346.06
529.016	35090.07
529.218	34612.89
529.419	34653.85
529.62	34180.77
529.822	34145.95
530.023	33898.15
530.224	33732.26
530.425	33289.9
530.626	32614.07
530.828	32079.55
531.029	32626.36
531.23	31817.41
531.431	31596.23
531.632	31338.19
531.833	30992.08
532.035	30693.08
532.236	30279.39
532.437	30086.88
532.638	29472.49
532.839	28946.16
533.04	28976.88
533.241	28235.52
533.442	28667.64
533.643	27803.39
533.844	27412.23
534.045	27326.22
534.246	26498.84
534.447	26359.58
534.648	25931.55
534.849	25898.78
535.05	24981.29
535.251	25239.34
535.451	24616.76
535.652	24500.02
535.853	24088.38
536.054	23906.11
536.255	23652.16
536.456	23068.49
536.657	23238.47
536.857	22507.35
537.058	22312.79
537.259	21919.58
537.46	21946.2
537.66	21297
537.861	21391.2
538.062	20897.64
538.263	20637.55
538.463	20232.05
538.664	20248.44
538.865	19801.98
539.065	19748.73
539.266	19566.46
539.466	19339.14
539.667	18782.09
539.868	18880.39
540.068	18562.96
540.269	18374.55
540.469	18186.13
540.67	17860.51
540.87	17670.05
541.071	17465.25
541.271	17389.47
541.472	17063.85
541.672	16859.05
541.873	16623.53
542.073	16129.97
542.274	16369.58
542.474	16218.04
542.675	15755.19
542.875	15820.73
543.075	15384.51
543.276	15294.4
543.476	15521.73
543.676	15030.21
543.877	14794.7
544.077	14665.67
544.277	14518.22
544.478	14282.7
544.678	14405.58
544.878	14122.96
545.078	13664.22
545.279	13735.9
545.479	13504.48
545.679	13711.32
545.879	13314.02
546.079	13363.17
546.28	12894.18
546.48	12918.76
546.68	12734.44
546.88	12613.61
547.08	12312.56
547.28	12343.28
547.48	11999.22
547.68	11964.4
547.88	11649.02
548.081	11556.86
548.281	11503.61
548.481	11251.71
548.681	11345.92
548.881	11161.6
549.081	11075.59
549.28	10606.6
549.48	10647.56
549.68	10518.54
549.88	10752.01
550.08	10309.65
550.28	10080.27
550.48	9930.77
550.68	9965.59
550.88	9678.87
551.08	9504.79
551.279	9613.34
551.479	9502.75
551.679	9371.68
551.879	9091.1
552.079	8943.65
552.278	8919.07
552.478	8720.42
552.678	8544.3
552.878	8353.84
553.077	8378.41
553.277	8071.22
553.477	8087.6
553.676	7835.7
553.876	7811.12
554.076	7563.32
554.275	7651.38
554.475	7295.04
554.674	7317.56
554.874	7184.45
555.074	7055.42
555.273	7032.9
555.473	6938.69
555.672	6477.9
555.872	6633.54
556.071	6729.8
556.271	6598.73
556.47	6445.13
556.67	6166.6
556.869	6103.12
557.068	6115.41
557.268	5888.08
557.467	5947.47
557.667	5793.87
557.866	5570.65
558.065	5650.52
558.265	5484.63
558.464	5234.78
558.663	5339.23
558.863	5148.76
559.062	5204.06
559.261	4960.35
559.461	5011.55
559.66	4845.66
559.859	4763.75
560.058	4669.54
560.258	4714.59
560.457	4477.03
560.656	4556.9
560.855	4268.14
561.054	4491.37
561.253	4333.67
561.453	4239.47
561.652	4122.73
561.851	4135.02
562.05	3940.46
562.249	3870.83
562.448	3999.85
562.647	3745.91
562.846	3655.79
563.045	3868.78
563.244	3659.89
563.443	3645.56
563.642	3475.57
563.841	3637.36
564.04	3455.09
564.239	3410.04
564.438	3440.76
564.637	3078.27
564.836	3262.58
565.035	3170.43
565.234	3115.13
565.432	3059.84
565.631	3151.99
565.83	3123.32
566.029	3018.88
566.228	2930.81
566.427	2893.95
566.625	2697.35
566.824	2832.51
567.023	2758.78
567.222	2668.67
567.42	2713.73
567.619	2664.58
567.818	2527.36
568.016	2697.35
568.215	2541.7
568.414	2535.56
568.612	2472.07
568.811	2347.14
569.01	2220.17
569.208	2287.75
569.407	2363.53
569.605	2322.57
569.804	2175.11
570.002	2248.84
570.201	2105.48
570.4	2189.45
570.598	2058.38
570.797	1968.27
570.995	2064.52
571.193	1855.63
571.392	2001.04
571.59	1869.97
571.789	1994.89
571.987	1910.93
572.186	1921.17
572.384	1814.67
572.582	1740.94
572.781	1890.45
572.979	1593.49
573.177	1599.63
573.376	1611.92
573.574	1724.56
573.772	1638.55
573.971	1509.52
574.169	1523.86
574.367	1605.78
574.565	1521.81
574.763	1587.35
574.962	1454.23
575.16	1472.66
575.358	1341.59
575.556	1499.28
575.754	1515.67
575.952	1271.96
576.151	1331.35
576.349	1413.27
576.547	1175.7
576.745	1323.16
576.943	1218.71
577.141	1286.3
577.339	1181.85
577.537	1183.9
577.735	1202.33
577.933	1185.94
578.131	1124.51
578.329	1362.07
578.527	1104.03
578.725	1142.94
578.923	1083.55
579.121	1093.79
579.319	1011.87
579.516	1001.63
579.714	1226.9
579.912	1026.2
580.11	938.14
580.308	966.81
580.506	893.09
580.704	876.7
580.901	854.17
581.099	979.1
581.297	866.46
581.495	911.52
581.692	872.61
581.89	1007.77
582.088	780.45
582.285	938.14
582.483	776.35
582.681	776.35
582.878	766.11
583.076	716.96
583.274	774.3
583.471	843.93
583.669	823.45
583.866	716.96
584.064	723.1
584.262	686.24
584.459	612.51
584.657	764.06
584.854	712.86
585.052	708.77
585.249	733.34
585.447	651.42
585.644	600.23
585.841	626.85
586.039	618.66
586.236	682.14
586.434	669.86
586.631	499.88
586.828	549.03
587.026	522.4
587.223	540.83
587.42	563.36
587.618	610.47
587.815	669.86
588.012	551.07
588.21	460.96
588.407	522.4
588.604	589.99
588.801	471.2
588.999	436.39
589.196	577.7
589.393	477.35
589.59	499.88
589.787	592.03
589.984	508.07
590.182	549.03
590.379	374.95
590.576	581.79
590.773	501.92
590.97	417.96
591.167	508.07
591.364	620.71
591.561	465.06
591.758	549.03
591.955	497.83
592.152	528.55
592.349	297.13
592.546	438.44
592.743	428.2
592.94	411.81
593.137	506.02
593.334	493.73
593.531	467.11
593.727	475.3
593.924	456.87
594.121	489.64
594.318	471.2
594.515	589.99
594.712	596.13
594.908	606.37
595.105	409.76
595.302	460.96
595.499	440.48
595.696	673.95
595.892	491.68
596.089	600.23
596.286	600.23
596.482	561.31
596.679	577.7
596.876	438.44
597.072	579.75
597.269	463.01
597.466	655.52
597.662	557.22
597.859	557.22
598.055	616.61
598.252	684.19
598.448	714.91
598.645	710.82
598.841	764.06
599.038	835.74
599.234	825.5
599.431	800.93
599.627	809.12
599.824	874.65
600.02	891.04
600.217	800.93
600.413	925.85
600.609	921.76
600.806	1157.27
601.002	1026.2
601.198	993.44
601.395	1165.46
601.591	1161.37
601.787	1169.56
601.984	1255.58
602.18	1228.95
602.376	1314.97
602.572	1388.69
602.769	1581.2
602.965	1497.24
603.161	1601.68
603.357	1659.03
603.553	1704.08
603.75	1693.84
603.946	1669.27
604.142	1745.04
604.338	1886.35
604.534	1880.21
604.73	2007.18
604.926	1867.92
605.122	2142.35
605.318	2136.2
605.514	2246.79
605.71	2230.41
605.906	2388.1
606.102	2291.85
606.298	2580.61
606.494	2508.93
606.69	2625.67
606.886	2781.31
607.082	2691.2
607.278	2736.26
607.474	2961.53
607.67	2881.66
607.866	2982.01
608.062	3151.99
608.257	3274.87
608.453	3207.29
608.649	3469.43
608.845	3215.48
609.041	3457.14
609.236	3606.64
609.432	3754.1
609.628	3954.8
609.824	3995.76
610.019	4063.34
610.215	4065.39
610.411	4372.58
610.606	4507.75
610.802	4509.8
610.998	4622.44
611.193	4802.66
611.389	4784.23
611.584	4972.64
611.78	4989.02
611.976	5052.51
612.171	5470.3
612.367	5527.64
612.562	5636.18
612.758	5580.89
612.953	5746.77
613.149	6154.32
613.344	6301.77
613.539	6389.83
613.735	6576.2
613.93	6686.79
614.126	6895.68
614.321	7055.42
614.517	7352.38
614.712	7426.11
614.907	7682.1
615.103	7807.03
615.298	7860.27
615.493	8216.62
615.688	8284.2
615.884	8804.39
616.079	8763.43
616.274	9185.31
616.47	9279.52
616.665	9437.21
616.86	9678.87
617.055	9875.48
617.25	10168.34
617.445	10307.6
617.641	10401.8
617.836	10874.88
618.031	11071.49
618.226	11595.77
618.421	11567.1
618.616	12007.41
618.811	12070.9
619.006	12537.84
619.201	12652.52
619.396	12920.81
619.591	13215.71
619.786	13807.58
619.981	13828.06
620.176	14264.27
620.371	14436.3
620.566	14923.72
620.761	14944.2
620.956	15472.57
621.151	15732.67
621.346	16160.69
621.541	16101.3
621.735	16820.14
621.93	16633.77
622.125	17102.76
622.32	17448.86
622.515	17633.18
622.709	18364.31
622.904	18220.95
623.099	18366.35
623.294	19244.93
623.488	19138.44
623.683	20033.4
623.878	19791.74
624.072	20442.99
624.267	20649.84
624.462	21018.47
624.656	21018.47
624.851	21727.07
625.046	21999.45
625.24	22153.05
625.435	22544.21
625.629	22921.04
625.824	23203.66
626.018	23512.9
626.213	23097.16
626.407	23936.83
626.602	23686.98
626.796	24467.25
626.991	24555.32
627.185	24809.26
627.38	24776.5
627.574	24999.73
627.768	25081.64
627.963	25376.55
628.157	25227.05
628.352	25487.14
628.546	25220.91
628.74	25894.69
628.935	25085.74
629.129	25354.02
629.323	25292.58
629.517	24971.05
629.712	25147.18
629.906	24895.28
630.1	24545.08
630.294	24395.57
630.489	24020.8
630.683	24057.66
630.877	23285.58
631.071	23033.68
631.265	22949.71
631.459	22241.11
631.653	21747.55
631.848	21655.39
632.042	21057.39
632.236	20123.51
632.43	19605.38
632.624	19187.59
632.818	18638.73
633.012	18093.97
633.206	17307.55
633.4	17061.8
633.594	16463.79
633.788	15949.75
633.982	15427.52
634.176	14970.82
634.369	14342.1
634.563	13590.49
634.757	13098.98
634.951	12929
635.145	12177.39
635.339	11835.38
635.533	11296.77
635.726	10866.69
635.92	10321.93
636.114	10029.07
636.308	9586.71
636.501	9402.4
636.695	8620.07
636.889	8202.29
637.083	8372.27
637.276	7813.17
637.47	7419.96
637.664	7178.3
637.857	6787.14
638.051	6510.66
638.244	6350.92
638.438	6105.17
638.632	5797.97
638.825	5427.29
639.019	5582.93
639.212	5075.04
639.406	5029.98
639.599	4888.67
639.793	4503.65
639.986	4520.04
640.18	4296.81
640.373	4098.16
640.567	4055.15
640.76	3659.89
640.954	3672.18
641.147	3358.84
641.34	3352.7
641.534	3211.39
641.727	3227.77
641.92	3086.46
642.114	2963.58
642.307	2789.5
642.5	2732.16
642.694	2541.7
642.887	2617.47
643.08	2377.86
643.273	2369.67
643.467	2203.79
643.66	2105.48
643.853	1996.94
644.046	2031.76
644.239	1896.59
644.432	1738.9
644.626	1695.89
644.819	1687.7
645.012	1636.5
645.205	1613.97
645.398	1542.29
645.591	1497.24
645.784	1243.29
645.977	1267.86
646.17	1292.44
646.363	1177.75
646.556	1130.65
646.749	1038.49
646.942	1075.35
647.135	1106.07
647.328	1108.12
647.521	1018.01
647.714	852.13
647.907	925.85
648.099	747.68
648.292	944.28
648.485	952.48
648.678	796.83
648.871	774.3
649.064	762.02
649.256	682.14
649.449	686.24
649.642	520.35
649.835	573.6
650.027	585.89
650.22	676
650.413	557.22
650.605	579.75
650.798	510.11
650.991	542.88
651.183	475.3
651.376	565.41
651.568	514.21
651.761	368.81
651.954	497.83
652.146	362.66
652.339	487.59
652.531	512.16
652.724	268.45
652.916	362.66
653.109	276.65
653.301	448.68
653.494	405.67
653.686	452.77
653.879	366.76
654.071	348.33
654.263	315.56
654.456	213.16
654.648	389.28
654.84	374.95
655.033	262.31
655.225	364.71
655.417	180.39
655.61	344.23
655.802	403.62
655.994	370.85
656.186	151.72
656.379	395.43
656.571	262.31
656.763	145.58
656.955	235.69
657.148	217.26
657.34	176.3
657.532	186.54
657.724	207.02
657.916	225.45
658.108	247.97
658.3	243.88
658.492	237.74
658.684	170.15
658.876	260.26
659.068	47.27
659.26	137.38
659.452	92.33
659.644	237.74
659.836	247.97
660.028	256.17
660.22	157.86
660.412	149.67
660.604	170.15
660.796	143.53
660.988	231.59
661.18	247.97
661.372	219.3
661.563	262.31
661.755	112.81
661.947	65.71
662.139	200.87
662.331	104.62
662.522	159.91
662.714	82.09
662.906	59.56
663.097	168.1
663.289	71.85
663.481	18.6
663.673	143.53
663.864	32.94
664.056	254.12
664.247	86.19
664.439	303.27
664.631	96.43
664.822	188.58
665.014	123.05
665.205	151.72
665.397	153.77
665.588	118.95
665.78	164.01
665.971	137.38
666.163	180.39
666.354	202.92
666.546	20.65
666.737	170.15
666.929	110.76
667.12	118.95
667.311	200.87
667.503	100.52
667.694	125.1
667.885	143.53
668.077	147.62
668.268	30.89
668.459	133.29
668.651	69.8
668.842	116.9
669.033	2.22
669.224	71.85
669.416	299.17
669.607	135.34
669.798	53.42
669.989	133.29
670.18	84.14
670.371	229.54
670.563	43.18
670.754	88.23
670.945	166.06
671.136	145.58
671.327	96.43
671.518	207.02
671.709	168.1
671.9	188.58
672.091	311.46
672.282	180.39
672.473	131.24
672.664	10.41
672.855	116.9
673.046	157.86
673.237	233.64
673.428	196.78
673.619	135.34
673.809	73.9
674	233.64
674.191	178.34
674.382	157.86
674.573	145.58
674.764	65.71
674.954	172.2
675.145	71.85
675.336	63.66
675.527	147.62
675.717	82.09
675.908	186.54
676.099	155.82
676.289	155.82
676.48	71.85
676.671	143.53
676.861	112.81
677.052	151.72
677.243	118.95
677.433	127.14
677.624	174.25
677.814	96.43
678.005	121
678.195	288.93
678.386	98.47
678.576	155.82
678.767	73.9
678.957	168.1
679.148	161.96
679.338	276.65
679.529	155.82
679.719	151.72
679.909	186.54
680.1	241.83
680.29	174.25
680.481	63.66
680.671	247.97
680.861	221.35
681.052	176.3
681.242	114.86
681.432	196.78
681.622	196.78
681.813	106.67
682.003	200.87
682.193	114.86
682.383	225.45
682.573	252.07
682.764	106.67
682.954	178.34
683.144	331.94
683.334	157.86
683.524	200.87
683.714	239.78
683.904	202.92
684.094	123.05
684.284	247.97
684.474	313.51
684.664	260.26
684.854	217.26
685.044	159.91
685.234	180.39
685.424	215.21
685.614	106.67
685.804	231.59
685.994	264.36
686.184	149.67
686.374	198.82
686.564	178.34
686.753	221.35
686.943	137.38
687.133	164.01
687.323	311.46
687.513	233.64
687.702	145.58
687.892	137.38
688.082	299.17
688.272	245.93
688.461	237.74
688.651	331.94
688.841	188.58
689.03	219.3
689.22	252.07
689.41	290.98
689.599	196.78
689.789	88.23
689.979	321.7
690.168	184.49
690.358	202.92
690.547	215.21
690.737	227.5
690.926	174.25
691.116	215.21
691.305	297.13
691.495	202.92
691.684	73.9
691.874	133.29
692.063	188.58
692.252	178.34
692.442	307.37
692.631	176.3
692.82	207.02
693.01	286.89
693.199	121
693.388	239.78
693.578	143.53
693.767	168.1
693.956	215.21
694.146	157.86
694.335	264.36
694.524	166.06
694.713	221.35
694.902	149.67
695.092	141.48
695.281	237.74
695.47	237.74
695.659	204.97
695.848	188.58
696.037	123.05
696.226	243.88
696.415	143.53
696.604	178.34
696.793	196.78
696.982	188.58
697.171	319.65
697.36	182.44
697.549	180.39
697.738	61.61
697.927	133.29
698.116	121
698.305	190.63
698.494	155.82
698.683	118.95
698.872	346.28
699.061	141.48
699.25	164.01
699.438	207.02
699.627	100.52
699.816	282.79
700.005	47.27
700.193	116.9
700.382	237.74
700.571	137.38
700.76	229.54
700.948	192.68
701.137	184.49
701.326	266.41
701.514	145.58
701.703	192.68
701.892	221.35
702.08	309.41
702.269	166.06
702.457	155.82
702.646	96.43
702.834	245.93
703.023	286.89
703.212	196.78
703.4	233.64
703.589	151.72
703.777	123.05
703.965	161.96
704.154	170.15
704.342	133.29
704.531	174.25
704.719	254.12
704.907	237.74
705.096	106.67
705.284	100.52
705.472	207.02
705.661	223.4
705.849	239.78
706.037	247.97
706.226	202.92
706.414	247.97
706.602	80.04
706.79	233.64
706.979	82.09
707.167	102.57
707.355	12.46
707.543	229.54
707.731	225.45
707.919	170.15
708.107	116.9
708.296	166.06
708.484	39.08
708.672	247.97
708.86	161.96
709.048	213.16
709.236	86.19
709.424	297.13
709.612	204.97
709.8	96.43
709.988	151.72
710.176	268.45
710.364	272.55
710.551	168.1
710.739	161.96
710.927	100.52
711.115	235.69
711.303	235.69
711.491	207.02
711.679	100.52
711.866	178.34
712.054	149.67
712.242	164.01
712.43	258.21
712.617	200.87
712.805	219.3
712.993	176.3
713.181	80.04
713.368	266.41
713.556	86.19
713.744	77.99
713.931	393.38
714.119	229.54
714.306	96.43
714.494	190.63
714.682	129.19
714.869	88.23
715.057	192.68
715.244	98.47
715.432	252.07
715.619	100.52
715.807	172.2
715.994	207.02
716.182	227.5
716.369	168.1
716.556	254.12
716.744	39.08
716.931	137.38
717.119	256.17
717.306	125.1
717.493	233.64
717.681	207.02
717.868	151.72
718.055	229.54
718.242	282.79
718.43	247.97
718.617	325.8
718.804	170.15
718.991	256.17
719.179	184.49
719.366	297.13
719.553	270.5
719.74	194.73
719.927	235.69
720.114	196.78
720.301	184.49
720.488	178.34
720.676	170.15
720.863	311.46
721.05	315.56
721.237	252.07
721.424	297.13
721.611	290.98
721.798	174.25
721.985	188.58
722.172	131.24
722.358	178.34
722.545	229.54
722.732	211.11
722.919	319.65
723.106	223.4
723.293	147.62
723.48	233.64
723.667	184.49
723.853	297.13
724.04	260.26
724.227	258.21
724.414	237.74
724.6	233.64
724.787	317.61
724.974	389.28
725.161	237.74
725.347	225.45
725.534	241.83
725.72	227.5
725.907	295.08
726.094	346.28
726.28	149.67
726.467	227.5
726.653	200.87
726.84	340.13
727.027	295.08
727.213	204.97
727.4	329.89
727.586	270.5
727.773	221.35
727.959	264.36
728.145	235.69
728.332	276.65
728.518	231.59
728.705	290.98
728.891	235.69
729.077	239.78
729.264	254.12
729.45	223.4
729.636	233.64
729.823	268.45
730.009	301.22
730.195	235.69
730.382	370.85
730.568	262.31
730.754	215.21
730.94	272.55
731.126	309.41
731.313	262.31
731.499	204.97
731.685	346.28
731.871	366.76
732.057	383.14
732.243	342.18
732.429	270.5
732.615	395.43
732.801	340.13
732.987	241.83
733.173	315.56
733.359	284.84
733.545	237.74
733.731	178.34
733.917	389.28
734.103	264.36
734.289	342.18
734.475	321.7
734.661	428.2
734.847	274.6
735.033	231.59
735.219	290.98
735.404	305.32
735.59	182.44
735.776	395.43
735.962	370.85
736.148	260.26
736.333	403.62
736.519	319.65
736.705	241.83
736.89	284.84
737.076	295.08
737.262	250.02
737.447	215.21
737.633	307.37
737.819	389.28
738.004	331.94
738.19	284.84
738.375	258.21
738.561	350.37
738.747	313.51
738.932	182.44
739.118	432.29
739.303	331.94
739.489	250.02
739.674	250.02
739.859	217.26
740.045	290.98
740.23	301.22
740.416	262.31
740.601	266.41
740.786	295.08
740.972	213.16
741.157	276.65
741.342	231.59
741.528	153.77
741.713	319.65
741.898	268.45
742.084	368.81
742.269	256.17
742.454	247.97
742.639	272.55
742.824	336.04
743.01	444.58
743.195	469.16
743.38	264.36
743.565	213.16
743.75	303.27
743.935	395.43
744.12	401.57
744.305	194.73
744.49	303.27
744.675	295.08
744.86	254.12
745.045	346.28
745.23	295.08
745.415	264.36
745.6	379.04
745.785	301.22
745.97	354.47
746.155	383.14
746.34	372.9
746.525	295.08
746.71	313.51
746.895	204.97
747.079	239.78
747.264	307.37
747.449	299.17
747.634	233.64
747.819	288.93
748.003	260.26
748.188	254.12
748.373	290.98
748.557	153.77
748.742	178.34
748.927	323.75
749.111	223.4
749.296	209.06
749.481	381.09
749.665	254.12
749.85	188.58
750.034	221.35
750.219	235.69
750.404	227.5
750.588	290.98
750.773	161.96
750.957	278.69
751.141	239.78
751.326	241.83
751.51	151.72
751.695	299.17
751.879	245.93
752.064	327.85
752.248	278.69
752.432	354.47
752.617	319.65
752.801	299.17
752.985	256.17
753.17	354.47
753.354	274.6
753.538	202.92
753.722	159.91
753.907	223.4
754.091	129.19
754.275	272.55
754.459	219.3
754.643	250.02
754.828	276.65
755.012	227.5
755.196	155.82
755.38	198.82
755.564	274.6
755.748	145.58
755.932	331.94
756.116	270.5
756.3	288.93
756.484	159.91
756.668	254.12
756.852	112.81
757.036	94.38
757.22	245.93
757.404	151.72
757.588	141.48
757.772	258.21
757.956	194.73
758.14	323.75
758.323	84.14
758.507	194.73
758.691	223.4
758.875	278.69
759.059	213.16
759.242	153.77
759.426	166.06
759.61	182.44
759.794	104.62
759.977	166.06
760.161	368.81
760.345	301.22
760.528	176.3
760.712	241.83
760.895	166.06
761.079	211.11
761.263	114.86
761.446	69.8
761.63	149.67
761.813	260.26
761.997	133.29
762.18	157.86
762.364	200.87
762.547	57.51
762.731	63.66
762.914	211.11
763.098	90.28
763.281	92.33
763.464	108.71
763.648	213.16
763.831	92.33
764.015	100.52
764.198	192.68
764.381	143.53
764.564	151.72
764.748	184.49
764.931	123.05
765.114	88.23
765.297	188.58
765.481	32.94
765.664	178.34
765.847	184.49
766.03	170.15
766.213	114.86
766.397	184.49
766.58	84.14
766.763	202.92
766.946	43.18
767.129	168.1
767.312	98.47
767.495	71.85
767.678	39.08
767.861	116.9
768.044	63.66
768.227	102.57
768.41	41.13
768.593	63.66
768.776	166.06
768.959	30.89
769.142	233.64
769.324	77.99
769.507	118.95
769.69	98.47
769.873	82.09
770.056	223.4
770.239	118.95
770.421	233.64
770.604	180.39
770.787	129.19
770.97	151.72
771.152	37.03
771.335	180.39
771.518	53.42
771.7	178.34
771.883	245.93
772.066	73.9
772.248	131.24
772.431	200.87
772.613	147.62
772.796	88.23
772.978	186.54
773.161	282.79
773.343	161.96
773.526	37.03
773.708	34.99
773.891	-36.69
774.073	86.19
774.256	67.75
774.438	207.02
774.621	145.58
774.803	106.67
774.985	94.38
775.168	100.52
775.35	65.71
775.532	98.47
775.715	55.47
775.897	75.95
776.079	47.27
776.261	139.43
776.444	145.58
776.626	69.8
776.808	22.7
776.99	6.31
777.173	65.71
777.355	100.52
777.537	71.85
777.719	137.38
777.901	102.57
778.083	69.8
778.265	12.46
778.447	104.62
778.629	80.04
778.811	104.62
778.993	145.58
779.175	225.45
779.357	114.86
779.539	37.03
779.721	53.42
779.903	121
780.085	98.47
780.267	39.08
780.449	43.18
780.631	145.58
780.812	192.68
780.994	82.09
781.176	61.61
781.358	104.62
781.54	139.43
781.721	63.66
781.903	192.68
782.085	92.33
782.267	90.28
782.448	6.31
782.63	69.8
782.812	0.17
782.993	161.96
783.175	168.1
783.357	65.71
783.538	100.52
783.72	4.27
783.901	45.23
784.083	98.47
784.264	131.24
784.446	-30.55
784.627	-30.55
784.809	73.9
784.99	45.23
785.172	69.8
785.353	-3.93
785.535	26.79
785.716	-12.12
785.897	-53.08
786.079	96.43
786.26	26.79
786.441	114.86
786.623	8.36
786.804	-14.17
786.985	0.17
787.167	90.28
787.348	94.38
787.529	16.55
787.71	118.95
787.891	147.62
788.073	-32.6
788.254	-110.42
788.435	186.54
788.616	-10.07
788.797	28.84
788.978	28.84
789.159	8.36
789.34	92.33
789.522	73.9
789.703	10.41
789.884	39.08
790.065	63.66
790.246	196.78
790.427	-59.22
790.607	145.58
790.788	86.19
790.969	-40.79
791.15	22.7
791.331	43.18
791.512	-18.26
791.693	-46.93
791.874	14.51
792.054	131.24
792.235	161.96
792.416	-77.65
792.597	28.84
792.778	55.47
792.958	108.71
793.139	10.41
793.32	47.27
793.5	20.65
793.681	137.38
793.862	96.43
794.042	53.42
794.223	-24.4
794.404	2.22
794.584	-42.84
794.765	16.55
794.945	-22.36
795.126	149.67
795.306	143.53
795.487	67.75
795.667	6.31
795.848	86.19
796.028	61.61
796.209	90.28
796.389	73.9
796.57	71.85
796.75	37.03
796.93	77.99
797.111	-51.03
797.291	12.46
797.471	155.82
797.652	14.51
797.832	-36.69
798.012	104.62
798.192	10.41
798.373	-57.17
798.553	39.08
798.733	80.04
798.913	39.08
799.093	4.27
799.274	20.65
799.454	55.47
799.634	59.56
799.814	53.42
799.994	49.32
800.174	164.01
800.354	10.41
800.534	-63.32
800.714	53.42
800.894	-5.97
801.074	-53.08
801.254	-65.36
801.434	28.84
801.614	4.27
801.794	-63.32
801.974	1843.34
802.154	55.47
802.334	116.9
802.514	-32.6
802.693	77.99
802.873	-36.69
803.053	186.54
803.233	75.95
803.413	110.76
803.592	-30.55
803.772	-42.84
803.952	53.42
804.131	-139.09
804.311	112.81
804.491	71.85
804.67	16.55
804.85	-34.64
805.03	84.14
805.209	190.63
805.389	-10.07
805.568	20.65
805.748	30.89
805.928	49.32
806.107	47.27
806.287	176.3
806.466	55.47
806.646	-57.17
806.825	-24.4
807.004	-102.23
807.184	114.86
807.363	123.05
807.543	108.71
807.722	-118.61
807.901	94.38
808.081	116.9
808.26	-69.46
808.439	-20.31
808.619	51.37
808.798	-1.88
808.977	75.95
809.156	108.71
809.336	104.62
809.515	94.38
809.694	53.42
809.873	-40.79
810.052	59.56
810.231	213.16
810.411	24.75
810.59	59.56
810.769	4.27
810.948	32.94
811.127	-65.36
811.306	-22.36
811.485	-32.6
811.664	176.3
811.843	16.55
812.022	12.46
812.201	32.94
812.38	-14.17
812.559	-24.4
812.737	92.33
812.916	-130.9
813.095	-1.88
813.274	18.6
813.453	-26.45
813.632	41.13
813.811	116.9
813.989	-81.75
814.168	18.6
814.347	-10.07
814.526	-20.31
814.704	69.8
814.883	116.9
815.062	71.85
815.24	86.19
815.419	-22.36
815.598	24.75
815.776	-10.07
815.955	69.8
816.133	-51.03
816.312	-34.64
816.49	80.04
816.669	67.75
816.847	-5.97
817.026	67.75
817.204	0.17
817.383	88.23
817.561	-30.55
817.74	102.57
817.918	84.14
818.097	20.65
818.275	8.36
818.453	67.75
818.632	86.19
818.81	-20.31
818.988	2.22
819.167	0.17
819.345	2.22
819.523	-20.31
819.701	61.61
819.879	41.13
820.058	-18.26
820.236	47.27
820.414	-5.97
820.592	-100.18
820.77	8.36
820.948	16.55
821.127	-8.02
821.305	84.14
821.483	-28.5
821.661	69.8
821.839	30.89
822.017	-69.46
822.195	8.36
822.373	14.51
822.551	18.6
822.729	34.99
822.907	-36.69
823.085	73.9
823.262	8.36
823.44	-36.69
823.618	-40.79
823.796	65.71
823.974	-16.21
824.152	24.75
824.329	22.7
824.507	65.71
824.685	88.23
824.863	65.71
825.04	10.41
825.218	63.66
825.396	73.9
825.574	2.22
825.751	41.13
825.929	43.18
826.107	-108.37
826.284	8.36
826.462	-18.26
826.639	26.79
826.817	-61.27
826.994	43.18
827.172	-102.23
827.349	127.14
827.527	75.95
827.704	61.61
827.882	0.17
828.059	30.89
828.237	14.51
828.414	45.23
828.591	-34.64
828.769	28.84
828.946	-18.26
829.124	129.19
829.301	73.9
829.478	-3.93
829.655	55.47
829.833	51.37
830.01	-79.7
830.187	18.6
830.364	75.95
830.542	43.18
830.719	164.01
830.896	61.61
831.073	10.41
831.25	-1.88
831.427	45.23
831.604	-20.31
831.782	-83.8
831.959	96.43
832.136	53.42
832.313	-1.88
832.49	10.41
832.667	22.7
832.844	6.31
833.021	82.09
833.198	37.03
833.374	20.65
833.551	-32.6
833.728	-12.12
833.905	106.67
834.082	-42.84
834.259	-12.12
834.436	45.23
834.612	-73.56
834.789	135.34
834.966	37.03
835.143	88.23
835.319	-73.56
835.496	-5.97
835.673	30.89
835.85	112.81
836.026	53.42
836.203	80.04
836.38	16.55
836.556	-53.08
836.733	-98.13
836.909	198.82
837.086	-36.69
837.262	-81.75
837.439	-48.98
837.616	-67.41
837.792	0.17
837.968	22.7
838.145	-87.89
838.321	67.75
838.498	37.03
838.674	14.51
838.851	20.65
839.027	-102.23
839.203	16.55
839.38	28.84
839.556	-40.79
839.732	59.56
839.909	-26.45
840.085	133.29
840.261	-14.17
840.437	32.94
840.614	-3.93
840.79	-1.88
840.966	116.9
841.142	-46.93
841.318	-51.03
841.494	30.89
841.671	24.75
841.847	-96.08
842.023	-98.13
842.199	47.27
842.375	129.19
842.551	-61.27
842.727	18.6
842.903	202.92
843.079	-3.93
843.255	106.67
843.431	22.7
843.607	41.13
843.783	-139.09
843.959	26.79
844.134	-63.32
844.31	84.14
844.486	12.46
844.662	-44.88
844.838	-12.12
845.013	75.95
845.189	53.42
845.365	51.37
845.541	28.84
845.716	57.51
845.892	30.89
846.068	-77.65
846.244	-106.32
846.419	16.55
846.595	-91.99
846.77	-8.02
846.946	26.79
847.122	-87.89
847.297	-81.75
847.473	125.1
847.648	-139.09
847.824	65.71
847.999	-94.04
848.175	28.84
848.35	16.55
848.526	92.33
848.701	8.36
848.876	75.95
849.052	82.09
849.227	-22.36
849.403	0.17
849.578	-20.31
849.753	45.23
849.929	92.33
850.104	41.13
850.279	-46.93
850.454	-5.97
850.63	45.23
850.805	30.89
850.98	0.17
851.155	10.41
851.33	69.8
851.505	-98.13
851.681	77.99
851.856	-34.64
852.031	110.76
852.206	45.23
852.381	-61.27
852.556	59.56
852.731	-8.02
852.906	100.52
853.081	-16.21
853.256	82.09
853.431	-57.17
853.606	-44.88
853.781	-98.13
853.956	-128.85
854.131	4.27
854.305	-75.6
854.48	-26.45
854.655	8.36
854.83	12.46
855.005	-5.97
855.18	53.42
855.354	4.27
855.529	-16.21
855.704	-8.02
855.879	-42.84
856.053	-61.27
856.228	84.14
856.403	-57.17
856.577	55.47
856.752	-114.52
856.926	8.36
857.101	-20.31
857.276	-71.51
857.45	30.89
857.625	55.47
857.799	92.33
857.974	82.09
858.148	-122.71
858.323	73.9
858.497	-20.31
858.672	-3.93
858.846	-12.12
859.02	59.56
859.195	8.36
859.369	-3.93
859.543	-28.5
859.718	34.99
859.892	-48.98
860.066	80.04
860.241	39.08
860.415	-28.5
860.589	-24.4
860.763	14.51
860.938	-67.41
861.112	37.03
861.286	-59.22
861.46	18.6
861.634	12.46
861.808	-16.21
861.982	-98.13
862.157	-65.36
862.331	-16.21
862.505	-128.85
862.679	-120.66
862.853	14.51
863.027	-79.7
863.201	127.14
863.375	-53.08
863.549	28.84
863.722	-8.02
863.896	86.19
864.07	-98.13
864.244	-96.08
864.418	34.99
864.592	-3.93
864.766	24.75
864.939	86.19
865.113	-44.88
865.287	69.8
865.461	32.94
865.634	-14.17
865.808	-26.45
865.982	0.17
866.156	-128.85
866.329	-57.17
866.503	16.55
866.676	34.99
866.85	12.46
867.024	-32.6
867.197	55.47
867.371	-28.5
867.544	8.36
867.718	-44.88
867.891	63.66
868.065	37.03
868.238	-14.17
868.412	82.09
868.585	-30.55
868.759	-8.02
868.932	-96.08
869.105	-51.03
869.279	75.95
869.452	-24.4
869.625	-3.93
869.799	-24.4
869.972	-114.52
870.145	-44.88
870.319	43.18
870.492	4.27
870.665	-16.21
870.838	-96.08
871.011	-202.58
871.185	24.75
871.358	-24.4
871.531	37.03
871.704	-42.84
871.877	-12.12
872.05	-22.36
872.223	-65.36
872.396	90.28
872.569	-59.22
872.742	-26.45
872.915	57.51
873.088	-132.95
873.261	-73.56
873.434	75.95
873.607	28.84
873.78	16.55
873.953	-71.51
874.126	-30.55
874.299	49.32
874.471	51.37
874.644	16.55
874.817	39.08
874.99	149.67
875.163	-3.93
875.335	39.08
875.508	10.41
875.681	96.43
875.853	-8.02
876.026	37.03
876.199	108.71
876.371	-26.45
876.544	22.7
876.717	-28.5
876.889	34.99
877.062	69.8
877.234	-180.05
877.407	-20.31
877.579	0.17
877.752	67.75
877.924	39.08
878.097	26.79
878.269	18.6
878.442	-10.07
878.614	24.75
878.786	24.75
878.959	16.55
879.131	24.75
879.303	-96.08
879.476	-55.12
879.648	88.23
879.82	2.22
879.993	-3.93
880.165	-40.79
880.337	-69.46
880.509	49.32
880.681	-108.37
880.854	-34.64
881.026	10.41
881.198	149.67
881.37	-32.6
881.542	96.43
881.714	-16.21
881.886	-8.02
882.058	10.41
882.23	30.89
882.402	12.46
882.574	75.95
882.746	61.61
882.918	84.14
883.09	20.65
883.262	-10.07
883.434	16.55
883.606	-145.24
883.778	2.22
883.95	53.42
884.122	22.7
884.293	84.14
884.465	32.94
884.637	8.36
884.809	-34.64
884.98	73.9
885.152	41.13
885.324	-14.17
885.496	4.27
885.667	-12.12
885.839	0.17
886.011	106.67
886.182	114.86
886.354	73.9
886.525	14.51
886.697	41.13
886.869	-81.75
887.04	-26.45
887.212	88.23
887.383	100.52
887.555	18.6
887.726	-38.74
887.897	-14.17
888.069	-3.93
888.24	77.99
888.412	-69.46
888.583	-32.6
888.754	-75.6
888.926	-153.43
889.097	16.55
889.268	-69.46
889.44	41.13
889.611	-81.75
889.782	-38.74
889.953	-69.46
890.125	94.38
890.296	-77.65
890.467	98.47
890.638	-124.76
890.809	-3.93
890.98	-28.5
891.151	45.23
891.323	65.71
891.494	-18.26
891.665	4.27
891.836	8.36
892.007	-73.56
892.178	-51.03
892.349	63.66
892.52	-24.4
892.691	-67.41
892.862	26.79
893.032	-116.56
893.203	-24.4
893.374	-40.79
893.545	51.37
893.716	-79.7
893.887	4.27
894.057	6.31
894.228	-79.7
894.399	-65.36
894.57	61.61
894.74	-53.08
894.911	26.79
895.082	26.79
895.253	-94.04
895.423	47.27
895.594	100.52
895.764	-26.45
895.935	-81.75
896.106	94.38
896.276	-28.5
896.447	51.37
896.617	-46.93
896.788	-81.75
896.958	37.03
897.129	-87.89
897.299	16.55
897.47	41.13
897.64	75.95
897.81	14.51
897.981	61.61
898.151	-46.93
898.322	-1.88
898.492	104.62
898.662	-42.84
898.832	-5.97
899.003	-20.31
899.173	0.17
899.343	-30.55
899.513	-30.55
