Data from USB4F104151__11__09-25-01-224.txt Node

Date: Wed Feb 26 09:25:01 EST 2025
User: louis
Spectrometer: USB4F10415
Trigger mode: 4
Integration Time (sec): 1.000000E-1
Scans to average: 1
Electric dark correction enabled: true
Nonlinearity correction enabled: false
Boxcar width: 0
XAxis mode: Wavelengths
Number of Pixels in Spectrum: 3648
>>>>>Begin Spectral Data<<<<<
178.204	-288.42
178.424	-288.42
178.644	-288.42
178.864	-329.38
179.084	-327.33
179.304	24.92
179.524	-77.48
179.744	61.78
179.964	80.21
180.184	74.07
180.404	-18.09
180.624	-1.71
180.844	-59.05
181.064	-65.19
181.283	39.25
181.503	-57
181.723	-1.71
181.943	-75.43
182.163	198.99
182.383	47.44
182.602	37.2
182.822	88.4
183.042	35.16
183.262	-89.77
183.482	123.22
183.701	43.35
183.921	74.07
184.141	72.02
184.361	47.44
184.58	69.97
184.8	8.53
185.02	22.87
185.239	51.54
185.459	43.35
185.679	112.98
185.898	-52.91
186.118	31.06
186.338	72.02
186.557	141.65
186.777	-44.71
186.997	20.82
187.216	26.96
187.436	194.9
187.655	149.84
187.875	92.5
188.095	-24.23
188.314	117.08
188.534	211.28
188.753	-38.57
188.973	119.12
189.192	149.84
189.412	35.16
189.631	43.35
189.851	47.44
190.07	207.19
190.29	-50.86
190.509	31.06
190.729	2.39
190.948	96.6
191.168	244.05
191.387	41.3
191.607	43.35
191.826	41.3
192.045	65.88
192.265	31.06
192.484	90.45
192.704	98.64
192.923	-42.67
193.142	149.84
193.362	104.79
193.581	137.56
193.8	84.31
194.02	72.02
194.239	20.82
194.458	37.2
194.678	6.49
194.897	88.4
195.116	82.26
195.335	57.68
195.555	39.25
195.774	57.68
195.993	112.98
196.212	-1.71
196.432	55.64
196.651	26.96
196.87	-54.95
197.089	205.14
197.308	121.17
197.528	162.13
197.747	-52.91
197.966	37.2
198.185	151.89
198.404	-28.33
198.623	72.02
198.842	94.55
199.062	18.77
199.281	67.92
199.5	82.26
199.719	137.56
199.938	53.59
200.157	35.16
200.376	53.59
200.595	57.68
200.814	22.87
201.033	14.68
201.252	186.71
201.471	-18.09
201.69	125.27
201.909	-7.85
202.128	94.55
202.347	49.49
202.566	37.2
202.785	-89.77
203.004	14.68
203.223	231.76
203.442	12.63
203.661	-13.99
203.879	110.93
204.098	43.35
204.317	100.69
204.536	166.23
204.755	55.64
204.974	57.68
205.193	-9.9
205.411	123.22
205.63	162.13
205.849	178.51
206.068	-59.05
206.287	-24.23
206.505	127.32
206.724	59.73
206.943	29.01
207.162	0.34
207.381	61.78
207.599	53.59
207.818	65.88
208.037	4.44
208.255	16.73
208.474	18.77
208.693	88.4
208.911	14.68
209.13	192.85
209.349	88.4
209.567	100.69
209.786	102.74
210.005	102.74
210.223	31.06
210.442	-63.15
210.661	53.59
210.879	102.74
211.098	51.54
211.316	35.16
211.535	129.36
211.753	26.96
211.972	88.4
212.191	29.01
212.409	55.64
212.628	178.51
212.846	0.34
213.065	92.5
213.283	86.36
213.502	61.78
213.72	63.83
213.938	22.87
214.157	61.78
214.375	53.59
214.594	22.87
214.812	47.44
215.031	49.49
215.249	121.17
215.467	24.92
215.686	41.3
215.904	127.32
216.122	47.44
216.341	176.47
216.559	61.78
216.778	133.46
216.996	76.12
217.214	108.88
217.432	6.49
217.651	-48.81
217.869	100.69
218.087	43.35
218.306	6.49
218.524	39.25
218.742	43.35
218.96	135.51
219.179	37.2
219.397	72.02
219.615	221.52
219.833	67.92
220.051	-34.47
220.27	186.71
220.488	80.21
220.706	78.16
220.924	80.21
221.142	-9.9
221.36	31.06
221.578	55.64
221.796	16.73
222.015	29.01
222.233	14.68
222.451	129.36
222.669	-67.24
222.887	108.88
223.105	-34.47
223.323	22.87
223.541	43.35
223.759	63.83
223.977	78.16
224.195	88.4
224.413	117.08
224.631	55.64
224.849	39.25
225.067	213.33
225.285	6.49
225.503	-9.9
225.721	-100.01
225.939	39.25
226.157	100.69
226.375	211.28
226.592	-52.91
226.81	-30.38
227.028	106.84
227.246	119.12
227.464	143.7
227.682	100.69
227.9	110.93
228.117	131.41
228.335	74.07
228.553	4.44
228.771	-11.95
228.989	82.26
229.206	72.02
229.424	61.78
229.642	-24.23
229.86	22.87
230.077	147.8
230.295	69.97
230.513	123.22
230.731	135.51
230.948	184.66
231.166	182.61
231.384	-22.19
231.601	-75.43
231.819	223.57
232.037	31.06
232.254	-77.48
232.472	35.16
232.689	-44.71
232.907	123.22
233.125	55.64
233.342	20.82
233.56	-26.28
233.777	-59.05
233.995	22.87
234.213	76.12
234.43	88.4
234.648	72.02
234.865	76.12
235.083	53.59
235.3	145.75
235.518	100.69
235.735	96.6
235.953	53.59
236.17	-36.52
236.388	0.34
236.605	49.49
236.822	86.36
237.04	72.02
237.257	86.36
237.475	20.82
237.692	86.36
237.909	145.75
238.127	6.49
238.344	69.97
238.562	-7.85
238.779	-57
238.996	-42.67
239.214	115.03
239.431	121.17
239.648	74.07
239.865	63.83
240.083	47.44
240.3	0.34
240.517	4.44
240.735	45.4
240.952	86.36
241.169	98.64
241.386	121.17
241.603	18.77
241.821	-30.38
242.038	78.16
242.255	94.55
242.472	-20.14
242.689	53.59
242.907	51.54
243.124	158.03
243.341	88.4
243.558	31.06
243.775	-30.38
243.992	4.44
244.209	43.35
244.426	217.43
244.643	112.98
244.86	88.4
245.078	63.83
245.295	108.88
245.512	-26.28
245.729	35.16
245.946	76.12
246.163	80.21
246.38	12.63
246.597	96.6
246.814	143.7
247.031	29.01
247.248	43.35
247.464	121.17
247.681	94.55
247.898	2.39
248.115	102.74
248.332	12.63
248.549	211.28
248.766	178.51
248.983	63.83
249.2	90.45
249.417	90.45
249.633	43.35
249.85	129.36
250.067	39.25
250.284	39.25
250.501	72.02
250.717	80.21
250.934	-22.19
251.151	22.87
251.368	-9.9
251.585	43.35
251.801	49.49
252.018	-22.19
252.235	129.36
252.451	-24.23
252.668	-28.33
252.885	67.92
253.102	112.98
253.318	98.64
253.535	-5.8
253.752	-42.67
253.968	84.31
254.185	4.44
254.401	35.16
254.618	92.5
254.835	-13.99
255.051	104.79
255.268	31.06
255.484	84.31
255.701	22.87
255.917	121.17
256.134	-3.75
256.351	-26.28
256.567	6.49
256.784	121.17
257	-34.47
257.217	98.64
257.433	112.98
257.65	147.8
257.866	127.32
258.082	6.49
258.299	59.73
258.515	127.32
258.732	-46.76
258.948	51.54
259.165	47.44
259.381	8.53
259.597	39.25
259.814	86.36
260.03	-9.9
260.246	92.5
260.463	102.74
260.679	131.41
260.895	49.49
261.112	39.25
261.328	47.44
261.544	35.16
261.761	194.9
261.977	-26.28
262.193	-100.01
262.409	141.65
262.626	39.25
262.842	69.97
263.058	-9.9
263.274	8.53
263.49	86.36
263.707	80.21
263.923	131.41
264.139	-83.63
264.355	43.35
264.571	41.3
264.787	39.25
265.004	20.82
265.22	39.25
265.436	-40.62
265.652	8.53
265.868	86.36
266.084	16.73
266.3	72.02
266.516	29.01
266.732	61.78
266.948	-9.9
267.164	6.49
267.38	100.69
267.596	31.06
267.812	231.76
268.028	-30.38
268.244	-40.62
268.46	61.78
268.676	8.53
268.892	45.4
269.108	-65.19
269.324	-16.04
269.54	39.25
269.756	80.21
269.972	-71.34
270.188	72.02
270.403	51.54
270.619	14.68
270.835	88.4
271.051	12.63
271.267	-5.8
271.483	35.16
271.698	125.27
271.914	119.12
272.13	31.06
272.346	-1.71
272.562	29.01
272.777	125.27
272.993	57.68
273.209	33.11
273.425	135.51
273.64	-1.71
273.856	121.17
274.072	35.16
274.287	67.92
274.503	129.36
274.719	86.36
274.934	67.92
275.15	18.77
275.366	6.49
275.581	4.44
275.797	14.68
276.012	47.44
276.228	12.63
276.444	18.77
276.659	65.88
276.875	-9.9
277.09	29.01
277.306	104.79
277.521	80.21
277.737	-18.09
277.952	110.93
278.168	4.44
278.383	80.21
278.599	78.16
278.814	35.16
279.03	92.5
279.245	147.8
279.461	41.3
279.676	119.12
279.892	-1.71
280.107	6.49
280.322	12.63
280.538	53.59
280.753	-54.95
280.969	63.83
281.184	6.49
281.399	158.03
281.615	24.92
281.83	33.11
282.045	-34.47
282.26	33.11
282.476	129.36
282.691	55.64
282.906	37.2
283.122	51.54
283.337	43.35
283.552	82.26
283.767	14.68
283.983	129.36
284.198	29.01
284.413	22.87
284.628	-36.52
284.843	39.25
285.058	127.32
285.274	69.97
285.489	-71.34
285.704	80.21
285.919	49.49
286.134	100.69
286.349	22.87
286.564	6.49
286.779	143.7
286.995	47.44
287.21	-5.8
287.425	14.68
287.64	67.92
287.855	104.79
288.07	10.58
288.285	129.36
288.5	158.03
288.715	158.03
288.93	61.78
289.145	-22.19
289.36	80.21
289.575	12.63
289.79	178.51
290.004	-32.43
290.219	53.59
290.434	-1.71
290.649	-9.9
290.864	37.2
291.079	31.06
291.294	16.73
291.509	63.83
291.724	-20.14
291.938	0.34
292.153	55.64
292.368	4.44
292.583	20.82
292.798	125.27
293.012	100.69
293.227	112.98
293.442	-5.8
293.657	82.26
293.871	84.31
294.086	88.4
294.301	137.56
294.516	4.44
294.73	-22.19
294.945	-38.57
295.16	86.36
295.374	133.46
295.589	65.88
295.804	8.53
296.018	67.92
296.233	69.97
296.447	-9.9
296.662	-67.24
296.877	133.46
297.091	112.98
297.306	78.16
297.52	57.68
297.735	6.49
297.949	84.31
298.164	82.26
298.378	22.87
298.593	-13.99
298.807	49.49
299.022	94.55
299.236	139.6
299.451	6.49
299.665	22.87
299.88	43.35
300.094	45.4
300.309	88.4
300.523	53.59
300.737	22.87
300.952	121.17
301.166	63.83
301.381	-91.82
301.595	10.58
301.809	55.64
302.024	35.16
302.238	-3.75
302.452	110.93
302.667	-42.67
302.881	119.12
303.095	117.08
303.309	84.31
303.524	29.01
303.738	102.74
303.952	-42.67
304.166	110.93
304.381	-67.24
304.595	112.98
304.809	43.35
305.023	76.12
305.237	22.87
305.452	16.73
305.666	14.68
305.88	112.98
306.094	63.83
306.308	94.55
306.522	69.97
306.736	76.12
306.95	61.78
307.164	29.01
307.379	63.83
307.593	100.69
307.807	104.79
308.021	51.54
308.235	133.46
308.449	-69.29
308.663	31.06
308.877	178.51
309.091	80.21
309.305	125.27
309.519	-118.44
309.733	96.6
309.947	-52.91
310.161	-1.71
310.374	102.74
310.588	94.55
310.802	-36.52
311.016	53.59
311.23	10.58
311.444	2.39
311.658	55.64
311.872	20.82
312.085	104.79
312.299	110.93
312.513	133.46
312.727	67.92
312.941	41.3
313.154	35.16
313.368	39.25
313.582	80.21
313.796	24.92
314.009	67.92
314.223	121.17
314.437	22.87
314.651	61.78
314.864	16.73
315.078	-22.19
315.292	-1.71
315.505	14.68
315.719	74.07
315.933	61.78
316.146	10.58
316.36	8.53
316.573	168.27
316.787	63.83
317.001	180.56
317.214	-9.9
317.428	112.98
317.641	51.54
317.855	0.34
318.068	119.12
318.282	-59.05
318.495	145.75
318.709	92.5
318.922	65.88
319.136	98.64
319.349	39.25
319.563	80.21
319.776	149.84
319.99	-83.63
320.203	153.94
320.417	55.64
320.63	59.73
320.843	160.08
321.057	39.25
321.27	35.16
321.483	170.32
321.697	143.7
321.91	39.25
322.124	76.12
322.337	20.82
322.55	26.96
322.763	63.83
322.977	55.64
323.19	-3.75
323.403	65.88
323.617	110.93
323.83	108.88
324.043	57.68
324.256	121.17
324.469	-34.47
324.683	104.79
324.896	72.02
325.109	-9.9
325.322	-81.58
325.535	61.78
325.748	141.65
325.962	-52.91
326.175	63.83
326.388	63.83
326.601	96.6
326.814	43.35
327.027	37.2
327.24	147.8
327.453	-36.52
327.666	33.11
327.879	106.84
328.092	121.17
328.305	53.59
328.518	-54.95
328.731	55.64
328.944	-24.23
329.157	45.4
329.37	22.87
329.583	178.51
329.796	112.98
330.009	-24.23
330.222	59.73
330.435	39.25
330.648	35.16
330.861	20.82
331.073	10.58
331.286	78.16
331.499	-26.28
331.712	-18.09
331.925	-44.71
332.138	-13.99
332.35	121.17
332.563	-13.99
332.776	106.84
332.989	18.77
333.202	78.16
333.414	20.82
333.627	59.73
333.84	55.64
334.053	67.92
334.265	61.78
334.478	-50.86
334.691	63.83
334.903	72.02
335.116	22.87
335.329	-11.95
335.541	76.12
335.754	145.75
335.966	22.87
336.179	12.63
336.392	47.44
336.604	45.4
336.817	137.56
337.029	119.12
337.242	-5.8
337.454	166.23
337.667	31.06
337.88	168.27
338.092	129.36
338.305	104.79
338.517	-67.24
338.729	158.03
338.942	69.97
339.154	-67.24
339.367	26.96
339.579	57.68
339.792	26.96
340.004	18.77
340.217	88.4
340.429	4.44
340.641	39.25
340.854	-42.67
341.066	39.25
341.278	51.54
341.491	166.23
341.703	88.4
341.915	6.49
342.128	65.88
342.34	55.64
342.552	18.77
342.764	22.87
342.977	43.35
343.189	18.77
343.401	57.68
343.613	-42.67
343.826	78.16
344.038	14.68
344.25	98.64
344.462	108.88
344.674	47.44
344.886	65.88
345.099	51.54
345.311	121.17
345.523	92.5
345.735	-87.72
345.947	31.06
346.159	24.92
346.371	59.73
346.583	78.16
346.795	203.09
347.007	121.17
347.219	-9.9
347.431	-11.95
347.643	104.79
347.855	-1.71
348.067	121.17
348.279	45.4
348.491	14.68
348.703	137.56
348.915	61.78
349.127	12.63
349.339	72.02
349.551	-67.24
349.763	67.92
349.975	72.02
350.187	112.98
350.399	137.56
350.61	88.4
350.822	-3.75
351.034	149.84
351.246	100.69
351.458	80.21
351.669	102.74
351.881	131.41
352.093	127.32
352.305	-3.75
352.517	2.39
352.728	182.61
352.94	6.49
353.152	78.16
353.363	31.06
353.575	69.97
353.787	155.99
353.999	45.4
354.21	162.13
354.422	26.96
354.633	41.3
354.845	102.74
355.057	-11.95
355.268	61.78
355.48	47.44
355.692	-18.09
355.903	39.25
356.115	22.87
356.326	20.82
356.538	178.51
356.749	143.7
356.961	192.85
357.172	88.4
357.384	-13.99
357.595	172.37
357.807	47.44
358.018	41.3
358.23	63.83
358.441	80.21
358.653	129.36
358.864	53.59
359.075	76.12
359.287	41.3
359.498	102.74
359.709	96.6
359.921	39.25
360.132	201.04
360.344	88.4
360.555	63.83
360.766	45.4
360.977	-1.71
361.189	141.65
361.4	-34.47
361.611	55.64
361.823	133.46
362.034	82.26
362.245	-71.34
362.456	41.3
362.667	133.46
362.879	-48.81
363.09	80.21
363.301	104.79
363.512	55.64
363.723	-9.9
363.935	43.35
364.146	80.21
364.357	-30.38
364.568	55.64
364.779	-89.77
364.99	129.36
365.201	-52.91
365.412	121.17
365.623	-3.75
365.834	72.02
366.045	96.6
366.256	88.4
366.467	53.59
366.678	63.83
366.889	90.45
367.1	29.01
367.311	98.64
367.522	26.96
367.733	172.37
367.944	59.73
368.155	47.44
368.366	84.31
368.577	174.42
368.788	10.58
368.999	22.87
369.209	20.82
369.42	178.51
369.631	135.51
369.842	55.64
370.053	51.54
370.264	63.83
370.474	18.77
370.685	141.65
370.896	61.78
371.107	137.56
371.317	29.01
371.528	84.31
371.739	112.98
371.95	37.2
372.16	166.23
372.371	-63.15
372.582	6.49
372.792	100.69
373.003	53.59
373.214	80.21
373.424	88.4
373.635	-3.75
373.846	149.84
374.056	43.35
374.267	43.35
374.477	-26.28
374.688	0.34
374.898	35.16
375.109	69.97
375.319	-9.9
375.53	92.5
375.74	115.03
375.951	18.77
376.161	-1.71
376.372	88.4
376.582	14.68
376.793	51.54
377.003	-40.62
377.214	16.73
377.424	37.2
377.635	84.31
377.845	-11.95
378.055	137.56
378.266	-28.33
378.476	37.2
378.686	110.93
378.897	-20.14
379.107	127.32
379.317	31.06
379.528	55.64
379.738	49.49
379.948	-81.58
380.158	76.12
380.369	6.49
380.579	119.12
380.789	37.2
380.999	31.06
381.21	57.68
381.42	143.7
381.63	-77.48
381.84	86.36
382.05	59.73
382.261	86.36
382.471	96.6
382.681	63.83
382.891	102.74
383.101	63.83
383.311	-34.47
383.521	117.08
383.731	104.79
383.941	141.65
384.151	72.02
384.361	49.49
384.571	43.35
384.781	41.3
384.991	207.19
385.201	108.88
385.411	2.39
385.621	80.21
385.831	67.92
386.041	72.02
386.251	72.02
386.461	237.91
386.671	2.39
386.881	2.39
387.091	74.07
387.301	155.99
387.511	127.32
387.72	18.77
387.93	45.4
388.14	-1.71
388.35	67.92
388.56	94.55
388.769	10.58
388.979	45.4
389.189	0.34
389.399	6.49
389.609	112.98
389.818	98.64
390.028	80.21
390.238	26.96
390.447	2.39
390.657	96.6
390.867	-13.99
391.076	-67.24
391.286	74.07
391.496	22.87
391.705	24.92
391.915	112.98
392.125	127.32
392.334	26.96
392.544	139.6
392.753	22.87
392.963	12.63
393.172	-36.52
393.382	26.96
393.591	201.04
393.801	74.07
394.01	172.37
394.22	86.36
394.429	55.64
394.639	31.06
394.848	67.92
395.058	117.08
395.267	-3.75
395.477	108.88
395.686	129.36
395.895	106.84
396.105	196.95
396.314	127.32
396.524	63.83
396.733	69.97
396.942	108.88
397.152	86.36
397.361	108.88
397.57	84.31
397.78	59.73
397.989	108.88
398.198	194.9
398.407	121.17
398.617	-18.09
398.826	67.92
399.035	35.16
399.244	63.83
399.453	41.3
399.663	29.01
399.872	104.79
400.081	-50.86
400.29	151.89
400.499	43.35
400.708	158.03
400.917	4.44
401.127	-5.8
401.336	33.11
401.545	135.51
401.754	121.17
401.963	151.89
402.172	31.06
402.381	41.3
402.59	8.53
402.799	121.17
403.008	96.6
403.217	76.12
403.426	112.98
403.635	53.59
403.844	127.32
404.053	84.31
404.262	78.16
404.471	119.12
404.68	82.26
404.888	86.36
405.097	88.4
405.306	88.4
405.515	88.4
405.724	88.4
405.933	31.06
406.142	59.73
406.35	143.7
406.559	41.3
406.768	63.83
406.977	164.18
407.185	39.25
407.394	76.12
407.603	92.5
407.812	53.59
408.02	100.69
408.229	39.25
408.438	162.13
408.646	-40.62
408.855	59.73
409.064	92.5
409.272	35.16
409.481	117.08
409.69	47.44
409.898	29.01
410.107	65.88
410.315	170.32
410.524	112.98
410.733	33.11
410.941	53.59
411.15	110.93
411.358	69.97
411.567	166.23
411.775	6.49
411.984	59.73
412.192	112.98
412.401	-9.9
412.609	125.27
412.818	88.4
413.026	55.64
413.234	39.25
413.443	158.03
413.651	-11.95
413.86	10.58
414.068	125.27
414.276	84.31
414.485	41.3
414.693	219.47
414.901	153.94
415.11	59.73
415.318	67.92
415.526	63.83
415.734	108.88
415.943	37.2
416.151	98.64
416.359	35.16
416.567	127.32
416.776	47.44
416.984	41.3
417.192	149.84
417.4	-26.28
417.608	43.35
417.817	-1.71
418.025	172.37
418.233	160.08
418.441	31.06
418.649	-36.52
418.857	61.78
419.065	112.98
419.273	-5.8
419.481	104.79
419.689	4.44
419.897	6.49
420.105	-11.95
420.313	127.32
420.521	141.65
420.729	104.79
420.937	47.44
421.145	35.16
421.353	133.46
421.561	104.79
421.769	92.5
421.977	76.12
422.185	59.73
422.393	127.32
422.601	94.55
422.809	76.12
423.017	59.73
423.224	78.16
423.432	174.42
423.64	72.02
423.848	98.64
424.056	80.21
424.263	76.12
424.471	110.93
424.679	125.27
424.887	-3.75
425.094	121.17
425.302	115.03
425.51	37.2
425.718	98.64
425.925	43.35
426.133	16.73
426.341	194.9
426.548	51.54
426.756	-18.09
426.964	135.51
427.171	14.68
427.379	-9.9
427.586	80.21
427.794	14.68
428.001	119.12
428.209	112.98
428.417	203.09
428.624	67.92
428.832	172.37
429.039	69.97
429.247	26.96
429.454	176.47
429.662	178.51
429.869	131.41
430.076	65.88
430.284	162.13
430.491	225.62
430.699	61.78
430.906	131.41
431.114	112.98
431.321	137.56
431.528	106.84
431.736	180.56
431.943	149.84
432.15	264.53
432.358	160.08
432.565	178.51
432.772	63.83
432.979	194.9
433.187	84.31
433.394	198.99
433.601	149.84
433.808	203.09
434.016	258.39
434.223	223.57
434.43	219.47
434.637	219.47
434.844	211.28
435.052	149.84
435.259	196.95
435.466	266.58
435.673	207.19
435.88	248.15
436.087	260.43
436.294	362.83
436.501	264.53
436.708	221.52
436.915	180.56
437.122	317.78
437.329	264.53
437.537	194.9
437.743	389.46
437.95	448.85
438.157	305.49
438.364	289.1
438.571	354.64
438.778	420.17
438.985	432.46
439.192	532.81
439.399	428.37
439.606	354.64
439.813	493.9
440.02	491.85
440.227	553.29
440.433	469.33
440.64	506.19
440.847	420.17
441.054	436.56
441.261	618.83
441.467	555.34
441.674	524.62
441.881	600.4
442.088	528.72
442.294	647.5
442.501	661.84
442.708	770.38
442.914	649.55
443.121	692.55
443.328	639.31
443.534	745.8
443.741	694.6
443.948	698.7
444.154	817.48
444.361	995.65
444.568	833.86
444.774	846.15
444.981	887.11
445.187	1055.05
445.394	1116.48
445.6	950.6
445.807	1071.43
446.013	1063.24
446.22	1014.09
446.426	1128.77
446.633	1249.6
446.839	1458.5
447.046	1198.4
447.252	1349.95
447.459	1448.26
447.665	1300.8
447.871	1489.21
448.078	1542.46
448.284	1534.27
448.491	1655.1
448.697	1694.01
448.903	1775.93
449.11	1886.52
449.316	1751.35
449.522	2050.36
449.728	1986.87
449.935	2079.03
450.141	2109.75
450.347	2271.54
450.553	2222.39
450.76	2380.08
450.966	2459.95
451.172	2421.04
451.378	2457.9
451.584	2638.13
451.791	2930.98
451.997	2978.09
452.203	3055.91
452.409	3227.94
452.615	3244.32
452.821	3178.79
453.027	3205.41
453.233	3598.62
453.44	3508.51
453.646	3696.92
453.852	3772.7
454.058	3963.16
454.264	3946.78
454.47	4174.1
454.676	4448.53
454.882	4757.77
455.088	4593.94
455.294	4815.12
455.5	5191.94
455.705	5402.88
455.911	5546.24
456.117	5691.65
456.323	5724.41
456.529	5703.93
456.735	6402.29
456.941	6609.14
457.147	6908.14
457.352	6965.48
457.558	7155.94
457.764	7559.39
457.97	7821.53
458.176	8165.59
458.381	8632.53
458.587	8782.03
458.793	8990.92
458.999	9210.06
459.204	10055.87
459.41	10487.99
459.616	10348.73
459.821	11067.56
460.027	11595.94
460.233	12171.42
460.438	12118.17
460.644	12712.08
460.85	12746.9
461.055	13353.1
461.261	13996.16
461.466	13875.33
461.672	14014.59
461.878	15595.62
462.083	15165.55
462.289	15528.04
462.494	16187.49
462.7	16564.31
462.905	16889.94
463.111	17897.54
463.316	18868.28
463.522	19490.86
463.727	19935.27
463.932	20615.19
464.138	21366.8
464.343	22114.31
464.549	22493.18
464.754	23965.67
464.959	24903.64
465.165	24930.26
465.37	25003.99
465.575	24965.08
465.781	26267.59
465.986	27574.19
466.191	27150.26
466.397	27393.97
466.602	26879.93
466.807	28024.75
467.012	28960.67
467.218	28839.84
467.423	29058.97
467.628	30144.39
467.833	31854.45
468.038	30646.15
468.244	30652.29
468.449	31915.89
468.654	31547.25
468.859	31741.81
469.064	31319.93
469.269	30414.73
469.474	30928.77
469.679	31647.6
469.885	30519.17
470.09	31371.13
470.295	31432.57
470.5	30523.27
470.705	30734.21
470.91	30424.97
471.115	29851.53
471.32	30093.19
471.525	30013.32
471.73	29345.69
471.935	29069.21
472.139	28010.41
472.344	27983.79
472.549	28118.95
472.754	27453.36
472.959	26875.84
473.164	25681.87
473.369	25491.41
473.574	26351.56
473.778	25974.73
473.983	25251.8
474.188	24991.7
474.393	23672.81
474.598	23752.68
474.802	22943.74
475.007	22847.48
475.212	22704.12
475.417	21559.31
475.621	21233.68
475.826	21436.43
476.031	20807.7
476.235	20181.03
476.44	20121.63
476.645	19822.63
476.849	19437.61
477.054	19214.38
477.259	18591.8
477.463	18610.23
477.668	18286.65
477.872	18401.34
478.077	17741.89
478.282	17029.2
478.486	17051.73
478.691	16728.15
478.895	16623.7
479.1	16707.67
479.304	16502.87
479.509	15923.3
479.713	16306.27
479.918	15882.34
480.122	15511.66
480.326	15792.23
480.531	15911.01
480.735	15329.39
480.94	15378.54
481.144	15747.17
481.348	14696.57
481.553	14962.8
481.757	14463.1
481.961	14792.82
482.166	14729.33
482.37	14389.37
482.574	14272.64
482.778	13936.77
482.983	14522.49
483.187	13893.76
483.391	13807.75
483.595	13953.15
483.8	13615.24
484.004	13635.72
484.208	13492.36
484.412	13260.94
484.616	13328.52
484.821	13154.44
485.025	12630.16
485.229	12710.04
485.433	12380.31
485.637	12703.89
485.841	12105.88
486.045	12198.04
486.249	11843.74
486.453	11817.12
486.657	11651.24
486.861	11294.89
487.065	10922.16
487.269	11135.15
487.473	10752.18
487.677	10889.39
487.881	10846.38
488.085	10258.62
488.289	10330.3
488.493	9978.05
488.697	10215.61
488.901	9687.23
489.105	9560.26
489.309	9513.16
489.512	9285.83
489.716	8992.97
489.92	8925.39
490.124	8607.95
490.328	8667.35
490.531	8476.88
490.735	8358.1
490.939	8057.05
491.143	7952.6
491.346	7764.19
491.55	7686.37
491.754	7485.67
491.958	7440.61
492.161	7409.89
492.365	7280.87
492.569	7125.22
492.772	7065.83
492.976	6918.38
493.18	6770.93
493.383	6719.73
493.587	6732.01
493.79	6447.35
493.994	6310.13
494.197	6166.78
494.401	6555.89
494.605	6123.77
494.808	6191.35
495.012	6109.43
495.215	6043.9
495.419	5943.55
495.622	5871.87
495.825	5982.46
496.029	5757.18
496.232	6146.3
496.436	5683.45
496.639	5921.02
496.843	5626.11
497.046	5748.99
497.249	5845.24
497.453	5751.04
497.656	5632.26
497.859	5634.3
498.063	5792
498.266	5857.53
498.469	5597.44
498.673	5595.39
498.876	5583.1
499.079	5708.03
499.282	5699.84
499.485	5929.21
499.689	5896.44
499.892	5933.31
500.095	5847.29
500.298	5910.78
500.501	5822.72
500.705	5994.75
500.908	5832.96
501.111	6056.18
501.314	6019.32
501.517	6113.53
501.72	6009.08
501.923	6068.47
502.126	6263.03
502.329	6476.02
502.532	6375.67
502.735	6641.9
502.938	6637.81
503.141	6611.18
503.344	6506.74
503.547	6707.44
503.75	6732.01
503.953	6861.04
504.156	6891.76
504.359	6897.9
504.562	6963.44
504.765	7321.83
504.968	7178.47
505.17	7487.72
505.373	7346.41
505.576	7700.7
505.779	7870.69
505.982	7575.78
506.185	8007.9
506.387	8102.11
506.59	8270.04
506.793	8386.77
506.996	8458.45
507.198	8796.37
507.401	8868.05
507.604	8943.82
507.807	9031.88
508.009	9298.12
508.212	9502.92
508.415	9705.67
508.617	9752.77
508.82	9865.41
509.022	9853.12
509.225	10356.92
509.428	10514.61
509.63	10621.11
509.833	10967.21
510.035	11471.01
510.238	11376.81
510.44	11798.69
510.643	11821.22
510.845	12228.76
511.048	12517.53
511.25	12505.24
511.453	13011.09
511.655	13586.57
511.858	13508.74
512.06	13840.51
512.262	13877.38
512.465	14229.63
512.667	15079.54
512.87	15077.49
513.072	15265.9
513.274	16083.04
513.477	16400.48
513.679	16511.07
513.881	16951.38
514.084	17221.71
514.286	17582.15
514.488	18147.39
514.69	18690.1
514.893	18915.38
515.095	19185.71
515.297	19882.02
515.499	20111.39
515.701	20518.94
515.904	21248.02
516.106	21448.72
516.308	21909.51
516.51	22489.09
516.712	22894.58
516.914	23349.23
517.116	23865.32
517.318	24250.34
517.52	24573.92
517.722	25200.6
517.925	25577.42
518.127	26042.31
518.329	26781.63
518.531	26599.36
518.733	27404.21
518.935	28006.31
519.136	28452.77
519.338	29044.63
519.54	29583.25
519.742	29579.15
519.944	30244.74
520.146	30996.35
520.348	31541.11
520.55	31686.51
520.752	32186.22
520.954	33005.41
521.155	32804.7
521.357	33836.88
521.559	33992.53
521.761	34746.18
521.963	34494.28
522.164	35008.32
522.366	35135.29
522.568	35622.71
522.77	36155.18
522.971	36493.1
523.173	36511.53
523.375	37144.35
523.576	37087.01
523.778	37168.93
523.98	37508.89
524.181	37840.66
524.383	37953.3
524.584	38674.18
524.786	38412.04
524.988	38399.76
525.189	38852.36
525.391	38805.25
525.592	39022.34
525.794	38838.02
525.995	39048.96
526.197	38817.54
526.398	38919.94
526.6	38911.75
526.801	38973.19
527.003	39018.24
527.204	38733.57
527.406	38821.64
527.607	38913.8
527.808	38534.92
528.01	37740.31
528.211	38035.22
528.412	38188.81
528.614	38008.59
528.815	37273.37
529.016	37521.18
529.218	36683.56
529.419	36499.24
529.62	36568.87
529.822	35874.61
530.023	35465.02
530.224	35819.31
530.425	35426.1
530.626	34783.04
530.828	34496.33
531.029	35082.05
531.23	33845.07
531.431	33300.31
531.632	33292.12
531.833	33079.13
532.035	32679.78
532.236	32210.79
532.437	31934.32
532.638	31213.43
532.839	31543.16
533.04	31262.58
533.241	30455.68
533.442	30341
533.643	29464.47
533.844	29738.9
534.045	28993.43
534.246	28735.39
534.447	28501.92
534.648	27959.21
534.849	27901.87
535.05	26742.72
535.251	27213.75
535.451	26232.77
535.652	26302.4
535.853	25823.18
536.054	25645.01
536.255	25436.11
536.456	24809.43
536.657	24485.86
536.857	24139.75
537.058	23836.65
537.259	23609.33
537.46	23545.84
537.66	22984.69
537.861	22851.58
538.062	22360.06
538.263	22118.4
538.463	21731.34
538.664	21458.96
538.865	21358.61
539.065	21141.52
539.266	20641.82
539.466	20647.96
539.667	20076.58
539.868	20590.62
540.068	19904.55
540.269	19693.61
540.469	19046.45
540.67	19101.75
540.87	19019.83
541.071	18858.04
541.271	18462.78
541.472	18405.44
541.672	18126.91
541.873	17729.61
542.073	17494.09
542.274	17514.57
542.474	17211.47
542.675	16889.94
542.875	16965.71
543.075	16552.02
543.276	16488.54
543.476	16619.61
543.676	15939.68
543.877	15970.4
544.077	15906.91
544.277	15792.23
544.478	15372.39
544.678	15583.34
544.878	15136.88
545.078	15028.34
545.279	14899.31
545.479	14739.57
545.679	14733.43
545.879	14229.63
546.079	14301.31
546.28	13746.31
546.48	13797.51
546.68	13707.4
546.88	13662.34
547.08	13406.34
547.28	13353.1
547.48	12935.31
547.68	12937.36
547.88	12593.3
548.081	12677.27
548.281	12175.52
548.481	12130.46
548.681	12220.57
548.881	11952.29
549.081	12050.59
549.28	11536.55
549.48	11518.12
549.68	11339.94
549.88	11204.78
550.08	10891.44
550.28	10930.35
550.48	10950.83
550.68	10471.61
550.88	10369.21
551.08	10248.38
551.279	10385.59
551.479	10072.25
551.679	9783.49
551.879	9812.16
552.079	9685.19
552.278	9334.98
552.478	9388.23
552.678	9289.93
552.878	9238.73
553.077	9033.93
553.277	8511.7
553.477	8677.58
553.676	8577.23
553.876	8274.14
554.076	8302.81
554.275	8177.88
554.475	7848.16
554.674	7803.1
554.874	7764.19
555.074	7489.76
555.273	7450.85
555.473	7469.28
555.672	7354.6
555.872	7129.32
556.071	7168.23
556.271	7033.07
556.47	6781.17
556.67	6605.04
556.869	6437.11
557.068	6447.35
557.268	6508.79
557.467	6121.72
557.667	6187.25
557.866	5990.65
558.065	5878.01
558.265	5900.54
558.464	5585.15
558.663	5837.05
558.863	5652.74
559.062	5474.56
559.261	5419.27
559.461	5413.12
559.66	5144.84
559.859	5085.45
560.058	5075.21
560.258	5050.63
560.457	4866.32
560.656	4958.47
560.855	4630.8
561.054	4753.68
561.253	4555.02
561.453	4479.25
561.652	4563.22
561.851	4550.93
562.05	4221.2
562.249	4096.28
562.448	4247.83
562.647	4110.61
562.846	4016.41
563.045	4036.89
563.244	3815.71
563.443	3926.3
563.642	3701.02
563.841	3823.9
564.04	3795.23
564.239	3633.44
564.438	3672.35
564.637	3453.22
564.836	3426.59
565.035	3350.82
565.234	3365.15
565.432	3205.41
565.631	3277.09
565.83	3281.19
566.029	3129.64
566.228	2980.14
566.427	3148.07
566.625	3041.57
566.824	3008.81
567.023	3027.24
567.222	2861.35
567.42	2898.22
567.619	2855.21
567.818	2765.1
568.016	2804.01
568.215	2607.41
568.414	2543.92
568.612	2666.8
568.811	2574.64
569.01	2548.01
569.208	2603.31
569.407	2468.14
569.605	2382.13
569.804	2390.32
570.002	2484.53
570.201	2230.58
570.4	2474.29
570.598	2208.05
570.797	2062.65
570.995	2216.24
571.193	2222.39
571.392	2076.98
571.59	2095.41
571.789	2128.18
571.987	2070.84
572.186	2119.99
572.384	1855.8
572.582	1823.03
572.781	1990.97
572.979	1761.59
573.177	1775.93
573.376	1872.18
573.574	1808.7
573.772	1751.35
573.971	1562.94
574.169	1724.73
574.367	1579.33
574.565	1591.61
574.763	1497.41
574.962	1552.7
575.16	1491.26
575.358	1532.22
575.556	1521.98
575.754	1552.7
575.952	1556.8
576.151	1462.59
576.349	1440.06
576.547	1321.28
576.745	1407.3
576.943	1470.78
577.141	1335.62
577.339	1294.66
577.537	1325.38
577.735	1390.91
577.933	1358.14
578.131	1114.44
578.329	1288.51
578.527	1204.55
578.725	1214.79
578.923	1061.19
579.121	1177.92
579.319	1001.8
579.516	1136.96
579.714	1186.12
579.912	989.51
580.11	928.07
580.308	977.22
580.506	971.08
580.704	872.78
580.901	915.78
581.099	1087.81
581.297	962.89
581.495	960.84
581.692	913.74
581.89	971.08
582.088	885.06
582.285	960.84
582.483	837.96
582.681	797
582.878	887.11
583.076	887.11
583.274	840.01
583.471	891.21
583.669	821.58
583.866	692.55
584.064	760.14
584.262	659.79
584.459	663.88
584.657	801.1
584.854	774.47
585.052	706.89
585.249	751.95
585.447	723.27
585.644	602.44
585.841	729.42
586.039	776.52
586.236	801.1
586.434	700.75
586.631	684.36
586.828	641.36
587.026	674.12
587.223	551.24
587.42	635.21
587.618	663.88
587.815	659.79
588.012	530.77
588.21	588.11
588.407	653.64
588.604	618.83
588.801	506.19
588.999	592.2
589.196	604.49
589.393	452.94
589.59	616.78
589.787	575.82
589.984	604.49
590.182	555.34
590.379	522.57
590.576	426.32
590.773	498
590.97	467.28
591.167	489.81
591.364	581.96
591.561	463.18
591.758	532.81
591.955	555.34
592.152	561.48
592.349	465.23
592.546	463.18
592.743	411.98
592.94	549.2
593.137	536.91
593.334	577.87
593.531	606.54
593.727	487.76
593.924	543.05
594.121	588.11
594.318	483.66
594.515	512.33
594.712	639.31
594.908	588.11
595.105	403.79
595.302	665.93
595.499	645.45
595.696	696.65
595.892	506.19
596.089	723.27
596.286	581.96
596.482	715.08
596.679	708.94
596.876	667.98
597.072	698.7
597.269	747.85
597.466	813.38
597.662	690.51
597.859	663.88
598.055	807.24
598.252	870.73
598.448	940.36
598.645	897.35
598.841	911.69
599.038	946.5
599.234	1061.19
599.431	1024.33
599.627	1005.89
599.824	1087.81
600.02	1128.77
600.217	1106.24
600.413	1227.07
600.609	1159.49
600.806	1476.93
601.002	1321.28
601.198	1370.43
601.395	1544.51
601.591	1493.31
601.787	1614.14
601.984	1661.24
602.18	1595.71
602.376	1626.43
602.572	1882.42
602.769	1874.23
602.965	1884.47
603.161	1984.82
603.357	2046.26
603.553	2191.67
603.75	2128.18
603.946	2230.58
604.142	2240.82
604.338	2455.86
604.534	2431.28
604.73	2566.45
604.926	2545.97
605.122	2836.78
605.318	2730.28
605.514	2984.23
605.71	3012.9
605.906	3131.69
606.102	3127.59
606.298	3277.09
606.494	3361.06
606.69	3533.09
606.886	3545.38
607.082	3584.29
607.278	3791.13
607.474	3752.22
607.67	4063.51
607.866	3944.73
608.062	4280.6
608.257	4444.43
608.453	4389.14
608.649	4606.22
608.845	4466.96
609.041	4608.27
609.236	4915.47
609.432	4892.94
609.628	5204.23
609.824	5257.48
610.019	5454.08
610.215	5613.82
610.411	5906.68
610.606	6101.24
610.802	6060.28
610.998	6203.64
611.193	6566.13
611.389	6654.19
611.584	6691.06
611.78	6727.92
611.976	6895.85
612.171	7311.59
612.367	7211.24
612.562	7454.95
612.758	7762.14
612.953	7749.86
613.149	8231.13
613.344	8239.32
613.539	8544.47
613.735	8888.53
613.93	8992.97
614.126	9220.3
614.321	9676.99
614.517	9877.69
614.712	10213.56
614.907	10332.34
615.103	10432.69
615.298	10694.83
615.493	11030.7
615.688	11286.7
615.884	12034.21
616.079	11931.81
616.274	12365.98
616.47	12435.61
616.665	13133.96
616.86	12859.54
617.055	13521.03
617.25	13738.12
617.445	14114.94
617.641	14319.74
617.836	14925.94
618.031	14903.41
618.226	15652.97
618.421	15722.6
618.616	16449.63
618.811	16314.46
619.006	17160.27
619.201	17170.51
619.396	17774.66
619.591	17805.38
619.786	18329.66
619.981	18884.66
620.176	19386.41
620.371	19697.7
620.566	20117.54
620.761	20742.17
620.956	21162
621.151	21037.08
621.346	21602.32
621.541	21776.39
621.735	22593.53
621.93	22679.55
622.125	23222.26
622.32	23349.23
622.515	24197.09
622.709	24477.66
622.904	24879.07
623.099	25366.48
623.294	25933.77
623.488	26363.84
623.683	26953.66
623.878	27105.21
624.072	27740.08
624.267	27940.78
624.462	28518.31
624.656	28741.53
624.851	29415.32
625.046	29583.25
625.24	30416.77
625.435	30343.05
625.629	30838.65
625.824	31010.68
626.018	31614.83
626.213	31774.58
626.407	32434.02
626.602	32642.92
626.796	32939.87
626.991	33681.24
627.185	33677.14
627.38	33503.06
627.574	34121.55
627.768	33914.7
627.963	34557.77
628.157	34363.21
628.352	35110.72
628.546	34369.35
628.74	34914.11
628.935	34721.6
629.129	34934.59
629.323	34883.39
629.517	34543.43
629.712	34717.51
629.906	34139.98
630.1	33808.21
630.294	33597.27
630.489	32606.05
630.683	32751.46
630.877	32079.72
631.071	31817.58
631.265	31440.76
631.459	30304.13
631.653	29667.22
631.848	29452.18
632.042	28624.8
632.236	28270.5
632.43	27006.91
632.624	26494.91
632.818	25876.43
633.012	25094.1
633.206	24201.19
633.4	23537.65
633.594	22448.13
633.788	22312.96
633.982	21518.35
634.176	20645.91
634.369	19478.57
634.563	19036.21
634.757	18337.85
634.951	18044.99
635.145	17195.09
635.339	16474.2
635.533	15614.06
635.726	15186.03
635.92	14403.71
636.114	13971.58
636.308	13326.47
636.501	12783.76
636.695	12212.38
636.889	11819.17
637.083	11303.08
637.276	10735.79
637.47	10389.69
637.664	9902.27
637.857	9578.69
638.051	8939.72
638.244	8624.34
638.438	8345.81
638.632	8186.07
638.825	7635.17
639.019	7581.92
639.212	7196.9
639.406	6846.7
639.599	6672.62
639.793	6396.15
639.986	6025.47
640.18	5904.64
640.373	5632.26
640.567	5441.79
640.76	5148.93
640.954	5155.08
641.147	4802.83
641.34	4638.99
641.534	4460.82
641.727	4534.54
641.92	4131.09
642.114	4077.85
642.307	3799.32
642.5	3696.92
642.694	3283.24
642.887	3377.44
643.08	3365.15
643.273	3279.14
643.467	3092.77
643.66	2828.59
643.853	2785.58
644.046	2701.61
644.239	2545.97
644.432	2586.93
644.626	2367.79
644.819	2310.45
645.012	2263.35
645.205	2122.04
645.398	2269.49
645.591	2038.07
645.784	1898.81
645.977	1784.12
646.17	1782.07
646.363	1708.35
646.556	1618.24
646.749	1550.65
646.942	1587.52
647.135	1491.26
647.328	1448.26
647.521	1501.5
647.714	1323.33
647.907	1251.65
648.099	1239.36
648.292	1194.31
648.485	1024.33
648.678	1134.92
648.871	1046.85
649.064	1036.61
649.256	954.69
649.449	866.63
649.642	848.2
649.835	889.16
650.027	737.61
650.22	952.65
650.413	878.92
650.605	715.08
650.798	659.79
650.991	694.6
651.183	653.64
651.376	704.84
651.568	600.4
651.761	620.88
651.954	686.41
652.146	577.87
652.339	616.78
652.531	569.68
652.724	491.85
652.916	514.38
653.109	379.22
653.301	541.01
653.494	579.92
653.686	450.89
653.879	504.14
654.071	489.81
654.263	424.27
654.456	395.6
654.648	471.37
654.84	469.33
655.033	358.74
655.225	438.61
655.417	254.29
655.61	387.41
655.802	407.89
655.994	422.22
656.186	303.44
656.379	366.93
656.571	362.83
656.763	231.76
656.955	307.54
657.148	317.78
657.34	405.84
657.532	225.62
657.724	254.29
657.916	270.67
658.108	346.45
658.3	299.34
658.492	258.39
658.684	219.47
658.876	293.2
659.068	217.43
659.26	203.09
659.452	229.71
659.644	248.15
659.836	418.13
660.028	180.56
660.22	145.75
660.412	194.9
660.604	178.51
660.796	244.05
660.988	223.57
661.18	192.85
661.372	205.14
661.563	203.09
661.755	268.63
661.947	203.09
662.139	168.27
662.331	237.91
662.522	143.7
662.714	94.55
662.906	117.08
663.097	172.37
663.289	143.7
663.481	135.51
663.673	162.13
663.864	233.81
664.056	252.24
664.247	135.51
664.439	231.76
664.631	190.8
664.822	198.99
665.014	121.17
665.205	119.12
665.397	162.13
665.588	151.89
665.78	123.22
665.971	182.61
666.163	151.89
666.354	117.08
666.546	129.36
666.737	145.75
666.929	149.84
667.12	125.27
667.311	178.51
667.503	119.12
667.694	168.27
667.885	186.71
668.077	270.67
668.268	61.78
668.459	121.17
668.651	215.38
668.842	96.6
669.033	196.95
669.224	145.75
669.416	332.11
669.607	170.32
669.798	117.08
669.989	293.2
670.18	231.76
670.371	135.51
670.563	121.17
670.754	297.3
670.945	186.71
671.136	125.27
671.327	168.27
671.518	239.95
671.709	266.58
671.9	276.82
672.091	227.67
672.282	203.09
672.473	190.8
672.664	172.37
672.855	203.09
673.046	213.33
673.237	260.43
673.428	225.62
673.619	227.67
673.809	174.42
674	297.3
674.191	239.95
674.382	194.9
674.573	184.66
674.764	127.32
674.954	188.75
675.145	184.66
675.336	186.71
675.527	219.47
675.717	170.32
675.908	254.29
676.099	315.73
676.289	280.91
676.48	121.17
676.671	252.24
676.861	190.8
677.052	223.57
677.243	291.15
677.433	170.32
677.624	321.87
677.814	278.87
678.005	170.32
678.195	362.83
678.386	235.86
678.576	270.67
678.767	194.9
678.957	307.54
679.148	317.78
679.338	295.25
679.529	239.95
679.719	291.15
679.909	317.78
680.1	309.58
680.29	330.06
680.481	190.8
680.671	303.44
680.861	325.97
681.052	268.63
681.242	266.58
681.432	309.58
681.622	354.64
681.813	254.29
682.003	272.72
682.193	291.15
682.383	256.34
682.573	276.82
682.764	252.24
682.954	301.39
683.144	420.17
683.334	252.24
683.524	348.5
683.714	330.06
683.904	289.1
684.094	401.74
684.284	346.45
684.474	432.46
684.664	389.46
684.854	350.54
685.044	375.12
685.234	350.54
685.424	352.59
685.614	307.54
685.804	485.71
685.994	338.26
686.184	354.64
686.374	364.88
686.564	358.74
686.753	332.11
686.943	211.28
687.133	289.1
687.323	360.78
687.513	346.45
687.702	383.31
687.892	383.31
688.082	377.17
688.272	356.69
688.461	373.07
688.651	475.47
688.841	457.04
689.03	399.7
689.22	375.12
689.41	444.75
689.599	424.27
689.789	346.45
689.979	424.27
690.168	362.83
690.358	305.49
690.547	309.58
690.737	438.61
690.926	338.26
691.116	426.32
691.305	440.65
691.495	342.35
691.684	338.26
691.874	354.64
692.063	299.34
692.252	416.08
692.442	366.93
692.631	299.34
692.82	342.35
693.01	426.32
693.199	305.49
693.388	358.74
693.578	307.54
693.767	352.59
693.956	248.15
694.146	289.1
694.335	405.84
694.524	301.39
694.713	358.74
694.902	368.98
695.092	260.43
695.281	385.36
695.47	346.45
695.659	276.82
695.848	366.93
696.037	211.28
696.226	391.5
696.415	407.89
696.604	450.89
696.793	354.64
696.982	301.39
697.171	452.94
697.36	342.35
697.549	319.82
697.738	231.76
697.927	262.48
698.116	225.62
698.305	381.26
698.494	399.7
698.683	344.4
698.872	452.94
699.061	397.65
699.25	325.97
699.438	366.93
699.627	282.96
699.816	467.28
700.005	207.19
700.193	291.15
700.382	317.78
700.571	328.02
700.76	342.35
700.948	383.31
701.137	422.22
701.326	414.03
701.514	321.87
701.703	346.45
701.892	366.93
702.08	483.66
702.269	293.2
702.457	207.19
702.646	313.68
702.834	225.62
703.023	325.97
703.212	407.89
703.4	297.3
703.589	309.58
703.777	317.78
703.965	276.82
704.154	346.45
704.342	332.11
704.531	348.5
704.719	315.73
704.907	375.12
705.096	223.57
705.284	313.68
705.472	371.02
705.661	391.5
705.849	295.25
706.037	383.31
706.226	291.15
706.414	334.16
706.602	305.49
706.79	336.21
706.979	303.44
707.167	313.68
707.355	211.28
707.543	381.26
707.731	313.68
707.919	305.49
708.107	338.26
708.296	264.53
708.484	260.43
708.672	358.74
708.86	291.15
709.048	293.2
709.236	272.72
709.424	358.74
709.612	368.98
709.8	276.82
709.988	309.58
710.176	371.02
710.364	381.26
710.551	420.17
710.739	274.77
710.927	207.19
711.115	321.87
711.303	428.37
711.491	403.79
711.679	282.96
711.866	422.22
712.054	342.35
712.242	356.69
712.43	356.69
712.617	293.2
712.805	381.26
712.993	305.49
713.181	262.48
713.368	342.35
713.556	287.06
713.744	219.47
713.931	536.91
714.119	428.37
714.306	278.87
714.494	264.53
714.682	395.6
714.869	244.05
715.057	303.44
715.244	268.63
715.432	371.02
715.619	356.69
715.807	383.31
715.994	293.2
716.182	373.07
716.369	434.51
716.556	362.83
716.744	264.53
716.931	350.54
717.119	420.17
717.306	389.46
717.493	432.46
717.681	334.16
717.868	244.05
718.055	260.43
718.242	280.91
718.43	416.08
718.617	395.6
718.804	407.89
718.991	418.13
719.179	342.35
719.366	377.17
719.553	446.8
719.74	375.12
719.927	311.63
720.114	307.54
720.301	307.54
720.488	297.3
720.676	373.07
720.863	498
721.05	522.57
721.237	387.41
721.424	379.22
721.611	356.69
721.798	317.78
721.985	366.93
722.172	409.94
722.358	334.16
722.545	403.79
722.732	407.89
722.919	373.07
723.106	485.71
723.293	301.39
723.48	444.75
723.667	299.34
723.853	432.46
724.04	457.04
724.227	418.13
724.414	366.93
724.6	340.3
724.787	444.75
724.974	483.66
725.161	432.46
725.347	293.2
725.534	391.5
725.72	416.08
725.907	442.7
726.094	448.85
726.28	401.74
726.467	348.5
726.653	293.2
726.84	508.24
727.027	475.47
727.213	416.08
727.4	430.41
727.586	371.02
727.773	399.7
727.959	416.08
728.145	381.26
728.332	442.7
728.518	342.35
728.705	371.02
728.891	442.7
729.077	409.94
729.264	266.58
729.45	375.12
729.636	495.95
729.823	416.08
730.009	477.52
730.195	424.27
730.382	481.61
730.568	348.5
730.754	461.13
730.94	434.51
731.126	446.8
731.313	514.38
731.499	442.7
731.685	479.57
731.871	428.37
732.057	422.22
732.243	487.76
732.429	422.22
732.615	530.77
732.801	444.75
732.987	457.04
733.173	440.65
733.359	416.08
733.545	467.28
733.731	440.65
733.917	598.35
734.103	469.33
734.289	502.09
734.475	432.46
734.661	569.68
734.847	457.04
735.033	428.37
735.219	510.29
735.404	403.79
735.59	358.74
735.776	405.84
735.962	463.18
736.148	416.08
736.333	514.38
736.519	397.65
736.705	422.22
736.89	534.86
737.076	502.09
737.262	391.5
737.447	399.7
737.633	420.17
737.819	436.56
738.004	461.13
738.19	446.8
738.375	491.85
738.561	477.52
738.747	463.18
738.932	422.22
739.118	555.34
739.303	477.52
739.489	514.38
739.674	440.65
739.859	411.98
740.045	522.57
740.23	473.42
740.416	377.17
740.601	465.23
740.786	534.86
740.972	399.7
741.157	489.81
741.342	391.5
741.528	350.54
741.713	481.61
741.898	459.09
742.084	514.38
742.269	440.65
742.454	391.5
742.639	477.52
742.824	420.17
743.01	477.52
743.195	545.1
743.38	487.76
743.565	414.03
743.75	473.42
743.935	448.85
744.12	448.85
744.305	293.2
744.49	344.4
744.675	446.8
744.86	405.84
745.045	418.13
745.23	463.18
745.415	407.89
745.6	520.53
745.785	391.5
745.97	563.53
746.155	430.41
746.34	483.66
746.525	397.65
746.71	551.24
746.895	342.35
747.079	401.74
747.264	399.7
747.449	504.14
747.634	438.61
747.819	438.61
748.003	385.36
748.188	383.31
748.373	422.22
748.557	495.95
748.742	473.42
748.927	358.74
749.111	317.78
749.296	407.89
749.481	379.22
749.665	399.7
749.85	289.1
750.034	444.75
750.219	409.94
750.404	379.22
750.588	457.04
750.773	323.92
750.957	371.02
751.141	350.54
751.326	436.56
751.51	266.58
751.695	332.11
751.879	366.93
752.064	432.46
752.248	332.11
752.432	387.41
752.617	444.75
752.801	407.89
752.985	262.48
753.17	336.21
753.354	360.78
753.538	362.83
753.722	233.81
753.907	303.44
754.091	276.82
754.275	399.7
754.459	250.19
754.643	233.81
754.828	328.02
755.012	330.06
755.196	256.34
755.38	299.34
755.564	305.49
755.748	305.49
755.932	428.37
756.116	338.26
756.3	321.87
756.484	309.58
756.668	303.44
756.852	168.27
757.036	182.61
757.22	317.78
757.404	153.94
757.588	248.15
757.772	278.87
757.956	244.05
758.14	358.74
758.323	282.96
758.507	268.63
758.691	274.77
758.875	334.16
759.059	397.65
759.242	215.38
759.426	256.34
759.61	258.39
759.794	96.6
759.977	293.2
760.161	422.22
760.345	342.35
760.528	235.86
760.712	246.1
760.895	254.29
761.079	252.24
761.263	151.89
761.446	184.66
761.63	133.46
761.813	350.54
761.997	217.43
762.18	254.29
762.364	276.82
762.547	221.52
762.731	278.87
762.914	194.9
763.098	295.25
763.281	209.23
763.464	237.91
763.648	196.95
763.831	184.66
764.015	102.74
764.198	229.71
764.381	186.71
764.564	203.09
764.748	162.13
764.931	250.19
765.114	180.56
765.297	260.43
765.481	170.32
765.664	268.63
765.847	170.32
766.03	231.76
766.213	129.36
766.397	219.47
766.58	110.93
766.763	250.19
766.946	182.61
767.129	176.47
767.312	141.65
767.495	170.32
767.678	108.88
767.861	170.32
768.044	94.55
768.227	194.9
768.41	223.57
768.593	209.23
768.776	211.28
768.959	137.56
769.142	289.1
769.324	123.22
769.507	170.32
769.69	170.32
769.873	78.16
770.056	342.35
770.239	196.95
770.421	289.1
770.604	190.8
770.787	127.32
770.97	213.33
771.152	149.84
771.335	209.23
771.518	147.8
771.7	252.24
771.883	285.01
772.066	166.23
772.248	186.71
772.431	174.42
772.613	194.9
772.796	141.65
772.978	155.99
773.161	207.19
773.343	153.94
773.526	112.98
773.708	108.88
773.891	51.54
774.073	112.98
774.256	129.36
774.438	295.25
774.621	153.94
774.803	176.47
774.985	80.21
775.168	137.56
775.35	88.4
775.532	117.08
775.715	39.25
775.897	211.28
776.079	162.13
776.261	217.43
776.444	170.32
776.626	110.93
776.808	90.45
776.99	84.31
777.173	88.4
777.355	92.5
777.537	76.12
777.719	117.08
777.901	162.13
778.083	35.16
778.265	35.16
778.447	149.84
778.629	80.21
778.811	153.94
778.993	121.17
779.175	176.47
779.357	147.8
779.539	31.06
779.721	90.45
779.903	201.04
780.085	121.17
780.267	153.94
780.449	176.47
780.631	127.32
780.812	190.8
780.994	96.6
781.176	115.03
781.358	59.73
781.54	94.55
781.721	168.27
781.903	119.12
782.085	155.99
782.267	170.32
782.448	37.2
782.63	112.98
782.812	143.7
782.993	94.55
783.175	104.79
783.357	35.16
783.538	96.6
783.72	31.06
783.901	198.99
784.083	104.79
784.264	90.45
784.446	37.2
784.627	14.68
784.809	153.94
784.99	102.74
785.172	96.6
785.353	69.97
785.535	47.44
785.716	92.5
785.897	24.92
786.079	74.07
786.26	84.31
786.441	135.51
786.623	26.96
786.804	59.73
786.985	63.83
787.167	43.35
787.348	82.26
787.529	92.5
787.71	219.47
787.891	129.36
788.073	112.98
788.254	63.83
788.435	112.98
788.616	121.17
788.797	10.58
788.978	94.55
789.159	80.21
789.34	88.4
789.522	63.83
789.703	4.44
789.884	141.65
790.065	86.36
790.246	248.15
790.427	47.44
790.607	110.93
790.788	141.65
790.969	129.36
791.15	96.6
791.331	35.16
791.512	88.4
791.693	-20.14
791.874	29.01
792.054	160.08
792.235	158.03
792.416	-9.9
792.597	-11.95
792.778	18.77
792.958	55.64
793.139	72.02
793.32	90.45
793.5	8.53
793.681	145.75
793.862	162.13
794.042	26.96
794.223	-54.95
794.404	-26.28
794.584	-26.28
794.765	49.49
794.945	24.92
795.126	82.26
795.306	76.12
795.487	-16.04
795.667	14.68
795.848	63.83
796.028	72.02
796.209	43.35
796.389	115.03
796.57	29.01
796.75	-20.14
796.93	137.56
797.111	-13.99
797.291	-20.14
797.471	117.08
797.652	67.92
797.832	-42.67
798.012	80.21
798.192	-40.62
798.373	18.77
798.553	18.77
798.733	92.5
798.913	-30.38
799.093	12.63
799.274	72.02
799.454	63.83
799.634	166.23
799.814	131.41
799.994	39.25
800.174	80.21
800.354	-1.71
800.534	-34.47
800.714	123.22
800.894	-7.85
801.074	-52.91
801.254	-50.86
801.434	135.51
801.614	12.63
801.794	-44.71
801.974	1567.04
802.154	24.92
802.334	-5.8
802.514	12.63
802.693	14.68
802.873	-50.86
803.053	170.32
803.233	49.49
803.413	-3.75
803.592	12.63
803.772	-75.43
803.952	100.69
804.131	31.06
804.311	149.84
804.491	133.46
804.67	-44.71
804.85	-13.99
805.03	112.98
805.209	86.36
805.389	37.2
805.568	4.44
805.748	61.78
805.928	26.96
806.107	22.87
806.287	115.03
806.466	57.68
806.646	-26.28
806.825	53.59
807.004	12.63
807.184	90.45
807.363	196.95
807.543	45.4
807.722	-30.38
807.901	129.36
808.081	123.22
808.26	-59.05
808.439	31.06
808.619	39.25
808.798	-1.71
808.977	26.96
809.156	55.64
809.336	108.88
809.515	59.73
809.694	2.39
809.873	26.96
810.052	102.74
810.231	51.54
810.411	14.68
810.59	61.78
810.769	59.73
810.948	39.25
811.127	-34.47
811.306	-9.9
811.485	43.35
811.664	133.46
811.843	-20.14
812.022	-5.8
812.201	39.25
812.38	86.36
812.559	37.2
812.737	82.26
812.916	-48.81
813.095	0.34
813.274	35.16
813.453	26.96
813.632	45.4
813.811	84.31
813.989	-75.43
814.168	14.68
814.347	-34.47
814.526	16.73
814.704	137.56
814.883	45.4
815.062	-40.62
815.24	14.68
815.419	-50.86
815.598	39.25
815.776	-54.95
815.955	22.87
816.133	-61.1
816.312	33.11
816.49	63.83
816.669	22.87
816.847	-11.95
817.026	20.82
817.204	-34.47
817.383	51.54
817.561	35.16
817.74	61.78
817.918	74.07
818.097	-1.71
818.275	12.63
818.453	14.68
818.632	80.21
818.81	-1.71
818.988	6.49
819.167	-71.34
819.345	16.73
819.523	35.16
819.701	12.63
819.879	104.79
820.058	76.12
820.236	96.6
820.414	-9.9
820.592	6.49
820.77	-5.8
820.948	0.34
821.127	-5.8
821.305	67.92
821.483	-44.71
821.661	82.26
821.839	-24.23
822.017	84.31
822.195	0.34
822.373	43.35
822.551	4.44
822.729	33.11
822.907	51.54
823.085	166.23
823.262	72.02
823.44	-9.9
823.618	20.82
823.796	31.06
823.974	-22.19
824.152	-34.47
824.329	37.2
824.507	96.6
824.685	84.31
824.863	-1.71
825.04	39.25
825.218	0.34
825.396	14.68
825.574	39.25
825.751	45.4
825.929	61.78
826.107	-67.24
826.284	10.58
826.462	96.6
826.639	-134.82
826.817	24.92
826.994	53.59
827.172	-5.8
827.349	166.23
827.527	43.35
827.704	123.22
827.882	88.4
828.059	37.2
828.237	-9.9
828.414	29.01
828.591	-100.01
828.769	37.2
828.946	4.44
829.124	67.92
829.301	88.4
829.478	55.64
829.655	76.12
829.833	53.59
830.01	-52.91
830.187	47.44
830.364	18.77
830.542	33.11
830.719	203.09
830.896	67.92
831.073	-22.19
831.25	20.82
831.427	47.44
831.604	-9.9
831.782	-24.23
831.959	69.97
832.136	55.64
832.313	22.87
832.49	-40.62
832.667	-1.71
832.844	-83.63
833.021	61.78
833.198	137.56
833.374	26.96
833.551	-18.09
833.728	-1.71
833.905	78.16
834.082	-34.47
834.259	-38.57
834.436	61.78
834.612	-30.38
834.789	88.4
834.966	-3.75
835.143	16.73
835.319	-1.71
835.496	18.77
835.673	72.02
835.85	125.27
836.026	72.02
836.203	-20.14
836.38	80.21
836.556	-13.99
836.733	-38.57
836.909	53.59
837.086	57.68
837.262	6.49
837.439	22.87
837.616	-11.95
837.792	37.2
837.968	-26.28
838.145	-97.96
838.321	26.96
838.498	67.92
838.674	59.73
838.851	6.49
839.027	-34.47
839.203	57.68
839.38	115.03
839.556	-120.49
839.732	22.87
839.909	35.16
840.085	63.83
840.261	-93.87
840.437	16.73
840.614	-16.04
840.79	110.93
840.966	59.73
841.142	39.25
841.318	45.4
841.494	82.26
841.671	117.08
841.847	-65.19
842.023	-18.09
842.199	31.06
842.375	59.73
842.551	-5.8
842.727	-9.9
842.903	96.6
843.079	-57
843.255	98.64
843.431	-9.9
843.607	88.4
843.783	-132.78
843.959	88.4
844.134	-1.71
844.31	133.46
844.486	39.25
844.662	37.2
844.838	-69.29
845.013	55.64
845.189	88.4
845.365	86.36
845.541	22.87
845.716	-5.8
845.892	47.44
846.068	-30.38
846.244	-42.67
846.419	96.6
846.595	-30.38
846.77	4.44
846.946	57.68
847.122	-18.09
847.297	-52.91
847.473	110.93
847.648	-42.67
847.824	72.02
847.999	-108.2
848.175	-54.95
848.35	29.01
848.526	78.16
848.701	33.11
848.876	45.4
849.052	102.74
849.227	37.2
849.403	-69.29
849.578	-54.95
849.753	-22.19
849.929	72.02
850.104	-34.47
850.279	31.06
850.454	-22.19
850.63	67.92
850.805	-1.71
850.98	41.3
851.155	16.73
851.33	80.21
851.505	-42.67
851.681	145.75
851.856	-59.05
852.031	43.35
852.206	-9.9
852.381	-54.95
852.556	2.39
852.731	47.44
852.906	41.3
853.081	35.16
853.256	110.93
853.431	37.2
853.606	-34.47
853.781	12.63
853.956	-61.1
854.131	47.44
854.305	10.58
854.48	-3.75
854.655	-5.8
854.83	47.44
855.005	110.93
855.18	-3.75
855.354	-46.76
855.529	16.73
855.704	-3.75
855.879	67.92
856.053	12.63
856.228	100.69
856.403	20.82
856.577	-7.85
856.752	-132.78
856.926	20.82
857.101	78.16
857.276	-13.99
857.45	-3.75
857.625	45.4
857.799	18.77
857.974	43.35
858.148	-54.95
858.323	67.92
858.497	-26.28
858.672	-7.85
858.846	-26.28
859.02	59.73
859.195	-54.95
859.369	12.63
859.543	78.16
859.718	-44.71
859.892	29.01
860.066	53.59
860.241	-50.86
860.415	-65.19
860.589	-36.52
860.763	33.11
860.938	-67.24
861.112	-18.09
861.286	-20.14
861.46	88.4
861.634	-9.9
861.808	10.58
861.982	-28.33
862.157	-32.43
862.331	-30.38
862.505	-83.63
862.679	-151.21
862.853	-11.95
863.027	-1.71
863.201	6.49
863.375	-114.34
863.549	72.02
863.722	37.2
863.896	98.64
864.07	0.34
864.244	29.01
864.418	98.64
864.592	26.96
864.766	12.63
864.939	-1.71
865.113	-9.9
865.287	125.27
865.461	-83.63
865.634	-93.87
865.808	67.92
865.982	49.49
866.156	-36.52
866.329	-63.15
866.503	10.58
866.676	94.55
866.85	-3.75
867.024	-108.2
867.197	31.06
867.371	24.92
867.544	10.58
867.718	4.44
867.891	86.36
868.065	4.44
868.238	63.83
868.412	31.06
868.585	39.25
868.759	-79.53
868.932	-11.95
869.105	-26.28
869.279	-18.09
869.452	-20.14
869.625	47.44
869.799	10.58
869.972	-89.77
870.145	-9.9
870.319	35.16
870.492	2.39
870.665	-75.43
870.838	49.49
871.011	-128.68
871.185	37.2
871.358	-83.63
871.531	-26.28
871.704	-52.91
871.877	53.59
872.05	-83.63
872.223	-5.8
872.396	39.25
872.569	2.39
872.742	-46.76
872.915	14.68
873.088	-54.95
873.261	0.34
873.434	104.79
873.607	-32.43
873.78	0.34
873.953	-67.24
874.126	18.77
874.299	20.82
874.471	-11.95
874.644	-13.99
874.817	108.88
874.99	80.21
875.163	-1.71
875.335	59.73
875.508	-50.86
875.681	149.84
875.853	-59.05
876.026	14.68
876.199	16.73
876.371	10.58
876.544	-9.9
876.717	20.82
876.889	-36.52
877.062	-26.28
877.234	-110.25
877.407	8.53
877.579	29.01
877.752	26.96
877.924	94.55
878.097	26.96
878.269	47.44
878.442	82.26
878.614	59.73
878.786	84.31
878.959	-1.71
879.131	-5.8
879.303	-42.67
879.476	90.45
879.648	47.44
879.82	51.54
879.993	-34.47
880.165	20.82
880.337	-24.23
880.509	-11.95
880.681	-95.91
880.854	18.77
881.026	78.16
881.198	119.12
881.37	33.11
881.542	-67.24
881.714	0.34
881.886	-46.76
882.058	6.49
882.23	33.11
882.402	20.82
882.574	10.58
882.746	86.36
882.918	82.26
883.09	20.82
883.262	4.44
883.434	14.68
883.606	-42.67
883.778	26.96
883.95	88.4
884.122	10.58
884.293	96.6
884.465	-3.75
884.637	72.02
884.809	-3.75
884.98	43.35
885.152	20.82
885.324	2.39
885.496	-67.24
885.667	0.34
885.839	-83.63
886.011	121.17
886.182	22.87
886.354	143.7
886.525	45.4
886.697	-69.29
886.869	-61.1
887.04	10.58
887.212	112.98
887.383	112.98
887.555	-26.28
887.726	22.87
887.897	-138.92
888.069	-18.09
888.24	133.46
888.412	12.63
888.583	-46.76
888.754	-36.52
888.926	-77.48
889.097	-59.05
889.268	-71.34
889.44	51.54
889.611	-83.63
889.782	-63.15
889.953	-7.85
890.125	112.98
890.296	-3.75
890.467	18.77
890.638	-3.75
890.809	22.87
890.98	-13.99
891.151	86.36
891.323	158.03
891.494	8.53
891.665	29.01
891.836	-50.86
892.007	-91.82
892.178	16.73
892.349	-13.99
892.52	-46.76
892.691	8.53
892.862	-3.75
893.032	-69.29
893.203	-40.62
893.374	-24.23
893.545	67.92
893.716	2.39
893.887	57.68
894.057	-63.15
894.228	76.12
894.399	16.73
894.57	55.64
894.74	-18.09
894.911	4.44
895.082	-26.28
895.253	-13.99
895.423	90.45
895.594	69.97
895.764	39.25
895.935	-46.76
896.106	22.87
896.276	-40.62
896.447	63.83
896.617	4.44
896.788	-32.43
896.958	12.63
897.129	-46.76
897.299	16.73
897.47	69.97
897.64	86.36
897.81	31.06
897.981	-36.52
898.151	-34.47
898.322	59.73
898.492	80.21
898.662	-104.11
898.832	-28.33
899.003	-26.28
899.173	47.44
899.343	-22.19
899.513	-36.52
