Data from USB4F104151__89__11-31-38-059.txt Node

Date: Wed Feb 26 11:31:38 EST 2025
User: louis
Spectrometer: USB4F10415
Trigger mode: 4
Integration Time (sec): 1.000000E-1
Scans to average: 1
Electric dark correction enabled: true
Nonlinearity correction enabled: false
Boxcar width: 0
XAxis mode: Wavelengths
Number of Pixels in Spectrum: 3648
>>>>>Begin Spectral Data<<<<<
178.204	-440.14
178.424	-440.14
178.644	-440.14
178.864	-421.71
179.084	-403.28
179.304	2.22
179.524	-24.4
179.744	59.56
179.964	28.84
180.184	37.03
180.404	55.47
180.624	-106.32
180.844	-42.84
181.064	-20.31
181.283	-5.97
181.503	-38.74
181.723	55.47
181.943	-139.09
182.163	200.87
182.383	-1.88
182.602	53.42
182.822	155.82
183.042	57.51
183.262	-48.98
183.482	104.62
183.701	47.27
183.921	45.23
184.141	-24.4
184.361	49.32
184.58	49.32
184.8	28.84
185.02	-34.64
185.239	63.66
185.459	41.13
185.679	65.71
185.898	-126.8
186.118	53.42
186.338	-24.4
186.557	104.62
186.777	-59.22
186.997	-44.88
187.216	30.89
187.436	137.38
187.655	55.47
187.875	34.99
188.095	49.32
188.314	90.28
188.534	49.32
188.753	34.99
188.973	123.05
189.192	155.82
189.412	-85.84
189.631	-12.12
189.851	-16.21
190.07	100.52
190.29	-42.84
190.509	28.84
190.729	4.27
190.948	164.01
191.168	159.91
191.387	53.42
191.607	-91.99
191.826	-20.31
192.045	-8.02
192.265	-12.12
192.484	77.99
192.704	16.55
192.923	-81.75
193.142	155.82
193.362	92.33
193.581	92.33
193.8	20.65
194.02	71.85
194.239	43.18
194.458	39.08
194.678	77.99
194.897	28.84
195.116	20.65
195.335	65.71
195.555	39.08
195.774	-20.31
195.993	18.6
196.212	14.51
196.432	10.41
196.651	-22.36
196.87	28.84
197.089	243.88
197.308	47.27
197.528	88.23
197.747	-30.55
197.966	39.08
198.185	164.01
198.404	-28.5
198.623	131.24
198.842	125.1
199.062	170.15
199.281	30.89
199.5	69.8
199.719	41.13
199.938	45.23
200.157	104.62
200.376	135.34
200.595	116.9
200.814	10.41
201.033	30.89
201.252	176.3
201.471	32.94
201.69	39.08
201.909	2.22
202.128	86.19
202.347	69.8
202.566	-26.45
202.785	-108.37
203.004	-53.08
203.223	194.73
203.442	16.55
203.661	-40.79
203.879	67.75
204.098	118.95
204.317	-59.22
204.536	6.31
204.755	57.51
204.974	106.67
205.193	-32.6
205.411	26.79
205.63	155.82
205.849	108.71
206.068	-30.55
206.287	-118.61
206.505	88.23
206.724	57.51
206.943	39.08
207.162	-36.69
207.381	30.89
207.599	-38.74
207.818	53.42
208.037	-26.45
208.255	39.08
208.474	43.18
208.693	45.23
208.911	-34.64
209.13	137.38
209.349	51.37
209.567	41.13
209.786	18.6
210.005	77.99
210.223	-32.6
210.442	-83.8
210.661	39.08
210.879	55.47
211.098	41.13
211.316	47.27
211.535	121
211.753	30.89
211.972	28.84
212.191	-8.02
212.409	-85.84
212.628	100.52
212.846	-16.21
213.065	49.32
213.283	112.81
213.502	82.09
213.72	16.55
213.938	-24.4
214.157	16.55
214.375	118.95
214.594	92.33
214.812	28.84
215.031	-59.22
215.249	-5.97
215.467	30.89
215.686	51.37
215.904	32.94
216.122	-5.97
216.341	96.43
216.559	71.85
216.778	47.27
216.996	116.9
217.214	-3.93
217.432	-12.12
217.651	-149.33
217.869	-26.45
218.087	-22.36
218.306	-18.26
218.524	22.7
218.742	28.84
218.96	86.19
219.179	8.36
219.397	-16.21
219.615	237.74
219.833	135.34
220.051	-28.5
220.27	45.23
220.488	118.95
220.706	67.75
220.924	-28.5
221.142	28.84
221.36	10.41
221.578	16.55
221.796	-10.07
222.015	10.41
222.233	4.27
222.451	155.82
222.669	-22.36
222.887	84.14
223.105	-20.31
223.323	30.89
223.541	14.51
223.759	37.03
223.977	4.27
224.195	166.06
224.413	88.23
224.631	-18.26
224.849	43.18
225.067	196.78
225.285	34.99
225.503	-24.4
225.721	-135
225.939	-46.93
226.157	-63.32
226.375	194.73
226.592	26.79
226.81	-100.18
227.028	131.24
227.246	139.43
227.464	2.22
227.682	90.28
227.9	59.56
228.117	41.13
228.335	63.66
228.553	12.46
228.771	-28.5
228.989	34.99
229.206	100.52
229.424	-5.97
229.642	2.22
229.86	-55.12
230.077	45.23
230.295	4.27
230.513	118.95
230.731	45.23
230.948	102.57
231.166	164.01
231.384	-1.88
231.601	-53.08
231.819	118.95
232.037	-10.07
232.254	16.55
232.472	-36.69
232.689	-3.93
232.907	34.99
233.125	-26.45
233.342	-3.93
233.56	51.37
233.777	16.55
233.995	75.95
234.213	137.38
234.43	133.29
234.648	47.27
234.865	-30.55
235.083	47.27
235.3	164.01
235.518	47.27
235.735	14.51
235.953	45.23
236.17	4.27
236.388	14.51
236.605	82.09
236.822	135.34
237.04	92.33
237.257	69.8
237.475	-91.99
237.692	-10.07
237.909	55.47
238.127	-3.93
238.344	37.03
238.562	63.66
238.779	0.17
238.996	-100.18
239.214	63.66
239.431	96.43
239.648	-5.97
239.865	41.13
240.083	61.61
240.3	-55.12
240.517	-51.03
240.735	-30.55
240.952	168.1
241.169	49.32
241.386	49.32
241.603	4.27
241.821	-75.6
242.038	96.43
242.255	88.23
242.472	-75.6
242.689	100.52
242.907	98.47
243.124	-24.4
243.341	30.89
243.558	20.65
243.775	-48.98
243.992	37.03
244.209	73.9
244.426	139.43
244.643	30.89
244.86	-20.31
245.078	139.43
245.295	55.47
245.512	61.61
245.729	-26.45
245.946	51.37
246.163	75.95
246.38	63.66
246.597	53.42
246.814	-16.21
247.031	49.32
247.248	47.27
247.464	92.33
247.681	-1.88
247.898	47.27
248.115	0.17
248.332	-5.97
248.549	94.38
248.766	180.39
248.983	71.85
249.2	34.99
249.417	8.36
249.633	14.51
249.85	104.62
250.067	0.17
250.284	-16.21
250.501	32.94
250.717	90.28
250.934	-69.46
251.151	26.79
251.368	34.99
251.585	80.04
251.801	32.94
252.018	-55.12
252.235	88.23
252.451	-30.55
252.668	20.65
252.885	123.05
253.102	24.75
253.318	-22.36
253.535	-61.27
253.752	-14.17
253.968	-30.55
254.185	-128.85
254.401	32.94
254.618	4.27
254.835	-51.03
255.051	141.48
255.268	90.28
255.484	2.22
255.701	67.75
255.917	82.09
256.134	28.84
256.351	-16.21
256.567	-81.75
256.784	-57.17
257	-69.46
257.217	77.99
257.433	61.61
257.65	22.7
257.866	180.39
258.082	-61.27
258.299	49.32
258.515	102.57
258.732	-34.64
258.948	-10.07
259.165	-22.36
259.381	0.17
259.597	61.61
259.814	-3.93
260.03	30.89
260.246	-18.26
260.463	133.29
260.679	164.01
260.895	71.85
261.112	41.13
261.328	-20.31
261.544	12.46
261.761	88.23
261.977	-14.17
262.193	-77.65
262.409	94.38
262.626	-26.45
262.842	-14.17
263.058	-48.98
263.274	114.86
263.49	55.47
263.707	151.72
263.923	82.09
264.139	-59.22
264.355	45.23
264.571	75.95
264.787	104.62
265.004	166.06
265.22	71.85
265.436	4.27
265.652	63.66
265.868	-12.12
266.084	22.7
266.3	37.03
266.516	-79.7
266.732	43.18
266.948	-18.26
267.164	-32.6
267.38	133.29
267.596	55.47
267.812	123.05
268.028	-3.93
268.244	10.41
268.46	32.94
268.676	-5.97
268.892	20.65
269.108	-38.74
269.324	-24.4
269.54	-5.97
269.756	86.19
269.972	-75.6
270.188	73.9
270.403	-145.24
270.619	53.42
270.835	28.84
271.051	39.08
271.267	-59.22
271.483	-36.69
271.698	16.55
271.914	108.71
272.13	-18.26
272.346	-10.07
272.562	6.31
272.777	73.9
272.993	-61.27
273.209	-59.22
273.425	37.03
273.64	-79.7
273.856	37.03
274.072	-57.17
274.287	-32.6
274.503	71.85
274.719	82.09
274.934	8.36
275.15	-114.52
275.366	14.51
275.581	55.47
275.797	77.99
276.012	-42.84
276.228	18.6
276.444	34.99
276.659	131.24
276.875	2.22
277.09	10.41
277.306	77.99
277.521	-16.21
277.737	67.75
277.952	102.57
278.168	43.18
278.383	61.61
278.599	-42.84
278.814	137.38
279.03	24.75
279.245	20.65
279.461	100.52
279.676	65.71
279.892	-63.32
280.107	16.55
280.322	-36.69
280.538	61.61
280.753	-96.08
280.969	30.89
281.184	32.94
281.399	219.3
281.615	-40.79
281.83	43.18
282.045	-48.98
282.26	-110.42
282.476	4.27
282.691	63.66
282.906	14.51
283.122	131.24
283.337	-10.07
283.552	127.14
283.767	-36.69
283.983	69.8
284.198	8.36
284.413	71.85
284.628	-16.21
284.843	37.03
285.058	47.27
285.274	-42.84
285.489	-96.08
285.704	106.67
285.919	2.22
286.134	-44.88
286.349	-83.8
286.564	61.61
286.779	55.47
286.995	32.94
287.21	-53.08
287.425	22.7
287.64	-38.74
287.855	18.6
288.07	-73.56
288.285	121
288.5	135.34
288.715	90.28
288.93	26.79
289.145	-12.12
289.36	59.56
289.575	-36.69
289.79	80.04
290.004	8.36
290.219	110.76
290.434	26.79
290.649	-40.79
290.864	-10.07
291.079	45.23
291.294	18.6
291.509	34.99
291.724	-34.64
291.938	-16.21
292.153	123.05
292.368	26.79
292.583	123.05
292.798	90.28
293.012	24.75
293.227	34.99
293.442	14.51
293.657	22.7
293.871	118.95
294.086	26.79
294.301	96.43
294.516	67.75
294.73	-5.97
294.945	-10.07
295.16	49.32
295.374	141.48
295.589	-16.21
295.804	-89.94
296.018	4.27
296.233	112.81
296.447	47.27
296.662	-18.26
296.877	102.57
297.091	96.43
297.306	-65.36
297.52	-10.07
297.735	37.03
297.949	51.37
298.164	53.42
298.378	26.79
298.593	-89.94
298.807	-14.17
299.022	28.84
299.236	118.95
299.451	2.22
299.665	-38.74
299.88	84.14
300.094	18.6
300.309	75.95
300.523	-16.21
300.737	-12.12
300.952	18.6
301.166	24.75
301.381	-83.8
301.595	-10.07
301.809	30.89
302.024	45.23
302.238	-18.26
302.452	139.43
302.667	69.8
302.881	100.52
303.095	59.56
303.309	77.99
303.524	-53.08
303.738	-12.12
303.952	-1.88
304.166	61.61
304.381	-159.57
304.595	188.58
304.809	-51.03
305.023	57.51
305.237	0.17
305.452	-46.93
305.666	-22.36
305.88	88.23
306.094	92.33
306.308	65.71
306.522	53.42
306.736	69.8
306.95	116.9
307.164	-51.03
307.379	34.99
307.593	112.81
307.807	63.66
308.021	18.6
308.235	20.65
308.449	-67.41
308.663	73.9
308.877	219.3
309.091	51.37
309.305	16.55
309.519	-182.1
309.733	145.58
309.947	-26.45
310.161	90.28
310.374	106.67
310.588	151.72
310.802	-12.12
311.016	59.56
311.23	8.36
311.444	-61.27
311.658	88.23
311.872	123.05
312.085	143.53
312.299	86.19
312.513	118.95
312.727	6.31
312.941	-20.31
313.154	32.94
313.368	-3.93
313.582	16.55
313.796	59.56
314.009	-14.17
314.223	186.54
314.437	43.18
314.651	63.66
314.864	-106.32
315.078	-22.36
315.292	-18.26
315.505	-96.08
315.719	30.89
315.933	8.36
316.146	-98.13
316.36	-51.03
316.573	92.33
316.787	37.03
317.001	71.85
317.214	-8.02
317.428	4.27
317.641	-30.55
317.855	-10.07
318.068	20.65
318.282	80.04
318.495	129.19
318.709	73.9
318.922	12.46
319.136	104.62
319.349	172.2
319.563	-28.5
319.776	151.72
319.99	-46.93
320.203	155.82
320.417	32.94
320.63	94.38
320.843	192.68
321.057	10.41
321.27	2.22
321.483	43.18
321.697	123.05
321.91	102.57
322.124	102.57
322.337	100.52
322.55	-36.69
322.763	45.23
322.977	-46.93
323.19	-16.21
323.403	-16.21
323.617	53.42
323.83	166.06
324.043	-10.07
324.256	45.23
324.469	-102.23
324.683	88.23
324.896	94.38
325.109	24.75
325.322	-34.64
325.535	118.95
325.748	-12.12
325.962	43.18
326.175	92.33
326.388	57.51
326.601	57.51
326.814	-20.31
327.027	-14.17
327.24	188.58
327.453	-94.04
327.666	98.47
327.879	141.48
328.092	61.61
328.305	-8.02
328.518	39.08
328.731	-46.93
328.944	26.79
329.157	86.19
329.37	-85.84
329.583	133.29
329.796	116.9
330.009	-77.65
330.222	94.38
330.435	112.81
330.648	-1.88
330.861	26.79
331.073	98.47
331.286	86.19
331.499	22.7
331.712	-12.12
331.925	-8.02
332.138	41.13
332.35	32.94
332.563	-26.45
332.776	106.67
332.989	-5.97
333.202	51.37
333.414	-63.32
333.627	45.23
333.84	18.6
334.053	94.38
334.265	-16.21
334.478	-46.93
334.691	24.75
334.903	-10.07
335.116	16.55
335.329	53.42
335.541	73.9
335.754	141.48
335.966	-48.98
336.179	-22.36
336.392	14.51
336.604	16.55
336.817	86.19
337.029	82.09
337.242	69.8
337.454	96.43
337.667	-3.93
337.88	161.96
338.092	77.99
338.305	108.71
338.517	-16.21
338.729	108.71
338.942	108.71
339.154	-53.08
339.367	-69.46
339.579	26.79
339.792	-12.12
340.004	20.65
340.217	-24.4
340.429	-22.36
340.641	-34.64
340.854	24.75
341.066	-12.12
341.278	147.62
341.491	151.72
341.703	55.47
341.915	14.51
342.128	53.42
342.34	88.23
342.552	-1.88
342.764	106.67
342.977	-14.17
343.189	0.17
343.401	10.41
343.613	-22.36
343.826	43.18
344.038	-38.74
344.25	73.9
344.462	22.7
344.674	32.94
344.886	34.99
345.099	28.84
345.311	45.23
345.523	24.75
345.735	-59.22
345.947	57.51
346.159	110.76
346.371	-10.07
346.583	28.84
346.795	196.78
347.007	-34.64
347.219	49.32
347.431	-20.31
347.643	73.9
347.855	-46.93
348.067	127.14
348.279	2.22
348.491	-20.31
348.703	121
348.915	75.95
349.127	-26.45
349.339	49.32
349.551	12.46
349.763	143.53
349.975	2.22
350.187	73.9
350.399	125.1
350.61	75.95
350.822	-3.93
351.034	41.13
351.246	41.13
351.458	34.99
351.669	49.32
351.881	80.04
352.093	65.71
352.305	92.33
352.517	55.47
352.728	80.04
352.94	47.27
353.152	139.43
353.363	-114.52
353.575	53.42
353.787	178.34
353.999	20.65
354.21	180.39
354.422	-55.12
354.633	63.66
354.845	55.47
355.057	37.03
355.268	139.43
355.48	110.76
355.692	-89.94
355.903	37.03
356.115	-79.7
356.326	-186.19
356.538	106.67
356.749	-59.22
356.961	127.14
357.172	-40.79
357.384	-110.42
357.595	147.62
357.807	10.41
358.018	-8.02
358.23	20.65
358.441	118.95
358.653	67.75
358.864	8.36
359.075	-51.03
359.287	24.75
359.498	102.57
359.709	24.75
359.921	43.18
360.132	0.17
360.344	-12.12
360.555	-42.84
360.766	47.27
360.977	-59.22
361.189	12.46
361.4	34.99
361.611	65.71
361.823	41.13
362.034	-36.69
362.245	-112.47
362.456	-12.12
362.667	96.43
362.879	-59.22
363.09	47.27
363.301	69.8
363.512	-34.64
363.723	-128.85
363.935	-30.55
364.146	63.66
364.357	-12.12
364.568	47.27
364.779	-42.84
364.99	53.42
365.201	-32.6
365.412	57.51
365.623	-8.02
365.834	55.47
366.045	-20.31
366.256	147.62
366.467	77.99
366.678	0.17
366.889	-18.26
367.1	-69.46
367.311	96.43
367.522	-10.07
367.733	75.95
367.944	24.75
368.155	-36.69
368.366	61.61
368.577	94.38
368.788	94.38
368.999	-38.74
369.209	80.04
369.42	188.58
369.631	161.96
369.842	116.9
370.053	8.36
370.264	67.75
370.474	-61.27
370.685	102.57
370.896	49.32
371.107	116.9
371.317	45.23
371.528	45.23
371.739	184.49
371.95	57.51
372.16	67.75
372.371	-57.17
372.582	-26.45
372.792	57.51
373.003	24.75
373.214	6.31
373.424	84.14
373.635	-81.75
373.846	112.81
374.056	67.75
374.267	82.09
374.477	30.89
374.688	-87.89
374.898	69.8
375.109	-3.93
375.319	57.51
375.53	118.95
375.74	116.9
375.951	-94.04
376.161	77.99
376.372	67.75
376.582	32.94
376.793	45.23
377.003	-26.45
377.214	4.27
377.424	47.27
377.635	-42.84
377.845	-44.88
378.055	104.62
378.266	-3.93
378.476	-32.6
378.686	6.31
378.897	20.65
379.107	43.18
379.317	51.37
379.528	10.41
379.738	51.37
379.948	-30.55
380.158	77.99
380.369	51.37
380.579	49.32
380.789	67.75
380.999	77.99
381.21	168.1
381.42	145.58
381.63	41.13
381.84	41.13
382.05	55.47
382.261	98.47
382.471	69.8
382.681	39.08
382.891	127.14
383.101	-40.79
383.311	20.65
383.521	0.17
383.731	106.67
383.941	73.9
384.151	61.61
384.361	22.7
384.571	61.61
384.781	34.99
384.991	153.77
385.201	59.56
385.411	53.42
385.621	63.66
385.831	53.42
386.041	0.17
386.251	34.99
386.461	106.67
386.671	-30.55
386.881	57.51
387.091	-22.36
387.301	129.19
387.511	-34.64
387.72	10.41
387.93	88.23
388.14	-40.79
388.35	65.71
388.56	49.32
388.769	92.33
388.979	61.61
389.189	-59.22
389.399	75.95
389.609	4.27
389.818	188.58
390.028	34.99
390.238	16.55
390.447	-53.08
390.657	114.86
390.867	-44.88
391.076	18.6
391.286	69.8
391.496	26.79
391.705	39.08
391.915	57.51
392.125	116.9
392.334	-32.6
392.544	133.29
392.753	82.09
392.963	-28.5
393.172	32.94
393.382	12.46
393.591	116.9
393.801	-26.45
394.01	135.34
394.22	82.09
394.429	55.47
394.639	49.32
394.848	75.95
395.058	-36.69
395.267	-57.17
395.477	45.23
395.686	100.52
395.895	243.88
396.105	153.77
396.314	41.13
396.524	8.36
396.733	-12.12
396.942	90.28
397.152	116.9
397.361	71.85
397.57	88.23
397.78	37.03
397.989	71.85
398.198	184.49
398.407	22.7
398.617	45.23
398.826	34.99
399.035	-14.17
399.244	129.19
399.453	18.6
399.663	28.84
399.872	43.18
400.081	28.84
400.29	125.1
400.499	-24.4
400.708	80.04
400.917	-73.56
401.127	-77.65
401.336	-26.45
401.545	145.58
401.754	184.49
401.963	116.9
402.172	-14.17
402.381	-48.98
402.59	-12.12
402.799	69.8
403.008	61.61
403.217	30.89
403.426	94.38
403.635	-48.98
403.844	82.09
404.053	-1.88
404.262	24.75
404.471	51.37
404.68	80.04
404.888	37.03
405.097	-5.97
405.306	65.71
405.515	43.18
405.724	75.95
405.933	159.91
406.142	37.03
406.35	39.08
406.559	-89.94
406.768	65.71
406.977	135.34
407.185	18.6
407.394	20.65
407.603	-30.55
407.812	59.56
408.02	77.99
408.229	-3.93
408.438	28.84
408.646	-73.56
408.855	37.03
409.064	63.66
409.272	-20.31
409.481	80.04
409.69	37.03
409.898	-14.17
410.107	57.51
410.315	77.99
410.524	53.42
410.733	106.67
410.941	-30.55
411.15	123.05
411.358	0.17
411.567	135.34
411.775	73.9
411.984	45.23
412.192	102.57
412.401	53.42
412.609	180.39
412.818	45.23
413.026	57.51
413.234	51.37
413.443	26.79
413.651	-65.36
413.86	47.27
414.068	57.51
414.276	98.47
414.485	73.9
414.693	116.9
414.901	166.06
415.11	6.31
415.318	121
415.526	69.8
415.734	194.73
415.943	82.09
416.151	194.73
416.359	94.38
416.567	67.75
416.776	125.1
416.984	184.49
417.192	131.24
417.4	-53.08
417.608	-28.5
417.817	-14.17
418.025	59.56
418.233	178.34
418.441	-20.31
418.649	-36.69
418.857	141.48
419.065	184.49
419.273	-3.93
419.481	28.84
419.689	71.85
419.897	28.84
420.105	-55.12
420.313	114.86
420.521	151.72
420.729	180.39
420.937	20.65
421.145	-18.26
421.353	166.06
421.561	170.15
421.769	-5.97
421.977	-40.79
422.185	77.99
422.393	4.27
422.601	75.95
422.809	14.51
423.017	-26.45
423.224	153.77
423.432	57.51
423.64	2.22
423.848	219.3
424.056	-40.79
424.263	34.99
424.471	-51.03
424.679	116.9
424.887	-24.4
425.094	178.34
425.302	73.9
425.51	37.03
425.718	100.52
425.925	110.76
426.133	4.27
426.341	157.86
426.548	57.51
426.756	61.61
426.964	104.62
427.171	6.31
427.379	164.01
427.586	92.33
427.794	121
428.001	121
428.209	55.47
428.417	164.01
428.624	118.95
428.832	98.47
429.039	67.75
429.247	24.75
429.454	147.62
429.662	137.38
429.869	174.25
430.076	59.56
430.284	121
430.491	166.06
430.699	73.9
430.906	207.02
431.114	26.79
431.321	116.9
431.528	82.09
431.736	155.82
431.943	178.34
432.15	176.3
432.358	108.71
432.565	227.5
432.772	-59.22
432.979	110.76
433.187	112.81
433.394	182.44
433.601	80.04
433.808	145.58
434.016	252.07
434.223	229.54
434.43	86.19
434.637	250.02
434.844	286.89
435.052	151.72
435.259	161.96
435.466	254.12
435.673	176.3
435.88	219.3
436.087	268.45
436.294	409.76
436.501	301.22
436.708	266.41
436.915	241.83
437.122	321.7
437.329	247.97
437.537	315.56
437.743	250.02
437.95	395.43
438.157	354.47
438.364	360.61
438.571	336.04
438.778	460.96
438.985	379.04
439.192	440.48
439.399	354.47
439.606	383.14
439.813	524.45
440.02	510.11
440.227	559.27
440.433	551.07
440.64	446.63
440.847	436.39
441.054	561.31
441.261	723.1
441.467	594.08
441.674	520.35
441.881	628.9
442.088	618.66
442.294	647.33
442.501	690.34
442.708	737.44
442.914	719.01
443.121	729.25
443.328	805.02
443.534	854.17
443.741	864.41
443.948	708.77
444.154	860.32
444.361	1038.49
444.568	934.04
444.774	860.32
444.981	868.51
445.187	1087.64
445.394	1028.25
445.6	999.58
445.807	1206.42
446.013	1112.22
446.22	1046.68
446.426	1253.53
446.633	1409.17
446.839	1550.48
447.046	1269.91
447.252	1460.37
447.459	1507.48
447.665	1536.15
447.871	1654.93
448.078	1788.05
448.284	1763.47
448.491	1833.1
448.697	1882.25
448.903	1915.02
449.11	1976.46
449.316	1890.45
449.522	2130.06
449.728	2291.85
449.935	2197.64
450.141	2297.99
450.347	2666.63
450.553	2445.45
450.76	2566.28
450.966	2713.73
451.172	2746.5
451.378	2801.79
451.584	2941.05
451.791	3158.14
451.997	3225.72
452.203	3266.68
452.409	3557.49
452.615	3532.92
452.821	3551.35
453.027	3684.47
453.233	4098.16
453.44	3872.88
453.646	4087.92
453.852	4194.41
454.058	4321.38
454.264	4563.05
454.47	4900.96
454.676	4802.66
454.882	5281.88
455.088	5105.76
455.294	5263.45
455.5	5757.01
455.705	6041.68
455.911	5900.37
456.117	6367.31
456.323	6463.56
456.529	6416.46
456.735	7055.42
456.941	7174.21
457.147	7622.71
457.352	7737.4
457.558	7786.55
457.764	8591.4
457.97	8585.26
458.176	9033.76
458.381	9435.16
458.587	9789.46
458.793	10100.75
458.999	10024.98
459.204	11501.56
459.41	11687.93
459.616	11673.59
459.821	12380.14
460.027	12771.3
460.233	13295.58
460.438	13387.74
460.644	14424.01
460.85	14301.14
461.055	14983.11
461.261	15564.73
461.466	15421.38
461.672	15701.95
461.878	17500.06
462.083	16940.97
462.289	17571.74
462.494	18298.77
462.7	18481.04
462.905	18577.3
463.111	19844.99
463.316	21225.32
463.522	21399.4
463.727	22194.01
463.932	23447.36
464.138	23547.72
464.343	24864.56
464.549	24905.52
464.754	26627.86
464.959	27461.38
465.165	27514.63
465.37	27901.7
465.575	27629.32
465.781	29681.38
465.986	30480.09
466.191	30002.91
466.397	30430.94
466.602	29683.43
466.807	31131.34
467.012	31508.17
467.218	32257.73
467.423	32263.87
467.628	33140.4
467.833	34772.63
468.038	34268.83
468.244	33504.94
468.449	35391.12
468.654	34639.51
468.859	34991.76
469.064	34985.62
469.269	33482.41
469.474	34373.28
469.679	34827.93
469.885	34084.51
470.09	34567.84
470.295	34719.38
470.5	33887.91
470.705	34043.56
470.91	33175.22
471.115	32939.7
471.32	33638.06
471.525	33140.4
471.73	32140.99
471.935	31827.65
472.139	31043.28
472.344	30904.02
472.549	30293.72
472.754	30086.88
472.959	29464.3
473.164	28466.94
473.369	28157.69
473.574	28862.19
473.778	28141.31
473.983	27930.37
474.188	26976.02
474.393	25960.22
474.598	25874.21
474.802	25569.06
475.007	25108.27
475.212	24977.2
475.417	23637.83
475.621	23369.54
475.826	23238.47
476.031	22761.3
476.235	22650.71
476.44	22151
476.645	21661.54
476.849	21340.01
477.054	21010.28
477.259	20479.86
477.463	20375.41
477.668	19804.03
477.872	19992.44
478.077	19451.78
478.282	19021.7
478.486	18788.24
478.691	18786.19
478.895	18491.28
479.1	18251.67
479.304	18343.83
479.509	17600.41
479.713	17825.69
479.918	17289.12
480.122	17082.28
480.326	17313.7
480.531	17094.57
480.735	16906.15
480.94	16574.38
481.144	17332.13
481.348	16074.68
481.553	16181.17
481.757	15906.74
481.961	15945.66
482.166	16234.42
482.37	16129.97
482.574	15695.8
482.778	15681.47
482.983	15636.41
483.187	15486.91
483.391	15329.22
483.595	15038.41
483.8	14733.26
484.004	15028.17
484.208	15081.41
484.412	14569.42
484.616	14553.04
484.821	14272.46
485.025	13756.38
485.229	13918.17
485.433	13856.73
485.637	13739.99
485.841	13529.05
486.045	13244.38
486.249	13168.61
486.453	12824.55
486.657	12744.68
486.861	12691.43
487.065	12302.32
487.269	12277.74
487.473	11808.76
487.677	11962.36
487.881	11814.9
488.085	11470.84
488.289	11378.69
488.493	11059.2
488.697	11071.49
488.901	10760.2
489.105	10414.09
489.309	10479.63
489.512	10010.64
489.716	9941.01
489.92	9910.29
490.124	9697.3
490.328	9752.6
490.531	9099.3
490.735	9404.44
490.939	8892.45
491.143	8863.78
491.346	8646.69
491.55	8480.81
491.754	8466.47
491.958	8198.19
492.161	8095.79
492.365	8110.13
492.569	7770.16
492.772	7682.1
492.976	7614.52
493.18	7608.37
493.383	7534.65
493.587	7475.26
493.79	7454.78
493.994	7323.71
494.197	7170.11
494.401	7125.05
494.605	6815.81
494.808	7116.86
495.012	6948.93
495.215	6996.03
495.419	6793.28
495.622	6707.27
495.825	6672.45
496.029	6674.5
496.232	6658.12
496.436	6686.79
496.639	6785.09
496.843	6586.44
497.046	6578.25
497.249	6666.31
497.453	6633.54
497.656	6662.21
497.859	6570.05
498.063	6615.11
498.266	6674.5
498.469	6494.28
498.673	6539.33
498.876	6781
499.079	6527.05
499.282	6721.6
499.485	6901.83
499.689	6936.64
499.892	6967.36
500.095	6969.41
500.298	6998.08
500.501	6912.07
500.705	6897.73
500.908	7104.57
501.111	7172.16
501.314	7407.67
501.517	7512.12
501.72	7311.42
501.923	7366.71
502.126	7354.43
502.329	7780.4
502.532	7528.5
502.735	7589.94
502.938	7993.39
503.141	7968.82
503.344	7944.24
503.547	8136.75
503.75	8212.53
503.953	8292.4
504.156	8435.75
504.359	8491.05
504.562	8370.22
504.765	8874.02
504.968	9037.86
505.17	9113.63
505.373	8994.85
505.576	9195.55
505.779	9441.31
505.982	9685.01
506.185	9898
506.387	9818.13
506.59	10137.62
506.793	10348.56
506.996	10453
507.198	10917.89
507.401	10741.77
507.604	11122.69
507.807	11427.84
508.009	11681.78
508.212	11880.44
508.415	11747.32
508.617	12083.19
508.82	12478.44
509.022	12705.77
509.225	12914.66
509.428	13324.26
509.63	13387.74
509.833	13508.57
510.035	14481.36
510.238	14383.06
510.44	14620.62
510.643	15179.72
510.845	15474.62
511.048	15433.66
511.25	16003
511.453	16459.7
511.655	17115.05
511.858	16949.16
512.06	17717.15
512.262	18173.85
512.465	18309.01
512.667	18644.88
512.87	19138.44
513.072	19521.41
513.274	20449.14
513.477	20778.86
513.679	21059.43
513.881	21409.64
514.084	21964.64
514.286	22329.17
514.488	22744.91
514.69	23684.93
514.893	24108.86
515.095	24411.96
515.297	25106.22
515.499	25245.48
515.701	26248.99
515.904	26900.24
516.106	27418.38
516.308	27840.26
516.51	28337.91
516.712	28909.3
516.914	29527.78
517.116	30033.63
517.318	30654.17
517.52	31088.34
517.722	31610.57
517.925	32429.76
518.127	33261.23
518.329	34119.33
518.531	33853.09
518.733	34913.94
518.935	35088.02
519.136	35903.11
519.338	36578.94
519.54	36949.62
519.742	38188.64
519.944	38434.4
520.146	38989.4
520.348	39468.62
520.55	40093.25
520.752	39962.18
520.954	41444.91
521.155	41076.28
521.357	42237.48
521.559	42395.17
521.761	43300.37
521.963	43574.8
522.164	43707.92
522.366	44385.8
522.568	44783.1
522.77	45258.23
522.971	46036.46
523.173	45719.03
523.375	45854.19
523.576	46364.14
523.778	46659.04
523.98	46880.22
524.181	47478.23
524.383	47298.01
524.584	47914.45
524.786	47748.56
524.988	47893.97
525.189	48684.48
525.391	48158.16
525.592	48467.4
525.794	48479.69
525.995	48403.91
526.197	48451.02
526.398	48377.29
526.6	48287.18
526.801	48264.65
527.003	48098.76
527.204	48192.97
527.406	48082.38
527.607	48178.64
527.808	48369.1
528.01	46826.98
528.211	47443.41
528.412	47371.74
528.614	47015.39
528.815	46478.82
529.016	46786.02
529.218	45839.86
529.419	45596.15
529.62	44924.41
529.822	44770.82
530.023	44645.89
530.224	44221.96
530.425	43775.5
530.626	43251.22
530.828	42425.89
531.029	43003.42
531.23	42071.59
531.431	41264.69
531.632	40963.64
531.833	41045.56
532.035	40459.84
532.236	39788.11
532.437	39900.75
532.638	39009.88
532.839	38700.64
533.04	38348.39
533.241	37410.42
533.442	38133.35
533.643	36492.93
533.844	36279.94
534.045	35856.01
534.246	35270.29
534.447	34903.7
534.648	34461.34
534.849	34162.34
535.05	33517.23
535.251	33074.87
535.451	32288.45
535.652	32675.51
535.853	32003.78
536.054	31395.53
536.255	31483.59
536.456	30252.77
536.657	30478.04
536.857	29877.99
537.058	29443.82
537.259	28899.06
537.46	28817.14
537.66	28190.46
537.861	27817.73
538.062	27670.28
538.263	27258.63
538.463	26826.51
538.664	26404.63
538.865	26433.3
539.065	26408.73
539.266	25620.26
539.466	25388.84
539.667	24991.53
539.868	25106.22
540.068	24418.1
540.269	24151.87
540.469	23887.68
540.67	23400.26
540.87	23379.78
541.071	23246.66
541.271	23121.74
541.472	22660.94
541.672	22517.59
541.873	22183.77
542.073	21856.09
542.274	21739.36
542.474	21639.01
542.675	21200.74
542.875	20981.61
543.075	20438.9
543.276	20199.29
543.476	20563.82
543.676	20064.12
543.877	19724.16
544.077	19345.28
544.277	19294.08
544.478	19097.48
544.678	19146.63
544.878	18524.05
545.078	18685.84
545.279	18190.23
545.479	18251.67
545.679	18089.88
545.879	17620.89
546.079	17579.93
546.28	17334.18
546.48	17110.95
546.68	17293.22
546.88	16734.12
547.08	16660.4
547.28	16111.54
547.48	16050.1
547.68	15982.52
547.88	15693.76
548.081	15562.69
548.281	15185.86
548.481	14849.99
548.681	15171.52
548.881	15015.88
549.081	14510.03
549.28	14471.12
549.48	14159.83
549.68	14155.73
549.88	14249.94
550.08	13449.18
550.28	13527
550.48	13402.08
550.68	13346.78
550.88	12748.78
551.08	12795.88
551.279	12730.34
551.479	12423.15
551.679	12380.14
551.879	12060.66
552.079	11862.01
552.278	11655.16
552.478	11712.5
552.678	11495.42
552.878	11237.38
553.077	11044.87
553.277	10813.45
553.477	10897.41
553.676	10622.98
553.876	10448.91
554.076	10082.32
554.275	10145.81
554.475	9836.56
554.674	10070.03
554.874	9820.18
555.074	9582.62
555.273	9394.2
555.473	9140.26
555.672	8921.12
555.872	8912.93
556.071	8960.03
556.271	8710.18
556.47	8572.97
556.67	8329.26
556.869	8190
557.068	8179.76
557.268	7712.82
557.467	7774.26
557.667	7649.33
557.866	7610.42
558.065	7426.11
558.265	7286.84
558.464	7114.81
558.663	7036.99
558.863	6899.78
559.062	6977.6
559.261	6590.53
559.461	6807.62
559.66	6510.66
559.859	6301.77
560.058	6156.36
560.258	6049.87
560.457	6066.25
560.656	6199.37
560.855	5877.84
561.054	6150.22
561.253	5814.35
561.453	5732.44
561.652	5415
561.851	5582.93
562.05	5349.47
562.249	5163.1
562.448	5273.69
562.647	4956.26
562.846	4984.93
563.045	5111.9
563.244	4868.19
563.443	4941.92
563.642	4638.82
563.841	4757.6
564.04	4651.11
564.239	4487.27
564.438	4575.33
564.637	4274.28
564.836	4311.14
565.035	4327.53
565.234	4173.93
565.432	4300.91
565.631	4128.88
565.83	4137.07
566.029	3981.42
566.228	3952.75
566.427	4053.1
566.625	3706.99
566.824	3846.26
567.023	3627.12
567.222	3555.44
567.42	3614.84
567.619	3512.44
567.818	3469.43
568.016	3514.49
568.215	3407.99
568.414	3375.22
568.612	3332.22
568.811	3143.8
569.01	3141.75
569.208	2973.82
569.407	3137.66
569.605	3061.88
569.804	2879.61
570.002	2979.97
570.201	2896
570.4	2801.79
570.598	2738.3
570.797	2695.3
570.995	2707.59
571.193	2822.27
571.392	2564.23
571.59	2543.75
571.789	2644.1
571.987	2574.47
572.186	2613.38
572.384	2384.01
572.582	2496.64
572.781	2445.45
572.979	2306.18
573.177	2379.91
573.376	2211.98
573.574	2328.71
573.772	2101.39
573.971	2097.29
574.169	2039.95
574.367	2173.07
574.565	2095.24
574.763	2009.23
574.962	1912.97
575.16	2009.23
575.358	1923.21
575.556	1994.89
575.754	1841.29
575.952	1872.01
576.151	1882.25
576.349	1949.84
576.547	1695.89
576.745	1831.05
576.943	1718.42
577.141	1681.55
577.339	1546.39
577.537	1622.16
577.735	1638.55
577.933	1640.59
578.131	1511.57
578.329	1601.68
578.527	1450.13
578.725	1437.84
578.923	1390.74
579.121	1482.9
579.319	1280.15
579.516	1419.41
579.714	1597.59
579.912	1386.65
580.11	1257.62
580.308	1253.53
580.506	1231
580.704	1226.9
580.901	1253.53
581.099	1376.41
581.297	1269.91
581.495	1249.43
581.692	1241.24
581.89	1263.77
582.088	1161.37
582.285	1120.41
582.483	1147.03
582.681	1020.06
582.878	1061.02
583.076	1087.64
583.274	979.1
583.471	1179.8
583.669	1147.03
583.866	952.48
584.064	985.24
584.262	903.32
584.459	907.42
584.657	966.81
584.854	972.96
585.052	911.52
585.249	917.66
585.447	940.19
585.644	819.36
585.841	905.37
586.039	839.84
586.236	895.13
586.434	845.98
586.631	805.02
586.828	743.58
587.026	759.97
587.223	735.39
587.42	710.82
587.618	737.44
587.815	792.73
588.012	745.63
588.21	678.05
588.407	805.02
588.604	737.44
588.801	673.95
588.999	745.63
589.196	708.77
589.393	671.9
589.59	692.38
589.787	704.67
589.984	784.54
590.182	598.18
590.379	565.41
590.576	661.66
590.773	653.47
590.97	661.66
591.167	710.82
591.364	647.33
591.561	606.37
591.758	762.02
591.955	618.66
592.152	667.81
592.349	655.52
592.546	589.99
592.743	534.69
592.94	614.56
593.137	721.06
593.334	723.1
593.531	704.67
593.727	610.47
593.924	678.05
594.121	639.14
594.318	667.81
594.515	702.62
594.712	745.63
594.908	770.21
595.105	549.03
595.302	745.63
595.499	626.85
595.696	829.6
595.892	647.33
596.089	749.73
596.286	663.71
596.482	888.99
596.679	780.45
596.876	727.2
597.072	897.18
597.269	874.65
597.466	880.8
597.662	929.95
597.859	768.16
598.055	886.94
598.252	995.48
598.448	1015.96
598.645	991.39
598.841	1050.78
599.038	1126.55
599.234	1218.71
599.431	1235.1
599.627	1237.14
599.824	1339.54
600.02	1216.66
600.217	1282.2
600.413	1321.11
600.609	1507.48
600.806	1769.62
601.002	1589.39
601.198	1624.21
601.395	1695.89
601.591	1812.62
601.787	1906.83
601.984	1964.17
602.18	2007.18
602.376	1978.51
602.572	2189.45
602.769	2277.51
602.965	2203.79
603.161	2361.48
603.357	2443.4
603.553	2637.95
603.75	2545.8
603.946	2719.87
604.142	2732.16
604.338	2990.21
604.534	2910.33
604.73	2990.21
604.926	3149.95
605.122	3299.45
605.318	3231.87
605.514	3448.95
605.71	3455.09
605.906	3704.95
606.102	3643.51
606.298	3876.98
606.494	4053.1
606.69	4055.15
606.886	4218.99
607.082	4255.85
607.278	4421.74
607.474	4528.23
607.67	4620.39
607.866	4687.97
608.062	5056.61
608.257	5083.23
608.453	5095.52
608.649	5482.58
608.845	5544.02
609.041	5589.08
609.236	5785.68
609.432	5990.48
609.628	6291.53
609.824	6252.62
610.019	6404.17
610.215	6389.83
610.411	6838.34
610.606	6977.6
610.802	7090.24
610.998	7272.51
611.193	7534.65
611.389	7745.59
611.584	7741.49
611.78	8044.59
611.976	8214.57
612.171	8466.47
612.367	8749.09
612.562	9046.05
612.758	9021.47
612.953	9152.54
613.149	9736.21
613.344	9766.93
613.539	10280.97
613.735	10487.82
613.93	10717.19
614.126	10792.97
614.321	11333.63
614.517	11431.93
614.712	11673.59
614.907	12050.42
615.103	12400.62
615.298	12638.19
615.493	12910.57
615.688	13156.32
615.884	13811.67
616.079	13676.51
616.274	14292.94
616.47	14444.49
616.665	14921.67
616.86	15394.75
617.055	15986.61
617.25	16089.01
617.445	16459.7
617.641	16773.03
617.836	17278.88
618.031	17442.72
618.226	18360.21
618.421	18691.98
618.616	19040.14
618.811	19511.17
619.006	19908.47
619.201	20160.38
619.396	21077.87
619.591	20715.37
619.786	21782.37
619.981	21921.63
620.176	22656.85
620.371	22865.74
620.566	23181.13
620.761	23795.52
620.956	24725.3
621.151	24852.27
621.346	25485.09
621.541	25556.77
621.735	26677.01
621.93	26441.5
622.125	27053.84
622.32	27598.6
622.515	28303.1
622.709	28471.03
622.904	29134.57
623.099	29581.03
623.294	30174.94
623.488	30424.79
623.683	31659.72
623.878	31536.84
624.072	32341.69
624.267	32679.61
624.462	33201.84
624.656	33119.92
624.851	34027.17
625.046	34461.34
625.24	35425.93
625.435	35475.09
625.629	36228.74
625.824	36515.45
626.018	36847.22
626.213	36714.11
626.407	37547.63
626.602	37893.74
626.796	38467.17
626.991	38739.55
627.185	38856.28
627.38	38895.19
627.574	39353.94
627.768	39353.94
627.963	39634.51
628.157	39902.79
628.352	40320.58
628.546	39431.76
628.74	40453.7
628.935	39716.43
629.129	40162.89
629.323	39720.52
629.517	39581.26
629.712	38938.2
629.906	39220.82
630.1	38219.36
630.294	38497.89
630.489	37611.12
630.683	37453.42
630.877	36605.56
631.071	35919.49
631.265	35561.1
631.459	34954.9
631.653	34000.55
631.848	33134.26
632.042	32425.66
632.236	31952.58
632.43	30760.66
632.624	30199.52
632.818	29361.9
633.012	28202.75
633.206	27172.62
633.4	26744.59
633.594	25145.13
633.788	24608.56
633.982	23854.91
634.176	23097.16
634.369	21837.66
634.563	21335.91
634.757	20375.41
634.951	19763.07
635.145	19150.73
635.339	18126.74
635.533	17383.33
635.726	16983.98
635.92	15894.46
636.114	15206.34
636.308	14647.24
636.501	14149.59
636.695	13680.6
636.889	13094.88
637.083	12562.41
637.276	12029.94
637.47	11204.61
637.664	11010.05
637.857	10498.06
638.051	10295.31
638.244	9771.03
638.438	9420.83
638.632	9035.81
638.825	8415.27
639.019	8284.2
639.212	7948.34
639.406	7561.27
639.599	7307.32
639.793	7137.34
639.986	6797.38
640.18	6699.08
640.373	6297.67
640.567	5922.9
640.76	5959.76
640.954	5664.85
641.147	5415
641.34	5148.76
641.534	4882.53
641.727	4823.14
641.92	4577.38
642.114	4454.5
642.307	4245.61
642.5	4118.64
642.694	3883.12
642.887	3623.03
643.08	3676.27
643.273	3541.11
643.467	3422.33
643.66	3244.15
643.853	3133.56
644.046	2869.37
644.239	3047.55
644.432	2695.3
644.626	2570.37
644.819	2465.93
645.012	2431.11
645.205	2377.86
645.398	2201.74
645.591	2125.96
645.784	2039.95
645.977	1882.25
646.17	1886.35
646.363	1886.35
646.556	1634.45
646.749	1589.39
646.942	1732.75
647.135	1716.37
647.328	1425.56
647.521	1454.23
647.714	1374.36
647.907	1446.04
648.099	1325.21
648.292	1312.92
648.485	1269.91
648.678	1101.98
648.871	1042.59
649.064	1177.75
649.256	1091.74
649.449	923.8
649.642	876.7
649.835	921.76
650.027	868.51
650.22	868.51
650.413	790.69
650.605	790.69
650.798	751.78
650.991	739.49
651.183	751.78
651.376	807.07
651.568	755.87
651.761	620.71
651.954	725.15
652.146	557.22
652.339	663.71
652.531	688.29
652.724	514.21
652.916	573.6
653.109	333.99
653.301	577.7
653.494	565.41
653.686	583.84
653.879	630.95
654.071	571.55
654.263	479.4
654.456	460.96
654.648	454.82
654.84	510.11
655.033	336.04
655.225	501.92
655.417	276.65
655.61	530.59
655.802	370.85
655.994	510.11
656.186	213.16
656.379	438.44
656.571	338.09
656.763	270.5
656.955	290.98
657.148	331.94
657.34	409.76
657.532	329.89
657.724	276.65
657.916	307.37
658.108	315.56
658.3	241.83
658.492	299.17
658.684	157.86
658.876	360.61
659.068	164.01
659.26	293.03
659.452	227.5
659.644	327.85
659.836	297.13
660.028	282.79
660.22	200.87
660.412	305.32
660.604	190.63
660.796	149.67
660.988	282.79
661.18	157.86
661.372	221.35
661.563	125.1
661.755	209.06
661.947	80.04
662.139	104.62
662.331	149.67
662.522	192.68
662.714	84.14
662.906	170.15
663.097	247.97
663.289	170.15
663.481	84.14
663.673	151.72
663.864	141.48
664.056	237.74
664.247	102.57
664.439	149.67
664.631	153.77
664.822	225.45
665.014	176.3
665.205	69.8
665.397	143.53
665.588	135.34
665.78	61.61
665.971	196.78
666.163	127.14
666.354	178.34
666.546	106.67
666.737	145.58
666.929	164.01
667.12	188.58
667.311	233.64
667.503	112.81
667.694	247.97
667.885	180.39
668.077	114.86
668.268	77.99
668.459	133.29
668.651	129.19
668.842	174.25
669.033	71.85
669.224	94.38
669.416	389.28
669.607	139.43
669.798	92.33
669.989	258.21
670.18	161.96
670.371	161.96
670.563	96.43
670.754	241.83
670.945	213.16
671.136	270.5
671.327	84.14
671.518	198.82
671.709	239.78
671.9	252.07
672.091	227.5
672.282	151.72
672.473	161.96
672.664	147.62
672.855	121
673.046	184.49
673.237	190.63
673.428	174.25
673.619	241.83
673.809	108.71
674	286.89
674.191	153.77
674.382	155.82
674.573	178.34
674.764	161.96
674.954	252.07
675.145	145.58
675.336	137.38
675.527	194.73
675.717	172.2
675.908	250.02
676.099	114.86
676.289	188.58
676.48	125.1
676.671	129.19
676.861	204.97
677.052	241.83
677.243	172.2
677.433	174.25
677.624	303.27
677.814	211.11
678.005	143.53
678.195	274.6
678.386	211.11
678.576	188.58
678.767	172.2
678.957	151.72
679.148	241.83
679.338	278.69
679.529	295.08
679.719	225.45
679.909	266.41
680.1	323.75
680.29	319.65
680.481	161.96
680.671	250.02
680.861	342.18
681.052	247.97
681.242	256.17
681.432	299.17
681.622	295.08
681.813	219.3
682.003	223.4
682.193	188.58
682.383	303.27
682.573	254.12
682.764	233.64
682.954	370.85
683.144	301.22
683.334	282.79
683.524	268.45
683.714	323.75
683.904	340.13
684.094	237.74
684.284	309.41
684.474	381.09
684.664	395.43
684.854	364.71
685.044	336.04
685.234	245.93
685.424	293.03
685.614	174.25
685.804	401.57
685.994	309.41
686.184	309.41
686.374	264.36
686.564	409.76
686.753	303.27
686.943	184.49
687.133	309.41
687.323	336.04
687.513	344.23
687.702	305.32
687.892	272.55
688.082	450.72
688.272	411.81
688.461	350.37
688.651	452.77
688.841	389.28
689.03	272.55
689.22	368.81
689.41	321.7
689.599	327.85
689.789	340.13
689.979	460.96
690.168	301.22
690.358	377
690.547	413.86
690.737	270.5
690.926	325.8
691.116	366.76
691.305	340.13
691.495	422.05
691.684	264.36
691.874	311.46
692.063	295.08
692.252	407.72
692.442	381.09
692.631	303.27
692.82	305.32
693.01	276.65
693.199	247.97
693.388	356.52
693.578	333.99
693.767	399.52
693.956	456.87
694.146	284.84
694.335	385.19
694.524	333.99
694.713	469.16
694.902	319.65
695.092	309.41
695.281	397.48
695.47	329.89
695.659	315.56
695.848	256.17
696.037	311.46
696.226	350.37
696.415	260.26
696.604	479.4
696.793	385.19
696.982	256.17
697.171	411.81
697.36	385.19
697.549	346.28
697.738	157.86
697.927	319.65
698.116	252.07
698.305	383.14
698.494	374.95
698.683	276.65
698.872	450.72
699.061	315.56
699.25	254.12
699.438	309.41
699.627	274.6
699.816	501.92
700.005	174.25
700.193	293.03
700.382	401.57
700.571	352.42
700.76	385.19
700.948	381.09
701.137	379.04
701.326	438.44
701.514	250.02
701.703	362.66
701.892	295.08
702.08	446.63
702.269	403.62
702.457	282.79
702.646	342.18
702.834	323.75
703.023	325.8
703.212	362.66
703.4	313.51
703.589	299.17
703.777	346.28
703.965	315.56
704.154	227.5
704.342	231.59
704.531	305.32
704.719	329.89
704.907	399.52
705.096	207.02
705.284	270.5
705.472	315.56
705.661	395.43
705.849	372.9
706.037	473.25
706.226	340.13
706.414	309.41
706.602	297.13
706.79	393.38
706.979	293.03
707.167	317.61
707.355	182.44
707.543	323.75
707.731	397.48
707.919	307.37
708.107	286.89
708.296	288.93
708.484	174.25
708.672	366.76
708.86	319.65
709.048	379.04
709.236	258.21
709.424	338.09
709.612	428.2
709.8	264.36
709.988	278.69
710.176	397.48
710.364	362.66
710.551	270.5
710.739	250.02
710.927	223.4
711.115	344.23
711.303	319.65
711.491	377
711.679	264.36
711.866	358.57
712.054	280.74
712.242	399.52
712.43	311.46
712.617	301.22
712.805	350.37
712.993	383.14
713.181	207.02
713.368	399.52
713.556	290.98
713.744	278.69
713.931	471.2
714.119	338.09
714.306	282.79
714.494	372.9
714.682	340.13
714.869	190.63
715.057	313.51
715.244	198.82
715.432	362.66
715.619	262.31
715.807	317.61
715.994	276.65
716.182	311.46
716.369	473.25
716.556	344.23
716.744	252.07
716.931	288.93
717.119	411.81
717.306	278.69
717.493	434.34
717.681	317.61
717.868	284.84
718.055	383.14
718.242	260.26
718.43	364.71
718.617	415.91
718.804	325.8
718.991	377
719.179	389.28
719.366	319.65
719.553	362.66
719.74	313.51
719.927	323.75
720.114	362.66
720.301	274.6
720.488	295.08
720.676	209.06
720.863	499.88
721.05	544.93
721.237	362.66
721.424	483.49
721.611	331.94
721.798	235.69
721.985	252.07
722.172	278.69
722.358	350.37
722.545	460.96
722.732	348.33
722.919	530.59
723.106	381.09
723.293	387.24
723.48	391.33
723.667	299.17
723.853	434.34
724.04	397.48
724.227	450.72
724.414	348.33
724.6	391.33
724.787	463.01
724.974	532.64
725.161	307.37
725.347	350.37
725.534	366.76
725.72	489.64
725.907	483.49
726.094	381.09
726.28	303.27
726.467	336.04
726.653	293.03
726.84	485.54
727.027	538.79
727.213	389.28
727.4	473.25
727.586	430.24
727.773	374.95
727.959	315.56
728.145	381.09
728.332	297.13
728.518	315.56
728.705	377
728.891	409.76
729.077	450.72
729.264	309.41
729.45	395.43
729.636	417.96
729.823	379.04
730.009	512.16
730.195	307.37
730.382	411.81
730.568	364.71
730.754	458.92
730.94	407.72
731.126	442.53
731.313	471.2
731.499	399.52
731.685	491.68
731.871	428.2
732.057	448.68
732.243	422.05
732.429	411.81
732.615	575.65
732.801	458.92
732.987	389.28
733.173	463.01
733.359	409.76
733.545	460.96
733.731	413.86
733.917	469.16
734.103	362.66
734.289	434.34
734.475	397.48
734.661	553.12
734.847	446.63
735.033	422.05
735.219	499.88
735.404	495.78
735.59	397.48
735.776	352.42
735.962	460.96
736.148	411.81
736.333	456.87
736.519	477.35
736.705	489.64
736.89	411.81
737.076	364.71
737.262	372.9
737.447	397.48
737.633	344.23
737.819	422.05
738.004	407.72
738.19	370.85
738.375	456.87
738.561	485.54
738.747	479.4
738.932	346.28
739.118	510.11
739.303	522.4
739.489	514.21
739.674	368.81
739.859	309.41
740.045	465.06
740.23	415.91
740.416	217.26
740.601	409.76
740.786	450.72
740.972	352.42
741.157	374.95
741.342	364.71
741.528	413.86
741.713	491.68
741.898	407.72
742.084	415.91
742.269	407.72
742.454	442.53
742.639	493.73
742.824	430.24
743.01	559.27
743.195	555.17
743.38	430.24
743.565	346.28
743.75	432.29
743.935	485.54
744.12	440.48
744.305	323.75
744.49	372.9
744.675	346.28
744.86	331.94
745.045	483.49
745.23	487.59
745.415	426.15
745.6	530.59
745.785	372.9
745.97	487.59
746.155	489.64
746.34	436.39
746.525	436.39
746.71	446.63
746.895	290.98
747.079	346.28
747.264	350.37
747.449	479.4
747.634	389.28
747.819	434.34
748.003	368.81
748.188	331.94
748.373	403.62
748.557	426.15
748.742	327.85
748.927	331.94
749.111	323.75
749.296	348.33
749.481	456.87
749.665	331.94
749.85	288.93
750.034	417.96
750.219	428.2
750.404	245.93
750.588	258.21
750.773	286.89
750.957	333.99
751.141	366.76
751.326	458.92
751.51	303.27
751.695	364.71
751.879	346.28
752.064	420
752.248	325.8
752.432	508.07
752.617	415.91
752.801	377
752.985	307.37
753.17	409.76
753.354	383.14
753.538	389.28
753.722	268.45
753.907	270.5
754.091	272.55
754.275	377
754.459	188.58
754.643	305.32
754.828	389.28
755.012	286.89
755.196	239.78
755.38	274.6
755.564	266.41
755.748	217.26
755.932	377
756.116	346.28
756.3	311.46
756.484	225.45
756.668	264.36
756.852	143.53
757.036	293.03
757.22	231.59
757.404	217.26
757.588	276.65
757.772	348.33
757.956	196.78
758.14	424.1
758.323	155.82
758.507	286.89
758.691	223.4
758.875	336.04
759.059	311.46
759.242	149.67
759.426	211.11
759.61	303.27
759.794	258.21
759.977	264.36
760.161	426.15
760.345	323.75
760.528	319.65
760.712	225.45
760.895	252.07
761.079	221.35
761.263	166.06
761.446	121
761.63	168.1
761.813	276.65
761.997	155.82
762.18	229.54
762.364	268.45
762.547	41.13
762.731	164.01
762.914	250.02
763.098	149.67
763.281	164.01
763.464	223.4
763.648	215.21
763.831	186.54
764.015	166.06
764.198	336.04
764.381	121
764.564	190.63
764.748	223.4
764.931	92.33
765.114	207.02
765.297	286.89
765.481	159.91
765.664	202.92
765.847	153.77
766.03	260.26
766.213	108.71
766.397	217.26
766.58	121
766.763	202.92
766.946	77.99
767.129	127.14
767.312	143.53
767.495	178.34
767.678	184.49
767.861	178.34
768.044	164.01
768.227	204.97
768.41	211.11
768.593	172.2
768.776	131.24
768.959	176.3
769.142	254.12
769.324	151.72
769.507	141.48
769.69	182.44
769.873	123.05
770.056	336.04
770.239	155.82
770.421	180.39
770.604	209.06
770.787	94.38
770.97	135.34
771.152	116.9
771.335	184.49
771.518	125.1
771.7	164.01
771.883	241.83
772.066	137.38
772.248	168.1
772.431	178.34
772.613	88.23
772.796	108.71
772.978	207.02
773.161	194.73
773.343	168.1
773.526	98.47
773.708	28.84
773.891	67.75
774.073	143.53
774.256	96.43
774.438	309.41
774.621	88.23
774.803	135.34
774.985	104.62
775.168	135.34
775.35	106.67
775.532	104.62
775.715	57.51
775.897	41.13
776.079	67.75
776.261	161.96
776.444	118.95
776.626	153.77
776.808	108.71
776.99	37.03
777.173	131.24
777.355	28.84
777.537	112.81
777.719	159.91
777.901	121
778.083	112.81
778.265	20.65
778.447	121
778.629	59.56
778.811	141.48
778.993	170.15
779.175	157.86
779.357	155.82
779.539	32.94
779.721	114.86
779.903	147.62
780.085	30.89
780.267	164.01
780.449	-3.93
780.631	84.14
780.812	180.39
780.994	32.94
781.176	51.37
781.358	80.04
781.54	143.53
781.721	114.86
781.903	34.99
782.085	49.32
782.267	131.24
782.448	-24.4
782.63	34.99
782.812	118.95
782.993	129.19
783.175	176.3
783.357	26.79
783.538	67.75
783.72	28.84
783.901	53.42
784.083	96.43
784.264	-12.12
784.446	-91.99
784.627	8.36
784.809	57.51
784.99	55.47
785.172	100.52
785.353	77.99
785.535	55.47
785.716	80.04
785.897	-24.4
786.079	20.65
786.26	30.89
786.441	88.23
786.623	-83.8
786.804	16.55
786.985	-1.88
787.167	139.43
787.348	-24.4
787.529	77.99
787.71	237.74
787.891	71.85
788.073	-67.41
788.254	-75.6
788.435	207.02
788.616	39.08
788.797	-53.08
788.978	-5.97
789.159	67.75
789.34	30.89
789.522	41.13
789.703	-38.74
789.884	-42.84
790.065	116.9
790.246	137.38
790.427	-61.27
790.607	129.19
790.788	75.95
790.969	-20.31
791.15	108.71
791.331	-18.26
791.512	-20.31
791.693	-141.14
791.874	-79.7
792.054	209.06
792.235	73.9
792.416	-89.94
792.597	-30.55
792.778	123.05
792.958	73.9
793.139	114.86
793.32	75.95
793.5	-44.88
793.681	121
793.862	73.9
794.042	20.65
794.223	-22.36
794.404	-24.4
794.584	-102.23
794.765	41.13
794.945	12.46
795.126	77.99
795.306	141.48
795.487	-28.5
795.667	67.75
795.848	47.27
796.028	125.1
796.209	28.84
796.389	92.33
796.57	47.27
796.75	-44.88
796.93	-1.88
797.111	28.84
797.291	-24.4
797.471	18.6
797.652	-38.74
797.832	0.17
798.012	90.28
798.192	37.03
798.373	-30.55
798.553	-20.31
798.733	80.04
798.913	-46.93
799.093	14.51
799.274	32.94
799.454	164.01
799.634	104.62
799.814	112.81
799.994	131.24
800.174	80.04
800.354	45.23
800.534	-57.17
800.714	61.61
800.894	10.41
801.074	-14.17
801.254	-67.41
801.434	159.91
801.614	14.51
801.794	-67.41
801.974	1767.57
802.154	20.65
802.334	86.19
802.514	-22.36
802.693	-18.26
802.873	-28.5
803.053	80.04
803.233	86.19
803.413	-14.17
803.592	22.7
803.772	-53.08
803.952	-30.55
804.131	22.7
804.311	86.19
804.491	57.51
804.67	-3.93
804.85	-69.46
805.03	-1.88
805.209	86.19
805.389	6.31
805.568	-28.5
805.748	-20.31
805.928	4.27
806.107	12.46
806.287	84.14
806.466	-30.55
806.646	8.36
806.825	43.18
807.004	0.17
807.184	59.56
807.363	67.75
807.543	-8.02
807.722	-42.84
807.901	-3.93
808.081	80.04
808.26	-110.42
808.439	80.04
808.619	57.51
808.798	32.94
808.977	86.19
809.156	108.71
809.336	34.99
809.515	123.05
809.694	-106.32
809.873	-26.45
810.052	61.61
810.231	123.05
810.411	32.94
810.59	84.14
810.769	-1.88
810.948	94.38
811.127	-104.28
811.306	18.6
811.485	-57.17
811.664	118.95
811.843	-12.12
812.022	2.22
812.201	-30.55
812.38	-40.79
812.559	-53.08
812.737	8.36
812.916	-53.08
813.095	8.36
813.274	32.94
813.453	-24.4
813.632	65.71
813.811	94.38
813.989	-110.42
814.168	-1.88
814.347	-110.42
814.526	-57.17
814.704	166.06
814.883	75.95
815.062	-126.8
815.24	28.84
815.419	-85.84
815.598	98.47
815.776	-91.99
815.955	-73.56
816.133	-89.94
816.312	80.04
816.49	0.17
816.669	-8.02
816.847	6.31
817.026	69.8
817.204	-75.6
817.383	-18.26
817.561	-61.27
817.74	-3.93
817.918	118.95
818.097	-3.93
818.275	-42.84
818.453	22.7
818.632	63.66
818.81	-38.74
818.988	-5.97
819.167	-65.36
819.345	45.23
819.523	6.31
819.701	39.08
819.879	8.36
820.058	39.08
820.236	26.79
820.414	10.41
820.592	0.17
820.77	45.23
820.948	-55.12
821.127	-12.12
821.305	63.66
821.483	-120.66
821.661	98.47
821.839	2.22
822.017	-22.36
822.195	-18.26
822.373	-42.84
822.551	20.65
822.729	125.1
822.907	-40.79
823.085	94.38
823.262	63.66
823.44	-73.56
823.618	-61.27
823.796	-100.18
823.974	-26.45
824.152	-18.26
824.329	4.27
824.507	12.46
824.685	77.99
824.863	-26.45
825.04	-55.12
825.218	32.94
825.396	0.17
825.574	28.84
825.751	63.66
825.929	14.51
826.107	-61.27
826.284	-53.08
826.462	12.46
826.639	-73.56
826.817	-65.36
826.994	-10.07
827.172	-178
827.349	80.04
827.527	-5.97
827.704	37.03
827.882	121
828.059	0.17
828.237	-112.47
828.414	57.51
828.591	-110.42
828.769	22.7
828.946	-77.65
829.124	59.56
829.301	59.56
829.478	-61.27
829.655	67.75
829.833	-36.69
830.01	-153.43
830.187	47.27
830.364	-102.23
830.542	12.46
830.719	49.32
830.896	47.27
831.073	-14.17
831.25	43.18
831.427	10.41
831.604	-55.12
831.782	-55.12
831.959	51.37
832.136	-61.27
832.313	-44.88
832.49	-75.6
832.667	26.79
832.844	-63.32
833.021	96.43
833.198	0.17
833.374	-51.03
833.551	26.79
833.728	-48.98
833.905	94.38
834.082	-110.42
834.259	28.84
834.436	55.47
834.612	-100.18
834.789	57.51
834.966	2.22
835.143	0.17
835.319	-85.84
835.496	14.51
835.673	-22.36
835.85	96.43
836.026	10.41
836.203	43.18
836.38	-16.21
836.556	-3.93
836.733	-24.4
836.909	69.8
837.086	-3.93
837.262	-61.27
837.439	-30.55
837.616	-124.76
837.792	8.36
837.968	-12.12
838.145	-63.32
838.321	-5.97
838.498	10.41
838.674	67.75
838.851	26.79
839.027	-8.02
839.203	71.85
839.38	32.94
839.556	8.36
839.732	16.55
839.909	12.46
840.085	100.52
840.261	-81.75
840.437	75.95
840.614	-24.4
840.79	104.62
840.966	-1.88
841.142	-14.17
841.318	-77.65
841.494	-12.12
841.671	28.84
841.847	0.17
842.023	-71.51
842.199	51.37
842.375	123.05
842.551	-120.66
842.727	-79.7
842.903	77.99
843.079	-67.41
843.255	59.56
843.431	-83.8
843.607	32.94
843.783	-184.15
843.959	22.7
844.134	-87.89
844.31	192.68
844.486	-16.21
844.662	-32.6
844.838	-51.03
845.013	-69.46
845.189	41.13
845.365	-32.6
845.541	-100.18
845.716	-42.84
845.892	67.75
846.068	-65.36
846.244	-3.93
846.419	22.7
846.595	-63.32
846.77	-1.88
846.946	147.62
847.122	-40.79
847.297	-30.55
847.473	77.99
847.648	-98.13
847.824	-40.79
847.999	-89.94
848.175	-46.93
848.35	-12.12
848.526	0.17
848.701	63.66
848.876	53.42
849.052	49.32
849.227	-20.31
849.403	-73.56
849.578	16.55
849.753	69.8
849.929	-1.88
850.104	-51.03
850.279	-1.88
850.454	22.7
850.63	71.85
850.805	-12.12
850.98	-42.84
851.155	-42.84
851.33	49.32
851.505	-30.55
851.681	86.19
851.856	-137.04
852.031	69.8
852.206	-16.21
852.381	-38.74
852.556	-75.6
852.731	-16.21
852.906	59.56
853.081	-24.4
853.256	96.43
853.431	-14.17
853.606	-81.75
853.781	-65.36
853.956	-161.62
854.131	-16.21
854.305	-22.36
854.48	10.41
854.655	-122.71
854.83	-28.5
855.005	-110.42
855.18	-26.45
855.354	8.36
855.529	45.23
855.704	-42.84
855.879	8.36
856.053	-151.38
856.228	-34.64
856.403	-71.51
856.577	26.79
856.752	-165.71
856.926	0.17
857.101	67.75
857.276	-67.41
857.45	-40.79
857.625	49.32
857.799	12.46
857.974	8.36
858.148	-130.9
858.323	-55.12
858.497	34.99
858.672	-153.43
858.846	-77.65
859.02	-12.12
859.195	-96.08
859.369	-36.69
859.543	-36.69
859.718	-51.03
859.892	4.27
860.066	-22.36
860.241	-106.32
860.415	-1.88
860.589	-24.4
860.763	2.22
860.938	-36.69
861.112	24.75
861.286	-3.93
861.46	20.65
861.634	-77.65
861.808	125.1
861.982	-42.84
862.157	-200.53
862.331	-40.79
862.505	-143.19
862.679	-147.28
862.853	-96.08
863.027	-100.18
863.201	106.67
863.375	-38.74
863.549	39.08
863.722	18.6
863.896	2.22
864.07	-79.7
864.244	22.7
864.418	51.37
864.592	-40.79
864.766	-53.08
864.939	-79.7
865.113	-69.46
865.287	20.65
865.461	-94.04
865.634	2.22
865.808	20.65
865.982	8.36
866.156	-1.88
866.329	-116.56
866.503	-14.17
866.676	53.42
866.85	37.03
867.024	-65.36
867.197	37.03
867.371	37.03
867.544	8.36
867.718	-42.84
867.891	77.99
868.065	-102.23
868.238	28.84
868.412	53.42
868.585	6.31
868.759	-77.65
868.932	-46.93
869.105	-130.9
869.279	14.51
869.452	-98.13
869.625	61.61
869.799	-18.26
869.972	-55.12
870.145	-26.45
870.319	104.62
870.492	-36.69
870.665	-46.93
870.838	-48.98
871.011	-149.33
871.185	-34.64
871.358	-51.03
871.531	-3.93
871.704	-42.84
871.877	-24.4
872.05	-12.12
872.223	-104.28
872.396	116.9
872.569	32.94
872.742	-22.36
872.915	45.23
873.088	-73.56
873.261	-141.14
873.434	16.55
873.607	2.22
873.78	-44.88
873.953	-73.56
874.126	-32.6
874.299	71.85
874.471	-5.97
874.644	4.27
874.817	108.71
874.99	213.16
875.163	-42.84
875.335	14.51
875.508	41.13
875.681	-63.32
875.853	-96.08
876.026	55.47
876.199	43.18
876.371	18.6
876.544	-69.46
876.717	4.27
876.889	20.65
877.062	53.42
877.234	-81.75
877.407	-118.61
877.579	-3.93
877.752	10.41
877.924	24.75
878.097	-16.21
878.269	16.55
878.442	30.89
878.614	88.23
878.786	-42.84
878.959	-16.21
879.131	-100.18
879.303	-182.1
879.476	-89.94
879.648	90.28
879.82	-14.17
879.993	-55.12
880.165	-51.03
880.337	-180.05
880.509	63.66
880.681	-18.26
880.854	-77.65
881.026	-1.88
881.198	32.94
881.37	-16.21
881.542	28.84
881.714	-120.66
881.886	77.99
882.058	-16.21
882.23	-18.26
882.402	14.51
882.574	-12.12
882.746	75.95
882.918	30.89
883.09	10.41
883.262	-77.65
883.434	-14.17
883.606	-108.37
883.778	-71.51
883.95	39.08
884.122	-8.02
884.293	55.47
884.465	-18.26
884.637	53.42
884.809	-85.84
884.98	-61.27
885.152	12.46
885.324	34.99
885.496	-128.85
885.667	-34.64
885.839	65.71
886.011	88.23
886.182	-24.4
886.354	30.89
886.525	18.6
886.697	43.18
886.869	-18.26
887.04	-102.23
887.212	53.42
887.383	110.76
887.555	-24.4
887.726	-38.74
887.897	-53.08
888.069	10.41
888.24	-48.98
888.412	-96.08
888.583	39.08
888.754	-36.69
888.926	-169.81
889.097	-38.74
889.268	-94.04
889.44	-71.51
889.611	-124.76
889.782	-36.69
889.953	-96.08
890.125	82.09
890.296	-83.8
890.467	-18.26
890.638	-44.88
890.809	43.18
890.98	-102.23
891.151	-38.74
891.323	84.14
891.494	-20.31
891.665	-42.84
891.836	-16.21
892.007	22.7
892.178	20.65
892.349	-38.74
892.52	-94.04
892.691	-30.55
892.862	-153.43
893.032	-175.95
893.203	-36.69
893.374	26.79
893.545	63.66
893.716	-12.12
893.887	24.75
894.057	-79.7
894.228	-42.84
894.399	-65.36
894.57	61.61
894.74	-120.66
894.911	-14.17
895.082	-20.31
895.253	-104.28
895.423	-34.64
895.594	-10.07
895.764	84.14
895.935	-126.8
896.106	-87.89
896.276	-118.61
896.447	-20.31
896.617	4.27
896.788	-87.89
896.958	-44.88
897.129	-26.45
897.299	-34.64
897.47	57.51
897.64	6.31
897.81	-73.56
897.981	20.65
898.151	-143.19
898.322	-3.93
898.492	-24.4
898.662	-40.79
898.832	-102.23
899.003	-98.13
899.173	51.37
899.343	-108.37
899.513	-151.38
