Data from USB4F104151__8__11-24-18-108.txt Node

Date: Wed Feb 26 11:24:18 EST 2025
User: louis
Spectrometer: USB4F10415
Trigger mode: 4
Integration Time (sec): 1.000000E-1
Scans to average: 1
Electric dark correction enabled: true
Nonlinearity correction enabled: false
Boxcar width: 0
XAxis mode: Wavelengths
Number of Pixels in Spectrum: 3648
>>>>>Begin Spectral Data<<<<<
178.204	-437.92
178.424	-437.92
178.644	-437.92
178.864	-435.88
179.084	-413.35
179.304	-7.85
179.524	0.34
179.744	18.77
179.964	45.4
180.184	43.35
180.404	-3.75
180.624	-26.28
180.844	-34.47
181.064	-30.38
181.283	24.92
181.503	-50.86
181.723	20.82
181.943	-48.81
182.163	170.32
182.383	-44.71
182.602	51.54
182.822	104.79
183.042	31.06
183.262	-16.04
183.482	35.16
183.701	-44.71
183.921	80.21
184.141	-61.1
184.361	98.64
184.58	67.92
184.8	18.77
185.02	16.73
185.239	104.79
185.459	35.16
185.679	123.22
185.898	-149.16
186.118	88.4
186.338	2.39
186.557	102.74
186.777	-120.49
186.997	4.44
187.216	14.68
187.436	219.47
187.655	102.74
187.875	0.34
188.095	78.16
188.314	117.08
188.534	63.83
188.753	-75.43
188.973	123.22
189.192	207.19
189.412	80.21
189.631	43.35
189.851	94.55
190.07	160.08
190.29	-28.33
190.509	-18.09
190.729	100.69
190.948	133.46
191.168	180.56
191.387	94.55
191.607	49.49
191.826	37.2
192.045	86.36
192.265	84.31
192.484	110.93
192.704	-13.99
192.923	-13.99
193.142	176.47
193.362	67.92
193.581	219.47
193.8	45.4
194.02	92.5
194.239	104.79
194.458	67.92
194.678	-5.8
194.897	-9.9
195.116	47.44
195.335	92.5
195.555	29.01
195.774	-5.8
195.993	125.27
196.212	0.34
196.432	-11.95
196.651	-42.67
196.87	-24.23
197.089	229.71
197.308	-7.85
197.528	112.98
197.747	20.82
197.966	-30.38
198.185	86.36
198.404	-63.15
198.623	80.21
198.842	98.64
199.062	82.26
199.281	104.79
199.5	-30.38
199.719	49.49
199.938	110.93
200.157	123.22
200.376	170.32
200.595	24.92
200.814	86.36
201.033	-63.15
201.252	108.88
201.471	119.12
201.69	123.22
201.909	26.96
202.128	244.05
202.347	110.93
202.566	106.84
202.785	-85.67
203.004	-46.76
203.223	242
203.442	-13.99
203.661	10.58
203.879	69.97
204.098	72.02
204.317	-85.67
204.536	31.06
204.755	112.98
204.974	158.03
205.193	-7.85
205.411	84.31
205.63	86.36
205.849	31.06
206.068	2.39
206.287	-7.85
206.505	127.32
206.724	84.31
206.943	8.53
207.162	-22.19
207.381	108.88
207.599	47.44
207.818	0.34
208.037	-22.19
208.255	74.07
208.474	100.69
208.693	59.73
208.911	-1.71
209.13	80.21
209.349	90.45
209.567	96.6
209.786	43.35
210.005	74.07
210.223	59.73
210.442	-104.11
210.661	-5.8
210.879	55.64
211.098	37.2
211.316	31.06
211.535	115.03
211.753	104.79
211.972	69.97
212.191	22.87
212.409	39.25
212.628	80.21
212.846	-54.95
213.065	57.68
213.283	151.89
213.502	110.93
213.72	35.16
213.938	47.44
214.157	49.49
214.375	96.6
214.594	94.55
214.812	14.68
215.031	-22.19
215.249	41.3
215.467	-5.8
215.686	-1.71
215.904	65.88
216.122	10.58
216.341	100.69
216.559	76.12
216.778	125.27
216.996	112.98
217.214	24.92
217.432	-11.95
217.651	-50.86
217.869	24.92
218.087	16.73
218.306	-65.19
218.524	24.92
218.742	33.11
218.96	74.07
219.179	45.4
219.397	-5.8
219.615	237.91
219.833	-5.8
220.051	-44.71
220.27	51.54
220.488	133.46
220.706	8.53
220.924	-100.01
221.142	-40.62
221.36	131.41
221.578	108.88
221.796	43.35
222.015	-24.23
222.233	74.07
222.451	137.56
222.669	-28.33
222.887	47.44
223.105	-30.38
223.323	24.92
223.541	-89.77
223.759	35.16
223.977	72.02
224.195	67.92
224.413	82.26
224.631	117.08
224.849	-9.9
225.067	190.8
225.285	10.58
225.503	-36.52
225.721	-57
225.939	63.83
226.157	57.68
226.375	172.37
226.592	-67.24
226.81	-7.85
227.028	153.94
227.246	145.75
227.464	22.87
227.682	108.88
227.9	106.84
228.117	104.79
228.335	35.16
228.553	10.58
228.771	41.3
228.989	51.54
229.206	-3.75
229.424	8.53
229.642	-54.95
229.86	-36.52
230.077	158.03
230.295	61.78
230.513	108.88
230.731	158.03
230.948	174.42
231.166	174.42
231.384	-75.43
231.601	-87.72
231.819	149.84
232.037	10.58
232.254	-30.38
232.472	2.39
232.689	16.73
232.907	74.07
233.125	24.92
233.342	-42.67
233.56	37.2
233.777	-22.19
233.995	0.34
234.213	84.31
234.43	141.65
234.648	92.5
234.865	47.44
235.083	115.03
235.3	76.12
235.518	102.74
235.735	137.56
235.953	76.12
236.17	74.07
236.388	22.87
236.605	0.34
236.822	104.79
237.04	92.5
237.257	35.16
237.475	-50.86
237.692	104.79
237.909	39.25
238.127	84.31
238.344	51.54
238.562	92.5
238.779	-75.43
238.996	14.68
239.214	84.31
239.431	125.27
239.648	-9.9
239.865	176.47
240.083	74.07
240.3	20.82
240.517	53.59
240.735	-65.19
240.952	121.17
241.169	67.92
241.386	94.55
241.603	37.2
241.821	-59.05
242.038	76.12
242.255	92.5
242.472	-102.06
242.689	164.18
242.907	41.3
243.124	47.44
243.341	-52.91
243.558	39.25
243.775	-7.85
243.992	-44.71
244.209	41.3
244.426	186.71
244.643	35.16
244.86	53.59
245.078	106.84
245.295	-5.8
245.512	14.68
245.729	-7.85
245.946	96.6
246.163	26.96
246.38	35.16
246.597	104.79
246.814	115.03
247.031	45.4
247.248	45.4
247.464	76.12
247.681	0.34
247.898	10.58
248.115	41.3
248.332	0.34
248.549	115.03
248.766	78.16
248.983	133.46
249.2	69.97
249.417	80.21
249.633	-1.71
249.85	98.64
250.067	90.45
250.284	61.78
250.501	92.5
250.717	104.79
250.934	-114.34
251.151	24.92
251.368	104.79
251.585	63.83
251.801	55.64
252.018	-24.23
252.235	78.16
252.451	-26.28
252.668	29.01
252.885	31.06
253.102	69.97
253.318	22.87
253.535	-24.23
253.752	14.68
253.968	6.49
254.185	-50.86
254.401	59.73
254.618	45.4
254.835	-69.29
255.051	108.88
255.268	141.65
255.484	137.56
255.701	2.39
255.917	49.49
256.134	0.34
256.351	59.73
256.567	-7.85
256.784	-5.8
257	-57
257.217	88.4
257.433	115.03
257.65	41.3
257.866	106.84
258.082	-1.71
258.299	-1.71
258.515	61.78
258.732	67.92
258.948	24.92
259.165	102.74
259.381	0.34
259.597	80.21
259.814	24.92
260.03	86.36
260.246	41.3
260.463	174.42
260.679	155.99
260.895	112.98
261.112	104.79
261.328	-11.95
261.544	-32.43
261.761	196.95
261.977	18.77
262.193	-87.72
262.409	59.73
262.626	-3.75
262.842	2.39
263.058	-24.23
263.274	92.5
263.49	102.74
263.707	131.41
263.923	29.01
264.139	-79.53
264.355	69.97
264.571	69.97
264.787	55.64
265.004	57.68
265.22	41.3
265.436	31.06
265.652	16.73
265.868	67.92
266.084	-63.15
266.3	29.01
266.516	-50.86
266.732	61.78
266.948	92.5
267.164	-5.8
267.38	80.21
267.596	-9.9
267.812	194.9
268.028	53.59
268.244	14.68
268.46	33.11
268.676	24.92
268.892	24.92
269.108	24.92
269.324	-73.39
269.54	-44.71
269.756	112.98
269.972	-20.14
270.188	39.25
270.403	-73.39
270.619	-16.04
270.835	61.78
271.051	72.02
271.267	-36.52
271.483	67.92
271.698	121.17
271.914	63.83
272.13	57.68
272.346	-42.67
272.562	-24.23
272.777	158.03
272.993	-18.09
273.209	14.68
273.425	72.02
273.64	-26.28
273.856	125.27
274.072	-24.23
274.287	2.39
274.503	63.83
274.719	72.02
274.934	37.2
275.15	29.01
275.366	39.25
275.581	-73.39
275.797	-13.99
276.012	22.87
276.228	4.44
276.444	6.49
276.659	129.36
276.875	22.87
277.09	-24.23
277.306	-24.23
277.521	76.12
277.737	41.3
277.952	29.01
278.168	51.54
278.383	-28.33
278.599	82.26
278.814	84.31
279.03	20.82
279.245	188.75
279.461	-34.47
279.676	121.17
279.892	-54.95
280.107	-69.29
280.322	-5.8
280.538	-22.19
280.753	-34.47
280.969	129.36
281.184	35.16
281.399	141.65
281.615	-9.9
281.83	61.78
282.045	-59.05
282.26	-50.86
282.476	6.49
282.691	119.12
282.906	35.16
283.122	174.42
283.337	29.01
283.552	88.4
283.767	14.68
283.983	90.45
284.198	-3.75
284.413	59.73
284.628	-65.19
284.843	59.73
285.058	22.87
285.274	74.07
285.489	-11.95
285.704	57.68
285.919	24.92
286.134	63.83
286.349	-5.8
286.564	-13.99
286.779	160.08
286.995	-36.52
287.21	-65.19
287.425	39.25
287.64	-20.14
287.855	108.88
288.07	-63.15
288.285	147.8
288.5	49.49
288.715	80.21
288.93	-5.8
289.145	-59.05
289.36	96.6
289.575	-20.14
289.79	133.46
290.004	-65.19
290.219	78.16
290.434	-9.9
290.649	-3.75
290.864	-40.62
291.079	-9.9
291.294	12.63
291.509	-11.95
291.724	-9.9
291.938	31.06
292.153	94.55
292.368	-34.47
292.583	51.54
292.798	63.83
293.012	26.96
293.227	61.78
293.442	-22.19
293.657	39.25
293.871	145.75
294.086	24.92
294.301	196.95
294.516	90.45
294.73	31.06
294.945	-81.58
295.16	4.44
295.374	137.56
295.589	153.94
295.804	18.77
296.018	37.2
296.233	98.64
296.447	-26.28
296.662	-9.9
296.877	102.74
297.091	16.73
297.306	18.77
297.52	100.69
297.735	74.07
297.949	0.34
298.164	20.82
298.378	24.92
298.593	2.39
298.807	-61.1
299.022	-9.9
299.236	125.27
299.451	26.96
299.665	31.06
299.88	8.53
300.094	39.25
300.309	18.77
300.523	94.55
300.737	20.82
300.952	8.53
301.166	26.96
301.381	-20.14
301.595	-61.1
301.809	106.84
302.024	33.11
302.238	4.44
302.452	59.73
302.667	76.12
302.881	198.99
303.095	74.07
303.309	4.44
303.524	-18.09
303.738	-3.75
303.952	-7.85
304.166	94.55
304.381	-69.29
304.595	121.17
304.809	80.21
305.023	-32.43
305.237	2.39
305.452	72.02
305.666	45.4
305.88	149.84
306.094	84.31
306.308	139.6
306.522	88.4
306.736	37.2
306.95	16.73
307.164	-40.62
307.379	-40.62
307.593	162.13
307.807	131.41
308.021	121.17
308.235	20.82
308.449	-54.95
308.663	33.11
308.877	213.33
309.091	31.06
309.305	158.03
309.519	-24.23
309.733	117.08
309.947	2.39
310.161	117.08
310.374	96.6
310.588	129.36
310.802	-34.47
311.016	-38.57
311.23	115.03
311.444	-24.23
311.658	10.58
311.872	119.12
312.085	121.17
312.299	172.37
312.513	92.5
312.727	37.2
312.941	-89.77
313.154	74.07
313.368	-50.86
313.582	37.2
313.796	100.69
314.009	92.5
314.223	59.73
314.437	90.45
314.651	41.3
314.864	-50.86
315.078	86.36
315.292	-69.29
315.505	14.68
315.719	123.22
315.933	59.73
316.146	-26.28
316.36	0.34
316.573	106.84
316.787	26.96
317.001	43.35
317.214	-46.76
317.428	22.87
317.641	-67.24
317.855	-3.75
318.068	43.35
318.282	84.31
318.495	158.03
318.709	51.54
318.922	49.49
319.136	160.08
319.349	78.16
319.563	-38.57
319.776	18.77
319.99	-24.23
320.203	115.03
320.417	-11.95
320.63	141.65
320.843	272.72
321.057	149.84
321.27	92.5
321.483	41.3
321.697	96.6
321.91	69.97
322.124	86.36
322.337	102.74
322.55	-77.48
322.763	51.54
322.977	35.16
323.19	-20.14
323.403	33.11
323.617	57.68
323.83	115.03
324.043	-79.53
324.256	61.78
324.469	-71.34
324.683	131.41
324.896	104.79
325.109	78.16
325.322	-104.11
325.535	84.31
325.748	141.65
325.962	24.92
326.175	-61.1
326.388	84.31
326.601	82.26
326.814	-22.19
327.027	82.26
327.24	125.27
327.453	-100.01
327.666	57.68
327.879	153.94
328.092	74.07
328.305	41.3
328.518	37.2
328.731	-26.28
328.944	61.78
329.157	74.07
329.37	43.35
329.583	170.32
329.796	147.8
330.009	-50.86
330.222	151.89
330.435	41.3
330.648	29.01
330.861	72.02
331.073	90.45
331.286	78.16
331.499	106.84
331.712	-32.43
331.925	53.59
332.138	-11.95
332.35	102.74
332.563	33.11
332.776	151.89
332.989	-65.19
333.202	35.16
333.414	29.01
333.627	6.49
333.84	16.73
334.053	-7.85
334.265	-38.57
334.478	14.68
334.691	4.44
334.903	69.97
335.116	67.92
335.329	-9.9
335.541	141.65
335.754	209.23
335.966	-22.19
336.179	37.2
336.392	6.49
336.604	69.97
336.817	112.98
337.029	0.34
337.242	82.26
337.454	166.23
337.667	-1.71
337.88	174.42
338.092	0.34
338.305	-30.38
338.517	-16.04
338.729	110.93
338.942	76.12
339.154	-18.09
339.367	-26.28
339.579	108.88
339.792	-1.71
340.004	172.37
340.217	-9.9
340.429	43.35
340.641	20.82
340.854	-46.76
341.066	4.44
341.278	166.23
341.491	96.6
341.703	22.87
341.915	-16.04
342.128	8.53
342.34	78.16
342.552	-1.71
342.764	35.16
342.977	10.58
343.189	57.68
343.401	14.68
343.613	-11.95
343.826	72.02
344.038	-28.33
344.25	-5.8
344.462	-11.95
344.674	-50.86
344.886	2.39
345.099	55.64
345.311	41.3
345.523	14.68
345.735	-87.72
345.947	-34.47
346.159	29.01
346.371	53.59
346.583	14.68
346.795	203.09
347.007	-28.33
347.219	-54.95
347.431	29.01
347.643	198.99
347.855	-32.43
348.067	74.07
348.279	-36.52
348.491	41.3
348.703	102.74
348.915	92.5
349.127	33.11
349.339	41.3
349.551	10.58
349.763	57.68
349.975	61.78
350.187	100.69
350.399	145.75
350.61	104.79
350.822	33.11
351.034	65.88
351.246	86.36
351.458	26.96
351.669	55.64
351.881	69.97
352.093	80.21
352.305	141.65
352.517	96.6
352.728	69.97
352.94	90.45
353.152	0.34
353.363	-52.91
353.575	18.77
353.787	149.84
353.999	29.01
354.21	203.09
354.422	43.35
354.633	51.54
354.845	45.4
355.057	61.78
355.268	-7.85
355.48	96.6
355.692	-61.1
355.903	100.69
356.115	39.25
356.326	-59.05
356.538	178.51
356.749	88.4
356.961	102.74
357.172	67.92
357.384	76.12
357.595	162.13
357.807	47.44
358.018	100.69
358.23	18.77
358.441	160.08
358.653	49.49
358.864	49.49
359.075	-65.19
359.287	-26.28
359.498	74.07
359.709	74.07
359.921	82.26
360.132	16.73
360.344	20.82
360.555	-7.85
360.766	82.26
360.977	43.35
361.189	74.07
361.4	8.53
361.611	155.99
361.823	145.75
362.034	55.64
362.245	-75.43
362.456	0.34
362.667	47.44
362.879	10.58
363.09	31.06
363.301	43.35
363.512	24.92
363.723	-26.28
363.935	-18.09
364.146	108.88
364.357	69.97
364.568	57.68
364.779	0.34
364.99	112.98
365.201	-59.05
365.412	78.16
365.623	-32.43
365.834	90.45
366.045	61.78
366.256	98.64
366.467	100.69
366.678	20.82
366.889	57.68
367.1	65.88
367.311	84.31
367.522	0.34
367.733	106.84
367.944	33.11
368.155	47.44
368.366	90.45
368.577	117.08
368.788	112.98
368.999	14.68
369.209	49.49
369.42	186.71
369.631	178.51
369.842	74.07
370.053	112.98
370.264	88.4
370.474	0.34
370.685	72.02
370.896	100.69
371.107	51.54
371.317	84.31
371.528	-20.14
371.739	172.37
371.95	102.74
372.16	78.16
372.371	-7.85
372.582	-28.33
372.792	61.78
373.003	6.49
373.214	51.54
373.424	22.87
373.635	-46.76
373.846	108.88
374.056	-38.57
374.267	63.83
374.477	-50.86
374.688	12.63
374.898	43.35
375.109	24.92
375.319	55.64
375.53	141.65
375.74	86.36
375.951	106.84
376.161	98.64
376.372	76.12
376.582	-38.57
376.793	31.06
377.003	-112.3
377.214	41.3
377.424	125.27
377.635	100.69
377.845	-89.77
378.055	139.6
378.266	-50.86
378.476	-30.38
378.686	26.96
378.897	35.16
379.107	110.93
379.317	14.68
379.528	-110.25
379.738	86.36
379.948	-26.28
380.158	100.69
380.369	37.2
380.579	63.83
380.789	0.34
380.999	90.45
381.21	59.73
381.42	172.37
381.63	-54.95
381.84	82.26
382.05	51.54
382.261	88.4
382.471	106.84
382.681	-9.9
382.891	217.43
383.101	0.34
383.311	14.68
383.521	-5.8
383.731	57.68
383.941	57.68
384.151	84.31
384.361	24.92
384.571	22.87
384.781	-7.85
384.991	96.6
385.201	115.03
385.411	43.35
385.621	90.45
385.831	63.83
386.041	104.79
386.251	16.73
386.461	141.65
386.671	55.64
386.881	141.65
387.091	16.73
387.301	162.13
387.511	72.02
387.72	149.84
387.93	135.51
388.14	-54.95
388.35	76.12
388.56	53.59
388.769	100.69
388.979	18.77
389.189	-30.38
389.399	0.34
389.609	110.93
389.818	123.22
390.028	100.69
390.238	106.84
390.447	-30.38
390.657	57.68
390.867	-7.85
391.076	-50.86
391.286	45.4
391.496	-5.8
391.705	92.5
391.915	164.18
392.125	100.69
392.334	-7.85
392.544	168.27
392.753	20.82
392.963	-42.67
393.172	-5.8
393.382	18.77
393.591	158.03
393.801	61.78
394.01	164.18
394.22	135.51
394.429	65.88
394.639	-16.04
394.848	69.97
395.058	39.25
395.267	67.92
395.477	65.88
395.686	-5.8
395.895	203.09
396.105	196.95
396.314	108.88
396.524	6.49
396.733	-79.53
396.942	98.64
397.152	112.98
397.361	92.5
397.57	33.11
397.78	24.92
397.989	112.98
398.198	285.01
398.407	10.58
398.617	76.12
398.826	37.2
399.035	-48.81
399.244	164.18
399.453	131.41
399.663	16.73
399.872	12.63
400.081	33.11
400.29	63.83
400.499	2.39
400.708	57.68
400.917	24.92
401.127	0.34
401.336	-9.9
401.545	231.76
401.754	41.3
401.963	180.56
402.172	-11.95
402.381	-22.19
402.59	-9.9
402.799	18.77
403.008	65.88
403.217	65.88
403.426	98.64
403.635	-61.1
403.844	41.3
404.053	33.11
404.262	-7.85
404.471	125.27
404.68	92.5
404.888	39.25
405.097	51.54
405.306	53.59
405.515	76.12
405.724	-3.75
405.933	82.26
406.142	117.08
406.35	51.54
406.559	12.63
406.768	84.31
406.977	192.85
407.185	76.12
407.394	26.96
407.603	-20.14
407.812	84.31
408.02	135.51
408.229	96.6
408.438	96.6
408.646	-50.86
408.855	47.44
409.064	129.36
409.272	20.82
409.481	53.59
409.69	-32.43
409.898	-54.95
410.107	39.25
410.315	84.31
410.524	-36.52
410.733	45.4
410.941	117.08
411.15	92.5
411.358	43.35
411.567	137.56
411.775	-13.99
411.984	78.16
412.192	53.59
412.401	-13.99
412.609	158.03
412.818	65.88
413.026	63.83
413.234	-22.19
413.443	98.64
413.651	-18.09
413.86	29.01
414.068	110.93
414.276	145.75
414.485	-93.87
414.693	131.41
414.901	160.08
415.11	33.11
415.318	65.88
415.526	121.17
415.734	74.07
415.943	80.21
416.151	100.69
416.359	39.25
416.567	43.35
416.776	151.89
416.984	133.46
417.192	194.9
417.4	6.49
417.608	-54.95
417.817	-28.33
418.025	61.78
418.233	184.66
418.441	10.58
418.649	12.63
418.857	-1.71
419.065	162.13
419.273	10.58
419.481	82.26
419.689	47.44
419.897	43.35
420.105	-24.23
420.313	104.79
420.521	151.89
420.729	141.65
420.937	4.44
421.145	-5.8
421.353	10.58
421.561	125.27
421.769	26.96
421.977	-34.47
422.185	123.22
422.393	96.6
422.601	108.88
422.809	59.73
423.017	82.26
423.224	59.73
423.432	106.84
423.64	8.53
423.848	115.03
424.056	53.59
424.263	20.82
424.471	-22.19
424.679	125.27
424.887	-36.52
425.094	133.46
425.302	106.84
425.51	49.49
425.718	-13.99
425.925	80.21
426.133	-26.28
426.341	211.28
426.548	86.36
426.756	53.59
426.964	-5.8
427.171	-63.15
427.379	80.21
427.586	24.92
427.794	160.08
428.001	129.36
428.209	67.92
428.417	119.12
428.624	104.79
428.832	141.65
429.039	88.4
429.247	92.5
429.454	108.88
429.662	211.28
429.869	104.79
430.076	55.64
430.284	180.56
430.491	201.04
430.699	129.36
430.906	219.47
431.114	141.65
431.321	108.88
431.528	158.03
431.736	110.93
431.943	131.41
432.15	115.03
432.358	194.9
432.565	225.62
432.772	37.2
432.979	141.65
433.187	139.6
433.394	127.32
433.601	88.4
433.808	205.14
434.016	221.52
434.223	125.27
434.43	137.56
434.637	190.8
434.844	250.19
435.052	207.19
435.259	184.66
435.466	268.63
435.673	280.91
435.88	299.34
436.087	246.1
436.294	233.81
436.501	303.44
436.708	196.95
436.915	244.05
437.122	303.44
437.329	278.87
437.537	186.71
437.743	307.54
437.95	411.98
438.157	244.05
438.364	309.58
438.571	285.01
438.778	342.35
438.985	411.98
439.192	444.75
439.399	325.97
439.606	465.23
439.813	438.61
440.02	502.09
440.227	622.92
440.433	543.05
440.64	436.56
440.847	457.04
441.054	446.8
441.261	594.25
441.467	518.48
441.674	448.85
441.881	612.68
442.088	502.09
442.294	651.6
442.501	618.83
442.708	534.86
442.914	649.55
443.121	704.84
443.328	749.9
443.534	772.43
443.741	684.36
443.948	653.64
444.154	833.86
444.361	872.78
444.568	827.72
444.774	870.73
444.981	817.48
445.187	962.89
445.394	971.08
445.6	950.6
445.807	1085.76
446.013	1116.48
446.22	987.46
446.426	1126.72
446.633	1362.24
446.839	1395.01
447.046	1143.11
447.252	1378.62
447.459	1423.68
447.665	1288.51
447.871	1487.17
448.078	1571.13
448.284	1546.56
448.491	1661.24
448.697	1712.44
448.903	1794.36
449.11	1780.03
449.316	1700.16
449.522	2023.73
449.728	2070.84
449.935	2058.55
450.141	2154.8
450.347	2214.2
450.553	2171.19
450.76	2261.3
450.966	2449.71
451.172	2466.1
451.378	2603.31
451.584	2631.98
451.791	2812.2
451.997	2840.87
452.203	3029.29
452.409	3127.59
452.615	3240.23
452.821	3123.49
453.027	3141.93
453.233	3672.35
453.44	3481.89
453.646	3574.05
453.852	3881.24
454.058	3864.86
454.264	4114.71
454.47	4299.03
454.676	4303.12
454.882	4778.25
455.088	4423.95
455.294	4733.2
455.5	5210.37
455.705	5501.19
455.911	5267.72
456.117	5716.22
456.323	5683.45
456.529	5660.93
456.735	6152.44
456.941	6535.41
457.147	6514.93
457.352	6926.57
457.558	6975.72
457.764	7440.61
457.97	7469.28
458.176	7885.02
458.381	8286.42
458.587	8495.32
458.793	8870.09
458.999	8898.77
459.204	10070.2
459.41	10549.43
459.616	10184.89
459.821	10737.84
460.027	11141.29
460.233	11870.37
460.438	11690.15
460.644	12284.06
460.85	12603.54
461.055	13242.51
461.261	13662.34
461.466	13418.63
461.672	13846.66
461.878	15343.72
462.083	15214.7
462.289	15620.2
462.494	16046.18
462.7	16222.3
462.905	16463.96
463.111	18053.19
463.316	18747.45
463.522	18794.55
463.727	19286.06
463.932	20381.73
464.138	21239.83
464.343	21657.61
464.549	21979.14
464.754	23687.15
464.959	23949.29
465.165	24543.2
465.37	24350.69
465.575	24133.61
465.781	26058.7
465.986	26820.54
466.191	26423.23
466.397	26591.17
466.602	26116.04
466.807	27527.09
467.012	28082.09
467.218	28516.26
467.423	28592.03
467.628	29300.63
467.833	30504.84
468.038	30173.06
468.244	29562.77
468.449	30996.35
468.654	30728.06
468.859	30871.42
469.064	30734.21
469.269	29990.8
469.474	30402.44
469.679	31252.34
469.885	29996.94
470.09	30906.24
470.295	30467.97
470.5	29933.45
470.705	30171.02
470.91	29534.1
471.115	29476.76
471.32	29640.59
471.525	29728.66
471.73	28710.82
471.935	28716.96
472.139	27178.93
472.344	27621.3
472.549	27209.65
472.754	26642.37
472.959	25886.67
473.164	25534.42
473.369	24997.85
473.574	25460.69
473.778	25210.84
473.983	24903.64
474.188	24176.61
474.393	23230.45
474.598	22751.23
474.802	22491.13
475.007	22237.19
475.212	22235.14
475.417	21045.27
475.621	20992.02
475.826	20613.15
476.031	20348.96
476.235	19957.8
476.44	19939.37
476.645	19257.39
476.849	18866.23
477.054	18798.65
477.259	18389.05
477.463	18571.32
477.668	18006.08
477.872	17823.81
478.077	17143.89
478.282	16748.63
478.486	16459.87
478.691	16355.42
478.895	16076.9
479.1	16210.01
479.304	16191.58
479.509	15409.26
479.713	15810.66
479.918	15413.35
480.122	15020.14
480.326	15108.21
480.531	14964.85
480.735	14897.27
480.94	14702.71
481.144	15155.31
481.348	14475.38
481.553	14600.31
481.757	13992.06
481.961	14086.27
482.166	14278.78
482.37	14110.85
482.574	13871.23
482.778	13719.68
482.983	14149.76
483.187	13725.83
483.391	13555.85
483.595	13367.43
483.8	13160.59
484.004	13213.84
484.208	13273.23
484.412	12961.94
484.616	12765.33
484.821	12773.52
485.025	12155.04
485.229	12396.7
485.433	12187.8
485.637	12228.76
485.841	12030.11
486.045	11862.18
486.249	11757.73
486.453	11450.53
486.657	11268.27
486.861	11167.91
487.065	10733.75
487.269	11020.46
487.473	10383.54
487.677	10639.54
487.881	10827.95
488.085	10404.02
488.289	10037.44
488.493	9791.68
488.697	9900.22
488.901	9679.04
489.105	9341.13
489.309	9345.22
489.512	9294.02
489.716	9001.16
489.92	8726.74
490.124	8583.38
490.328	8560.85
490.531	8493.27
490.735	8386.77
490.939	8030.43
491.143	8048.86
491.346	7905.5
491.55	7772.38
491.754	7563.49
491.958	7686.37
492.161	7358.69
492.365	7317.73
492.569	7024.87
492.772	7149.8
492.976	7086.31
493.18	6748.4
493.383	6856.94
493.587	6840.56
493.79	6721.77
493.994	6588.66
494.197	6637.81
494.401	6547.7
494.605	6498.55
494.808	6459.63
495.012	6324.47
495.215	6461.68
495.419	6369.52
495.622	5980.41
495.825	6295.8
496.029	6109.43
496.232	6422.77
496.436	6203.64
496.639	6363.38
496.843	6287.61
497.046	6160.63
497.249	6342.9
497.453	6289.65
497.656	6254.84
497.859	6131.96
498.063	6320.37
498.266	6291.7
498.469	6234.36
498.673	6381.81
498.876	6426.87
499.079	6357.24
499.282	6310.13
499.485	6476.02
499.689	6592.75
499.892	6617.33
500.095	6531.31
500.298	6617.33
500.501	6435.06
500.705	6660.34
500.908	6826.22
501.111	6795.5
501.314	6922.48
501.517	7098.6
501.72	7059.69
501.923	7157.99
502.126	7145.7
502.329	7379.17
502.532	7401.7
502.735	7506.15
502.938	7749.86
503.141	7678.18
503.344	7579.87
503.547	8007.9
503.75	7887.07
503.953	8009.95
504.156	8128.73
504.359	8196.31
504.562	8454.36
504.765	8665.3
504.968	8696.02
505.17	8628.43
505.373	8952.01
505.576	9107.66
505.779	9298.12
505.982	9550.02
506.185	9586.88
506.387	9758.91
506.59	9965.76
506.793	10223.8
506.996	10246.33
507.198	10821.81
507.401	10748.08
507.604	10989.74
507.807	11270.31
508.009	11438.25
508.212	11608.23
508.415	11667.62
508.617	12126.36
508.82	12435.61
509.022	12376.22
509.225	13015.18
509.428	13183.12
509.63	13308.04
509.833	13521.03
510.035	14147.71
510.238	14172.29
510.44	14454.9
510.643	14989.42
510.845	15306.86
511.048	15435.88
511.25	16076.9
511.453	16222.3
511.655	17072.21
511.858	17207.37
512.06	17545.29
512.262	17768.52
512.465	18190.4
512.667	18636.86
512.87	18855.99
513.072	19415.09
513.274	20045.86
513.477	20246.56
513.679	20805.66
513.881	21311.5
514.084	21770.25
514.286	21934.09
514.488	22607.87
514.69	23379.95
514.893	23728.11
515.095	24010.73
515.297	24838.11
515.499	25122.77
515.701	25749.45
515.904	26587.07
516.106	26877.88
516.308	27045.82
516.51	27940.78
516.712	28440.48
516.914	28856.22
517.116	29992.84
517.318	29861.77
517.52	30588.8
517.722	30990.2
517.925	31799.15
518.127	32218.99
518.329	32767.84
518.531	33181.53
518.733	34053.97
518.935	34975.55
519.136	34883.39
519.338	35548.98
519.54	36402.99
519.742	37091.1
519.944	37359.39
520.146	37967.63
520.348	38440.71
520.55	39110.4
520.752	39546.62
520.954	40011.51
521.155	40107.76
521.357	40855.27
521.559	41504.48
521.761	41922.26
521.963	42163.92
522.164	42596.04
522.366	43130.56
522.568	43456.19
522.77	43667.13
522.971	44111.54
523.173	44041.91
523.375	44504.75
523.576	44869.29
523.778	44953.26
523.98	45467.3
524.181	45549.21
524.383	45592.22
524.584	46481.04
524.786	45874.84
524.988	46204.56
525.189	46218.9
525.391	46454.42
525.592	46565.01
525.794	46370.45
525.995	46165.65
526.197	46018.2
526.398	46378.64
526.6	46429.84
526.801	46323.35
527.003	46401.17
527.204	45878.94
527.406	45866.65
527.607	46243.48
527.808	45694.62
528.01	44859.05
528.211	44953.26
528.412	45356.71
528.614	44850.86
528.815	44635.82
529.016	44689.07
529.218	43556.54
529.419	43726.52
529.62	43343.55
529.822	42594
530.023	42594
530.224	41842.39
530.425	41277.15
530.626	40840.93
530.828	40683.24
531.029	40738.54
531.23	39933.68
531.431	39649.02
531.632	39378.68
531.833	38919.94
532.035	38252.3
532.236	38270.73
532.437	37867.28
532.638	36785.96
532.839	36544.3
533.04	36466.47
533.241	35452.73
533.442	35772.21
533.643	34858.82
533.844	34314.06
534.045	34109.26
534.246	33513.3
534.447	32847.71
534.648	32497.51
534.849	32313.19
535.05	31479.67
535.251	31678.32
535.451	30814.08
535.652	30803.84
535.853	30105.48
536.054	30064.52
536.255	29284.25
536.456	28876.7
536.657	28673.95
536.857	28032.94
537.058	27819.95
537.259	27701.17
537.46	27080.63
537.66	26578.88
537.861	26429.38
538.062	26003.4
538.263	25677.77
538.463	25470.93
538.664	25350.1
538.865	24791
539.065	24735.71
539.266	23824.36
539.466	24016.87
539.667	23490.54
539.868	23572.46
540.068	23046.13
540.269	22595.58
540.469	22542.33
540.67	22304.77
540.87	21897.22
541.071	21608.46
541.271	21633.04
541.472	21315.6
541.672	21071.89
541.873	20658.2
542.073	19947.56
542.274	20572.19
542.474	20178.98
542.675	19517.48
542.875	19736.62
543.075	19341.36
543.276	18968.63
543.476	19073.07
543.676	18634.81
543.877	18585.66
544.077	18497.6
544.277	18083.91
544.478	17723.46
544.678	17993.79
544.878	17721.41
545.078	17453.13
545.279	16961.62
545.479	16885.84
545.679	16521.31
545.879	16494.68
546.079	16285.79
546.28	16093.28
546.48	15839.33
546.68	16025.7
546.88	15738.98
547.08	15589.48
547.28	15505.51
547.48	14809.2
547.68	15032.43
547.88	14514.3
548.081	14715
548.281	14428.28
548.481	14213.24
548.681	14024.83
548.881	13817.99
549.081	13873.28
549.28	13420.68
549.48	13392.01
549.68	13078.67
549.88	13056.14
550.08	12662.93
550.28	12603.54
550.48	12540.05
550.68	12376.22
550.88	11907.23
551.08	11737.25
551.279	11720.87
551.479	11440.29
551.679	11536.55
551.879	11133.1
552.079	11190.44
552.278	10928.3
552.478	10862.77
552.678	10606.77
552.878	10729.65
553.077	10344.63
553.277	9842.88
553.477	10016.96
553.676	9871.55
553.876	9687.23
554.076	9582.79
554.275	9369.8
554.475	9017.55
554.674	9296.07
554.874	8919.25
555.074	8665.3
555.273	8685.78
555.473	8456.4
555.672	8308.95
555.872	8239.32
556.071	8239.32
556.271	8036.57
556.47	7729.38
556.67	7684.32
556.869	7588.07
557.068	7510.24
557.268	7368.93
557.467	7364.84
557.667	7235.81
557.866	6951.15
558.065	6908.14
558.265	6682.86
558.464	6521.07
558.663	6752.49
558.863	6404.34
559.062	6351.09
559.261	6207.73
559.461	6301.94
559.66	5845.24
559.859	5851.39
560.058	5851.39
560.258	5712.13
560.457	5603.58
560.656	5650.69
560.855	5312.77
561.054	5425.41
561.253	5341.44
561.453	5345.54
561.652	5198.09
561.851	5179.65
562.05	5028.1
562.249	4788.49
562.448	4972.81
562.647	4661.52
562.846	4780.3
563.045	4614.41
563.244	4534.54
563.443	4505.87
563.642	4290.84
563.841	4462.87
564.04	4178.2
564.239	4409.62
564.438	4200.73
564.637	3979.54
564.836	4098.33
565.035	3936.54
565.234	3854.62
565.432	3936.54
565.631	3760.41
565.83	3789.08
566.029	3719.45
566.228	3510.56
566.427	3604.77
566.625	3535.14
566.824	3639.58
567.023	3567.9
567.222	3365.15
567.42	3184.93
567.619	3270.95
567.818	3133.73
568.016	3371.3
568.215	3197.22
568.414	3143.97
568.612	3072.29
568.811	3080.49
569.01	3027.24
569.208	3002.66
569.407	2953.51
569.605	2963.75
569.804	2732.33
570.002	2705.71
570.201	2740.52
570.4	2732.33
570.598	2652.46
570.797	2629.93
570.995	2472.24
571.193	2658.6
571.392	2488.62
571.59	2404.66
571.789	2437.42
571.987	2507.06
572.186	2285.87
572.384	2269.49
572.582	2285.87
572.781	2386.22
572.979	2119.99
573.177	2156.85
573.376	2230.58
573.574	2246.96
573.772	1917.24
573.971	1919.29
574.169	1956.15
574.367	1855.8
574.565	1884.47
574.763	1937.72
574.962	1818.94
575.16	1868.09
575.358	1800.51
575.556	1843.51
575.754	1825.08
575.952	1751.35
576.151	1747.26
576.349	1763.64
576.547	1499.45
576.745	1634.62
576.943	1786.17
577.141	1577.28
577.339	1362.24
577.537	1511.74
577.735	1548.61
577.933	1513.79
578.131	1395.01
578.329	1474.88
578.527	1374.53
578.725	1542.46
578.923	1370.43
579.121	1401.15
579.319	1186.12
579.516	1282.37
579.714	1470.78
579.912	1298.75
580.11	1124.68
580.308	1163.59
580.506	1116.48
580.704	1059.14
580.901	1059.14
581.099	1216.83
581.297	1167.68
581.495	1145.16
581.692	1149.25
581.89	1194.31
582.088	1048.9
582.285	1089.86
582.483	1050.95
582.681	950.6
582.878	1005.89
583.076	1009.99
583.274	1018.18
583.471	1098.05
583.669	932.17
583.866	876.87
584.064	919.88
584.262	837.96
584.459	874.82
584.657	794.95
584.854	964.93
585.052	983.37
585.249	905.54
585.447	813.38
585.644	694.6
585.841	860.49
586.039	852.3
586.236	878.92
586.434	731.47
586.631	725.32
586.828	817.48
587.026	747.85
587.223	655.69
587.42	713.03
587.618	743.75
587.815	758.09
588.012	622.92
588.21	692.55
588.407	686.41
588.604	692.55
588.801	688.46
588.999	690.51
589.196	731.47
589.393	592.2
589.59	655.69
589.787	659.79
589.984	616.78
590.182	649.55
590.379	575.82
590.576	596.3
590.773	641.36
590.97	559.44
591.167	598.35
591.364	635.21
591.561	598.35
591.758	786.76
591.955	604.49
592.152	571.72
592.349	440.65
592.546	581.96
592.743	473.42
592.94	555.34
593.137	596.3
593.334	567.63
593.531	665.93
593.727	676.17
593.924	688.46
594.121	561.48
594.318	526.67
594.515	676.17
594.712	782.67
594.908	713.03
595.105	510.29
595.302	696.65
595.499	713.03
595.696	766.28
595.892	584.01
596.089	651.6
596.286	616.78
596.482	776.52
596.679	758.09
596.876	604.49
597.072	725.32
597.269	631.12
597.466	760.14
597.662	743.75
597.859	758.09
598.055	805.19
598.252	887.11
598.448	885.06
598.645	964.93
598.841	866.63
599.038	1030.47
599.234	1012.04
599.431	1061.19
599.627	1081.67
599.824	1192.26
600.02	1192.26
600.217	1210.69
600.413	1184.07
600.609	1290.56
600.806	1515.84
601.002	1286.47
601.198	1382.72
601.395	1499.45
601.591	1564.99
601.787	1530.17
601.984	1554.75
602.18	1691.96
602.376	1745.21
602.572	1857.85
602.769	1962.3
602.965	2040.12
603.161	2007.35
603.357	2101.56
603.553	2218.29
603.75	2230.58
603.946	2222.39
604.142	2378.03
604.338	2502.96
604.534	2455.86
604.73	2713.9
604.926	2648.36
605.122	2734.38
605.318	2865.45
605.514	3029.29
605.71	2963.75
605.906	3236.13
606.102	3178.79
606.298	3299.62
606.494	3412.26
606.69	3500.32
606.886	3662.11
607.082	3623.2
607.278	3815.71
607.474	3924.25
607.67	3926.3
607.866	4040.98
608.062	4290.84
608.257	4305.17
608.453	4448.53
608.649	4546.83
608.845	4659.47
609.041	4630.8
609.236	5024.01
609.432	5101.83
609.628	5339.4
609.824	5495.04
610.019	5331.2
610.215	5757.18
610.411	5867.77
610.606	6013.18
610.802	6019.32
610.998	6275.32
611.193	6492.4
611.389	6381.81
611.584	6777.07
611.78	6893.8
611.976	7084.27
612.171	7440.61
612.367	7418.08
612.562	7493.86
612.758	7758.05
612.953	7930.08
613.149	8210.65
613.344	8470.74
613.539	8734.93
613.735	8913.1
613.93	9218.25
614.126	9349.32
614.321	9613.51
614.517	9916.61
614.712	10164.41
614.907	10571.96
615.103	10782.9
615.298	10850.48
615.493	11055.28
615.688	11149.48
615.884	11925.66
616.079	11950.24
616.274	12517.53
616.47	12441.75
616.665	12794
616.86	13246.6
617.055	13328.52
617.25	13844.61
617.445	14495.86
617.641	14518.39
617.836	15081.58
618.031	15274.09
618.226	15894.63
618.421	16095.33
618.616	16529.5
618.811	16515.16
619.006	17332.3
619.201	17434.7
619.396	17872.96
619.591	18012.23
619.786	18868.28
619.981	18966.58
620.176	19685.42
620.371	19482.67
620.566	20297.76
620.761	20674.59
620.956	20977.69
621.151	21278.74
621.346	22247.43
621.541	22104.07
621.735	23232.5
621.93	22898.68
622.125	23472.11
622.32	23488.49
622.515	24616.93
622.709	25124.82
622.904	25087.96
623.099	25767.88
623.294	26251.2
623.488	26335.17
623.683	27094.97
623.878	27439.03
624.072	28159.91
624.267	28233.64
624.462	28798.88
624.656	29362.07
624.851	29912.97
625.046	29786
625.24	30746.5
625.435	30683.01
625.629	31031.16
625.824	31606.64
626.018	32049
626.213	32118.64
626.407	32690.02
626.602	32886.62
626.796	33380.18
626.991	33597.27
627.185	34123.6
627.38	34078.54
627.574	34389.83
627.768	34508.61
627.963	34735.94
628.157	34688.84
628.352	35188.54
628.546	34336.59
628.74	35313.47
628.935	35036.99
629.129	35434.3
629.323	34721.6
629.517	34721.6
629.712	34352.97
629.906	33931.09
630.1	33957.71
630.294	33914.7
630.489	33374.04
630.683	33167.2
630.877	32567.14
631.071	31905.65
631.265	31565.68
631.459	30435.2
631.653	29829.01
631.848	29941.64
632.042	28651.42
632.236	28315.56
632.43	27090.87
632.624	27146.17
632.818	25868.23
633.012	25262.04
633.206	24328.16
633.4	23797.74
633.594	22890.49
633.788	21987.33
633.982	21434.38
634.176	20664.35
634.369	19568.68
634.563	19079.22
634.757	18108.48
634.951	17924.16
635.145	17033.3
635.339	16134.24
635.533	15728.74
635.726	15140.97
635.92	14510.2
636.114	13803.65
636.308	13430.92
636.501	12912.78
636.695	12527.77
636.889	11577.51
637.083	11399.34
637.276	10557.62
637.47	10137.79
637.664	10041.53
637.857	9672.9
638.051	9210.06
638.244	8952.01
638.438	8421.59
638.632	8280.28
638.825	7860.45
639.019	7731.42
639.212	7143.66
639.406	7006.44
639.599	6641.9
639.793	6498.55
639.986	6293.75
640.18	5923.07
640.373	5492.99
640.567	5419.27
640.76	5208.33
640.954	5032.2
641.147	4897.03
641.34	4698.38
641.534	4462.87
641.727	4460.82
641.92	4262.16
642.114	4047.13
642.307	3938.59
642.5	3827.99
642.694	3572
642.887	3496.22
643.08	3455.26
643.273	3309.86
643.467	2992.42
643.66	2881.83
643.853	2877.74
644.046	2933.03
644.239	2685.23
644.432	2380.08
644.626	2236.72
644.819	2251.06
645.012	2193.72
645.205	2277.68
645.398	2148.66
645.591	1943.86
645.784	1876.28
645.977	1823.03
646.17	1898.81
646.363	1724.73
646.556	1614.14
646.749	1532.22
646.942	1474.88
647.135	1491.26
647.328	1442.11
647.521	1403.2
647.714	1382.72
647.907	1286.47
648.099	1139.01
648.292	1130.82
648.485	1157.44
648.678	1003.85
648.871	1032.52
649.064	993.61
649.256	1012.04
649.449	973.13
649.642	870.73
649.835	917.83
650.027	774.47
650.22	790.86
650.413	776.52
650.605	819.53
650.798	633.16
650.991	706.89
651.183	710.99
651.376	670.03
651.568	579.92
651.761	629.07
651.954	715.08
652.146	522.57
652.339	557.39
652.531	610.64
652.724	432.46
652.916	530.77
653.109	405.84
653.301	557.39
653.494	442.7
653.686	536.91
653.879	532.81
654.071	411.98
654.263	364.88
654.456	307.54
654.648	471.37
654.84	454.99
655.033	395.6
655.225	508.24
655.417	285.01
655.61	450.89
655.802	438.61
655.994	450.89
656.186	223.57
656.379	364.88
656.571	285.01
656.763	317.78
656.955	242
657.148	219.47
657.34	416.08
657.532	319.82
657.724	295.25
657.916	237.91
658.108	356.69
658.3	319.82
658.492	274.77
658.684	174.42
658.876	289.1
659.068	219.47
659.26	168.27
659.452	201.04
659.644	262.48
659.836	323.92
660.028	205.14
660.22	160.08
660.412	317.78
660.604	242
660.796	254.29
660.988	328.02
661.18	125.27
661.372	235.86
661.563	155.99
661.755	170.32
661.947	94.55
662.139	133.46
662.331	123.22
662.522	135.51
662.714	139.6
662.906	221.52
663.097	209.23
663.289	90.45
663.481	41.3
663.673	211.28
663.864	133.46
664.056	143.7
664.247	112.98
664.439	270.67
664.631	168.27
664.822	229.71
665.014	182.61
665.205	117.08
665.397	53.59
665.588	160.08
665.78	123.22
665.971	201.04
666.163	168.27
666.354	178.51
666.546	88.4
666.737	115.03
666.929	127.32
667.12	39.25
667.311	213.33
667.503	147.8
667.694	117.08
667.885	135.51
668.077	233.81
668.268	2.39
668.459	88.4
668.651	158.03
668.842	121.17
669.033	14.68
669.224	51.54
669.416	295.25
669.607	170.32
669.798	90.45
669.989	207.19
670.18	174.42
670.371	174.42
670.563	76.12
670.754	203.09
670.945	162.13
671.136	166.23
671.327	37.2
671.518	184.66
671.709	184.66
671.9	166.23
672.091	268.63
672.282	153.94
672.473	223.57
672.664	59.73
672.855	205.14
673.046	147.8
673.237	223.57
673.428	164.18
673.619	149.84
673.809	14.68
674	239.95
674.191	190.8
674.382	96.6
674.573	168.27
674.764	160.08
674.954	123.22
675.145	82.26
675.336	98.64
675.527	112.98
675.717	51.54
675.908	80.21
676.099	115.03
676.289	244.05
676.48	-3.75
676.671	133.46
676.861	119.12
677.052	155.99
677.243	117.08
677.433	90.45
677.624	227.67
677.814	72.02
678.005	98.64
678.195	334.16
678.386	129.36
678.576	178.51
678.767	141.65
678.957	207.19
679.148	276.82
679.338	254.29
679.529	166.23
679.719	106.84
679.909	198.99
680.1	252.24
680.29	112.98
680.481	147.8
680.671	274.77
680.861	170.32
681.052	162.13
681.242	158.03
681.432	194.9
681.622	180.56
681.813	160.08
682.003	168.27
682.193	43.35
682.383	231.76
682.573	125.27
682.764	217.43
682.954	221.52
683.144	340.3
683.334	194.9
683.524	135.51
683.714	151.89
683.904	231.76
684.094	221.52
684.284	260.43
684.474	375.12
684.664	272.72
684.854	248.15
685.044	168.27
685.234	289.1
685.424	205.14
685.614	139.6
685.804	424.27
685.994	235.86
686.184	194.9
686.374	239.95
686.564	217.43
686.753	158.03
686.943	153.94
687.133	270.67
687.323	330.06
687.513	282.96
687.702	223.57
687.892	176.47
688.082	268.63
688.272	270.67
688.461	215.38
688.651	495.95
688.841	244.05
689.03	211.28
689.22	229.71
689.41	239.95
689.599	246.1
689.789	172.37
689.979	307.54
690.168	127.32
690.358	325.97
690.547	182.61
690.737	205.14
690.926	244.05
691.116	301.39
691.305	330.06
691.495	194.9
691.684	178.51
691.874	119.12
692.063	256.34
692.252	268.63
692.442	264.53
692.631	209.23
692.82	102.74
693.01	190.8
693.199	203.09
693.388	229.71
693.578	207.19
693.767	237.91
693.956	178.51
694.146	198.99
694.335	239.95
694.524	106.84
694.713	364.88
694.902	149.84
695.092	155.99
695.281	250.19
695.47	170.32
695.659	158.03
695.848	207.19
696.037	155.99
696.226	276.82
696.415	235.86
696.604	311.63
696.793	266.58
696.982	188.75
697.171	287.06
697.36	127.32
697.549	209.23
697.738	174.42
697.927	121.17
698.116	196.95
698.305	250.19
698.494	211.28
698.683	172.37
698.872	356.69
699.061	194.9
699.25	209.23
699.438	280.91
699.627	182.61
699.816	373.07
700.005	166.23
700.193	131.41
700.382	262.48
700.571	221.52
700.76	219.47
700.948	301.39
701.137	270.67
701.326	282.96
701.514	258.39
701.703	194.9
701.892	260.43
702.08	387.41
702.269	203.09
702.457	108.88
702.646	233.81
702.834	166.23
703.023	237.91
703.212	250.19
703.4	264.53
703.589	203.09
703.777	155.99
703.965	84.31
704.154	184.66
704.342	151.89
704.531	174.42
704.719	198.99
704.907	276.82
705.096	178.51
705.284	158.03
705.472	186.71
705.661	237.91
705.849	276.82
706.037	182.61
706.226	272.72
706.414	149.84
706.602	184.66
706.79	188.75
706.979	246.1
707.167	174.42
707.355	174.42
707.543	172.37
707.731	176.47
707.919	254.29
708.107	170.32
708.296	121.17
708.484	129.36
708.672	205.14
708.86	317.78
709.048	158.03
709.236	139.6
709.424	248.15
709.612	135.51
709.8	100.69
709.988	174.42
710.176	272.72
710.364	256.34
710.551	221.52
710.739	223.57
710.927	125.27
711.115	162.13
711.303	344.4
711.491	256.34
711.679	155.99
711.866	289.1
712.054	201.04
712.242	182.61
712.43	274.77
712.617	209.23
712.805	260.43
712.993	291.15
713.181	158.03
713.368	317.78
713.556	235.86
713.744	174.42
713.931	405.84
714.119	293.2
714.306	219.47
714.494	119.12
714.682	278.87
714.869	84.31
715.057	180.56
715.244	78.16
715.432	203.09
715.619	108.88
715.807	242
715.994	215.38
716.182	287.06
716.369	307.54
716.556	272.72
716.744	94.55
716.931	96.6
717.119	201.04
717.306	194.9
717.493	225.62
717.681	145.75
717.868	110.93
718.055	242
718.242	194.9
718.43	158.03
718.617	219.47
718.804	309.58
718.991	264.53
719.179	205.14
719.366	325.97
719.553	201.04
719.74	223.57
719.927	221.52
720.114	272.72
720.301	143.7
720.488	194.9
720.676	219.47
720.863	342.35
721.05	348.5
721.237	338.26
721.424	274.77
721.611	231.76
721.798	186.71
721.985	127.32
722.172	289.1
722.358	266.58
722.545	231.76
722.732	344.4
722.919	280.91
723.106	266.58
723.293	254.29
723.48	250.19
723.667	186.71
723.853	332.11
724.04	309.58
724.227	280.91
724.414	178.51
724.6	299.34
724.787	393.55
724.974	403.79
725.161	282.96
725.347	141.65
725.534	295.25
725.72	328.02
725.907	293.2
726.094	342.35
726.28	227.67
726.467	268.63
726.653	143.7
726.84	401.74
727.027	379.22
727.213	233.81
727.4	311.63
727.586	282.96
727.773	295.25
727.959	285.01
728.145	317.78
728.332	248.15
728.518	231.76
728.705	368.98
728.891	293.2
729.077	223.57
729.264	256.34
729.45	266.58
729.636	436.56
729.823	262.48
730.009	323.92
730.195	182.61
730.382	315.73
730.568	207.19
730.754	340.3
730.94	229.71
731.126	287.06
731.313	350.54
731.499	346.45
731.685	377.17
731.871	260.43
732.057	315.73
732.243	364.88
732.429	297.3
732.615	461.13
732.801	317.78
732.987	364.88
733.173	282.96
733.359	229.71
733.545	227.67
733.731	258.39
733.917	393.55
734.103	399.7
734.289	348.5
734.475	227.67
734.661	381.26
734.847	293.2
735.033	313.68
735.219	356.69
735.404	313.68
735.59	262.48
735.776	278.87
735.962	346.45
736.148	350.54
736.333	346.45
736.519	330.06
736.705	278.87
736.89	344.4
737.076	319.82
737.262	237.91
737.447	305.49
737.633	299.34
737.819	391.5
738.004	330.06
738.19	264.53
738.375	444.75
738.561	420.17
738.747	407.89
738.932	295.25
739.118	426.32
739.303	356.69
739.489	362.83
739.674	274.77
739.859	293.2
740.045	373.07
740.23	303.44
740.416	250.19
740.601	299.34
740.786	364.88
740.972	309.58
741.157	301.39
741.342	237.91
741.528	285.01
741.713	448.85
741.898	268.63
742.084	303.44
742.269	295.25
742.454	289.1
742.639	409.94
742.824	391.5
743.01	403.79
743.195	442.7
743.38	297.3
743.565	321.87
743.75	436.56
743.935	420.17
744.12	420.17
744.305	225.62
744.49	338.26
744.675	274.77
744.86	287.06
745.045	373.07
745.23	297.3
745.415	282.96
745.6	282.96
745.785	373.07
745.97	403.79
746.155	336.21
746.34	385.36
746.525	334.16
746.71	424.27
746.895	295.25
747.079	252.24
747.264	252.24
747.449	397.65
747.634	340.3
747.819	334.16
748.003	291.15
748.188	254.29
748.373	328.02
748.557	278.87
748.742	254.29
748.927	221.52
749.111	328.02
749.296	254.29
749.481	317.78
749.665	285.01
749.85	227.67
750.034	282.96
750.219	340.3
750.404	289.1
750.588	305.49
750.773	168.27
750.957	254.29
751.141	217.43
751.326	330.06
751.51	219.47
751.695	184.66
751.879	217.43
752.064	340.3
752.248	262.48
752.432	420.17
752.617	299.34
752.801	311.63
752.985	237.91
753.17	297.3
753.354	348.5
753.538	274.77
753.722	201.04
753.907	168.27
754.091	153.94
754.275	342.35
754.459	170.32
754.643	131.41
754.828	203.09
755.012	239.95
755.196	149.84
755.38	233.81
755.564	151.89
755.748	229.71
755.932	278.87
756.116	276.82
756.3	227.67
756.484	182.61
756.668	203.09
756.852	10.58
757.036	133.46
757.22	315.73
757.404	92.5
757.588	153.94
757.772	239.95
757.956	215.38
758.14	362.83
758.323	176.47
758.507	250.19
758.691	143.7
758.875	315.73
759.059	262.48
759.242	135.51
759.426	178.51
759.61	233.81
759.794	135.51
759.977	287.06
760.161	289.1
760.345	194.9
760.528	254.29
760.712	248.15
760.895	184.66
761.079	102.74
761.263	90.45
761.446	180.56
761.63	180.56
761.813	219.47
761.997	108.88
762.18	178.51
762.364	254.29
762.547	57.68
762.731	209.23
762.914	121.17
763.098	110.93
763.281	153.94
763.464	115.03
763.648	174.42
763.831	178.51
764.015	29.01
764.198	272.72
764.381	174.42
764.564	270.67
764.748	172.37
764.931	190.8
765.114	106.84
765.297	221.52
765.481	102.74
765.664	92.5
765.847	88.4
766.03	227.67
766.213	110.93
766.397	151.89
766.58	20.82
766.763	168.27
766.946	100.69
767.129	133.46
767.312	106.84
767.495	20.82
767.678	53.59
767.861	110.93
768.044	147.8
768.227	121.17
768.41	84.31
768.593	100.69
768.776	100.69
768.959	164.18
769.142	235.86
769.324	57.68
769.507	110.93
769.69	49.49
769.873	69.97
770.056	340.3
770.239	151.89
770.421	190.8
770.604	125.27
770.787	201.04
770.97	176.47
771.152	72.02
771.335	188.75
771.518	98.64
771.7	178.51
771.883	227.67
772.066	106.84
772.248	92.5
772.431	153.94
772.613	123.22
772.796	72.02
772.978	176.47
773.161	254.29
773.343	57.68
773.526	63.83
773.708	33.11
773.891	14.68
774.073	100.69
774.256	-9.9
774.438	176.47
774.621	63.83
774.803	96.6
774.985	65.88
775.168	143.7
775.35	80.21
775.532	166.23
775.715	55.64
775.897	131.41
776.079	102.74
776.261	92.5
776.444	145.75
776.626	121.17
776.808	47.44
776.99	76.12
777.173	137.56
777.355	47.44
777.537	86.36
777.719	125.27
777.901	49.49
778.083	55.64
778.265	-28.33
778.447	127.32
778.629	67.92
778.811	16.73
778.993	100.69
779.175	110.93
779.357	127.32
779.539	-24.23
779.721	84.31
779.903	205.14
780.085	31.06
780.267	125.27
780.449	63.83
780.631	22.87
780.812	182.61
780.994	-5.8
781.176	98.64
781.358	67.92
781.54	108.88
781.721	196.95
781.903	162.13
782.085	24.92
782.267	76.12
782.448	14.68
782.63	74.07
782.812	65.88
782.993	65.88
783.175	86.36
783.357	53.59
783.538	57.68
783.72	63.83
783.901	49.49
784.083	137.56
784.264	57.68
784.446	-32.43
784.627	6.49
784.809	166.23
784.99	-3.75
785.172	61.78
785.353	35.16
785.535	76.12
785.716	33.11
785.897	53.59
786.079	43.35
786.26	92.5
786.441	76.12
786.623	-65.19
786.804	26.96
786.985	59.73
787.167	37.2
787.348	43.35
787.529	35.16
787.71	170.32
787.891	121.17
788.073	22.87
788.254	-30.38
788.435	217.43
788.616	90.45
788.797	-71.34
788.978	0.34
789.159	72.02
789.34	35.16
789.522	10.58
789.703	90.45
789.884	96.6
790.065	86.36
790.246	205.14
790.427	102.74
790.607	184.66
790.788	65.88
790.969	-9.9
791.15	-5.8
791.331	82.26
791.512	51.54
791.693	-38.57
791.874	-7.85
792.054	160.08
792.235	96.6
792.416	-28.33
792.597	4.44
792.778	18.77
792.958	55.64
793.139	26.96
793.32	55.64
793.5	-34.47
793.681	119.12
793.862	26.96
794.042	-7.85
794.223	-42.67
794.404	-5.8
794.584	-30.38
794.765	35.16
794.945	119.12
795.126	84.31
795.306	65.88
795.487	-36.52
795.667	53.59
795.848	51.54
796.028	-13.99
796.209	24.92
796.389	92.5
796.57	-11.95
796.75	-57
796.93	20.82
797.111	-54.95
797.291	35.16
797.471	80.21
797.652	-11.95
797.832	14.68
798.012	72.02
798.192	8.53
798.373	-97.96
798.553	-34.47
798.733	115.03
798.913	14.68
799.093	-3.75
799.274	55.64
799.454	74.07
799.634	78.16
799.814	31.06
799.994	33.11
800.174	4.44
800.354	39.25
800.534	-63.15
800.714	135.51
800.894	-63.15
801.074	4.44
801.254	24.92
801.434	164.18
801.614	63.83
801.794	-50.86
801.974	1767.74
802.154	31.06
802.334	65.88
802.514	-54.95
802.693	-9.9
802.873	-9.9
803.053	133.46
803.233	24.92
803.413	59.73
803.592	29.01
803.772	-61.1
803.952	98.64
804.131	-36.52
804.311	112.98
804.491	67.92
804.67	53.59
804.85	-57
805.03	55.64
805.209	129.36
805.389	61.78
805.568	-24.23
805.748	-24.23
805.928	72.02
806.107	74.07
806.287	33.11
806.466	-9.9
806.646	-18.09
806.825	88.4
807.004	-7.85
807.184	59.73
807.363	76.12
807.543	-9.9
807.722	-22.19
807.901	90.45
808.081	57.68
808.26	-165.54
808.439	2.39
808.619	-3.75
808.798	-34.47
808.977	6.49
809.156	-28.33
809.336	94.55
809.515	45.4
809.694	-48.81
809.873	6.49
810.052	76.12
810.231	88.4
810.411	-5.8
810.59	74.07
810.769	-32.43
810.948	47.44
811.127	-44.71
811.306	-5.8
811.485	-57
811.664	153.94
811.843	8.53
812.022	-40.62
812.201	24.92
812.38	76.12
812.559	-30.38
812.737	51.54
812.916	-147.11
813.095	-69.29
813.274	18.77
813.453	55.64
813.632	-11.95
813.811	110.93
813.989	-114.34
814.168	78.16
814.347	-71.34
814.526	-26.28
814.704	127.32
814.883	108.88
815.062	16.73
815.24	59.73
815.419	31.06
815.598	37.2
815.776	-95.91
815.955	55.64
816.133	-114.34
816.312	4.44
816.49	-50.86
816.669	65.88
816.847	-38.57
817.026	78.16
817.204	31.06
817.383	22.87
817.561	-11.95
817.74	-13.99
817.918	65.88
818.097	-61.1
818.275	29.01
818.453	37.2
818.632	112.98
818.81	29.01
818.988	-20.14
819.167	-24.23
819.345	65.88
819.523	-1.71
819.701	82.26
819.879	53.59
820.058	-48.81
820.236	0.34
820.414	82.26
820.592	-18.09
820.77	35.16
820.948	-75.43
821.127	-71.34
821.305	67.92
821.483	-38.57
821.661	-20.14
821.839	22.87
822.017	-24.23
822.195	-1.71
822.373	69.97
822.551	57.68
822.729	41.3
822.907	-83.63
823.085	110.93
823.262	10.58
823.44	-44.71
823.618	-3.75
823.796	29.01
823.974	20.82
824.152	18.77
824.329	-81.58
824.507	-75.43
824.685	37.2
824.863	-59.05
825.04	2.39
825.218	72.02
825.396	26.96
825.574	4.44
825.751	31.06
825.929	92.5
826.107	-69.29
826.284	24.92
826.462	37.2
826.639	-124.58
826.817	-63.15
826.994	14.68
827.172	-81.58
827.349	96.6
827.527	43.35
827.704	43.35
827.882	104.79
828.059	-63.15
828.237	-9.9
828.414	26.96
828.591	-114.34
828.769	16.73
828.946	-59.05
829.124	125.27
829.301	106.84
829.478	-3.75
829.655	16.73
829.833	29.01
830.01	-104.11
830.187	-3.75
830.364	14.68
830.542	82.26
830.719	129.36
830.896	10.58
831.073	45.4
831.25	80.21
831.427	67.92
831.604	47.44
831.782	-24.23
831.959	-26.28
832.136	-22.19
832.313	16.73
832.49	-112.3
832.667	37.2
832.844	-108.2
833.021	90.45
833.198	63.83
833.374	-7.85
833.551	84.31
833.728	-26.28
833.905	63.83
834.082	-38.57
834.259	-11.95
834.436	98.64
834.612	-97.96
834.789	22.87
834.966	-54.95
835.143	69.97
835.319	-40.62
835.496	18.77
835.673	74.07
835.85	137.56
836.026	53.59
836.203	143.7
836.38	-93.87
836.556	24.92
836.733	-18.09
836.909	108.88
837.086	-71.34
837.262	-65.19
837.439	-44.71
837.616	-18.09
837.792	39.25
837.968	43.35
838.145	-91.82
838.321	-65.19
838.498	-18.09
838.674	78.16
838.851	14.68
839.027	-46.76
839.203	31.06
839.38	-9.9
839.556	-28.33
839.732	80.21
839.909	-50.86
840.085	33.11
840.261	-54.95
840.437	49.49
840.614	-13.99
840.79	37.2
840.966	86.36
841.142	63.83
841.318	43.35
841.494	100.69
841.671	98.64
841.847	-7.85
842.023	-52.91
842.199	18.77
842.375	145.75
842.551	-97.96
842.727	-63.15
842.903	84.31
843.079	-108.2
843.255	61.78
843.431	-30.38
843.607	35.16
843.783	-132.78
843.959	98.64
844.134	-36.52
844.31	137.56
844.486	-42.67
844.662	-30.38
844.838	86.36
845.013	90.45
845.189	147.8
845.365	76.12
845.541	-44.71
845.716	-44.71
845.892	31.06
846.068	-42.67
846.244	-44.71
846.419	10.58
846.595	-13.99
846.77	-30.38
846.946	96.6
847.122	-91.82
847.297	-61.1
847.473	158.03
847.648	-85.67
847.824	0.34
847.999	-7.85
848.175	61.78
848.35	61.78
848.526	84.31
848.701	29.01
848.876	67.92
849.052	74.07
849.227	31.06
849.403	-22.19
849.578	-1.71
849.753	-5.8
849.929	14.68
850.104	-18.09
850.279	-26.28
850.454	-50.86
850.63	10.58
850.805	-1.71
850.98	55.64
851.155	-65.19
851.33	72.02
851.505	-128.68
851.681	78.16
851.856	-65.19
852.031	-18.09
852.206	86.36
852.381	-48.81
852.556	-44.71
852.731	49.49
852.906	10.58
853.081	4.44
853.256	98.64
853.431	-18.09
853.606	-11.95
853.781	-50.86
853.956	-83.63
854.131	47.44
854.305	-9.9
854.48	-57
854.655	-59.05
854.83	-106.15
855.005	-5.8
855.18	24.92
855.354	-22.19
855.529	18.77
855.704	-11.95
855.879	-46.76
856.053	-20.14
856.228	82.26
856.403	-46.76
856.577	-11.95
856.752	-104.11
856.926	10.58
857.101	37.2
857.276	-54.95
857.45	-5.8
857.625	-20.14
857.799	24.92
857.974	-50.86
858.148	-57
858.323	14.68
858.497	8.53
858.672	-24.23
858.846	-48.81
859.02	53.59
859.195	-116.39
859.369	57.68
859.543	-42.67
859.718	78.16
859.892	-3.75
860.066	37.2
860.241	-71.34
860.415	-63.15
860.589	41.3
860.763	-61.1
860.938	-54.95
861.112	41.3
861.286	8.53
861.46	72.02
861.634	6.49
861.808	117.08
861.982	-11.95
862.157	-87.72
862.331	-1.71
862.505	-57
862.679	-61.1
862.853	-79.53
863.027	-1.71
863.201	102.74
863.375	-22.19
863.549	12.63
863.722	-24.23
863.896	84.31
864.07	-87.72
864.244	29.01
864.418	20.82
864.592	-24.23
864.766	-42.67
864.939	22.87
865.113	-50.86
865.287	41.3
865.461	-28.33
865.634	-28.33
865.808	-22.19
865.982	-52.91
866.156	-114.34
866.329	-59.05
866.503	88.4
866.676	49.49
866.85	20.82
867.024	-16.04
867.197	-32.43
867.371	26.96
867.544	-30.38
867.718	-65.19
867.891	108.88
868.065	-108.2
868.238	-46.76
868.412	110.93
868.585	-61.1
868.759	-3.75
868.932	-36.52
869.105	-69.29
869.279	26.96
869.452	-32.43
869.625	143.7
869.799	-114.34
869.972	-132.78
870.145	-75.43
870.319	106.84
870.492	35.16
870.665	-54.95
870.838	-71.34
871.011	-136.87
871.185	55.64
871.358	-7.85
871.531	8.53
871.704	-5.8
871.877	2.39
872.05	51.54
872.223	-93.87
872.396	47.44
872.569	39.25
872.742	-104.11
872.915	43.35
873.088	-32.43
873.261	-54.95
873.434	63.83
873.607	-59.05
873.78	141.65
873.953	-114.34
874.126	-28.33
874.299	8.53
874.471	-73.39
874.644	-5.8
874.817	37.2
874.99	94.55
875.163	-1.71
875.335	69.97
875.508	-73.39
875.681	108.88
875.853	-7.85
876.026	-28.33
876.199	-7.85
876.371	8.53
876.544	-46.76
876.717	-48.81
876.889	-65.19
877.062	-38.57
877.234	-89.77
877.407	-59.05
877.579	18.77
877.752	-30.38
877.924	104.79
878.097	2.39
878.269	-59.05
878.442	6.49
878.614	24.92
878.786	4.44
878.959	22.87
879.131	-36.52
879.303	-163.5
879.476	14.68
879.648	24.92
879.82	-18.09
879.993	-75.43
880.165	-57
880.337	-42.67
880.509	80.21
880.681	-59.05
880.854	-40.62
881.026	88.4
881.198	166.23
881.37	39.25
881.542	6.49
881.714	22.87
881.886	-69.29
882.058	12.63
882.23	-22.19
882.402	26.96
882.574	0.34
882.746	80.21
882.918	139.6
883.09	12.63
883.262	-57
883.434	-24.23
883.606	-89.77
883.778	-26.28
883.95	149.84
884.122	-50.86
884.293	41.3
884.465	33.11
884.637	-65.19
884.809	-40.62
884.98	26.96
885.152	72.02
885.324	102.74
885.496	-122.54
885.667	69.97
885.839	8.53
886.011	127.32
886.182	2.39
886.354	72.02
886.525	29.01
886.697	-50.86
886.869	-118.44
887.04	-36.52
887.212	45.4
887.383	123.22
887.555	8.53
887.726	-102.06
887.897	-13.99
888.069	10.58
888.24	59.73
888.412	18.77
888.583	-26.28
888.754	18.77
888.926	-93.87
889.097	-48.81
889.268	-118.44
889.44	-22.19
889.611	-59.05
889.782	-54.95
889.953	-63.15
890.125	139.6
890.296	-34.47
890.467	-7.85
890.638	24.92
890.809	-40.62
890.98	-85.67
891.151	33.11
891.323	119.12
891.494	-48.81
891.665	-26.28
891.836	-69.29
892.007	-18.09
892.178	61.78
892.349	45.4
892.52	-52.91
892.691	-18.09
892.862	-50.86
893.032	-73.39
893.203	-38.57
893.374	35.16
893.545	82.26
893.716	-91.82
893.887	24.92
894.057	-57
894.228	-30.38
894.399	-73.39
894.57	92.5
894.74	-28.33
894.911	123.22
895.082	2.39
895.253	-48.81
895.423	-3.75
895.594	67.92
895.764	-1.71
895.935	-75.43
896.106	14.68
896.276	-71.34
896.447	16.73
896.617	-138.92
896.788	-95.91
896.958	-95.91
897.129	-52.91
897.299	-16.04
897.47	-7.85
897.64	10.58
897.81	-26.28
897.981	-46.76
898.151	-30.38
898.322	82.26
898.492	0.34
898.662	-108.2
898.832	37.2
899.003	-42.67
899.173	-9.9
899.343	-132.78
899.513	-85.67
