Data from USB4F104151__46__09-27-59-405.txt Node

Date: Wed Feb 26 09:27:59 EST 2025
User: louis
Spectrometer: USB4F10415
Trigger mode: 4
Integration Time (sec): 1.000000E-1
Scans to average: 1
Electric dark correction enabled: true
Nonlinearity correction enabled: false
Boxcar width: 0
XAxis mode: Wavelengths
Number of Pixels in Spectrum: 3648
>>>>>Begin Spectral Data<<<<<
178.204	-342.69
178.424	-342.69
178.644	-342.69
178.864	-340.65
179.084	-326.31
179.304	-62.12
179.524	1.37
179.744	109.91
179.964	85.33
180.184	-8.87
180.404	9.56
180.624	25.94
180.844	-17.07
181.064	-21.16
181.283	-53.93
181.503	-62.12
181.723	-6.83
181.943	-72.36
182.163	173.39
182.383	-31.4
182.602	36.18
182.822	107.86
183.042	64.85
183.262	44.37
183.482	66.9
183.701	73.04
183.921	142.68
184.141	-51.88
184.361	81.24
184.58	128.34
184.8	44.37
185.02	66.9
185.239	122.2
185.459	52.56
185.679	142.68
185.898	-62.12
186.118	32.08
186.338	73.04
186.557	130.39
186.777	-15.02
186.997	11.61
187.216	81.24
187.436	185.68
187.655	68.95
187.875	105.81
188.095	42.32
188.314	138.58
188.534	50.52
188.753	52.56
188.973	42.32
189.192	206.16
189.412	44.37
189.631	17.75
189.851	154.96
190.07	267.6
190.29	-19.11
190.509	23.89
190.729	118.1
190.948	118.1
191.168	255.31
191.387	105.81
191.607	101.72
191.826	85.33
192.045	85.33
192.265	60.76
192.484	-0.68
192.704	89.43
192.923	23.89
193.142	175.44
193.362	118.1
193.581	118.1
193.8	111.96
194.02	56.66
194.239	91.48
194.458	165.2
194.678	30.04
194.897	48.47
195.116	138.58
195.335	64.85
195.555	85.33
195.774	81.24
195.993	107.86
196.212	60.76
196.432	38.23
196.651	36.18
196.87	25.94
197.089	232.79
197.308	116.05
197.528	48.47
197.747	38.23
197.966	81.24
198.185	240.98
198.404	-0.68
198.623	91.48
198.842	130.39
199.062	132.44
199.281	159.06
199.5	42.32
199.719	13.65
199.938	56.66
200.157	114
200.376	157.01
200.595	128.34
200.814	48.47
201.033	21.84
201.252	118.1
201.471	126.29
201.69	144.72
201.909	19.8
202.128	179.54
202.347	101.72
202.566	40.28
202.785	7.51
203.004	1.37
203.223	204.11
203.442	11.61
203.661	9.56
203.879	95.57
204.098	122.2
204.317	3.41
204.536	130.39
204.755	44.37
204.974	140.63
205.193	23.89
205.411	134.48
205.63	120.15
205.849	126.29
206.068	36.18
206.287	60.76
206.505	134.48
206.724	81.24
206.943	-0.68
207.162	-10.92
207.381	128.34
207.599	7.51
207.818	11.61
208.037	23.89
208.255	64.85
208.474	46.42
208.693	120.15
208.911	27.99
209.13	101.72
209.349	87.38
209.567	77.14
209.786	171.35
210.005	91.48
210.223	52.56
210.442	1.37
210.661	77.14
210.879	83.28
211.098	-27.31
211.316	105.81
211.535	64.85
211.753	36.18
211.972	56.66
212.191	66.9
212.409	-0.68
212.628	97.62
212.846	-17.07
213.065	81.24
213.283	171.35
213.502	77.14
213.72	73.04
213.938	62.8
214.157	25.94
214.375	107.86
214.594	32.08
214.812	11.61
215.031	105.81
215.249	52.56
215.467	71
215.686	32.08
215.904	89.43
216.122	60.76
216.341	118.1
216.559	97.62
216.778	167.25
216.996	177.49
217.214	89.43
217.432	-4.78
217.651	44.37
217.869	71
218.087	-8.87
218.306	30.04
218.524	64.85
218.742	81.24
218.96	97.62
219.179	25.94
219.397	32.08
219.615	224.59
219.833	116.05
220.051	-47.79
220.27	85.33
220.488	154.96
220.706	126.29
220.924	66.9
221.142	32.08
221.36	34.13
221.578	122.2
221.796	79.19
222.015	109.91
222.233	91.48
222.451	152.91
222.669	17.75
222.887	87.38
223.105	109.91
223.323	-8.87
223.541	-2.73
223.759	71
223.977	52.56
224.195	118.1
224.413	97.62
224.631	118.1
224.849	77.14
225.067	200.02
225.285	52.56
225.503	-0.68
225.721	-12.97
225.939	68.95
226.157	126.29
226.375	208.21
226.592	-8.87
226.81	68.95
227.028	132.44
227.246	134.48
227.464	132.44
227.682	179.54
227.9	38.23
228.117	79.19
228.335	138.58
228.553	77.14
228.771	89.43
228.989	71
229.206	157.01
229.424	-19.11
229.642	11.61
229.86	-49.83
230.077	-4.78
230.295	-12.97
230.513	68.95
230.731	81.24
230.948	144.72
231.166	75.09
231.384	25.94
231.601	-21.16
231.819	169.3
232.037	50.52
232.254	9.56
232.472	99.67
232.689	52.56
232.907	111.96
233.125	50.52
233.342	-70.31
233.56	19.8
233.777	21.84
233.995	40.28
234.213	200.02
234.43	32.08
234.648	3.41
234.865	71
235.083	-0.68
235.3	105.81
235.518	97.62
235.735	177.49
235.953	46.42
236.17	56.66
236.388	38.23
236.605	27.99
236.822	134.48
237.04	142.68
237.257	36.18
237.475	-17.07
237.692	81.24
237.909	103.76
238.127	23.89
238.344	99.67
238.562	48.47
238.779	-41.64
238.996	21.84
239.214	62.8
239.431	75.09
239.648	36.18
239.865	97.62
240.083	77.14
240.3	-29.35
240.517	34.13
240.735	99.67
240.952	126.29
241.169	71
241.386	48.47
241.603	38.23
241.821	-0.68
242.038	83.28
242.255	79.19
242.472	21.84
242.689	81.24
242.907	114
243.124	77.14
243.341	-49.83
243.558	32.08
243.775	58.71
243.992	-21.16
244.209	126.29
244.426	142.68
244.643	111.96
244.86	68.95
245.078	93.52
245.295	93.52
245.512	97.62
245.729	13.65
245.946	30.04
246.163	44.37
246.38	42.32
246.597	89.43
246.814	122.2
247.031	105.81
247.248	58.71
247.464	114
247.681	68.95
247.898	58.71
248.115	73.04
248.332	58.71
248.549	163.15
248.766	148.82
248.983	54.61
249.2	50.52
249.417	101.72
249.633	66.9
249.85	95.57
250.067	77.14
250.284	40.28
250.501	56.66
250.717	93.52
250.934	-12.97
251.151	-4.78
251.368	48.47
251.585	36.18
251.801	83.28
252.018	23.89
252.235	185.68
252.451	-4.78
252.668	64.85
252.885	97.62
253.102	77.14
253.318	34.13
253.535	66.9
253.752	15.7
253.968	-21.16
254.185	44.37
254.401	103.76
254.618	73.04
254.835	54.61
255.051	142.68
255.268	75.09
255.484	58.71
255.701	42.32
255.917	93.52
256.134	48.47
256.351	97.62
256.567	44.37
256.784	85.33
257	25.94
257.217	107.86
257.433	56.66
257.65	107.86
257.866	146.77
258.082	-41.64
258.299	-6.83
258.515	93.52
258.732	52.56
258.948	21.84
259.165	64.85
259.381	87.38
259.597	101.72
259.814	-6.83
260.03	83.28
260.246	-4.78
260.463	171.35
260.679	167.25
260.895	79.19
261.112	114
261.328	19.8
261.544	118.1
261.761	206.16
261.977	-39.59
262.193	-6.83
262.409	111.96
262.626	134.48
262.842	68.95
263.058	-15.02
263.274	75.09
263.49	101.72
263.707	56.66
263.923	107.86
264.139	-84.65
264.355	50.52
264.571	85.33
264.787	68.95
265.004	159.06
265.22	68.95
265.436	-6.83
265.652	13.65
265.868	97.62
266.084	-62.12
266.3	-0.68
266.516	103.76
266.732	42.32
266.948	-2.73
267.164	42.32
267.38	116.05
267.596	44.37
267.812	126.29
268.028	42.32
268.244	-21.16
268.46	60.76
268.676	21.84
268.892	124.24
269.108	1.37
269.324	38.23
269.54	-49.83
269.756	107.86
269.972	75.09
270.188	75.09
270.403	62.8
270.619	19.8
270.835	66.9
271.051	1.37
271.267	34.13
271.483	64.85
271.698	89.43
271.914	116.05
272.13	25.94
272.346	9.56
272.562	93.52
272.777	124.24
272.993	52.56
273.209	-35.5
273.425	87.38
273.64	-96.94
273.856	23.89
274.072	9.56
274.287	46.42
274.503	77.14
274.719	83.28
274.934	66.9
275.15	-62.12
275.366	60.76
275.581	21.84
275.797	21.84
276.012	25.94
276.228	36.18
276.444	64.85
276.659	142.68
276.875	-78.51
277.09	105.81
277.306	99.67
277.521	48.47
277.737	75.09
277.952	54.61
278.168	60.76
278.383	85.33
278.599	85.33
278.814	128.34
279.03	101.72
279.245	142.68
279.461	130.39
279.676	87.38
279.892	-10.92
280.107	-35.5
280.322	25.94
280.538	68.95
280.753	-25.26
280.969	75.09
281.184	27.99
281.399	87.38
281.615	42.32
281.83	144.72
282.045	1.37
282.26	56.66
282.476	77.14
282.691	140.63
282.906	132.44
283.122	85.33
283.337	-4.78
283.552	118.1
283.767	-8.87
283.983	97.62
284.198	-41.64
284.413	105.81
284.628	-31.4
284.843	-45.74
285.058	109.91
285.274	36.18
285.489	-58.03
285.704	3.41
285.919	42.32
286.134	7.51
286.349	50.52
286.564	62.8
286.779	138.58
286.995	75.09
287.21	-53.93
287.425	91.48
287.64	11.61
287.855	73.04
288.07	-53.93
288.285	89.43
288.5	126.29
288.715	58.71
288.93	48.47
289.145	19.8
289.36	109.91
289.575	21.84
289.79	148.82
290.004	34.13
290.219	118.1
290.434	44.37
290.649	44.37
290.864	27.99
291.079	89.43
291.294	58.71
291.509	111.96
291.724	-33.45
291.938	54.61
292.153	130.39
292.368	17.75
292.583	124.24
292.798	75.09
293.012	60.76
293.227	87.38
293.442	-4.78
293.657	124.24
293.871	152.91
294.086	38.23
294.301	230.74
294.516	146.77
294.73	64.85
294.945	-62.12
295.16	30.04
295.374	167.25
295.589	81.24
295.804	50.52
296.018	101.72
296.233	191.83
296.447	44.37
296.662	56.66
296.877	132.44
297.091	89.43
297.306	126.29
297.52	77.14
297.735	89.43
297.949	159.06
298.164	17.75
298.378	79.19
298.593	60.76
298.807	-41.64
299.022	48.47
299.236	177.49
299.451	40.28
299.665	-0.68
299.88	32.08
300.094	134.48
300.309	64.85
300.523	54.61
300.737	9.56
300.952	81.24
301.166	83.28
301.381	-60.07
301.595	-58.03
301.809	32.08
302.024	66.9
302.238	30.04
302.452	111.96
302.667	101.72
302.881	175.44
303.095	101.72
303.309	91.48
303.524	81.24
303.738	105.81
303.952	9.56
304.166	13.65
304.381	-55.98
304.595	177.49
304.809	25.94
305.023	25.94
305.237	21.84
305.452	101.72
305.666	109.91
305.88	132.44
306.094	30.04
306.308	58.71
306.522	138.58
306.736	128.34
306.95	79.19
307.164	40.28
307.379	-47.79
307.593	93.52
307.807	157.01
308.021	109.91
308.235	42.32
308.449	-98.99
308.663	107.86
308.877	157.01
309.091	-21.16
309.305	-12.97
309.519	-55.98
309.733	193.87
309.947	-4.78
310.161	118.1
310.374	60.76
310.588	40.28
310.802	32.08
311.016	-29.35
311.23	-4.78
311.444	-12.97
311.658	48.47
311.872	95.57
312.085	99.67
312.299	122.2
312.513	181.59
312.727	128.34
312.941	85.33
313.154	93.52
313.368	66.9
313.582	-82.6
313.796	154.96
314.009	40.28
314.223	109.91
314.437	44.37
314.651	75.09
314.864	30.04
315.078	134.48
315.292	30.04
315.505	23.89
315.719	107.86
315.933	9.56
316.146	32.08
316.36	-0.68
316.573	134.48
316.787	32.08
317.001	116.05
317.214	3.41
317.428	73.04
317.641	-8.87
317.855	-33.45
318.068	21.84
318.282	75.09
318.495	173.39
318.709	109.91
318.922	83.28
319.136	97.62
319.349	152.91
319.563	9.56
319.776	46.42
319.99	-25.26
320.203	122.2
320.417	79.19
320.63	118.1
320.843	150.87
321.057	101.72
321.27	77.14
321.483	118.1
321.697	136.53
321.91	56.66
322.124	68.95
322.337	52.56
322.55	58.71
322.763	52.56
322.977	87.38
323.19	-6.83
323.403	30.04
323.617	75.09
323.83	200.02
324.043	15.7
324.256	46.42
324.469	-23.21
324.683	114
324.896	126.29
325.109	91.48
325.322	-21.16
325.535	81.24
325.748	138.58
325.962	38.23
326.175	64.85
326.388	52.56
326.601	48.47
326.814	-15.02
327.027	-12.97
327.24	195.92
327.453	-4.78
327.666	150.87
327.879	118.1
328.092	11.61
328.305	103.76
328.518	99.67
328.731	56.66
328.944	9.56
329.157	134.48
329.37	62.8
329.583	140.63
329.796	142.68
330.009	-45.74
330.222	144.72
330.435	105.81
330.648	83.28
330.861	77.14
331.073	36.18
331.286	85.33
331.499	91.48
331.712	42.32
331.925	79.19
332.138	130.39
332.35	122.2
332.563	-12.97
332.776	144.72
332.989	21.84
333.202	64.85
333.414	81.24
333.627	44.37
333.84	-53.93
334.053	42.32
334.265	19.8
334.478	36.18
334.691	64.85
334.903	83.28
335.116	9.56
335.329	9.56
335.541	81.24
335.754	126.29
335.966	32.08
336.179	17.75
336.392	118.1
336.604	79.19
336.817	171.35
337.029	71
337.242	58.71
337.454	-10.92
337.667	27.99
337.88	171.35
338.092	64.85
338.305	30.04
338.517	-10.92
338.729	165.2
338.942	159.06
339.154	-82.6
339.367	-58.03
339.579	68.95
339.792	-43.69
340.004	103.76
340.217	89.43
340.429	58.71
340.641	27.99
340.854	-6.83
341.066	68.95
341.278	167.25
341.491	210.26
341.703	93.52
341.915	42.32
342.128	85.33
342.34	15.7
342.552	38.23
342.764	5.46
342.977	79.19
343.189	114
343.401	103.76
343.613	-21.16
343.826	27.99
344.038	19.8
344.25	71
344.462	19.8
344.674	91.48
344.886	77.14
345.099	114
345.311	126.29
345.523	27.99
345.735	-74.41
345.947	17.75
346.159	13.65
346.371	157.01
346.583	48.47
346.795	150.87
347.007	-4.78
347.219	42.32
347.431	44.37
347.643	154.96
347.855	44.37
348.067	142.68
348.279	-25.26
348.491	81.24
348.703	140.63
348.915	-78.51
349.127	56.66
349.339	109.91
349.551	50.52
349.763	146.77
349.975	73.04
350.187	77.14
350.399	122.2
350.61	-21.16
350.822	-15.02
351.034	79.19
351.246	99.67
351.458	101.72
351.669	89.43
351.881	169.3
352.093	157.01
352.305	103.76
352.517	197.97
352.728	142.68
352.94	17.75
353.152	122.2
353.363	15.7
353.575	154.96
353.787	238.93
353.999	120.15
354.21	122.2
354.422	-21.16
354.633	11.61
354.845	73.04
355.057	17.75
355.268	93.52
355.48	142.68
355.692	34.13
355.903	13.65
356.115	83.28
356.326	-43.69
356.538	154.96
356.749	101.72
356.961	81.24
357.172	97.62
357.384	38.23
357.595	202.07
357.807	-2.73
358.018	75.09
358.23	68.95
358.441	101.72
358.653	60.76
358.864	1.37
359.075	-23.21
359.287	19.8
359.498	169.3
359.709	111.96
359.921	-41.64
360.132	89.43
360.344	11.61
360.555	9.56
360.766	66.9
360.977	64.85
361.189	130.39
361.4	19.8
361.611	171.35
361.823	118.1
362.034	83.28
362.245	-121.51
362.456	-19.11
362.667	165.2
362.879	-12.97
363.09	116.05
363.301	136.53
363.512	15.7
363.723	132.44
363.935	52.56
364.146	48.47
364.357	44.37
364.568	111.96
364.779	-8.87
364.99	124.24
365.201	81.24
365.412	91.48
365.623	-23.21
365.834	5.46
366.045	75.09
366.256	79.19
366.467	68.95
366.678	-6.83
366.889	36.18
367.1	-25.26
367.311	216.4
367.522	46.42
367.733	81.24
367.944	97.62
368.155	34.13
368.366	81.24
368.577	99.67
368.788	103.76
368.999	64.85
369.209	81.24
369.42	177.49
369.631	197.97
369.842	87.38
370.053	9.56
370.264	191.83
370.474	-39.59
370.685	97.62
370.896	11.61
371.107	185.68
371.317	142.68
371.528	-25.26
371.739	128.34
371.95	73.04
372.16	126.29
372.371	-23.21
372.582	15.7
372.792	46.42
373.003	77.14
373.214	54.61
373.424	27.99
373.635	91.48
373.846	171.35
374.056	109.91
374.267	64.85
374.477	77.14
374.688	27.99
374.898	97.62
375.109	66.9
375.319	19.8
375.53	124.24
375.74	87.38
375.951	118.1
376.161	83.28
376.372	148.82
376.582	-8.87
376.793	109.91
377.003	91.48
377.214	83.28
377.424	130.39
377.635	62.8
377.845	34.13
378.055	177.49
378.266	23.89
378.476	40.28
378.686	44.37
378.897	109.91
379.107	46.42
379.317	68.95
379.528	36.18
379.738	99.67
379.948	3.41
380.158	60.76
380.369	118.1
380.579	93.52
380.789	71
380.999	19.8
381.21	105.81
381.42	187.73
381.63	7.51
381.84	169.3
382.05	148.82
382.261	105.81
382.471	150.87
382.681	-6.83
382.891	126.29
383.101	146.77
383.311	-41.64
383.521	-4.78
383.731	167.25
383.941	101.72
384.151	44.37
384.361	60.76
384.571	97.62
384.781	34.13
384.991	148.82
385.201	247.12
385.411	99.67
385.621	79.19
385.831	81.24
386.041	58.71
386.251	38.23
386.461	144.72
386.671	21.84
386.881	118.1
387.091	44.37
387.301	116.05
387.511	36.18
387.72	171.35
387.93	146.77
388.14	-23.21
388.35	32.08
388.56	134.48
388.769	99.67
388.979	38.23
389.189	107.86
389.399	-6.83
389.609	122.2
389.818	101.72
390.028	-15.02
390.238	50.52
390.447	-15.02
390.657	81.24
390.867	-60.07
391.076	-17.07
391.286	46.42
391.496	42.32
391.705	-8.87
391.915	132.44
392.125	103.76
392.334	15.7
392.544	54.61
392.753	54.61
392.963	34.13
393.172	38.23
393.382	-2.73
393.591	167.25
393.801	60.76
394.01	142.68
394.22	52.56
394.429	58.71
394.639	85.33
394.848	81.24
395.058	44.37
395.267	73.04
395.477	122.2
395.686	68.95
395.895	142.68
396.105	210.26
396.314	150.87
396.524	-45.74
396.733	64.85
396.942	85.33
397.152	79.19
397.361	81.24
397.57	114
397.78	91.48
397.989	97.62
398.198	200.02
398.407	71
398.617	50.52
398.826	91.48
399.035	50.52
399.244	161.11
399.453	64.85
399.663	34.13
399.872	136.53
400.081	-64.17
400.29	134.48
400.499	-45.74
400.708	91.48
400.917	7.51
401.127	89.43
401.336	-45.74
401.545	189.78
401.754	193.87
401.963	79.19
402.172	-31.4
402.381	11.61
402.59	114
402.799	79.19
403.008	148.82
403.217	101.72
403.426	97.62
403.635	-39.59
403.844	-43.69
404.053	101.72
404.262	-4.78
404.471	181.59
404.68	52.56
404.888	50.52
405.097	73.04
405.306	52.56
405.515	116.05
405.724	77.14
405.933	93.52
406.142	105.81
406.35	146.77
406.559	75.09
406.768	27.99
406.977	154.96
407.185	62.8
407.394	91.48
407.603	44.37
407.812	118.1
408.02	167.25
408.229	68.95
408.438	25.94
408.646	64.85
408.855	66.9
409.064	109.91
409.272	101.72
409.481	32.08
409.69	-51.88
409.898	89.43
410.107	52.56
410.315	159.06
410.524	-60.07
410.733	52.56
410.941	85.33
411.15	36.18
411.358	118.1
411.567	179.54
411.775	81.24
411.984	48.47
412.192	134.48
412.401	66.9
412.609	138.58
412.818	175.44
413.026	136.53
413.234	-27.31
413.443	60.76
413.651	50.52
413.86	9.56
414.068	165.2
414.276	154.96
414.485	81.24
414.693	148.82
414.901	161.11
415.11	126.29
415.318	68.95
415.526	27.99
415.734	103.76
415.943	107.86
416.151	134.48
416.359	9.56
416.567	167.25
416.776	173.39
416.984	81.24
417.192	163.15
417.4	101.72
417.608	77.14
417.817	-23.21
418.025	109.91
418.233	114
418.441	73.04
418.649	116.05
418.857	83.28
419.065	173.39
419.273	-21.16
419.481	54.61
419.689	13.65
419.897	48.47
420.105	32.08
420.313	204.11
420.521	169.3
420.729	103.76
420.937	19.8
421.145	-4.78
421.353	208.21
421.561	99.67
421.769	122.2
421.977	34.13
422.185	60.76
422.393	15.7
422.601	130.39
422.809	89.43
423.017	21.84
423.224	32.08
423.432	105.81
423.64	56.66
423.848	126.29
424.056	60.76
424.263	200.02
424.471	52.56
424.679	179.54
424.887	32.08
425.094	142.68
425.302	50.52
425.51	62.8
425.718	93.52
425.925	56.66
426.133	85.33
426.341	195.92
426.548	103.76
426.756	19.8
426.964	50.52
427.171	-25.26
427.379	118.1
427.586	68.95
427.794	130.39
428.001	187.73
428.209	124.24
428.417	232.79
428.624	150.87
428.832	154.96
429.039	206.16
429.247	77.14
429.454	183.63
429.662	204.11
429.869	95.57
430.076	150.87
430.284	179.54
430.491	238.93
430.699	150.87
430.906	202.07
431.114	152.91
431.321	173.39
431.528	105.81
431.736	81.24
431.943	169.3
432.15	68.95
432.358	216.4
432.565	286.03
432.772	52.56
432.979	273.75
433.187	97.62
433.394	208.21
433.601	157.01
433.808	216.4
434.016	257.36
434.223	177.49
434.43	157.01
434.637	208.21
434.844	310.61
435.052	200.02
435.259	288.08
435.466	224.59
435.673	302.42
435.88	290.13
436.087	345.42
436.294	388.43
436.501	349.52
436.708	298.32
436.915	302.42
437.122	304.46
437.329	277.84
437.537	374.1
437.743	286.03
437.95	408.91
438.157	433.49
438.364	349.52
438.571	374.1
438.778	404.82
438.985	449.87
439.192	503.12
439.399	468.3
439.606	509.26
439.813	535.89
440.02	593.23
440.227	771.4
440.433	556.36
440.64	519.5
440.847	503.12
441.054	529.74
441.261	634.19
441.467	558.41
441.674	585.04
441.881	752.97
442.088	626
442.294	683.34
442.501	748.87
442.708	847.18
442.914	712.01
443.121	798.03
443.328	826.7
443.534	974.15
443.741	902.47
443.948	857.42
444.154	951.62
444.361	1107.27
444.568	1056.07
444.774	965.96
444.981	1011.01
445.187	1191.24
445.394	1135.94
445.6	1109.32
445.807	1316.16
446.013	1285.44
446.22	1195.33
446.426	1428.8
446.633	1477.95
446.839	1629.5
447.046	1379.65
447.252	1682.75
447.459	1668.41
447.665	1674.56
447.871	1799.48
448.078	1908.02
448.284	1883.45
448.491	2000.18
448.697	2057.53
448.903	2198.84
449.11	2098.49
449.316	2202.93
449.522	2288.95
449.728	2407.73
449.935	2501.94
450.141	2417.97
450.347	2735.4
450.553	2600.24
450.76	2645.29
450.966	2878.76
451.172	2891.05
451.378	3015.98
451.584	3151.14
451.791	3370.27
451.997	3511.58
452.203	3505.44
452.409	3665.18
452.615	3792.16
452.821	3738.91
453.027	3716.38
453.233	4379.92
453.44	4158.74
453.646	4361.49
453.852	4525.33
454.058	4640.01
454.264	4861.2
454.47	5238.02
454.676	5164.29
454.882	5592.32
455.088	5377.28
455.294	5735.68
455.5	6126.84
455.705	6481.14
455.911	6493.43
456.117	6825.2
456.323	6814.96
456.529	6755.57
456.735	7386.34
456.941	7623.9
457.147	7855.33
457.352	7976.16
457.558	8258.78
457.764	8781.01
457.97	8944.84
458.176	9551.04
458.381	10040.51
458.587	10200.25
458.793	10570.93
458.999	10556.6
459.204	11955.36
459.41	12168.35
459.616	11959.45
459.821	13040.78
460.027	13321.35
460.233	14040.19
460.438	13972.61
460.644	14597.24
460.85	14720.12
461.055	15557.74
461.261	16235.61
461.466	15793.25
461.672	16254.05
461.878	18041.92
462.083	18078.79
462.289	18285.63
462.494	19078.19
462.7	19239.98
462.905	19434.54
463.111	20802.58
463.316	21863.43
463.522	22574.08
463.727	23239.67
463.932	24091.62
464.138	24808.41
464.343	25822.16
464.549	26123.21
464.754	28007.34
464.959	28494.75
465.165	28908.44
465.37	28771.23
465.575	28599.2
465.781	30665.6
465.986	31941.49
466.191	31052.67
466.397	31611.76
466.602	30788.48
466.807	32668.51
467.012	33178.46
467.218	33960.78
467.423	33506.13
467.628	34593.61
467.833	36188.97
468.038	35793.72
468.244	34790.21
468.449	37047.07
468.654	36043.57
468.859	36170.54
469.064	36444.97
469.269	35115.84
469.474	35857.2
469.679	36952.87
469.885	35765.04
470.09	36055.86
470.295	36102.96
470.5	35334.97
470.705	35418.94
470.91	34653
471.115	34569.03
471.32	34911.04
471.525	34550.6
471.73	33264.47
471.935	33180.51
472.139	31974.25
472.344	32734.05
472.549	32375.66
472.754	31413.11
472.959	30686.08
473.164	29868.94
473.369	29059.99
473.574	30233.48
473.778	29442.96
473.983	28775.33
474.188	28296.1
474.393	27253.69
474.598	26964.92
474.802	26311.62
475.007	26037.19
475.212	25875.4
475.417	24894.43
475.621	24466.4
475.826	24517.6
476.031	23864.3
476.235	23139.32
476.44	23264.24
476.645	22688.76
476.849	22150.15
477.054	21928.97
477.259	21609.48
477.463	21640.2
477.668	20999.19
477.872	21083.16
478.077	20468.76
478.282	19682.34
478.486	19702.82
478.691	19319.85
478.895	19133.49
479.1	19315.76
479.304	19170.35
479.509	18527.29
479.713	18660.41
479.918	18060.35
480.122	17761.35
480.326	17906.76
480.531	17892.42
480.735	17697.86
480.94	17433.68
481.144	17943.62
481.348	16976.98
481.553	17081.42
481.757	16624.73
481.961	16737.37
482.166	16968.79
482.37	17108.05
482.574	16346.2
482.778	16135.26
482.983	16442.46
483.187	16305.24
483.391	15987.81
483.595	15877.22
483.8	15375.47
484.004	15518.82
484.208	15481.96
484.412	15389.8
484.616	15055.98
484.821	14945.39
485.025	14308.47
485.229	14599.29
485.433	14398.59
485.637	14326.91
485.841	14142.59
486.045	13704.32
486.249	13651.08
486.453	13212.81
486.657	13237.39
486.861	13210.76
487.065	12688.53
487.269	12743.83
487.473	12285.08
487.677	12264.6
487.881	12350.62
488.085	11945.12
488.289	11916.45
488.493	11586.72
488.697	11551.91
488.901	11136.17
489.105	11138.22
489.309	10912.94
489.512	10759.35
489.716	10484.92
489.92	10353.85
490.124	10120.38
490.328	10097.85
490.531	9782.46
490.735	9811.14
490.939	9303.24
491.143	9065.67
491.346	9227.46
491.55	9110.73
491.754	8813.77
491.958	8760.53
492.161	8744.14
492.365	8555.73
492.569	8117.47
492.772	8226.01
492.976	8209.62
493.18	8023.26
493.383	7965.92
493.587	7771.36
493.79	7974.11
493.994	7427.3
494.197	7482.6
494.401	7640.29
494.605	7355.62
494.808	7292.13
495.012	7204.07
495.215	7146.73
495.419	7367.91
495.622	6995.18
495.825	6980.84
496.029	6753.52
496.232	6978.79
496.436	6900.97
496.639	7142.63
496.843	7138.54
497.046	6966.51
497.249	7087.34
497.453	6900.97
497.656	7116.01
497.859	6860.01
498.063	7230.69
498.266	7281.89
498.469	6933.74
498.673	7073
498.876	7218.41
499.079	7023.85
499.282	7124.2
499.485	7468.26
499.689	7392.48
499.892	7339.24
500.095	7285.99
500.298	7400.68
500.501	7259.37
500.705	7470.31
500.908	7593.19
501.111	7619.81
501.314	7666.91
501.517	7845.09
501.72	7673.06
501.923	7638.24
502.126	8004.83
502.329	8232.15
502.532	8183
502.735	8170.71
502.938	8373.46
503.141	8322.26
503.344	8486.1
503.547	8670.42
503.75	8651.99
503.953	8580.31
504.156	8899.79
504.359	8922.32
504.562	9114.83
504.765	9329.86
504.968	9368.77
505.17	9628.87
505.373	9784.51
505.576	9946.3
505.779	10024.12
505.982	10073.28
506.185	10343.61
506.387	10450.1
506.59	10663.09
506.793	10847.41
506.996	10941.61
507.198	11453.61
507.401	11568.29
507.604	11826.34
507.807	11979.93
508.009	12135.58
508.212	12371.1
508.415	12594.33
508.617	12928.14
508.82	13286.54
509.022	13071.5
509.225	13595.78
509.428	13978.75
509.63	14150.78
509.833	14496.89
510.035	15201.39
510.238	15156.33
510.44	15117.42
510.643	15727.72
510.845	16139.36
511.048	16309.34
511.25	17058.9
511.453	17339.47
511.655	17693.77
511.858	18199.62
512.06	18789.43
512.262	18861.11
512.465	18957.36
512.667	19381.29
512.87	20153.38
513.072	20392.99
513.274	21122.07
513.477	21246.99
513.679	21986.31
513.881	22555.65
514.084	22926.33
514.286	23231.47
514.488	23581.68
514.69	24427.49
514.893	25191.38
515.095	25297.88
515.297	25693.13
515.499	26495.94
515.701	26741.69
515.904	27818.92
516.106	28230.57
516.308	28591.01
516.51	29479.83
516.712	29477.78
516.914	30585.73
517.116	31052.67
517.318	31259.51
517.52	32172.91
517.722	32746.34
517.925	33545.05
518.127	34050.89
518.329	34538.31
518.531	35068.73
518.733	36035.38
518.935	36451.11
519.136	36764.45
519.338	37765.91
519.54	37823.25
519.742	38648.58
519.944	39047.94
520.146	39992.05
520.348	40702.7
520.55	40915.68
520.752	41100
520.954	42083.03
521.155	42103.51
521.357	42580.68
521.559	43573.95
521.761	44440.24
521.963	44393.14
522.164	44731.05
522.366	44997.29
522.568	45568.67
522.77	45822.62
522.971	46764.68
523.173	46541.46
523.375	47125.13
523.576	46926.47
523.778	47092.36
523.98	47760
524.181	47813.24
524.383	47981.18
524.584	48730.73
524.786	48661.1
524.988	48099.96
525.189	48630.38
525.391	48804.46
525.592	48996.97
525.794	48923.24
525.995	48886.38
526.197	48841.32
526.398	48853.61
526.6	49128.04
526.801	49064.55
527.003	48822.89
527.204	48740.97
527.406	48431.73
527.607	48429.68
527.808	48134.77
528.01	47133.32
528.211	47305.35
528.412	48081.53
528.614	47489.66
528.815	46584.46
529.016	46611.09
529.218	46121.62
529.419	45660.83
529.62	45249.19
529.822	45161.12
530.023	44561.07
530.224	44540.59
530.425	43991.73
530.626	43590.33
530.828	42668.75
531.029	43446.97
531.23	42195.67
531.431	41790.17
531.632	41333.47
531.833	41171.68
532.035	40694.5
532.236	39922.42
532.437	39820.02
532.638	38834.95
532.839	39006.98
533.04	38384.4
533.241	37112.61
533.442	37845.78
533.643	36780.84
533.844	36584.23
534.045	36074.29
534.246	34997.06
534.447	35267.39
534.648	34583.37
534.849	34173.77
535.05	33790.8
535.251	33407.83
535.451	32588.64
535.652	32177
535.853	31886.19
536.054	31626.1
536.255	30860.16
536.456	30274.44
536.657	30538.63
536.857	29672.34
537.058	29340.57
537.259	29158.3
537.46	28476.32
537.66	27954.09
537.861	28050.35
538.062	27421.62
538.263	27153.33
538.463	26545.09
538.664	26602.43
538.865	26440.64
539.065	26409.92
539.266	25379.79
539.466	25445.33
539.667	24859.61
539.868	24906.71
540.068	24196.07
540.269	24030.18
540.469	23960.55
540.67	23774.19
540.87	23423.98
541.071	23049.21
541.271	22600.7
541.472	22561.79
541.672	22201.35
541.873	21943.3
542.073	21439.5
542.274	21603.34
542.474	21142.55
542.675	21087.25
542.875	20747.29
543.075	20665.37
543.276	20026.4
543.476	20231.2
543.676	19616.81
543.877	19872.81
544.077	19534.89
544.277	19430.44
544.478	18969.65
544.678	18859.06
544.878	18818.1
545.078	18342.97
545.279	18015.3
545.479	17697.86
545.679	17925.19
545.879	17570.89
546.079	17501.26
546.28	17001.55
546.48	16731.22
546.68	17001.55
546.88	16546.9
547.08	16405.59
547.28	16262.24
547.48	15746.15
547.68	16032.86
547.88	15449.19
548.081	15588.46
548.281	14974.06
548.481	14660.73
548.681	14845.04
548.881	14732.4
549.081	14539.9
549.28	14089.34
549.48	14146.69
549.68	13915.26
549.88	13821.06
550.08	13436.04
550.28	13290.63
550.48	13401.22
550.68	13094.03
550.88	12917.9
551.08	12557.46
551.279	12799.12
551.479	12463.26
551.679	12160.16
551.879	11881.63
552.079	11857.06
552.278	11476.13
552.478	11345.06
552.678	11205.8
552.878	11201.71
553.077	10921.13
553.277	10710.19
553.477	10763.44
553.676	10521.78
553.876	10333.37
554.076	9934.01
554.275	9968.83
554.475	9829.57
554.674	9643.2
554.874	9661.63
555.074	9235.66
555.273	9325.77
555.473	9125.07
555.672	8676.56
555.872	8742.1
556.071	8502.48
556.271	8619.22
556.47	8406.23
556.67	8191.19
556.869	7918.81
557.068	7875.81
557.268	7650.53
557.467	7748.83
557.667	7838.94
557.866	7392.48
558.065	7236.84
558.265	7150.82
558.464	6876.4
558.663	7181.54
558.863	6827.25
559.062	6929.64
559.261	6542.58
559.461	6604.02
559.66	6302.97
559.859	6300.92
560.058	6149.37
560.258	6161.66
560.457	5934.33
560.656	6012.15
560.855	5876.99
561.054	5842.17
561.253	5651.71
561.453	5620.99
561.652	5440.77
561.851	5381.38
562.05	5252.36
562.249	5258.5
562.448	5160.2
562.647	5061.9
562.846	5098.76
563.045	5053.7
563.244	4779.28
563.443	4883.72
563.642	4619.53
563.841	4687.12
564.04	4629.77
564.239	4605.2
564.438	4449.55
564.637	4257.04
564.836	4341.01
565.035	4228.37
565.234	4115.73
565.432	4230.42
565.631	4003.1
565.83	3994.9
566.029	3931.42
566.228	4001.05
566.427	3859.74
566.625	3525.92
566.824	3640.61
567.023	3595.55
567.222	3550.5
567.42	3616.03
567.619	3628.32
567.818	3308.83
568.016	3403.04
568.215	3507.49
568.414	3386.66
568.612	3294.5
568.811	3362.08
569.01	3177.76
569.208	3183.91
569.407	3212.58
569.605	3024.17
569.804	3087.65
570.002	2886.95
570.201	2848.04
570.4	3018.02
570.598	2800.94
570.797	2772.27
570.995	2686.25
571.193	2559.28
571.392	2780.46
571.59	2379.06
571.789	2592.05
571.987	2542.89
572.186	2637.1
572.384	2506.03
572.582	2401.58
572.781	2446.64
572.979	2223.41
573.177	2284.85
573.376	2340.15
573.574	2329.91
573.772	2188.6
573.971	2155.83
574.169	2035
574.367	2159.92
574.565	2024.76
574.763	1951.03
574.962	1971.51
575.16	1969.46
575.358	1879.35
575.556	1793.34
575.754	1920.31
575.952	1830.2
576.151	1850.68
576.349	1852.73
576.547	1627.45
576.745	1785.15
576.943	1836.35
577.141	1592.64
577.339	1582.4
577.537	1559.87
577.735	1705.28
577.933	1625.4
578.131	1568.06
578.329	1580.35
578.527	1572.16
578.725	1629.5
578.923	1224
579.121	1377.6
579.319	1373.5
579.516	1371.46
579.714	1553.73
579.912	1398.08
580.11	1375.55
580.308	1252.67
580.506	1316.16
580.704	1183.04
580.901	1191.24
581.099	1297.73
581.297	1129.8
581.495	1199.43
581.692	1111.36
581.89	1240.39
582.088	1154.37
582.285	1101.12
582.483	1117.51
582.681	1183.04
582.878	1092.93
583.076	1115.46
583.274	1107.27
583.471	1207.62
583.669	1099.08
583.866	904.52
584.064	953.67
584.262	902.47
584.459	970.05
584.657	961.86
584.854	1002.82
585.052	959.81
585.249	1017.16
585.447	953.67
585.644	765.26
585.841	984.39
586.039	902.47
586.236	951.62
586.434	890.18
586.631	824.65
586.828	779.59
587.026	879.94
587.223	728.39
587.42	759.11
587.618	798.03
587.815	867.66
588.012	738.63
588.21	685.39
588.407	755.02
588.604	781.64
588.801	738.63
588.999	726.35
589.196	838.98
589.393	630.09
589.59	681.29
589.787	675.15
589.984	691.53
590.182	798.03
590.379	673.1
590.576	662.86
590.773	703.82
590.97	687.43
591.167	732.49
591.364	683.34
591.561	552.27
591.758	707.91
591.955	683.34
592.152	646.48
592.349	576.84
592.546	675.15
592.743	632.14
592.94	597.32
593.137	677.19
593.334	755.02
593.531	642.38
593.727	703.82
593.924	613.71
594.121	714.06
594.318	558.41
594.515	763.21
594.712	795.98
594.908	740.68
595.105	582.99
595.302	720.2
595.499	683.34
595.696	867.66
595.892	599.37
596.089	808.26
596.286	650.57
596.482	877.9
596.679	765.26
596.876	752.97
597.072	859.46
597.269	763.21
597.466	925
597.662	834.89
597.859	847.18
598.055	945.48
598.252	908.62
598.448	1047.88
598.645	1082.69
598.841	916.81
599.038	1109.32
599.234	1228.1
599.431	1051.97
599.627	1154.37
599.824	1297.73
600.02	1275.2
600.217	1209.67
600.413	1326.4
600.609	1338.69
600.806	1735.99
601.002	1514.81
601.198	1453.38
601.395	1647.93
601.591	1670.46
601.787	1686.84
601.984	1908.02
602.18	1951.03
602.376	1930.55
602.572	1985.85
602.769	2182.45
602.965	2198.84
603.161	2288.95
603.357	2348.34
603.553	2600.24
603.75	2409.78
603.946	2512.18
604.142	2735.4
604.338	2882.86
604.534	2956.58
604.73	2886.95
604.926	2866.47
605.122	3081.51
605.318	3155.24
605.514	3439.9
605.71	3462.43
605.906	3472.67
606.102	3636.51
606.298	3800.35
606.494	3943.71
606.69	3964.18
606.886	4138.26
607.082	3951.9
607.278	4207.89
607.474	4420.88
607.67	4451.6
607.866	4549.9
608.062	4926.73
608.257	4848.91
608.453	5104.9
608.649	5045.51
608.845	5057.8
609.041	5385.48
609.236	5539.07
609.432	5752.06
609.628	5981.43
609.824	6057.21
610.019	6069.5
610.215	6167.8
610.411	6733.04
610.606	6960.36
610.802	6913.26
610.998	6984.94
611.193	7292.13
611.389	7296.23
611.584	7703.78
611.78	7734.5
611.976	7892.19
612.171	8404.18
612.367	8613.07
612.562	8604.88
612.758	8768.72
612.953	8658.13
613.149	9399.49
613.344	9356.49
613.539	9899.2
613.735	10087.61
613.93	10407.09
614.126	10403
614.321	10800.3
614.517	11181.23
614.712	11345.06
614.907	11795.62
615.103	12043.42
615.298	12440.73
615.493	12520.6
615.688	12881.04
615.884	13202.57
616.079	13350.03
616.274	14060.67
616.47	14400.63
616.665	14541.94
616.86	14892.15
617.055	15199.34
617.25	15651.94
617.445	16280.67
617.641	16122.98
617.836	16753.75
618.031	17255.5
618.226	17888.32
618.421	18121.79
618.616	18545.72
618.811	18693.18
619.006	19510.32
619.201	19483.69
619.396	20196.39
619.591	20384.8
619.786	21320.72
619.981	21306.38
620.176	22170.63
620.371	22207.49
620.566	22719.48
620.761	23202.8
620.956	24087.53
621.151	24118.25
621.346	24810.46
621.541	24800.22
621.735	25973.7
621.93	25994.18
622.125	26776.51
622.32	26473.41
622.515	27765.68
622.709	27945.9
622.904	28541.86
623.099	28781.47
623.294	29885.33
623.488	29752.21
623.683	30804.86
623.878	30917.5
624.072	31544.18
624.267	31884.14
624.462	32379.75
624.656	32600.93
624.851	33538.9
625.046	33575.76
625.24	34237.26
625.435	34411.34
625.629	35060.54
625.824	35599.16
626.018	36606.76
626.213	35939.12
626.407	36881.19
626.602	37008.16
626.796	37690.13
626.991	38058.77
627.185	38155.02
627.38	38601.48
627.574	38769.41
627.768	38701.83
627.963	39443.2
628.157	39226.11
628.352	39822.07
628.546	39615.22
628.74	39801.59
628.935	39451.39
629.129	39715.58
629.323	38890.24
629.517	39152.38
629.712	38933.25
629.906	38382.35
630.1	38308.62
630.294	38673.16
630.489	37653.27
630.683	37778.2
630.877	36762.4
631.071	36141.87
631.265	35967.79
631.459	34749.25
631.653	33979.21
631.848	33741.65
632.042	32590.69
632.236	32187.24
632.43	31253.37
632.624	30630.79
632.818	29576.08
633.012	28744.61
633.206	27884.46
633.4	27290.55
633.594	25914.31
633.788	25545.68
633.982	24474.59
634.176	23720.94
634.369	22656
634.563	21955.59
634.757	20825.11
634.951	20413.47
635.145	19655.72
635.339	18922.55
635.533	18064.45
635.726	17499.21
635.92	16634.97
636.114	15658.09
636.308	15365.23
636.501	14974.06
636.695	14296.19
636.889	13585.54
637.083	13134.99
637.276	12551.32
637.47	12010.65
637.664	11324.58
637.857	11033.77
638.051	10511.54
638.244	10163.39
638.438	9649.35
638.632	9434.31
638.825	9047.24
639.019	8582.35
639.212	8357.08
639.406	7984.35
639.599	7535.84
639.793	7324.9
639.986	7103.72
640.18	6683.89
640.373	6431.99
640.567	6194.42
640.76	5965.05
640.954	5907.71
641.147	5459.2
641.34	5416.19
641.534	5156.1
641.727	5127.43
641.92	4951.31
642.114	4543.76
642.307	4478.22
642.5	4123.93
642.694	4062.49
642.887	3892.51
643.08	3984.66
643.273	3603.74
643.467	3544.35
643.66	3302.69
643.853	3224.87
644.046	3075.37
644.239	3169.57
644.432	2880.81
644.626	2735.4
644.819	2788.65
645.012	2723.12
645.205	2598.19
645.398	2463.02
645.591	2340.15
645.784	2131.25
645.977	2090.29
646.17	2096.44
646.363	2037.05
646.556	1834.3
646.749	1787.19
646.942	1785.15
647.135	1752.38
647.328	1592.64
647.521	1658.17
647.714	1543.49
647.907	1545.53
648.099	1361.22
648.292	1447.23
648.485	1451.33
648.678	1334.59
648.871	1213.76
649.064	1195.33
649.256	1115.46
649.449	953.67
649.642	978.25
649.835	994.63
650.027	931.14
650.22	1033.54
650.413	877.9
650.605	896.33
650.798	814.41
650.991	752.97
651.183	810.31
651.376	761.16
651.568	777.55
651.761	634.19
651.954	677.19
652.146	683.34
652.339	695.63
652.531	761.16
652.724	609.61
652.916	646.48
653.109	445.77
653.301	617.8
653.494	576.84
653.686	621.9
653.879	619.85
654.071	552.27
654.263	456.01
654.456	519.5
654.648	535.89
654.84	511.31
655.033	443.73
655.225	521.55
655.417	370
655.61	509.26
655.802	578.89
655.994	472.4
656.186	292.18
656.379	533.84
656.571	314.7
656.763	349.52
656.955	347.47
657.148	288.08
657.34	478.54
657.532	318.8
657.724	351.57
657.916	279.89
658.108	341.33
658.3	279.89
658.492	322.9
658.684	230.74
658.876	288.08
659.068	179.54
659.26	222.55
659.452	202.07
659.644	265.55
659.836	339.28
660.028	249.17
660.22	257.36
660.412	206.16
660.604	292.18
660.796	296.27
660.988	306.51
661.18	220.5
661.372	236.88
661.563	150.87
661.755	267.6
661.947	109.91
662.139	116.05
662.331	185.68
662.522	179.54
662.714	87.38
662.906	152.91
663.097	157.01
663.289	163.15
663.481	93.52
663.673	259.41
663.864	191.83
664.056	253.27
664.247	132.44
664.439	234.83
664.631	187.73
664.822	341.33
665.014	243.03
665.205	214.35
665.397	85.33
665.588	238.93
665.78	191.83
665.971	238.93
666.163	159.06
666.354	142.68
666.546	25.94
666.737	93.52
666.929	157.01
667.12	142.68
667.311	206.16
667.503	204.11
667.694	142.68
667.885	56.66
668.077	263.51
668.268	62.8
668.459	99.67
668.651	165.2
668.842	245.07
669.033	91.48
669.224	3.41
669.416	326.99
669.607	159.06
669.798	138.58
669.989	335.18
670.18	208.21
670.371	171.35
670.563	75.09
670.754	204.11
670.945	247.12
671.136	185.68
671.327	-2.73
671.518	189.78
671.709	288.08
671.9	191.83
672.091	216.4
672.282	249.17
672.473	214.35
672.664	85.33
672.855	148.82
673.046	179.54
673.237	212.31
673.428	91.48
673.619	271.7
673.809	118.1
674	216.4
674.191	142.68
674.382	191.83
674.573	134.48
674.764	165.2
674.954	183.63
675.145	134.48
675.336	114
675.527	191.83
675.717	126.29
675.908	191.83
676.099	163.15
676.289	181.59
676.48	144.72
676.671	130.39
676.861	177.49
677.052	148.82
677.243	91.48
677.433	146.77
677.624	255.31
677.814	138.58
678.005	134.48
678.195	243.03
678.386	187.73
678.576	128.34
678.767	73.04
678.957	142.68
679.148	253.27
679.338	267.6
679.529	216.4
679.719	150.87
679.909	286.03
680.1	148.82
680.29	232.79
680.481	124.24
680.671	292.18
680.861	214.35
681.052	197.97
681.242	167.25
681.432	195.92
681.622	163.15
681.813	36.18
682.003	111.96
682.193	105.81
682.383	310.61
682.573	224.59
682.764	191.83
682.954	286.03
683.144	238.93
683.334	103.76
683.524	191.83
683.714	273.75
683.904	234.83
684.094	206.16
684.284	181.59
684.474	296.27
684.664	191.83
684.854	249.17
685.044	185.68
685.234	206.16
685.424	273.75
685.614	200.02
685.804	273.75
685.994	308.56
686.184	238.93
686.374	224.59
686.564	202.07
686.753	183.63
686.943	146.77
687.133	187.73
687.323	222.55
687.513	273.75
687.702	226.64
687.892	267.6
688.082	261.46
688.272	314.7
688.461	152.91
688.651	294.22
688.841	312.66
689.03	165.2
689.22	214.35
689.41	294.22
689.599	234.83
689.789	132.44
689.979	316.75
690.168	179.54
690.358	236.88
690.547	243.03
690.737	159.06
690.926	189.78
691.116	339.28
691.305	257.36
691.495	259.41
691.684	183.63
691.874	118.1
692.063	208.21
692.252	218.45
692.442	236.88
692.631	97.62
692.82	138.58
693.01	230.74
693.199	220.5
693.388	200.02
693.578	267.6
693.767	257.36
693.956	283.98
694.146	146.77
694.335	243.03
694.524	232.79
694.713	320.85
694.902	169.3
695.092	148.82
695.281	271.7
695.47	259.41
695.659	167.25
695.848	185.68
696.037	124.24
696.226	236.88
696.415	224.59
696.604	283.98
696.793	269.65
696.982	200.02
697.171	312.66
697.36	236.88
697.549	187.73
697.738	87.38
697.927	150.87
698.116	71
698.305	159.06
698.494	240.98
698.683	179.54
698.872	380.24
699.061	320.85
699.25	138.58
699.438	208.21
699.627	144.72
699.816	298.32
700.005	89.43
700.193	142.68
700.382	212.31
700.571	163.15
700.76	206.16
700.948	220.5
701.137	271.7
701.326	202.07
701.514	157.01
701.703	200.02
701.892	150.87
702.08	333.14
702.269	144.72
702.457	128.34
702.646	249.17
702.834	150.87
703.023	200.02
703.212	341.33
703.4	165.2
703.589	163.15
703.777	144.72
703.965	214.35
704.154	226.64
704.342	105.81
704.531	183.63
704.719	240.98
704.907	208.21
705.096	154.96
705.284	150.87
705.472	148.82
705.661	224.59
705.849	224.59
706.037	281.94
706.226	200.02
706.414	269.65
706.602	83.28
706.79	212.31
706.979	163.15
707.167	128.34
707.355	81.24
707.543	197.97
707.731	251.22
707.919	136.53
708.107	200.02
708.296	146.77
708.484	212.31
708.672	206.16
708.86	247.12
709.048	232.79
709.236	150.87
709.424	261.46
709.612	195.92
709.8	163.15
709.988	109.91
710.176	230.74
710.364	144.72
710.551	214.35
710.739	206.16
710.927	187.73
711.115	154.96
711.303	230.74
711.491	263.51
711.679	230.74
711.866	273.75
712.054	204.11
712.242	251.22
712.43	243.03
712.617	259.41
712.805	290.13
712.993	118.1
713.181	83.28
713.368	191.83
713.556	218.45
713.744	154.96
713.931	314.7
714.119	214.35
714.306	167.25
714.494	216.4
714.682	179.54
714.869	193.87
715.057	159.06
715.244	71
715.432	257.36
715.619	251.22
715.807	204.11
715.994	124.24
716.182	179.54
716.369	281.94
716.556	216.4
716.744	152.91
716.931	93.52
717.119	273.75
717.306	124.24
717.493	267.6
717.681	120.15
717.868	197.97
718.055	271.7
718.242	200.02
718.43	148.82
718.617	320.85
718.804	191.83
718.991	326.99
719.179	281.94
719.366	298.32
719.553	277.84
719.74	181.59
719.927	173.39
720.114	257.36
720.301	191.83
720.488	142.68
720.676	197.97
720.863	273.75
721.05	392.53
721.237	263.51
721.424	271.7
721.611	181.59
721.798	175.44
721.985	222.55
722.172	310.61
722.358	238.93
722.545	318.8
722.732	232.79
722.919	355.66
723.106	273.75
723.293	197.97
723.48	296.27
723.667	210.26
723.853	251.22
724.04	265.55
724.227	318.8
724.414	296.27
724.6	255.31
724.787	304.46
724.974	425.29
725.161	281.94
725.347	177.49
725.534	312.66
725.72	314.7
725.907	320.85
726.094	275.79
726.28	234.83
726.467	240.98
726.653	179.54
726.84	363.86
727.027	402.77
727.213	249.17
727.4	316.75
727.586	322.9
727.773	259.41
727.959	283.98
728.145	216.4
728.332	228.69
728.518	191.83
728.705	388.43
728.891	226.64
729.077	271.7
729.264	157.01
729.45	226.64
729.636	351.57
729.823	341.33
730.009	333.14
730.195	230.74
730.382	314.7
730.568	181.59
730.754	228.69
730.94	216.4
731.126	335.18
731.313	286.03
731.499	306.51
731.685	363.86
731.871	318.8
732.057	312.66
732.243	337.23
732.429	337.23
732.615	384.34
732.801	314.7
732.987	206.16
733.173	232.79
733.359	187.73
733.545	339.28
733.731	286.03
733.917	429.39
734.103	290.13
734.289	261.46
734.475	206.16
734.661	378.19
734.847	200.02
735.033	296.27
735.219	345.42
735.404	306.51
735.59	316.75
735.776	372.05
735.962	263.51
736.148	234.83
736.333	351.57
736.519	310.61
736.705	290.13
736.89	273.75
737.076	255.31
737.262	255.31
737.447	195.92
737.633	255.31
737.819	302.42
738.004	257.36
738.19	310.61
738.375	384.34
738.561	431.44
738.747	419.15
738.932	273.75
739.118	286.03
739.303	372.05
739.489	359.76
739.674	308.56
739.859	224.59
740.045	310.61
740.23	294.22
740.416	206.16
740.601	314.7
740.786	306.51
740.972	220.5
741.157	253.27
741.342	257.36
741.528	288.08
741.713	421.2
741.898	238.93
742.084	296.27
742.269	253.27
742.454	347.47
742.639	380.24
742.824	292.18
743.01	378.19
743.195	367.95
743.38	238.93
743.565	257.36
743.75	367.95
743.935	279.89
744.12	372.05
744.305	216.4
744.49	224.59
744.675	345.42
744.86	238.93
745.045	310.61
745.23	224.59
745.415	214.35
745.6	357.71
745.785	300.37
745.97	363.86
746.155	306.51
746.34	294.22
746.525	370
746.71	331.09
746.895	216.4
747.079	204.11
747.264	245.07
747.449	322.9
747.634	390.48
747.819	277.84
748.003	267.6
748.188	281.94
748.373	288.08
748.557	310.61
748.742	238.93
748.927	200.02
749.111	212.31
749.296	322.9
749.481	212.31
749.665	249.17
749.85	283.98
750.034	337.23
750.219	277.84
750.404	154.96
750.588	292.18
750.773	171.35
750.957	279.89
751.141	218.45
751.326	195.92
751.51	157.01
751.695	189.78
751.879	179.54
752.064	286.03
752.248	240.98
752.432	298.32
752.617	314.7
752.801	247.12
752.985	187.73
753.17	257.36
753.354	214.35
753.538	236.88
753.722	238.93
753.907	232.79
754.091	128.34
754.275	320.85
754.459	200.02
754.643	185.68
754.828	222.55
755.012	236.88
755.196	206.16
755.38	230.74
755.564	224.59
755.748	200.02
755.932	234.83
756.116	243.03
756.3	208.21
756.484	128.34
756.668	232.79
756.852	71
757.036	183.63
757.22	142.68
757.404	136.53
757.588	138.58
757.772	253.27
757.956	189.78
758.14	306.51
758.323	165.2
758.507	216.4
758.691	116.05
758.875	224.59
759.059	206.16
759.242	91.48
759.426	224.59
759.61	134.48
759.794	116.05
759.977	200.02
760.161	318.8
760.345	234.83
760.528	208.21
760.712	298.32
760.895	255.31
761.079	200.02
761.263	93.52
761.446	146.77
761.63	208.21
761.813	300.37
761.997	13.65
762.18	122.2
762.364	212.31
762.547	77.14
762.731	105.81
762.914	159.06
763.098	116.05
763.281	148.82
763.464	109.91
763.648	122.2
763.831	183.63
764.015	142.68
764.198	220.5
764.381	101.72
764.564	146.77
764.748	224.59
764.931	138.58
765.114	148.82
765.297	210.26
765.481	161.11
765.664	73.04
765.847	148.82
766.03	189.78
766.213	68.95
766.397	109.91
766.58	44.37
766.763	204.11
766.946	77.14
767.129	105.81
767.312	93.52
767.495	101.72
767.678	120.15
767.861	195.92
768.044	128.34
768.227	109.91
768.41	142.68
768.593	167.25
768.776	97.62
768.959	68.95
769.142	167.25
769.324	83.28
769.507	134.48
769.69	89.43
769.873	101.72
770.056	232.79
770.239	89.43
770.421	187.73
770.604	175.44
770.787	154.96
770.97	134.48
771.152	54.61
771.335	175.44
771.518	109.91
771.7	185.68
771.883	257.36
772.066	107.86
772.248	144.72
772.431	163.15
772.613	118.1
772.796	77.14
772.978	144.72
773.161	294.22
773.343	130.39
773.526	73.04
773.708	50.52
773.891	9.56
774.073	126.29
774.256	101.72
774.438	271.7
774.621	15.7
774.803	122.2
774.985	46.42
775.168	142.68
775.35	75.09
775.532	152.91
775.715	17.75
775.897	120.15
776.079	167.25
776.261	68.95
776.444	58.71
776.626	77.14
776.808	165.2
776.99	36.18
777.173	114
777.355	52.56
777.537	58.71
777.719	83.28
777.901	79.19
778.083	114
778.265	27.99
778.447	146.77
778.629	120.15
778.811	187.73
778.993	56.66
779.175	118.1
779.357	118.1
779.539	42.32
779.721	44.37
779.903	167.25
780.085	73.04
780.267	118.1
780.449	77.14
780.631	134.48
780.812	132.44
780.994	68.95
781.176	150.87
781.358	-6.83
781.54	27.99
781.721	107.86
781.903	99.67
782.085	60.76
782.267	85.33
782.448	58.71
782.63	101.72
782.812	132.44
782.993	56.66
783.175	159.06
783.357	66.9
783.538	77.14
783.72	-4.78
783.901	52.56
784.083	13.65
784.264	93.52
784.446	-25.26
784.627	17.75
784.809	142.68
784.99	118.1
785.172	116.05
785.353	19.8
785.535	54.61
785.716	32.08
785.897	36.18
786.079	46.42
786.26	60.76
786.441	124.24
786.623	9.56
786.804	3.41
786.985	58.71
787.167	109.91
787.348	56.66
787.529	3.41
787.71	181.59
787.891	103.76
788.073	68.95
788.254	114
788.435	152.91
788.616	46.42
788.797	93.52
788.978	25.94
789.159	-17.07
789.34	73.04
789.522	48.47
789.703	-31.4
789.884	150.87
790.065	146.77
790.246	99.67
790.427	36.18
790.607	179.54
790.788	107.86
790.969	109.91
791.15	130.39
791.331	34.13
791.512	30.04
791.693	-78.51
791.874	54.61
792.054	183.63
792.235	109.91
792.416	-31.4
792.597	34.13
792.778	66.9
792.958	44.37
793.139	46.42
793.32	60.76
793.5	19.8
793.681	179.54
793.862	109.91
794.042	21.84
794.223	-2.73
794.404	32.08
794.584	-37.55
794.765	1.37
794.945	56.66
795.126	34.13
795.306	103.76
795.487	27.99
795.667	-0.68
795.848	79.19
796.028	19.8
796.209	25.94
796.389	142.68
796.57	15.7
796.75	42.32
796.93	46.42
797.111	56.66
797.291	77.14
797.471	116.05
797.652	-21.16
797.832	-17.07
798.012	93.52
798.192	34.13
798.373	19.8
798.553	-21.16
798.733	101.72
798.913	30.04
799.093	52.56
799.274	66.9
799.454	77.14
799.634	54.61
799.814	142.68
799.994	75.09
800.174	62.8
800.354	75.09
800.534	-111.27
800.714	68.95
800.894	-17.07
801.074	-31.4
801.254	-51.88
801.434	40.28
801.614	109.91
801.794	-49.83
801.974	1697.08
802.154	-8.87
802.334	118.1
802.514	-31.4
802.693	-25.26
802.873	-23.21
803.053	42.32
803.233	46.42
803.413	64.85
803.592	-62.12
803.772	34.13
803.952	-23.21
804.131	30.04
804.311	85.33
804.491	83.28
804.67	19.8
804.85	32.08
805.03	85.33
805.209	146.77
805.389	44.37
805.568	-27.31
805.748	3.41
805.928	1.37
806.107	34.13
806.287	73.04
806.466	114
806.646	48.47
806.825	19.8
807.004	11.61
807.184	87.38
807.363	95.57
807.543	-19.11
807.722	-66.22
807.901	224.59
808.081	75.09
808.26	-70.31
808.439	44.37
808.619	150.87
808.798	56.66
808.977	23.89
809.156	64.85
809.336	7.51
809.515	7.51
809.694	-29.35
809.873	3.41
810.052	77.14
810.231	126.29
810.411	-8.87
810.59	161.11
810.769	-29.35
810.948	85.33
811.127	-121.51
811.306	-29.35
811.485	7.51
811.664	146.77
811.843	60.76
812.022	-27.31
812.201	-80.55
812.38	34.13
812.559	-21.16
812.737	-4.78
812.916	25.94
813.095	-139.94
813.274	44.37
813.453	-27.31
813.632	99.67
813.811	97.62
813.989	-6.83
814.168	17.75
814.347	-21.16
814.526	50.52
814.704	97.62
814.883	118.1
815.062	-2.73
815.24	19.8
815.419	-17.07
815.598	46.42
815.776	-70.31
815.955	81.24
816.133	-137.9
816.312	-47.79
816.49	11.61
816.669	36.18
816.847	52.56
817.026	25.94
817.204	3.41
817.383	60.76
817.561	-45.74
817.74	93.52
817.918	5.46
818.097	1.37
818.275	-4.78
818.453	114
818.632	32.08
818.81	27.99
818.988	1.37
819.167	-31.4
819.345	3.41
819.523	-55.98
819.701	9.56
819.879	114
820.058	103.76
820.236	34.13
820.414	71
820.592	54.61
820.77	-4.78
820.948	-8.87
821.127	32.08
821.305	-0.68
821.483	-15.02
821.661	91.48
821.839	42.32
822.017	-21.16
822.195	-29.35
822.373	68.95
822.551	-4.78
822.729	58.71
822.907	-8.87
823.085	-10.92
823.262	85.33
823.44	-51.88
823.618	32.08
823.796	-39.59
823.974	-12.97
824.152	-25.26
824.329	-6.83
824.507	38.23
824.685	60.76
824.863	13.65
825.04	48.47
825.218	83.28
825.396	56.66
825.574	40.28
825.751	107.86
825.929	81.24
826.107	1.37
826.284	38.23
826.462	75.09
826.639	-62.12
826.817	-4.78
826.994	-4.78
827.172	-39.59
827.349	163.15
827.527	34.13
827.704	3.41
827.882	46.42
828.059	-4.78
828.237	-33.45
828.414	101.72
828.591	-37.55
828.769	-6.83
828.946	-41.64
829.124	56.66
829.301	87.38
829.478	23.89
829.655	81.24
829.833	62.8
830.01	-70.31
830.187	25.94
830.364	42.32
830.542	38.23
830.719	128.34
830.896	23.89
831.073	77.14
831.25	99.67
831.427	91.48
831.604	34.13
831.782	11.61
831.959	68.95
832.136	-12.97
832.313	-0.68
832.49	15.7
832.667	66.9
832.844	-39.59
833.021	124.24
833.198	44.37
833.374	-6.83
833.551	58.71
833.728	-39.59
833.905	83.28
834.082	-94.89
834.259	32.08
834.436	116.05
834.612	27.99
834.789	93.52
834.966	75.09
835.143	-0.68
835.319	-80.55
835.496	46.42
835.673	25.94
835.85	42.32
836.026	116.05
836.203	66.9
836.38	77.14
836.556	9.56
836.733	-19.11
836.909	122.2
837.086	118.1
837.262	-33.45
837.439	-8.87
837.616	-17.07
837.792	-45.74
837.968	-4.78
838.145	-96.94
838.321	89.43
838.498	19.8
838.674	48.47
838.851	50.52
839.027	-25.26
839.203	13.65
839.38	56.66
839.556	-15.02
839.732	81.24
839.909	13.65
840.085	23.89
840.261	-39.59
840.437	27.99
840.614	60.76
840.79	150.87
840.966	81.24
841.142	66.9
841.318	73.04
841.494	58.71
841.671	32.08
841.847	-2.73
842.023	9.56
842.199	83.28
842.375	91.48
842.551	-94.89
842.727	-47.79
842.903	107.86
843.079	-23.21
843.255	73.04
843.431	44.37
843.607	11.61
843.783	-96.94
843.959	50.52
844.134	-33.45
844.31	85.33
844.486	42.32
844.662	-39.59
844.838	36.18
845.013	77.14
845.189	36.18
845.365	36.18
845.541	42.32
845.716	15.7
845.892	116.05
846.068	40.28
846.244	-47.79
846.419	5.46
846.595	-23.21
846.77	27.99
846.946	56.66
847.122	50.52
847.297	-8.87
847.473	93.52
847.648	-121.51
847.824	-0.68
847.999	-80.55
848.175	-90.79
848.35	27.99
848.526	122.2
848.701	-6.83
848.876	89.43
849.052	64.85
849.227	81.24
849.403	44.37
849.578	9.56
849.753	36.18
849.929	48.47
850.104	-15.02
850.279	79.19
850.454	-27.31
850.63	64.85
850.805	58.71
850.98	9.56
851.155	89.43
851.33	36.18
851.505	-60.07
851.681	75.09
851.856	-68.27
852.031	60.76
852.206	15.7
852.381	-4.78
852.556	42.32
852.731	87.38
852.906	71
853.081	83.28
853.256	134.48
853.431	36.18
853.606	9.56
853.781	-27.31
853.956	-76.46
854.131	42.32
854.305	1.37
854.48	-23.21
854.655	-64.17
854.83	-41.64
855.005	73.04
855.18	7.51
855.354	15.7
855.529	11.61
855.704	-62.12
855.879	42.32
856.053	-45.74
856.228	-27.31
856.403	-47.79
856.577	73.04
856.752	-25.26
856.926	-35.5
857.101	27.99
857.276	-53.93
857.45	-8.87
857.625	25.94
857.799	-29.35
857.974	-6.83
858.148	-43.69
858.323	38.23
858.497	62.8
858.672	19.8
858.846	-68.27
859.02	48.47
859.195	-49.83
859.369	-15.02
859.543	40.28
859.718	-21.16
859.892	44.37
860.066	60.76
860.241	-35.5
860.415	23.89
860.589	-39.59
860.763	11.61
860.938	-4.78
861.112	79.19
861.286	44.37
861.46	101.72
861.634	27.99
861.808	38.23
861.982	-107.18
862.157	-60.07
862.331	-94.89
862.505	-37.55
862.679	-43.69
862.853	5.46
863.027	3.41
863.201	95.57
863.375	-33.45
863.549	19.8
863.722	32.08
863.896	95.57
864.07	-35.5
864.244	-31.4
864.418	44.37
864.592	9.56
864.766	-4.78
864.939	32.08
865.113	36.18
865.287	109.91
865.461	-27.31
865.634	-21.16
865.808	13.65
865.982	38.23
866.156	-19.11
866.329	7.51
866.503	60.76
866.676	50.52
866.85	1.37
867.024	11.61
867.197	27.99
867.371	77.14
867.544	62.8
867.718	-37.55
867.891	73.04
868.065	-58.03
868.238	81.24
868.412	60.76
868.585	-21.16
868.759	-6.83
868.932	27.99
869.105	-33.45
869.279	-2.73
869.452	-64.17
869.625	11.61
869.799	50.52
869.972	-17.07
870.145	-33.45
870.319	116.05
870.492	-19.11
870.665	-31.4
870.838	-15.02
871.011	-148.14
871.185	21.84
871.358	21.84
871.531	60.76
871.704	3.41
871.877	-10.92
872.05	-66.22
872.223	-21.16
872.396	19.8
872.569	109.91
872.742	-139.94
872.915	68.95
873.088	36.18
873.261	-31.4
873.434	77.14
873.607	-2.73
873.78	107.86
873.953	-2.73
874.126	32.08
874.299	-21.16
874.471	-0.68
874.644	-49.83
874.817	44.37
874.99	42.32
875.163	-82.6
875.335	13.65
875.508	11.61
875.681	105.81
875.853	-53.93
876.026	36.18
876.199	48.47
876.371	52.56
876.544	9.56
876.717	50.52
876.889	-33.45
877.062	25.94
877.234	-45.74
877.407	9.56
877.579	52.56
877.752	134.48
877.924	15.7
878.097	-41.64
878.269	19.8
878.442	58.71
878.614	101.72
878.786	95.57
878.959	42.32
879.131	40.28
879.303	-21.16
879.476	25.94
879.648	56.66
879.82	34.13
879.993	-37.55
880.165	-33.45
880.337	-113.32
880.509	77.14
880.681	-27.31
880.854	-51.88
881.026	52.56
881.198	150.87
881.37	32.08
881.542	-17.07
881.714	-23.21
881.886	-0.68
882.058	36.18
882.23	71
882.402	7.51
882.574	91.48
882.746	66.9
882.918	85.33
883.09	114
883.262	-15.02
883.434	-19.11
883.606	-58.03
883.778	-0.68
883.95	157.01
884.122	-6.83
884.293	64.85
884.465	-35.5
884.637	87.38
884.809	-21.16
884.98	111.96
885.152	32.08
885.324	23.89
885.496	34.13
885.667	-23.21
885.839	52.56
886.011	134.48
886.182	44.37
886.354	30.04
886.525	66.9
886.697	148.82
886.869	-115.37
887.04	52.56
887.212	50.52
887.383	161.11
887.555	-10.92
887.726	-23.21
887.897	-12.97
888.069	17.75
888.24	114
888.412	-8.87
888.583	-19.11
888.754	36.18
888.926	-60.07
889.097	-72.36
889.268	-53.93
889.44	9.56
889.611	-66.22
889.782	-21.16
889.953	-47.79
890.125	134.48
890.296	1.37
890.467	38.23
890.638	48.47
890.809	3.41
890.98	-33.45
891.151	-0.68
891.323	87.38
891.494	-8.87
891.665	66.9
891.836	81.24
892.007	30.04
892.178	-6.83
892.349	60.76
892.52	-41.64
892.691	23.89
892.862	21.84
893.032	-92.84
893.203	11.61
893.374	-4.78
893.545	64.85
893.716	-12.97
893.887	79.19
894.057	-12.97
894.228	-58.03
894.399	-12.97
894.57	56.66
894.74	-17.07
894.911	30.04
895.082	60.76
895.253	-70.31
895.423	3.41
895.594	34.13
895.764	38.23
895.935	-21.16
896.106	36.18
896.276	27.99
896.447	-0.68
896.617	-74.41
896.788	-10.92
896.958	-49.83
897.129	9.56
897.299	3.41
897.47	136.53
897.64	77.14
897.81	21.84
897.981	-10.92
898.151	-86.7
898.322	87.38
898.492	13.65
898.662	-80.55
898.832	-62.12
899.003	-0.68
899.173	109.91
899.343	5.46
899.513	-41.64
