Data from USB4F104151__40__10-24-55-936.txt Node

Date: Wed Feb 26 10:24:55 EST 2025
User: louis
Spectrometer: USB4F10415
Trigger mode: 4
Integration Time (sec): 1.000000E-1
Scans to average: 1
Electric dark correction enabled: true
Nonlinearity correction enabled: false
Boxcar width: 0
XAxis mode: Wavelengths
Number of Pixels in Spectrum: 3648
>>>>>Begin Spectral Data<<<<<
178.204	-373.92
178.424	-373.92
178.644	-373.92
178.864	-416.93
179.084	-343.21
179.304	56.15
179.524	39.76
179.744	-64.68
179.964	-31.91
180.184	-33.96
180.404	107.35
180.624	-9.39
180.844	-31.91
181.064	-17.58
181.283	72.53
181.503	-74.92
181.723	-11.43
181.943	-93.35
182.163	117.59
182.383	39.76
182.602	-5.29
182.822	146.26
183.042	64.34
183.262	-52.39
183.482	-17.58
183.701	23.38
183.921	17.24
184.141	-58.54
184.361	127.83
184.58	21.33
184.8	52.05
185.02	13.14
185.239	103.25
185.459	25.43
185.679	95.06
185.898	-38.06
186.118	21.33
186.338	9.05
186.557	99.16
186.777	33.62
186.997	68.44
187.216	2.9
187.436	240.47
187.655	95.06
187.875	136.02
188.095	37.72
188.314	156.5
188.534	138.07
188.753	-76.97
188.973	164.69
189.192	217.94
189.412	82.77
189.631	93.01
189.851	41.81
190.07	119.64
190.29	-74.92
190.509	-31.91
190.729	62.29
190.948	62.29
191.168	226.13
191.387	99.16
191.607	4.95
191.826	39.76
192.045	2.9
192.265	88.92
192.484	54.1
192.704	56.15
192.923	-79.02
193.142	174.93
193.362	131.92
193.581	199.51
193.8	19.29
194.02	90.96
194.239	86.87
194.458	74.58
194.678	64.34
194.897	19.29
195.116	66.39
195.335	101.2
195.555	101.2
195.774	-33.96
195.993	115.54
196.212	-11.43
196.432	13.14
196.651	29.52
196.87	2.9
197.089	176.98
197.308	76.63
197.528	47.96
197.747	62.29
197.966	43.86
198.185	148.31
198.404	-66.73
198.623	95.06
198.842	99.16
199.062	105.3
199.281	97.11
199.5	68.44
199.719	82.77
199.938	17.24
200.157	101.2
200.376	47.96
200.595	129.88
200.814	82.77
201.033	-29.87
201.252	111.44
201.471	90.96
201.69	74.58
201.909	76.63
202.128	64.34
202.347	127.83
202.566	43.86
202.785	-83.11
203.004	-70.83
203.223	238.42
203.442	19.29
203.661	-76.97
203.879	-5.29
204.098	99.16
204.317	25.43
204.536	52.05
204.755	125.78
204.974	13.14
205.193	19.29
205.411	86.87
205.63	103.25
205.849	9.05
206.068	-11.43
206.287	74.58
206.505	127.83
206.724	115.54
206.943	39.76
207.162	78.68
207.381	78.68
207.599	-7.34
207.818	39.76
208.037	-64.68
208.255	29.52
208.474	41.81
208.693	17.24
208.911	-21.67
209.13	76.63
209.349	117.59
209.567	31.57
209.786	37.72
210.005	166.74
210.223	86.87
210.442	-111.78
210.661	35.67
210.879	107.35
211.098	29.52
211.316	21.33
211.535	119.64
211.753	21.33
211.972	35.67
212.191	2.9
212.409	7
212.628	35.67
212.846	-13.48
213.065	113.49
213.283	105.3
213.502	58.2
213.72	68.44
213.938	33.62
214.157	19.29
214.375	15.19
214.594	7
214.812	29.52
215.031	-5.29
215.249	45.91
215.467	47.96
215.686	52.05
215.904	58.2
216.122	45.91
216.341	99.16
216.559	31.57
216.778	33.62
216.996	199.51
217.214	27.48
217.432	86.87
217.651	-38.06
217.869	35.67
218.087	-27.82
218.306	60.24
218.524	0.85
218.742	-25.77
218.96	129.88
219.179	29.52
219.397	19.29
219.615	277.33
219.833	103.25
220.051	31.57
220.27	140.12
220.488	119.64
220.706	64.34
220.924	2.9
221.142	64.34
221.36	50
221.578	127.83
221.796	37.72
222.015	21.33
222.233	78.68
222.451	125.78
222.669	-17.58
222.887	93.01
223.105	66.39
223.323	-52.39
223.541	-7.34
223.759	47.96
223.977	80.72
224.195	162.64
224.413	45.91
224.631	52.05
224.849	158.55
225.067	271.19
225.285	33.62
225.503	35.67
225.721	-99.5
225.939	19.29
226.157	39.76
226.375	234.32
226.592	23.38
226.81	43.86
227.028	107.35
227.246	119.64
227.464	74.58
227.682	66.39
227.9	97.11
228.117	103.25
228.335	111.44
228.553	27.48
228.771	-54.44
228.989	54.1
229.206	105.3
229.424	-50.35
229.642	11.09
229.86	19.29
230.077	41.81
230.295	-1.19
230.513	95.06
230.731	45.91
230.948	197.46
231.166	181.07
231.384	-46.25
231.601	0.85
231.819	172.88
232.037	0.85
232.254	-81.07
232.472	41.81
232.689	-7.34
232.907	115.54
233.125	45.91
233.342	15.19
233.56	-27.82
233.777	45.91
233.995	60.24
234.213	162.64
234.43	43.86
234.648	119.64
234.865	-95.4
235.083	50
235.3	107.35
235.518	82.77
235.735	162.64
235.953	66.39
236.17	47.96
236.388	-60.59
236.605	80.72
236.822	131.92
237.04	109.4
237.257	-50.35
237.475	2.9
237.692	56.15
237.909	25.43
238.127	82.77
238.344	115.54
238.562	78.68
238.779	-52.39
238.996	11.09
239.214	-38.06
239.431	43.86
239.648	-15.53
239.865	121.68
240.083	60.24
240.3	27.48
240.517	-7.34
240.735	47.96
240.952	109.4
241.169	90.96
241.386	45.91
241.603	62.29
241.821	-31.91
242.038	127.83
242.255	86.87
242.472	80.72
242.689	127.83
242.907	127.83
243.124	62.29
243.341	119.64
243.558	37.72
243.775	-64.68
243.992	9.05
244.209	105.3
244.426	150.36
244.643	105.3
244.86	-13.48
245.078	74.58
245.295	90.96
245.512	-46.25
245.729	-95.4
245.946	138.07
246.163	-19.63
246.38	-7.34
246.597	148.31
246.814	45.91
247.031	76.63
247.248	50
247.464	47.96
247.681	133.97
247.898	7
248.115	84.82
248.332	-46.25
248.549	207.7
248.766	144.21
248.983	197.46
249.2	-21.67
249.417	103.25
249.633	-1.19
249.85	33.62
250.067	84.82
250.284	84.82
250.501	88.92
250.717	62.29
250.934	-81.07
251.151	19.29
251.368	33.62
251.585	31.57
251.801	19.29
252.018	-42.15
252.235	129.88
252.451	-54.44
252.668	111.44
252.885	105.3
253.102	131.92
253.318	41.81
253.535	-9.39
253.752	0.85
253.968	54.1
254.185	-81.07
254.401	54.1
254.618	-19.63
254.835	31.57
255.051	68.44
255.268	70.48
255.484	-52.39
255.701	-29.87
255.917	156.5
256.134	19.29
256.351	-5.29
256.567	33.62
256.784	56.15
257	-1.19
257.217	62.29
257.433	41.81
257.65	179.03
257.866	156.5
258.082	23.38
258.299	-9.39
258.515	109.4
258.732	-23.72
258.948	-119.98
259.165	52.05
259.381	-15.53
259.597	25.43
259.814	66.39
260.03	11.09
260.246	19.29
260.463	166.74
260.679	166.74
260.895	93.01
261.112	37.72
261.328	78.68
261.544	90.96
261.761	209.75
261.977	11.09
262.193	-29.87
262.409	68.44
262.626	103.25
262.842	-105.64
263.058	23.38
263.274	176.98
263.49	78.68
263.707	105.3
263.923	9.05
264.139	-15.53
264.355	66.39
264.571	86.87
264.787	129.88
265.004	164.69
265.22	93.01
265.436	-1.19
265.652	13.14
265.868	13.14
266.084	-70.83
266.3	68.44
266.516	-23.72
266.732	19.29
266.948	41.81
267.164	11.09
267.38	78.68
267.596	47.96
267.812	232.27
268.028	74.58
268.244	31.57
268.46	50
268.676	56.15
268.892	88.92
269.108	-81.07
269.324	62.29
269.54	62.29
269.756	97.11
269.972	-5.29
270.188	-11.43
270.403	-36.01
270.619	15.19
270.835	58.2
271.051	99.16
271.267	-27.82
271.483	-15.53
271.698	64.34
271.914	50
272.13	58.2
272.346	-15.53
272.562	-3.24
272.777	148.31
272.993	9.05
273.209	27.48
273.425	117.59
273.64	17.24
273.856	125.78
274.072	0.85
274.287	-29.87
274.503	47.96
274.719	113.49
274.934	-56.49
275.15	-23.72
275.366	60.24
275.581	-111.78
275.797	52.05
276.012	17.24
276.228	19.29
276.444	97.11
276.659	105.3
276.875	21.33
277.09	-50.35
277.306	17.24
277.521	68.44
277.737	21.33
277.952	107.35
278.168	74.58
278.383	66.39
278.599	35.67
278.814	125.78
279.03	52.05
279.245	183.12
279.461	60.24
279.676	179.03
279.892	35.67
280.107	37.72
280.322	-25.77
280.538	113.49
280.753	-42.15
280.969	35.67
281.184	45.91
281.399	150.36
281.615	19.29
281.83	58.2
282.045	-109.74
282.26	-70.83
282.476	78.68
282.691	80.72
282.906	45.91
283.122	35.67
283.337	-103.59
283.552	33.62
283.767	33.62
283.983	76.63
284.198	15.19
284.413	66.39
284.628	-79.02
284.843	119.64
285.058	29.52
285.274	35.67
285.489	9.05
285.704	115.54
285.919	-40.11
286.134	31.57
286.349	97.11
286.564	47.96
286.779	125.78
286.995	37.72
287.21	-38.06
287.425	119.64
287.64	41.81
287.855	-29.87
288.07	-62.63
288.285	123.73
288.5	133.97
288.715	121.68
288.93	35.67
289.145	41.81
289.36	117.59
289.575	17.24
289.79	99.16
290.004	60.24
290.219	93.01
290.434	0.85
290.649	-1.19
290.864	-89.26
291.079	43.86
291.294	-13.48
291.509	54.1
291.724	72.53
291.938	23.38
292.153	76.63
292.368	54.1
292.583	19.29
292.798	88.92
293.012	47.96
293.227	39.76
293.442	-17.58
293.657	82.77
293.871	52.05
294.086	74.58
294.301	197.46
294.516	150.36
294.73	64.34
294.945	0.85
295.16	2.9
295.374	181.07
295.589	35.67
295.804	25.43
296.018	56.15
296.233	154.45
296.447	47.96
296.662	9.05
296.877	111.44
297.091	70.48
297.306	45.91
297.52	13.14
297.735	37.72
297.949	4.95
298.164	82.77
298.378	56.15
298.593	-76.97
298.807	-40.11
299.022	13.14
299.236	136.02
299.451	-40.11
299.665	27.48
299.88	23.38
300.094	64.34
300.309	15.19
300.523	70.48
300.737	33.62
300.952	54.1
301.166	54.1
301.381	47.96
301.595	58.2
301.809	-1.19
302.024	-70.83
302.238	-54.44
302.452	111.44
302.667	66.39
302.881	183.12
303.095	90.96
303.309	95.06
303.524	23.38
303.738	60.24
303.952	-21.67
304.166	37.72
304.381	-107.69
304.595	164.69
304.809	43.86
305.023	21.33
305.237	19.29
305.452	-7.34
305.666	76.63
305.88	82.77
306.094	29.52
306.308	47.96
306.522	70.48
306.736	29.52
306.95	29.52
307.164	62.29
307.379	-15.53
307.593	121.68
307.807	115.54
308.021	-3.24
308.235	117.59
308.449	-19.63
308.663	29.52
308.877	240.47
309.091	31.57
309.305	56.15
309.519	-91.31
309.733	189.27
309.947	-52.39
310.161	84.82
310.374	131.92
310.588	70.48
310.802	9.05
311.016	56.15
311.23	27.48
311.444	-9.39
311.658	41.81
311.872	107.35
312.085	140.12
312.299	179.03
312.513	170.83
312.727	86.87
312.941	-54.44
313.154	121.68
313.368	47.96
313.582	68.44
313.796	74.58
314.009	-25.77
314.223	68.44
314.437	21.33
314.651	142.16
314.864	-15.53
315.078	101.2
315.292	-40.11
315.505	0.85
315.719	97.11
315.933	123.73
316.146	-15.53
316.36	19.29
316.573	136.02
316.787	82.77
317.001	52.05
317.214	9.05
317.428	31.57
317.641	64.34
317.855	-1.19
318.068	7
318.282	27.48
318.495	195.41
318.709	39.76
318.922	9.05
319.136	127.83
319.349	140.12
319.563	-3.24
319.776	121.68
319.99	-126.12
320.203	2.9
320.417	-23.72
320.63	78.68
320.843	172.88
321.057	80.72
321.27	33.62
321.483	45.91
321.697	201.55
321.91	103.25
322.124	72.53
322.337	107.35
322.55	-5.29
322.763	95.06
322.977	-5.29
323.19	21.33
323.403	33.62
323.617	95.06
323.83	66.39
324.043	62.29
324.256	45.91
324.469	-42.15
324.683	60.24
324.896	29.52
325.109	78.68
325.322	-31.91
325.535	39.76
325.748	56.15
325.962	-25.77
326.175	56.15
326.388	13.14
326.601	138.07
326.814	15.19
327.027	58.2
327.24	113.49
327.453	-66.73
327.666	166.74
327.879	129.88
328.092	86.87
328.305	-3.24
328.518	-3.24
328.731	-17.58
328.944	7
329.157	41.81
329.37	-23.72
329.583	203.6
329.796	121.68
330.009	-31.91
330.222	158.55
330.435	146.26
330.648	52.05
330.861	78.68
331.073	127.83
331.286	140.12
331.499	52.05
331.712	-19.63
331.925	37.72
332.138	0.85
332.35	111.44
332.563	-7.34
332.776	111.44
332.989	7
333.202	-44.2
333.414	-5.29
333.627	70.48
333.84	41.81
334.053	95.06
334.265	90.96
334.478	13.14
334.691	68.44
334.903	52.05
335.116	11.09
335.329	54.1
335.541	31.57
335.754	109.4
335.966	-33.96
336.179	-19.63
336.392	-23.72
336.604	39.76
336.817	107.35
337.029	23.38
337.242	37.72
337.454	97.11
337.667	70.48
337.88	217.94
338.092	109.4
338.305	45.91
338.517	47.96
338.729	113.49
338.942	127.83
339.154	-7.34
339.367	-5.29
339.579	101.2
339.792	2.9
340.004	70.48
340.217	-17.58
340.429	95.06
340.641	-19.63
340.854	-15.53
341.066	45.91
341.278	136.02
341.491	205.65
341.703	50
341.915	-23.72
342.128	-46.25
342.34	86.87
342.552	9.05
342.764	0.85
342.977	45.91
343.189	50
343.401	99.16
343.613	4.95
343.826	-11.43
344.038	-60.59
344.25	39.76
344.462	-1.19
344.674	17.24
344.886	43.86
345.099	17.24
345.311	78.68
345.523	-23.72
345.735	-46.25
345.947	29.52
346.159	66.39
346.371	35.67
346.583	-54.44
346.795	219.99
347.007	11.09
347.219	129.88
347.431	33.62
347.643	119.64
347.855	72.53
348.067	78.68
348.279	7
348.491	4.95
348.703	121.68
348.915	-1.19
349.127	7
349.339	66.39
349.551	9.05
349.763	43.86
349.975	25.43
350.187	97.11
350.399	199.51
350.61	127.83
350.822	17.24
351.034	62.29
351.246	39.76
351.458	45.91
351.669	138.07
351.881	101.2
352.093	86.87
352.305	107.35
352.517	50
352.728	168.79
352.94	33.62
353.152	25.43
353.363	-64.68
353.575	41.81
353.787	144.21
353.999	39.76
354.21	179.03
354.422	-21.67
354.633	41.81
354.845	17.24
355.057	68.44
355.268	19.29
355.48	50
355.692	-29.87
355.903	21.33
356.115	-7.34
356.326	-97.45
356.538	166.74
356.749	93.01
356.961	140.12
357.172	4.95
357.384	27.48
357.595	226.13
357.807	35.67
358.018	-60.59
358.23	-1.19
358.441	144.21
358.653	54.1
358.864	-36.01
359.075	-5.29
359.287	47.96
359.498	123.73
359.709	76.63
359.921	72.53
360.132	68.44
360.344	117.59
360.555	13.14
360.766	33.62
360.977	-23.72
361.189	119.64
361.4	13.14
361.611	93.01
361.823	152.4
362.034	76.63
362.245	-50.35
362.456	-21.67
362.667	86.87
362.879	-19.63
363.09	84.82
363.301	39.76
363.512	90.96
363.723	-60.59
363.935	27.48
364.146	109.4
364.357	-33.96
364.568	76.63
364.779	-62.63
364.99	152.4
365.201	-46.25
365.412	150.36
365.623	-36.01
365.834	62.29
366.045	52.05
366.256	27.48
366.467	62.29
366.678	7
366.889	29.52
367.1	-1.19
367.311	23.38
367.522	72.53
367.733	33.62
367.944	29.52
368.155	15.19
368.366	54.1
368.577	152.4
368.788	176.98
368.999	-36.01
369.209	52.05
369.42	203.6
369.631	262.99
369.842	50
370.053	31.57
370.264	103.25
370.474	15.19
370.685	23.38
370.896	0.85
371.107	162.64
371.317	50
371.528	29.52
371.739	136.02
371.95	62.29
372.16	185.17
372.371	31.57
372.582	25.43
372.792	84.82
373.003	47.96
373.214	13.14
373.424	41.81
373.635	-38.06
373.846	176.98
374.056	50
374.267	86.87
374.477	115.54
374.688	-19.63
374.898	68.44
375.109	107.35
375.319	25.43
375.53	35.67
375.74	33.62
375.951	19.29
376.161	68.44
376.372	119.64
376.582	45.91
376.793	97.11
377.003	64.34
377.214	21.33
377.424	111.44
377.635	84.82
377.845	21.33
378.055	129.88
378.266	-31.91
378.476	80.72
378.686	33.62
378.897	21.33
379.107	60.24
379.317	68.44
379.528	-44.2
379.738	127.83
379.948	-29.87
380.158	144.21
380.369	-1.19
380.579	68.44
380.789	13.14
380.999	88.92
381.21	154.45
381.42	203.6
381.63	76.63
381.84	80.72
382.05	37.72
382.261	97.11
382.471	109.4
382.681	56.15
382.891	123.73
383.101	109.4
383.311	13.14
383.521	39.76
383.731	43.86
383.941	191.31
384.151	29.52
384.361	78.68
384.571	58.2
384.781	88.92
384.991	136.02
385.201	271.19
385.411	133.97
385.621	62.29
385.831	37.72
386.041	93.01
386.251	29.52
386.461	138.07
386.671	2.9
386.881	99.16
387.091	60.24
387.301	90.96
387.511	56.15
387.72	33.62
387.93	74.58
388.14	0.85
388.35	-17.58
388.56	52.05
388.769	138.07
388.979	47.96
389.189	-23.72
389.399	-5.29
389.609	99.16
389.818	131.92
390.028	68.44
390.238	129.88
390.447	-33.96
390.657	101.2
390.867	60.24
391.076	-76.97
391.286	25.43
391.496	13.14
391.705	74.58
391.915	191.31
392.125	115.54
392.334	60.24
392.544	82.77
392.753	90.96
392.963	-36.01
393.172	119.64
393.382	27.48
393.591	172.88
393.801	-1.19
394.01	170.83
394.22	29.52
394.429	-25.77
394.639	68.44
394.848	80.72
395.058	15.19
395.267	-19.63
395.477	54.1
395.686	138.07
395.895	211.79
396.105	211.79
396.314	39.76
396.524	39.76
396.733	25.43
396.942	121.68
397.152	43.86
397.361	74.58
397.57	15.19
397.78	41.81
397.989	66.39
398.198	107.35
398.407	76.63
398.617	25.43
398.826	125.78
399.035	23.38
399.244	129.88
399.453	105.3
399.663	13.14
399.872	136.02
400.081	7
400.29	117.59
400.499	29.52
400.708	174.93
400.917	-31.91
401.127	64.34
401.336	33.62
401.545	185.17
401.754	154.45
401.963	88.92
402.172	64.34
402.381	-33.96
402.59	60.24
402.799	11.09
403.008	31.57
403.217	144.21
403.426	64.34
403.635	-31.91
403.844	72.53
404.053	41.81
404.262	103.25
404.471	107.35
404.68	54.1
404.888	209.75
405.097	50
405.306	41.81
405.515	166.74
405.724	39.76
405.933	80.72
406.142	54.1
406.35	142.16
406.559	-42.15
406.768	29.52
406.977	166.74
407.185	152.4
407.394	115.54
407.603	-40.11
407.812	62.29
408.02	140.12
408.229	52.05
408.438	41.81
408.646	-25.77
408.855	-38.06
409.064	27.48
409.272	86.87
409.481	41.81
409.69	113.49
409.898	9.05
410.107	31.57
410.315	150.36
410.524	58.2
410.733	25.43
410.941	68.44
411.15	72.53
411.358	154.45
411.567	187.22
411.775	60.24
411.984	129.88
412.192	88.92
412.401	15.19
412.609	189.27
412.818	154.45
413.026	142.16
413.234	-15.53
413.443	23.38
413.651	-19.63
413.86	27.48
414.068	160.59
414.276	140.12
414.485	-50.35
414.693	146.26
414.901	162.64
415.11	113.49
415.318	76.63
415.526	45.91
415.734	168.79
415.943	50
416.151	105.3
416.359	41.81
416.567	72.53
416.776	35.67
416.984	56.15
417.192	138.07
417.4	39.76
417.608	41.81
417.817	21.33
418.025	189.27
418.233	183.12
418.441	23.38
418.649	-64.68
418.857	111.44
419.065	136.02
419.273	21.33
419.481	84.82
419.689	82.77
419.897	90.96
420.105	-23.72
420.313	103.25
420.521	97.11
420.729	86.87
420.937	0.85
421.145	21.33
421.353	129.88
421.561	125.78
421.769	86.87
421.977	-17.58
422.185	58.2
422.393	68.44
422.601	146.26
422.809	21.33
423.017	68.44
423.224	52.05
423.432	131.92
423.64	23.38
423.848	156.5
424.056	-23.72
424.263	207.7
424.471	27.48
424.679	117.59
424.887	-85.16
425.094	121.68
425.302	123.73
425.51	27.48
425.718	78.68
425.925	70.48
426.133	43.86
426.341	105.3
426.548	74.58
426.756	70.48
426.964	103.25
427.171	52.05
427.379	119.64
427.586	64.34
427.794	127.83
428.001	105.3
428.209	129.88
428.417	179.03
428.624	160.59
428.832	123.73
429.039	72.53
429.247	68.44
429.454	95.06
429.662	205.65
429.869	125.78
430.076	150.36
430.284	148.31
430.491	162.64
430.699	117.59
430.906	234.32
431.114	119.64
431.321	82.77
431.528	142.16
431.736	129.88
431.943	148.31
432.15	254.8
432.358	209.75
432.565	228.18
432.772	47.96
432.979	176.98
433.187	129.88
433.394	271.19
433.601	82.77
433.808	246.61
434.016	224.08
434.223	238.42
434.43	90.96
434.637	215.89
434.844	244.56
435.052	164.69
435.259	316.24
435.466	211.79
435.673	215.89
435.88	299.86
436.087	215.89
436.294	322.38
436.501	283.47
436.708	226.13
436.915	215.89
437.122	367.44
437.329	254.8
437.537	250.71
437.743	303.95
437.95	414.54
438.157	326.48
438.364	361.3
438.571	299.86
438.778	328.53
438.985	426.83
439.192	461.65
439.399	385.87
439.606	353.1
439.813	588.62
440.02	670.54
440.227	629.58
440.433	553.8
440.64	475.98
440.847	488.27
441.054	480.08
441.261	504.65
441.467	494.41
441.674	486.22
441.881	641.87
442.088	586.57
442.294	729.93
442.501	684.87
442.708	764.75
442.914	688.97
443.121	740.17
443.328	740.17
443.534	906.06
443.741	811.85
443.948	764.75
444.154	832.33
444.361	1043.27
444.568	861
444.774	910.15
444.981	854.86
445.187	1135.43
445.394	1108.8
445.6	1020.74
445.807	1153.86
446.013	1094.47
446.22	1119.04
446.426	1166.15
446.633	1276.74
446.839	1497.92
447.046	1266.5
447.252	1426.24
447.459	1413.95
447.665	1489.73
447.871	1610.56
448.078	1708.86
448.284	1698.62
448.491	1884.98
448.697	1905.46
448.903	1942.33
449.11	1944.38
449.316	2007.86
449.522	2104.12
449.728	2188.08
449.935	2151.22
450.141	2278.19
450.347	2421.55
450.553	2378.55
450.76	2497.33
450.966	2491.18
451.172	2579.25
451.378	2757.42
451.584	2743.08
451.791	3115.81
451.997	3183.4
452.203	3242.79
452.409	3312.42
452.615	3498.78
452.821	3400.48
453.027	3466.02
453.233	3922.71
453.44	3679.01
453.646	4002.58
453.852	4133.65
454.058	4197.14
454.264	4250.39
454.47	4629.26
454.676	4645.65
454.882	5163.78
455.088	4680.46
455.294	5184.26
455.5	5374.72
455.705	5651.2
455.911	5726.97
456.117	5839.61
456.323	6183.67
456.529	6081.27
456.735	6693.62
456.941	6666.99
457.147	7047.91
457.352	7254.76
457.558	7502.56
457.764	7877.34
457.97	8096.47
458.176	8463.06
458.381	9081.55
458.587	8897.23
458.793	9401.03
458.999	9460.42
459.204	10611.38
459.41	11115.18
459.616	10769.07
459.821	11522.73
460.027	12141.21
460.233	12440.22
460.438	12710.55
460.644	13365.9
460.85	13482.63
461.055	13957.76
461.261	14764.66
461.466	14377.59
461.672	14674.55
461.878	16538.2
462.083	16040.54
462.289	16706.13
462.494	17246.8
462.7	17472.07
462.905	17652.3
463.111	19077.68
463.316	19790.38
463.522	19788.33
463.727	20933.14
463.932	21711.37
464.138	22356.48
464.343	23382.51
464.549	23566.83
464.754	25197.01
464.959	25917.9
465.165	26132.93
465.37	26038.73
465.575	26108.36
465.781	27871.66
465.986	28451.24
466.191	28340.64
466.397	28488.1
466.602	28086.7
466.807	29637.01
467.012	29907.34
467.218	30245.26
467.423	30462.34
467.628	31467.89
467.833	33016.16
468.038	32500.07
468.244	31951.21
468.449	33292.63
468.654	32854.37
468.859	33100.12
469.064	32911.71
469.269	31996.27
469.474	32338.28
469.679	33233.24
469.885	32237.93
470.09	32532.84
470.295	33128.8
470.5	32325.99
470.705	32446.82
470.91	31261.05
471.115	31134.07
471.32	31545.72
471.525	31441.27
471.73	30415.24
471.935	30554.5
472.139	29084.06
472.344	29305.24
472.549	28983.71
472.754	28309.93
472.959	28039.59
473.164	26919.35
473.369	26706.37
473.574	27314.61
473.778	26907.07
473.983	26063.3
474.188	25770.44
474.393	24783.32
474.598	24449.5
474.802	23992.81
475.007	23837.16
475.212	23779.82
475.417	22770.17
475.621	22348.29
475.826	22213.12
476.031	21498.38
476.235	21125.65
476.44	21047.83
476.645	20759.06
476.849	20558.36
477.054	20171.3
477.259	19630.63
477.463	19569.19
477.668	18700.86
477.872	19083.83
478.077	18561.59
478.282	17963.59
478.486	17859.14
478.691	17564.23
478.895	17510.99
479.1	17424.97
479.304	17156.69
479.509	16628.31
479.713	16761.43
479.918	16521.82
480.122	16200.29
480.326	16110.18
480.531	16208.48
480.735	16048.74
480.94	15850.08
481.144	16304.73
481.348	15493.74
481.553	15651.43
481.757	15313.52
481.961	15424.11
482.166	15272.56
482.37	15090.29
482.574	14637.69
482.778	14844.53
482.983	15088.24
483.187	14379.64
483.391	14643.83
483.595	14596.73
483.8	14023.3
484.004	14246.52
484.208	13947.52
484.412	13742.72
484.616	13800.07
484.821	13679.24
485.025	13283.98
485.229	13400.71
485.433	13234.83
485.637	13107.85
485.841	12855.95
486.045	12597.91
486.249	12638.87
486.453	12184.22
486.657	12243.61
486.861	11840.16
487.065	11520.68
487.269	11555.49
487.473	11383.46
487.677	11442.85
487.881	11350.7
488.085	10988.21
488.289	11082.41
488.493	10351.29
488.697	10402.49
488.901	10347.19
489.105	10189.5
489.309	10005.18
489.512	9724.61
489.716	9593.54
489.92	9472.71
490.124	9218.76
490.328	9208.52
490.531	8915.66
490.735	8710.86
490.939	8534.74
491.143	8364.76
491.346	8344.28
491.55	8223.45
491.754	7803.61
491.958	7969.5
492.161	7744.22
492.365	7758.56
492.569	7424.74
492.772	7471.84
492.976	7613.15
493.18	7197.42
493.383	7228.14
493.587	7066.35
493.79	7047.91
493.994	7025.39
494.197	6904.56
494.401	6906.6
494.605	6650.61
494.808	6773.49
495.012	6583.02
495.215	6609.65
495.419	6589.17
495.622	6292.21
495.825	6413.04
496.029	6431.48
496.232	6310.65
496.436	6384.37
496.639	6669.04
496.843	6281.97
497.046	6404.85
497.249	6515.44
497.453	6263.54
497.656	6449.91
497.859	6312.69
498.063	6302.45
498.266	6353.65
498.469	6275.83
498.673	6333.17
498.876	6466.29
499.079	6585.07
499.282	6390.52
499.485	6654.7
499.689	6460.15
499.892	6689.52
500.095	6605.55
500.298	6796.01
500.501	6492.91
500.705	6697.71
500.908	6779.63
501.111	6734.57
501.314	7013.1
501.517	6849.26
501.72	7002.86
501.923	7119.59
502.126	7221.99
502.329	7367.4
502.532	7195.37
502.735	7199.46
502.938	7523.04
503.141	7482.08
503.344	7727.84
503.547	7920.35
503.75	7813.85
503.953	7938.78
504.156	8041.18
504.359	8018.65
504.562	8075.99
504.765	8331.99
504.968	8266.46
505.17	8782.54
505.373	8512.21
505.576	8952.52
505.779	9142.99
505.982	8932.05
506.185	9384.65
506.387	9261.77
506.59	9312.97
506.793	9777.86
506.996	9843.39
507.198	10246.84
507.401	10246.84
507.604	10570.42
507.807	10748.59
508.009	10953.39
508.212	11094.7
508.415	11221.67
508.617	11195.05
508.82	11530.92
509.022	11801.25
509.225	12303
509.428	12698.26
509.63	12597.91
509.833	12821.14
510.035	13537.93
510.238	13480.58
510.44	13460.1
510.643	13963.9
510.845	14711.41
511.048	14389.88
511.25	14903.92
511.453	15170.16
511.655	15764.07
511.858	15831.65
512.06	16122.46
512.262	16511.58
512.465	16656.98
512.667	17152.59
512.87	17564.23
513.072	17973.83
513.274	18420.28
513.477	18727.48
513.679	19241.52
513.881	19763.75
514.084	20167.2
514.286	20300.32
514.488	21066.26
514.69	21654.03
514.893	21852.68
515.095	22077.96
515.297	22655.48
515.499	23347.7
515.701	23593.45
515.904	24562.14
516.106	24666.59
516.308	24977.88
516.51	25645.52
516.712	25854.41
516.914	26614.21
517.116	26616.26
517.318	27212.21
517.52	28025.26
517.722	28297.64
517.925	28866.97
518.127	29634.96
518.329	29847.95
518.531	29974.92
518.733	31054.2
518.935	31433.08
519.136	31480.18
519.338	32229.74
519.54	32522.6
519.742	33446.23
519.944	33704.28
520.146	34277.71
520.348	34492.74
520.55	34705.73
520.752	35195.2
520.954	35961.14
521.155	35664.18
521.357	36469.03
521.559	37028.13
521.761	37660.95
521.963	37570.84
522.164	38160.66
522.366	38056.21
522.568	38433.03
522.77	38875.4
522.971	39323.9
523.173	39467.26
523.375	39555.32
523.576	39717.11
523.778	39594.23
523.98	40091.89
524.181	40167.66
524.383	40241.39
524.584	40370.41
524.786	40753.38
524.988	40403.18
525.189	40710.38
525.391	40777.96
525.592	40780.01
525.794	40806.63
525.995	40464.62
526.197	40544.49
526.398	40386.8
526.6	40605.93
526.801	40573.16
527.003	40009.97
527.204	40003.83
527.406	40071.41
527.607	39766.26
527.808	39946.48
528.01	38672.65
528.211	39115.01
528.412	39762.17
528.614	38637.83
528.815	38136.08
529.016	38332.68
529.218	37818.64
529.419	37878.04
529.62	37312.8
529.822	36530.47
530.023	36432.17
530.224	36477.22
530.425	36067.63
530.626	35285.31
530.828	35094.85
531.029	35543.35
531.23	34339.15
531.431	34027.85
531.632	33347.93
531.833	33024.35
532.035	32928.09
532.236	32602.47
532.437	32266.6
532.638	31961.45
532.839	31435.13
533.04	31435.13
533.241	30265.74
533.442	30693.76
533.643	29610.39
533.844	29145.5
534.045	29036.95
534.246	28354.98
534.447	28307.88
534.648	27546.03
534.849	27511.22
535.05	27259.32
535.251	26722.75
535.451	26104.26
535.652	25944.52
535.853	25860.55
536.054	25250.26
536.255	25170.39
536.456	24469.98
536.657	24437.22
536.857	23806.44
537.058	23626.22
537.259	23628.27
537.46	23210.48
537.66	22327.81
537.861	22467.07
538.062	21891.59
538.263	21678.6
538.463	21438.99
538.664	21307.92
538.865	20984.34
539.065	20898.33
539.266	20421.15
539.466	20355.61
539.667	19993.12
539.868	20017.7
540.068	19630.63
540.269	19345.97
540.469	19130.93
540.67	19128.88
540.87	18682.42
541.071	18244.16
541.271	18004.55
541.472	18068.03
541.672	17840.71
541.873	17584.71
542.073	17234.51
542.274	17261.13
542.474	17107.54
542.675	16681.56
542.875	16654.94
543.075	16439.9
543.276	16144.99
543.476	16284.25
543.676	15780.45
543.877	15780.45
544.077	15577.7
544.277	15356.52
544.478	15164.01
544.678	15184.49
544.878	14725.75
545.078	14944.88
545.279	14254.72
545.479	14262.91
545.679	14183.04
545.879	13963.9
546.079	13736.58
546.28	13666.95
546.48	13443.72
546.68	13709.96
546.88	13087.37
547.08	12905.1
547.28	12833.43
547.48	12608.15
547.68	12647.06
547.88	12309.15
548.081	12325.53
548.281	12022.43
548.481	11956.89
548.681	12108.44
548.881	11750.05
549.081	11633.32
549.28	11297.45
549.48	11393.7
549.68	11279.02
549.88	11059.88
550.08	10681.01
550.28	10760.88
550.48	10797.74
550.68	10556.08
550.88	10261.18
551.08	10064.57
551.279	10042.04
551.479	9659.07
551.679	9626.31
551.879	9552.58
552.079	9433.8
552.278	9308.87
552.478	9317.06
552.678	9005.77
552.878	9003.72
553.077	8745.68
553.277	8422.1
553.477	8456.92
553.676	8450.77
553.876	8192.73
554.076	7938.78
554.275	7789.28
554.475	7703.26
554.674	7750.37
554.874	7678.69
555.074	7285.48
555.273	7410.4
555.473	7228.14
555.672	6998.76
555.872	6949.61
556.071	6992.62
556.271	6890.22
556.47	6544.11
556.67	6603.5
556.869	6515.44
557.068	6333.17
557.268	6339.32
557.467	6226.68
557.667	6228.73
557.866	6028.03
558.065	5849.85
558.265	5729.02
558.464	5616.38
558.663	5782.27
558.863	5479.17
559.062	5575.42
559.261	5362.44
559.461	5323.52
559.66	5233.41
559.859	5114.63
560.058	5108.49
560.258	4887.31
560.457	4784.91
560.656	4930.31
560.855	4696.85
561.054	4690.7
561.253	4684.56
561.453	4578.06
561.652	4397.84
561.851	4533.01
562.05	4389.65
562.249	4178.71
562.448	4215.57
562.647	3887.9
562.846	3978.01
563.045	4096.79
563.244	3951.39
563.443	3752.73
563.642	3736.35
563.841	3924.76
564.04	3793.69
564.239	3652.38
564.438	3672.86
564.637	3490.59
564.836	3480.35
565.035	3457.82
565.234	3273.51
565.432	3357.47
565.631	3353.38
565.83	3380
566.029	3230.5
566.228	3027.75
566.427	3371.81
566.625	2937.64
566.824	3007.27
567.023	3003.18
567.222	3021.61
567.42	2921.26
567.619	2911.02
567.818	2685.74
568.016	2984.74
568.215	2757.42
568.414	2812.71
568.612	2693.93
568.811	2724.65
569.01	2675.5
569.208	2665.26
569.407	2585.39
569.605	2562.86
569.804	2497.33
570.002	2511.66
570.201	2417.46
570.4	2411.31
570.598	2243.38
570.797	2300.72
570.995	2153.27
571.193	2265.91
571.392	2212.66
571.59	2171.7
571.789	2079.54
571.987	2222.9
572.186	2052.92
572.384	2087.73
572.582	1966.9
572.781	2151.22
572.979	1821.5
573.177	1948.47
573.376	1903.42
573.574	2016.05
573.772	1792.83
573.971	1737.53
574.169	1665.85
574.367	1790.78
574.565	1624.89
574.763	1682.24
574.962	1717.05
575.16	1708.86
575.358	1651.52
575.556	1590.08
575.754	1545.02
575.952	1487.68
576.151	1493.82
576.349	1502.01
576.547	1444.67
576.745	1407.81
576.943	1528.64
577.141	1395.52
577.339	1325.89
577.537	1440.58
577.735	1407.81
577.933	1325.89
578.131	1227.59
578.329	1389.38
578.527	1293.12
578.725	1323.84
578.923	1051.46
579.121	1329.99
579.319	1069.89
579.516	1149.76
579.714	1325.89
579.912	1053.51
580.11	1051.46
580.308	1178.44
580.506	1155.91
580.704	947.01
580.901	969.54
581.099	1051.46
581.297	1016.65
581.495	1024.84
581.692	928.58
581.89	1067.85
582.088	951.11
582.285	949.06
582.483	959.3
582.681	865.1
582.878	924.49
583.076	975.69
583.274	947.01
583.471	1067.85
583.669	934.73
583.866	783.18
584.064	697.16
584.262	654.16
584.459	766.79
584.657	774.99
584.854	805.71
585.052	703.31
585.249	756.55
585.447	805.71
585.644	623.44
585.841	809.8
586.039	813.9
586.236	854.86
586.434	781.13
586.631	754.51
586.828	602.96
587.026	879.43
587.223	678.73
587.42	652.11
587.618	666.44
587.815	725.83
588.012	607.05
588.21	553.8
588.407	709.45
588.604	713.55
588.801	533.33
588.999	635.72
589.196	672.59
589.393	529.23
589.59	668.49
589.787	744.27
589.984	686.92
590.182	559.95
590.379	402.26
590.576	516.94
590.773	588.62
590.97	615.24
591.167	631.63
591.364	650.06
591.561	437.07
591.758	680.78
591.955	592.72
592.152	373.58
592.349	430.93
592.546	516.94
592.743	471.89
592.94	439.12
593.137	600.91
593.334	619.34
593.531	582.48
593.727	602.96
593.924	562
594.121	568.14
594.318	484.17
594.515	545.61
594.712	625.48
594.908	602.96
595.105	496.46
595.302	600.91
595.499	615.24
595.696	688.97
595.892	578.38
596.089	641.87
596.286	611.15
596.482	672.59
596.679	662.35
596.876	607.05
597.072	777.03
597.269	607.05
597.466	813.9
597.662	682.83
597.859	680.78
598.055	750.41
598.252	830.28
598.448	848.71
598.645	885.58
598.841	842.57
599.038	1020.74
599.234	1090.37
599.431	942.92
599.627	951.11
599.824	992.07
600.02	1041.22
600.217	1088.32
600.413	1235.78
600.609	1227.59
600.806	1438.53
601.002	1416
601.198	1297.22
601.395	1534.78
601.591	1377.09
601.787	1436.48
601.984	1624.89
602.18	1585.98
602.376	1731.39
602.572	1835.83
602.769	1860.41
602.965	1801.02
603.161	2003.77
603.357	2022.2
603.553	2100.02
603.75	2079.54
603.946	2231.09
604.142	2302.77
604.338	2495.28
604.534	2442.03
604.73	2413.36
604.926	2597.68
605.122	2734.89
605.318	2736.94
605.514	2906.92
605.71	2851.63
605.906	3060.52
606.102	3031.85
606.298	3310.37
606.494	3453.73
606.69	3484.45
606.886	3390.24
607.082	3621.66
607.278	3648.29
607.474	3762.97
607.67	3906.33
607.866	3879.71
608.062	4350.74
608.257	4272.92
608.453	4266.77
608.649	4641.55
608.845	4457.23
609.041	4576.02
609.236	4868.88
609.432	5088.01
609.628	5176.07
609.824	5278.47
610.019	5323.52
610.215	5499.65
610.411	5790.46
610.606	5890.81
610.802	5909.24
610.998	5989.11
611.193	6269.69
611.389	6300.41
611.584	6478.58
611.78	6609.65
611.976	6775.53
612.171	7197.42
612.367	7422.69
612.562	7471.84
612.758	7744.22
612.953	7660.26
613.149	8102.62
613.344	8219.35
613.539	8512.21
613.735	8692.43
613.93	9007.82
614.126	9059.02
614.321	9491.14
614.517	9560.77
614.712	10031.8
614.907	10152.63
615.103	10554.04
615.298	10719.92
615.493	11100.84
615.688	11190.95
615.884	11508.39
616.079	11651.75
616.274	12032.67
616.47	12425.88
616.665	12712.6
616.86	12808.85
617.055	13439.62
617.25	13607.56
617.445	14113.41
617.641	14183.04
617.836	14707.32
618.031	14822
618.226	15682.15
618.421	15565.42
618.616	16208.48
618.811	16276.06
619.006	16937.55
619.201	17105.49
619.396	17603.14
619.591	17836.61
619.786	18383.42
619.981	18643.51
620.176	19341.87
620.371	19597.87
620.566	20062.76
620.761	20494.88
620.956	20875.8
621.151	20775.45
621.346	21617.16
621.541	21731.85
621.735	22860.28
621.93	22520.32
622.125	23466.48
622.32	23546.35
622.515	23966.18
622.709	24523.23
622.904	24969.69
623.099	25115.09
623.294	25899.47
623.488	25969.1
623.683	26821.05
623.878	26753.47
624.072	27500.98
624.267	27855.28
624.462	28711.33
624.656	28592.55
624.851	29016.47
625.046	29282.71
625.24	29870.48
625.435	30431.62
625.629	31017.34
625.824	31390.07
626.018	31623.54
626.213	31758.7
626.407	32371.05
626.602	32354.66
626.796	33223
626.991	33626.45
627.185	33581.4
627.38	33726.8
627.574	34117.96
627.768	34122.06
627.963	34781.51
628.157	34713.92
628.352	34718.02
628.546	34535.75
628.74	35158.33
628.935	34642.24
629.129	34955.58
629.323	34603.33
629.517	34644.29
629.712	34013.52
629.906	34019.66
630.1	33708.37
630.294	33907.02
630.489	33235.29
630.683	33044.83
630.877	32006.51
631.071	31476.09
631.265	31299.96
631.459	31127.93
631.653	30337.41
631.848	29475.22
632.042	28617.12
632.236	28139.94
632.43	27404.72
632.624	26810.81
632.818	25956.81
633.012	24963.54
633.206	24584.67
633.4	23855.59
633.594	22290.95
633.788	22309.38
633.982	21754.38
634.176	20716.06
634.369	19986.98
634.563	19229.23
634.757	18354.75
634.951	18178.62
635.145	17138.26
635.339	16421.47
635.533	15964.77
635.726	15139.44
635.92	14424.7
636.114	14023.3
636.308	13642.37
636.501	12851.86
636.695	12505.75
636.889	11688.61
637.083	11240.11
637.276	10908.33
637.47	10310.33
637.664	10115.77
637.857	9865.92
638.051	9384.65
638.244	8794.83
638.438	8688.34
638.632	8397.53
638.825	7834.33
639.019	7578.34
639.212	7310.05
639.406	6916.84
639.599	6753.01
639.793	6456.05
639.986	6171.38
640.18	6081.27
640.373	5804.8
640.567	5520.13
640.76	5241.61
640.954	5104.39
641.147	4872.97
641.34	4688.65
641.534	4547.34
641.727	4516.62
641.92	4393.75
642.114	4117.27
642.307	3851.03
642.5	3902.23
642.694	3621.66
642.887	3502.88
643.08	3568.41
643.273	3267.36
643.467	2999.08
643.66	2917.16
643.853	2732.84
644.046	2880.3
644.239	2700.08
644.432	2534.19
644.626	2448.18
644.819	2378.55
645.012	2362.16
645.205	2245.43
645.398	2161.46
645.591	2110.26
645.784	1919.8
645.977	1891.13
646.17	1893.18
646.363	1807.16
646.556	1637.18
646.749	1686.33
646.942	1614.65
647.135	1536.83
647.328	1422.14
647.521	1338.18
647.714	1321.79
647.907	1274.69
648.099	1184.58
648.292	1223.49
648.485	1028.93
648.678	1080.13
648.871	1061.7
649.064	1098.56
649.256	998.21
649.449	881.48
649.642	836.42
649.835	869.19
650.027	817.99
650.22	918.34
650.413	725.83
650.605	736.07
650.798	684.87
650.991	629.58
651.183	662.35
651.376	787.27
651.568	658.25
651.761	639.82
651.954	619.34
652.146	627.53
652.339	631.63
652.531	596.81
652.724	635.72
652.916	508.75
653.109	424.78
653.301	516.94
653.494	559.95
653.686	523.09
653.879	596.81
654.071	523.09
654.263	402.26
654.456	389.97
654.648	531.28
654.84	349.01
655.033	291.66
655.225	459.6
655.417	342.86
655.61	371.54
655.802	486.22
655.994	381.78
656.186	301.9
656.379	351.06
656.571	310.1
656.763	283.47
656.955	281.43
657.148	215.89
657.34	269.14
657.532	271.19
657.724	275.28
657.916	324.43
658.108	385.87
658.3	297.81
658.492	275.28
658.684	211.79
658.876	285.52
659.068	230.23
659.26	62.29
659.452	105.3
659.644	328.53
659.836	353.1
660.028	228.18
660.22	152.4
660.412	299.86
660.604	174.93
660.796	211.79
660.988	262.99
661.18	191.31
661.372	250.71
661.563	238.42
661.755	242.51
661.947	131.92
662.139	133.97
662.331	119.64
662.522	258.9
662.714	156.5
662.906	105.3
663.097	248.66
663.289	138.07
663.481	82.77
663.673	219.99
663.864	123.73
664.056	258.9
664.247	41.81
664.439	230.23
664.631	193.36
664.822	246.61
665.014	144.21
665.205	90.96
665.397	160.59
665.588	74.58
665.78	172.88
665.971	228.18
666.163	121.68
666.354	107.35
666.546	117.59
666.737	97.11
666.929	99.16
667.12	58.2
667.311	189.27
667.503	66.39
667.694	133.97
667.885	95.06
668.077	58.2
668.268	68.44
668.459	103.25
668.651	129.88
668.842	258.9
669.033	95.06
669.224	74.58
669.416	250.71
669.607	35.67
669.798	47.96
669.989	213.84
670.18	176.98
670.371	170.83
670.563	50
670.754	211.79
670.945	136.02
671.136	213.84
671.327	142.16
671.518	179.03
671.709	203.6
671.9	176.98
672.091	269.14
672.282	142.16
672.473	158.55
672.664	56.15
672.855	117.59
673.046	158.55
673.237	148.31
673.428	123.73
673.619	181.07
673.809	133.97
674	215.89
674.191	136.02
674.382	129.88
674.573	109.4
674.764	172.88
674.954	226.13
675.145	62.29
675.336	47.96
675.527	50
675.717	88.92
675.908	37.72
676.099	72.53
676.289	156.5
676.48	54.1
676.671	105.3
676.861	37.72
677.052	136.02
677.243	47.96
677.433	78.68
677.624	131.92
677.814	127.83
678.005	93.01
678.195	281.43
678.386	60.24
678.576	142.16
678.767	74.58
678.957	64.34
679.148	172.88
679.338	236.37
679.529	203.6
679.719	90.96
679.909	224.08
680.1	205.65
680.29	115.54
680.481	62.29
680.671	172.88
680.861	248.66
681.052	172.88
681.242	86.87
681.432	148.31
681.622	168.79
681.813	72.53
682.003	162.64
682.193	35.67
682.383	103.25
682.573	133.97
682.764	93.01
682.954	191.31
683.144	195.41
683.334	95.06
683.524	164.69
683.714	152.4
683.904	174.93
684.094	152.4
684.284	125.78
684.474	283.47
684.664	209.75
684.854	219.99
685.044	217.94
685.234	121.68
685.424	185.17
685.614	193.36
685.804	267.09
685.994	179.03
686.184	150.36
686.374	199.51
686.564	125.78
686.753	199.51
686.943	111.44
687.133	158.55
687.323	140.12
687.513	203.6
687.702	185.17
687.892	136.02
688.082	279.38
688.272	234.32
688.461	148.31
688.651	265.04
688.841	172.88
689.03	226.13
689.22	174.93
689.41	133.97
689.599	133.97
689.789	172.88
689.979	242.51
690.168	187.22
690.358	170.83
690.547	131.92
690.737	181.07
690.926	162.64
691.116	172.88
691.305	222.03
691.495	224.08
691.684	78.68
691.874	58.2
692.063	156.5
692.252	185.17
692.442	252.75
692.631	144.21
692.82	119.64
693.01	133.97
693.199	152.4
693.388	152.4
693.578	140.12
693.767	189.27
693.956	224.08
694.146	103.25
694.335	162.64
694.524	136.02
694.713	138.07
694.902	86.87
695.092	138.07
695.281	136.02
695.47	136.02
695.659	97.11
695.848	144.21
696.037	86.87
696.226	224.08
696.415	244.56
696.604	328.53
696.793	205.65
696.982	133.97
697.171	262.99
697.36	152.4
697.549	176.98
697.738	-21.67
697.927	107.35
698.116	174.93
698.305	277.33
698.494	205.65
698.683	78.68
698.872	349.01
699.061	60.24
699.25	111.44
699.438	148.31
699.627	93.01
699.816	230.23
700.005	76.63
700.193	156.5
700.382	254.8
700.571	138.07
700.76	273.23
700.948	185.17
701.137	156.5
701.326	170.83
701.514	86.87
701.703	90.96
701.892	215.89
702.08	254.8
702.269	164.69
702.457	107.35
702.646	166.74
702.834	60.24
703.023	148.31
703.212	172.88
703.4	121.68
703.589	121.68
703.777	111.44
703.965	35.67
704.154	39.76
704.342	148.31
704.531	103.25
704.719	123.73
704.907	224.08
705.096	54.1
705.284	121.68
705.472	244.56
705.661	162.64
705.849	174.93
706.037	185.17
706.226	168.79
706.414	176.98
706.602	41.81
706.79	209.75
706.979	111.44
707.167	174.93
707.355	-9.39
707.543	172.88
707.731	199.51
707.919	203.6
708.107	136.02
708.296	144.21
708.484	111.44
708.672	146.26
708.86	136.02
709.048	148.31
709.236	99.16
709.424	203.6
709.612	150.36
709.8	54.1
709.988	113.49
710.176	179.03
710.364	232.27
710.551	64.34
710.739	164.69
710.927	111.44
711.115	176.98
711.303	164.69
711.491	152.4
711.679	144.21
711.866	156.5
712.054	146.26
712.242	193.36
712.43	164.69
712.617	52.05
712.805	150.36
712.993	52.05
713.181	-27.82
713.368	203.6
713.556	158.55
713.744	86.87
713.931	283.47
714.119	222.03
714.306	64.34
714.494	125.78
714.682	150.36
714.869	84.82
715.057	62.29
715.244	111.44
715.432	144.21
715.619	152.4
715.807	181.07
715.994	172.88
716.182	240.47
716.369	205.65
716.556	170.83
716.744	17.24
716.931	45.91
717.119	215.89
717.306	215.89
717.493	205.65
717.681	117.59
717.868	131.92
718.055	207.7
718.242	101.2
718.43	189.27
718.617	265.04
718.804	148.31
718.991	342.86
719.179	160.59
719.366	160.59
719.553	136.02
719.74	158.55
719.927	133.97
720.114	121.68
720.301	119.64
720.488	68.44
720.676	52.05
720.863	193.36
721.05	342.86
721.237	191.31
721.424	254.8
721.611	156.5
721.798	115.54
721.985	181.07
722.172	189.27
722.358	168.79
722.545	183.12
722.732	195.41
722.919	244.56
723.106	205.65
723.293	176.98
723.48	164.69
723.667	62.29
723.853	197.46
724.04	191.31
724.227	258.9
724.414	158.55
724.6	234.32
724.787	355.15
724.974	254.8
725.161	254.8
725.347	140.12
725.534	74.58
725.72	222.03
725.907	244.56
726.094	316.24
726.28	183.12
726.467	205.65
726.653	232.27
726.84	306
727.027	306
727.213	197.46
727.4	199.51
727.586	238.42
727.773	160.59
727.959	181.07
728.145	193.36
728.332	213.84
728.518	93.01
728.705	271.19
728.891	281.43
729.077	232.27
729.264	203.6
729.45	84.82
729.636	293.71
729.823	248.66
730.009	250.71
730.195	242.51
730.382	279.38
730.568	70.48
730.754	152.4
730.94	242.51
731.126	271.19
731.313	312.14
731.499	265.04
731.685	283.47
731.871	215.89
732.057	191.31
732.243	314.19
732.429	191.31
732.615	293.71
732.801	283.47
732.987	230.23
733.173	213.84
733.359	195.41
733.545	236.37
733.731	215.89
733.917	310.1
734.103	244.56
734.289	285.52
734.475	211.79
734.661	402.26
734.847	222.03
735.033	232.27
735.219	242.51
735.404	277.33
735.59	246.61
735.776	199.51
735.962	240.47
736.148	283.47
736.333	334.67
736.519	252.75
736.705	277.33
736.89	197.46
737.076	283.47
737.262	179.03
737.447	242.51
737.633	234.32
737.819	308.05
738.004	306
738.19	213.84
738.375	332.62
738.561	297.81
738.747	326.48
738.932	152.4
739.118	441.17
739.303	336.72
739.489	314.19
739.674	254.8
739.859	213.84
740.045	250.71
740.23	226.13
740.416	183.12
740.601	213.84
740.786	211.79
740.972	199.51
741.157	256.85
741.342	312.14
741.528	160.59
741.713	351.06
741.898	226.13
742.084	250.71
742.269	228.18
742.454	318.29
742.639	318.29
742.824	217.94
743.01	322.38
743.195	377.68
743.38	230.23
743.565	293.71
743.75	332.62
743.935	365.39
744.12	308.05
744.305	150.36
744.49	254.8
744.675	232.27
744.86	117.59
745.045	271.19
745.23	238.42
745.415	273.23
745.6	400.21
745.785	191.31
745.97	353.1
746.155	306
746.34	283.47
746.525	324.43
746.71	330.58
746.895	197.46
747.079	176.98
747.264	211.79
747.449	244.56
747.634	328.53
747.819	342.86
748.003	232.27
748.188	179.03
748.373	267.09
748.557	285.52
748.742	252.75
748.927	254.8
749.111	275.28
749.296	189.27
749.481	283.47
749.665	199.51
749.85	162.64
750.034	217.94
750.219	248.66
750.404	162.64
750.588	289.62
750.773	166.74
750.957	185.17
751.141	224.08
751.326	222.03
751.51	99.16
751.695	281.43
751.879	254.8
752.064	318.29
752.248	185.17
752.432	334.67
752.617	262.99
752.801	236.37
752.985	252.75
753.17	301.9
753.354	215.89
753.538	238.42
753.722	236.37
753.907	172.88
754.091	168.79
754.275	201.55
754.459	133.97
754.643	82.77
754.828	219.99
755.012	334.67
755.196	105.3
755.38	158.55
755.564	115.54
755.748	193.36
755.932	248.66
756.116	265.04
756.3	201.55
756.484	230.23
756.668	240.47
756.852	33.62
757.036	166.74
757.22	119.64
757.404	142.16
757.588	136.02
757.772	146.26
757.956	164.69
758.14	291.66
758.323	129.88
758.507	299.86
758.691	62.29
758.875	271.19
759.059	310.1
759.242	174.93
759.426	156.5
759.61	119.64
759.794	101.2
759.977	277.33
760.161	330.58
760.345	258.9
760.528	170.83
760.712	215.89
760.895	176.98
761.079	111.44
761.263	107.35
761.446	144.21
761.63	80.72
761.813	226.13
761.997	131.92
762.18	58.2
762.364	158.55
762.547	17.24
762.731	105.3
762.914	115.54
763.098	103.25
763.281	125.78
763.464	129.88
763.648	119.64
763.831	197.46
764.015	13.14
764.198	238.42
764.381	129.88
764.564	195.41
764.748	107.35
764.931	189.27
765.114	168.79
765.297	129.88
765.481	133.97
765.664	136.02
765.847	74.58
766.03	187.22
766.213	86.87
766.397	160.59
766.58	86.87
766.763	160.59
766.946	70.48
767.129	97.11
767.312	101.2
767.495	93.01
767.678	41.81
767.861	164.69
768.044	219.99
768.227	60.24
768.41	228.18
768.593	158.55
768.776	107.35
768.959	70.48
769.142	219.99
769.324	127.83
769.507	127.83
769.69	17.24
769.873	117.59
770.056	215.89
770.239	90.96
770.421	215.89
770.604	172.88
770.787	185.17
770.97	146.26
771.152	25.43
771.335	148.31
771.518	21.33
771.7	219.99
771.883	150.36
772.066	11.09
772.248	181.07
772.431	242.51
772.613	168.79
772.796	35.67
772.978	88.92
773.161	203.6
773.343	45.91
773.526	52.05
773.708	-48.3
773.891	56.15
774.073	50
774.256	74.58
774.438	217.94
774.621	50
774.803	99.16
774.985	74.58
775.168	84.82
775.35	-1.19
775.532	117.59
775.715	62.29
775.897	101.2
776.079	95.06
776.261	58.2
776.444	197.46
776.626	66.39
776.808	119.64
776.99	76.63
777.173	99.16
777.355	125.78
777.537	9.05
777.719	64.34
777.901	109.4
778.083	37.72
778.265	41.81
778.447	70.48
778.629	74.58
778.811	101.2
778.993	121.68
779.175	203.6
779.357	90.96
779.539	-7.34
779.721	45.91
779.903	133.97
780.085	31.57
780.267	54.1
780.449	119.64
780.631	199.51
780.812	166.74
780.994	80.72
781.176	78.68
781.358	-54.44
781.54	78.68
781.721	95.06
781.903	189.27
782.085	88.92
782.267	217.94
782.448	0.85
782.63	90.96
782.812	13.14
782.993	52.05
783.175	82.77
783.357	-19.63
783.538	43.86
783.72	-17.58
783.901	93.01
784.083	93.01
784.264	113.49
784.446	15.19
784.627	-62.63
784.809	95.06
784.99	86.87
785.172	119.64
785.353	68.44
785.535	107.35
785.716	-3.24
785.897	-33.96
786.079	35.67
786.26	119.64
786.441	99.16
786.623	-42.15
786.804	76.63
786.985	72.53
787.167	45.91
787.348	15.19
787.529	-5.29
787.71	99.16
787.891	127.83
788.073	9.05
788.254	-21.67
788.435	156.5
788.616	47.96
788.797	-3.24
788.978	37.72
789.159	4.95
789.34	47.96
789.522	-21.67
789.703	-13.48
789.884	127.83
790.065	76.63
790.246	248.66
790.427	-5.29
790.607	80.72
790.788	138.07
790.969	29.52
791.15	129.88
791.331	15.19
791.512	56.15
791.693	9.05
791.874	-38.06
792.054	256.85
792.235	33.62
792.416	-93.35
792.597	58.2
792.778	52.05
792.958	19.29
793.139	41.81
793.32	-15.53
793.5	-7.34
793.681	131.92
793.862	70.48
794.042	-7.34
794.223	-87.21
794.404	47.96
794.584	-99.5
794.765	74.58
794.945	50
795.126	52.05
795.306	64.34
795.487	-11.43
795.667	31.57
795.848	144.21
796.028	-11.43
796.209	29.52
796.389	50
796.57	-13.48
796.75	-15.53
796.93	29.52
797.111	-9.39
797.291	111.44
797.471	47.96
797.652	54.1
797.832	17.24
798.012	164.69
798.192	-13.48
798.373	-140.46
798.553	-29.87
798.733	29.52
798.913	13.14
799.093	2.9
799.274	72.53
799.454	66.39
799.634	33.62
799.814	41.81
799.994	97.11
800.174	99.16
800.354	29.52
800.534	-40.11
800.714	146.26
800.894	-56.49
801.074	-31.91
801.254	-7.34
801.434	7
801.614	31.57
801.794	-1.19
801.974	1862.46
802.154	37.72
802.334	99.16
802.514	-50.35
802.693	-46.25
802.873	25.43
803.053	146.26
803.233	-72.87
803.413	47.96
803.592	-21.67
803.772	82.77
803.952	52.05
804.131	-113.83
804.311	64.34
804.491	95.06
804.67	-15.53
804.85	-19.63
805.03	-17.58
805.209	45.91
805.389	-1.19
805.568	9.05
805.748	-3.24
805.928	27.48
806.107	123.73
806.287	125.78
806.466	19.29
806.646	-11.43
806.825	-29.87
807.004	7
807.184	33.62
807.363	52.05
807.543	39.76
807.722	-95.4
807.901	164.69
808.081	54.1
808.26	-132.26
808.439	21.33
808.619	27.48
808.798	17.24
808.977	2.9
809.156	66.39
809.336	35.67
809.515	88.92
809.694	-62.63
809.873	-1.19
810.052	54.1
810.231	168.79
810.411	99.16
810.59	107.35
810.769	27.48
810.948	66.39
811.127	-165.03
811.306	-33.96
811.485	-23.72
811.664	58.2
811.843	70.48
812.022	-72.87
812.201	37.72
812.38	-5.29
812.559	-40.11
812.737	39.76
812.916	-99.5
813.095	-97.45
813.274	47.96
813.453	66.39
813.632	17.24
813.811	138.07
813.989	-124.07
814.168	19.29
814.347	-46.25
814.526	-48.3
814.704	90.96
814.883	113.49
815.062	-27.82
815.24	82.77
815.419	-52.39
815.598	31.57
815.776	-85.16
815.955	-17.58
816.133	-93.35
816.312	33.62
816.49	19.29
816.669	31.57
816.847	-76.97
817.026	56.15
817.204	-31.91
817.383	29.52
817.561	-56.49
817.74	9.05
817.918	66.39
818.097	15.19
818.275	-113.83
818.453	72.53
818.632	-7.34
818.81	-29.87
818.988	17.24
819.167	-1.19
819.345	68.44
819.523	-9.39
819.701	-5.29
819.879	33.62
820.058	23.38
820.236	35.67
820.414	-48.3
820.592	-15.53
820.77	31.57
820.948	-15.53
821.127	-29.87
821.305	74.58
821.483	9.05
821.661	60.24
821.839	23.38
822.017	-13.48
822.195	-19.63
822.373	84.82
822.551	-48.3
822.729	123.73
822.907	-113.83
823.085	41.81
823.262	62.29
823.44	-11.43
823.618	-27.82
823.796	23.38
823.974	25.43
824.152	21.33
824.329	-74.92
824.507	-15.53
824.685	54.1
824.863	33.62
825.04	13.14
825.218	45.91
825.396	0.85
825.574	99.16
825.751	17.24
825.929	50
826.107	-93.35
826.284	-27.82
826.462	162.64
826.639	-54.44
826.817	-33.96
826.994	84.82
827.172	-50.35
827.349	54.1
827.527	27.48
827.704	35.67
827.882	80.72
828.059	-62.63
828.237	-23.72
828.414	115.54
828.591	-142.5
828.769	-50.35
828.946	-29.87
829.124	15.19
829.301	123.73
829.478	41.81
829.655	56.15
829.833	17.24
830.01	-64.68
830.187	31.57
830.364	19.29
830.542	64.34
830.719	101.2
830.896	97.11
831.073	74.58
831.25	-40.11
831.427	103.25
831.604	-68.78
831.782	-48.3
831.959	113.49
832.136	-38.06
832.313	21.33
832.49	-13.48
832.667	-33.96
832.844	-52.39
833.021	-5.29
833.198	39.76
833.374	4.95
833.551	0.85
833.728	-13.48
833.905	72.53
834.082	-44.2
834.259	35.67
834.436	181.07
834.612	-79.02
834.789	93.01
834.966	66.39
835.143	60.24
835.319	-46.25
835.496	72.53
835.673	56.15
835.85	60.24
836.026	41.81
836.203	52.05
836.38	-54.44
836.556	-60.59
836.733	-66.73
836.909	111.44
837.086	2.9
837.262	-130.22
837.439	-9.39
837.616	-50.35
837.792	-33.96
837.968	-11.43
838.145	-99.5
838.321	64.34
838.498	111.44
838.674	54.1
838.851	19.29
839.027	15.19
839.203	70.48
839.38	78.68
839.556	17.24
839.732	58.2
839.909	29.52
840.085	58.2
840.261	21.33
840.437	25.43
840.614	-3.24
840.79	56.15
840.966	41.81
841.142	-62.63
841.318	-48.3
841.494	54.1
841.671	93.01
841.847	-113.83
842.023	-64.68
842.199	68.44
842.375	164.69
842.551	-175.27
842.727	-21.67
842.903	133.97
843.079	-85.16
843.255	138.07
843.431	15.19
843.607	127.83
843.783	-60.59
843.959	60.24
844.134	13.14
844.31	142.16
844.486	9.05
844.662	-44.2
844.838	-25.77
845.013	27.48
845.189	43.86
845.365	7
845.541	11.09
845.716	35.67
845.892	76.63
846.068	-3.24
846.244	-27.82
846.419	-44.2
846.595	-29.87
846.77	-66.73
846.946	62.29
847.122	43.86
847.297	-68.78
847.473	121.68
847.648	-19.63
847.824	52.05
847.999	-160.94
848.175	-5.29
848.35	66.39
848.526	54.1
848.701	17.24
848.876	17.24
849.052	125.78
849.227	13.14
849.403	70.48
849.578	58.2
849.753	35.67
849.929	-5.29
850.104	-111.78
850.279	-36.01
850.454	41.81
850.63	95.06
850.805	-7.34
850.98	-33.96
851.155	-3.24
851.33	25.43
851.505	-70.83
851.681	160.59
851.856	19.29
852.031	-1.19
852.206	80.72
852.381	-83.11
852.556	-13.48
852.731	19.29
852.906	25.43
853.081	70.48
853.256	62.29
853.431	-21.67
853.606	-36.01
853.781	-113.83
853.956	-136.36
854.131	9.05
854.305	-87.21
854.48	-23.72
854.655	47.96
854.83	56.15
855.005	-33.96
855.18	0.85
855.354	-1.19
855.529	-25.77
855.704	-64.68
855.879	23.38
856.053	-70.83
856.228	9.05
856.403	-44.2
856.577	72.53
856.752	-79.02
856.926	33.62
857.101	4.95
857.276	-52.39
857.45	37.72
857.625	23.38
857.799	-23.72
857.974	101.2
858.148	-52.39
858.323	7
858.497	-29.87
858.672	-27.82
858.846	2.9
859.02	72.53
859.195	-48.3
859.369	13.14
859.543	4.95
859.718	-25.77
859.892	-83.11
860.066	41.81
860.241	-85.16
860.415	-44.2
860.589	-21.67
860.763	15.19
860.938	56.15
861.112	52.05
861.286	-109.74
861.46	76.63
861.634	84.82
861.808	43.86
861.982	-68.78
862.157	-44.2
862.331	-48.3
862.505	-38.06
862.679	-89.26
862.853	-23.72
863.027	15.19
863.201	162.64
863.375	11.09
863.549	43.86
863.722	-23.72
863.896	117.59
864.07	-46.25
864.244	-25.77
864.418	47.96
864.592	56.15
864.766	-7.34
864.939	4.95
865.113	-31.91
865.287	72.53
865.461	-83.11
865.634	29.52
865.808	-44.2
865.982	-89.26
866.156	-1.19
866.329	-31.91
866.503	13.14
866.676	17.24
866.85	-9.39
867.024	-46.25
867.197	29.52
867.371	-7.34
867.544	41.81
867.718	-21.67
867.891	37.72
868.065	-105.64
868.238	45.91
868.412	86.87
868.585	11.09
868.759	-48.3
868.932	-76.97
869.105	-15.53
869.279	-44.2
869.452	-36.01
869.625	0.85
869.799	4.95
869.972	-83.11
870.145	-79.02
870.319	-44.2
870.492	-48.3
870.665	7
870.838	-11.43
871.011	-117.93
871.185	-11.43
871.358	-1.19
871.531	74.58
871.704	-40.11
871.877	66.39
872.05	-11.43
872.223	-21.67
872.396	27.48
872.569	74.58
872.742	-33.96
872.915	62.29
873.088	23.38
873.261	0.85
873.434	74.58
873.607	-25.77
873.78	68.44
873.953	-113.83
874.126	70.48
874.299	41.81
874.471	-44.2
874.644	-62.63
874.817	39.76
874.99	201.55
875.163	-85.16
875.335	-36.01
875.508	-74.92
875.681	64.34
875.853	-93.35
876.026	41.81
876.199	41.81
876.371	19.29
876.544	13.14
876.717	-27.82
876.889	-107.69
877.062	21.33
877.234	-105.64
877.407	-97.45
877.579	-11.43
877.752	-44.2
877.924	-36.01
878.097	35.67
878.269	58.2
878.442	2.9
878.614	54.1
878.786	31.57
878.959	52.05
879.131	-27.82
879.303	-144.55
879.476	2.9
879.648	88.92
879.82	-38.06
879.993	-1.19
880.165	-113.83
880.337	-122.02
880.509	39.76
880.681	-60.59
880.854	-62.63
881.026	52.05
881.198	127.83
881.37	17.24
881.542	-31.91
881.714	-11.43
881.886	25.43
882.058	-38.06
882.23	-3.24
882.402	78.68
882.574	39.76
882.746	9.05
882.918	43.86
883.09	97.11
883.262	-7.34
883.434	-9.39
883.606	-107.69
883.778	-19.63
883.95	64.34
884.122	-9.39
884.293	121.68
884.465	4.95
884.637	97.11
884.809	-64.68
884.98	-25.77
885.152	-13.48
885.324	84.82
885.496	-36.01
885.667	7
885.839	74.58
886.011	37.72
886.182	78.68
886.354	-17.58
886.525	41.81
886.697	29.52
886.869	-60.59
887.04	19.29
887.212	115.54
887.383	62.29
887.555	9.05
887.726	-52.39
887.897	-42.15
888.069	52.05
888.24	9.05
888.412	-44.2
888.583	35.67
888.754	-29.87
888.926	-93.35
889.097	-87.21
889.268	-95.4
889.44	-72.87
889.611	-93.35
889.782	-60.59
889.953	-42.15
890.125	50
890.296	-50.35
890.467	-89.26
890.638	-31.91
890.809	39.76
890.98	-54.44
891.151	47.96
891.323	27.48
891.494	58.2
891.665	-36.01
891.836	37.72
892.007	54.1
892.178	-23.72
892.349	-17.58
892.52	-44.2
892.691	-29.87
892.862	-33.96
893.032	-148.65
893.203	-87.21
893.374	60.24
893.545	197.46
893.716	-54.44
893.887	121.68
894.057	-79.02
894.228	-54.44
894.399	-13.48
894.57	113.49
894.74	-44.2
894.911	62.29
895.082	15.19
895.253	-60.59
895.423	7
895.594	-3.24
895.764	33.62
895.935	-134.31
896.106	11.09
896.276	-27.82
896.447	-23.72
896.617	-38.06
896.788	-87.21
896.958	-72.87
897.129	-15.53
897.299	-119.98
897.47	31.57
897.64	4.95
897.81	4.95
897.981	21.33
898.151	-9.39
898.322	19.29
898.492	-13.48
898.662	-64.68
898.832	9.05
899.003	-3.24
899.173	47.96
899.343	-31.91
899.513	-9.39
