Data from USB4F104151__28__09-26-40-113.txt Node

Date: Wed Feb 26 09:26:40 EST 2025
User: louis
Spectrometer: USB4F10415
Trigger mode: 4
Integration Time (sec): 1.000000E-1
Scans to average: 1
Electric dark correction enabled: true
Nonlinearity correction enabled: false
Boxcar width: 0
XAxis mode: Wavelengths
Number of Pixels in Spectrum: 3648
>>>>>Begin Spectral Data<<<<<
178.204	-330.75
178.424	-330.75
178.644	-330.75
178.864	-328.7
179.084	-386.04
179.304	17.41
179.524	3.07
179.744	-41.98
179.964	35.84
180.184	39.94
180.404	31.74
180.624	-66.56
180.844	-35.84
181.064	-11.26
181.283	17.41
181.503	-35.84
181.723	46.08
181.943	-91.13
182.163	209.92
182.383	60.42
182.602	-25.6
182.822	113.66
183.042	54.27
183.262	-37.89
183.482	11.26
183.701	-5.12
183.921	35.84
184.141	-58.37
184.361	109.57
184.58	-27.65
184.8	13.31
185.02	23.55
185.239	66.56
185.459	39.94
185.679	142.33
185.898	-78.85
186.118	-11.26
186.338	-17.41
186.557	150.53
186.777	-54.27
186.997	-7.17
187.216	-3.07
187.436	181.25
187.655	97.28
187.875	37.89
188.095	44.03
188.314	119.81
188.534	64.51
188.753	-41.98
188.973	80.89
189.192	144.38
189.412	7.17
189.631	68.61
189.851	9.22
190.07	130.05
190.29	-56.32
190.509	-84.99
190.729	-66.56
190.948	80.89
191.168	293.88
191.387	95.23
191.607	111.61
191.826	125.95
192.045	-1.02
192.265	27.65
192.484	91.13
192.704	19.46
192.923	-29.7
193.142	115.71
193.362	87.04
193.581	146.43
193.8	29.7
194.02	130.05
194.239	19.46
194.458	66.56
194.678	29.7
194.897	-5.12
195.116	21.5
195.335	31.74
195.555	52.22
195.774	-44.03
195.993	35.84
196.212	-5.12
196.432	-19.46
196.651	-1.02
196.87	5.12
197.089	138.24
197.308	46.08
197.528	27.65
197.747	19.46
197.966	68.61
198.185	39.94
198.404	-17.41
198.623	62.46
198.842	146.43
199.062	70.65
199.281	-15.36
199.5	-27.65
199.719	136.19
199.938	80.89
200.157	17.41
200.376	82.94
200.595	80.89
200.814	93.18
201.033	39.94
201.252	138.24
201.471	44.03
201.69	168.96
201.909	-13.31
202.128	89.09
202.347	39.94
202.566	54.27
202.785	-25.6
203.004	-52.22
203.223	232.44
203.442	15.36
203.661	-33.79
203.879	31.74
204.098	76.8
204.317	-41.98
204.536	74.75
204.755	109.57
204.974	23.55
205.193	35.84
205.411	111.61
205.63	25.6
205.849	64.51
206.068	-60.42
206.287	48.13
206.505	162.81
206.724	-50.18
206.943	-35.84
207.162	-11.26
207.381	44.03
207.599	5.12
207.818	-15.36
208.037	27.65
208.255	64.51
208.474	37.89
208.693	-9.22
208.911	21.5
209.13	46.08
209.349	93.18
209.567	13.31
209.786	76.8
210.005	54.27
210.223	-7.17
210.442	-99.33
210.661	-17.41
210.879	17.41
211.098	-39.94
211.316	39.94
211.535	33.79
211.753	101.37
211.972	-11.26
212.191	-5.12
212.409	89.09
212.628	80.89
212.846	-48.13
213.065	89.09
213.283	93.18
213.502	-39.94
213.72	-19.46
213.938	-15.36
214.157	37.89
214.375	80.89
214.594	-46.08
214.812	60.42
215.031	48.13
215.249	-27.65
215.467	19.46
215.686	-15.36
215.904	72.7
216.122	35.84
216.341	89.09
216.559	111.61
216.778	125.95
216.996	146.43
217.214	-13.31
217.432	-13.31
217.651	-80.89
217.869	7.17
218.087	82.94
218.306	-37.89
218.524	46.08
218.742	-3.07
218.96	78.85
219.179	-66.56
219.397	-11.26
219.615	187.39
219.833	56.32
220.051	-13.31
220.27	72.7
220.488	-17.41
220.706	50.18
220.924	-25.6
221.142	3.07
221.36	-11.26
221.578	31.74
221.796	60.42
222.015	21.5
222.233	97.28
222.451	125.95
222.669	-84.99
222.887	15.36
223.105	-54.27
223.323	37.89
223.541	-35.84
223.759	31.74
223.977	56.32
224.195	48.13
224.413	222.2
224.631	21.5
224.849	-11.26
225.067	123.9
225.285	23.55
225.503	-1.02
225.721	-97.28
225.939	48.13
226.157	-52.22
226.375	214.01
226.592	-15.36
226.81	-1.02
227.028	60.42
227.246	105.47
227.464	9.22
227.682	56.32
227.9	58.37
228.117	91.13
228.335	101.37
228.553	15.36
228.771	5.12
228.989	56.32
229.206	52.22
229.424	9.22
229.642	-5.12
229.86	-41.98
230.077	23.55
230.295	-11.26
230.513	113.66
230.731	89.09
230.948	78.85
231.166	173.05
231.384	-41.98
231.601	39.94
231.819	179.2
232.037	-13.31
232.254	-37.89
232.472	23.55
232.689	-17.41
232.907	80.89
233.125	23.55
233.342	-3.07
233.56	-37.89
233.777	-15.36
233.995	13.31
234.213	103.42
234.43	39.94
234.648	21.5
234.865	-21.5
235.083	101.37
235.3	60.42
235.518	121.85
235.735	76.8
235.953	23.55
236.17	19.46
236.388	48.13
236.605	-1.02
236.822	105.47
237.04	103.42
237.257	11.26
237.475	-58.37
237.692	13.31
237.909	48.13
238.127	-44.03
238.344	93.18
238.562	58.37
238.779	-46.08
238.996	-44.03
239.214	76.8
239.431	54.27
239.648	7.17
239.865	113.66
240.083	35.84
240.3	70.65
240.517	-17.41
240.735	23.55
240.952	82.94
241.169	103.42
241.386	27.65
241.603	9.22
241.821	-15.36
242.038	84.99
242.255	101.37
242.472	-78.85
242.689	29.7
242.907	64.51
243.124	19.46
243.341	-5.12
243.558	-17.41
243.775	-1.02
243.992	5.12
244.209	23.55
244.426	125.95
244.643	72.7
244.86	-11.26
245.078	136.19
245.295	-64.51
245.512	-44.03
245.729	3.07
245.946	132.09
246.163	60.42
246.38	-15.36
246.597	37.89
246.814	-17.41
247.031	15.36
247.248	97.28
247.464	54.27
247.681	41.98
247.898	15.36
248.115	-13.31
248.332	-17.41
248.549	64.51
248.766	166.91
248.983	140.29
249.2	-37.89
249.417	119.81
249.633	35.84
249.85	7.17
250.067	-25.6
250.284	74.75
250.501	58.37
250.717	84.99
250.934	-25.6
251.151	-11.26
251.368	19.46
251.585	113.66
251.801	72.7
252.018	-17.41
252.235	48.13
252.451	-103.42
252.668	-60.42
252.885	50.18
253.102	-5.12
253.318	-50.18
253.535	-3.07
253.752	-27.65
253.968	31.74
254.185	-78.85
254.401	27.65
254.618	60.42
254.835	-46.08
255.051	52.22
255.268	105.47
255.484	39.94
255.701	70.65
255.917	17.41
256.134	-41.98
256.351	-7.17
256.567	-91.13
256.784	-3.07
257	-58.37
257.217	105.47
257.433	78.85
257.65	66.56
257.866	105.47
258.082	-56.32
258.299	-27.65
258.515	33.79
258.732	101.37
258.948	33.79
259.165	-19.46
259.381	-48.13
259.597	95.23
259.814	-5.12
260.03	52.22
260.246	5.12
260.463	119.81
260.679	128
260.895	-9.22
261.112	21.5
261.328	-25.6
261.544	-48.13
261.761	97.28
261.977	-23.55
262.193	-13.31
262.409	103.42
262.626	97.28
262.842	68.61
263.058	-27.65
263.274	56.32
263.49	-11.26
263.707	54.27
263.923	111.61
264.139	-58.37
264.355	44.03
264.571	105.47
264.787	95.23
265.004	21.5
265.22	-9.22
265.436	-46.08
265.652	3.07
265.868	-7.17
266.084	9.22
266.3	25.6
266.516	-41.98
266.732	72.7
266.948	33.79
267.164	44.03
267.38	60.42
267.596	15.36
267.812	113.66
268.028	37.89
268.244	-33.79
268.46	-29.7
268.676	-35.84
268.892	66.56
269.108	-21.5
269.324	31.74
269.54	-3.07
269.756	125.95
269.972	35.84
270.188	-13.31
270.403	-17.41
270.619	-37.89
270.835	91.13
271.051	52.22
271.267	-58.37
271.483	-54.27
271.698	95.23
271.914	54.27
272.13	-41.98
272.346	27.65
272.562	3.07
272.777	105.47
272.993	-13.31
273.209	56.32
273.425	-15.36
273.64	-52.22
273.856	5.12
274.072	-17.41
274.287	-17.41
274.503	138.24
274.719	84.99
274.934	39.94
275.15	-62.46
275.366	21.5
275.581	-46.08
275.797	-21.5
276.012	-9.22
276.228	17.41
276.444	31.74
276.659	84.99
276.875	-44.03
277.09	-70.65
277.306	-82.94
277.521	21.5
277.737	9.22
277.952	97.28
278.168	13.31
278.383	-39.94
278.599	-89.09
278.814	123.9
279.03	72.7
279.245	154.62
279.461	44.03
279.676	117.76
279.892	-17.41
280.107	-17.41
280.322	35.84
280.538	1.02
280.753	-68.61
280.969	11.26
281.184	113.66
281.399	11.26
281.615	74.75
281.83	56.32
282.045	-80.89
282.26	-1.02
282.476	11.26
282.691	70.65
282.906	-19.46
283.122	21.5
283.337	-13.31
283.552	82.94
283.767	44.03
283.983	105.47
284.198	-50.18
284.413	76.8
284.628	-11.26
284.843	17.41
285.058	21.5
285.274	7.17
285.489	-37.89
285.704	80.89
285.919	-84.99
286.134	-21.5
286.349	27.65
286.564	-41.98
286.779	134.14
286.995	-15.36
287.21	-15.36
287.425	52.22
287.64	17.41
287.855	33.79
288.07	-58.37
288.285	76.8
288.5	72.7
288.715	52.22
288.93	-21.5
289.145	-19.46
289.36	117.76
289.575	41.98
289.79	60.42
290.004	-21.5
290.219	46.08
290.434	-5.12
290.649	-93.18
290.864	15.36
291.079	-9.22
291.294	7.17
291.509	52.22
291.724	-39.94
291.938	-17.41
292.153	39.94
292.368	-29.7
292.583	37.89
292.798	5.12
293.012	109.57
293.227	15.36
293.442	23.55
293.657	168.96
293.871	99.33
294.086	46.08
294.301	136.19
294.516	56.32
294.73	60.42
294.945	-35.84
295.16	9.22
295.374	62.46
295.589	29.7
295.804	-11.26
296.018	80.89
296.233	91.13
296.447	72.7
296.662	13.31
296.877	130.05
297.091	76.8
297.306	21.5
297.52	19.46
297.735	41.98
297.949	-21.5
298.164	46.08
298.378	52.22
298.593	-17.41
298.807	-33.79
299.022	3.07
299.236	150.53
299.451	23.55
299.665	-21.5
299.88	-9.22
300.094	41.98
300.309	-25.6
300.523	-5.12
300.737	23.55
300.952	7.17
301.166	72.7
301.381	-50.18
301.595	-62.46
301.809	54.27
302.024	-5.12
302.238	-3.07
302.452	130.05
302.667	7.17
302.881	121.85
303.095	64.51
303.309	39.94
303.524	-1.02
303.738	64.51
303.952	1.02
304.166	46.08
304.381	-84.99
304.595	183.29
304.809	-31.74
305.023	-19.46
305.237	-9.22
305.452	-1.02
305.666	29.7
305.88	80.89
306.094	87.04
306.308	-5.12
306.522	101.37
306.736	-35.84
306.95	-3.07
307.164	-50.18
307.379	39.94
307.593	115.71
307.807	113.66
308.021	95.23
308.235	11.26
308.449	-58.37
308.663	37.89
308.877	154.62
309.091	-27.65
309.305	66.56
309.519	-7.17
309.733	95.23
309.947	-60.42
310.161	80.89
310.374	-5.12
310.588	132.09
310.802	-35.84
311.016	17.41
311.23	23.55
311.444	-3.07
311.658	-13.31
311.872	132.09
312.085	134.14
312.299	56.32
312.513	162.81
312.727	25.6
312.941	1.02
313.154	91.13
313.368	17.41
313.582	21.5
313.796	72.7
314.009	31.74
314.223	74.75
314.437	68.61
314.651	80.89
314.864	-70.65
315.078	3.07
315.292	1.02
315.505	39.94
315.719	62.46
315.933	-17.41
316.146	37.89
316.36	-46.08
316.573	78.85
316.787	-11.26
317.001	72.7
317.214	-68.61
317.428	-11.26
317.641	-99.33
317.855	5.12
318.068	11.26
318.282	-23.55
318.495	105.47
318.709	48.13
318.922	-5.12
319.136	130.05
319.349	78.85
319.563	3.07
319.776	5.12
319.99	-91.13
320.203	54.27
320.417	-17.41
320.63	23.55
320.843	199.68
321.057	41.98
321.27	-5.12
321.483	39.94
321.697	103.42
321.91	21.5
322.124	15.36
322.337	105.47
322.55	-105.47
322.763	99.33
322.977	31.74
323.19	-52.22
323.403	-52.22
323.617	-1.02
323.83	168.96
324.043	60.42
324.256	33.79
324.469	-123.9
324.683	78.85
324.896	7.17
325.109	35.84
325.322	-21.5
325.535	54.27
325.748	39.94
325.962	-44.03
326.175	31.74
326.388	128
326.601	48.13
326.814	-11.26
327.027	23.55
327.24	72.7
327.453	15.36
327.666	44.03
327.879	84.99
328.092	89.09
328.305	60.42
328.518	27.65
328.731	-25.6
328.944	11.26
329.157	7.17
329.37	25.6
329.583	95.23
329.796	115.71
330.009	-13.31
330.222	54.27
330.435	48.13
330.648	111.61
330.861	72.7
331.073	93.18
331.286	89.09
331.499	-19.46
331.712	-9.22
331.925	103.42
332.138	35.84
332.35	-13.31
332.563	-50.18
332.776	117.76
332.989	-82.94
333.202	-9.22
333.414	-23.55
333.627	68.61
333.84	23.55
334.053	58.37
334.265	23.55
334.478	-5.12
334.691	62.46
334.903	-41.98
335.116	-48.13
335.329	5.12
335.541	95.23
335.754	25.6
335.966	-3.07
336.179	37.89
336.392	-58.37
336.604	-17.41
336.817	23.55
337.029	70.65
337.242	15.36
337.454	17.41
337.667	33.79
337.88	134.14
338.092	48.13
338.305	-29.7
338.517	13.31
338.729	95.23
338.942	111.61
339.154	-68.61
339.367	-5.12
339.579	7.17
339.792	-21.5
340.004	121.85
340.217	-52.22
340.429	39.94
340.641	-31.74
340.854	-76.8
341.066	-25.6
341.278	35.84
341.491	142.33
341.703	74.75
341.915	-33.79
342.128	72.7
342.34	-19.46
342.552	-68.61
342.764	56.32
342.977	17.41
343.189	-52.22
343.401	-33.79
343.613	-74.75
343.826	37.89
344.038	-3.07
344.25	39.94
344.462	-50.18
344.674	64.51
344.886	5.12
345.099	46.08
345.311	50.18
345.523	-70.65
345.735	-60.42
345.947	11.26
346.159	3.07
346.371	-41.98
346.583	-9.22
346.795	146.43
347.007	-5.12
347.219	7.17
347.431	41.98
347.643	87.04
347.855	23.55
348.067	146.43
348.279	-68.61
348.491	31.74
348.703	87.04
348.915	50.18
349.127	-19.46
349.339	-41.98
349.551	-1.02
349.763	64.51
349.975	-17.41
350.187	68.61
350.399	64.51
350.61	84.99
350.822	-21.5
351.034	37.89
351.246	64.51
351.458	35.84
351.669	115.71
351.881	48.13
352.093	33.79
352.305	154.62
352.517	29.7
352.728	97.28
352.94	-31.74
353.152	15.36
353.363	-41.98
353.575	119.81
353.787	109.57
353.999	68.61
354.21	64.51
354.422	-1.02
354.633	-9.22
354.845	41.98
355.057	1.02
355.268	19.46
355.48	103.42
355.692	-62.46
355.903	15.36
356.115	-78.85
356.326	-56.32
356.538	68.61
356.749	15.36
356.961	154.62
357.172	-27.65
357.384	-64.51
357.595	156.67
357.807	76.8
358.018	11.26
358.23	29.7
358.441	224.25
358.653	121.85
358.864	-1.02
359.075	-35.84
359.287	46.08
359.498	95.23
359.709	23.55
359.921	78.85
360.132	89.09
360.344	72.7
360.555	84.99
360.766	-5.12
360.977	87.04
361.189	25.6
361.4	41.98
361.611	-9.22
361.823	48.13
362.034	56.32
362.245	-60.42
362.456	84.99
362.667	56.32
362.879	-17.41
363.09	105.47
363.301	121.85
363.512	68.61
363.723	5.12
363.935	-5.12
364.146	76.8
364.357	41.98
364.568	11.26
364.779	-128
364.99	103.42
365.201	-1.02
365.412	74.75
365.623	-72.7
365.834	37.89
366.045	-9.22
366.256	62.46
366.467	97.28
366.678	37.89
366.889	93.18
367.1	-68.61
367.311	140.29
367.522	-17.41
367.733	93.18
367.944	74.75
368.155	17.41
368.366	62.46
368.577	23.55
368.788	199.68
368.999	-29.7
369.209	-19.46
369.42	209.92
369.631	166.91
369.842	82.94
370.053	-27.65
370.264	113.66
370.474	-3.07
370.685	37.89
370.896	5.12
371.107	144.38
371.317	44.03
371.528	23.55
371.739	105.47
371.95	107.52
372.16	80.89
372.371	-113.66
372.582	27.65
372.792	39.94
373.003	50.18
373.214	15.36
373.424	87.04
373.635	-68.61
373.846	146.43
374.056	93.18
374.267	117.76
374.477	39.94
374.688	-21.5
374.898	-13.31
375.109	62.46
375.319	62.46
375.53	156.67
375.74	46.08
375.951	-17.41
376.161	-9.22
376.372	113.66
376.582	-11.26
376.793	48.13
377.003	-91.13
377.214	48.13
377.424	31.74
377.635	76.8
377.845	35.84
378.055	93.18
378.266	-13.31
378.476	72.7
378.686	13.31
378.897	46.08
379.107	27.65
379.317	-1.02
379.528	-54.27
379.738	-3.07
379.948	-39.94
380.158	97.28
380.369	72.7
380.579	25.6
380.789	-84.99
380.999	9.22
381.21	64.51
381.42	125.95
381.63	15.36
381.84	25.6
382.05	76.8
382.261	97.28
382.471	101.37
382.681	-41.98
382.891	97.28
383.101	87.04
383.311	-70.65
383.521	-54.27
383.731	39.94
383.941	64.51
384.151	-17.41
384.361	-35.84
384.571	72.7
384.781	60.42
384.991	130.05
385.201	119.81
385.411	29.7
385.621	64.51
385.831	39.94
386.041	23.55
386.251	13.31
386.461	48.13
386.671	33.79
386.881	64.51
387.091	-54.27
387.301	52.22
387.511	-3.07
387.72	39.94
387.93	31.74
388.14	-128
388.35	-66.56
388.56	97.28
388.769	146.43
388.979	-37.89
389.189	11.26
389.399	39.94
389.609	41.98
389.818	21.5
390.028	-15.36
390.238	76.8
390.447	-19.46
390.657	35.84
390.867	58.37
391.076	-113.66
391.286	-35.84
391.496	7.17
391.705	3.07
391.915	91.13
392.125	64.51
392.334	15.36
392.544	111.61
392.753	-9.22
392.963	19.46
393.172	87.04
393.382	37.89
393.591	148.48
393.801	-60.42
394.01	119.81
394.22	35.84
394.429	5.12
394.639	35.84
394.848	60.42
395.058	52.22
395.267	29.7
395.477	37.89
395.686	84.99
395.895	125.95
396.105	211.96
396.314	-19.46
396.524	-17.41
396.733	9.22
396.942	80.89
397.152	-21.5
397.361	160.77
397.57	46.08
397.78	54.27
397.989	144.38
398.198	142.33
398.407	-9.22
398.617	52.22
398.826	-9.22
399.035	-33.79
399.244	21.5
399.453	13.31
399.663	60.42
399.872	15.36
400.081	21.5
400.29	164.86
400.499	-23.55
400.708	80.89
400.917	1.02
401.127	-15.36
401.336	-19.46
401.545	107.52
401.754	105.47
401.963	52.22
402.172	46.08
402.381	-64.51
402.59	52.22
402.799	111.61
403.008	160.77
403.217	62.46
403.426	105.47
403.635	-58.37
403.844	74.75
404.053	-25.6
404.262	-21.5
404.471	103.42
404.68	64.51
404.888	-23.55
405.097	23.55
405.306	52.22
405.515	39.94
405.724	31.74
405.933	84.99
406.142	74.75
406.35	138.24
406.559	68.61
406.768	27.65
406.977	97.28
407.185	103.42
407.394	76.8
407.603	-11.26
407.812	60.42
408.02	72.7
408.229	60.42
408.438	50.18
408.646	-3.07
408.855	-1.02
409.064	56.32
409.272	-21.5
409.481	3.07
409.69	-101.37
409.898	-21.5
410.107	33.79
410.315	44.03
410.524	11.26
410.733	13.31
410.941	17.41
411.15	44.03
411.358	136.19
411.567	138.24
411.775	37.89
411.984	93.18
412.192	123.9
412.401	29.7
412.609	84.99
412.818	105.47
413.026	146.43
413.234	46.08
413.443	89.09
413.651	-50.18
413.86	21.5
414.068	74.75
414.276	111.61
414.485	-31.74
414.693	187.39
414.901	89.09
415.11	99.33
415.318	17.41
415.526	39.94
415.734	123.9
415.943	115.71
416.151	74.75
416.359	-21.5
416.567	84.99
416.776	25.6
416.984	54.27
417.192	130.05
417.4	3.07
417.608	-52.22
417.817	-41.98
418.025	27.65
418.233	150.53
418.441	-44.03
418.649	35.84
418.857	54.27
419.065	72.7
419.273	-27.65
419.481	27.65
419.689	56.32
419.897	31.74
420.105	1.02
420.313	80.89
420.521	146.43
420.729	138.24
420.937	27.65
421.145	-117.76
421.353	64.51
421.561	162.81
421.769	56.32
421.977	35.84
422.185	89.09
422.393	-23.55
422.601	111.61
422.809	46.08
423.017	39.94
423.224	52.22
423.432	95.23
423.64	70.65
423.848	21.5
424.056	-46.08
424.263	125.95
424.471	-19.46
424.679	115.71
424.887	-15.36
425.094	136.19
425.302	25.6
425.51	-27.65
425.718	148.48
425.925	109.57
426.133	-15.36
426.341	109.57
426.548	-13.31
426.756	89.09
426.964	62.46
427.171	31.74
427.379	72.7
427.586	54.27
427.794	97.28
428.001	113.66
428.209	25.6
428.417	99.33
428.624	152.57
428.832	87.04
429.039	56.32
429.247	84.99
429.454	87.04
429.662	130.05
429.869	25.6
430.076	70.65
430.284	117.76
430.491	171.01
430.699	80.89
430.906	187.39
431.114	60.42
431.321	123.9
431.528	66.56
431.736	56.32
431.943	48.13
432.15	146.43
432.358	123.9
432.565	181.25
432.772	1.02
432.979	201.72
433.187	15.36
433.394	218.11
433.601	74.75
433.808	209.92
434.016	136.19
434.223	173.05
434.43	103.42
434.637	199.68
434.844	148.48
435.052	105.47
435.259	191.49
435.466	209.92
435.673	138.24
435.88	171.01
436.087	234.49
436.294	209.92
436.501	183.29
436.708	187.39
436.915	179.2
437.122	220.16
437.329	171.01
437.537	277.5
437.743	203.77
437.95	310.27
438.157	191.49
438.364	179.2
438.571	211.96
438.778	273.4
438.985	287.74
439.192	359.42
439.399	334.84
439.606	302.08
439.813	320.51
440.02	445.43
440.227	365.56
440.433	414.71
440.64	316.41
440.847	277.5
441.054	306.17
441.261	457.72
441.467	406.52
441.674	351.23
441.881	519.16
442.088	414.71
442.294	547.83
442.501	519.16
442.708	523.26
442.914	457.72
443.121	562.17
443.328	592.89
443.534	580.6
443.741	648.18
443.948	570.36
444.154	662.52
444.361	848.88
444.568	674.81
444.774	683
444.981	642.04
445.187	883.7
445.394	812.02
445.6	742.39
445.807	969.71
446.013	891.89
446.22	766.96
446.426	967.67
446.633	1031.15
446.839	1172.46
447.046	900.08
447.252	1190.89
447.459	1086.45
447.665	1068.02
447.871	1188.85
448.078	1373.16
448.284	1192.94
448.491	1336.3
448.697	1426.41
448.903	1526.76
449.11	1530.86
449.316	1364.97
449.522	1670.12
449.728	1653.73
449.935	1747.94
450.141	1655.78
450.347	1858.53
450.553	1801.19
450.76	1862.63
450.966	1967.07
451.172	2001.89
451.378	2227.17
451.584	2118.62
451.791	2358.24
451.997	2431.96
452.203	2325.47
452.409	2616.28
452.615	2675.67
452.821	2579.42
453.027	2659.29
453.233	2907.09
453.44	2788.31
453.646	3046.35
453.852	3294.16
454.058	3300.3
454.264	3265.49
454.47	3619.78
454.676	3525.58
454.882	3920.84
455.088	3836.87
455.294	3976.13
455.5	4283.33
455.705	4430.78
455.911	4504.51
456.117	4592.57
456.323	4737.98
456.529	4697.02
456.735	5125.04
456.941	5266.35
457.147	5483.44
457.352	5573.55
457.558	5825.45
457.764	6114.21
457.97	6386.59
458.176	6550.43
458.381	6939.54
458.587	7189.39
458.793	7205.78
458.999	7375.76
459.204	8303.49
459.41	8524.67
459.616	8522.62
459.821	9001.85
460.027	9323.38
460.233	9784.17
460.438	9911.14
460.644	10476.38
460.85	10275.68
461.055	10808.16
461.261	11318.1
461.466	11144.02
461.672	11213.65
461.878	12645.18
462.083	12729.15
462.289	12815.16
462.494	13114.17
462.7	13456.18
462.905	13531.95
463.111	14713.63
463.316	15272.73
463.522	15825.68
463.727	16184.07
463.932	16820.99
464.138	17265.4
464.343	18215.66
464.549	18264.81
464.754	19538.65
464.959	19862.22
465.165	20462.28
465.37	20138.7
465.575	20206.28
465.781	21338.81
465.986	22354.6
466.191	22024.88
466.397	22231.72
466.602	21545.66
466.807	22661.8
467.012	23380.64
467.218	23771.8
467.423	23761.56
467.628	24369.8
467.833	25477.76
468.038	24691.34
468.244	24289.93
468.449	26038.9
468.654	25571.96
468.859	25391.74
469.064	25451.13
469.269	24875.65
469.474	25195.14
469.679	25832.05
469.885	25332.35
470.09	25746.04
470.295	25518.71
470.5	24570.51
470.705	24838.79
470.91	24451.72
471.115	24248.97
471.32	24535.69
471.525	24484.49
471.73	23743.13
471.935	23548.57
472.139	22674.09
472.344	22743.72
472.549	22657.7
472.754	22061.74
472.959	21723.83
473.164	20996.8
473.369	20787.91
473.574	21029.57
473.778	20556.49
473.983	20652.74
474.188	20124.36
474.393	18905.82
474.598	19014.37
474.802	18561.76
475.007	18465.51
475.212	18135.79
475.417	17693.43
475.621	17412.85
475.826	17349.37
476.031	17003.26
476.235	16567.04
476.44	16298.76
476.645	16282.38
476.849	15741.71
477.054	15520.53
477.259	15037.21
477.463	15262.49
477.668	14668.58
477.872	15020.83
478.077	14459.68
478.282	14011.18
478.486	14037.8
478.691	13806.38
478.895	13480.75
479.1	13550.39
479.304	13388.6
479.509	12630.85
479.713	13271.86
479.918	12782.4
480.122	12409.67
480.326	12636.99
480.531	12424
480.735	12421.95
480.94	12192.58
481.144	12657.47
481.348	11920.2
481.553	12104.52
481.757	11537.23
481.961	11758.41
482.166	11995.98
482.37	11748.17
482.574	11508.56
482.778	11535.18
482.983	11799.37
483.187	11328.34
483.391	11451.22
483.595	11221.84
483.8	10881.88
484.004	11058.01
484.208	10992.47
484.412	10650.46
484.616	10720.09
484.821	10648.41
485.025	10230.63
485.229	10298.21
485.433	10054.5
485.637	10136.42
485.841	9937.77
486.045	9825.13
486.249	9718.64
486.453	9440.11
486.657	9476.98
486.861	9106.29
487.065	9048.95
487.269	9051
487.473	8579.97
487.677	8860.54
487.881	8825.72
488.085	8422.27
488.289	8336.26
488.493	8149.89
488.697	8143.75
488.901	7805.83
489.105	7670.67
489.309	7674.76
489.512	7623.56
489.716	7369.62
489.92	7412.62
490.124	7072.66
490.328	7285.65
490.531	6861.72
490.735	6996.89
490.939	6761.37
491.143	6519.71
491.346	6486.94
491.55	6396.83
491.754	6204.32
491.958	6245.28
492.161	5960.61
492.365	5962.66
492.569	5870.5
492.772	6024.1
492.976	5860.26
493.18	5847.97
493.383	5757.86
493.587	5524.4
493.79	5465
493.994	5458.86
494.197	5389.23
494.401	5280.69
494.605	5245.87
494.808	5149.62
495.012	5149.62
495.215	5151.67
495.419	5196.72
495.622	4836.28
495.825	4946.87
496.029	5004.21
496.232	5036.98
496.436	4877.24
496.639	5127.09
496.843	4907.96
497.046	4910.01
497.249	5161.91
497.453	5051.31
497.656	4950.96
497.859	4948.92
498.063	4987.83
498.266	5077.94
498.469	5026.74
498.673	4940.72
498.876	4854.71
499.079	5106.61
499.282	5096.37
499.485	5473.2
499.689	5206.96
499.892	5168.05
500.095	5184.43
500.298	5319.6
500.501	5252.02
500.705	5305.26
500.908	5419.95
501.111	5565.36
501.314	5450.67
501.517	5606.31
501.72	5624.75
501.923	5766.06
502.126	5743.53
502.329	6058.92
502.532	5929.89
502.735	5991.33
502.938	6005.67
503.141	6132.64
503.344	6056.87
503.547	6222.75
503.75	6323.1
503.953	6249.38
504.156	6544.28
504.359	6511.52
504.562	6560.67
504.765	6964.12
504.968	7035.8
505.17	7076.76
505.373	7048.08
505.576	7277.46
505.779	7359.38
505.982	7424.91
506.185	7639.95
506.387	7633.8
506.59	7902.09
506.793	7975.81
506.996	7979.91
507.198	8641.4
507.401	8475.52
507.604	8622.97
507.807	9026.42
508.009	9001.85
508.212	9290.61
508.415	9413.49
508.617	9438.06
508.82	9763.69
509.022	9767.79
509.225	10009.45
509.428	10353.51
509.63	10500.96
509.833	10660.7
510.035	11242.32
510.238	11174.74
510.44	11457.36
510.643	11846.48
510.845	11729.74
511.048	12221.25
511.25	12464.96
511.453	12550.98
511.655	13318.96
511.858	13318.96
512.06	13728.56
512.262	14019.37
512.465	13964.07
512.667	14605.09
512.87	14787.36
513.072	15287.06
513.274	15506.2
513.477	15966.99
513.679	16364.29
513.881	16562.95
514.084	17216.25
514.286	17400.57
514.488	17804.02
514.69	18465.51
514.893	18647.78
515.095	18883.3
515.297	19780.31
515.499	19733.2
515.701	20226.76
515.904	20763.33
516.106	21322.43
516.308	21586.61
516.51	22110.89
516.712	22579.88
516.914	23014.05
517.116	23595.67
517.318	23923.35
517.52	24261.26
517.722	24715.91
517.925	25045.63
518.127	25830.01
518.329	26462.83
518.531	26610.28
518.733	27003.49
518.935	27867.73
519.136	27720.28
519.338	28488.27
519.54	29018.69
519.742	29549.12
519.944	29895.22
520.146	30421.55
520.348	30693.93
520.55	31072.81
520.752	31642.14
520.954	31994.39
521.155	32344.59
521.357	33255.94
521.559	33415.68
521.761	33944.06
521.963	33976.83
522.164	34447.86
522.366	34609.65
522.568	35029.48
522.77	35459.55
522.971	36278.74
523.173	35709.41
523.375	36346.33
523.576	36372.95
523.778	36577.75
523.98	37224.9
524.181	36710.86
524.383	37491.14
524.584	37702.08
524.786	37753.28
524.988	37175.75
525.189	37749.18
525.391	38029.76
525.592	37867.97
525.794	37820.86
525.995	38011.32
526.197	37841.34
526.398	38076.86
526.6	38363.57
526.801	38121.91
527.003	37898.69
527.204	37589.44
527.406	37603.78
527.607	37763.52
527.808	37564.87
528.01	37249.48
528.211	37192.14
528.412	36979.15
528.614	36553.17
528.815	36456.92
529.016	36872.65
529.218	35811.81
529.419	35793.37
529.62	35889.63
529.822	35310.05
530.023	35269.09
530.224	34664.94
530.425	34138.62
530.626	34089.46
530.828	33346.05
531.029	33866.24
531.23	32920.07
531.431	32477.71
531.632	32274.96
531.833	32219.67
532.035	31611.42
532.236	31418.91
532.437	31140.39
532.638	30724.65
532.839	30214.71
533.04	30173.75
533.241	29323.84
533.442	29647.42
533.643	28881.48
533.844	28275.28
534.045	27951.7
534.246	27411.04
534.447	27540.06
534.648	27150.95
534.849	26759.78
535.05	26278.51
535.251	25928.31
535.451	25350.78
535.652	25285.25
535.853	24867.46
536.054	24511.11
536.255	24269.45
536.456	23739.03
536.657	24244.88
536.857	23214.75
537.058	23036.58
537.259	22686.37
537.46	22758.05
537.66	22059.7
537.861	21906.1
538.062	21473.98
538.263	21478.07
538.463	21082.81
538.664	21017.28
538.865	20761.28
539.065	20445.9
539.266	19995.34
539.466	19790.55
539.667	19528.41
539.868	19602.13
540.068	18952.93
540.269	18733.79
540.469	18965.21
540.67	18529
540.87	18287.34
541.071	17998.57
541.271	17871.6
541.472	17863.41
541.672	17384.18
541.873	17300.22
542.073	16702.21
542.274	16624.39
542.474	16515.84
542.675	16427.78
542.875	16395.01
543.075	16309
543.276	15700.75
543.476	15821.58
543.676	15596.31
543.877	15547.15
544.077	15264.54
544.277	15012.63
544.478	14764.83
544.678	14891.8
544.878	14566.18
545.078	14375.72
545.279	14074.67
545.479	14230.31
545.679	13871.92
545.879	13701.93
546.079	13583.15
546.28	13409.08
546.48	13097.78
546.68	13394.74
546.88	12948.28
547.08	12751.68
547.28	12768.06
547.48	12491.59
547.68	12477.25
547.88	12155.72
548.081	11983.69
548.281	11877.19
548.481	11838.28
548.681	11793.23
548.881	11465.55
549.081	11457.36
549.28	11117.4
549.48	11111.25
549.68	11027.29
549.88	10926.94
550.08	10623.84
550.28	10672.99
550.48	10328.93
550.68	10230.63
550.88	10054.5
551.08	9835.37
551.279	10009.45
551.479	9397.1
551.679	9698.16
551.879	9429.87
552.079	9427.82
552.278	9001.85
552.478	8899.45
552.678	8858.49
552.878	8780.67
553.077	8622.97
553.277	8256.39
553.477	8311.68
553.676	8211.33
553.876	7934.85
554.076	7877.51
554.275	7670.67
554.475	7629.71
554.674	7607.18
554.874	7402.38
555.074	7209.87
555.273	7183.25
555.473	7039.89
555.672	6929.3
555.872	6937.49
556.071	6757.27
556.271	6831
556.47	6669.21
556.67	6429.6
556.869	6400.93
557.068	6249.38
557.268	6087.59
557.467	6247.33
557.667	5843.88
557.866	5940.13
558.065	5721
558.265	5616.55
558.464	5434.29
558.663	5528.49
558.863	5325.74
559.062	5151.67
559.261	5133.23
559.461	5190.58
559.66	4940.72
559.859	4887.48
560.058	4647.87
560.258	4645.82
560.457	4744.12
560.656	4674.49
560.855	4357.05
561.054	4461.5
561.253	4475.84
561.453	4332.48
561.652	4160.45
561.851	4260.8
562.05	4168.64
562.249	4078.53
562.448	4039.62
562.647	3892.16
562.846	3812.29
563.045	3937.22
563.244	3750.85
563.443	3873.73
563.642	3713.99
563.841	3709.9
564.04	3705.8
564.239	3503.05
564.438	3380.17
564.637	3443.66
564.836	3371.98
565.035	3283.92
565.234	3234.77
565.432	3054.55
565.631	3185.62
565.83	3077.07
566.029	2976.72
566.228	2968.53
566.427	3032.02
566.625	2905.04
566.824	2878.42
567.023	2946
567.222	2776.02
567.42	2800.6
567.619	2722.77
567.818	2747.35
568.016	2812.89
568.215	2583.51
568.414	2677.72
568.612	2632.66
568.811	2659.29
569.01	2468.83
569.208	2391
569.407	2454.49
569.605	2382.81
569.804	2300.89
570.002	2292.7
570.201	2208.73
570.4	2110.43
570.598	2092
570.797	2194.4
570.995	2163.68
571.193	2018.27
571.392	1987.55
571.59	1897.44
571.789	1924.07
571.987	1948.64
572.186	1919.97
572.384	1788.9
572.582	1848.29
572.781	1831.91
572.979	1784.8
573.177	1749.99
573.376	1758.18
573.574	1803.24
573.772	1690.6
573.971	1541.1
574.169	1549.29
574.367	1620.97
574.565	1580.01
574.763	1500.14
574.962	1614.82
575.16	1475.56
575.358	1518.57
575.556	1377.26
575.754	1455.08
575.952	1420.27
576.151	1395.69
576.349	1403.88
576.547	1248.24
576.745	1258.48
576.943	1342.44
577.141	1264.62
577.339	1221.61
577.537	1266.67
577.735	1293.29
577.933	1248.24
578.131	1270.76
578.329	1203.18
578.527	1063.92
578.725	1108.98
578.923	1018.86
579.121	1108.98
579.319	900.08
579.516	1029.1
579.714	1227.76
579.912	986.1
580.11	891.89
580.308	975.86
580.506	945.14
580.704	908.27
580.901	912.37
581.099	932.85
581.297	777.2
581.495	902.13
581.692	949.23
581.89	943.09
582.088	842.74
582.285	957.43
582.483	766.96
582.681	822.26
582.878	779.25
583.076	793.59
583.274	795.64
583.471	885.75
583.669	740.34
583.866	760.82
584.064	678.9
584.262	666.61
584.459	685.05
584.657	736.24
584.854	744.44
585.052	818.16
585.249	740.34
585.447	633.85
585.644	523.26
585.841	750.58
586.039	736.24
586.236	635.89
586.434	562.17
586.631	496.63
586.828	594.93
587.026	461.82
587.223	513.02
587.42	500.73
587.618	644.09
587.815	558.07
588.012	508.92
588.21	560.12
588.407	627.7
588.604	635.89
588.801	517.11
588.999	574.46
589.196	572.41
589.393	502.78
589.59	556.02
589.787	553.98
589.984	596.98
590.182	474.1
590.379	445.43
590.576	486.39
590.773	498.68
590.97	455.67
591.167	539.64
591.364	580.6
591.561	375.8
591.758	519.16
591.955	541.69
592.152	474.1
592.349	470.01
592.546	416.76
592.743	429.05
592.94	318.46
593.137	474.1
593.334	539.64
593.531	465.91
593.727	531.45
593.924	498.68
594.121	486.39
594.318	474.1
594.515	482.3
594.712	631.8
594.908	570.36
595.105	422.91
595.302	521.21
595.499	523.26
595.696	586.74
595.892	539.64
596.089	586.74
596.286	443.39
596.482	592.89
596.679	537.59
596.876	494.58
597.072	631.8
597.269	553.98
597.466	547.83
597.662	551.93
597.859	629.75
598.055	639.99
598.252	726
598.448	785.4
598.645	760.82
598.841	775.16
599.038	889.84
599.234	975.86
599.431	855.03
599.627	797.68
599.824	855.03
600.02	891.89
600.217	895.99
600.413	924.66
600.609	1006.58
600.806	1260.52
601.002	1063.92
601.198	922.61
601.395	1240.05
601.591	1219.57
601.787	1227.76
601.984	1289.2
602.18	1385.45
602.376	1393.64
602.572	1428.46
602.769	1563.62
602.965	1563.62
603.161	1612.78
603.357	1561.58
603.553	1727.46
603.75	1629.16
603.946	1825.76
604.142	1893.35
604.338	2071.52
604.534	1913.83
604.73	2116.58
604.926	2186.21
605.122	2272.22
605.318	2167.77
605.514	2395.1
605.71	2395.1
605.906	2493.4
606.102	2528.22
606.298	2747.35
606.494	2767.83
606.69	2843.6
606.886	2886.61
607.082	2898.9
607.278	3013.59
607.474	3103.7
607.67	3208.14
607.866	3189.71
608.062	3431.37
608.257	3474.38
608.453	3488.71
608.649	3703.75
608.845	3683.27
609.041	3820.49
609.236	3951.56
609.432	4096.96
609.628	4191.17
609.824	4215.74
610.019	4402.11
610.215	4453.31
610.411	4580.28
610.606	4772.79
610.802	4789.17
610.998	5061.55
611.193	5143.47
611.389	5215.15
611.584	5469.1
611.78	5438.38
611.976	5567.4
612.171	5868.45
612.367	5954.47
612.562	6116.26
612.758	6308.77
612.953	6419.36
613.149	6534.04
613.344	6845.34
613.539	7054.23
613.735	7306.13
613.93	7273.36
614.126	7533.45
614.321	7674.76
614.517	7941
614.712	8162.18
614.907	8305.54
615.103	8479.61
615.298	8653.69
615.493	8715.13
615.688	9014.13
615.884	9397.1
616.079	9364.34
616.274	9966.44
616.47	9968.49
616.665	10259.3
616.86	10574.69
617.055	10744.67
617.25	11127.64
617.445	11479.89
617.641	11434.83
617.836	12016.46
618.031	11842.38
618.226	12309.32
618.421	12845.88
618.616	13159.22
618.811	13296.44
619.006	13417.27
619.201	13894.44
619.396	14179.11
619.591	14285.61
619.786	14986.01
619.981	15059.74
620.176	15643.41
620.371	15786.77
620.566	15942.41
620.761	16366.34
620.956	16913.15
621.151	17064.7
621.346	17597.17
621.541	17470.2
621.735	18449.13
621.93	18320.1
622.125	18580.2
622.32	18928.35
622.515	19534.55
622.709	19505.88
622.904	20310.73
623.099	20470.47
623.294	21252.8
623.488	21072.57
623.683	21469.88
623.878	21625.53
624.072	22422.19
624.267	22731.43
624.462	22844.07
624.656	23018.14
624.851	23749.27
625.046	24152.72
625.24	24496.78
625.435	24267.41
625.629	24900.23
625.824	25221.76
626.018	25432.7
626.213	25707.13
626.407	26350.19
626.602	25983.6
626.796	26497.64
626.991	26878.57
627.185	27083.36
627.38	27464.28
627.574	27505.24
627.768	27845.21
627.963	27671.13
628.157	27476.57
628.352	27980.37
628.546	27638.36
628.74	28103.25
628.935	27595.35
629.129	28189.27
629.323	27591.26
629.517	27607.64
629.712	27372.13
629.906	27413.09
630.1	27023.97
630.294	27257.44
630.489	26522.22
630.683	26575.47
630.877	25909.88
631.071	25604.73
631.265	25068.16
631.459	24552.07
631.653	24543.88
631.848	23757.46
632.042	23286.43
632.236	22944.42
632.43	21945.01
632.624	21535.42
632.818	20662.98
633.012	20382.41
633.206	19573.46
633.4	19278.55
633.594	18170.6
633.788	17916.65
633.982	17240.82
634.176	16859.9
634.369	15747.86
634.563	15514.39
634.757	14742.3
634.951	14555.94
635.145	13912.88
635.339	13294.39
635.533	12911.42
635.726	12211.01
635.92	11494.22
636.114	11305.81
636.308	10787.68
636.501	10263.4
636.695	10206.05
636.889	9485.17
637.083	9116.53
637.276	8835.96
637.47	8231.81
637.664	8088.45
637.857	7773.07
638.051	7426.96
638.244	7197.59
638.438	7064.47
638.632	6650.78
638.825	6214.56
639.019	6003.62
639.212	5802.92
639.406	5747.62
639.599	5378.99
639.793	5159.86
639.986	5030.84
640.18	4875.19
640.373	4561.85
640.567	4379.58
640.76	4199.36
640.954	4111.3
641.147	3918.79
641.34	3904.45
641.534	3765.19
641.727	3615.69
641.92	3331.02
642.114	3314.64
642.307	3128.27
642.5	3005.39
642.694	2886.61
642.887	2880.47
643.08	2755.54
643.273	2720.73
643.467	2505.69
643.66	2317.28
643.853	2243.55
644.046	2339.8
644.239	2104.29
644.432	2143.2
644.626	1809.38
644.819	1844.2
645.012	1825.76
645.205	1780.71
645.398	1713.13
645.591	1614.82
645.784	1491.95
645.977	1450.99
646.17	1481.71
646.363	1367.02
646.556	1225.71
646.749	1143.79
646.942	1154.03
647.135	1233.9
647.328	1031.15
647.521	1121.26
647.714	1111.02
647.907	1004.53
648.099	910.32
648.292	1127.41
648.485	941.04
648.678	859.12
648.871	844.79
649.064	846.84
649.256	644.09
649.449	760.82
649.642	596.98
649.835	738.29
650.027	629.75
650.22	674.81
650.413	668.66
650.605	633.85
650.798	582.65
650.991	584.7
651.183	482.3
651.376	637.94
651.568	519.16
651.761	392.19
651.954	553.98
652.146	478.2
652.339	523.26
652.531	545.78
652.724	359.42
652.916	349.18
653.109	300.03
653.301	549.88
653.494	404.47
653.686	379.9
653.879	500.73
654.071	441.34
654.263	334.84
654.456	289.79
654.648	412.67
654.84	355.32
655.033	232.44
655.225	381.95
655.417	156.67
655.61	437.24
655.802	316.41
655.994	377.85
656.186	125.95
656.379	297.98
656.571	195.58
656.763	222.2
656.955	220.16
657.148	209.92
657.34	310.27
657.532	216.06
657.724	187.39
657.916	289.79
658.108	220.16
658.3	166.91
658.492	222.2
658.684	134.14
658.876	173.05
659.068	103.42
659.26	146.43
659.452	142.33
659.644	138.24
659.836	281.6
660.028	162.81
660.22	154.62
660.412	119.81
660.604	148.48
660.796	195.58
660.988	211.96
661.18	150.53
661.372	191.49
661.563	179.2
661.755	119.81
661.947	80.89
662.139	103.42
662.331	263.16
662.522	111.61
662.714	78.85
662.906	97.28
663.097	136.19
663.289	162.81
663.481	66.56
663.673	173.05
663.864	93.18
664.056	107.52
664.247	95.23
664.439	211.96
664.631	111.61
664.822	179.2
665.014	89.09
665.205	97.28
665.397	171.01
665.588	97.28
665.78	111.61
665.971	187.39
666.163	107.52
666.354	214.01
666.546	11.26
666.737	89.09
666.929	97.28
667.12	121.85
667.311	144.38
667.503	130.05
667.694	134.14
667.885	101.37
668.077	107.52
668.268	3.07
668.459	89.09
668.651	95.23
668.842	144.38
669.033	-17.41
669.224	25.6
669.416	220.16
669.607	154.62
669.798	25.6
669.989	222.2
670.18	101.37
670.371	175.1
670.563	60.42
670.754	218.11
670.945	146.43
671.136	119.81
671.327	-5.12
671.518	150.53
671.709	209.92
671.9	140.29
672.091	160.77
672.282	107.52
672.473	119.81
672.664	41.98
672.855	99.33
673.046	136.19
673.237	220.16
673.428	113.66
673.619	93.18
673.809	121.85
674	240.64
674.191	101.37
674.382	109.57
674.573	99.33
674.764	130.05
674.954	130.05
675.145	80.89
675.336	80.89
675.527	93.18
675.717	52.22
675.908	54.27
676.099	128
676.289	93.18
676.48	113.66
676.671	193.53
676.861	117.76
677.052	203.77
677.243	60.42
677.433	101.37
677.624	171.01
677.814	259.07
678.005	54.27
678.195	171.01
678.386	54.27
678.576	166.91
678.767	23.55
678.957	138.24
679.148	119.81
679.338	263.16
679.529	156.67
679.719	48.13
679.909	171.01
680.1	195.58
680.29	148.48
680.481	99.33
680.671	193.53
680.861	185.34
681.052	168.96
681.242	146.43
681.432	154.62
681.622	201.72
681.813	103.42
682.003	138.24
682.193	50.18
682.383	152.57
682.573	228.35
682.764	128
682.954	240.64
683.144	234.49
683.334	109.57
683.524	105.47
683.714	234.49
683.904	158.72
684.094	117.76
684.284	197.63
684.474	300.03
684.664	261.12
684.854	203.77
685.044	146.43
685.234	136.19
685.424	257.02
685.614	125.95
685.804	340.99
685.994	228.35
686.184	111.61
686.374	195.58
686.564	146.43
686.753	191.49
686.943	132.09
687.133	189.44
687.323	228.35
687.513	269.31
687.702	230.4
687.892	136.19
688.082	289.79
688.272	189.44
688.461	244.73
688.651	291.84
688.841	267.26
689.03	146.43
689.22	109.57
689.41	203.77
689.599	148.48
689.789	171.01
689.979	195.58
690.168	105.47
690.358	189.44
690.547	144.38
690.737	203.77
690.926	201.72
691.116	261.12
691.305	226.3
691.495	252.92
691.684	93.18
691.874	121.85
692.063	123.9
692.252	254.97
692.442	218.11
692.631	140.29
692.82	220.16
693.01	166.91
693.199	154.62
693.388	220.16
693.578	146.43
693.767	218.11
693.956	203.77
694.146	171.01
694.335	269.31
694.524	193.53
694.713	205.82
694.902	148.48
695.092	136.19
695.281	300.03
695.47	175.1
695.659	191.49
695.848	138.24
696.037	60.42
696.226	203.77
696.415	193.53
696.604	234.49
696.793	265.21
696.982	179.2
697.171	252.92
697.36	128
697.549	173.05
697.738	64.51
697.927	136.19
698.116	62.46
698.305	216.06
698.494	150.53
698.683	179.2
698.872	269.31
699.061	125.95
699.25	207.87
699.438	117.76
699.627	68.61
699.816	295.93
700.005	-11.26
700.193	91.13
700.382	195.58
700.571	193.53
700.76	164.86
700.948	244.73
701.137	185.34
701.326	230.4
701.514	101.37
701.703	209.92
701.892	211.96
702.08	273.4
702.269	140.29
702.457	105.47
702.646	138.24
702.834	175.1
703.023	252.92
703.212	195.58
703.4	152.57
703.589	171.01
703.777	138.24
703.965	195.58
704.154	144.38
704.342	185.34
704.531	89.09
704.719	148.48
704.907	220.16
705.096	93.18
705.284	76.8
705.472	84.99
705.661	199.68
705.849	175.1
706.037	187.39
706.226	191.49
706.414	220.16
706.602	121.85
706.79	238.59
706.979	162.81
707.167	132.09
707.355	-13.31
707.543	193.53
707.731	222.2
707.919	138.24
708.107	181.25
708.296	95.23
708.484	56.32
708.672	171.01
708.86	261.12
709.048	199.68
709.236	74.75
709.424	177.15
709.612	175.1
709.8	46.08
709.988	130.05
710.176	195.58
710.364	273.4
710.551	146.43
710.739	156.67
710.927	166.91
711.115	175.1
711.303	171.01
711.491	154.62
711.679	101.37
711.866	207.87
712.054	168.96
712.242	283.64
712.43	216.06
712.617	93.18
712.805	261.12
712.993	140.29
713.181	1.02
713.368	203.77
713.556	130.05
713.744	162.81
713.931	267.26
714.119	244.73
714.306	117.76
714.494	164.86
714.682	201.72
714.869	123.9
715.057	160.77
715.244	107.52
715.432	101.37
715.619	107.52
715.807	130.05
715.994	105.47
716.182	142.33
716.369	189.44
716.556	191.49
716.744	146.43
716.931	119.81
717.119	183.29
717.306	218.11
717.493	209.92
717.681	166.91
717.868	271.36
718.055	234.49
718.242	242.68
718.43	166.91
718.617	224.25
718.804	109.57
718.991	236.54
719.179	115.71
719.366	289.79
719.553	164.86
719.74	205.82
719.927	199.68
720.114	201.72
720.301	111.61
720.488	91.13
720.676	162.81
720.863	273.4
721.05	275.45
721.237	211.96
721.424	242.68
721.611	211.96
721.798	62.46
721.985	158.72
722.172	144.38
722.358	173.05
722.545	185.34
722.732	195.58
722.919	281.6
723.106	250.88
723.293	181.25
723.48	117.76
723.667	168.96
723.853	302.08
724.04	138.24
724.227	273.4
724.414	162.81
724.6	281.6
724.787	281.6
724.974	285.69
725.161	205.82
725.347	171.01
725.534	211.96
725.72	248.83
725.907	267.26
726.094	271.36
726.28	289.79
726.467	179.2
726.653	166.91
726.84	283.64
727.027	351.23
727.213	228.35
727.4	203.77
727.586	216.06
727.773	232.44
727.959	314.36
728.145	279.55
728.332	216.06
728.518	177.15
728.705	283.64
728.891	244.73
729.077	267.26
729.264	171.01
729.45	218.11
729.636	285.69
729.823	166.91
730.009	220.16
730.195	283.64
730.382	285.69
730.568	269.31
730.754	179.2
730.94	191.49
731.126	306.17
731.313	261.12
731.499	261.12
731.685	302.08
731.871	177.15
732.057	267.26
732.243	322.56
732.429	277.5
732.615	306.17
732.801	295.93
732.987	226.3
733.173	226.3
733.359	193.53
733.545	226.3
733.731	236.54
733.917	320.51
734.103	267.26
734.289	275.45
734.475	203.77
734.661	373.75
734.847	236.54
735.033	218.11
735.219	289.79
735.404	234.49
735.59	199.68
735.776	203.77
735.962	228.35
736.148	283.64
736.333	359.42
736.519	265.21
736.705	193.53
736.89	259.07
737.076	224.25
737.262	168.96
737.447	171.01
737.633	220.16
737.819	355.32
738.004	295.93
738.19	351.23
738.375	291.84
738.561	265.21
738.747	285.69
738.932	201.72
739.118	416.76
739.303	191.49
739.489	322.56
739.674	179.2
739.859	224.25
740.045	224.25
740.23	330.75
740.416	177.15
740.601	312.32
740.786	244.73
740.972	185.34
741.157	236.54
741.342	152.57
741.528	162.81
741.713	308.22
741.898	244.73
742.084	175.1
742.269	277.5
742.454	304.12
742.639	261.12
742.824	203.77
743.01	390.14
743.195	388.09
743.38	277.5
743.565	273.4
743.75	201.72
743.935	254.97
744.12	326.65
744.305	244.73
744.49	160.77
744.675	191.49
744.86	234.49
745.045	265.21
745.23	228.35
745.415	211.96
745.6	308.22
745.785	310.27
745.97	340.99
746.155	320.51
746.34	322.56
746.525	220.16
746.71	293.88
746.895	156.67
747.079	125.95
747.264	183.29
747.449	220.16
747.634	295.93
747.819	277.5
748.003	187.39
748.188	179.2
748.373	261.12
748.557	259.07
748.742	185.34
748.927	195.58
749.111	162.81
749.296	269.31
749.481	261.12
749.665	185.34
749.85	109.57
750.034	222.2
750.219	222.2
750.404	232.44
750.588	175.1
750.773	222.2
750.957	224.25
751.141	158.72
751.326	214.01
751.51	125.95
751.695	214.01
751.879	136.19
752.064	314.36
752.248	152.57
752.432	308.22
752.617	277.5
752.801	244.73
752.985	265.21
753.17	265.21
753.354	220.16
753.538	158.72
753.722	150.53
753.907	142.33
754.091	119.81
754.275	205.82
754.459	189.44
754.643	115.71
754.828	185.34
755.012	228.35
755.196	183.29
755.38	101.37
755.564	125.95
755.748	154.62
755.932	160.77
756.116	265.21
756.3	297.98
756.484	99.33
756.668	166.91
756.852	80.89
757.036	179.2
757.22	152.57
757.404	80.89
757.588	136.19
757.772	250.88
757.956	107.52
758.14	285.69
758.323	97.28
758.507	171.01
758.691	138.24
758.875	203.77
759.059	297.98
759.242	130.05
759.426	107.52
759.61	111.61
759.794	136.19
759.977	95.23
760.161	310.27
760.345	111.61
760.528	226.3
760.712	175.1
760.895	128
761.079	33.79
761.263	89.09
761.446	54.27
761.63	46.08
761.813	177.15
761.997	80.89
762.18	111.61
762.364	105.47
762.547	-13.31
762.731	150.53
762.914	62.46
763.098	68.61
763.281	117.76
763.464	97.28
763.648	113.66
763.831	15.36
764.015	68.61
764.198	263.16
764.381	160.77
764.564	78.85
764.748	111.61
764.931	132.09
765.114	95.23
765.297	123.9
765.481	56.32
765.664	103.42
765.847	76.8
766.03	220.16
766.213	-54.27
766.397	87.04
766.58	31.74
766.763	130.05
766.946	89.09
767.129	119.81
767.312	62.46
767.495	123.9
767.678	58.37
767.861	64.51
768.044	211.96
768.227	121.85
768.41	13.31
768.593	105.47
768.776	146.43
768.959	111.61
769.142	78.85
769.324	35.84
769.507	130.05
769.69	91.13
769.873	56.32
770.056	222.2
770.239	56.32
770.421	111.61
770.604	74.75
770.787	87.04
770.97	87.04
771.152	-25.6
771.335	93.18
771.518	44.03
771.7	222.2
771.883	134.14
772.066	48.13
772.248	105.47
772.431	138.24
772.613	130.05
772.796	41.98
772.978	21.5
773.161	148.48
773.343	37.89
773.526	7.17
773.708	-13.31
773.891	-9.22
774.073	17.41
774.256	44.03
774.438	195.58
774.621	93.18
774.803	50.18
774.985	-17.41
775.168	138.24
775.35	66.56
775.532	82.94
775.715	-29.7
775.897	187.39
776.079	109.57
776.261	121.85
776.444	-9.22
776.626	119.81
776.808	140.29
776.99	-66.56
777.173	162.81
777.355	50.18
777.537	84.99
777.719	21.5
777.901	35.84
778.083	7.17
778.265	-60.42
778.447	140.29
778.629	-17.41
778.811	-33.79
778.993	31.74
779.175	136.19
779.357	78.85
779.539	-29.7
779.721	-7.17
779.903	54.27
780.085	109.57
780.267	25.6
780.449	29.7
780.631	78.85
780.812	115.71
780.994	15.36
781.176	27.65
781.358	9.22
781.54	80.89
781.721	7.17
781.903	117.76
782.085	-68.61
782.267	56.32
782.448	-72.7
782.63	-17.41
782.812	64.51
782.993	181.25
783.175	72.7
783.357	-31.74
783.538	64.51
783.72	7.17
783.901	29.7
784.083	54.27
784.264	23.55
784.446	5.12
784.627	-9.22
784.809	46.08
784.99	15.36
785.172	111.61
785.353	44.03
785.535	84.99
785.716	41.98
785.897	-17.41
786.079	64.51
786.26	21.5
786.441	80.89
786.623	-44.03
786.804	-9.22
786.985	64.51
787.167	84.99
787.348	117.76
787.529	-9.22
787.71	99.33
787.891	52.22
788.073	-35.84
788.254	-82.94
788.435	199.68
788.616	62.46
788.797	15.36
788.978	31.74
789.159	13.31
789.34	58.37
789.522	66.56
789.703	37.89
789.884	-3.07
790.065	46.08
790.246	144.38
790.427	-11.26
790.607	87.04
790.788	93.18
790.969	-11.26
791.15	21.5
791.331	-31.74
791.512	1.02
791.693	-68.61
791.874	60.42
792.054	121.85
792.235	60.42
792.416	-25.6
792.597	33.79
792.778	25.6
792.958	-11.26
793.139	39.94
793.32	46.08
793.5	-39.94
793.681	121.85
793.862	58.37
794.042	-7.17
794.223	-82.94
794.404	-11.26
794.584	-93.18
794.765	35.84
794.945	-3.07
795.126	3.07
795.306	70.65
795.487	54.27
795.667	-23.55
795.848	27.65
796.028	-25.6
796.209	3.07
796.389	93.18
796.57	-46.08
796.75	-33.79
796.93	72.7
797.111	-19.46
797.291	29.7
797.471	60.42
797.652	-58.37
797.832	-58.37
798.012	97.28
798.192	-13.31
798.373	-52.22
798.553	46.08
798.733	-1.02
798.913	7.17
799.093	-54.27
799.274	-25.6
799.454	93.18
799.634	91.13
799.814	27.65
799.994	72.7
800.174	68.61
800.354	60.42
800.534	-60.42
800.714	39.94
800.894	-37.89
801.074	-89.09
801.254	-9.22
801.434	101.37
801.614	-9.22
801.794	-64.51
801.974	1412.07
802.154	23.55
802.334	142.33
802.514	-19.46
802.693	95.23
802.873	-13.31
803.053	64.51
803.233	52.22
803.413	41.98
803.592	-39.94
803.772	-91.13
803.952	-60.42
804.131	-54.27
804.311	39.94
804.491	99.33
804.67	-46.08
804.85	13.31
805.03	19.46
805.209	119.81
805.389	-52.22
805.568	-41.98
805.748	5.12
805.928	39.94
806.107	41.98
806.287	35.84
806.466	21.5
806.646	-29.7
806.825	39.94
807.004	31.74
807.184	74.75
807.363	41.98
807.543	-21.5
807.722	-103.42
807.901	91.13
808.081	84.99
808.26	-138.24
808.439	11.26
808.619	23.55
808.798	-1.02
808.977	13.31
809.156	123.9
809.336	-1.02
809.515	64.51
809.694	-66.56
809.873	-58.37
810.052	29.7
810.231	35.84
810.411	46.08
810.59	80.89
810.769	-80.89
810.948	23.55
811.127	-25.6
811.306	-33.79
811.485	-91.13
811.664	140.29
811.843	60.42
812.022	-35.84
812.201	-3.07
812.38	46.08
812.559	-97.28
812.737	-46.08
812.916	-46.08
813.095	7.17
813.274	-7.17
813.453	-21.5
813.632	93.18
813.811	23.55
813.989	-78.85
814.168	3.07
814.347	-68.61
814.526	-31.74
814.704	111.61
814.883	31.74
815.062	-17.41
815.24	29.7
815.419	-35.84
815.598	58.37
815.776	-50.18
815.955	9.22
816.133	-91.13
816.312	-23.55
816.49	-44.03
816.669	-19.46
816.847	-3.07
817.026	56.32
817.204	-35.84
817.383	68.61
817.561	-48.13
817.74	-29.7
817.918	46.08
818.097	-52.22
818.275	-105.47
818.453	95.23
818.632	-33.79
818.81	-21.5
818.988	-74.75
819.167	-23.55
819.345	60.42
819.523	-80.89
819.701	23.55
819.879	17.41
820.058	21.5
820.236	-21.5
820.414	37.89
820.592	-9.22
820.77	107.52
820.948	-17.41
821.127	21.5
821.305	13.31
821.483	-66.56
821.661	56.32
821.839	15.36
822.017	5.12
822.195	-50.18
822.373	80.89
822.551	15.36
822.729	62.46
822.907	-37.89
823.085	-25.6
823.262	-44.03
823.44	-68.61
823.618	-54.27
823.796	66.56
823.974	-62.46
824.152	-19.46
824.329	5.12
824.507	-54.27
824.685	15.36
824.863	-84.99
825.04	39.94
825.218	66.56
825.396	-25.6
825.574	56.32
825.751	72.7
825.929	1.02
826.107	-31.74
826.284	-23.55
826.462	-19.46
826.639	-44.03
826.817	-84.99
826.994	25.6
827.172	-44.03
827.349	31.74
827.527	-27.65
827.704	9.22
827.882	-41.98
828.059	23.55
828.237	15.36
828.414	89.09
828.591	-105.47
828.769	5.12
828.946	-87.04
829.124	-21.5
829.301	52.22
829.478	-21.5
829.655	17.41
829.833	-50.18
830.01	-91.13
830.187	9.22
830.364	-37.89
830.542	31.74
830.719	56.32
830.896	-11.26
831.073	3.07
831.25	-11.26
831.427	15.36
831.604	-17.41
831.782	-44.03
831.959	15.36
832.136	56.32
832.313	60.42
832.49	-31.74
832.667	29.7
832.844	-52.22
833.021	66.56
833.198	-13.31
833.374	-21.5
833.551	-7.17
833.728	-27.65
833.905	27.65
834.082	-99.33
834.259	-9.22
834.436	31.74
834.612	-115.71
834.789	13.31
834.966	-82.94
835.143	9.22
835.319	-37.89
835.496	37.89
835.673	13.31
835.85	-1.02
836.026	76.8
836.203	52.22
836.38	-27.65
836.556	-5.12
836.733	-25.6
836.909	52.22
837.086	29.7
837.262	-50.18
837.439	-5.12
837.616	-54.27
837.792	-64.51
837.968	-74.75
838.145	-140.29
838.321	-3.07
838.498	15.36
838.674	-15.36
838.851	-13.31
839.027	-74.75
839.203	44.03
839.38	68.61
839.556	3.07
839.732	5.12
839.909	-25.6
840.085	23.55
840.261	-93.18
840.437	-41.98
840.614	-9.22
840.79	35.84
840.966	44.03
841.142	-44.03
841.318	-70.65
841.494	60.42
841.671	19.46
841.847	-101.37
842.023	-144.38
842.199	44.03
842.375	41.98
842.551	-99.33
842.727	-93.18
842.903	66.56
843.079	-117.76
843.255	93.18
843.431	64.51
843.607	-1.02
843.783	-158.72
843.959	-17.41
844.134	-99.33
844.31	146.43
844.486	-1.02
844.662	-87.04
844.838	-3.07
845.013	-21.5
845.189	39.94
845.365	74.75
845.541	-21.5
845.716	-50.18
845.892	29.7
846.068	-62.46
846.244	-82.94
846.419	31.74
846.595	-29.7
846.77	-19.46
846.946	-15.36
847.122	-78.85
847.297	-82.94
847.473	97.28
847.648	-99.33
847.824	39.94
847.999	-152.57
848.175	-5.12
848.35	60.42
848.526	13.31
848.701	25.6
848.876	19.46
849.052	23.55
849.227	19.46
849.403	13.31
849.578	-31.74
849.753	56.32
849.929	21.5
850.104	-99.33
850.279	-7.17
850.454	27.65
850.63	80.89
850.805	31.74
850.98	37.89
851.155	-11.26
851.33	-13.31
851.505	-140.29
851.681	11.26
851.856	-54.27
852.031	29.7
852.206	25.6
852.381	-54.27
852.556	-66.56
852.731	-13.31
852.906	33.79
853.081	-3.07
853.256	54.27
853.431	-7.17
853.606	-72.7
853.781	-82.94
853.956	-189.44
854.131	15.36
854.305	-68.61
854.48	-58.37
854.655	-54.27
854.83	-60.42
855.005	-56.32
855.18	115.71
855.354	23.55
855.529	23.55
855.704	25.6
855.879	29.7
856.053	-25.6
856.228	-5.12
856.403	-58.37
856.577	56.32
856.752	-128
856.926	11.26
857.101	72.7
857.276	-58.37
857.45	-9.22
857.625	-66.56
857.799	-50.18
857.974	-37.89
858.148	-99.33
858.323	1.02
858.497	-23.55
858.672	-19.46
858.846	13.31
859.02	-25.6
859.195	15.36
859.369	62.46
859.543	-1.02
859.718	19.46
859.892	13.31
860.066	-50.18
860.241	-41.98
860.415	-46.08
860.589	-62.46
860.763	-13.31
860.938	5.12
861.112	48.13
861.286	-91.13
861.46	23.55
861.634	60.42
861.808	72.7
861.982	-58.37
862.157	-41.98
862.331	-66.56
862.505	-62.46
862.679	-52.22
862.853	-70.65
863.027	15.36
863.201	89.09
863.375	-74.75
863.549	56.32
863.722	-74.75
863.896	72.7
864.07	-136.19
864.244	5.12
864.418	27.65
864.592	-11.26
864.766	46.08
864.939	7.17
865.113	-109.57
865.287	48.13
865.461	-82.94
865.634	37.89
865.808	3.07
865.982	-58.37
866.156	-19.46
866.329	-44.03
866.503	11.26
866.676	25.6
866.85	97.28
867.024	-74.75
867.197	91.13
867.371	25.6
867.544	-82.94
867.718	-99.33
867.891	115.71
868.065	-117.76
868.238	-27.65
868.412	-5.12
868.585	-5.12
868.759	-3.07
868.932	33.79
869.105	-89.09
869.279	21.5
869.452	-29.7
869.625	-48.13
869.799	-37.89
869.972	-93.18
870.145	-17.41
870.319	80.89
870.492	-93.18
870.665	9.22
870.838	-80.89
871.011	-84.99
871.185	-46.08
871.358	-52.22
871.531	-56.32
871.704	-62.46
871.877	-19.46
872.05	-56.32
872.223	-193.53
872.396	54.27
872.569	-39.94
872.742	-115.71
872.915	-52.22
873.088	-48.13
873.261	-78.85
873.434	52.22
873.607	-39.94
873.78	46.08
873.953	-68.61
874.126	-46.08
874.299	19.46
874.471	-1.02
874.644	-101.37
874.817	7.17
874.99	146.43
875.163	-48.13
875.335	-9.22
875.508	39.94
875.681	31.74
875.853	-31.74
876.026	-17.41
876.199	-9.22
876.371	17.41
876.544	-31.74
876.717	-56.32
876.889	-107.52
877.062	3.07
877.234	-68.61
877.407	-107.52
877.579	-58.37
877.752	-37.89
877.924	64.51
878.097	-9.22
878.269	31.74
878.442	-48.13
878.614	-39.94
878.786	54.27
878.959	23.55
879.131	72.7
879.303	-101.37
879.476	-46.08
879.648	-21.5
879.82	-5.12
879.993	-25.6
880.165	29.7
880.337	-41.98
880.509	29.7
880.681	-125.95
880.854	-87.04
881.026	48.13
881.198	89.09
881.37	-25.6
881.542	-58.37
881.714	-19.46
881.886	-35.84
882.058	1.02
882.23	-17.41
882.402	23.55
882.574	-31.74
882.746	37.89
882.918	-17.41
883.09	-11.26
883.262	15.36
883.434	-50.18
883.606	-87.04
883.778	-50.18
883.95	152.57
884.122	-62.46
884.293	56.32
884.465	-27.65
884.637	87.04
884.809	-31.74
884.98	39.94
885.152	48.13
885.324	115.71
885.496	-7.17
885.667	-111.61
885.839	21.5
886.011	39.94
886.182	-82.94
886.354	89.09
886.525	35.84
886.697	-58.37
886.869	-15.36
887.04	-58.37
887.212	109.57
887.383	95.23
887.555	48.13
887.726	-74.75
887.897	-37.89
888.069	35.84
888.24	25.6
888.412	-27.65
888.583	-74.75
888.754	-15.36
888.926	-105.47
889.097	-68.61
889.268	-140.29
889.44	-37.89
889.611	-144.38
889.782	-80.89
889.953	-93.18
890.125	105.47
890.296	-119.81
890.467	-21.5
890.638	-29.7
890.809	27.65
890.98	9.22
891.151	-7.17
891.323	111.61
891.494	-17.41
891.665	58.37
891.836	-27.65
892.007	46.08
892.178	-29.7
892.349	-33.79
892.52	-25.6
892.691	-66.56
892.862	-91.13
893.032	-76.8
893.203	-64.51
893.374	41.98
893.545	46.08
893.716	-78.85
893.887	19.46
894.057	7.17
894.228	-66.56
894.399	-33.79
894.57	58.37
894.74	31.74
894.911	25.6
895.082	-74.75
895.253	-37.89
895.423	-7.17
895.594	41.98
895.764	-41.98
895.935	-87.04
896.106	15.36
896.276	-103.42
896.447	37.89
896.617	-52.22
896.788	-150.53
896.958	19.46
897.129	-29.7
897.299	-78.85
897.47	48.13
897.64	19.46
897.81	-68.61
897.981	-66.56
898.151	-33.79
898.322	76.8
898.492	15.36
898.662	-39.94
898.832	-52.22
899.003	-113.66
899.173	35.84
899.343	-62.46
899.513	-89.09
