Data from USB4F104151__13__10-23-11-349.txt Node

Date: Wed Feb 26 10:23:11 EST 2025
User: louis
Spectrometer: USB4F10415
Trigger mode: 4
Integration Time (sec): 1.000000E-1
Scans to average: 1
Electric dark correction enabled: true
Nonlinearity correction enabled: false
Boxcar width: 0
XAxis mode: Wavelengths
Number of Pixels in Spectrum: 3648
>>>>>Begin Spectral Data<<<<<
178.204	-409.42
178.424	-409.42
178.644	-409.42
178.864	-358.22
179.084	-358.22
179.304	20.65
179.524	-22.36
179.744	-8.02
179.964	55.47
180.184	26.79
180.404	-18.26
180.624	6.31
180.844	16.55
181.064	-46.93
181.283	-12.12
181.503	-22.36
181.723	4.27
181.943	-137.04
182.163	227.5
182.383	-59.22
182.602	90.28
182.822	112.81
183.042	28.84
183.262	20.65
183.482	20.65
183.701	75.95
183.921	84.14
184.141	-69.46
184.361	98.47
184.58	-1.88
184.8	-1.88
185.02	39.08
185.239	77.99
185.459	98.47
185.679	143.53
185.898	-75.6
186.118	22.7
186.338	92.33
186.557	108.71
186.777	-34.64
186.997	-77.65
187.216	73.9
187.436	225.45
187.655	69.8
187.875	108.71
188.095	59.56
188.314	121
188.534	110.76
188.753	34.99
188.973	80.04
189.192	123.05
189.412	43.18
189.631	63.66
189.851	47.27
190.07	147.62
190.29	-42.84
190.509	82.09
190.729	118.95
190.948	139.43
191.168	268.45
191.387	108.71
191.607	-28.5
191.826	69.8
192.045	22.7
192.265	-51.03
192.484	57.51
192.704	65.71
192.923	-24.4
193.142	252.07
193.362	145.58
193.581	100.52
193.8	41.13
194.02	57.51
194.239	98.47
194.458	88.23
194.678	37.03
194.897	69.8
195.116	45.23
195.335	20.65
195.555	14.51
195.774	4.27
195.993	65.71
196.212	34.99
196.432	-14.17
196.651	26.79
196.87	77.99
197.089	268.45
197.308	149.67
197.528	73.9
197.747	2.22
197.966	53.42
198.185	186.54
198.404	63.66
198.623	145.58
198.842	151.72
199.062	149.67
199.281	180.39
199.5	67.75
199.719	80.04
199.938	157.86
200.157	86.19
200.376	24.75
200.595	102.57
200.814	37.03
201.033	-36.69
201.252	131.24
201.471	55.47
201.69	110.76
201.909	47.27
202.128	192.68
202.347	75.95
202.566	57.51
202.785	-40.79
203.004	69.8
203.223	237.74
203.442	71.85
203.661	-20.31
203.879	61.61
204.098	180.39
204.317	-38.74
204.536	143.53
204.755	84.14
204.974	100.52
205.193	-8.02
205.411	133.29
205.63	133.29
205.849	59.56
206.068	-1.88
206.287	-42.84
206.505	118.95
206.724	-10.07
206.943	-30.55
207.162	-46.93
207.381	77.99
207.599	2.22
207.818	22.7
208.037	-75.6
208.255	39.08
208.474	51.37
208.693	131.24
208.911	18.6
209.13	100.52
209.349	118.95
209.567	65.71
209.786	67.75
210.005	63.66
210.223	51.37
210.442	-110.42
210.661	30.89
210.879	32.94
211.098	-67.41
211.316	96.43
211.535	102.57
211.753	82.09
211.972	41.13
212.191	121
212.409	16.55
212.628	16.55
212.846	2.22
213.065	-5.97
213.283	137.38
213.502	92.33
213.72	26.79
213.938	-5.97
214.157	82.09
214.375	63.66
214.594	28.84
214.812	94.38
215.031	80.04
215.249	37.03
215.467	112.81
215.686	-26.45
215.904	55.47
216.122	0.17
216.341	213.16
216.559	47.27
216.778	143.53
216.996	112.81
217.214	12.46
217.432	-28.5
217.651	37.03
217.869	8.36
218.087	61.61
218.306	18.6
218.524	88.23
218.742	112.81
218.96	151.72
219.179	43.18
219.397	24.75
219.615	252.07
219.833	94.38
220.051	-48.98
220.27	121
220.488	141.48
220.706	26.79
220.924	-20.31
221.142	94.38
221.36	133.29
221.578	67.75
221.796	30.89
222.015	65.71
222.233	77.99
222.451	131.24
222.669	80.04
222.887	123.05
223.105	-38.74
223.323	34.99
223.541	39.08
223.759	49.32
223.977	47.27
224.195	133.29
224.413	127.14
224.631	94.38
224.849	43.18
225.067	239.78
225.285	24.75
225.503	-100.18
225.721	-57.17
225.939	55.47
226.157	14.51
226.375	278.69
226.592	-79.7
226.81	125.1
227.028	151.72
227.246	114.86
227.464	67.75
227.682	137.38
227.9	88.23
228.117	80.04
228.335	10.41
228.553	24.75
228.771	24.75
228.989	71.85
229.206	57.51
229.424	-18.26
229.642	61.61
229.86	-46.93
230.077	221.35
230.295	69.8
230.513	114.86
230.731	90.28
230.948	192.68
231.166	174.25
231.384	-14.17
231.601	-20.31
231.819	215.21
232.037	22.7
232.254	-130.9
232.472	16.55
232.689	32.94
232.907	18.6
233.125	37.03
233.342	6.31
233.56	49.32
233.777	53.42
233.995	18.6
234.213	139.43
234.43	28.84
234.648	8.36
234.865	-20.31
235.083	106.67
235.3	20.65
235.518	110.76
235.735	217.26
235.953	147.62
236.17	22.7
236.388	12.46
236.605	18.6
236.822	114.86
237.04	157.86
237.257	47.27
237.475	-28.5
237.692	57.51
237.909	112.81
238.127	-14.17
238.344	84.14
238.562	71.85
238.779	-38.74
238.996	20.65
239.214	20.65
239.431	51.37
239.648	-16.21
239.865	82.09
240.083	43.18
240.3	-36.69
240.517	-75.6
240.735	82.09
240.952	121
241.169	131.24
241.386	102.57
241.603	96.43
241.821	24.75
242.038	98.47
242.255	86.19
242.472	14.51
242.689	61.61
242.907	80.04
243.124	32.94
243.341	20.65
243.558	-10.07
243.775	0.17
243.992	-10.07
244.209	94.38
244.426	182.44
244.643	86.19
244.86	18.6
245.078	98.47
245.295	104.62
245.512	65.71
245.729	49.32
245.946	-5.97
246.163	90.28
246.38	100.52
246.597	80.04
246.814	84.14
247.031	14.51
247.248	67.75
247.464	49.32
247.681	34.99
247.898	65.71
248.115	84.14
248.332	47.27
248.549	116.9
248.766	241.83
248.983	88.23
249.2	108.71
249.417	125.1
249.633	16.55
249.85	100.52
250.067	90.28
250.284	20.65
250.501	143.53
250.717	49.32
250.934	-22.36
251.151	24.75
251.368	8.36
251.585	94.38
251.801	47.27
252.018	12.46
252.235	219.3
252.451	-48.98
252.668	2.22
252.885	217.26
253.102	-24.4
253.318	-3.93
253.535	28.84
253.752	-87.89
253.968	8.36
254.185	-44.88
254.401	-10.07
254.618	161.96
254.835	16.55
255.051	123.05
255.268	92.33
255.484	-12.12
255.701	26.79
255.917	71.85
256.134	-38.74
256.351	32.94
256.567	-53.08
256.784	16.55
257	-46.93
257.217	145.58
257.433	18.6
257.65	-18.26
257.866	121
258.082	-30.55
258.299	-40.79
258.515	82.09
258.732	-8.02
258.948	-3.93
259.165	65.71
259.381	-65.36
259.597	53.42
259.814	28.84
260.03	112.81
260.246	57.51
260.463	178.34
260.679	172.2
260.895	63.66
261.112	57.51
261.328	92.33
261.544	30.89
261.761	254.12
261.977	65.71
262.193	-51.03
262.409	159.91
262.626	82.09
262.842	94.38
263.058	10.41
263.274	75.95
263.49	28.84
263.707	135.34
263.923	139.43
264.139	-40.79
264.355	69.8
264.571	157.86
264.787	98.47
265.004	192.68
265.22	49.32
265.436	30.89
265.652	-1.88
265.868	102.57
266.084	-34.64
266.3	125.1
266.516	43.18
266.732	137.38
266.948	32.94
267.164	-51.03
267.38	96.43
267.596	118.95
267.812	213.16
268.028	94.38
268.244	34.99
268.46	49.32
268.676	43.18
268.892	45.23
269.108	28.84
269.324	10.41
269.54	-26.45
269.756	8.36
269.972	-67.41
270.188	-57.17
270.403	-24.4
270.619	-8.02
270.835	129.19
271.051	90.28
271.267	51.37
271.483	20.65
271.698	155.82
271.914	65.71
272.13	59.56
272.346	2.22
272.562	149.67
272.777	141.48
272.993	61.61
273.209	-24.4
273.425	104.62
273.64	12.46
273.856	59.56
274.072	41.13
274.287	8.36
274.503	143.53
274.719	92.33
274.934	69.8
275.15	-26.45
275.366	32.94
275.581	-22.36
275.797	51.37
276.012	-5.97
276.228	18.6
276.444	88.23
276.659	131.24
276.875	16.55
277.09	57.51
277.306	22.7
277.521	98.47
277.737	18.6
277.952	159.91
278.168	57.51
278.383	69.8
278.599	92.33
278.814	149.67
279.03	2.22
279.245	123.05
279.461	110.76
279.676	149.67
279.892	-130.9
280.107	-55.12
280.322	-40.79
280.538	53.42
280.753	-34.64
280.969	84.14
281.184	45.23
281.399	202.92
281.615	34.99
281.83	61.61
282.045	-40.79
282.26	-30.55
282.476	0.17
282.691	114.86
282.906	108.71
283.122	6.31
283.337	10.41
283.552	53.42
283.767	-53.08
283.983	100.52
284.198	82.09
284.413	51.37
284.628	-38.74
284.843	71.85
285.058	151.72
285.274	0.17
285.489	49.32
285.704	94.38
285.919	53.42
286.134	100.52
286.349	92.33
286.564	6.31
286.779	114.86
286.995	84.14
287.21	-69.46
287.425	65.71
287.64	0.17
287.855	67.75
288.07	-34.64
288.285	108.71
288.5	118.95
288.715	123.05
288.93	80.04
289.145	73.9
289.36	135.34
289.575	55.47
289.79	34.99
290.004	41.13
290.219	127.14
290.434	18.6
290.649	-53.08
290.864	-34.64
291.079	61.61
291.294	43.18
291.509	26.79
291.724	67.75
291.938	22.7
292.153	37.03
292.368	-1.88
292.583	49.32
292.798	73.9
293.012	71.85
293.227	82.09
293.442	-3.93
293.657	98.47
293.871	108.71
294.086	55.47
294.301	151.72
294.516	106.67
294.73	104.62
294.945	-32.6
295.16	47.27
295.374	170.15
295.589	96.43
295.804	59.56
296.018	18.6
296.233	155.82
296.447	39.08
296.662	16.55
296.877	121
297.091	14.51
297.306	4.27
297.52	34.99
297.735	77.99
297.949	73.9
298.164	53.42
298.378	75.95
298.593	-81.75
298.807	18.6
299.022	-16.21
299.236	139.43
299.451	39.08
299.665	26.79
299.88	20.65
300.094	135.34
300.309	123.05
300.523	61.61
300.737	20.65
300.952	104.62
301.166	77.99
301.381	-104.28
301.595	6.31
301.809	59.56
302.024	43.18
302.238	-40.79
302.452	141.48
302.667	61.61
302.881	153.77
303.095	86.19
303.309	65.71
303.524	59.56
303.738	30.89
303.952	14.51
304.166	71.85
304.381	-75.6
304.595	147.62
304.809	2.22
305.023	90.28
305.237	37.03
305.452	63.66
305.666	57.51
305.88	92.33
306.094	90.28
306.308	110.76
306.522	55.47
306.736	30.89
306.95	80.04
307.164	-22.36
307.379	32.94
307.593	151.72
307.807	153.77
308.021	84.14
308.235	114.86
308.449	-71.51
308.663	69.8
308.877	157.86
309.091	59.56
309.305	61.61
309.519	-89.94
309.733	192.68
309.947	-42.84
310.161	18.6
310.374	53.42
310.588	57.51
310.802	18.6
311.016	18.6
311.23	32.94
311.444	-3.93
311.658	53.42
311.872	157.86
312.085	143.53
312.299	229.54
312.513	82.09
312.727	-30.55
312.941	61.61
313.154	22.7
313.368	145.58
313.582	94.38
313.796	43.18
314.009	-32.6
314.223	94.38
314.437	114.86
314.651	80.04
314.864	-34.64
315.078	6.31
315.292	26.79
315.505	39.08
315.719	61.61
315.933	106.67
316.146	-22.36
316.36	-8.02
316.573	90.28
316.787	92.33
317.001	18.6
317.214	-18.26
317.428	90.28
317.641	-32.6
317.855	24.75
318.068	51.37
318.282	55.47
318.495	137.38
318.709	57.51
318.922	-3.93
319.136	77.99
319.349	139.43
319.563	-48.98
319.776	112.81
319.99	-73.56
320.203	133.29
320.417	55.47
320.63	69.8
320.843	188.58
321.057	22.7
321.27	32.94
321.483	149.67
321.697	233.64
321.91	41.13
322.124	90.28
322.337	75.95
322.55	-8.02
322.763	28.84
322.977	49.32
323.19	18.6
323.403	61.61
323.617	12.46
323.83	63.66
324.043	141.48
324.256	98.47
324.469	4.27
324.683	121
324.896	26.79
325.109	57.51
325.322	-12.12
325.535	133.29
325.748	96.43
325.962	-36.69
326.175	104.62
326.388	73.9
326.601	147.62
326.814	-65.36
327.027	47.27
327.24	159.91
327.453	-118.61
327.666	45.23
327.879	121
328.092	73.9
328.305	69.8
328.518	92.33
328.731	55.47
328.944	49.32
329.157	88.23
329.37	6.31
329.583	319.65
329.796	164.01
330.009	-67.41
330.222	159.91
330.435	75.95
330.648	80.04
330.861	4.27
331.073	43.18
331.286	104.62
331.499	34.99
331.712	-40.79
331.925	90.28
332.138	47.27
332.35	121
332.563	-28.5
332.776	92.33
332.989	-57.17
333.202	12.46
333.414	26.79
333.627	26.79
333.84	49.32
334.053	77.99
334.265	-3.93
334.478	47.27
334.691	168.1
334.903	90.28
335.116	24.75
335.329	47.27
335.541	88.23
335.754	161.96
335.966	28.84
336.179	43.18
336.392	28.84
336.604	55.47
336.817	114.86
337.029	82.09
337.242	71.85
337.454	80.04
337.667	59.56
337.88	170.15
338.092	45.23
338.305	53.42
338.517	2.22
338.729	92.33
338.942	172.2
339.154	-51.03
339.367	-67.41
339.579	57.51
339.792	18.6
340.004	94.38
340.217	10.41
340.429	-20.31
340.641	53.42
340.854	-51.03
341.066	61.61
341.278	127.14
341.491	176.3
341.703	71.85
341.915	-55.12
342.128	116.9
342.34	67.75
342.552	8.36
342.764	47.27
342.977	32.94
343.189	104.62
343.401	24.75
343.613	-44.88
343.826	8.36
344.038	20.65
344.25	37.03
344.462	32.94
344.674	114.86
344.886	26.79
345.099	90.28
345.311	104.62
345.523	32.94
345.735	-67.41
345.947	24.75
346.159	63.66
346.371	32.94
346.583	55.47
346.795	237.74
347.007	28.84
347.219	92.33
347.431	43.18
347.643	237.74
347.855	-22.36
348.067	141.48
348.279	-38.74
348.491	77.99
348.703	110.76
348.915	114.86
349.127	12.46
349.339	94.38
349.551	-30.55
349.763	71.85
349.975	30.89
350.187	125.1
350.399	100.52
350.61	80.04
350.822	6.31
351.034	18.6
351.246	49.32
351.458	114.86
351.669	49.32
351.881	49.32
352.093	135.34
352.305	102.57
352.517	139.43
352.728	131.24
352.94	37.03
353.152	53.42
353.363	-12.12
353.575	143.53
353.787	161.96
353.999	88.23
354.21	133.29
354.422	-71.51
354.633	-10.07
354.845	63.66
355.057	59.56
355.268	71.85
355.48	127.14
355.692	-55.12
355.903	43.18
356.115	-8.02
356.326	-61.27
356.538	47.27
356.749	77.99
356.961	125.1
357.172	39.08
357.384	-24.4
357.595	159.91
357.807	28.84
358.018	-32.6
358.23	61.61
358.441	184.49
358.653	67.75
358.864	53.42
359.075	43.18
359.287	49.32
359.498	168.1
359.709	41.13
359.921	30.89
360.132	151.72
360.344	39.08
360.555	-36.69
360.766	84.14
360.977	-12.12
361.189	174.25
361.4	47.27
361.611	102.57
361.823	88.23
362.034	67.75
362.245	8.36
362.456	94.38
362.667	108.71
362.879	-51.03
363.09	108.71
363.301	141.48
363.512	71.85
363.723	45.23
363.935	-51.03
364.146	125.1
364.357	57.51
364.568	98.47
364.779	-8.02
364.99	100.52
365.201	-30.55
365.412	84.14
365.623	-20.31
365.834	106.67
366.045	143.53
366.256	118.95
366.467	125.1
366.678	32.94
366.889	28.84
367.1	-5.97
367.311	200.87
367.522	73.9
367.733	86.19
367.944	116.9
368.155	43.18
368.366	43.18
368.577	145.58
368.788	147.62
368.999	-53.08
369.209	86.19
369.42	217.26
369.631	241.83
369.842	100.52
370.053	34.99
370.264	172.2
370.474	-46.93
370.685	63.66
370.896	53.42
371.107	84.14
371.317	106.67
371.528	2.22
371.739	143.53
371.95	106.67
372.16	82.09
372.371	-12.12
372.582	32.94
372.792	67.75
373.003	129.19
373.214	135.34
373.424	106.67
373.635	8.36
373.846	108.71
374.056	88.23
374.267	34.99
374.477	0.17
374.688	43.18
374.898	94.38
375.109	59.56
375.319	26.79
375.53	63.66
375.74	92.33
375.951	18.6
376.161	59.56
376.372	129.19
376.582	10.41
376.793	30.89
377.003	-22.36
377.214	-34.64
377.424	127.14
377.635	6.31
377.845	28.84
378.055	145.58
378.266	20.65
378.476	51.37
378.686	59.56
378.897	57.51
379.107	86.19
379.317	112.81
379.528	-34.64
379.738	55.47
379.948	30.89
380.158	69.8
380.369	118.95
380.579	96.43
380.789	112.81
380.999	80.04
381.21	47.27
381.42	268.45
381.63	94.38
381.84	69.8
382.05	30.89
382.261	145.58
382.471	102.57
382.681	2.22
382.891	116.9
383.101	86.19
383.311	57.51
383.521	0.17
383.731	125.1
383.941	133.29
384.151	80.04
384.361	55.47
384.571	51.37
384.781	94.38
384.991	112.81
385.201	211.11
385.411	92.33
385.621	90.28
385.831	55.47
386.041	-34.64
386.251	84.14
386.461	100.52
386.671	34.99
386.881	102.57
387.091	18.6
387.301	102.57
387.511	59.56
387.72	47.27
387.93	121
388.14	-63.32
388.35	123.05
388.56	129.19
388.769	118.95
388.979	57.51
389.189	8.36
389.399	110.76
389.609	28.84
389.818	147.62
390.028	-10.07
390.238	127.14
390.447	-26.45
390.657	28.84
390.867	4.27
391.076	-51.03
391.286	61.61
391.496	37.03
391.705	80.04
391.915	80.04
392.125	135.34
392.334	47.27
392.544	106.67
392.753	65.71
392.963	-30.55
393.172	41.13
393.382	2.22
393.591	256.17
393.801	69.8
394.01	231.59
394.22	116.9
394.429	24.75
394.639	39.08
394.848	71.85
395.058	157.86
395.267	24.75
395.477	170.15
395.686	90.28
395.895	219.3
396.105	213.16
396.314	94.38
396.524	82.09
396.733	57.51
396.942	131.24
397.152	55.47
397.361	143.53
397.57	133.29
397.78	116.9
397.989	116.9
398.198	157.86
398.407	30.89
398.617	37.03
398.826	-10.07
399.035	55.47
399.244	166.06
399.453	88.23
399.663	-8.02
399.872	75.95
400.081	-40.79
400.29	133.29
400.499	16.55
400.708	106.67
400.917	77.99
401.127	24.75
401.336	88.23
401.545	166.06
401.754	168.1
401.963	102.57
402.172	-55.12
402.381	-10.07
402.59	16.55
402.799	90.28
403.008	176.3
403.217	73.9
403.426	147.62
403.635	-3.93
403.844	88.23
404.053	-34.64
404.262	88.23
404.471	207.02
404.68	108.71
404.888	49.32
405.097	51.37
405.306	43.18
405.515	63.66
405.724	45.23
405.933	141.48
406.142	-14.17
406.35	71.85
406.559	14.51
406.768	53.42
406.977	172.2
407.185	127.14
407.394	69.8
407.603	-53.08
407.812	135.34
408.02	159.91
408.229	59.56
408.438	10.41
408.646	-16.21
408.855	82.09
409.064	121
409.272	39.08
409.481	127.14
409.69	-32.6
409.898	-69.46
410.107	84.14
410.315	92.33
410.524	6.31
410.733	94.38
410.941	20.65
411.15	80.04
411.358	82.09
411.567	147.62
411.775	112.81
411.984	100.52
412.192	86.19
412.401	69.8
412.609	194.73
412.818	67.75
413.026	127.14
413.234	10.41
413.443	45.23
413.651	67.75
413.86	67.75
414.068	82.09
414.276	182.44
414.485	39.08
414.693	104.62
414.901	178.34
415.11	67.75
415.318	61.61
415.526	51.37
415.734	178.34
415.943	129.19
416.151	98.47
416.359	102.57
416.567	121
416.776	147.62
416.984	71.85
417.192	168.1
417.4	32.94
417.608	-12.12
417.817	-53.08
418.025	127.14
418.233	202.92
418.441	-22.36
418.649	-79.7
418.857	123.05
419.065	131.24
419.273	16.55
419.481	14.51
419.689	116.9
419.897	127.14
420.105	-46.93
420.313	75.95
420.521	221.35
420.729	110.76
420.937	47.27
421.145	30.89
421.353	143.53
421.561	88.23
421.769	94.38
421.977	110.76
422.185	98.47
422.393	53.42
422.601	139.43
422.809	37.03
423.017	55.47
423.224	12.46
423.432	231.59
423.64	47.27
423.848	137.38
424.056	-8.02
424.263	159.91
424.471	131.24
424.679	102.57
424.887	24.75
425.094	114.86
425.302	59.56
425.51	90.28
425.718	123.05
425.925	98.47
426.133	-5.97
426.341	243.88
426.548	-10.07
426.756	22.7
426.964	145.58
427.171	28.84
427.379	129.19
427.586	96.43
427.794	135.34
428.001	141.48
428.209	22.7
428.417	161.96
428.624	168.1
428.832	168.1
429.039	59.56
429.247	-3.93
429.454	123.05
429.662	178.34
429.869	112.81
430.076	116.9
430.284	67.75
430.491	153.77
430.699	202.92
430.906	161.96
431.114	153.77
431.321	80.04
431.528	155.82
431.736	194.73
431.943	170.15
432.15	178.34
432.358	141.48
432.565	260.26
432.772	-51.03
432.979	180.39
433.187	143.53
433.394	141.48
433.601	125.1
433.808	155.82
434.016	262.31
434.223	231.59
434.43	127.14
434.637	225.45
434.844	270.5
435.052	258.21
435.259	262.31
435.466	252.07
435.673	159.91
435.88	149.67
436.087	305.32
436.294	241.83
436.501	424.1
436.708	237.74
436.915	352.42
437.122	321.7
437.329	278.69
437.537	293.03
437.743	270.5
437.95	407.72
438.157	288.93
438.364	336.04
438.571	342.18
438.778	338.09
438.985	485.54
439.192	493.73
439.399	413.86
439.606	381.09
439.813	549.03
440.02	463.01
440.227	585.89
440.433	485.54
440.64	452.77
440.847	417.96
441.054	454.82
441.261	559.27
441.467	559.27
441.674	579.75
441.881	628.9
442.088	506.02
442.294	716.96
442.501	698.53
442.708	721.06
442.914	700.58
443.121	757.92
443.328	762.02
443.534	882.85
443.741	835.74
443.948	700.58
444.154	872.61
444.361	1061.02
444.568	936.09
444.774	942.24
444.981	862.37
445.187	995.48
445.394	983.2
445.6	1134.75
445.807	1136.79
446.013	1036.44
446.22	1058.97
446.426	1251.48
446.633	1319.06
446.839	1509.52
447.046	1259.67
447.252	1517.72
447.459	1411.22
447.665	1446.04
447.871	1611.92
448.078	1663.12
448.284	1595.54
448.491	1773.71
448.697	1859.73
448.903	1992.84
449.11	1876.11
449.316	1929.36
449.522	2015.37
449.728	2115.72
449.935	2347.14
450.141	2230.41
450.347	2379.91
450.553	2353.29
450.76	2455.69
450.966	2494.6
451.172	2734.21
451.378	2740.35
451.584	3006.59
451.791	3037.31
451.997	3092.6
452.203	3043.45
452.409	3317.88
452.615	3491.96
452.821	3334.26
453.027	3367.03
453.233	3866.74
453.44	3653.75
453.646	3909.74
453.852	4036.72
454.058	4290.67
454.264	4241.51
454.47	4769.89
454.676	4823.14
454.882	5105.76
455.088	4849.76
455.294	5216.35
455.5	5523.54
455.705	5718.1
455.911	5765.2
456.117	5984.34
456.323	6125.65
456.529	6107.21
456.735	6805.57
456.941	6776.9
457.147	7125.05
457.352	7256.12
457.558	7458.87
457.764	8015.92
457.97	8146.99
458.176	8431.66
458.381	8960.03
458.587	9037.86
458.793	9441.31
458.999	9314.33
459.204	10582.03
459.41	11223.04
459.616	10831.88
459.821	11718.65
460.027	12130.29
460.233	12466.16
460.438	12535.79
460.644	13256.67
460.85	13389.79
461.055	14026.71
461.261	14569.42
461.466	14194.64
461.672	14653.39
461.878	16476.08
462.083	16207.8
462.289	16283.57
462.494	16957.35
462.7	17344.42
462.905	17346.47
463.111	18892.68
463.316	19681.15
463.522	20057.98
463.727	20897.64
463.932	21538.66
464.138	22265.69
464.343	23224.14
464.549	23201.61
464.754	24891.18
464.959	25722.66
465.165	26197.79
465.37	25808.67
465.575	26122.01
465.781	27614.98
465.986	28368.63
466.191	28153.6
466.397	28411.64
466.602	27576.07
466.807	29466.35
467.012	29632.23
467.218	30226.14
467.423	30451.42
467.628	31309.52
467.833	32460.48
468.038	31880.9
468.244	31813.32
468.449	32982.71
468.654	32382.65
468.859	32220.86
469.064	32569.02
469.269	31839.94
469.474	32089.79
469.679	32923.32
469.885	31702.73
470.09	32562.87
470.295	32859.83
470.5	31432.4
470.705	31833.8
470.91	31395.53
471.115	30922.45
471.32	31424.2
471.525	30891.73
471.73	30279.39
471.935	29896.42
472.139	28731.12
472.344	28942.07
472.549	28851.95
472.754	28028.67
472.959	27590.41
473.164	26595.09
473.369	26287.9
473.574	26851.09
473.778	26461.97
473.983	25933.6
474.188	25661.22
474.393	24182.59
474.598	24125.24
474.802	23342.92
475.007	23371.59
475.212	23369.54
475.417	22228.82
475.621	22026.07
475.826	21745.5
476.031	21200.74
476.235	20875.12
476.44	20971.37
476.645	20535.15
476.849	20084.6
477.054	19672.96
477.259	19414.91
477.463	19412.87
477.668	18730.89
477.872	18734.99
478.077	18204.56
478.282	17692.57
478.486	17729.44
478.691	17377.19
478.895	17358.75
479.1	17039.27
479.304	17160.1
479.509	16691.12
479.713	16973.74
479.918	16482.22
480.122	15959.99
480.326	15984.57
480.531	16048.05
480.735	15921.08
480.94	15574.97
481.144	16185.27
481.348	15230.91
481.553	15407.04
481.757	15095.75
481.961	15011.78
482.166	15134.66
482.37	14751.69
482.574	14647.24
482.778	14493.65
482.983	14733.26
483.187	14575.56
483.391	14438.35
483.595	14000.09
483.8	14260.18
484.004	14000.09
484.208	13916.12
484.412	13821.91
484.616	13653.98
484.821	13430.75
485.025	13051.88
485.229	13213.67
485.433	12701.67
485.637	12992.48
485.841	12572.65
486.045	12367.85
486.249	12304.37
486.453	12181.49
486.657	12089.33
486.861	11782.13
487.065	11302.91
487.269	11556.86
487.473	11094.02
487.677	11173.89
487.881	11139.07
488.085	10610.7
488.289	10627.08
488.493	10430.48
488.697	10330.13
488.901	10143.76
489.105	9861.14
489.309	9777.17
489.512	9668.63
489.716	9332.76
489.92	9326.62
490.124	8917.03
490.328	9097.25
490.531	8570.92
490.735	8828.96
490.939	8587.3
491.143	8382.51
491.346	8202.29
491.55	7989.3
491.754	7964.72
491.958	7897.14
492.161	7714.87
492.365	7606.33
492.569	7270.46
492.772	7325.75
492.976	7123.01
493.18	7194.68
493.383	7014.46
493.587	6733.89
493.79	6924.35
493.994	6748.23
494.197	6645.83
494.401	6635.59
494.605	6488.14
494.808	6791.24
495.012	6467.66
495.215	6563.91
495.419	6555.72
495.622	6328.39
495.825	6410.31
496.029	6162.51
496.232	6332.49
496.436	6254.67
496.639	6285.39
496.843	6195.28
497.046	5949.52
497.249	6332.49
497.453	6090.83
497.656	6162.51
497.859	6176.84
498.063	6289.48
498.266	6303.82
498.469	6250.57
498.673	6236.24
498.876	6334.54
499.079	6334.54
499.282	6254.67
499.485	6508.62
499.689	6488.14
499.892	6477.9
500.095	6264.91
500.298	6481.99
500.501	6410.31
500.705	6697.03
500.908	6735.94
501.111	6715.46
501.314	6742.08
501.517	7075.9
501.72	6856.77
501.923	6897.73
502.126	7063.61
502.329	6934.59
502.532	7063.61
502.735	7245.88
502.938	7483.45
503.141	7309.37
503.344	7389.24
503.547	7618.61
503.75	7641.14
503.953	7747.64
504.156	7825.46
504.359	7899.19
504.562	8063.02
504.765	8097.84
504.968	8306.73
505.17	8560.68
505.373	8509.48
505.576	8859.68
505.779	8648.74
505.982	8816.68
506.185	9111.58
506.387	9246.75
506.59	9283.61
506.793	9494.55
506.996	9685.01
507.198	9801.75
507.401	10008.59
507.604	10319.89
507.807	10510.35
508.009	10764.29
508.212	10805.25
508.415	11102.21
508.617	11018.24
508.82	11243.52
509.022	11274.24
509.225	11984.88
509.428	12310.51
509.63	12326.89
509.833	12357.61
510.035	13060.07
510.238	13098.98
510.44	13344.74
510.643	13811.67
510.845	14213.07
511.048	14184.4
511.25	14403.53
511.453	14942.15
511.655	15181.76
511.858	15230.91
512.06	15628.22
512.262	16158.64
512.465	16279.47
512.667	16834.47
512.87	17225.64
513.072	17459.1
513.274	18048.92
513.477	18139.03
513.679	18833.29
513.881	19171.21
514.084	19640.19
514.286	19781.5
514.488	20367.22
514.69	20950.89
514.893	21055.34
515.095	21915.48
515.297	22331.22
515.499	22437.72
515.701	22925.13
515.904	23658.31
516.106	24092.48
516.308	24514.36
516.51	24854.32
516.712	25268.01
516.914	25845.54
517.116	26439.45
517.318	26803.99
517.52	27465.48
517.722	27795.2
517.925	28223.23
518.127	28774.13
518.329	29386.47
518.531	29437.67
518.733	30170.85
518.935	30602.97
519.136	30746.33
519.338	31405.77
519.54	32188.1
519.742	32511.67
519.944	32648.89
520.146	33519.28
520.348	33687.21
520.55	33953.44
520.752	34274.98
520.954	35413.65
521.155	35618.44
521.357	36318.85
521.559	36249.22
521.761	37015.16
521.963	36986.49
522.164	37256.82
522.366	37404.27
522.568	38229.6
522.77	38440.54
522.971	38690.4
523.173	38506.08
523.375	39085.65
523.576	38807.13
523.778	39282.26
523.98	39575.12
524.181	39876.17
524.383	39806.54
524.584	40123.97
524.786	39888.46
524.988	39874.12
525.189	40107.59
525.391	40447.55
525.592	40136.26
525.794	40144.45
525.995	40060.49
526.197	40427.07
526.398	39837.26
526.6	40103.49
526.801	39833.16
527.003	39874.12
527.204	39898.7
527.406	39460.43
527.607	39519.82
527.808	39669.33
528.01	38198.88
528.211	38936.15
528.412	39317.07
528.614	38282.85
528.815	38149.73
529.016	38325.86
529.218	37426.8
529.419	37434.99
529.62	36906.62
529.822	37068.41
530.023	36189.83
530.224	36175.49
530.425	35397.26
530.626	35258
530.828	34764.44
531.029	34723.48
531.23	34137.76
531.431	33496.75
531.632	33644.2
531.833	33066.67
532.035	32702.14
532.236	32521.91
532.437	32243.39
532.638	31545.03
532.839	31301.33
533.04	30914.26
533.241	30349.02
533.442	30590.68
533.643	29880.03
533.844	29093.61
534.045	28808.95
534.246	28466.94
534.447	28315.39
534.648	27926.27
534.849	27369.23
535.05	27127.56
535.251	26699.54
535.451	26031.9
535.652	26156.83
535.853	25599.78
536.054	25149.23
536.255	25042.73
536.456	24434.49
536.657	24758.06
536.857	23992.12
537.058	23383.88
537.259	23304.01
537.46	23076.68
537.66	22470.48
537.861	22310.74
538.062	22161.24
538.263	21694.3
538.463	21522.27
538.664	21393.25
538.865	20995.95
539.065	21014.38
539.266	20383.6
539.466	20567.92
539.667	19830.65
539.868	19888
540.068	19679.1
540.269	19289.99
540.469	19124.1
540.67	18935.69
540.87	19033.99
541.071	18347.92
541.271	18352.02
541.472	17956.76
541.672	17751.96
541.873	17573.79
542.073	17045.41
542.274	17465.25
542.474	17100.71
542.675	16637.87
542.875	16533.42
543.075	16369.58
543.276	16189.36
543.476	16263.09
543.676	15888.31
543.877	15710.14
544.077	15431.62
544.277	15441.86
544.478	15212.48
544.678	15153.09
544.878	14809.03
545.078	14415.82
545.279	14579.66
545.479	14178.26
545.679	14319.57
545.879	14196.69
546.079	13897.69
546.28	13608.92
546.48	13451.23
546.68	13279.2
546.88	13365.21
547.08	13289.44
547.28	12867.56
547.48	12417.01
547.68	12728.3
547.88	12451.82
548.081	12380.14
548.281	12179.44
548.481	11962.36
548.681	12017.65
548.881	11765.75
549.081	11479.04
549.28	11399.16
549.48	11479.04
549.68	11270.14
549.88	11130.88
550.08	10557.45
550.28	10596.36
550.48	10737.67
550.68	10303.5
550.88	10379.28
551.08	10088.46
551.279	10057.75
551.479	9820.18
551.679	9764.89
551.879	9332.76
552.079	9555.99
552.278	9306.14
552.478	9269.28
552.678	8970.27
552.878	9023.52
553.077	8749.09
553.277	8452.14
553.477	8706.09
553.676	8325.16
553.876	8130.61
554.076	8106.03
554.275	8069.17
554.475	7811.12
554.674	7903.28
554.874	7608.37
555.074	7362.62
555.273	7415.87
555.473	7288.89
555.672	7131.2
555.872	6981.7
556.071	6910.02
556.271	6975.55
556.47	6727.75
556.67	6553.67
556.869	6479.94
557.068	6326.35
557.268	6211.66
557.467	6187.08
557.667	6287.43
557.866	6092.88
558.065	5777.49
558.265	5937.23
558.464	5701.72
558.663	5574.74
558.863	5380.18
559.062	5437.53
559.261	5333.08
559.461	5515.35
559.66	5066.85
559.859	5060.7
560.058	4919.39
560.258	4921.44
560.457	4915.3
560.656	4857.95
560.855	4739.17
561.054	4653.16
561.253	4520.04
561.453	4517.99
561.652	4524.13
561.851	4313.19
562.05	4221.03
562.249	4102.25
562.448	4270.19
562.647	4110.44
562.846	4003.95
563.045	3973.23
563.244	3944.56
563.443	4003.95
563.642	3663.99
563.841	3790.96
564.04	3729.52
564.239	3694.71
564.438	3598.45
564.637	3496.05
564.836	3481.72
565.035	3330.17
565.234	3401.85
565.432	3414.13
565.631	3188.86
565.83	3207.29
566.029	3170.43
566.228	3102.84
566.427	3131.51
566.625	2914.43
566.824	3000.44
567.023	3012.73
567.222	2828.42
567.42	2988.16
567.619	2781.31
567.818	2740.35
568.016	3020.92
568.215	2752.64
568.414	2703.49
568.612	2717.83
568.811	2635.91
569.01	2623.62
569.208	2506.88
569.407	2537.6
569.605	2449.54
569.804	2467.97
570.002	2457.73
570.201	2259.08
570.4	2254.98
570.598	2394.25
570.797	2269.32
570.995	2234.5
571.193	2230.41
571.392	2125.96
571.59	2107.53
571.789	2164.87
571.987	2138.25
572.186	2070.67
572.384	2021.52
572.582	1968.27
572.781	2017.42
572.979	1835.15
573.177	1945.74
573.376	1880.21
573.574	1915.02
573.772	1874.06
573.971	1759.38
574.169	1659.03
574.367	1849.49
574.565	1616.02
574.763	1722.51
574.962	1691.79
575.16	1607.83
575.358	1591.44
575.556	1620.11
575.754	1509.52
575.952	1464.47
576.151	1558.67
576.349	1566.87
576.547	1429.65
576.745	1380.5
576.943	1439.89
577.141	1493.14
577.339	1331.35
577.537	1411.22
577.735	1396.89
577.933	1329.3
578.131	1210.52
578.329	1364.12
578.527	1360.02
578.725	1235.1
578.923	1104.03
579.121	1276.06
579.319	999.58
579.516	1128.6
579.714	1353.88
579.912	1134.75
580.11	985.24
580.308	1091.74
580.506	1091.74
580.704	1052.83
580.901	946.33
581.099	1099.93
581.297	932
581.495	1007.77
581.692	1054.87
581.89	1093.79
582.088	968.86
582.285	975
582.483	866.46
582.681	915.61
582.878	882.85
583.076	960.67
583.274	956.57
583.471	1077.4
583.669	868.51
583.866	708.77
584.064	776.35
584.262	792.73
584.459	723.1
584.657	782.49
584.854	839.84
585.052	833.69
585.249	809.12
585.447	825.5
585.644	729.25
585.841	800.93
586.039	772.25
586.236	696.48
586.434	665.76
586.631	600.23
586.828	641.18
587.026	737.44
587.223	530.59
587.42	659.62
587.618	661.66
587.815	749.73
588.012	684.19
588.21	551.07
588.407	667.81
588.604	712.86
588.801	610.47
588.999	616.61
589.196	696.48
589.393	571.55
589.59	587.94
589.787	563.36
589.984	645.28
590.182	657.57
590.379	460.96
590.576	536.74
590.773	653.47
590.97	549.03
591.167	598.18
591.364	573.6
591.561	583.84
591.758	594.08
591.955	579.75
592.152	630.95
592.349	520.35
592.546	524.45
592.743	542.88
592.94	522.4
593.137	632.99
593.334	608.42
593.531	622.75
593.727	532.64
593.924	542.88
594.121	608.42
594.318	467.11
594.515	579.75
594.712	635.04
594.908	739.49
595.105	510.11
595.302	596.13
595.499	698.53
595.696	753.82
595.892	481.44
596.089	702.62
596.286	712.86
596.482	757.92
596.679	802.97
596.876	598.18
597.072	782.49
597.269	622.75
597.466	794.78
597.662	739.49
597.859	745.63
598.055	678.05
598.252	794.78
598.448	936.09
598.645	899.23
598.841	962.72
599.038	927.9
599.234	1022.11
599.431	1081.5
599.627	993.44
599.824	1161.37
600.02	1190.04
600.217	1083.55
600.413	1212.57
600.609	1319.06
600.806	1480.85
601.002	1407.13
601.198	1306.77
601.395	1593.49
601.591	1554.58
601.787	1530
601.984	1689.74
602.18	1634.45
602.376	1616.02
602.572	1790.1
602.769	1976.46
602.965	1976.46
603.161	2042
603.357	2027.66
603.553	2308.23
603.75	2168.97
603.946	2250.89
604.142	2373.77
604.338	2476.16
604.534	2459.78
604.73	2521.22
604.926	2644.1
605.122	2791.55
605.318	2717.83
605.514	2945.15
605.71	2977.92
605.906	3260.54
606.102	3162.23
606.298	3416.18
606.494	3332.22
606.69	3577.97
606.886	3547.25
607.082	3704.95
607.278	3723.38
607.474	3883.12
607.67	4032.62
607.866	3956.85
608.062	4243.56
608.257	4227.18
608.453	4253.8
608.649	4604
608.845	4669.54
609.041	4620.39
609.236	5077.09
609.432	5181.53
609.628	5316.7
609.824	5445.72
610.019	5396.57
610.215	5568.6
610.411	5861.46
610.606	6076.49
610.802	6127.69
610.998	6312.01
611.193	6600.77
611.389	6608.97
611.584	6750.28
611.78	6875.2
611.976	7178.3
612.171	7407.67
612.367	7417.91
612.562	7684.15
612.758	7761.97
612.953	7964.72
613.149	8591.4
613.344	8456.23
613.539	8828.96
613.735	9019.43
613.93	9119.78
614.126	9269.28
614.321	9760.79
614.517	9965.59
614.712	10072.08
614.907	10352.65
615.103	10541.07
615.298	10788.87
615.493	11096.07
615.688	11393.02
615.884	11927.54
616.079	11655.16
616.274	12578.79
616.47	12724.2
616.665	13008.87
616.86	13397.98
617.055	13776.86
617.25	14010.32
617.445	14546.89
617.641	14542.8
617.836	14964.68
618.031	15071.17
618.226	15804.35
618.421	16109.49
618.616	16441.26
618.811	16795.56
619.006	17321.89
619.201	17651.61
619.396	18173.85
619.591	18100.12
619.786	18784.14
619.981	19103.62
620.176	19715.97
620.371	19492.74
620.566	20586.35
620.761	20805.49
620.956	21569.38
621.151	21436.26
621.346	22216.54
621.541	22210.39
621.735	22990.67
621.93	23293.77
622.125	23709.5
622.32	24115
622.515	24598.32
622.709	25061.16
622.904	25466.66
623.099	25782.05
623.294	26535.7
623.488	26679.06
623.683	27309.83
623.878	27412.23
624.072	28020.48
624.267	28456.7
624.462	28903.15
624.656	29316.84
624.851	30078.69
625.046	30445.27
625.24	30584.54
625.435	30752.47
625.629	31413.96
625.824	32026.31
626.018	32241.34
626.213	32308.93
626.407	32997.04
626.602	33408.68
626.796	34258.59
626.991	33779.37
627.185	34336.41
627.38	34285.22
627.574	34461.34
627.768	34715.29
627.963	35047.06
628.157	34840.22
628.352	35368.59
628.546	34946.71
628.74	35661.45
628.935	35012.24
629.129	35626.64
629.323	35253.9
629.517	35128.98
629.712	34578.08
629.906	34614.94
630.1	33726.12
630.294	34004.64
630.489	33605.29
630.683	33111.73
630.877	32579.26
631.071	32104.13
631.265	31944.39
631.459	31028.95
631.653	30443.23
631.848	29781.73
632.042	29339.37
632.236	28468.98
632.43	27795.2
632.624	26887.95
632.818	26162.97
633.012	25241.39
633.206	24469.3
633.4	24090.43
633.594	22839.12
633.788	22374.23
633.982	21593.95
634.176	20780.91
634.369	19935.1
634.563	19232.65
634.757	18313.11
634.951	18292.63
635.145	17182.63
635.339	16723.88
635.533	15943.61
635.726	15302.59
635.92	14415.82
636.114	13905.88
636.308	13475.81
636.501	12912.61
636.695	12482.54
636.889	12034.04
637.083	11304.96
637.276	10780.68
637.47	10469.39
637.664	10051.6
637.857	9685.01
638.051	9398.3
638.244	9052.19
638.438	8417.32
638.632	8464.43
638.825	7714.87
639.019	7817.27
639.212	7356.47
639.406	7057.47
639.599	6768.71
639.793	6631.49
639.986	6277.19
640.18	5974.1
640.373	5642.32
640.567	5556.31
640.76	5437.53
640.954	5101.66
641.147	4954.21
641.34	4733.03
641.534	4618.34
641.727	4419.69
641.92	4325.48
642.114	4077.68
642.307	3848.3
642.5	3913.84
642.694	3649.65
642.887	3532.92
643.08	3541.11
643.273	3383.42
643.467	3029.12
643.66	2961.53
643.853	2945.15
644.046	2900.09
644.239	2656.39
644.432	2590.85
644.626	2435.21
644.819	2343.05
645.012	2263.18
645.205	2179.21
645.398	2207.88
645.591	2164.87
645.784	1829.01
645.977	1945.74
646.17	1898.64
646.363	1816.72
646.556	1683.6
646.749	1517.72
646.942	1654.93
647.135	1542.29
647.328	1384.6
647.521	1540.24
647.714	1310.87
647.907	1308.82
648.099	1126.55
648.292	1370.26
648.485	1167.51
648.678	1087.64
648.871	962.72
649.064	1149.08
649.256	975
649.449	948.38
649.642	870.56
649.835	874.65
650.027	845.98
650.22	864.41
650.413	770.21
650.605	845.98
650.798	780.45
650.991	704.67
651.183	739.49
651.376	671.9
651.568	749.73
651.761	626.85
651.954	555.17
652.146	510.11
652.339	702.62
652.531	673.95
652.724	430.24
652.916	497.83
653.109	372.9
653.301	659.62
653.494	516.26
653.686	516.26
653.879	569.51
654.071	489.64
654.263	370.85
654.456	395.43
654.648	458.92
654.84	508.07
655.033	301.22
655.225	530.59
655.417	356.52
655.61	495.78
655.802	387.24
655.994	469.16
656.186	266.41
656.379	432.29
656.571	252.07
656.763	309.41
656.955	266.41
657.148	198.82
657.34	528.55
657.532	221.35
657.724	278.69
657.916	297.13
658.108	333.99
658.3	313.51
658.492	333.99
658.684	243.88
658.876	342.18
659.068	198.82
659.26	106.67
659.452	209.06
659.644	194.73
659.836	352.42
660.028	223.4
660.22	276.65
660.412	243.88
660.604	239.78
660.796	219.3
660.988	284.84
661.18	235.69
661.372	262.31
661.563	243.88
661.755	241.83
661.947	92.33
662.139	225.45
662.331	151.72
662.522	174.25
662.714	37.03
662.906	170.15
663.097	166.06
663.289	123.05
663.481	73.9
663.673	172.2
663.864	188.58
664.056	204.97
664.247	108.71
664.439	243.88
664.631	106.67
664.822	200.87
665.014	104.62
665.205	63.66
665.397	176.3
665.588	166.06
665.78	184.49
665.971	280.74
666.163	178.34
666.354	141.48
666.546	102.57
666.737	73.9
666.929	147.62
667.12	155.82
667.311	153.77
667.503	121
667.694	139.43
667.885	180.39
668.077	157.86
668.268	102.57
668.459	145.58
668.651	227.5
668.842	43.18
669.033	18.6
669.224	98.47
669.416	370.85
669.607	55.47
669.798	98.47
669.989	256.17
670.18	200.87
670.371	145.58
670.563	84.14
670.754	264.36
670.945	227.5
671.136	155.82
671.327	147.62
671.518	235.69
671.709	270.5
671.9	213.16
672.091	262.31
672.282	75.95
672.473	114.86
672.664	73.9
672.855	112.81
673.046	168.1
673.237	229.54
673.428	143.53
673.619	207.02
673.809	67.75
674	161.96
674.191	168.1
674.382	118.95
674.573	100.52
674.764	182.44
674.954	172.2
675.145	94.38
675.336	90.28
675.527	112.81
675.717	102.57
675.908	92.33
676.099	102.57
676.289	172.2
676.48	104.62
676.671	227.5
676.861	178.34
677.052	223.4
677.243	100.52
677.433	102.57
677.624	215.21
677.814	118.95
678.005	198.82
678.195	227.5
678.386	149.67
678.576	194.73
678.767	92.33
678.957	170.15
679.148	219.3
679.338	213.16
679.529	235.69
679.719	110.76
679.909	161.96
680.1	247.97
680.29	290.98
680.481	-12.12
680.671	176.3
680.861	133.29
681.052	174.25
681.242	170.15
681.432	198.82
681.622	207.02
681.813	80.04
682.003	153.77
682.193	98.47
682.383	196.78
682.573	207.02
682.764	131.24
682.954	190.63
683.144	293.03
683.334	186.54
683.524	155.82
683.714	229.54
683.904	297.13
684.094	82.09
684.284	217.26
684.474	270.5
684.664	303.27
684.854	278.69
685.044	145.58
685.234	178.34
685.424	278.69
685.614	157.86
685.804	264.36
685.994	266.41
686.184	166.06
686.374	266.41
686.564	186.54
686.753	161.96
686.943	47.27
687.133	182.44
687.323	174.25
687.513	188.58
687.702	280.74
687.892	250.02
688.082	245.93
688.272	270.5
688.461	262.31
688.651	241.83
688.841	258.21
689.03	125.1
689.22	164.01
689.41	231.59
689.599	221.35
689.789	135.34
689.979	182.44
690.168	51.37
690.358	264.36
690.547	194.73
690.737	221.35
690.926	170.15
691.116	247.97
691.305	293.03
691.495	260.26
691.684	135.34
691.874	123.05
692.063	159.91
692.252	215.21
692.442	274.6
692.631	112.81
692.82	198.82
693.01	215.21
693.199	168.1
693.388	278.69
693.578	268.45
693.767	247.97
693.956	202.92
694.146	139.43
694.335	295.08
694.524	209.06
694.713	235.69
694.902	219.3
695.092	231.59
695.281	301.22
695.47	278.69
695.659	92.33
695.848	200.87
696.037	141.48
696.226	243.88
696.415	174.25
696.604	309.41
696.793	280.74
696.982	211.11
697.171	346.28
697.36	143.53
697.549	233.64
697.738	84.14
697.927	137.38
698.116	100.52
698.305	213.16
698.494	178.34
698.683	166.06
698.872	317.61
699.061	182.44
699.25	41.13
699.438	202.92
699.627	151.72
699.816	295.08
700.005	59.56
700.193	223.4
700.382	276.65
700.571	260.26
700.76	145.58
700.948	256.17
701.137	229.54
701.326	264.36
701.514	168.1
701.703	147.62
701.892	155.82
702.08	329.89
702.269	172.2
702.457	239.78
702.646	170.15
702.834	112.81
703.023	280.74
703.212	209.06
703.4	211.11
703.589	157.86
703.777	135.34
703.965	135.34
704.154	207.02
704.342	39.08
704.531	102.57
704.719	188.58
704.907	301.22
705.096	127.14
705.284	45.23
705.472	219.3
705.661	166.06
705.849	235.69
706.037	323.75
706.226	198.82
706.414	221.35
706.602	116.9
706.79	276.65
706.979	82.09
707.167	215.21
707.355	106.67
707.543	192.68
707.731	231.59
707.919	241.83
708.107	135.34
708.296	170.15
708.484	172.2
708.672	223.4
708.86	190.63
709.048	237.74
709.236	145.58
709.424	250.02
709.612	188.58
709.8	159.91
709.988	219.3
710.176	313.51
710.364	262.31
710.551	145.58
710.739	155.82
710.927	137.38
711.115	225.45
711.303	229.54
711.491	295.08
711.679	153.77
711.866	219.3
712.054	118.95
712.242	227.5
712.43	235.69
712.617	213.16
712.805	237.74
712.993	131.24
713.181	98.47
713.368	282.79
713.556	164.01
713.744	174.25
713.931	391.33
714.119	223.4
714.306	161.96
714.494	133.29
714.682	217.26
714.869	55.47
715.057	198.82
715.244	166.06
715.432	278.69
715.619	239.78
715.807	198.82
715.994	182.44
716.182	166.06
716.369	297.13
716.556	303.27
716.744	151.72
716.931	137.38
717.119	229.54
717.306	262.31
717.493	196.78
717.681	65.71
717.868	149.67
718.055	264.36
718.242	262.31
718.43	303.27
718.617	241.83
718.804	147.62
718.991	243.88
719.179	139.43
719.366	262.31
719.553	159.91
719.74	200.87
719.927	170.15
720.114	153.77
720.301	145.58
720.488	125.1
720.676	159.91
720.863	268.45
721.05	387.24
721.237	174.25
721.424	252.07
721.611	239.78
721.798	172.2
721.985	221.35
722.172	147.62
722.358	227.5
722.545	282.79
722.732	321.7
722.919	282.79
723.106	284.84
723.293	229.54
723.48	252.07
723.667	121
723.853	350.37
724.04	258.21
724.227	290.98
724.414	211.11
724.6	309.41
724.787	284.84
724.974	323.75
725.161	229.54
725.347	178.34
725.534	297.13
725.72	286.89
725.907	295.08
726.094	225.45
726.28	174.25
726.467	223.4
726.653	153.77
726.84	407.72
727.027	354.47
727.213	256.17
727.4	301.22
727.586	278.69
727.773	245.93
727.959	301.22
728.145	260.26
728.332	305.32
728.518	227.5
728.705	327.85
728.891	305.32
729.077	329.89
729.264	194.73
729.45	321.7
729.636	366.76
729.823	313.51
730.009	356.52
730.195	319.65
730.382	262.31
730.568	231.59
730.754	241.83
730.94	266.41
731.126	260.26
731.313	329.89
731.499	278.69
731.685	342.18
731.871	323.75
732.057	340.13
732.243	288.93
732.429	319.65
732.615	366.76
732.801	303.27
732.987	290.98
733.173	290.98
733.359	274.6
733.545	325.8
733.731	305.32
733.917	428.2
734.103	379.04
734.289	403.62
734.475	147.62
734.661	420
734.847	321.7
735.033	288.93
735.219	381.09
735.404	344.23
735.59	331.94
735.776	311.46
735.962	385.19
736.148	436.39
736.333	401.57
736.519	370.85
736.705	358.57
736.89	293.03
737.076	356.52
737.262	190.63
737.447	295.08
737.633	239.78
737.819	366.76
738.004	399.52
738.19	327.85
738.375	383.14
738.561	323.75
738.747	393.38
738.932	307.37
739.118	401.57
739.303	469.16
739.489	430.24
739.674	340.13
739.859	262.31
740.045	333.99
740.23	336.04
740.416	213.16
740.601	354.47
740.786	323.75
740.972	383.14
741.157	270.5
741.342	260.26
741.528	295.08
741.713	360.61
741.898	282.79
742.084	356.52
742.269	311.46
742.454	344.23
742.639	350.37
742.824	350.37
743.01	360.61
743.195	469.16
743.38	317.61
743.565	368.81
743.75	352.42
743.935	411.81
744.12	424.1
744.305	229.54
744.49	333.99
744.675	293.03
744.86	319.65
745.045	411.81
745.23	379.04
745.415	364.71
745.6	387.24
745.785	297.13
745.97	340.13
746.155	397.48
746.34	391.33
746.525	342.18
746.71	403.62
746.895	274.6
747.079	278.69
747.264	297.13
747.449	329.89
747.634	428.2
747.819	405.67
748.003	270.5
748.188	258.21
748.373	280.74
748.557	348.33
748.742	360.61
748.927	366.76
749.111	268.45
749.296	344.23
749.481	338.09
749.665	280.74
749.85	264.36
750.034	340.13
750.219	354.47
750.404	284.84
750.588	256.17
750.773	239.78
750.957	198.82
751.141	374.95
751.326	315.56
751.51	223.4
751.695	278.69
751.879	241.83
752.064	372.9
752.248	354.47
752.432	370.85
752.617	315.56
752.801	362.66
752.985	155.82
753.17	336.04
753.354	340.13
753.538	280.74
753.722	190.63
753.907	164.01
754.091	145.58
754.275	247.97
754.459	137.38
754.643	231.59
754.828	301.22
755.012	288.93
755.196	170.15
755.38	323.75
755.564	190.63
755.748	256.17
755.932	278.69
756.116	274.6
756.3	268.45
756.484	219.3
756.668	352.42
756.852	80.04
757.036	180.39
757.22	305.32
757.404	198.82
757.588	200.87
757.772	241.83
757.956	243.88
758.14	299.17
758.323	129.19
758.507	237.74
758.691	223.4
758.875	336.04
759.059	303.27
759.242	192.68
759.426	207.02
759.61	245.93
759.794	190.63
759.977	286.89
760.161	393.38
760.345	250.02
760.528	241.83
760.712	194.73
760.895	247.97
761.079	219.3
761.263	170.15
761.446	125.1
761.63	223.4
761.813	268.45
761.997	143.53
762.18	121
762.364	231.59
762.547	86.19
762.731	159.91
762.914	104.62
763.098	90.28
763.281	170.15
763.464	116.9
763.648	270.5
763.831	168.1
764.015	86.19
764.198	186.54
764.381	96.43
764.564	143.53
764.748	229.54
764.931	168.1
765.114	190.63
765.297	286.89
765.481	118.95
765.664	94.38
765.847	159.91
766.03	360.61
766.213	123.05
766.397	147.62
766.58	-22.36
766.763	141.48
766.946	145.58
767.129	86.19
767.312	141.48
767.495	100.52
767.678	37.03
767.861	202.92
768.044	63.66
768.227	106.67
768.41	168.1
768.593	151.72
768.776	182.44
768.959	149.67
769.142	235.69
769.324	106.67
769.507	14.51
769.69	86.19
769.873	135.34
770.056	262.31
770.239	80.04
770.421	256.17
770.604	213.16
770.787	129.19
770.97	137.38
771.152	94.38
771.335	250.02
771.518	84.14
771.7	217.26
771.883	207.02
772.066	129.19
772.248	192.68
772.431	270.5
772.613	164.01
772.796	145.58
772.978	149.67
773.161	280.74
773.343	92.33
773.526	114.86
773.708	32.94
773.891	8.36
774.073	155.82
774.256	123.05
774.438	186.54
774.621	67.75
774.803	174.25
774.985	104.62
775.168	190.63
775.35	30.89
775.532	127.14
775.715	71.85
775.897	104.62
776.079	14.51
776.261	143.53
776.444	143.53
776.626	86.19
776.808	104.62
776.99	10.41
777.173	94.38
777.355	110.76
777.537	34.99
777.719	67.75
777.901	127.14
778.083	43.18
778.265	-8.02
778.447	223.4
778.629	65.71
778.811	92.33
778.993	110.76
779.175	149.67
779.357	168.1
779.539	28.84
779.721	139.43
779.903	184.49
780.085	116.9
780.267	133.29
780.449	116.9
780.631	153.77
780.812	112.81
780.994	-24.4
781.176	104.62
781.358	51.37
781.54	104.62
781.721	178.34
781.903	155.82
782.085	61.61
782.267	145.58
782.448	-18.26
782.63	34.99
782.812	137.38
782.993	102.57
783.175	131.24
783.357	59.56
783.538	125.1
783.72	59.56
783.901	34.99
784.083	137.38
784.264	127.14
784.446	-1.88
784.627	14.51
784.809	159.91
784.99	0.17
785.172	90.28
785.353	94.38
785.535	112.81
785.716	82.09
785.897	69.8
786.079	0.17
786.26	94.38
786.441	174.25
786.623	-48.98
786.804	-12.12
786.985	49.32
787.167	116.9
787.348	-55.12
787.529	135.34
787.71	225.45
787.891	71.85
788.073	92.33
788.254	14.51
788.435	174.25
788.616	53.42
788.797	-3.93
788.978	37.03
789.159	41.13
789.34	168.1
789.522	98.47
789.703	-12.12
789.884	75.95
790.065	153.77
790.246	198.82
790.427	4.27
790.607	155.82
790.788	71.85
790.969	37.03
791.15	166.06
791.331	37.03
791.512	34.99
791.693	24.75
791.874	59.56
792.054	204.97
792.235	57.51
792.416	2.22
792.597	-30.55
792.778	82.09
792.958	80.04
793.139	65.71
793.32	82.09
793.5	-53.08
793.681	170.15
793.862	69.8
794.042	45.23
794.223	-77.65
794.404	84.14
794.584	-145.24
794.765	34.99
794.945	86.19
795.126	73.9
795.306	116.9
795.487	10.41
795.667	63.66
795.848	47.27
796.028	96.43
796.209	8.36
796.389	84.14
796.57	49.32
796.75	-22.36
796.93	43.18
797.111	-30.55
797.291	-12.12
797.471	131.24
797.652	24.75
797.832	43.18
798.012	88.23
798.192	28.84
798.373	-32.6
798.553	0.17
798.733	114.86
798.913	14.51
799.093	49.32
799.274	37.03
799.454	112.81
799.634	123.05
799.814	147.62
799.994	157.86
800.174	10.41
800.354	90.28
800.534	-83.8
800.714	37.03
800.894	16.55
801.074	-1.88
801.254	-22.36
801.434	90.28
801.614	39.08
801.794	-46.93
801.974	1912.97
802.154	10.41
802.334	80.04
802.514	53.42
802.693	47.27
802.873	37.03
803.053	131.24
803.233	92.33
803.413	-3.93
803.592	-24.4
803.772	6.31
803.952	82.09
804.131	-73.56
804.311	67.75
804.491	137.38
804.67	24.75
804.85	26.79
805.03	14.51
805.209	39.08
805.389	102.57
805.568	-24.4
805.748	16.55
805.928	108.71
806.107	14.51
806.287	22.7
806.466	45.23
806.646	65.71
806.825	-32.6
807.004	30.89
807.184	51.37
807.363	30.89
807.543	75.95
807.722	-22.36
807.901	133.29
808.081	73.9
808.26	-153.43
808.439	88.23
808.619	-57.17
808.798	63.66
808.977	65.71
809.156	139.43
809.336	82.09
809.515	157.86
809.694	-42.84
809.873	-3.93
810.052	-8.02
810.231	129.19
810.411	51.37
810.59	82.09
810.769	71.85
810.948	102.57
811.127	-83.8
811.306	-53.08
811.485	32.94
811.664	108.71
811.843	92.33
812.022	73.9
812.201	12.46
812.38	-34.64
812.559	45.23
812.737	16.55
812.916	30.89
813.095	2.22
813.274	-8.02
813.453	57.51
813.632	141.48
813.811	77.99
813.989	-18.26
814.168	26.79
814.347	-69.46
814.526	-5.97
814.704	123.05
814.883	98.47
815.062	14.51
815.24	86.19
815.419	71.85
815.598	135.34
815.776	-94.04
815.955	47.27
816.133	-59.22
816.312	57.51
816.49	-10.07
816.669	51.37
816.847	-34.64
817.026	30.89
817.204	-1.88
817.383	43.18
817.561	-24.4
817.74	10.41
817.918	24.75
818.097	-55.12
818.275	6.31
818.453	53.42
818.632	92.33
818.81	-14.17
818.988	34.99
819.167	-79.7
819.345	61.61
819.523	-71.51
819.701	67.75
819.879	32.94
820.058	49.32
820.236	-26.45
820.414	14.51
820.592	34.99
820.77	-30.55
820.948	14.51
821.127	-44.88
821.305	8.36
821.483	-40.79
821.661	145.58
821.839	61.61
822.017	-30.55
822.195	24.75
822.373	135.34
822.551	57.51
822.729	41.13
822.907	26.79
823.085	69.8
823.262	22.7
823.44	-8.02
823.618	18.6
823.796	34.99
823.974	-42.84
824.152	-26.45
824.329	12.46
824.507	28.84
824.685	53.42
824.863	-18.26
825.04	45.23
825.218	-30.55
825.396	47.27
825.574	41.13
825.751	26.79
825.929	127.14
826.107	-89.94
826.284	16.55
826.462	41.13
826.639	-73.56
826.817	-48.98
826.994	94.38
827.172	-12.12
827.349	135.34
827.527	-16.21
827.704	88.23
827.882	6.31
828.059	8.36
828.237	-61.27
828.414	26.79
828.591	-10.07
828.769	30.89
828.946	-22.36
829.124	69.8
829.301	116.9
829.478	-24.4
829.655	88.23
829.833	34.99
830.01	-79.7
830.187	108.71
830.364	39.08
830.542	41.13
830.719	110.76
830.896	34.99
831.073	82.09
831.25	-24.4
831.427	51.37
831.604	-16.21
831.782	-5.97
831.959	28.84
832.136	-46.93
832.313	55.47
832.49	-20.31
832.667	84.14
832.844	-65.36
833.021	114.86
833.198	112.81
833.374	41.13
833.551	-26.45
833.728	10.41
833.905	108.71
834.082	-106.32
834.259	59.56
834.436	118.95
834.612	28.84
834.789	104.62
834.966	77.99
835.143	57.51
835.319	-59.22
835.496	43.18
835.673	20.65
835.85	77.99
836.026	84.14
836.203	63.66
836.38	-53.08
836.556	-46.93
836.733	-42.84
836.909	73.9
837.086	-51.03
837.262	-192.34
837.439	-16.21
837.616	-46.93
837.792	39.08
837.968	22.7
838.145	-114.52
838.321	-38.74
838.498	57.51
838.674	10.41
838.851	47.27
839.027	41.13
839.203	-3.93
839.38	51.37
839.556	-20.31
839.732	-5.97
839.909	-10.07
840.085	102.57
840.261	24.75
840.437	-3.93
840.614	6.31
840.79	166.06
840.966	112.81
841.142	32.94
841.318	14.51
841.494	80.04
841.671	71.85
841.847	-3.93
842.023	-12.12
842.199	39.08
842.375	100.52
842.551	-81.75
842.727	-34.64
842.903	143.53
843.079	-98.13
843.255	157.86
843.431	-12.12
843.607	59.56
843.783	-200.53
843.959	108.71
844.134	-44.88
844.31	92.33
844.486	-20.31
844.662	-55.12
844.838	100.52
845.013	18.6
845.189	100.52
845.365	32.94
845.541	82.09
845.716	55.47
845.892	125.1
846.068	10.41
846.244	-67.41
846.419	100.52
846.595	-114.52
846.77	-34.64
846.946	168.1
847.122	49.32
847.297	-30.55
847.473	149.67
847.648	-18.26
847.824	61.61
847.999	-57.17
848.175	30.89
848.35	37.03
848.526	90.28
848.701	121
848.876	96.43
849.052	86.19
849.227	6.31
849.403	-67.41
849.578	37.03
849.753	80.04
849.929	30.89
850.104	-38.74
850.279	30.89
850.454	-18.26
850.63	102.57
850.805	39.08
850.98	6.31
851.155	22.7
851.33	59.56
851.505	-20.31
851.681	133.29
851.856	-30.55
852.031	94.38
852.206	-14.17
852.381	-16.21
852.556	96.43
852.731	4.27
852.906	55.47
853.081	14.51
853.256	94.38
853.431	26.79
853.606	59.56
853.781	-57.17
853.956	-79.7
854.131	112.81
854.305	-73.56
854.48	-46.93
854.655	-91.99
854.83	14.51
855.005	-67.41
855.18	43.18
855.354	32.94
855.529	59.56
855.704	-12.12
855.879	63.66
856.053	-38.74
856.228	63.66
856.403	-36.69
856.577	49.32
856.752	-79.7
856.926	28.84
857.101	-12.12
857.276	14.51
857.45	80.04
857.625	69.8
857.799	-10.07
857.974	51.37
858.148	-135
858.323	37.03
858.497	-73.56
858.672	-57.17
858.846	-57.17
859.02	82.09
859.195	-63.32
859.369	22.7
859.543	116.9
859.718	-12.12
859.892	59.56
860.066	-53.08
860.241	-71.51
860.415	-65.36
860.589	-10.07
860.763	53.42
860.938	-20.31
861.112	18.6
861.286	-28.5
861.46	-3.93
861.634	47.27
861.808	110.76
861.982	6.31
862.157	-85.84
862.331	-20.31
862.505	-16.21
862.679	-46.93
862.853	-28.5
863.027	57.51
863.201	145.58
863.375	-73.56
863.549	63.66
863.722	49.32
863.896	73.9
864.07	-67.41
864.244	-26.45
864.418	49.32
864.592	80.04
864.766	106.67
864.939	34.99
865.113	-16.21
865.287	90.28
865.461	-38.74
865.634	-24.4
865.808	65.71
865.982	39.08
866.156	-91.99
866.329	-32.6
866.503	22.7
866.676	53.42
866.85	30.89
867.024	-16.21
867.197	4.27
867.371	32.94
867.544	22.7
867.718	-139.09
867.891	159.91
868.065	-69.46
868.238	-12.12
868.412	65.71
868.585	8.36
868.759	-28.5
868.932	28.84
869.105	-5.97
869.279	-3.93
869.452	-51.03
869.625	51.37
869.799	-40.79
869.972	-57.17
870.145	6.31
870.319	88.23
870.492	-22.36
870.665	75.95
870.838	-34.64
871.011	-61.27
871.185	34.99
871.358	-34.64
871.531	88.23
871.704	-20.31
871.877	37.03
872.05	-87.89
872.223	-28.5
872.396	77.99
872.569	47.27
872.742	-34.64
872.915	77.99
873.088	-34.64
873.261	16.55
873.434	6.31
873.607	-3.93
873.78	34.99
873.953	-44.88
874.126	84.14
874.299	57.51
874.471	45.23
874.644	0.17
874.817	2.22
874.99	178.34
875.163	-71.51
875.335	55.47
875.508	22.7
875.681	84.14
875.853	-106.32
876.026	-30.55
876.199	57.51
876.371	47.27
876.544	-30.55
876.717	-20.31
876.889	-34.64
877.062	6.31
877.234	-20.31
877.407	-24.4
877.579	10.41
877.752	-34.64
877.924	34.99
878.097	34.99
878.269	16.55
878.442	86.19
878.614	100.52
878.786	24.75
878.959	16.55
879.131	8.36
879.303	-44.88
879.476	-10.07
879.648	127.14
879.82	0.17
879.993	-48.98
880.165	-26.45
880.337	-28.5
880.509	-48.98
880.681	-77.65
880.854	-122.71
881.026	73.9
881.198	170.15
881.37	-12.12
881.542	-22.36
881.714	2.22
881.886	-51.03
882.058	47.27
882.23	80.04
882.402	-85.84
882.574	86.19
882.746	121
882.918	110.76
883.09	47.27
883.262	-16.21
883.434	18.6
883.606	-77.65
883.778	2.22
883.95	168.1
884.122	-63.32
884.293	61.61
884.465	20.65
884.637	100.52
884.809	-53.08
884.98	12.46
885.152	61.61
885.324	65.71
885.496	-1.88
885.667	14.51
885.839	-26.45
886.011	157.86
886.182	43.18
886.354	84.14
886.525	100.52
886.697	-8.02
886.869	-79.7
887.04	51.37
887.212	141.48
887.383	174.25
887.555	10.41
887.726	-3.93
887.897	-28.5
888.069	-8.02
888.24	16.55
888.412	39.08
888.583	-32.6
888.754	-22.36
888.926	-104.28
889.097	22.7
889.268	-79.7
889.44	20.65
889.611	-91.99
889.782	-128.85
889.953	-83.8
890.125	98.47
890.296	-98.13
890.467	-30.55
890.638	-57.17
890.809	-1.88
890.98	-53.08
891.151	82.09
891.323	114.86
891.494	-5.97
891.665	59.56
891.836	-44.88
892.007	-14.17
892.178	-36.69
892.349	51.37
892.52	-36.69
892.691	30.89
892.862	47.27
893.032	-53.08
893.203	-26.45
893.374	49.32
893.545	86.19
893.716	-10.07
893.887	61.61
894.057	34.99
894.228	-77.65
894.399	-8.02
894.57	170.15
894.74	49.32
894.911	59.56
895.082	-44.88
895.253	-48.98
895.423	-3.93
895.594	84.14
895.764	77.99
895.935	-87.89
896.106	51.37
896.276	-24.4
896.447	4.27
896.617	-1.88
896.788	-46.93
896.958	4.27
897.129	14.51
897.299	49.32
897.47	90.28
897.64	34.99
897.81	28.84
897.981	-65.36
898.151	-42.84
898.322	2.22
898.492	61.61
898.662	-46.93
898.832	12.46
899.003	-42.84
899.173	10.41
899.343	-65.36
899.513	-75.6
