Data from USB4F104151__39__10-24-52-637.txt Node

Date: Wed Feb 26 10:24:52 EST 2025
User: louis
Spectrometer: USB4F10415
Trigger mode: 4
Integration Time (sec): 1.000000E-1
Scans to average: 1
Electric dark correction enabled: true
Nonlinearity correction enabled: false
Boxcar width: 0
XAxis mode: Wavelengths
Number of Pixels in Spectrum: 3648
>>>>>Begin Spectral Data<<<<<
178.204	-358.57
178.424	-358.57
178.644	-358.57
178.864	-372.9
179.084	-350.37
179.304	-0.17
179.524	-28.84
179.744	-12.46
179.964	67.41
180.184	8.02
180.404	77.65
180.624	26.45
180.844	-94.38
181.064	-108.71
181.283	51.03
181.503	-16.55
181.723	30.55
181.943	-61.61
182.163	184.15
182.383	-8.36
182.602	26.45
182.822	132.95
183.042	67.41
183.262	-20.65
183.482	-18.6
183.701	112.47
183.921	53.08
184.141	-73.9
184.361	8.02
184.58	89.94
184.8	30.55
185.02	20.31
185.239	135
185.459	143.19
185.679	173.91
185.898	-90.28
186.118	65.36
186.338	110.42
186.557	194.39
186.777	10.07
186.997	112.47
187.216	61.27
187.436	167.76
187.655	61.27
187.875	36.69
188.095	12.12
188.314	227.15
188.534	94.04
188.753	-49.32
188.973	26.45
189.192	163.67
189.412	-20.65
189.631	12.12
189.851	36.69
190.07	120.66
190.29	34.64
190.509	3.93
190.729	-43.18
190.948	135
191.168	284.5
191.387	65.36
191.607	85.84
191.826	96.08
192.045	59.22
192.265	61.27
192.484	-10.41
192.704	-61.61
192.923	-82.09
193.142	128.85
193.362	157.52
193.581	175.95
193.8	24.4
194.02	94.04
194.239	8.02
194.458	12.12
194.678	71.51
194.897	-32.94
195.116	104.28
195.335	108.37
195.555	26.45
195.774	22.36
195.993	63.32
196.212	32.6
196.432	16.21
196.651	-22.7
196.87	-18.6
197.089	178
197.308	36.69
197.528	34.64
197.747	-86.19
197.966	110.42
198.185	128.85
198.404	5.97
198.623	48.98
198.842	81.75
199.062	44.88
199.281	67.41
199.5	44.88
199.719	85.84
199.938	85.84
200.157	89.94
200.376	40.79
200.595	91.99
200.814	44.88
201.033	38.74
201.252	116.56
201.471	55.12
201.69	98.13
201.909	28.5
202.128	77.65
202.347	104.28
202.566	12.12
202.785	-45.23
203.004	-20.65
203.223	202.58
203.442	-34.99
203.661	-26.79
203.879	18.26
204.098	116.56
204.317	32.6
204.536	122.71
204.755	63.32
204.974	145.24
205.193	40.79
205.411	198.48
205.63	126.8
205.849	69.46
206.068	-4.27
206.287	-0.17
206.505	81.75
206.724	34.64
206.943	5.97
207.162	-2.22
207.381	89.94
207.599	14.17
207.818	16.21
208.037	-28.84
208.255	24.4
208.474	87.89
208.693	59.22
208.911	8.02
209.13	118.61
209.349	83.8
209.567	75.6
209.786	75.6
210.005	83.8
210.223	36.69
210.442	-143.53
210.661	1.88
210.879	-2.22
211.098	34.64
211.316	73.56
211.535	79.7
211.753	69.46
211.972	75.6
212.191	-22.7
212.409	46.93
212.628	130.9
212.846	-41.13
213.065	59.22
213.283	165.71
213.502	-55.47
213.72	67.41
213.938	116.56
214.157	-41.13
214.375	143.19
214.594	98.13
214.812	94.04
215.031	-69.8
215.249	46.93
215.467	59.22
215.686	69.46
215.904	108.37
216.122	79.7
216.341	153.43
216.559	85.84
216.778	110.42
216.996	159.57
217.214	12.12
217.432	38.74
217.651	-14.51
217.869	53.08
218.087	38.74
218.306	12.12
218.524	48.98
218.742	53.08
218.96	122.71
219.179	-8.36
219.397	63.32
219.615	307.02
219.833	165.71
220.051	-57.51
220.27	73.56
220.488	96.08
220.706	59.22
220.924	-4.27
221.142	-41.13
221.36	69.46
221.578	149.33
221.796	-10.41
222.015	40.79
222.233	40.79
222.451	128.85
222.669	-57.51
222.887	108.37
223.105	-0.17
223.323	46.93
223.541	-8.36
223.759	81.75
223.977	53.08
224.195	255.83
224.413	91.99
224.631	36.69
224.849	-28.84
225.067	153.43
225.285	28.5
225.503	-41.13
225.721	-65.71
225.939	-4.27
226.157	79.7
226.375	241.49
226.592	-8.36
226.81	32.6
227.028	143.19
227.246	180.05
227.464	106.32
227.682	157.52
227.9	116.56
228.117	22.36
228.335	48.98
228.553	28.5
228.771	36.69
228.989	-51.37
229.206	73.56
229.424	14.17
229.642	59.22
229.86	-34.99
230.077	225.11
230.295	18.26
230.513	110.42
230.731	132.95
230.948	85.84
231.166	210.77
231.384	18.26
231.601	-0.17
231.819	196.43
232.037	28.5
232.254	-20.65
232.472	22.36
232.689	96.08
232.907	83.8
233.125	-51.37
233.342	-8.36
233.56	-22.7
233.777	-37.03
233.995	22.36
234.213	40.79
234.43	102.23
234.648	94.04
234.865	79.7
235.083	48.98
235.3	26.45
235.518	122.71
235.735	139.09
235.953	81.75
236.17	65.36
236.388	-4.27
236.605	16.21
236.822	79.7
237.04	149.33
237.257	102.23
237.475	-30.89
237.692	-8.36
237.909	26.45
238.127	26.45
238.344	81.75
238.562	40.79
238.779	-57.51
238.996	10.07
239.214	-32.94
239.431	40.79
239.648	-32.94
239.865	112.47
240.083	85.84
240.3	73.56
240.517	-41.13
240.735	48.98
240.952	147.28
241.169	48.98
241.386	42.84
241.603	44.88
241.821	-2.22
242.038	118.61
242.255	116.56
242.472	22.36
242.689	87.89
242.907	40.79
243.124	98.13
243.341	48.98
243.558	20.31
243.775	-37.03
243.992	-47.27
244.209	83.8
244.426	188.24
244.643	169.81
244.86	73.56
245.078	98.13
245.295	102.23
245.512	36.69
245.729	12.12
245.946	122.71
246.163	30.55
246.38	-43.18
246.597	3.93
246.814	3.93
247.031	20.31
247.248	55.12
247.464	126.8
247.681	38.74
247.898	79.7
248.115	61.27
248.332	20.31
248.549	108.37
248.766	120.66
248.983	106.32
249.2	71.51
249.417	147.28
249.633	-0.17
249.85	120.66
250.067	20.31
250.284	79.7
250.501	53.08
250.717	75.6
250.934	32.6
251.151	36.69
251.368	40.79
251.585	42.84
251.801	104.28
252.018	-4.27
252.235	73.56
252.451	-32.94
252.668	-6.31
252.885	69.46
253.102	79.7
253.318	-69.8
253.535	75.6
253.752	-10.41
253.968	18.26
254.185	-34.99
254.401	-10.41
254.618	91.99
254.835	-37.03
255.051	151.38
255.268	98.13
255.484	10.07
255.701	36.69
255.917	34.64
256.134	-59.56
256.351	79.7
256.567	-59.56
256.784	26.45
257	16.21
257.217	118.61
257.433	51.03
257.65	32.6
257.866	132.95
258.082	10.07
258.299	69.46
258.515	18.26
258.732	42.84
258.948	-14.51
259.165	110.42
259.381	46.93
259.597	44.88
259.814	85.84
260.03	3.93
260.246	24.4
260.463	116.56
260.679	126.8
260.895	122.71
261.112	89.94
261.328	61.27
261.544	-55.47
261.761	216.91
261.977	-30.89
262.193	-53.42
262.409	79.7
262.626	-2.22
262.842	20.31
263.058	-24.75
263.274	83.8
263.49	38.74
263.707	130.9
263.923	77.65
264.139	-16.55
264.355	73.56
264.571	61.27
264.787	53.08
265.004	116.56
265.22	8.02
265.436	28.5
265.652	65.36
265.868	63.32
266.084	-14.51
266.3	67.41
266.516	40.79
266.732	48.98
266.948	57.17
267.164	26.45
267.38	227.15
267.596	53.08
267.812	110.42
268.028	57.17
268.244	16.21
268.46	104.28
268.676	-37.03
268.892	63.32
269.108	-8.36
269.324	-96.43
269.54	-49.32
269.756	57.17
269.972	-22.7
270.188	-26.79
270.403	-20.65
270.619	36.69
270.835	77.65
271.051	-18.6
271.267	12.12
271.483	34.64
271.698	106.32
271.914	55.12
272.13	-37.03
272.346	-2.22
272.562	114.52
272.777	130.9
272.993	-6.31
273.209	42.84
273.425	85.84
273.64	-12.46
273.856	114.52
274.072	14.17
274.287	-24.75
274.503	126.8
274.719	48.98
274.934	-30.89
275.15	-90.28
275.366	20.31
275.581	3.93
275.797	-6.31
276.012	32.6
276.228	48.98
276.444	22.36
276.659	155.47
276.875	-28.84
277.09	59.22
277.306	22.36
277.521	24.4
277.737	40.79
277.952	81.75
278.168	69.46
278.383	5.97
278.599	-16.55
278.814	104.28
279.03	61.27
279.245	141.14
279.461	55.12
279.676	16.21
279.892	48.98
280.107	-22.7
280.322	10.07
280.538	18.26
280.753	-2.22
280.969	96.08
281.184	42.84
281.399	161.62
281.615	79.7
281.83	65.36
282.045	1.88
282.26	-22.7
282.476	-22.7
282.691	73.56
282.906	71.51
283.122	57.17
283.337	-41.13
283.552	61.27
283.767	40.79
283.983	122.71
284.198	-24.75
284.413	32.6
284.628	-4.27
284.843	116.56
285.058	87.89
285.274	-14.51
285.489	34.64
285.704	89.94
285.919	-49.32
286.134	-24.75
286.349	61.27
286.564	14.17
286.779	145.24
286.995	-41.13
287.21	-112.81
287.425	118.61
287.64	-4.27
287.855	75.6
288.07	-51.37
288.285	69.46
288.5	77.65
288.715	28.5
288.93	-2.22
289.145	77.65
289.36	118.61
289.575	8.02
289.79	178
290.004	48.98
290.219	94.04
290.434	-6.31
290.649	-41.13
290.864	-20.65
291.079	-55.47
291.294	59.22
291.509	89.94
291.724	-28.84
291.938	28.5
292.153	169.81
292.368	-73.9
292.583	-47.27
292.798	126.8
293.012	-16.55
293.227	69.46
293.442	71.51
293.657	26.45
293.871	61.27
294.086	-10.41
294.301	180.05
294.516	130.9
294.73	116.56
294.945	20.31
295.16	-41.13
295.374	106.32
295.589	161.62
295.804	5.97
296.018	85.84
296.233	108.37
296.447	-8.36
296.662	36.69
296.877	143.19
297.091	18.26
297.306	48.98
297.52	26.45
297.735	26.45
297.949	-6.31
298.164	122.71
298.378	65.36
298.593	34.64
298.807	-6.31
299.022	40.79
299.236	190.29
299.451	42.84
299.665	-0.17
299.88	14.17
300.094	32.6
300.309	24.4
300.523	67.41
300.737	-43.18
300.952	40.79
301.166	149.33
301.381	28.5
301.595	36.69
301.809	24.4
302.024	73.56
302.238	-37.03
302.452	120.66
302.667	8.02
302.881	108.37
303.095	108.37
303.309	98.13
303.524	5.97
303.738	10.07
303.952	-4.27
304.166	89.94
304.381	-67.75
304.595	75.6
304.809	59.22
305.023	36.69
305.237	75.6
305.452	-6.31
305.666	32.6
305.88	79.7
306.094	40.79
306.308	77.65
306.522	69.46
306.736	112.47
306.95	89.94
307.164	32.6
307.379	32.6
307.593	180.05
307.807	77.65
308.021	73.56
308.235	106.32
308.449	-61.61
308.663	46.93
308.877	225.11
309.091	67.41
309.305	38.74
309.519	-41.13
309.733	77.65
309.947	-8.36
310.161	59.22
310.374	81.75
310.588	96.08
310.802	-18.6
311.016	-14.51
311.23	85.84
311.444	-20.65
311.658	-30.89
311.872	159.57
312.085	132.95
312.299	120.66
312.513	163.67
312.727	69.46
312.941	-22.7
313.154	61.27
313.368	-69.8
313.582	10.07
313.796	36.69
314.009	38.74
314.223	89.94
314.437	63.32
314.651	124.76
314.864	40.79
315.078	-8.36
315.292	-55.47
315.505	83.8
315.719	59.22
315.933	36.69
316.146	-75.95
316.36	-12.46
316.573	169.81
316.787	91.99
317.001	-49.32
317.214	-34.99
317.428	63.32
317.641	-59.56
317.855	18.26
318.068	81.75
318.282	94.04
318.495	83.8
318.709	-32.94
318.922	28.5
319.136	151.38
319.349	151.38
319.563	36.69
319.776	96.08
319.99	-57.51
320.203	79.7
320.417	3.93
320.63	16.21
320.843	122.71
321.057	1.88
321.27	24.4
321.483	126.8
321.697	124.76
321.91	-0.17
322.124	57.17
322.337	83.8
322.55	5.97
322.763	85.84
322.977	40.79
323.19	40.79
323.403	-20.65
323.617	1.88
323.83	114.52
324.043	-4.27
324.256	22.36
324.469	-53.42
324.683	79.7
324.896	24.4
325.109	40.79
325.322	-121
325.535	122.71
325.748	139.09
325.962	-26.79
326.175	42.84
326.388	91.99
326.601	83.8
326.814	-45.23
327.027	40.79
327.24	200.53
327.453	-41.13
327.666	73.56
327.879	108.37
328.092	132.95
328.305	69.46
328.518	-59.56
328.731	-16.55
328.944	32.6
329.157	69.46
329.37	135
329.583	253.78
329.796	221.01
330.009	-8.36
330.222	75.6
330.435	91.99
330.648	-16.55
330.861	73.56
331.073	122.71
331.286	114.52
331.499	69.46
331.712	-8.36
331.925	16.21
332.138	79.7
332.35	81.75
332.563	55.12
332.776	96.08
332.989	-67.75
333.202	-8.36
333.414	14.17
333.627	20.31
333.84	91.99
334.053	91.99
334.265	-55.47
334.478	-24.75
334.691	61.27
334.903	69.46
335.116	-14.51
335.329	10.07
335.541	85.84
335.754	153.43
335.966	-59.56
336.179	18.26
336.392	85.84
336.604	85.84
336.817	67.41
337.029	-24.75
337.242	-16.55
337.454	73.56
337.667	71.51
337.88	149.33
338.092	71.51
338.305	36.69
338.517	16.21
338.729	85.84
338.942	106.32
339.154	-77.99
339.367	40.79
339.579	75.6
339.792	-30.89
340.004	108.37
340.217	14.17
340.429	51.03
340.641	22.36
340.854	-30.89
341.066	36.69
341.278	110.42
341.491	100.18
341.703	53.08
341.915	-28.84
342.128	87.89
342.34	30.55
342.552	10.07
342.764	-2.22
342.977	-8.36
343.189	96.08
343.401	57.17
343.613	-41.13
343.826	44.88
344.038	-10.41
344.25	53.08
344.462	3.93
344.674	-8.36
344.886	8.02
345.099	10.07
345.311	85.84
345.523	-14.51
345.735	-94.38
345.947	77.65
346.159	59.22
346.371	46.93
346.583	34.64
346.795	200.53
347.007	38.74
347.219	89.94
347.431	-0.17
347.643	108.37
347.855	3.93
348.067	126.8
348.279	28.5
348.491	100.18
348.703	77.65
348.915	61.27
349.127	-88.23
349.339	10.07
349.551	-34.99
349.763	106.32
349.975	-30.89
350.187	94.04
350.399	175.95
350.61	48.98
350.822	-0.17
351.034	28.5
351.246	38.74
351.458	87.89
351.669	73.56
351.881	65.36
352.093	112.47
352.305	161.62
352.517	130.9
352.728	94.04
352.94	143.19
353.152	147.28
353.363	-2.22
353.575	-16.55
353.787	89.94
353.999	38.74
354.21	178
354.422	3.93
354.633	34.64
354.845	40.79
355.057	112.47
355.268	10.07
355.48	132.95
355.692	-39.08
355.903	5.97
356.115	-65.71
356.326	-53.42
356.538	173.91
356.749	53.08
356.961	149.33
357.172	-6.31
357.384	18.26
357.595	173.91
357.807	67.41
358.018	63.32
358.23	87.89
358.441	153.43
358.653	100.18
358.864	30.55
359.075	-51.37
359.287	73.56
359.498	118.61
359.709	137.04
359.921	89.94
360.132	53.08
360.344	10.07
360.555	30.55
360.766	40.79
360.977	120.66
361.189	40.79
361.4	20.31
361.611	85.84
361.823	151.38
362.034	18.26
362.245	-16.55
362.456	-22.7
362.667	53.08
362.879	-121
363.09	106.32
363.301	79.7
363.512	69.46
363.723	8.02
363.935	-32.94
364.146	59.22
364.357	-32.94
364.568	79.7
364.779	-94.38
364.99	130.9
365.201	14.17
365.412	83.8
365.623	-22.7
365.834	98.13
366.045	67.41
366.256	155.47
366.467	167.76
366.678	24.4
366.889	38.74
367.1	40.79
367.311	102.23
367.522	10.07
367.733	75.6
367.944	55.12
368.155	28.5
368.366	94.04
368.577	100.18
368.788	59.22
368.999	71.51
369.209	85.84
369.42	180.05
369.631	280.4
369.842	26.45
370.053	22.36
370.264	137.04
370.474	-24.75
370.685	71.51
370.896	28.5
371.107	137.04
371.317	110.42
371.528	65.36
371.739	89.94
371.95	81.75
372.16	67.41
372.371	-69.8
372.582	51.03
372.792	79.7
373.003	124.76
373.214	51.03
373.424	40.79
373.635	-12.46
373.846	124.76
374.056	120.66
374.267	149.33
374.477	36.69
374.688	-34.99
374.898	34.64
375.109	46.93
375.319	108.37
375.53	98.13
375.74	124.76
375.951	-26.79
376.161	-37.03
376.372	157.52
376.582	-30.89
376.793	14.17
377.003	55.12
377.214	28.5
377.424	147.28
377.635	10.07
377.845	46.93
378.055	122.71
378.266	-100.52
378.476	-4.27
378.686	-34.99
378.897	38.74
379.107	75.6
379.317	91.99
379.528	-47.27
379.738	77.65
379.948	40.79
380.158	77.65
380.369	34.64
380.579	81.75
380.789	46.93
380.999	16.21
381.21	126.8
381.42	175.95
381.63	-18.6
381.84	110.42
382.05	61.27
382.261	77.65
382.471	118.61
382.681	14.17
382.891	137.04
383.101	12.12
383.311	-55.47
383.521	14.17
383.731	124.76
383.941	128.85
384.151	12.12
384.361	-0.17
384.571	32.6
384.781	5.97
384.991	216.91
385.201	104.28
385.411	57.17
385.621	171.86
385.831	8.02
386.041	30.55
386.251	55.12
386.461	75.6
386.671	18.26
386.881	89.94
387.091	8.02
387.301	128.85
387.511	71.51
387.72	98.13
387.93	34.64
388.14	-18.6
388.35	8.02
388.56	163.67
388.769	63.32
388.979	-10.41
389.189	53.08
389.399	48.98
389.609	102.23
389.818	157.52
390.028	-53.42
390.238	165.71
390.447	-0.17
390.657	57.17
390.867	57.17
391.076	3.93
391.286	69.46
391.496	83.8
391.705	46.93
391.915	122.71
392.125	126.8
392.334	51.03
392.544	169.81
392.753	91.99
392.963	36.69
393.172	36.69
393.382	3.93
393.591	204.63
393.801	-28.84
394.01	132.95
394.22	184.15
394.429	59.22
394.639	-37.03
394.848	67.41
395.058	30.55
395.267	-41.13
395.477	18.26
395.686	96.08
395.895	196.43
396.105	227.15
396.314	143.19
396.524	12.12
396.733	32.6
396.942	126.8
397.152	124.76
397.361	122.71
397.57	75.6
397.78	63.32
397.989	114.52
398.198	194.39
398.407	48.98
398.617	40.79
398.826	51.03
399.035	-37.03
399.244	135
399.453	61.27
399.663	59.22
399.872	100.18
400.081	-51.37
400.29	143.19
400.499	-10.41
400.708	141.14
400.917	57.17
401.127	65.36
401.336	59.22
401.545	135
401.754	141.14
401.963	87.89
402.172	65.36
402.381	67.41
402.59	36.69
402.799	8.02
403.008	102.23
403.217	77.65
403.426	44.88
403.635	-67.75
403.844	87.89
404.053	-47.27
404.262	-0.17
404.471	151.38
404.68	36.69
404.888	75.6
405.097	5.97
405.306	20.31
405.515	81.75
405.724	48.98
405.933	153.43
406.142	-8.36
406.35	184.15
406.559	40.79
406.768	18.26
406.977	161.62
407.185	79.7
407.394	22.36
407.603	18.26
407.812	-0.17
408.02	96.08
408.229	36.69
408.438	98.13
408.646	-20.65
408.855	75.6
409.064	48.98
409.272	-57.51
409.481	79.7
409.69	-55.47
409.898	-26.79
410.107	69.46
410.315	175.95
410.524	24.4
410.733	36.69
410.941	38.74
411.15	108.37
411.358	20.31
411.567	130.9
411.775	51.03
411.984	28.5
412.192	126.8
412.401	83.8
412.609	198.48
412.818	149.33
413.026	124.76
413.234	55.12
413.443	51.03
413.651	-26.79
413.86	46.93
414.068	198.48
414.276	108.37
414.485	-20.65
414.693	81.75
414.901	184.15
415.11	98.13
415.318	118.61
415.526	94.04
415.734	77.65
415.943	108.37
416.151	149.33
416.359	14.17
416.567	71.51
416.776	147.28
416.984	116.56
417.192	237.39
417.4	-90.28
417.608	48.98
417.817	16.21
418.025	85.84
418.233	165.71
418.441	5.97
418.649	-55.47
418.857	42.84
419.065	100.18
419.273	77.65
419.481	-2.22
419.689	73.56
419.897	34.64
420.105	-55.47
420.313	163.67
420.521	171.86
420.729	102.23
420.937	91.99
421.145	-41.13
421.353	106.32
421.561	130.9
421.769	5.97
421.977	1.88
422.185	85.84
422.393	61.27
422.601	128.85
422.809	3.93
423.017	128.85
423.224	34.64
423.432	126.8
423.64	12.12
423.848	108.37
424.056	20.31
424.263	145.24
424.471	34.64
424.679	102.23
424.887	-49.32
425.094	163.67
425.302	104.28
425.51	3.93
425.718	122.71
425.925	118.61
426.133	28.5
426.341	194.39
426.548	73.56
426.756	44.88
426.964	118.61
427.171	57.17
427.379	46.93
427.586	81.75
427.794	132.95
428.001	149.33
428.209	63.32
428.417	159.57
428.624	143.19
428.832	106.32
429.039	73.56
429.247	106.32
429.454	94.04
429.662	245.59
429.869	165.71
430.076	87.89
430.284	77.65
430.491	221.01
430.699	38.74
430.906	212.82
431.114	155.47
431.321	114.52
431.528	48.98
431.736	65.36
431.943	155.47
432.15	175.95
432.358	194.39
432.565	272.21
432.772	-14.51
432.979	178
433.187	110.42
433.394	202.58
433.601	184.15
433.808	247.63
434.016	198.48
434.223	159.57
434.43	186.19
434.637	253.78
434.844	253.78
435.052	241.49
435.259	241.49
435.466	212.82
435.673	229.2
435.88	311.12
436.087	354.13
436.294	325.46
436.501	292.69
436.708	282.45
436.915	249.68
437.122	335.7
437.329	231.25
437.537	276.31
437.743	360.27
437.95	397.14
438.157	401.23
438.364	331.6
438.571	401.23
438.778	407.38
438.985	505.68
439.192	454.48
439.399	354.13
439.606	477.01
439.813	528.21
440.02	612.17
440.227	622.41
440.433	601.93
440.64	546.64
440.847	468.81
441.054	618.32
441.261	735.05
441.467	560.97
441.674	606.03
441.881	761.67
442.088	606.03
442.294	728.91
442.501	749.39
442.708	786.25
442.914	831.3
443.121	786.25
443.328	896.84
443.534	845.64
443.741	778.06
443.948	714.57
444.154	970.57
444.361	1111.88
444.568	995.14
444.774	1005.38
444.981	948.04
445.187	1161.03
445.394	1146.69
445.6	1089.35
445.807	1283.91
446.013	1212.23
446.22	1240.9
446.426	1441.6
446.633	1429.31
446.839	1593.15
447.046	1402.69
447.252	1711.93
447.459	1535.81
447.665	1572.67
447.871	1670.97
448.078	1906.49
448.284	1959.74
448.491	1974.07
448.697	2080.57
448.903	2185.01
449.11	2074.42
449.316	2148.15
449.522	2352.95
449.728	2402.1
449.935	2383.66
450.141	2467.63
450.347	2658.09
450.553	2535.21
450.76	2723.63
450.966	2860.84
451.172	2944.81
451.378	2953
451.584	3143.46
451.791	3372.83
451.997	3399.46
452.203	3557.15
452.409	3753.76
452.615	3716.89
452.821	3768.09
453.027	3804.96
453.233	4439.83
453.44	4046.62
453.646	4415.25
453.852	4476.69
454.058	4747.02
454.264	4800.27
454.47	5148.42
454.676	5248.77
454.882	5601.02
455.088	5275.4
455.294	5717.76
455.5	6012.67
455.705	6549.23
455.911	6448.88
456.117	6766.32
456.323	6774.51
456.529	6768.37
456.735	7497.44
456.941	7540.45
457.147	7970.52
457.352	7974.62
457.558	8302.29
457.764	8869.58
457.97	8947.4
458.176	9514.69
458.381	9977.53
458.587	10116.79
458.793	10487.48
458.999	10569.4
459.204	11751.07
459.41	12629.65
459.616	12277.4
459.821	12822.16
460.027	13223.56
460.233	13993.6
460.438	14151.29
460.644	14788.21
460.85	14806.64
461.055	15548.01
461.261	16344.67
461.466	15982.18
461.672	16207.45
461.878	18230.85
462.083	17708.62
462.289	18171.46
462.494	19090.99
462.7	19502.64
462.905	19578.41
463.111	21212.69
463.316	21923.33
463.522	22330.88
463.727	23021.05
463.932	24479.2
464.138	25077.21
464.343	26080.71
464.549	26109.38
464.754	28183.98
464.959	28857.76
465.165	29320.6
465.37	28763.55
465.575	29072.79
465.781	30881.15
465.986	31663.47
466.191	31321.46
466.397	31726.96
466.602	30965.12
466.807	32773.47
467.012	33412.44
467.218	33944.91
467.423	33891.66
467.628	35083.58
467.833	36625.7
468.038	35812.66
468.244	35460.41
468.449	36705.57
468.654	35972.4
468.859	36418.86
469.064	36810.02
469.269	35337.53
469.474	36037.94
469.679	36726.05
469.885	35640.63
470.09	36238.64
470.295	36447.53
470.5	35337.53
470.705	35712.31
470.91	35147.07
471.115	34590.02
471.32	34970.94
471.525	34735.43
471.73	33895.76
471.935	33461.59
472.139	32470.37
472.344	32466.28
472.549	32296.3
472.754	31845.74
472.959	30950.78
473.164	30010.76
473.369	29388.18
473.574	30594.43
473.778	29658.51
473.983	29353.37
474.188	28650.91
474.393	27274.68
474.598	27364.79
474.802	26645.95
475.007	26529.22
475.212	26099.14
475.417	25241.04
475.621	24800.73
475.826	24722.91
476.031	23873
476.235	23178.74
476.44	23469.55
476.645	22799.87
476.849	22744.57
477.054	22240.77
477.259	21650.95
477.463	21949.96
477.668	21227.03
477.872	21153.3
478.077	20661.79
478.282	19920.42
478.486	19582.51
478.691	19455.53
478.895	19504.68
479.1	19234.35
479.304	19553.83
479.509	18474.56
479.713	19031.6
479.918	18247.23
480.122	18124.35
480.326	17868.36
480.531	17991.23
480.735	18097.73
480.94	17251.92
481.144	17960.52
481.348	17223.25
481.553	17198.67
481.757	16715.35
481.961	16967.25
482.166	17299.02
482.37	16701.01
482.574	16442.97
482.778	16311.9
482.983	16836.18
483.187	16307.8
483.391	16133.73
483.595	16004.71
483.8	15713.89
484.004	15781.48
484.208	15773.28
484.412	15459.95
484.616	15441.51
484.821	15265.39
485.025	14827.12
485.229	14655.09
485.433	14638.71
485.637	14366.33
485.841	13977.22
486.045	14110.33
486.249	14020.22
486.453	13616.77
486.657	13500.04
486.861	13221.52
487.065	12828.31
487.269	12801.68
487.473	12355.22
487.677	12598.93
487.881	12678.8
488.085	11921.06
488.289	12086.94
488.493	11726.5
488.697	11622.05
488.901	11452.07
489.105	11273.9
489.309	10921.65
489.512	10964.65
489.716	10524.34
489.92	10387.13
490.124	10081.98
490.328	10276.54
490.531	9608.9
490.735	9840.32
490.939	9479.88
491.143	9338.57
491.346	9158.35
491.55	8896.21
491.754	8920.78
491.958	8916.69
492.161	8652.5
492.365	8660.69
492.569	8429.27
492.772	8146.65
492.976	8142.55
493.18	8122.07
493.383	7976.67
493.587	7904.99
493.79	7915.23
493.994	7577.31
494.197	7634.66
494.401	7524.07
494.605	7386.85
494.808	7440.1
495.012	7380.71
495.215	7536.35
495.419	7362.28
495.622	7120.62
495.825	6977.26
496.029	7042.79
496.232	7139.05
496.436	6960.88
496.639	7235.3
496.843	7020.27
497.046	7065.32
497.249	7124.71
497.453	6944.49
497.656	6995.69
497.859	6913.77
498.063	7014.12
498.266	7063.27
498.469	6811.37
498.673	6899.44
498.876	7190.25
499.079	6915.82
499.282	6924.01
499.485	7290.6
499.689	7141.1
499.892	7339.75
500.095	7237.35
500.298	7388.9
500.501	7153.38
500.705	7300.84
500.908	7517.92
501.111	7546.59
501.314	7780.06
501.517	7726.82
501.72	7780.06
501.923	7790.3
502.126	7970.52
502.329	7980.76
502.532	8013.53
502.735	8154.84
502.938	8355.54
503.141	8433.36
503.344	8380.12
503.547	8591.06
503.75	8543.95
503.953	8537.81
504.156	8830.67
504.359	8847.05
504.562	8859.34
504.765	9250.5
504.968	9467.59
505.17	9459.4
505.373	9567.94
505.576	9518.79
505.779	9862.85
505.982	9756.35
506.185	10198.71
506.387	10256.06
506.59	10614.45
506.793	10745.52
506.996	10938.03
507.198	11136.68
507.401	11079.34
507.604	11529.89
507.807	11718.31
508.009	11978.4
508.212	11943.58
508.415	12140.19
508.617	12684.95
508.82	12730
509.022	12928.66
509.225	13346.44
509.428	13629.06
509.63	14018.18
509.833	14028.42
510.035	14450.3
510.238	14825.08
510.44	15062.64
510.643	15332.97
510.845	15588.97
511.048	15986.27
511.25	16268.89
511.453	16418.39
511.655	17434.19
511.858	17317.45
512.06	18079.3
512.262	18013.76
512.465	18609.72
512.667	18751.03
512.87	19179.06
513.072	19781.16
513.274	20151.84
513.477	20665.88
513.679	20942.36
513.881	21454.35
514.084	22038.02
514.286	22480.38
514.488	22679.04
514.69	23848.43
514.893	23930.34
515.095	24387.04
515.297	24823.26
515.499	25259.48
515.701	25806.28
515.904	26090.95
516.106	26467.78
516.308	27528.63
516.51	28059.05
516.712	27913.64
516.914	28917.15
517.116	29748.62
517.318	29525.39
517.52	30619.01
517.722	30725.5
517.925	31516.02
518.127	32157.03
518.329	32955.74
518.531	32808.29
518.733	33858.9
518.935	34237.77
519.136	34567.49
519.338	35444.02
519.54	35781.94
519.742	36324.65
519.944	36685.09
520.146	37453.08
520.348	37735.7
520.55	37895.44
520.752	38558.98
520.954	38952.19
521.155	39073.03
521.357	40086.77
521.559	40203.5
521.761	41215.2
521.963	41223.39
522.164	41321.69
522.366	41675.99
522.568	42550.48
522.77	42372.3
522.971	43263.17
523.173	42915.01
523.375	43355.33
523.576	42898.63
523.778	43349.18
523.98	43857.08
524.181	44002.49
524.383	43912.38
524.584	44481.71
524.786	44188.85
524.988	44436.66
525.189	44629.16
525.391	44872.87
525.592	44616.88
525.794	44537.01
525.995	44393.65
526.197	44657.84
526.398	44430.51
526.6	44483.76
526.801	44053.69
527.003	44139.7
527.204	43875.51
527.406	44158.13
527.607	43807.93
527.808	43599.04
528.01	42931.4
528.211	43078.85
528.412	43181.25
528.614	42964.17
528.815	42788.04
529.016	42702.03
529.218	41497.82
529.419	41477.34
529.62	40893.67
529.822	40817.89
530.023	40084.72
530.224	39834.87
530.425	39767.29
530.626	38745.35
530.828	38374.67
531.029	38821.12
531.23	37963.03
531.431	37590.3
531.632	37133.6
531.833	36746.53
532.035	36293.93
532.236	35951.92
532.437	35573.05
532.638	35190.08
532.839	34790.72
533.04	34467.14
533.241	33484.12
533.442	33742.16
533.643	32867.68
533.844	32312.68
534.045	32466.28
534.246	31325.56
534.447	31149.43
534.648	30999.93
534.849	30463.36
535.05	29494.68
535.251	29384.08
535.451	29402.52
535.652	28827.04
535.853	28378.53
536.054	28210.6
536.255	27825.58
536.456	27186.61
536.657	27174.33
536.857	26545.6
537.058	26105.29
537.259	25640.4
537.46	25701.84
537.66	25066.97
537.861	24868.31
538.062	24364.51
538.263	24161.76
538.463	23793.13
538.664	23592.43
538.865	23242.23
539.065	23188.98
539.266	22562.3
539.466	22398.46
539.667	22072.84
539.868	22017.54
540.068	21493.26
540.269	21442.06
540.469	21337.62
540.67	20743.7
540.87	20489.76
541.071	20071.97
541.271	20395.55
541.472	19856.93
541.672	19562.03
541.873	19265.07
542.073	18812.47
542.274	19105.33
542.474	18738.74
542.675	18388.54
542.875	18419.26
543.075	18288.19
543.276	17751.62
543.476	17827.4
543.676	17481.29
543.877	17382.99
544.077	17198.67
544.277	16903.76
544.478	16811.6
544.678	16504.41
544.878	16438.87
545.078	16232.03
545.279	16004.71
545.479	15640.17
545.679	15681.13
545.879	15507.05
546.079	15515.24
546.28	14999.15
546.48	14816.88
546.68	15085.17
546.88	14687.86
547.08	14390.91
547.28	14468.73
547.48	13997.7
547.68	14063.23
547.88	13620.87
548.081	13833.86
548.281	13504.14
548.481	12969.62
548.681	12994.19
548.881	12961.42
549.081	12752.53
549.28	12670.61
549.48	12598.93
549.68	12293.79
549.88	12187.29
550.08	11687.59
550.28	11785.89
550.48	11691.68
550.68	11495.08
550.88	11019.95
551.08	11196.07
551.279	11069.1
551.479	10778.29
551.679	10835.63
551.879	10600.12
552.079	10387.13
552.278	10229.43
552.478	10346.17
552.678	9842.37
552.878	9985.72
553.077	9674.43
553.277	9406.15
553.477	9502.4
553.676	9191.11
553.876	9115.34
554.076	9041.61
554.275	8795.86
554.475	8593.11
554.674	8691.41
554.874	8496.85
555.074	8138.46
555.273	8177.37
555.473	7974.62
555.672	7782.11
555.872	7612.13
556.071	7870.17
556.271	7501.54
556.47	7507.68
556.67	7329.51
556.869	7081.71
557.068	6878.96
557.268	7014.12
557.467	6801.13
557.667	6874.86
557.866	6504.18
558.065	6467.31
558.265	6483.7
558.464	6213.37
558.663	6319.86
558.863	6059.77
559.062	6027
559.261	5803.77
559.461	5830.4
559.66	5668.61
559.859	5637.89
560.058	5377.8
560.258	5500.67
560.457	5304.07
560.656	5414.66
560.855	5099.27
561.054	5326.6
561.253	5021.45
561.453	5125.9
561.652	4826.89
561.851	4853.52
562.05	4732.69
562.249	4409.11
562.448	4609.81
562.647	4574.99
562.846	4296.47
563.045	4308.76
563.244	4253.46
563.443	4390.67
563.642	4194.07
563.841	4218.64
564.04	4134.68
564.239	4136.73
564.438	3966.74
564.637	3798.81
564.836	3825.43
565.035	3880.73
565.234	3729.18
565.432	3700.51
565.631	3548.96
565.83	3589.92
566.029	3462.94
566.228	3497.76
566.427	3458.85
566.625	3176.23
566.824	3346.21
567.023	3284.77
567.222	3243.81
567.42	3319.59
567.619	3237.67
567.818	3211.04
568.016	3249.96
568.215	3112.74
568.414	3098.41
568.612	2793.26
568.811	3002.15
569.01	2795.31
569.208	2817.83
569.407	2858.79
569.605	2858.79
569.804	2875.18
570.002	2725.68
570.201	2584.37
570.4	2752.3
570.598	2613.04
570.797	2496.3
570.995	2555.69
571.193	2369.33
571.392	2367.28
571.59	2232.12
571.789	2400.05
571.987	2395.95
572.186	2318.13
572.384	2207.54
572.582	2195.25
572.781	2295.6
572.979	2090.81
573.177	2084.66
573.376	2232.12
573.574	2115.38
573.772	1978.17
573.971	1906.49
574.169	1920.82
574.367	1976.12
574.565	1834.81
574.763	1963.83
574.962	1804.09
575.16	1838.91
575.358	1793.85
575.556	1746.75
575.754	1795.9
575.952	1777.47
576.151	1613.63
576.349	1707.84
576.547	1523.52
576.745	1601.34
576.943	1677.12
577.141	1589.05
577.339	1560.38
577.537	1609.53
577.735	1517.37
577.933	1550.14
578.131	1402.69
578.329	1476.41
578.527	1353.54
578.725	1517.37
578.923	1216.32
579.121	1384.26
579.319	1136.45
579.516	1277.76
579.714	1517.37
579.912	1212.23
580.11	1150.79
580.308	1242.95
580.506	1126.21
580.704	1056.58
580.901	1087.3
581.099	1300.29
581.297	1103.68
581.495	1132.36
581.692	1124.16
581.89	1228.61
582.088	927.56
582.285	1109.83
582.483	1013.57
582.681	1034.05
582.878	909.13
583.076	1085.25
583.274	1025.86
583.471	1122.12
583.669	878.41
583.866	993.09
584.064	864.07
584.262	827.21
584.459	808.78
584.657	925.51
584.854	950.09
585.052	849.74
585.249	806.73
585.447	800.59
585.644	773.96
585.841	859.98
586.039	888.65
586.236	917.32
586.434	702.28
586.631	702.28
586.828	763.72
587.026	724.81
587.223	730.95
587.42	632.65
587.618	714.57
587.815	823.11
588.012	710.47
588.21	761.67
588.407	806.73
588.604	618.32
588.801	606.03
588.999	741.19
589.196	753.48
589.393	628.56
589.59	728.91
589.787	708.43
589.984	610.12
590.182	587.6
590.379	612.17
590.576	683.85
590.773	630.6
590.97	532.3
591.167	655.18
591.364	651.08
591.561	659.28
591.758	720.71
591.955	616.27
592.152	646.99
592.349	626.51
592.546	636.75
592.743	567.12
592.94	632.65
593.137	642.89
593.334	599.88
593.531	661.32
593.727	683.85
593.924	556.88
594.121	597.84
594.318	612.17
594.515	677.71
594.712	753.48
594.908	726.86
595.105	563.02
595.302	747.34
595.499	696.14
595.696	782.15
595.892	634.7
596.089	778.06
596.286	593.74
596.482	790.35
596.679	786.25
596.876	708.43
597.072	773.96
597.269	786.25
597.466	851.78
597.662	831.3
597.859	798.54
598.055	821.06
598.252	917.32
598.448	925.51
598.645	1056.58
598.841	1027.91
599.038	1087.3
599.234	1142.6
599.431	1242.95
599.627	1167.17
599.824	1259.33
600.02	1240.9
600.217	1232.71
600.413	1333.06
600.609	1271.62
600.806	1609.53
601.002	1496.89
601.198	1435.46
601.395	1681.21
601.591	1529.66
601.787	1763.13
601.984	1773.37
602.18	1752.89
602.376	1888.06
602.572	1996.6
602.769	2115.38
602.965	2094.9
603.161	2230.07
603.357	2328.37
603.553	2451.25
603.75	2314.03
603.946	2608.94
604.142	2705.2
604.338	2846.51
604.534	2768.68
604.73	2893.61
604.926	2920.23
605.122	3280.68
605.318	3114.79
605.514	3444.51
605.71	3290.92
605.906	3628.83
606.102	3483.42
606.298	3802.91
606.494	3936.03
606.69	4032.28
606.886	4009.75
607.082	4126.49
607.278	4333.33
607.474	4450.07
607.67	4577.04
607.866	4415.25
608.062	4769.55
608.257	4835.08
608.453	5005.06
608.649	5170.95
608.845	5345.03
609.041	5375.75
609.236	5603.07
609.432	5758.72
609.628	5889.79
609.824	6004.47
610.019	6129.4
610.215	6287.09
610.411	6545.14
610.606	6967.02
610.802	6838
610.998	7061.23
611.193	7141.1
611.389	7503.59
611.584	7712.48
611.78	7732.96
611.976	7913.18
612.171	8486.61
612.367	8484.56
612.562	8726.22
612.758	8826.57
612.953	8941.26
613.149	9590.47
613.344	9463.49
613.539	9983.68
613.735	10323.64
613.93	10426.04
614.126	10532.53
614.321	11071.15
614.517	11364.01
614.712	11577
614.907	11912.86
615.103	12154.52
615.298	12226.2
615.493	12756.63
615.688	12865.17
615.884	13487.75
616.079	13545.09
616.274	14182.01
616.47	14329.47
616.665	14667.38
616.86	15472.23
617.055	15472.23
617.25	15720.04
617.445	16322.14
617.641	16662.1
617.836	17215.05
618.031	17514.06
618.226	17980.99
618.421	18564.67
618.616	18959.92
618.811	19007.03
619.006	19883.56
619.201	20104.74
619.396	20317.73
619.591	20948.5
619.786	21470.73
619.981	21691.91
620.176	22349.31
620.371	22683.13
620.566	23143.92
620.761	23653.87
620.956	24516.06
621.151	24360.42
621.346	25464.27
621.541	25611.73
621.735	26346.95
621.93	26449.35
622.125	27303.35
622.32	27053.5
622.515	28032.43
622.709	28372.39
622.904	29109.66
623.099	29599.12
623.294	30354.82
623.488	30420.36
623.683	31169.91
623.878	31262.07
624.072	32355.69
624.267	32546.15
624.462	33293.66
624.656	33680.72
624.851	33906
625.046	34524.49
625.24	35104.06
625.435	35071.29
625.629	35857.71
625.824	36672.81
626.018	36816.16
626.213	37012.77
626.407	37762.33
626.602	38106.38
626.796	38810.89
626.991	38786.31
627.185	38780.17
627.38	39048.45
627.574	39728.38
627.768	39695.61
627.963	40152.3
628.157	40105.2
628.352	40428.78
628.546	39668.98
628.74	40985.83
628.935	40281.33
629.129	40422.64
629.323	39884.02
629.517	39976.18
629.712	39914.74
629.906	39826.68
630.1	38923.52
630.294	39007.49
630.489	38491.4
630.683	38061.33
630.877	37442.84
631.071	36513.06
631.265	36324.65
631.459	35708.21
631.653	34739.52
631.848	34141.52
632.042	33320.28
632.236	32634.21
632.43	31669.62
632.624	31049.08
632.818	30043.53
633.012	29296.02
633.206	28110.25
633.4	27729.33
633.594	26494.4
633.788	25845.19
633.982	24997.34
634.176	24303.07
634.369	22816.25
634.563	22208
634.757	21343.76
634.951	21016.08
635.145	20106.79
635.339	19252.78
635.533	18359.87
635.726	17774.15
635.92	16508.51
636.114	16107.1
636.308	15556.2
636.501	15103.6
636.695	14489.21
636.889	13751.94
637.083	13135.5
637.276	12713.62
637.47	12156.57
637.664	11648.68
637.857	11185.83
638.051	10847.92
638.244	10387.13
638.438	9946.81
638.632	9764.54
638.825	9096.91
639.019	8775.38
639.212	8285.91
639.406	8154.84
639.599	7868.13
639.793	7458.53
639.986	7286.5
640.18	7229.16
640.373	6557.43
640.567	6440.69
640.76	6133.5
640.954	6065.91
641.147	5742.33
641.34	5482.24
641.534	5381.89
641.727	5050.12
641.92	5011.21
642.114	4865.8
642.307	4450.07
642.5	4378.39
642.694	4247.32
642.887	4097.81
643.08	4071.19
643.273	3864.35
643.467	3614.49
643.66	3456.8
643.853	3268.39
644.046	3403.55
644.239	3137.32
644.432	2879.27
644.626	2645.8
644.819	2828.07
645.012	2662.19
645.205	2615.09
645.398	2488.11
645.591	2352.95
645.784	2371.38
645.977	2158.39
646.17	1994.55
646.363	2084.66
646.556	1976.12
646.749	1767.23
646.942	1742.65
647.135	1701.69
647.328	1658.68
647.521	1527.61
647.714	1537.85
647.907	1582.91
648.099	1490.75
648.292	1429.31
648.485	1423.17
648.678	1253.19
648.871	1261.38
649.064	1216.32
649.256	1056.58
649.449	1042.25
649.642	1044.29
649.835	890.7
650.027	970.57
650.22	925.51
650.413	1019.72
650.605	986.95
650.798	825.16
650.991	802.63
651.183	708.43
651.376	784.2
651.568	849.74
651.761	771.91
651.954	659.28
652.146	724.81
652.339	749.39
652.531	710.47
652.724	560.97
652.916	644.94
653.109	460.62
653.301	632.65
653.494	593.74
653.686	583.5
653.879	597.84
654.071	612.17
654.263	466.77
654.456	481.1
654.648	626.51
654.84	477.01
655.033	468.81
655.225	540.49
655.417	401.23
655.61	487.25
655.802	472.91
655.994	417.61
656.186	290.64
656.379	497.49
656.571	270.16
656.763	352.08
656.955	261.97
657.148	339.79
657.34	313.17
657.532	309.07
657.724	274.26
657.916	266.07
658.108	354.13
658.3	339.79
658.492	335.7
658.684	190.29
658.876	343.89
659.068	192.34
659.26	110.42
659.452	264.02
659.644	208.72
659.836	395.09
660.028	298.83
660.22	259.92
660.412	280.4
660.604	282.45
660.796	272.21
660.988	364.37
661.18	237.39
661.372	241.49
661.563	227.15
661.755	149.33
661.947	200.53
662.139	128.85
662.331	161.62
662.522	257.87
662.714	124.76
662.906	118.61
663.097	225.11
663.289	48.98
663.481	48.98
663.673	165.71
663.864	206.67
664.056	200.53
664.247	173.91
664.439	243.54
664.631	124.76
664.822	198.48
665.014	81.75
665.205	126.8
665.397	94.04
665.588	180.05
665.78	106.32
665.971	163.67
666.163	159.57
666.354	182.1
666.546	40.79
666.737	137.04
666.929	77.65
667.12	85.84
667.311	98.13
667.503	94.04
667.694	132.95
667.885	208.72
668.077	216.91
668.268	28.5
668.459	91.99
668.651	165.71
668.842	225.11
669.033	89.94
669.224	91.99
669.416	313.17
669.607	89.94
669.798	32.6
669.989	274.26
670.18	79.7
670.371	235.35
670.563	85.84
670.754	145.24
670.945	83.8
671.136	194.39
671.327	32.6
671.518	206.67
671.709	294.74
671.9	192.34
672.091	188.24
672.282	94.04
672.473	112.47
672.664	38.74
672.855	51.03
673.046	157.52
673.237	139.09
673.428	96.08
673.619	147.28
673.809	112.47
674	216.91
674.191	153.43
674.382	149.33
674.573	89.94
674.764	180.05
674.954	175.95
675.145	63.32
675.336	161.62
675.527	81.75
675.717	61.27
675.908	51.03
676.099	89.94
676.289	175.95
676.48	-6.31
676.671	143.19
676.861	57.17
677.052	130.9
677.243	81.75
677.433	171.86
677.624	204.63
677.814	135
678.005	128.85
678.195	206.67
678.386	75.6
678.576	151.38
678.767	51.03
678.957	130.9
679.148	206.67
679.338	270.16
679.529	149.33
679.719	106.32
679.909	196.43
680.1	264.02
680.29	198.48
680.481	20.31
680.671	270.16
680.861	137.04
681.052	221.01
681.242	100.18
681.432	188.24
681.622	212.82
681.813	171.86
682.003	147.28
682.193	106.32
682.383	135
682.573	59.22
682.764	151.38
682.954	167.76
683.144	280.4
683.334	204.63
683.524	100.18
683.714	180.05
683.904	169.81
684.094	188.24
684.284	163.67
684.474	298.83
684.664	196.43
684.854	231.25
685.044	192.34
685.234	130.9
685.424	192.34
685.614	233.3
685.804	311.12
685.994	163.67
686.184	212.82
686.374	241.49
686.564	225.11
686.753	190.29
686.943	153.43
687.133	157.52
687.323	180.05
687.513	200.53
687.702	182.1
687.892	161.62
688.082	208.72
688.272	327.5
688.461	259.92
688.651	356.18
688.841	182.1
689.03	214.87
689.22	137.04
689.41	218.96
689.599	311.12
689.789	124.76
689.979	253.78
690.168	153.43
690.358	266.07
690.547	210.77
690.737	229.2
690.926	227.15
691.116	178
691.305	235.35
691.495	208.72
691.684	153.43
691.874	118.61
692.063	194.39
692.252	327.5
692.442	253.78
692.631	157.52
692.82	116.56
693.01	149.33
693.199	184.15
693.388	147.28
693.578	184.15
693.767	235.35
693.956	212.82
694.146	102.23
694.335	235.35
694.524	116.56
694.713	218.96
694.902	91.99
695.092	108.37
695.281	261.97
695.47	204.63
695.659	214.87
695.848	194.39
696.037	135
696.226	190.29
696.415	184.15
696.604	223.06
696.793	276.31
696.982	223.06
697.171	288.59
697.36	135
697.549	141.14
697.738	46.93
697.927	120.66
698.116	77.65
698.305	132.95
698.494	110.42
698.683	141.14
698.872	370.51
699.061	206.67
699.25	137.04
699.438	198.48
699.627	128.85
699.816	247.63
700.005	100.18
700.193	59.22
700.382	196.43
700.571	161.62
700.76	227.15
700.948	212.82
701.137	194.39
701.326	239.44
701.514	149.33
701.703	208.72
701.892	245.59
702.08	294.74
702.269	178
702.457	81.75
702.646	229.2
702.834	116.56
703.023	245.59
703.212	157.52
703.4	171.86
703.589	108.37
703.777	149.33
703.965	104.28
704.154	102.23
704.342	36.69
704.531	173.91
704.719	186.19
704.907	225.11
705.096	75.6
705.284	130.9
705.472	112.47
705.661	180.05
705.849	155.47
706.037	247.63
706.226	227.15
706.414	239.44
706.602	40.79
706.79	223.06
706.979	48.98
707.167	184.15
707.355	124.76
707.543	235.35
707.731	184.15
707.919	128.85
708.107	132.95
708.296	141.14
708.484	77.65
708.672	190.29
708.86	184.15
709.048	233.3
709.236	71.51
709.424	212.82
709.612	151.38
709.8	87.89
709.988	200.53
710.176	264.02
710.364	214.87
710.551	202.58
710.739	114.52
710.927	91.99
711.115	153.43
711.303	212.82
711.491	272.21
711.679	141.14
711.866	274.26
712.054	81.75
712.242	122.71
712.43	231.25
712.617	135
712.805	210.77
712.993	149.33
713.181	69.46
713.368	180.05
713.556	196.43
713.744	137.04
713.931	280.4
714.119	218.96
714.306	155.47
714.494	120.66
714.682	212.82
714.869	116.56
715.057	147.28
715.244	114.52
715.432	286.54
715.619	59.22
715.807	118.61
715.994	225.11
716.182	225.11
716.369	292.69
716.556	274.26
716.744	124.76
716.931	67.41
717.119	315.22
717.306	286.54
717.493	266.07
717.681	157.52
717.868	155.47
718.055	214.87
718.242	255.83
718.43	241.49
718.617	286.54
718.804	239.44
718.991	229.2
719.179	210.77
719.366	274.26
719.553	173.91
719.74	268.11
719.927	130.9
720.114	247.63
720.301	178
720.488	132.95
720.676	180.05
720.863	218.96
721.05	319.31
721.237	147.28
721.424	343.89
721.611	223.06
721.798	114.52
721.985	132.95
722.172	202.58
722.358	165.71
722.545	315.22
722.732	221.01
722.919	284.5
723.106	268.11
723.293	239.44
723.48	214.87
723.667	124.76
723.853	249.68
724.04	216.91
724.227	341.84
724.414	175.95
724.6	233.3
724.787	270.16
724.974	347.98
725.161	259.92
725.347	114.52
725.534	274.26
725.72	251.73
725.907	253.78
726.094	235.35
726.28	171.86
726.467	284.5
726.653	155.47
726.84	300.88
727.027	438.09
727.213	243.54
727.4	264.02
727.586	266.07
727.773	272.21
727.959	253.78
728.145	261.97
728.332	196.43
728.518	155.47
728.705	296.78
728.891	243.54
729.077	251.73
729.264	231.25
729.45	274.26
729.636	405.33
729.823	237.39
730.009	274.26
730.195	360.27
730.382	343.89
730.568	286.54
730.754	272.21
730.94	257.87
731.126	259.92
731.313	259.92
731.499	241.49
731.685	302.93
731.871	331.6
732.057	345.94
732.243	294.74
732.429	274.26
732.615	272.21
732.801	323.41
732.987	272.21
733.173	208.72
733.359	212.82
733.545	253.78
733.731	233.3
733.917	388.94
734.103	300.88
734.289	343.89
734.475	241.49
734.661	388.94
734.847	294.74
735.033	282.45
735.219	284.5
735.404	319.31
735.59	274.26
735.776	302.93
735.962	278.35
736.148	350.03
736.333	407.38
736.519	329.55
736.705	350.03
736.89	313.17
737.076	284.5
737.262	261.97
737.447	276.31
737.633	266.07
737.819	347.98
738.004	296.78
738.19	300.88
738.375	350.03
738.561	393.04
738.747	319.31
738.932	278.35
739.118	442.19
739.303	354.13
739.489	268.11
739.674	288.59
739.859	229.2
740.045	323.41
740.23	364.37
740.416	180.05
740.601	311.12
740.786	300.88
740.972	268.11
741.157	327.5
741.342	151.38
741.528	204.63
741.713	302.93
741.898	276.31
742.084	393.04
742.269	356.18
742.454	317.26
742.639	388.94
742.824	345.94
743.01	339.79
743.195	466.77
743.38	378.7
743.565	259.92
743.75	327.5
743.935	364.37
744.12	407.38
744.305	192.34
744.49	249.68
744.675	386.9
744.86	247.63
745.045	390.99
745.23	311.12
745.415	309.07
745.6	446.29
745.785	335.7
745.97	374.61
746.155	354.13
746.34	354.13
746.525	343.89
746.71	333.65
746.895	237.39
747.079	227.15
747.264	364.37
747.449	409.42
747.634	327.5
747.819	374.61
748.003	354.13
748.188	218.96
748.373	327.5
748.557	323.41
748.742	249.68
748.927	272.21
749.111	239.44
749.296	259.92
749.481	311.12
749.665	212.82
749.85	356.18
750.034	286.54
750.219	239.44
750.404	206.67
750.588	202.58
750.773	202.58
750.957	335.7
751.141	300.88
751.326	235.35
751.51	153.43
751.695	298.83
751.879	253.78
752.064	356.18
752.248	300.88
752.432	380.75
752.617	311.12
752.801	249.68
752.985	196.43
753.17	274.26
753.354	249.68
753.538	255.83
753.722	130.9
753.907	243.54
754.091	100.18
754.275	278.35
754.459	155.47
754.643	196.43
754.828	171.86
755.012	259.92
755.196	188.24
755.38	245.59
755.564	167.76
755.748	196.43
755.932	274.26
756.116	251.73
756.3	227.15
756.484	208.72
756.668	251.73
756.852	100.18
757.036	169.81
757.22	245.59
757.404	155.47
757.588	141.14
757.772	196.43
757.956	132.95
758.14	327.5
758.323	159.57
758.507	251.73
758.691	200.53
758.875	300.88
759.059	352.08
759.242	241.49
759.426	145.24
759.61	141.14
759.794	161.62
759.977	182.1
760.161	368.46
760.345	229.2
760.528	296.78
760.712	200.53
760.895	339.79
761.079	155.47
761.263	116.56
761.446	153.43
761.63	153.43
761.813	237.39
761.997	79.7
762.18	180.05
762.364	227.15
762.547	89.94
762.731	204.63
762.914	85.84
763.098	178
763.281	100.18
763.464	96.08
763.648	157.52
763.831	147.28
764.015	36.69
764.198	227.15
764.381	135
764.564	188.24
764.748	159.57
764.931	175.95
765.114	91.99
765.297	180.05
765.481	116.56
765.664	155.47
765.847	171.86
766.03	327.5
766.213	75.6
766.397	91.99
766.58	77.65
766.763	190.29
766.946	132.95
767.129	98.13
767.312	89.94
767.495	98.13
767.678	-12.46
767.861	175.95
768.044	194.39
768.227	167.76
768.41	135
768.593	83.8
768.776	200.53
768.959	65.36
769.142	206.67
769.324	91.99
769.507	149.33
769.69	149.33
769.873	106.32
770.056	325.46
770.239	114.52
770.421	173.91
770.604	137.04
770.787	53.08
770.97	100.18
771.152	8.02
771.335	137.04
771.518	51.03
771.7	202.58
771.883	194.39
772.066	44.88
772.248	112.47
772.431	165.71
772.613	91.99
772.796	204.63
772.978	180.05
773.161	206.67
773.343	-8.36
773.526	16.21
773.708	24.4
773.891	61.27
774.073	190.29
774.256	85.84
774.438	233.3
774.621	16.21
774.803	143.19
774.985	32.6
775.168	83.8
775.35	26.45
775.532	147.28
775.715	100.18
775.897	198.48
776.079	151.38
776.261	128.85
776.444	63.32
776.626	122.71
776.808	38.74
776.99	36.69
777.173	118.61
777.355	151.38
777.537	143.19
777.719	28.5
777.901	77.65
778.083	-47.27
778.265	-8.36
778.447	120.66
778.629	22.36
778.811	77.65
778.993	83.8
779.175	184.15
779.357	145.24
779.539	-30.89
779.721	77.65
779.903	104.28
780.085	96.08
780.267	102.23
780.449	5.97
780.631	120.66
780.812	235.35
780.994	44.88
781.176	94.04
781.358	-96.43
781.54	57.17
781.721	69.46
781.903	147.28
782.085	46.93
782.267	141.14
782.448	-43.18
782.63	36.69
782.812	104.28
782.993	108.37
783.175	135
783.357	42.84
783.538	151.38
783.72	44.88
783.901	153.43
784.083	120.66
784.264	44.88
784.446	16.21
784.627	-32.94
784.809	120.66
784.99	65.36
785.172	104.28
785.353	-8.36
785.535	153.43
785.716	-8.36
785.897	22.36
786.079	65.36
786.26	61.27
786.441	135
786.623	-6.31
786.804	40.79
786.985	-12.46
787.167	40.79
787.348	-43.18
787.529	14.17
787.71	182.1
787.891	57.17
788.073	18.26
788.254	-34.99
788.435	137.04
788.616	63.32
788.797	-41.13
788.978	10.07
789.159	91.99
789.34	120.66
789.522	89.94
789.703	-71.85
789.884	38.74
790.065	-0.17
790.246	229.2
790.427	30.55
790.607	190.29
790.788	98.13
790.969	28.5
791.15	165.71
791.331	32.6
791.512	42.84
791.693	-37.03
791.874	-14.51
792.054	182.1
792.235	94.04
792.416	-8.36
792.597	61.27
792.778	108.37
792.958	81.75
793.139	100.18
793.32	14.17
793.5	-84.14
793.681	61.27
793.862	69.46
794.042	30.55
794.223	46.93
794.404	8.02
794.584	10.07
794.765	34.64
794.945	38.74
795.126	1.88
795.306	118.61
795.487	-6.31
795.667	44.88
795.848	75.6
796.028	42.84
796.209	30.55
796.389	130.9
796.57	40.79
796.75	-20.65
796.93	61.27
797.111	20.31
797.291	8.02
797.471	114.52
797.652	-12.46
797.832	-43.18
798.012	85.84
798.192	51.03
798.373	-47.27
798.553	16.21
798.733	63.32
798.913	12.12
799.093	20.31
799.274	128.85
799.454	153.43
799.634	69.46
799.814	51.03
799.994	36.69
800.174	79.7
800.354	-0.17
800.534	-57.51
800.714	26.45
800.894	-53.42
801.074	-61.61
801.254	-67.75
801.434	102.23
801.614	34.64
801.794	-16.55
801.974	1922.87
802.154	-20.65
802.334	46.93
802.514	-86.19
802.693	-6.31
802.873	3.93
803.053	106.32
803.233	44.88
803.413	59.22
803.592	-24.75
803.772	-84.14
803.952	-39.08
804.131	-28.84
804.311	77.65
804.491	61.27
804.67	-90.28
804.85	8.02
805.03	94.04
805.209	-2.22
805.389	14.17
805.568	-51.37
805.748	-16.55
805.928	20.31
806.107	79.7
806.287	116.56
806.466	48.98
806.646	-47.27
806.825	-20.65
807.004	-14.51
807.184	8.02
807.363	67.41
807.543	-10.41
807.722	-84.14
807.901	63.32
808.081	32.6
808.26	-63.66
808.439	-4.27
808.619	-26.79
808.798	-43.18
808.977	32.6
809.156	118.61
809.336	65.36
809.515	81.75
809.694	-151.72
809.873	-41.13
810.052	55.12
810.231	122.71
810.411	75.6
810.59	118.61
810.769	-49.32
810.948	157.52
811.127	-135.34
811.306	-63.66
811.485	3.93
811.664	208.72
811.843	51.03
812.022	24.4
812.201	36.69
812.38	-4.27
812.559	-2.22
812.737	32.6
812.916	-118.95
813.095	-18.6
813.274	18.26
813.453	1.88
813.632	55.12
813.811	114.52
813.989	-77.99
814.168	81.75
814.347	-37.03
814.526	-22.7
814.704	96.08
814.883	167.76
815.062	-24.75
815.24	38.74
815.419	-43.18
815.598	61.27
815.776	-84.14
815.955	8.02
816.133	-94.38
816.312	83.8
816.49	-16.55
816.669	40.79
816.847	-24.75
817.026	18.26
817.204	18.26
817.383	51.03
817.561	-32.94
817.74	36.69
817.918	59.22
818.097	-10.41
818.275	22.36
818.453	85.84
818.632	77.65
818.81	16.21
818.988	14.17
819.167	12.12
819.345	16.21
819.523	-92.33
819.701	16.21
819.879	14.17
820.058	89.94
820.236	1.88
820.414	-2.22
820.592	34.64
820.77	-45.23
820.948	-39.08
821.127	67.41
821.305	36.69
821.483	-55.47
821.661	57.17
821.839	-37.03
822.017	-110.76
822.195	-8.36
822.373	71.51
822.551	8.02
822.729	48.98
822.907	-20.65
823.085	122.71
823.262	-26.79
823.44	-98.47
823.618	-67.75
823.796	-26.79
823.974	-55.47
824.152	-45.23
824.329	-77.99
824.507	51.03
824.685	81.75
824.863	26.45
825.04	40.79
825.218	20.31
825.396	26.45
825.574	10.07
825.751	51.03
825.929	32.6
826.107	-135.34
826.284	-10.41
826.462	67.41
826.639	-98.47
826.817	-57.51
826.994	1.88
827.172	-61.61
827.349	85.84
827.527	59.22
827.704	28.5
827.882	26.45
828.059	-20.65
828.237	-30.89
828.414	118.61
828.591	-116.9
828.769	18.26
828.946	-57.51
829.124	55.12
829.301	12.12
829.478	32.6
829.655	98.13
829.833	87.89
830.01	-53.42
830.187	61.27
830.364	32.6
830.542	67.41
830.719	171.86
830.896	108.37
831.073	44.88
831.25	10.07
831.427	3.93
831.604	20.31
831.782	-10.41
831.959	-16.55
832.136	-43.18
832.313	46.93
832.49	-28.84
832.667	51.03
832.844	-92.33
833.021	118.61
833.198	53.08
833.374	3.93
833.551	24.4
833.728	-32.94
833.905	87.89
834.082	-8.36
834.259	67.41
834.436	178
834.612	-67.75
834.789	61.27
834.966	-8.36
835.143	51.03
835.319	-86.19
835.496	67.41
835.673	67.41
835.85	141.14
836.026	-63.66
836.203	102.23
836.38	-49.32
836.556	20.31
836.733	-34.99
836.909	147.28
837.086	32.6
837.262	-63.66
837.439	-34.99
837.616	-80.04
837.792	-30.89
837.968	57.17
838.145	-135.34
838.321	-16.55
838.498	-30.89
838.674	63.32
838.851	98.13
839.027	51.03
839.203	22.36
839.38	28.5
839.556	-28.84
839.732	85.84
839.909	-6.31
840.085	8.02
840.261	-34.99
840.437	-6.31
840.614	-57.51
840.79	118.61
840.966	24.4
841.142	26.45
841.318	-10.41
841.494	83.8
841.671	73.56
841.847	-59.56
842.023	-16.55
842.199	-2.22
842.375	139.09
842.551	-75.95
842.727	-102.57
842.903	83.8
843.079	-37.03
843.255	108.37
843.431	26.45
843.607	12.12
843.783	-131.24
843.959	-8.36
844.134	5.97
844.31	51.03
844.486	-39.08
844.662	-34.99
844.838	16.21
845.013	81.75
845.189	18.26
845.365	20.31
845.541	-6.31
845.716	38.74
845.892	114.52
846.068	-32.94
846.244	-2.22
846.419	-20.65
846.595	-57.51
846.77	-57.51
846.946	118.61
847.122	-45.23
847.297	-106.67
847.473	159.57
847.648	-37.03
847.824	-47.27
847.999	-166.06
848.175	-14.51
848.35	85.84
848.526	18.26
848.701	16.21
848.876	128.85
849.052	73.56
849.227	-63.66
849.403	-14.51
849.578	14.17
849.753	20.31
849.929	18.26
850.104	-90.28
850.279	34.64
850.454	28.5
850.63	26.45
850.805	-55.47
850.98	10.07
851.155	5.97
851.33	-24.75
851.505	-118.95
851.681	42.84
851.856	-92.33
852.031	-2.22
852.206	16.21
852.381	-4.27
852.556	-18.6
852.731	85.84
852.906	16.21
853.081	28.5
853.256	147.28
853.431	-24.75
853.606	14.17
853.781	-4.27
853.956	-104.62
854.131	63.32
854.305	-104.62
854.48	-16.55
854.655	-147.62
854.83	-55.47
855.005	-55.47
855.18	77.65
855.354	44.88
855.529	112.47
855.704	-49.32
855.879	85.84
856.053	-90.28
856.228	24.4
856.403	-41.13
856.577	1.88
856.752	-45.23
856.926	-41.13
857.101	61.27
857.276	-116.9
857.45	1.88
857.625	89.94
857.799	34.64
857.974	-32.94
858.148	-112.81
858.323	-59.56
858.497	-32.94
858.672	-159.91
858.846	-12.46
859.02	83.8
859.195	-61.61
859.369	-26.79
859.543	22.36
859.718	-10.41
859.892	-12.46
860.066	-41.13
860.241	-24.75
860.415	-71.85
860.589	-12.46
860.763	36.69
860.938	22.36
861.112	-6.31
861.286	-16.55
861.46	73.56
861.634	28.5
861.808	96.08
861.982	-24.75
862.157	-63.66
862.331	-73.9
862.505	-135.34
862.679	-37.03
862.853	1.88
863.027	-20.65
863.201	145.24
863.375	-55.47
863.549	30.55
863.722	-73.9
863.896	61.27
864.07	-161.96
864.244	79.7
864.418	-34.99
864.592	42.84
864.766	-34.99
864.939	69.46
865.113	-73.9
865.287	89.94
865.461	-59.56
865.634	-16.55
865.808	-55.47
865.982	-4.27
866.156	-129.19
866.329	-104.62
866.503	77.65
866.676	14.17
866.85	-57.51
867.024	-55.47
867.197	65.36
867.371	18.26
867.544	20.31
867.718	-131.24
867.891	69.46
868.065	-37.03
868.238	-0.17
868.412	87.89
868.585	-39.08
868.759	-47.27
868.932	-69.8
869.105	-90.28
869.279	-30.89
869.452	-28.84
869.625	1.88
869.799	-71.85
869.972	-18.6
870.145	-51.37
870.319	53.08
870.492	-26.79
870.665	-41.13
870.838	-14.51
871.011	-55.47
871.185	-41.13
871.358	10.07
871.531	116.56
871.704	-88.23
871.877	-12.46
872.05	-12.46
872.223	-37.03
872.396	71.51
872.569	57.17
872.742	-69.8
872.915	22.36
873.088	24.4
873.261	-65.71
873.434	-0.17
873.607	-37.03
873.78	77.65
873.953	-75.95
874.126	5.97
874.299	46.93
874.471	-32.94
874.644	-20.65
874.817	59.22
874.99	108.37
875.163	-16.55
875.335	26.45
875.508	32.6
875.681	89.94
875.853	-22.7
876.026	-51.37
876.199	1.88
876.371	48.98
876.544	-26.79
876.717	-92.33
876.889	-41.13
877.062	-2.22
877.234	-14.51
877.407	-32.94
877.579	-82.09
877.752	24.4
877.924	55.12
878.097	-8.36
878.269	40.79
878.442	-0.17
878.614	46.93
878.786	-67.75
878.959	22.36
879.131	-6.31
879.303	-45.23
879.476	-24.75
879.648	40.79
879.82	46.93
879.993	-63.66
880.165	18.26
880.337	-77.99
880.509	-32.94
880.681	-98.47
880.854	-47.27
881.026	24.4
881.198	102.23
881.37	-24.75
881.542	-34.99
881.714	-73.9
881.886	-63.66
882.058	22.36
882.23	1.88
882.402	-6.31
882.574	55.12
882.746	59.22
882.918	65.36
883.09	71.51
883.262	-90.28
883.434	34.64
883.606	-98.47
883.778	-18.6
883.95	104.28
884.122	-39.08
884.293	10.07
884.465	-61.61
884.637	55.12
884.809	1.88
884.98	73.56
885.152	32.6
885.324	12.12
885.496	-10.41
885.667	-51.37
885.839	-4.27
886.011	120.66
886.182	63.32
886.354	116.56
886.525	-8.36
886.697	-59.56
886.869	-71.85
887.04	-55.47
887.212	102.23
887.383	167.76
887.555	69.46
887.726	-16.55
887.897	-67.75
888.069	-30.89
888.24	22.36
888.412	53.08
888.583	-20.65
888.754	-41.13
888.926	-88.23
889.097	-14.51
889.268	-100.52
889.44	106.32
889.611	-61.61
889.782	-69.8
889.953	-86.19
890.125	89.94
890.296	8.02
890.467	-30.89
890.638	-104.62
890.809	-16.55
890.98	-77.99
891.151	-10.41
891.323	149.33
891.494	40.79
891.665	22.36
891.836	32.6
892.007	-10.41
892.178	137.04
892.349	-28.84
892.52	-94.38
892.691	-8.36
892.862	-65.71
893.032	-147.62
893.203	-75.95
893.374	28.5
893.545	32.6
893.716	-82.09
893.887	42.84
894.057	-84.14
894.228	-14.51
894.399	-90.28
894.57	85.84
894.74	32.6
894.911	65.36
895.082	-24.75
895.253	-55.47
895.423	26.45
895.594	67.41
895.764	-51.37
895.935	-49.32
896.106	63.32
896.276	-106.67
896.447	53.08
896.617	-84.14
896.788	-102.57
896.958	-80.04
897.129	-8.36
897.299	-49.32
897.47	71.51
897.64	28.5
897.81	34.64
897.981	44.88
898.151	14.17
898.322	12.12
898.492	-4.27
898.662	-45.23
898.832	-32.94
899.003	-71.85
899.173	30.55
899.343	-30.89
899.513	-67.75
