Data from USB4F104151__48__09-28-06-504.txt Node

Date: Wed Feb 26 09:28:06 EST 2025
User: louis
Spectrometer: USB4F10415
Trigger mode: 4
Integration Time (sec): 1.000000E-1
Scans to average: 1
Electric dark correction enabled: true
Nonlinearity correction enabled: false
Boxcar width: 0
XAxis mode: Wavelengths
Number of Pixels in Spectrum: 3648
>>>>>Begin Spectral Data<<<<<
178.204	-363.86
178.424	-363.86
178.644	-363.86
178.864	-326.99
179.084	-253.27
179.304	-36.18
179.524	43.69
179.744	-23.89
179.964	74.41
180.184	-17.75
180.404	2.73
180.624	8.87
180.844	6.83
181.064	-56.66
181.283	-13.65
181.503	15.02
181.723	-3.41
181.943	-109.91
182.163	148.14
182.383	-11.61
182.602	76.46
182.822	123.56
183.042	51.88
183.262	33.45
183.482	0.68
183.701	-15.7
183.921	19.11
184.141	-32.08
184.361	109.22
184.58	41.64
184.8	45.74
185.02	-13.65
185.239	76.46
185.459	125.61
185.679	78.51
185.898	-27.99
186.118	47.79
186.338	6.83
186.557	19.11
186.777	-25.94
186.997	-15.7
187.216	12.97
187.436	105.13
187.655	86.7
187.875	154.28
188.095	-42.32
188.314	72.36
188.534	66.22
188.753	-91.48
188.973	131.75
189.192	117.42
189.412	23.21
189.631	6.83
189.851	105.13
190.07	101.03
190.29	-23.89
190.509	-40.28
190.729	33.45
190.948	72.36
191.168	215.72
191.387	60.07
191.607	19.11
191.826	-1.37
192.045	23.21
192.265	-30.04
192.484	-15.7
192.704	47.79
192.923	-122.2
193.142	156.33
193.362	12.97
193.581	182.95
193.8	23.21
194.02	146.09
194.239	117.42
194.458	27.31
194.678	105.13
194.897	-1.37
195.116	12.97
195.335	117.42
195.555	-38.23
195.774	-17.75
195.993	27.31
196.212	-32.08
196.432	-66.9
196.651	-62.8
196.87	-13.65
197.089	88.75
197.308	43.69
197.528	78.51
197.747	-34.13
197.966	31.4
198.185	205.48
198.404	-7.51
198.623	129.7
198.842	92.84
199.062	68.27
199.281	111.27
199.5	53.93
199.719	53.93
199.938	70.31
200.157	53.93
200.376	25.26
200.595	47.79
200.814	68.27
201.033	-30.04
201.252	88.75
201.471	19.11
201.69	119.46
201.909	41.64
202.128	113.32
202.347	-1.37
202.566	68.27
202.785	-38.23
203.004	-95.57
203.223	199.34
203.442	90.79
203.661	-52.56
203.879	62.12
204.098	88.75
204.317	-46.42
204.536	123.56
204.755	31.4
204.974	111.27
205.193	12.97
205.411	119.46
205.63	123.56
205.849	27.31
206.068	-3.41
206.287	-122.2
206.505	92.84
206.724	70.31
206.943	-60.76
207.162	-17.75
207.381	41.64
207.599	41.64
207.818	19.11
208.037	37.55
208.255	6.83
208.474	41.64
208.693	6.83
208.911	23.21
209.13	92.84
209.349	-15.7
209.567	39.59
209.786	123.56
210.005	84.65
210.223	37.55
210.442	-111.96
210.661	111.27
210.879	25.26
211.098	43.69
211.316	101.03
211.535	39.59
211.753	4.78
211.972	78.51
212.191	15.02
212.409	23.21
212.628	64.17
212.846	6.83
213.065	2.73
213.283	39.59
213.502	10.92
213.72	31.4
213.938	90.79
214.157	49.83
214.375	29.35
214.594	-21.85
214.812	70.31
215.031	2.73
215.249	41.64
215.467	-13.65
215.686	58.03
215.904	94.89
216.122	76.46
216.341	-7.51
216.559	55.98
216.778	80.55
216.996	150.18
217.214	-13.65
217.432	23.21
217.651	4.78
217.869	-17.75
218.087	19.11
218.306	-21.85
218.524	10.92
218.742	10.92
218.96	15.02
219.179	23.21
219.397	-62.8
219.615	121.51
219.833	127.66
220.051	27.31
220.27	90.79
220.488	88.75
220.706	43.69
220.924	76.46
221.142	-23.89
221.36	86.7
221.578	103.08
221.796	84.65
222.015	60.07
222.233	27.31
222.451	166.57
222.669	10.92
222.887	162.47
223.105	23.21
223.323	53.93
223.541	2.73
223.759	4.78
223.977	-7.51
224.195	129.7
224.413	105.13
224.631	86.7
224.849	53.93
225.067	131.75
225.285	25.26
225.503	-44.37
225.721	-73.04
225.939	55.98
226.157	103.08
226.375	164.52
226.592	-7.51
226.81	-44.37
227.028	113.32
227.246	82.6
227.464	51.88
227.682	31.4
227.9	105.13
228.117	62.12
228.335	15.02
228.553	35.5
228.771	68.27
228.989	39.59
229.206	76.46
229.424	4.78
229.642	-23.89
229.86	-30.04
230.077	51.88
230.295	109.22
230.513	29.35
230.731	60.07
230.948	51.88
231.166	148.14
231.384	10.92
231.601	-19.8
231.819	84.65
232.037	-50.52
232.254	2.73
232.472	-5.46
232.689	39.59
232.907	109.22
233.125	76.46
233.342	-11.61
233.56	35.5
233.777	-25.94
233.995	27.31
234.213	2.73
234.43	21.16
234.648	4.78
234.865	-15.7
235.083	115.37
235.3	25.26
235.518	8.87
235.735	74.41
235.953	117.42
236.17	37.55
236.388	64.17
236.605	35.5
236.822	15.02
237.04	47.79
237.257	15.02
237.475	68.27
237.692	68.27
237.909	111.27
238.127	2.73
238.344	74.41
238.562	41.64
238.779	27.31
238.996	-23.89
239.214	47.79
239.431	137.9
239.648	10.92
239.865	68.27
240.083	152.23
240.3	-9.56
240.517	-17.75
240.735	49.83
240.952	109.22
241.169	8.87
241.386	43.69
241.603	-30.04
241.821	-48.47
242.038	80.55
242.255	101.03
242.472	-128.34
242.689	62.12
242.907	15.02
243.124	-7.51
243.341	4.78
243.558	-46.42
243.775	-38.23
243.992	-126.29
244.209	33.45
244.426	164.52
244.643	49.83
244.86	-23.89
245.078	53.93
245.295	23.21
245.512	51.88
245.729	0.68
245.946	31.4
246.163	19.11
246.38	31.4
246.597	90.79
246.814	33.45
247.031	6.83
247.248	-13.65
247.464	55.98
247.681	31.4
247.898	158.38
248.115	27.31
248.332	35.5
248.549	80.55
248.766	103.08
248.983	78.51
249.2	33.45
249.417	96.94
249.633	6.83
249.85	37.55
250.067	12.97
250.284	62.12
250.501	19.11
250.717	21.16
250.934	-85.33
251.151	-15.7
251.368	53.93
251.585	43.69
251.801	45.74
252.018	-34.13
252.235	105.13
252.451	-64.85
252.668	-1.37
252.885	98.99
253.102	6.83
253.318	19.11
253.535	74.41
253.752	-54.61
253.968	-23.89
254.185	-54.61
254.401	43.69
254.618	68.27
254.835	-66.9
255.051	82.6
255.268	25.26
255.484	76.46
255.701	-38.23
255.917	82.6
256.134	15.02
256.351	-105.81
256.567	-62.8
256.784	10.92
257	-42.32
257.217	43.69
257.433	115.37
257.65	-3.41
257.866	139.94
258.082	-62.8
258.299	-9.56
258.515	31.4
258.732	45.74
258.948	-68.95
259.165	4.78
259.381	25.26
259.597	68.27
259.814	19.11
260.03	35.5
260.246	37.55
260.463	101.03
260.679	92.84
260.895	33.45
261.112	33.45
261.328	-11.61
261.544	-27.99
261.761	127.66
261.977	-7.51
262.193	-54.61
262.409	62.12
262.626	62.12
262.842	-3.41
263.058	-11.61
263.274	82.6
263.49	84.65
263.707	76.46
263.923	60.07
264.139	-77.14
264.355	37.55
264.571	12.97
264.787	76.46
265.004	39.59
265.22	2.73
265.436	-21.85
265.652	17.07
265.868	35.5
266.084	-58.71
266.3	33.45
266.516	-103.76
266.732	15.02
266.948	15.02
267.164	-40.28
267.38	66.22
267.596	19.11
267.812	137.9
268.028	-46.42
268.244	-40.28
268.46	-19.8
268.676	-7.51
268.892	47.79
269.108	-23.89
269.324	-44.37
269.54	-99.67
269.756	158.38
269.972	-58.71
270.188	31.4
270.403	-32.08
270.619	47.79
270.835	109.22
271.051	39.59
271.267	-95.57
271.483	2.73
271.698	72.36
271.914	123.56
272.13	60.07
272.346	90.79
272.562	139.94
272.777	74.41
272.993	-1.37
273.209	6.83
273.425	121.51
273.64	2.73
273.856	41.64
274.072	-13.65
274.287	-9.56
274.503	96.94
274.719	39.59
274.934	-42.32
275.15	-21.85
275.366	41.64
275.581	-23.89
275.797	10.92
276.012	58.03
276.228	6.83
276.444	2.73
276.659	58.03
276.875	-111.96
277.09	25.26
277.306	2.73
277.521	25.26
277.737	-13.65
277.952	64.17
278.168	15.02
278.383	64.17
278.599	82.6
278.814	129.7
279.03	31.4
279.245	109.22
279.461	10.92
279.676	121.51
279.892	31.4
280.107	-25.94
280.322	-15.7
280.538	86.7
280.753	-13.65
280.969	80.55
281.184	10.92
281.399	96.94
281.615	12.97
281.83	55.98
282.045	-68.95
282.26	27.31
282.476	43.69
282.691	64.17
282.906	-1.37
283.122	49.83
283.337	29.35
283.552	58.03
283.767	-42.32
283.983	49.83
284.198	-11.61
284.413	15.02
284.628	-30.04
284.843	103.08
285.058	68.27
285.274	-32.08
285.489	-50.52
285.704	117.42
285.919	-34.13
286.134	76.46
286.349	21.16
286.564	-5.46
286.779	133.8
286.995	41.64
287.21	-81.24
287.425	25.26
287.64	6.83
287.855	21.16
288.07	-34.13
288.285	27.31
288.5	135.85
288.715	64.17
288.93	41.64
289.145	-21.85
289.36	74.41
289.575	6.83
289.79	58.03
290.004	49.83
290.219	101.03
290.434	-27.99
290.649	35.5
290.864	-30.04
291.079	-75.09
291.294	15.02
291.509	-13.65
291.724	-77.14
291.938	17.07
292.153	23.21
292.368	27.31
292.583	6.83
292.798	25.26
293.012	105.13
293.227	41.64
293.442	-34.13
293.657	92.84
293.871	160.42
294.086	90.79
294.301	166.57
294.516	60.07
294.73	76.46
294.945	19.11
295.16	-25.94
295.374	111.27
295.589	90.79
295.804	-32.08
296.018	78.51
296.233	125.61
296.447	-5.46
296.662	-30.04
296.877	88.75
297.091	47.79
297.306	-30.04
297.52	68.27
297.735	47.79
297.949	60.07
298.164	47.79
298.378	66.22
298.593	-15.7
298.807	10.92
299.022	-13.65
299.236	90.79
299.451	-1.37
299.665	27.31
299.88	-1.37
300.094	25.26
300.309	60.07
300.523	53.93
300.737	43.69
300.952	64.17
301.166	-23.89
301.381	-25.94
301.595	15.02
301.809	10.92
302.024	-7.51
302.238	19.11
302.452	41.64
302.667	-46.42
302.881	51.88
303.095	60.07
303.309	27.31
303.524	-52.56
303.738	-11.61
303.952	-32.08
304.166	15.02
304.381	-144.72
304.595	228.01
304.809	-58.71
305.023	66.22
305.237	10.92
305.452	-7.51
305.666	45.74
305.88	88.75
306.094	-3.41
306.308	10.92
306.522	39.59
306.736	53.93
306.95	117.42
307.164	-1.37
307.379	-38.23
307.593	176.81
307.807	84.65
308.021	31.4
308.235	84.65
308.449	-46.42
308.663	101.03
308.877	109.22
309.091	49.83
309.305	45.74
309.519	-46.42
309.733	105.13
309.947	-79.19
310.161	45.74
310.374	119.46
310.588	125.61
310.802	8.87
311.016	-7.51
311.23	68.27
311.444	-38.23
311.658	37.55
311.872	64.17
312.085	109.22
312.299	47.79
312.513	105.13
312.727	74.41
312.941	-58.71
313.154	-15.7
313.368	-7.51
313.582	53.93
313.796	15.02
314.009	80.55
314.223	68.27
314.437	60.07
314.651	72.36
314.864	29.35
315.078	-1.37
315.292	-13.65
315.505	2.73
315.719	43.69
315.933	33.45
316.146	29.35
316.36	-11.61
316.573	105.13
316.787	66.22
317.001	84.65
317.214	-64.85
317.428	-32.08
317.641	-9.56
317.855	43.69
318.068	8.87
318.282	58.03
318.495	158.38
318.709	21.16
318.922	45.74
319.136	53.93
319.349	51.88
319.563	-7.51
319.776	43.69
319.99	-79.19
320.203	58.03
320.417	-62.8
320.63	92.84
320.843	74.41
321.057	31.4
321.27	19.11
321.483	47.79
321.697	148.14
321.91	-11.61
322.124	58.03
322.337	17.07
322.55	-3.41
322.763	82.6
322.977	109.22
323.19	-5.46
323.403	33.45
323.617	109.22
323.83	117.42
324.043	94.89
324.256	60.07
324.469	-13.65
324.683	64.17
324.896	-27.99
325.109	98.99
325.322	-62.8
325.535	152.23
325.748	66.22
325.962	17.07
326.175	82.6
326.388	-21.85
326.601	96.94
326.814	25.26
327.027	49.83
327.24	117.42
327.453	-54.61
327.666	25.26
327.879	146.09
328.092	96.94
328.305	82.6
328.518	4.78
328.731	-62.8
328.944	-3.41
329.157	64.17
329.37	53.93
329.583	148.14
329.796	58.03
330.009	-34.13
330.222	146.09
330.435	90.79
330.648	-30.04
330.861	-9.56
331.073	74.41
331.286	90.79
331.499	60.07
331.712	27.31
331.925	-3.41
332.138	-3.41
332.35	72.36
332.563	-50.52
332.776	72.36
332.989	-95.57
333.202	53.93
333.414	35.5
333.627	19.11
333.84	-21.85
334.053	49.83
334.265	-46.42
334.478	-54.61
334.691	31.4
334.903	-21.85
335.116	-62.8
335.329	-1.37
335.541	-9.56
335.754	166.57
335.966	58.03
336.179	2.73
336.392	-23.89
336.604	10.92
336.817	51.88
337.029	66.22
337.242	-23.89
337.454	74.41
337.667	-30.04
337.88	-5.46
338.092	35.5
338.305	76.46
338.517	-25.94
338.729	82.6
338.942	105.13
339.154	-60.76
339.367	-54.61
339.579	43.69
339.792	-40.28
340.004	70.31
340.217	58.03
340.429	29.35
340.641	-27.99
340.854	-13.65
341.066	15.02
341.278	29.35
341.491	178.86
341.703	76.46
341.915	15.02
342.128	35.5
342.34	-54.61
342.552	-75.09
342.764	33.45
342.977	-34.13
343.189	70.31
343.401	-17.75
343.613	-42.32
343.826	21.16
344.038	-32.08
344.25	37.55
344.462	64.17
344.674	-9.56
344.886	43.69
345.099	96.94
345.311	-9.56
345.523	-19.8
345.735	-23.89
345.947	-17.75
346.159	51.88
346.371	-9.56
346.583	-48.47
346.795	125.61
347.007	19.11
347.219	33.45
347.431	8.87
347.643	150.18
347.855	-107.86
348.067	41.64
348.279	-21.85
348.491	33.45
348.703	35.5
348.915	33.45
349.127	-13.65
349.339	58.03
349.551	19.11
349.763	107.18
349.975	-79.19
350.187	72.36
350.399	45.74
350.61	21.16
350.822	29.35
351.034	94.89
351.246	-30.04
351.458	27.31
351.669	37.55
351.881	0.68
352.093	58.03
352.305	78.51
352.517	117.42
352.728	131.75
352.94	84.65
353.152	39.59
353.363	-120.15
353.575	82.6
353.787	197.29
353.999	-66.9
354.21	182.95
354.422	-15.7
354.633	43.69
354.845	37.55
355.057	19.11
355.268	68.27
355.48	76.46
355.692	8.87
355.903	2.73
356.115	-30.04
356.326	-5.46
356.538	170.66
356.749	49.83
356.961	86.7
357.172	27.31
357.384	-50.52
357.595	195.24
357.807	-50.52
358.018	-5.46
358.23	21.16
358.441	103.08
358.653	113.32
358.864	10.92
359.075	17.07
359.287	80.55
359.498	39.59
359.709	82.6
359.921	109.22
360.132	68.27
360.344	25.26
360.555	15.02
360.766	21.16
360.977	-62.8
361.189	90.79
361.4	2.73
361.611	113.32
361.823	160.42
362.034	39.59
362.245	-58.71
362.456	49.83
362.667	8.87
362.879	-13.65
363.09	21.16
363.301	80.55
363.512	62.12
363.723	8.87
363.935	-13.65
364.146	148.14
364.357	37.55
364.568	47.79
364.779	-68.95
364.99	164.52
365.201	27.31
365.412	74.41
365.623	-46.42
365.834	49.83
366.045	-50.52
366.256	47.79
366.467	72.36
366.678	-83.28
366.889	-34.13
367.1	25.26
367.311	68.27
367.522	-15.7
367.733	39.59
367.944	17.07
368.155	19.11
368.366	15.02
368.577	84.65
368.788	187.05
368.999	35.5
369.209	-3.41
369.42	131.75
369.631	160.42
369.842	72.36
370.053	2.73
370.264	76.46
370.474	-36.18
370.685	-7.51
370.896	2.73
371.107	125.61
371.317	64.17
371.528	8.87
371.739	133.8
371.95	74.41
372.16	109.22
372.371	-66.9
372.582	21.16
372.792	109.22
373.003	68.27
373.214	76.46
373.424	180.9
373.635	2.73
373.846	131.75
374.056	31.4
374.267	-46.42
374.477	19.11
374.688	47.79
374.898	66.22
375.109	74.41
375.319	33.45
375.53	58.03
375.74	68.27
375.951	2.73
376.161	39.59
376.372	117.42
376.582	-23.89
376.793	53.93
377.003	-38.23
377.214	0.68
377.424	148.14
377.635	72.36
377.845	-21.85
378.055	121.51
378.266	-99.67
378.476	19.11
378.686	21.16
378.897	-48.47
379.107	55.98
379.317	86.7
379.528	10.92
379.738	92.84
379.948	-114
380.158	139.94
380.369	78.51
380.579	121.51
380.789	39.59
380.999	107.18
381.21	60.07
381.42	158.38
381.63	-30.04
381.84	43.69
382.05	27.31
382.261	109.22
382.471	23.21
382.681	37.55
382.891	133.8
383.101	6.83
383.311	-32.08
383.521	-21.85
383.731	4.78
383.941	72.36
384.151	74.41
384.361	0.68
384.571	43.69
384.781	96.94
384.991	113.32
385.201	217.77
385.411	78.51
385.621	82.6
385.831	51.88
386.041	15.02
386.251	29.35
386.461	90.79
386.671	-32.08
386.881	19.11
387.091	19.11
387.301	105.13
387.511	-42.32
387.72	66.22
387.93	10.92
388.14	10.92
388.35	-27.99
388.56	150.18
388.769	78.51
388.979	17.07
389.189	33.45
389.399	-1.37
389.609	86.7
389.818	107.18
390.028	-19.8
390.238	31.4
390.447	-7.51
390.657	90.79
390.867	76.46
391.076	-73.04
391.286	-7.51
391.496	31.4
391.705	0.68
391.915	125.61
392.125	53.93
392.334	0.68
392.544	141.99
392.753	33.45
392.963	-9.56
393.172	-5.46
393.382	-9.56
393.591	92.84
393.801	49.83
394.01	115.37
394.22	101.03
394.429	148.14
394.639	-23.89
394.848	68.27
395.058	4.78
395.267	90.79
395.477	92.84
395.686	64.17
395.895	121.51
396.105	182.95
396.314	-38.23
396.524	-34.13
396.733	27.31
396.942	158.38
397.152	86.7
397.361	133.8
397.57	10.92
397.78	29.35
397.989	-19.8
398.198	152.23
398.407	39.59
398.617	12.97
398.826	2.73
399.035	-30.04
399.244	74.41
399.453	66.22
399.663	58.03
399.872	43.69
400.081	-5.46
400.29	117.42
400.499	-7.51
400.708	72.36
400.917	51.88
401.127	-21.85
401.336	-27.99
401.545	158.38
401.754	158.38
401.963	64.17
402.172	-34.13
402.381	-9.56
402.59	12.97
402.799	55.98
403.008	84.65
403.217	15.02
403.426	58.03
403.635	-36.18
403.844	43.69
404.053	31.4
404.262	45.74
404.471	133.8
404.68	82.6
404.888	80.55
405.097	2.73
405.306	10.92
405.515	78.51
405.724	80.55
405.933	101.03
406.142	92.84
406.35	133.8
406.559	-30.04
406.768	82.6
406.977	92.84
407.185	55.98
407.394	29.35
407.603	-54.61
407.812	70.31
408.02	135.85
408.229	76.46
408.438	68.27
408.646	33.45
408.855	82.6
409.064	127.66
409.272	-1.37
409.481	68.27
409.69	-32.08
409.898	-15.7
410.107	33.45
410.315	80.55
410.524	41.64
410.733	19.11
410.941	39.59
411.15	84.65
411.358	115.37
411.567	133.8
411.775	43.69
411.984	12.97
412.192	55.98
412.401	90.79
412.609	156.33
412.818	55.98
413.026	66.22
413.234	33.45
413.443	47.79
413.651	6.83
413.86	6.83
414.068	31.4
414.276	238.25
414.485	-27.99
414.693	156.33
414.901	109.22
415.11	60.07
415.318	103.08
415.526	101.03
415.734	58.03
415.943	58.03
416.151	117.42
416.359	0.68
416.567	55.98
416.776	94.89
416.984	133.8
417.192	98.99
417.4	-21.85
417.608	21.16
417.817	-44.37
418.025	133.8
418.233	156.33
418.441	82.6
418.649	-30.04
418.857	74.41
419.065	162.47
419.273	-46.42
419.481	2.73
419.689	15.02
419.897	47.79
420.105	-25.94
420.313	58.03
420.521	90.79
420.729	47.79
420.937	-54.61
421.145	-27.99
421.353	80.55
421.561	217.77
421.769	51.88
421.977	-17.75
422.185	119.46
422.393	-7.51
422.601	125.61
422.809	101.03
423.017	66.22
423.224	35.5
423.432	92.84
423.64	98.99
423.848	68.27
424.056	-17.75
424.263	146.09
424.471	51.88
424.679	170.66
424.887	-42.32
425.094	123.56
425.302	70.31
425.51	-3.41
425.718	31.4
425.925	39.59
426.133	-25.94
426.341	191.14
426.548	68.27
426.756	60.07
426.964	139.94
427.171	64.17
427.379	68.27
427.586	55.98
427.794	146.09
428.001	141.99
428.209	86.7
428.417	221.86
428.624	70.31
428.832	80.55
429.039	41.64
429.247	76.46
429.454	45.74
429.662	191.14
429.869	88.75
430.076	141.99
430.284	203.43
430.491	133.8
430.699	152.23
430.906	158.38
431.114	107.18
431.321	109.22
431.528	80.55
431.736	107.18
431.943	133.8
432.15	174.76
432.358	225.96
432.565	176.81
432.772	76.46
432.979	223.91
433.187	131.75
433.394	240.3
433.601	4.78
433.808	215.72
434.016	246.44
434.223	154.28
434.43	168.62
434.637	275.11
434.844	287.4
435.052	205.48
435.259	289.45
435.466	279.21
435.673	305.83
435.88	344.74
436.087	320.17
436.294	301.73
436.501	314.02
436.708	242.34
436.915	295.59
437.122	436.9
437.329	234.15
437.537	279.21
437.743	424.61
437.95	469.67
438.157	334.5
438.364	428.71
438.571	412.32
438.778	449.19
438.985	461.48
439.192	420.52
439.399	385.7
439.606	504.48
439.813	549.54
440.02	490.15
440.227	721.57
440.433	713.38
440.64	588.45
440.847	494.24
441.054	676.51
441.261	688.8
441.467	629.41
441.674	592.55
441.881	785.05
442.088	651.94
442.294	805.53
442.501	762.53
442.708	815.77
442.914	866.97
443.121	850.59
443.328	877.21
443.534	975.52
443.741	952.99
443.948	826.01
444.154	1055.39
444.361	1186.46
444.568	1122.97
444.774	1137.31
444.981	975.52
445.187	1245.85
445.394	1190.55
445.6	1196.7
445.807	1385.11
446.013	1297.05
446.22	1292.95
446.426	1479.32
446.633	1456.79
446.839	1786.51
447.046	1559.19
447.252	1690.26
447.459	1637.01
447.665	1616.53
447.871	1931.92
448.078	2071.18
448.284	1966.73
448.491	2030.22
448.697	2220.68
448.903	2284.17
449.11	2409.09
449.316	2376.33
449.522	2609.79
449.728	2624.13
449.935	2730.62
450.141	2685.57
450.347	2800.26
450.553	2837.12
450.76	2923.13
450.966	3093.12
451.172	3136.12
451.378	3328.63
451.584	3422.84
451.791	3641.97
451.997	3799.66
452.203	3883.63
452.409	3936.88
452.615	4141.68
452.821	4098.67
453.027	4024.94
453.233	4577.89
453.44	4391.53
453.646	4803.17
453.852	4932.19
454.058	5122.65
454.264	5302.87
454.47	5450.33
454.676	5712.47
454.882	6181.45
455.088	5890.64
455.294	6365.77
455.5	6521.42
455.705	7131.71
455.911	6871.62
456.117	7174.72
456.323	7297.6
456.529	7447.1
456.735	7881.27
456.941	8337.96
457.147	8665.64
457.352	8823.33
457.558	9200.16
457.764	9587.22
457.97	9761.3
458.176	10033.68
458.381	10547.72
458.587	11004.42
458.793	11508.22
458.999	11475.45
459.204	12990.95
459.41	13447.65
459.616	13257.18
459.821	14035.41
460.027	14498.25
460.233	15354.3
460.438	15456.7
460.644	16279.99
460.85	16218.55
461.055	16781.74
461.261	17734.04
461.466	17174.95
461.672	17895.83
461.878	20013.43
462.083	19464.58
462.289	19960.19
462.494	20967.79
462.7	21115.24
462.905	21215.59
463.111	22915.4
463.316	23880
463.522	24619.31
463.727	25317.67
463.932	26325.27
464.138	27216.14
464.343	28324.09
464.549	28602.61
464.754	30496.99
464.959	31332.56
465.165	31903.94
465.37	31467.72
465.575	31811.78
465.781	33669.29
465.986	34504.86
466.191	34261.15
466.397	34767
466.602	33480.88
466.807	35436.69
467.012	36337.79
467.218	36982.9
467.423	37122.16
467.628	38056.04
467.833	39784.52
468.038	39366.74
468.244	38502.5
468.449	40878.14
468.654	39366.74
468.859	39649.36
469.064	39845.96
469.269	38760.54
469.474	39106.65
469.679	40228.93
469.885	38926.42
470.09	39848.01
470.295	40042.57
470.5	39190.61
470.705	39204.95
470.91	38441.06
471.115	37892.2
471.32	38615.13
471.525	37955.69
471.73	37376.11
471.935	36679.8
472.139	35524.75
472.344	35494.03
472.549	35719.31
472.754	34312.35
472.959	33947.81
473.164	32972.98
473.369	32291.01
473.574	33452.2
473.778	32837.81
473.983	32151.74
474.188	31658.18
474.393	29757.67
474.598	30038.24
474.802	29100.27
475.007	29008.11
475.212	28729.59
475.417	27642.12
475.621	27377.93
475.826	27011.34
476.031	26284.31
476.235	26044.7
476.44	25794.85
476.645	24928.56
476.849	25125.16
477.054	24351.03
477.259	23806.27
477.463	23748.93
477.668	23265.61
477.872	23093.58
478.077	22606.16
478.282	21780.83
478.486	21643.62
478.691	21703.01
478.895	21447.01
479.1	21156.2
479.304	21127.53
479.509	20502.9
479.713	20892.01
479.918	20107.64
480.122	19579.26
480.326	19775.87
480.531	19657.09
480.735	19493.25
480.94	19257.73
481.144	19636.61
481.348	18983.31
481.553	18821.52
481.757	18454.93
481.961	18758.03
482.166	18620.81
482.37	18588.05
482.574	17879.45
482.778	18280.85
482.983	18407.83
483.187	18080.15
483.391	17818.01
483.595	17570.21
483.8	17205.67
484.004	17217.96
484.208	17240.48
484.412	16925.1
484.616	17023.4
484.821	16710.06
485.025	16183.73
485.229	16294.32
485.433	15757.75
485.637	15997.37
485.841	15501.76
486.045	15163.84
486.249	15174.08
486.453	15000.01
486.657	14768.59
486.861	14522.83
487.065	14420.43
487.269	14283.22
487.473	13634.01
487.677	13933.01
487.881	13679.07
488.085	13384.16
488.289	13042.15
488.493	12782.06
488.697	12728.81
488.901	12560.88
489.105	11971.06
489.309	12028.4
489.512	11971.06
489.716	11610.62
489.92	11190.78
490.124	11227.65
490.328	11354.62
490.531	10887.68
490.735	10471.95
490.939	10725.9
491.143	10334.73
491.346	10027.54
491.55	9994.77
491.754	9808.4
491.958	9808.4
492.161	9374.24
492.365	9333.28
492.569	9071.14
492.772	8993.31
492.976	9064.99
493.18	8931.87
493.383	8618.54
493.587	8755.75
493.79	8524.33
493.994	8280.62
494.197	8362.54
494.401	8301.1
494.605	8223.28
494.808	8206.89
495.012	8151.6
495.215	7887.41
495.419	8092.21
495.622	7838.26
495.825	7739.96
496.029	7696.95
496.232	7866.93
496.436	7756.34
496.639	7889.46
496.843	7709.24
497.046	7703.09
497.249	7899.7
497.453	7873.07
497.656	7701.05
497.859	7537.21
498.063	7905.84
498.266	8071.73
498.469	7637.56
498.673	7830.07
498.876	7678.52
499.079	7512.63
499.282	7989.81
499.485	8161.84
499.689	8215.09
499.892	8102.45
500.095	8120.88
500.298	8210.99
500.501	7965.23
500.705	8350.25
500.908	8182.32
501.111	8413.74
501.314	8374.83
501.517	8589.86
501.72	8559.14
501.923	8538.66
502.126	8735.27
502.329	9071.14
502.532	8878.63
502.735	9003.55
502.938	9214.49
503.141	9261.6
503.344	9232.93
503.547	9529.88
503.75	9515.55
503.953	9579.03
504.156	9832.98
504.359	9880.08
504.562	10000.91
504.765	10123.79
504.968	10484.23
505.17	10770.95
505.373	10658.31
505.576	10816.01
505.779	11039.23
505.982	11100.67
506.185	11540.99
506.387	11497.98
506.59	11733.5
506.793	12079.6
506.996	12081.65
507.198	12687.85
507.401	12679.66
507.604	12814.82
507.807	13369.82
508.009	13318.62
508.212	13855.19
508.415	14195.15
508.617	14148.05
508.82	14420.43
509.022	14664.14
509.225	15376.83
509.428	15481.28
509.63	15837.62
509.833	16011.7
510.035	16814.51
510.238	16509.36
510.44	16851.37
510.643	17447.33
510.845	17904.03
511.048	17854.87
511.25	18583.95
511.453	18944.39
511.655	19751.29
511.858	19968.38
512.06	20103.54
512.262	20418.93
512.465	20879.72
512.667	21569.89
512.87	21979.48
513.072	22462.8
513.274	23079.24
513.477	23646.53
513.679	24160.57
513.881	24828.21
514.084	25063.72
514.286	25579.81
514.488	26181.92
514.69	27216.14
514.893	27404.55
515.095	27658.5
515.297	28590.33
515.499	28784.88
515.701	30032.1
515.904	30357.72
516.106	31078.61
516.308	31344.84
516.51	32069.83
516.712	32694.46
516.914	33300.65
517.116	33931.43
517.318	34607.26
517.52	35508.36
517.722	36206.72
517.925	36413.57
518.127	37396.59
518.329	38076.52
518.531	38072.42
518.733	39250
518.935	39805
519.136	40462.4
519.338	41132.09
519.54	41447.47
519.742	41963.56
519.944	42571.81
520.146	43429.91
520.348	44216.33
520.55	44449.8
520.752	44675.07
520.954	45969.39
521.155	46018.54
521.357	46673.89
521.559	47124.44
521.761	47853.52
521.963	47951.82
522.164	48013.26
522.366	48674.76
522.568	49794.99
522.77	49528.76
522.971	49983.41
523.173	50245.55
523.375	50444.2
523.576	51048.35
523.778	51064.74
523.98	51908.5
524.181	51634.07
524.383	51648.41
524.584	52045.71
524.786	51845.01
524.988	51904.4
525.189	52539.27
525.391	52645.77
525.592	52469.64
525.794	52656.01
525.995	52670.34
526.197	51933.07
526.398	52311.95
526.6	52387.72
526.801	52158.35
527.003	52287.37
527.204	51883.92
527.406	52027.28
527.607	51341.21
527.808	51589.02
528.01	50554.79
528.211	50460.58
528.412	51290.01
528.614	50646.95
528.815	50237.36
529.016	49893.3
529.218	49579.96
529.419	48895.94
529.62	48142.28
529.822	48062.41
530.023	47734.74
530.224	47321.05
530.425	47022.05
530.626	45920.24
530.828	45453.3
531.029	46378.98
531.23	44867.58
531.431	44574.72
531.632	44484.61
531.833	43474.96
532.035	43102.23
532.236	42678.3
532.437	42231.85
532.638	41676.85
532.839	41224.25
533.04	40980.54
533.241	39878.73
533.442	40353.86
533.643	39718.99
533.844	38803.55
534.045	38420.58
534.246	37591.15
534.447	37517.42
534.648	36362.37
534.849	36409.47
535.05	35541.13
535.251	35434.64
535.451	34762.9
535.652	34384.03
535.853	33939.62
536.054	33603.75
536.255	33263.79
536.456	32405.69
536.657	33013.94
536.857	31764.68
537.058	31164.62
537.259	30748.89
537.46	30445.79
537.66	30138.59
537.861	29757.67
538.062	28936.43
538.263	29155.57
538.463	28375.29
538.664	28393.72
538.865	28299.51
539.065	27767.04
539.266	26976.53
539.466	27154.7
539.667	26136.86
539.868	26458.39
540.068	26122.52
540.269	25387.3
540.469	25243.95
540.67	24918.32
540.87	24871.22
541.071	24768.82
541.271	24318.26
541.472	23869.76
541.672	23816.51
541.873	23208.26
542.073	22960.46
542.274	22800.72
542.474	22409.56
542.675	21834.08
542.875	22188.38
543.075	21696.86
543.276	21234.02
543.476	21721.44
543.676	21137.77
543.877	20779.37
544.077	20662.64
544.277	20560.24
544.478	20027.77
544.678	19880.32
544.878	19945.85
545.078	19575.17
545.279	19239.3
545.479	18930.06
545.679	18850.19
545.879	18596.24
546.079	18518.42
546.28	18080.15
546.48	17703.32
546.68	17674.65
546.88	17363.36
547.08	17140.13
547.28	17299.87
547.48	16824.75
547.68	16630.19
547.88	16439.73
548.081	16310.71
548.281	16255.41
548.481	15925.69
548.681	15849.91
548.881	15563.2
549.081	15620.54
549.28	14821.83
549.48	14985.67
549.68	14916.04
549.88	14653.9
550.08	14313.94
550.28	13890.01
550.48	14201.3
550.68	13834.71
550.88	13591
551.08	13326.82
551.279	13236.7
551.479	12956.13
551.679	13056.48
551.879	12462.57
552.079	12454.38
552.278	12282.35
552.478	12270.06
552.678	12003.83
552.878	11731.45
553.077	11420.16
553.277	11280.89
553.477	11352.57
553.676	10981.89
553.876	10803.72
554.076	10662.41
554.275	10326.54
554.475	10275.34
554.674	10158.61
554.874	10000.91
555.074	9828.88
555.273	9755.16
555.473	9595.42
555.672	9286.17
555.872	9345.56
556.071	9247.26
556.271	9101.86
556.47	8763.94
556.67	8618.54
556.869	8514.09
557.068	8489.51
557.268	8299.05
557.467	8106.54
557.667	8094.26
557.866	7848.5
558.065	7729.72
558.265	7496.25
558.464	7371.32
558.663	7461.43
558.863	7340.6
559.062	7354.94
559.261	6918.72
559.461	7088.7
559.66	6806.08
559.859	6619.72
560.058	6564.42
560.258	6328.91
560.457	6318.67
560.656	6466.12
560.855	6187.6
561.054	6136.4
561.253	6066.77
561.453	5851.73
561.652	5702.23
561.851	5868.11
562.05	5433.94
562.249	5466.71
562.448	5540.44
562.647	5349.98
562.846	5208.67
563.045	5368.41
563.244	5083.74
563.443	5034.59
563.642	4893.28
563.841	4878.94
564.04	4844.13
564.239	4975.2
564.438	4727.39
564.637	4631.14
564.836	4541.03
565.035	4434.53
565.234	4305.51
565.432	4409.96
565.631	4315.75
565.83	4194.92
566.029	4307.56
566.228	4141.68
566.427	3992.17
566.625	3816.05
566.824	4004.46
567.023	3754.61
567.222	3852.91
567.42	3644.02
567.619	3676.79
567.818	3697.27
568.016	3695.22
568.215	3670.64
568.414	3549.81
568.612	3439.22
568.811	3342.97
569.01	3383.93
569.208	3170.94
569.407	3467.89
569.605	3324.54
569.804	3267.19
570.002	3105.4
570.201	3115.64
570.4	2968.19
570.598	2904.7
570.797	2910.85
570.995	2779.78
571.193	2890.37
571.392	2865.79
571.59	2695.81
571.789	2790.02
571.987	2710.15
572.186	2714.24
572.384	2538.12
572.582	2531.97
572.781	2589.32
572.979	2339.46
573.177	2355.85
573.376	2372.23
573.574	2417.29
573.772	2284.17
573.971	2335.37
574.169	2200.2
574.367	2355.85
574.565	2226.82
574.763	2249.35
574.962	2048.65
575.16	2128.52
575.358	2015.88
575.556	2052.75
575.754	2099.85
575.952	1964.68
576.151	1929.87
576.349	1999.5
576.547	1806.99
576.745	1804.94
576.943	1893.01
577.141	1747.6
577.339	1649.3
577.537	1833.61
577.735	1852.05
577.933	1731.22
578.131	1534.61
578.329	1706.64
578.527	1641.11
578.725	1663.63
578.923	1446.55
579.121	1563.28
579.319	1419.92
579.516	1475.22
579.714	1614.48
579.912	1419.92
580.11	1387.16
580.308	1426.07
580.506	1419.92
580.704	1241.75
580.901	1251.99
581.099	1424.02
581.297	1292.95
581.495	1321.62
581.692	1272.47
581.89	1315.48
582.088	1251.99
582.285	1243.8
582.483	1165.98
582.681	1094.3
582.878	1157.78
583.076	1149.59
583.274	1145.5
583.471	1133.21
583.669	1104.54
583.866	1100.44
584.064	1022.62
584.262	981.66
584.459	961.18
584.657	1014.43
584.854	955.04
585.052	918.17
585.249	1088.15
585.447	1075.87
585.644	754.34
585.841	1012.38
586.039	916.12
586.236	1010.33
586.434	932.51
586.631	813.73
586.828	830.11
587.026	942.75
587.223	748.19
587.42	748.19
587.618	828.06
587.815	912.03
588.012	817.82
588.21	701.09
588.407	821.92
588.604	785.05
588.801	719.52
588.999	737.95
589.196	692.9
589.393	731.81
589.59	682.66
589.787	649.89
589.984	727.71
590.182	795.29
590.379	647.84
590.576	631.46
590.773	678.56
590.97	690.85
591.167	703.14
591.364	690.85
591.561	713.38
591.758	731.81
591.955	715.42
592.152	746.14
592.349	592.55
592.546	664.22
592.743	645.79
592.94	674.46
593.137	682.66
593.334	754.34
593.531	717.47
593.727	737.95
593.924	701.09
594.121	678.56
594.318	649.89
594.515	674.46
594.712	744.1
594.908	821.92
595.105	615.07
595.302	684.7
595.499	709.28
595.696	805.53
595.892	621.22
596.089	877.21
596.286	764.57
596.482	785.05
596.679	850.59
596.876	821.92
597.072	875.17
597.269	950.94
597.466	871.07
597.662	909.98
597.859	879.26
598.055	938.65
598.252	993.95
598.448	1178.26
598.645	1155.74
598.841	1010.33
599.038	1188.5
599.234	1278.62
599.431	1297.05
599.627	1272.47
599.824	1297.05
600.02	1360.53
600.217	1409.69
600.413	1497.75
600.609	1501.84
600.806	1661.59
601.002	1628.82
601.198	1473.17
601.395	1862.29
601.591	1809.04
601.787	1968.78
601.984	2062.99
602.18	2146.95
602.376	2144.91
602.572	2212.49
602.769	2425.48
602.965	2282.12
603.161	2484.87
603.357	2587.27
603.553	2687.62
603.75	2515.59
603.946	2730.62
604.142	2869.89
604.338	3074.68
604.534	3003
604.73	3158.65
604.926	3140.22
605.122	3420.79
605.318	3471.99
605.514	3496.57
605.71	3639.92
605.906	3785.33
606.102	3918.45
606.298	4090.48
606.494	4192.87
606.69	4414.06
606.886	4432.49
607.082	4446.82
607.278	4565.6
607.474	4811.36
607.67	4862.56
607.866	4924
608.062	5253.72
608.257	5347.93
608.453	5386.84
608.649	5614.16
608.845	5894.74
609.041	5970.51
609.236	5966.42
609.432	6304.33
609.628	6464.07
609.824	6361.67
610.019	6609.48
610.215	6871.62
610.411	7322.17
610.606	7391.8
610.802	7545.4
610.998	7899.7
611.193	7993.9
611.389	8053.3
611.584	8436.27
611.78	8542.76
611.976	8663.59
612.171	9181.73
612.367	9161.25
612.562	9423.39
612.758	9638.42
612.953	9759.25
613.149	10199.57
613.344	10385.93
613.539	11020.8
613.735	11022.85
613.93	11377.15
614.126	11493.88
614.321	11952.63
614.517	12397.04
614.712	12427.76
614.907	12763.62
615.103	13136.35
615.298	13378.01
615.493	13797.85
615.688	13855.19
615.884	14727.63
616.079	14762.44
616.274	15403.46
616.47	15274.43
616.665	15843.77
616.86	16050.61
617.055	16869.8
617.25	17123.75
617.445	17836.44
617.641	18004.38
617.836	18555.28
618.031	18794.89
618.226	19614.08
618.421	19689.85
618.616	20490.61
618.811	20496.75
619.006	21481.83
619.201	21563.75
619.396	22462.8
619.591	22270.29
619.786	23132.49
619.981	23253.32
620.176	24025.4
620.371	24559.92
620.566	25327.91
620.761	25661.73
620.956	26161.44
621.151	26517.78
621.346	27037.97
621.541	27171.08
621.735	28262.65
621.93	28055.81
622.125	29085.93
622.32	29483.24
622.515	30232.8
622.709	30560.47
622.904	31480.01
623.099	31541.45
623.294	32415.93
623.488	32518.33
623.683	33675.43
623.878	33527.98
624.072	34373.79
624.267	35278.99
624.462	35639.43
624.656	35866.76
624.851	36671.61
625.046	36884.6
625.24	37947.5
625.435	37810.28
625.629	38623.33
625.824	39161.94
626.018	39798.86
626.213	39407.7
626.407	40654.91
626.602	40626.24
626.796	41283.64
626.991	41791.53
627.185	42377.25
627.38	42385.44
627.574	42686.5
627.768	42242.09
627.963	42883.1
628.157	42704.93
628.352	43374.61
628.546	42981.4
628.74	43722.77
628.935	43157.53
629.129	43575.31
629.323	42922.01
629.517	43069.47
629.712	43048.99
629.906	42151.98
630.1	41922.6
630.294	42283.05
630.489	41287.73
630.683	41175.09
630.877	40085.57
631.071	39921.74
631.265	39366.74
631.459	38326.37
631.653	37400.69
631.848	36860.02
632.042	36130.95
632.236	35350.67
632.43	34037.92
632.624	33417.39
632.818	32536.76
633.012	31500.49
633.206	30302.43
633.4	29679.85
633.594	28283.13
633.788	28016.9
633.982	26661.14
634.176	26083.61
634.369	24621.36
634.563	24041.79
634.757	22696.27
634.951	22339.93
635.145	21801.31
635.339	20658.54
635.533	19966.33
635.726	18993.54
635.92	18268.56
636.114	17514.91
636.308	16562.61
636.501	16153.01
636.695	15667.64
636.889	14756.3
637.083	14082.52
637.276	13560.28
637.47	13109.73
637.664	12648.94
637.857	12247.54
638.051	11872.76
638.244	11080.19
638.438	10754.57
638.632	10365.45
638.825	9691.67
639.019	9447.96
639.212	9140.77
639.406	8831.52
639.599	8276.52
639.793	8067.63
639.986	7778.87
640.18	7641.65
640.373	7117.37
640.567	6900.29
640.76	6605.38
640.954	6453.83
641.147	6083.15
641.34	5974.61
641.534	5667.41
641.727	5425.75
641.92	5411.42
642.114	5139.04
642.307	4811.36
642.5	4645.48
642.694	4407.91
642.887	4375.14
643.08	4252.27
643.273	4024.94
643.467	3947.12
643.66	3730.03
643.853	3512.95
644.046	3568.24
644.239	3347.06
644.432	3140.22
644.626	2960
644.819	2966.14
645.012	2859.65
645.205	2820.74
645.398	2687.62
645.591	2501.25
645.784	2421.38
645.977	2196.11
646.17	2265.74
646.363	2218.63
646.556	2089.61
646.749	1976.97
646.942	1907.34
647.135	1940.11
647.328	1657.49
647.521	1786.51
647.714	1585.81
647.907	1565.33
648.099	1430.16
648.292	1624.72
648.485	1374.87
648.678	1426.07
648.871	1245.85
649.064	1188.5
649.256	1196.7
649.449	1149.59
649.642	1065.63
649.835	1032.86
650.027	952.99
650.22	1010.33
650.413	1020.57
650.605	981.66
650.798	879.26
650.991	850.59
651.183	903.84
651.376	936.6
651.568	803.49
651.761	707.23
651.954	821.92
652.146	637.6
652.339	756.38
652.531	707.23
652.724	596.64
652.916	545.44
653.109	449.19
653.301	707.23
653.494	621.22
653.686	582.31
653.879	664.22
654.071	627.36
654.263	506.53
654.456	469.67
654.648	606.88
654.84	502.43
655.033	365.22
655.225	533.15
655.417	363.17
655.61	537.25
655.802	486.05
655.994	506.53
656.186	314.02
656.379	467.62
656.571	297.64
656.763	305.83
656.955	365.22
657.148	367.27
657.34	461.48
657.532	314.02
657.724	232.1
657.916	375.46
658.108	371.37
658.3	344.74
658.492	295.59
658.684	254.63
658.876	352.93
659.068	158.38
659.26	178.86
659.452	127.66
659.644	264.87
659.836	395.94
660.028	309.93
660.22	195.24
660.412	223.91
660.604	277.16
660.796	230.06
660.988	238.25
661.18	271.01
661.372	287.4
661.563	232.1
661.755	254.63
661.947	166.57
662.139	195.24
662.331	189.1
662.522	119.46
662.714	201.38
662.906	174.76
663.097	139.94
663.289	129.7
663.481	117.42
663.673	158.38
663.864	117.42
664.056	119.46
664.247	144.04
664.439	244.39
664.631	203.43
664.822	221.86
665.014	105.13
665.205	113.32
665.397	131.75
665.588	150.18
665.78	168.62
665.971	221.86
666.163	111.27
666.354	228.01
666.546	144.04
666.737	47.79
666.929	45.74
667.12	133.8
667.311	156.33
667.503	127.66
667.694	103.08
667.885	113.32
668.077	101.03
668.268	66.22
668.459	117.42
668.651	101.03
668.842	125.61
669.033	109.22
669.224	133.8
669.416	268.97
669.607	76.46
669.798	35.5
669.989	256.68
670.18	125.61
670.371	72.36
670.563	84.65
670.754	115.37
670.945	92.84
671.136	174.76
671.327	92.84
671.518	115.37
671.709	182.95
671.9	207.53
672.091	203.43
672.282	133.8
672.473	125.61
672.664	105.13
672.855	176.81
673.046	146.09
673.237	178.86
673.428	76.46
673.619	139.94
673.809	121.51
674	262.82
674.191	221.86
674.382	-23.89
674.573	70.31
674.764	164.52
674.954	152.23
675.145	148.14
675.336	92.84
675.527	53.93
675.717	53.93
675.908	74.41
676.099	84.65
676.289	101.03
676.48	60.07
676.671	170.66
676.861	131.75
677.052	150.18
677.243	162.47
677.433	27.31
677.624	213.67
677.814	117.42
678.005	113.32
678.195	174.76
678.386	127.66
678.576	80.55
678.767	41.64
678.957	94.89
679.148	207.53
679.338	191.14
679.529	193.19
679.719	96.94
679.909	197.29
680.1	209.58
680.29	201.38
680.481	111.27
680.671	166.57
680.861	189.1
681.052	150.18
681.242	109.22
681.432	150.18
681.622	76.46
681.813	43.69
682.003	209.58
682.193	90.79
682.383	92.84
682.573	156.33
682.764	90.79
682.954	148.14
683.144	277.16
683.334	125.61
683.524	121.51
683.714	109.22
683.904	187.05
684.094	119.46
684.284	215.72
684.474	232.1
684.664	187.05
684.854	187.05
685.044	178.86
685.234	221.86
685.424	187.05
685.614	127.66
685.804	285.35
685.994	219.82
686.184	199.34
686.374	195.24
686.564	178.86
686.753	174.76
686.943	92.84
687.133	178.86
687.323	166.57
687.513	264.87
687.702	137.9
687.892	141.99
688.082	187.05
688.272	230.06
688.461	205.48
688.651	316.07
688.841	174.76
689.03	174.76
689.22	109.22
689.41	170.66
689.599	199.34
689.789	246.44
689.979	228.01
690.168	209.58
690.358	162.47
690.547	127.66
690.737	141.99
690.926	197.29
691.116	228.01
691.305	205.48
691.495	268.97
691.684	232.1
691.874	119.46
692.063	166.57
692.252	131.75
692.442	135.85
692.631	129.7
692.82	129.7
693.01	170.66
693.199	158.38
693.388	217.77
693.578	150.18
693.767	125.61
693.956	207.53
694.146	88.75
694.335	223.91
694.524	103.08
694.713	139.94
694.902	90.79
695.092	141.99
695.281	273.06
695.47	90.79
695.659	90.79
695.848	172.71
696.037	74.41
696.226	133.8
696.415	187.05
696.604	236.2
696.793	330.41
696.982	105.13
697.171	189.1
697.36	180.9
697.549	117.42
697.738	-32.08
697.927	78.51
698.116	121.51
698.305	195.24
698.494	195.24
698.683	101.03
698.872	268.97
699.061	162.47
699.25	170.66
699.438	207.53
699.627	80.55
699.816	293.54
700.005	68.27
700.193	219.82
700.382	141.99
700.571	164.52
700.76	129.7
700.948	207.53
701.137	279.21
701.326	250.53
701.514	123.56
701.703	191.14
701.892	187.05
702.08	240.3
702.269	146.09
702.457	84.65
702.646	215.72
702.834	195.24
703.023	139.94
703.212	174.76
703.4	154.28
703.589	141.99
703.777	92.84
703.965	146.09
704.154	117.42
704.342	162.47
704.531	101.03
704.719	125.61
704.907	307.88
705.096	98.99
705.284	125.61
705.472	172.71
705.661	154.28
705.849	236.2
706.037	191.14
706.226	170.66
706.414	189.1
706.602	107.18
706.79	195.24
706.979	72.36
707.167	187.05
707.355	103.08
707.543	74.41
707.731	137.9
707.919	209.58
708.107	39.59
708.296	76.46
708.484	123.56
708.672	262.82
708.86	129.7
709.048	90.79
709.236	137.9
709.424	172.71
709.612	193.19
709.8	53.93
709.988	131.75
710.176	271.01
710.364	207.53
710.551	152.23
710.739	109.22
710.927	55.98
711.115	131.75
711.303	191.14
711.491	307.88
711.679	152.23
711.866	285.35
712.054	139.94
712.242	191.14
712.43	232.1
712.617	103.08
712.805	139.94
712.993	101.03
713.181	109.22
713.368	189.1
713.556	156.33
713.744	125.61
713.931	328.36
714.119	230.06
714.306	158.38
714.494	158.38
714.682	180.9
714.869	31.4
715.057	74.41
715.244	-5.46
715.432	141.99
715.619	168.62
715.807	182.95
715.994	199.34
716.182	182.95
716.369	236.2
716.556	154.28
716.744	152.23
716.931	31.4
717.119	236.2
717.306	174.76
717.493	219.82
717.681	115.37
717.868	144.04
718.055	133.8
718.242	160.42
718.43	230.06
718.617	215.72
718.804	189.1
718.991	285.35
719.179	197.29
719.366	191.14
719.553	172.71
719.74	146.09
719.927	150.18
720.114	176.81
720.301	76.46
720.488	148.14
720.676	109.22
720.863	238.25
721.05	254.63
721.237	162.47
721.424	234.15
721.611	158.38
721.798	119.46
721.985	133.8
722.172	228.01
722.358	162.47
722.545	234.15
722.732	213.67
722.919	281.25
723.106	121.51
723.293	187.05
723.48	219.82
723.667	137.9
723.853	223.91
724.04	254.63
724.227	219.82
724.414	266.92
724.6	246.44
724.787	248.49
724.974	354.98
725.161	146.09
725.347	131.75
725.534	197.29
725.72	211.62
725.907	246.44
726.094	211.62
726.28	150.18
726.467	244.39
726.653	101.03
726.84	277.16
727.027	228.01
727.213	207.53
727.4	174.76
727.586	266.92
727.773	219.82
727.959	158.38
728.145	228.01
728.332	225.96
728.518	168.62
728.705	318.12
728.891	277.16
729.077	338.6
729.264	160.42
729.45	258.73
729.636	354.98
729.823	185
730.009	314.02
730.195	209.58
730.382	264.87
730.568	197.29
730.754	219.82
730.94	207.53
731.126	230.06
731.313	244.39
731.499	223.91
731.685	260.77
731.871	215.72
732.057	185
732.243	293.54
732.429	219.82
732.615	246.44
732.801	264.87
732.987	154.28
733.173	244.39
733.359	219.82
733.545	279.21
733.731	266.92
733.917	381.6
734.103	228.01
734.289	228.01
734.475	195.24
734.661	271.01
734.847	232.1
735.033	166.57
735.219	342.69
735.404	252.58
735.59	162.47
735.776	266.92
735.962	189.1
736.148	295.59
736.333	244.39
736.519	236.2
736.705	176.81
736.89	164.52
737.076	244.39
737.262	189.1
737.447	230.06
737.633	244.39
737.819	277.16
738.004	285.35
738.19	252.58
738.375	299.69
738.561	350.89
738.747	252.58
738.932	195.24
739.118	408.23
739.303	244.39
739.489	279.21
739.674	252.58
739.859	228.01
740.045	236.2
740.23	336.55
740.416	109.22
740.601	225.96
740.786	246.44
740.972	223.91
741.157	244.39
741.342	193.19
741.528	246.44
741.713	346.79
741.898	182.95
742.084	293.54
742.269	201.38
742.454	301.73
742.639	293.54
742.824	135.85
743.01	340.65
743.195	359.08
743.38	232.1
743.565	219.82
743.75	277.16
743.935	297.64
744.12	248.49
744.305	182.95
744.49	232.1
744.675	277.16
744.86	168.62
745.045	234.15
745.23	150.18
745.415	254.63
745.6	311.97
745.785	129.7
745.97	293.54
746.155	277.16
746.34	326.31
746.525	324.26
746.71	285.35
746.895	182.95
747.079	158.38
747.264	215.72
747.449	273.06
747.634	215.72
747.819	287.4
748.003	283.3
748.188	103.08
748.373	268.97
748.557	199.34
748.742	234.15
748.927	277.16
749.111	211.62
749.296	187.05
749.481	244.39
749.665	240.3
749.85	150.18
750.034	260.77
750.219	105.13
750.404	244.39
750.588	225.96
750.773	174.76
750.957	223.91
751.141	148.14
751.326	199.34
751.51	74.41
751.695	180.9
751.879	146.09
752.064	348.84
752.248	289.45
752.432	281.25
752.617	203.43
752.801	289.45
752.985	168.62
753.17	281.25
753.354	182.95
753.538	248.49
753.722	101.03
753.907	129.7
754.091	78.51
754.275	176.81
754.459	103.08
754.643	98.99
754.828	236.2
755.012	203.43
755.196	137.9
755.38	182.95
755.564	90.79
755.748	211.62
755.932	191.14
756.116	137.9
756.3	201.38
756.484	131.75
756.668	180.9
756.852	101.03
757.036	82.6
757.22	117.42
757.404	90.79
757.588	170.66
757.772	242.34
757.956	144.04
758.14	207.53
758.323	141.99
758.507	180.9
758.691	84.65
758.875	180.9
759.059	172.71
759.242	90.79
759.426	107.18
759.61	215.72
759.794	68.27
759.977	244.39
760.161	264.87
760.345	182.95
760.528	273.06
760.712	166.57
760.895	195.24
761.079	133.8
761.263	92.84
761.446	72.36
761.63	76.46
761.813	125.61
761.997	58.03
762.18	137.9
762.364	113.32
762.547	-3.41
762.731	78.51
762.914	60.07
763.098	113.32
763.281	170.66
763.464	103.08
763.648	148.14
763.831	35.5
764.015	74.41
764.198	252.58
764.381	170.66
764.564	111.27
764.748	174.76
764.931	15.02
765.114	35.5
765.297	191.14
765.481	98.99
765.664	68.27
765.847	43.69
766.03	168.62
766.213	-9.56
766.397	43.69
766.58	66.22
766.763	158.38
766.946	41.64
767.129	6.83
767.312	2.73
767.495	160.42
767.678	45.74
767.861	158.38
768.044	98.99
768.227	39.59
768.41	117.42
768.593	113.32
768.776	96.94
768.959	92.84
769.142	174.76
769.324	84.65
769.507	109.22
769.69	-5.46
769.873	101.03
770.056	240.3
770.239	70.31
770.421	191.14
770.604	125.61
770.787	125.61
770.97	76.46
771.152	-25.94
771.335	68.27
771.518	58.03
771.7	166.57
771.883	228.01
772.066	-7.51
772.248	27.31
772.431	174.76
772.613	125.61
772.796	88.75
772.978	131.75
773.161	158.38
773.343	78.51
773.526	68.27
773.708	19.11
773.891	-40.28
774.073	51.88
774.256	31.4
774.438	158.38
774.621	15.02
774.803	92.84
774.985	74.41
775.168	105.13
775.35	43.69
775.532	154.28
775.715	60.07
775.897	117.42
776.079	72.36
776.261	80.55
776.444	66.22
776.626	51.88
776.808	58.03
776.99	6.83
777.173	96.94
777.355	41.64
777.537	115.37
777.719	123.56
777.901	27.31
778.083	8.87
778.265	-95.57
778.447	90.79
778.629	-15.7
778.811	94.89
778.993	51.88
779.175	88.75
779.357	37.55
779.539	-40.28
779.721	23.21
779.903	117.42
780.085	-9.56
780.267	141.99
780.449	115.37
780.631	47.79
780.812	103.08
780.994	-9.56
781.176	43.69
781.358	-68.95
781.54	109.22
781.721	88.75
781.903	111.27
782.085	-15.7
782.267	105.13
782.448	-1.37
782.63	-89.43
782.812	51.88
782.993	33.45
783.175	96.94
783.357	51.88
783.538	68.27
783.72	-56.66
783.901	31.4
784.083	55.98
784.264	119.46
784.446	-27.99
784.627	-5.46
784.809	88.75
784.99	-52.56
785.172	101.03
785.353	2.73
785.535	53.93
785.716	8.87
785.897	-48.47
786.079	15.02
786.26	72.36
786.441	47.79
786.623	-91.48
786.804	-52.56
786.985	39.59
787.167	103.08
787.348	53.93
787.529	23.21
787.71	113.32
787.891	21.16
788.073	19.11
788.254	2.73
788.435	166.57
788.616	39.59
788.797	-27.99
788.978	47.79
789.159	64.17
789.34	80.55
789.522	41.64
789.703	-17.75
789.884	53.93
790.065	-7.51
790.246	60.07
790.427	29.35
790.607	64.17
790.788	119.46
790.969	23.21
791.15	62.12
791.331	-38.23
791.512	39.59
791.693	-124.24
791.874	0.68
792.054	139.94
792.235	117.42
792.416	-19.8
792.597	-21.85
792.778	19.11
792.958	12.97
793.139	78.51
793.32	8.87
793.5	-25.94
793.681	90.79
793.862	31.4
794.042	6.83
794.223	-64.85
794.404	-3.41
794.584	-42.32
794.765	51.88
794.945	-40.28
795.126	35.5
795.306	15.02
795.487	19.11
795.667	8.87
795.848	68.27
796.028	-11.61
796.209	25.26
796.389	109.22
796.57	27.31
796.75	-60.76
796.93	49.83
797.111	-5.46
797.291	8.87
797.471	27.31
797.652	80.55
797.832	-75.09
798.012	-42.32
798.192	66.22
798.373	-99.67
798.553	41.64
798.733	-9.56
798.913	-68.95
799.093	4.78
799.274	64.17
799.454	10.92
799.634	47.79
799.814	51.88
799.994	33.45
800.174	58.03
800.354	10.92
800.534	-56.66
800.714	64.17
800.894	-54.61
801.074	-54.61
801.254	-5.46
801.434	47.79
801.614	23.21
801.794	-52.56
801.974	1624.72
802.154	21.16
802.334	119.46
802.514	-19.8
802.693	-54.61
802.873	6.83
803.053	45.74
803.233	55.98
803.413	-1.37
803.592	-7.51
803.772	-5.46
803.952	-15.7
804.131	-32.08
804.311	64.17
804.491	115.37
804.67	4.78
804.85	-50.52
805.03	86.7
805.209	160.42
805.389	-50.52
805.568	60.07
805.748	8.87
805.928	49.83
806.107	27.31
806.287	41.64
806.466	27.31
806.646	-17.75
806.825	19.11
807.004	-54.61
807.184	47.79
807.363	39.59
807.543	-1.37
807.722	-54.61
807.901	125.61
808.081	43.69
808.26	-79.19
808.439	-50.52
808.619	-64.85
808.798	-15.7
808.977	27.31
809.156	105.13
809.336	17.07
809.515	43.69
809.694	-85.33
809.873	45.74
810.052	-13.65
810.231	96.94
810.411	-17.75
810.59	60.07
810.769	-71
810.948	60.07
811.127	-85.33
811.306	-48.47
811.485	-25.94
811.664	92.84
811.843	-17.75
812.022	0.68
812.201	27.31
812.38	4.78
812.559	58.03
812.737	60.07
812.916	-161.11
813.095	-15.7
813.274	25.26
813.453	19.11
813.632	90.79
813.811	41.64
813.989	-3.41
814.168	-5.46
814.347	-91.48
814.526	-23.89
814.704	109.22
814.883	70.31
815.062	-52.56
815.24	39.59
815.419	-48.47
815.598	-3.41
815.776	-111.96
815.955	80.55
816.133	-124.24
816.312	21.16
816.49	19.11
816.669	-58.71
816.847	-46.42
817.026	39.59
817.204	-58.71
817.383	-34.13
817.561	-25.94
817.74	90.79
817.918	41.64
818.097	-40.28
818.275	-42.32
818.453	68.27
818.632	60.07
818.81	-50.52
818.988	-36.18
819.167	-62.8
819.345	-27.99
819.523	-48.47
819.701	-32.08
819.879	0.68
820.058	-23.89
820.236	-85.33
820.414	-36.18
820.592	-54.61
820.77	-42.32
820.948	-11.61
821.127	-17.75
821.305	6.83
821.483	-77.14
821.661	88.75
821.839	-30.04
822.017	-60.76
822.195	-52.56
822.373	64.17
822.551	-75.09
822.729	15.02
822.907	-15.7
823.085	27.31
823.262	6.83
823.44	-21.85
823.618	27.31
823.796	-34.13
823.974	-32.08
824.152	-15.7
824.329	49.83
824.507	-9.56
824.685	35.5
824.863	-71
825.04	-40.28
825.218	25.26
825.396	-58.71
825.574	15.02
825.751	-71
825.929	10.92
826.107	-114
826.284	41.64
826.462	19.11
826.639	-83.28
826.817	-134.48
826.994	-68.95
827.172	-77.14
827.349	70.31
827.527	74.41
827.704	-32.08
827.882	10.92
828.059	39.59
828.237	-66.9
828.414	10.92
828.591	-128.34
828.769	-46.42
828.946	-17.75
829.124	27.31
829.301	47.79
829.478	-32.08
829.655	27.31
829.833	-40.28
830.01	-128.34
830.187	39.59
830.364	-21.85
830.542	-32.08
830.719	-5.46
830.896	-23.89
831.073	-21.85
831.25	0.68
831.427	39.59
831.604	-77.14
831.782	-27.99
831.959	107.18
832.136	-81.24
832.313	0.68
832.49	-56.66
832.667	2.73
832.844	-56.66
833.021	92.84
833.198	-11.61
833.374	10.92
833.551	-13.65
833.728	-95.57
833.905	-15.7
834.082	-107.86
834.259	-9.56
834.436	74.41
834.612	-60.76
834.789	74.41
834.966	25.26
835.143	39.59
835.319	-75.09
835.496	39.59
835.673	15.02
835.85	31.4
836.026	-17.75
836.203	-17.75
836.38	-79.19
836.556	-23.89
836.733	-46.42
836.909	88.75
837.086	-15.7
837.262	-32.08
837.439	-71
837.616	-5.46
837.792	29.35
837.968	105.13
838.145	-120.15
838.321	-5.46
838.498	-9.56
838.674	68.27
838.851	10.92
839.027	-21.85
839.203	-15.7
839.38	31.4
839.556	-64.85
839.732	29.35
839.909	-21.85
840.085	17.07
840.261	-73.04
840.437	-85.33
840.614	-54.61
840.79	60.07
840.966	-1.37
841.142	62.12
841.318	-15.7
841.494	31.4
841.671	66.22
841.847	-40.28
842.023	-54.61
842.199	43.69
842.375	66.22
842.551	-107.86
842.727	-111.96
842.903	41.64
843.079	-105.81
843.255	82.6
843.431	68.27
843.607	92.84
843.783	-167.25
843.959	43.69
844.134	-62.8
844.31	103.08
844.486	-13.65
844.662	-34.13
844.838	53.93
845.013	6.83
845.189	78.51
845.365	33.45
845.541	-23.89
845.716	4.78
845.892	135.85
846.068	-40.28
846.244	-56.66
846.419	-23.89
846.595	-21.85
846.77	-15.7
846.946	60.07
847.122	-83.28
847.297	6.83
847.473	19.11
847.648	-58.71
847.824	-7.51
847.999	-83.28
848.175	-36.18
848.35	12.97
848.526	101.03
848.701	113.32
848.876	129.7
849.052	60.07
849.227	4.78
849.403	15.02
849.578	-30.04
849.753	-46.42
849.929	43.69
850.104	-32.08
850.279	10.92
850.454	-13.65
850.63	64.17
850.805	27.31
850.98	-13.65
851.155	-71
851.33	19.11
851.505	-58.71
851.681	96.94
851.856	33.45
852.031	2.73
852.206	27.31
852.381	-75.09
852.556	43.69
852.731	23.21
852.906	-5.46
853.081	-5.46
853.256	76.46
853.431	-30.04
853.606	-81.24
853.781	-56.66
853.956	-132.44
854.131	-13.65
854.305	-99.67
854.48	-42.32
854.655	-17.75
854.83	-48.47
855.005	-52.56
855.18	0.68
855.354	-17.75
855.529	-42.32
855.704	-38.23
855.879	-40.28
856.053	-13.65
856.228	43.69
856.403	-9.56
856.577	-30.04
856.752	-105.81
856.926	-21.85
857.101	-15.7
857.276	-79.19
857.45	-83.28
857.625	31.4
857.799	-34.13
857.974	17.07
858.148	-124.24
858.323	2.73
858.497	-23.89
858.672	-54.61
858.846	-114
859.02	-13.65
859.195	-60.76
859.369	43.69
859.543	37.55
859.718	88.75
859.892	-3.41
860.066	6.83
860.241	-58.71
860.415	-30.04
860.589	-1.37
860.763	-81.24
860.938	-116.05
861.112	35.5
861.286	-5.46
861.46	-13.65
861.634	-54.61
861.808	76.46
861.982	-79.19
862.157	-30.04
862.331	-42.32
862.505	-83.28
862.679	-21.85
862.853	-9.56
863.027	-105.81
863.201	76.46
863.375	-56.66
863.549	39.59
863.722	-19.8
863.896	12.97
864.07	-58.71
864.244	-34.13
864.418	39.59
864.592	17.07
864.766	-40.28
864.939	-34.13
865.113	-40.28
865.287	45.74
865.461	-95.57
865.634	-79.19
865.808	-21.85
865.982	10.92
866.156	-77.14
866.329	-187.73
866.503	23.21
866.676	84.65
866.85	-5.46
867.024	10.92
867.197	-21.85
867.371	-38.23
867.544	98.99
867.718	-126.29
867.891	84.65
868.065	-130.39
868.238	-50.52
868.412	43.69
868.585	2.73
868.759	-122.2
868.932	-83.28
869.105	-83.28
869.279	-38.23
869.452	8.87
869.625	-32.08
869.799	-36.18
869.972	-81.24
870.145	-7.51
870.319	19.11
870.492	-54.61
870.665	-21.85
870.838	-101.72
871.011	-128.34
871.185	-64.85
871.358	-91.48
871.531	27.31
871.704	-38.23
871.877	12.97
872.05	-25.94
872.223	-136.53
872.396	2.73
872.569	23.21
872.742	-99.67
872.915	-30.04
873.088	-58.71
873.261	-146.77
873.434	10.92
873.607	43.69
873.78	10.92
873.953	-25.94
874.126	6.83
874.299	-50.52
874.471	-66.9
874.644	-19.8
874.817	-40.28
874.99	35.5
875.163	-52.56
875.335	2.73
875.508	0.68
875.681	94.89
875.853	-1.37
876.026	-5.46
876.199	76.46
876.371	-27.99
876.544	-19.8
876.717	84.65
876.889	2.73
877.062	-30.04
877.234	-75.09
877.407	-60.76
877.579	-13.65
877.752	66.22
877.924	17.07
878.097	0.68
878.269	-17.75
878.442	29.35
878.614	72.36
878.786	-30.04
878.959	53.93
879.131	-17.75
879.303	-34.13
879.476	39.59
879.648	15.02
879.82	-25.94
879.993	-95.57
880.165	-95.57
880.337	-148.82
880.509	62.12
880.681	-122.2
880.854	-5.46
881.026	74.41
881.198	105.13
881.37	-34.13
881.542	15.02
881.714	2.73
881.886	-83.28
882.058	-5.46
882.23	-99.67
882.402	-95.57
882.574	-23.89
882.746	47.79
882.918	21.16
883.09	-42.32
883.262	-38.23
883.434	-48.47
883.606	-150.87
883.778	23.21
883.95	96.94
884.122	-54.61
884.293	137.9
884.465	2.73
884.637	-15.7
884.809	-54.61
884.98	-64.85
885.152	-17.75
885.324	19.11
885.496	-124.24
885.667	-30.04
885.839	-52.56
886.011	88.75
886.182	12.97
886.354	62.12
886.525	-19.8
886.697	45.74
886.869	-62.8
887.04	-103.76
887.212	37.55
887.383	94.89
887.555	23.21
887.726	-27.99
887.897	-30.04
888.069	-48.47
888.24	113.32
888.412	-66.9
888.583	-23.89
888.754	2.73
888.926	-132.44
889.097	19.11
889.268	-136.53
889.44	-1.37
889.611	-91.48
889.782	-46.42
889.953	-54.61
890.125	25.26
890.296	-120.15
890.467	-1.37
890.638	-111.96
890.809	10.92
890.98	-56.66
891.151	-7.51
891.323	39.59
891.494	4.78
891.665	-9.56
891.836	-54.61
892.007	23.21
892.178	10.92
892.349	2.73
892.52	-54.61
892.691	-5.46
892.862	-38.23
893.032	-111.96
893.203	-66.9
893.374	39.59
893.545	47.79
893.716	-107.86
893.887	23.21
894.057	-66.9
894.228	-54.61
894.399	-62.8
894.57	64.17
894.74	-50.52
894.911	-38.23
895.082	-75.09
895.253	-62.8
895.423	-46.42
895.594	60.07
895.764	-1.37
895.935	-171.35
896.106	15.02
896.276	-99.67
896.447	33.45
896.617	-11.61
896.788	-60.76
896.958	-40.28
897.129	8.87
897.299	-54.61
897.47	125.61
897.64	62.12
897.81	-54.61
897.981	37.55
898.151	-122.2
898.322	-19.8
898.492	27.31
898.662	-99.67
898.832	8.87
899.003	-73.04
899.173	10.92
899.343	-89.43
899.513	-114
