Data from USB4F104151__50__11-26-50-991.txt Node

Date: Wed Feb 26 11:26:50 EST 2025
User: louis
Spectrometer: USB4F10415
Trigger mode: 4
Integration Time (sec): 1.000000E-1
Scans to average: 1
Electric dark correction enabled: true
Nonlinearity correction enabled: false
Boxcar width: 0
XAxis mode: Wavelengths
Number of Pixels in Spectrum: 3648
>>>>>Begin Spectral Data<<<<<
178.204	-462.5
178.424	-462.5
178.644	-462.5
178.864	-411.3
179.084	-366.25
179.304	-28.33
179.524	-1.71
179.744	14.68
179.964	10.58
180.184	82.26
180.404	43.35
180.624	2.39
180.844	-11.95
181.064	-114.34
181.283	20.82
181.503	-71.34
181.723	53.59
181.943	-100.01
182.163	203.09
182.383	-30.38
182.602	59.73
182.822	119.12
183.042	22.87
183.262	-30.38
183.482	-11.95
183.701	78.16
183.921	26.96
184.141	43.35
184.361	104.79
184.58	51.54
184.8	10.58
185.02	-30.38
185.239	78.16
185.459	-16.04
185.679	104.79
185.898	-85.67
186.118	26.96
186.338	59.73
186.557	57.68
186.777	-167.59
186.997	6.49
187.216	24.92
187.436	143.7
187.655	78.16
187.875	141.65
188.095	8.53
188.314	133.46
188.534	117.08
188.753	8.53
188.973	53.59
189.192	76.12
189.412	22.87
189.631	31.06
189.851	41.3
190.07	155.99
190.29	-9.9
190.509	-61.1
190.729	26.96
190.948	139.6
191.168	188.75
191.387	76.12
191.607	-30.38
191.826	51.54
192.045	-22.19
192.265	61.78
192.484	16.73
192.704	78.16
192.923	-61.1
193.142	176.47
193.362	139.6
193.581	127.32
193.8	-9.9
194.02	90.45
194.239	43.35
194.458	86.36
194.678	-38.57
194.897	-44.71
195.116	100.69
195.335	78.16
195.555	96.6
195.774	41.3
195.993	92.5
196.212	14.68
196.432	18.77
196.651	47.44
196.87	112.98
197.089	184.66
197.308	61.78
197.528	57.68
197.747	2.39
197.966	76.12
198.185	172.37
198.404	-13.99
198.623	100.69
198.842	108.88
199.062	88.4
199.281	90.45
199.5	14.68
199.719	98.64
199.938	12.63
200.157	94.55
200.376	145.75
200.595	110.93
200.814	12.63
201.033	-52.91
201.252	160.08
201.471	18.77
201.69	133.46
201.909	26.96
202.128	57.68
202.347	16.73
202.566	57.68
202.785	-26.28
203.004	35.16
203.223	190.8
203.442	121.17
203.661	22.87
203.879	35.16
204.098	76.12
204.317	-42.67
204.536	67.92
204.755	119.12
204.974	153.94
205.193	-59.05
205.411	162.13
205.63	121.17
205.849	53.59
206.068	24.92
206.287	-36.52
206.505	110.93
206.724	-7.85
206.943	20.82
207.162	55.64
207.381	22.87
207.599	22.87
207.818	86.36
208.037	-44.71
208.255	6.49
208.474	39.25
208.693	-5.8
208.911	6.49
209.13	65.88
209.349	82.26
209.567	112.98
209.786	100.69
210.005	131.41
210.223	53.59
210.442	-46.76
210.661	-30.38
210.879	12.63
211.098	0.34
211.316	2.39
211.535	18.77
211.753	-3.75
211.972	119.12
212.191	-52.91
212.409	-54.95
212.628	82.26
212.846	-81.58
213.065	57.68
213.283	121.17
213.502	8.53
213.72	-20.14
213.938	24.92
214.157	6.49
214.375	139.6
214.594	-1.71
214.812	76.12
215.031	59.73
215.249	-16.04
215.467	82.26
215.686	-34.47
215.904	96.6
216.122	78.16
216.341	61.78
216.559	41.3
216.778	117.08
216.996	119.12
217.214	-18.09
217.432	-73.39
217.651	20.82
217.869	88.4
218.087	86.36
218.306	-69.29
218.524	61.78
218.742	53.59
218.96	106.84
219.179	59.73
219.397	6.49
219.615	258.39
219.833	69.97
220.051	-73.39
220.27	115.03
220.488	88.4
220.706	53.59
220.924	-9.9
221.142	-61.1
221.36	-3.75
221.578	96.6
221.796	-16.04
222.015	104.79
222.233	88.4
222.451	90.45
222.669	-63.15
222.887	125.27
223.105	-20.14
223.323	18.77
223.541	4.44
223.759	33.11
223.977	16.73
224.195	147.8
224.413	119.12
224.631	-26.28
224.849	127.32
225.067	209.23
225.285	35.16
225.503	-18.09
225.721	-75.43
225.939	45.4
226.157	-3.75
226.375	227.67
226.592	-32.43
226.81	-52.91
227.028	63.83
227.246	96.6
227.464	92.5
227.682	112.98
227.9	49.49
228.117	-5.8
228.335	92.5
228.553	49.49
228.771	-32.43
228.989	43.35
229.206	88.4
229.424	-124.58
229.642	22.87
229.86	-7.85
230.077	198.99
230.295	53.59
230.513	149.84
230.731	88.4
230.948	155.99
231.166	176.47
231.384	-28.33
231.601	-3.75
231.819	141.65
232.037	92.5
232.254	-18.09
232.472	41.3
232.689	78.16
232.907	35.16
233.125	20.82
233.342	-5.8
233.56	-57
233.777	-79.53
233.995	29.01
234.213	176.47
234.43	88.4
234.648	39.25
234.865	74.07
235.083	29.01
235.3	-40.62
235.518	110.93
235.735	125.27
235.953	110.93
236.17	2.39
236.388	-9.9
236.605	35.16
236.822	104.79
237.04	127.32
237.257	137.56
237.475	-38.57
237.692	88.4
237.909	20.82
238.127	61.78
238.344	51.54
238.562	-7.85
238.779	-34.47
238.996	-16.04
239.214	22.87
239.431	35.16
239.648	-24.23
239.865	94.55
240.083	-1.71
240.3	33.11
240.517	2.39
240.735	14.68
240.952	92.5
241.169	80.21
241.386	90.45
241.603	-9.9
241.821	-50.86
242.038	108.88
242.255	106.84
242.472	-24.23
242.689	108.88
242.907	61.78
243.124	20.82
243.341	18.77
243.558	37.2
243.775	-59.05
243.992	-104.11
244.209	129.36
244.426	160.08
244.643	51.54
244.86	123.22
245.078	162.13
245.295	37.2
245.512	-26.28
245.729	106.84
245.946	35.16
246.163	0.34
246.38	35.16
246.597	45.4
246.814	31.06
247.031	51.54
247.248	31.06
247.464	51.54
247.681	-42.67
247.898	43.35
248.115	37.2
248.332	-28.33
248.549	151.89
248.766	174.42
248.983	59.73
249.2	43.35
249.417	35.16
249.633	-28.33
249.85	129.36
250.067	47.44
250.284	12.63
250.501	2.39
250.717	39.25
250.934	-116.39
251.151	47.44
251.368	10.58
251.585	51.54
251.801	80.21
252.018	-63.15
252.235	57.68
252.451	-1.71
252.668	63.83
252.885	135.51
253.102	31.06
253.318	4.44
253.535	51.54
253.752	-7.85
253.968	57.68
254.185	-5.8
254.401	45.4
254.618	88.4
254.835	-24.23
255.051	76.12
255.268	22.87
255.484	0.34
255.701	-18.09
255.917	82.26
256.134	-48.81
256.351	61.78
256.567	-95.91
256.784	22.87
257	-126.63
257.217	123.22
257.433	110.93
257.65	63.83
257.866	35.16
258.082	-87.72
258.299	10.58
258.515	92.5
258.732	10.58
258.948	-30.38
259.165	106.84
259.381	-22.19
259.597	121.17
259.814	53.59
260.03	45.4
260.246	20.82
260.463	86.36
260.679	119.12
260.895	18.77
261.112	-9.9
261.328	55.64
261.544	-24.23
261.761	176.47
261.977	37.2
262.193	6.49
262.409	72.02
262.626	88.4
262.842	16.73
263.058	14.68
263.274	106.84
263.49	49.49
263.707	129.36
263.923	72.02
264.139	-59.05
264.355	51.54
264.571	166.23
264.787	76.12
265.004	94.55
265.22	8.53
265.436	-20.14
265.652	67.92
265.868	51.54
266.084	10.58
266.3	45.4
266.516	24.92
266.732	59.73
266.948	57.68
267.164	47.44
267.38	143.7
267.596	29.01
267.812	203.09
268.028	119.12
268.244	31.06
268.46	147.8
268.676	33.11
268.892	35.16
269.108	-32.43
269.324	-95.91
269.54	-26.28
269.756	39.25
269.972	-54.95
270.188	-28.33
270.403	-3.75
270.619	-1.71
270.835	92.5
271.051	65.88
271.267	12.63
271.483	-36.52
271.698	151.89
271.914	74.07
272.13	-9.9
272.346	-46.76
272.562	65.88
272.777	133.46
272.993	24.92
273.209	-36.52
273.425	104.79
273.64	-59.05
273.856	65.88
274.072	-75.43
274.287	6.49
274.503	106.84
274.719	92.5
274.934	-46.76
275.15	-54.95
275.366	-24.23
275.581	-71.34
275.797	-3.75
276.012	72.02
276.228	-52.91
276.444	86.36
276.659	94.55
276.875	53.59
277.09	-3.75
277.306	-26.28
277.521	65.88
277.737	-16.04
277.952	57.68
278.168	-54.95
278.383	10.58
278.599	14.68
278.814	72.02
279.03	29.01
279.245	53.59
279.461	84.31
279.676	0.34
279.892	-9.9
280.107	-32.43
280.322	-24.23
280.538	53.59
280.753	55.64
280.969	65.88
281.184	67.92
281.399	139.6
281.615	-34.47
281.83	37.2
282.045	-63.15
282.26	-28.33
282.476	-50.86
282.691	20.82
282.906	129.36
283.122	22.87
283.337	6.49
283.552	10.58
283.767	59.73
283.983	61.78
284.198	-50.86
284.413	98.64
284.628	-124.58
284.843	55.64
285.058	57.68
285.274	16.73
285.489	43.35
285.704	125.27
285.919	-48.81
286.134	24.92
286.349	49.49
286.564	22.87
286.779	170.32
286.995	-28.33
287.21	10.58
287.425	82.26
287.64	4.44
287.855	29.01
288.07	-3.75
288.285	33.11
288.5	108.88
288.715	8.53
288.93	-59.05
289.145	-52.91
289.36	182.61
289.575	78.16
289.79	92.5
290.004	-75.43
290.219	112.98
290.434	8.53
290.649	-46.76
290.864	-81.58
291.079	2.39
291.294	61.78
291.509	14.68
291.724	16.73
291.938	14.68
292.153	35.16
292.368	12.63
292.583	67.92
292.798	104.79
293.012	69.97
293.227	43.35
293.442	4.44
293.657	96.6
293.871	49.49
294.086	53.59
294.301	170.32
294.516	94.55
294.73	59.73
294.945	-97.96
295.16	-13.99
295.374	37.2
295.589	84.31
295.804	-22.19
296.018	-9.9
296.233	86.36
296.447	61.78
296.662	-11.95
296.877	127.32
297.091	112.98
297.306	6.49
297.52	51.54
297.735	-9.9
297.949	22.87
298.164	57.68
298.378	94.55
298.593	-136.87
298.807	49.49
299.022	86.36
299.236	84.31
299.451	-7.85
299.665	-26.28
299.88	-16.04
300.094	69.97
300.309	16.73
300.523	115.03
300.737	47.44
300.952	131.41
301.166	84.31
301.381	-52.91
301.595	20.82
301.809	45.4
302.024	-5.8
302.238	-59.05
302.452	94.55
302.667	-30.38
302.881	205.14
303.095	98.64
303.309	69.97
303.524	-38.57
303.738	18.77
303.952	-22.19
304.166	31.06
304.381	-61.1
304.595	153.94
304.809	-11.95
305.023	-1.71
305.237	-26.28
305.452	53.59
305.666	104.79
305.88	47.44
306.094	43.35
306.308	14.68
306.522	55.64
306.736	29.01
306.95	100.69
307.164	133.46
307.379	6.49
307.593	137.56
307.807	98.64
308.021	123.22
308.235	84.31
308.449	-67.24
308.663	55.64
308.877	174.42
309.091	55.64
309.305	51.54
309.519	-100.01
309.733	178.51
309.947	-91.82
310.161	59.73
310.374	29.01
310.588	65.88
310.802	-50.86
311.016	-1.71
311.23	88.4
311.444	-93.87
311.658	18.77
311.872	96.6
312.085	158.03
312.299	55.64
312.513	166.23
312.727	22.87
312.941	-20.14
313.154	47.44
313.368	8.53
313.582	14.68
313.796	10.58
314.009	82.26
314.223	119.12
314.437	67.92
314.651	69.97
314.864	-40.62
315.078	10.58
315.292	-71.34
315.505	35.16
315.719	61.78
315.933	49.49
316.146	67.92
316.36	-11.95
316.573	198.99
316.787	117.08
317.001	4.44
317.214	12.63
317.428	0.34
317.641	-52.91
317.855	12.63
318.068	76.12
318.282	86.36
318.495	190.8
318.709	-1.71
318.922	-46.76
319.136	123.22
319.349	29.01
319.563	6.49
319.776	47.44
319.99	-50.86
320.203	141.65
320.417	76.12
320.63	6.49
320.843	162.13
321.057	8.53
321.27	-1.71
321.483	86.36
321.697	119.12
321.91	33.11
322.124	26.96
322.337	74.07
322.55	-3.75
322.763	-34.47
322.977	74.07
323.19	96.6
323.403	100.69
323.617	43.35
323.83	100.69
324.043	-65.19
324.256	43.35
324.469	-28.33
324.683	153.94
324.896	8.53
325.109	47.44
325.322	-22.19
325.535	72.02
325.748	69.97
325.962	53.59
326.175	57.68
326.388	65.88
326.601	143.7
326.814	-1.71
327.027	51.54
327.24	139.6
327.453	-130.73
327.666	100.69
327.879	172.37
328.092	24.92
328.305	63.83
328.518	-9.9
328.731	-3.75
328.944	57.68
329.157	80.21
329.37	-1.71
329.583	180.56
329.796	131.41
330.009	-104.11
330.222	51.54
330.435	69.97
330.648	14.68
330.861	59.73
331.073	6.49
331.286	96.6
331.499	-50.86
331.712	-36.52
331.925	98.64
332.138	35.16
332.35	86.36
332.563	-1.71
332.776	90.45
332.989	-32.43
333.202	-67.24
333.414	35.16
333.627	-26.28
333.84	98.64
334.053	41.3
334.265	6.49
334.478	-34.47
334.691	-42.67
334.903	98.64
335.116	-61.1
335.329	-67.24
335.541	119.12
335.754	127.32
335.966	-57
336.179	59.73
336.392	-52.91
336.604	88.4
336.817	158.03
337.029	-3.75
337.242	74.07
337.454	69.97
337.667	-9.9
337.88	160.08
338.092	37.2
338.305	20.82
338.517	-24.23
338.729	69.97
338.942	110.93
339.154	-81.58
339.367	-7.85
339.579	35.16
339.792	-1.71
340.004	59.73
340.217	26.96
340.429	76.12
340.641	-11.95
340.854	18.77
341.066	53.59
341.278	92.5
341.491	125.27
341.703	-20.14
341.915	-67.24
342.128	143.7
342.34	29.01
342.552	22.87
342.764	4.44
342.977	37.2
343.189	76.12
343.401	65.88
343.613	-77.48
343.826	61.78
344.038	8.53
344.25	90.45
344.462	-61.1
344.674	4.44
344.886	-24.23
345.099	-20.14
345.311	51.54
345.523	-22.19
345.735	-108.2
345.947	84.31
346.159	16.73
346.371	22.87
346.583	-59.05
346.795	174.42
347.007	-9.9
347.219	72.02
347.431	16.73
347.643	84.31
347.855	-3.75
348.067	137.56
348.279	8.53
348.491	43.35
348.703	45.4
348.915	24.92
349.127	8.53
349.339	22.87
349.551	-28.33
349.763	18.77
349.975	16.73
350.187	72.02
350.399	100.69
350.61	153.94
350.822	-75.43
351.034	72.02
351.246	49.49
351.458	43.35
351.669	80.21
351.881	80.21
352.093	129.36
352.305	112.98
352.517	90.45
352.728	69.97
352.94	-3.75
353.152	26.96
353.363	-48.81
353.575	92.5
353.787	158.03
353.999	135.51
354.21	180.56
354.422	12.63
354.633	20.82
354.845	31.06
355.057	-61.1
355.268	72.02
355.48	59.73
355.692	-77.48
355.903	37.2
356.115	-46.76
356.326	-91.82
356.538	119.12
356.749	82.26
356.961	155.99
357.172	18.77
357.384	-52.91
357.595	184.66
357.807	-69.29
358.018	10.58
358.23	18.77
358.441	158.03
358.653	65.88
358.864	29.01
359.075	-83.63
359.287	4.44
359.498	112.98
359.709	59.73
359.921	8.53
360.132	26.96
360.344	-38.57
360.555	43.35
360.766	14.68
360.977	-52.91
361.189	102.74
361.4	-13.99
361.611	139.6
361.823	65.88
362.034	41.3
362.245	-69.29
362.456	31.06
362.667	41.3
362.879	-69.29
363.09	98.64
363.301	72.02
363.512	57.68
363.723	-36.52
363.935	59.73
364.146	145.75
364.357	-11.95
364.568	33.11
364.779	-79.53
364.99	106.84
365.201	-18.09
365.412	117.08
365.623	-18.09
365.834	69.97
366.045	104.79
366.256	129.36
366.467	117.08
366.678	31.06
366.889	63.83
367.1	-46.76
367.311	74.07
367.522	-54.95
367.733	108.88
367.944	-5.8
368.155	6.49
368.366	92.5
368.577	78.16
368.788	112.98
368.999	6.49
369.209	41.3
369.42	209.23
369.631	176.47
369.842	10.58
370.053	39.25
370.264	147.8
370.474	-18.09
370.685	74.07
370.896	31.06
371.107	135.51
371.317	96.6
371.528	49.49
371.739	110.93
371.95	24.92
372.16	135.51
372.371	-22.19
372.582	61.78
372.792	94.55
373.003	51.54
373.214	108.88
373.424	94.55
373.635	-32.43
373.846	98.64
374.056	-46.76
374.267	121.17
374.477	55.64
374.688	-52.91
374.898	86.36
375.109	35.16
375.319	-9.9
375.53	112.98
375.74	121.17
375.951	-57
376.161	22.87
376.372	137.56
376.582	-22.19
376.793	67.92
377.003	-54.95
377.214	51.54
377.424	26.96
377.635	24.92
377.845	37.2
378.055	168.27
378.266	-75.43
378.476	20.82
378.686	94.55
378.897	84.31
379.107	137.56
379.317	53.59
379.528	22.87
379.738	78.16
379.948	-59.05
380.158	125.27
380.369	33.11
380.579	88.4
380.789	29.01
380.999	94.55
381.21	65.88
381.42	168.27
381.63	37.2
381.84	133.46
382.05	74.07
382.261	160.08
382.471	162.13
382.681	-36.52
382.891	88.4
383.101	45.4
383.311	63.83
383.521	-11.95
383.731	104.79
383.941	125.27
384.151	45.4
384.361	-26.28
384.571	133.46
384.781	-1.71
384.991	135.51
385.201	198.99
385.411	84.31
385.621	47.44
385.831	82.26
386.041	88.4
386.251	10.58
386.461	127.32
386.671	74.07
386.881	84.31
387.091	-26.28
387.301	43.35
387.511	-5.8
387.72	37.2
387.93	98.64
388.14	-71.34
388.35	43.35
388.56	106.84
388.769	213.33
388.979	26.96
389.189	-7.85
389.399	-1.71
389.609	26.96
389.818	84.31
390.028	61.78
390.238	2.39
390.447	4.44
390.657	55.64
390.867	22.87
391.076	-11.95
391.286	10.58
391.496	47.44
391.705	-28.33
391.915	211.28
392.125	82.26
392.334	-13.99
392.544	110.93
392.753	31.06
392.963	-26.28
393.172	119.12
393.382	41.3
393.591	188.75
393.801	-28.33
394.01	160.08
394.22	80.21
394.429	43.35
394.639	63.83
394.848	49.49
395.058	-5.8
395.267	-7.85
395.477	61.78
395.686	76.12
395.895	102.74
396.105	158.03
396.314	51.54
396.524	-26.28
396.733	14.68
396.942	98.64
397.152	59.73
397.361	65.88
397.57	26.96
397.78	-11.95
397.989	43.35
398.198	129.36
398.407	51.54
398.617	43.35
398.826	129.36
399.035	-26.28
399.244	51.54
399.453	137.56
399.663	18.77
399.872	26.96
400.081	-36.52
400.29	108.88
400.499	-50.86
400.708	96.6
400.917	6.49
401.127	4.44
401.336	-46.76
401.545	153.94
401.754	90.45
401.963	88.4
402.172	29.01
402.381	-63.15
402.59	-52.91
402.799	47.44
403.008	149.84
403.217	76.12
403.426	57.68
403.635	-69.29
403.844	16.73
404.053	-3.75
404.262	31.06
404.471	196.95
404.68	55.64
404.888	43.35
405.097	51.54
405.306	57.68
405.515	84.31
405.724	8.53
405.933	18.77
406.142	18.77
406.35	45.4
406.559	104.79
406.768	55.64
406.977	166.23
407.185	33.11
407.394	57.68
407.603	-102.06
407.812	33.11
408.02	133.46
408.229	135.51
408.438	174.42
408.646	-44.71
408.855	-3.75
409.064	2.39
409.272	-22.19
409.481	49.49
409.69	-50.86
409.898	67.92
410.107	61.78
410.315	43.35
410.524	-65.19
410.733	-18.09
410.941	-16.04
411.15	78.16
411.358	26.96
411.567	178.51
411.775	82.26
411.984	47.44
412.192	90.45
412.401	84.31
412.609	190.8
412.818	196.95
413.026	33.11
413.234	8.53
413.443	110.93
413.651	-11.95
413.86	63.83
414.068	176.47
414.276	131.41
414.485	12.63
414.693	143.7
414.901	162.13
415.11	110.93
415.318	84.31
415.526	61.78
415.734	143.7
415.943	47.44
416.151	119.12
416.359	18.77
416.567	18.77
416.776	0.34
416.984	24.92
417.192	270.67
417.4	22.87
417.608	35.16
417.817	-18.09
418.025	112.98
418.233	201.04
418.441	-30.38
418.649	-24.23
418.857	55.64
419.065	98.64
419.273	-30.38
419.481	131.41
419.689	65.88
419.897	51.54
420.105	-7.85
420.313	145.75
420.521	108.88
420.729	74.07
420.937	47.44
421.145	-75.43
421.353	57.68
421.561	102.74
421.769	147.8
421.977	4.44
422.185	178.51
422.393	0.34
422.601	166.23
422.809	110.93
423.017	31.06
423.224	-5.8
423.432	33.11
423.64	4.44
423.848	143.7
424.056	-61.1
424.263	96.6
424.471	24.92
424.679	117.08
424.887	-20.14
425.094	135.51
425.302	100.69
425.51	12.63
425.718	123.22
425.925	65.88
426.133	-18.09
426.341	176.47
426.548	39.25
426.756	12.63
426.964	4.44
427.171	-16.04
427.379	98.64
427.586	35.16
427.794	88.4
428.001	94.55
428.209	84.31
428.417	145.75
428.624	106.84
428.832	78.16
429.039	117.08
429.247	125.27
429.454	20.82
429.662	190.8
429.869	158.03
430.076	100.69
430.284	112.98
430.491	188.75
430.699	139.6
430.906	104.79
431.114	74.07
431.321	100.69
431.528	4.44
431.736	55.64
431.943	131.41
432.15	31.06
432.358	82.26
432.565	256.34
432.772	-30.38
432.979	82.26
433.187	108.88
433.394	151.89
433.601	80.21
433.808	133.46
434.016	184.66
434.223	164.18
434.43	180.56
434.637	213.33
434.844	182.61
435.052	194.9
435.259	143.7
435.466	184.66
435.673	141.65
435.88	170.32
436.087	291.15
436.294	213.33
436.501	260.43
436.708	125.27
436.915	211.28
437.122	254.29
437.329	121.17
437.537	201.04
437.743	203.09
437.95	244.05
438.157	317.78
438.364	293.2
438.571	278.87
438.778	317.78
438.985	356.69
439.192	293.2
439.399	219.47
439.606	319.82
439.813	379.22
440.02	360.78
440.227	436.56
440.433	389.46
440.64	368.98
440.847	393.55
441.054	397.65
441.261	420.17
441.467	375.12
441.674	414.03
441.881	420.17
442.088	381.26
442.294	516.43
442.501	500.05
442.708	491.85
442.914	522.57
443.121	545.1
443.328	602.44
443.534	610.64
443.741	612.68
443.948	504.14
444.154	633.16
444.361	792.91
444.568	653.64
444.774	727.37
444.981	577.87
445.187	842.06
445.394	837.96
445.6	676.17
445.807	809.29
446.013	753.99
446.22	821.58
446.426	934.22
446.633	993.61
446.839	1069.38
447.046	942.41
447.252	1087.81
447.459	1071.43
447.665	1118.53
447.871	1235.27
448.078	1339.71
448.284	1339.71
448.491	1362.24
448.697	1382.72
448.903	1364.29
449.11	1489.21
449.316	1497.41
449.522	1575.23
449.728	1683.77
449.935	1708.35
450.141	1732.92
450.347	1888.57
450.553	1767.74
450.76	1669.44
450.966	1939.77
451.172	1993.01
451.378	2031.93
451.584	2103.61
451.791	2388.27
451.997	2273.59
452.203	2343.22
452.409	2429.23
452.615	2701.61
452.821	2494.77
453.027	2668.84
453.233	2916.65
453.44	2793.77
453.646	2834.73
453.852	3037.48
454.058	3066.15
454.264	3096.87
454.47	3426.59
454.676	3510.56
454.882	3758.36
455.088	3760.41
455.294	3782.94
455.5	4106.52
455.705	4329.75
455.911	4348.18
456.117	4415.76
456.323	4641.04
456.529	4667.66
456.735	4929.8
456.941	5187.85
457.147	5273.86
457.352	5460.23
457.558	5587.2
457.764	5918.97
457.97	6080.76
458.176	6408.44
458.381	6758.64
458.587	6963.44
458.793	7084.27
458.999	6981.87
459.204	7966.94
459.41	8204.5
459.616	7952.6
459.821	8632.53
460.027	8896.72
460.233	9681.09
460.438	9466.05
460.644	9994.43
460.85	10068.16
461.055	10457.27
461.261	10860.72
461.466	10678.45
461.672	11124.91
461.878	12216.47
462.083	12396.7
462.289	12310.68
462.494	12984.46
462.7	12974.22
462.905	13111.44
463.111	14465.14
463.316	14999.66
463.522	15294.57
463.727	15415.4
463.932	16240.73
464.138	16896.08
464.343	17514.57
464.549	17629.26
464.754	18972.72
464.959	19154.99
465.165	19691.56
465.37	19957.8
465.575	19677.23
465.781	20809.75
465.986	21846.02
466.191	21516.3
466.397	21188.63
466.602	21030.93
466.807	22368.26
467.012	22763.51
467.218	22839.29
467.423	22917.11
467.628	23693.29
467.833	25010.14
468.038	24594.4
468.244	23971.82
468.449	25204.69
468.654	25001.94
468.859	24678.36
469.064	24731.61
469.269	23928.81
469.474	24680.41
469.679	25069.53
469.885	24489.95
470.09	24666.08
470.295	24920.03
470.5	24299.49
470.705	24569.82
470.91	23785.45
471.115	23746.54
471.32	24168.42
471.525	23918.57
471.73	23474.16
471.935	23250.93
472.139	22255.62
472.344	22317.06
472.549	22114.31
472.754	21917.7
472.959	21147.67
473.164	20574.24
473.369	20250.66
473.574	20711.45
473.778	20279.33
473.983	20119.59
474.188	19785.77
474.393	18599.99
474.598	18780.21
474.802	18563.13
475.007	18104.39
475.212	17834.05
475.417	16881.75
475.621	17086.54
475.826	16912.47
476.031	16472.15
476.235	16101.47
476.44	15974.5
476.645	15804.52
476.849	15546.47
477.054	15186.03
477.259	14760.05
477.463	14786.68
477.668	14450.81
477.872	14585.97
478.077	13994.11
478.282	13602.95
478.486	13375.63
478.691	13488.26
478.895	13412.49
479.1	13338.76
479.304	13006.99
479.509	12658.84
479.713	12947.6
479.918	12714.13
480.122	12251.29
480.326	12503.19
480.531	12345.5
480.735	12189.85
480.94	11864.22
481.144	12478.61
481.348	11778.21
481.553	11792.55
481.757	11540.65
481.961	11561.12
482.166	11661.48
482.37	11493.54
482.574	11139.24
482.778	11163.82
482.983	11210.92
483.187	10950.83
483.391	11114.67
483.595	11014.32
483.8	10627.25
484.004	10832.05
484.208	10887.34
484.412	10633.4
484.616	10518.71
484.821	10510.52
485.025	9994.43
485.229	10264.76
485.433	10043.58
485.637	9867.45
485.841	9660.61
486.045	9672.9
486.249	9709.76
486.453	9291.98
486.657	9195.72
486.861	9179.34
487.065	8906.96
487.269	8988.88
487.473	8425.68
487.677	8673.49
487.881	8712.4
488.085	8435.92
488.289	8263.9
488.493	7958.75
488.697	7966.94
488.901	7887.07
489.105	7364.84
489.309	7596.26
489.512	7586.02
489.716	7229.67
489.92	7233.77
490.124	7121.13
490.328	7088.36
490.531	6715.63
490.735	6861.04
490.939	6711.53
491.143	6539.51
491.346	6420.72
491.55	6306.04
491.754	6179.06
491.958	6115.58
492.161	6068.47
492.365	5912.83
492.569	5759.23
492.772	5855.48
492.976	6037.75
493.18	5617.92
493.383	5847.29
493.587	5546.24
493.79	5792
493.994	5511.43
494.197	5337.35
494.401	5382.4
494.605	5398.79
494.808	5312.77
495.012	5163.27
495.215	5282.05
495.419	5378.31
495.622	5107.98
495.825	5062.92
496.029	5230.85
496.232	4958.47
496.436	4978.95
496.639	5120.26
496.843	4944.14
497.046	5030.15
497.249	5333.25
497.453	5089.54
497.656	5212.42
497.859	5103.88
498.063	5128.46
498.266	5288.2
498.469	5120.26
498.673	5067.02
498.876	5071.11
499.079	5107.98
499.282	5210.37
499.485	5630.21
499.689	5421.31
499.892	5540.1
500.095	5353.73
500.298	5517.57
500.501	5540.1
500.705	5499.14
500.908	5585.15
501.111	5587.2
501.314	5734.65
501.517	5878.01
501.72	5830.91
501.923	5892.35
502.126	6164.73
502.329	6121.72
502.532	6154.49
502.735	6191.35
502.938	6297.85
503.141	6265.08
503.344	6256.89
503.547	6582.51
503.75	6576.37
503.953	6701.3
504.156	6877.42
504.359	6971.63
504.562	6977.77
504.765	7125.22
504.968	7352.55
505.17	7315.69
505.373	7407.84
505.576	7606.5
505.779	7815.39
505.982	7782.62
506.185	7940.32
506.387	7948.51
506.59	8247.51
506.793	8476.88
506.996	8556.75
507.198	9031.88
507.401	9103.56
507.604	9248.97
507.807	9566.4
508.009	9611.46
508.212	9832.64
508.415	10037.44
508.617	10184.89
508.82	10246.33
509.022	10356.92
509.225	10967.21
509.428	11094.19
509.63	11319.46
509.833	11317.42
510.035	12171.42
510.238	11917.47
510.44	12351.64
510.643	12638.36
510.845	12992.66
511.048	12920.98
511.25	13592.71
511.453	13791.36
511.655	14424.19
511.858	14547.06
512.06	14833.78
512.262	15192.17
512.465	15175.79
512.667	15933.54
512.87	16275.55
513.072	16595.03
513.274	17180.75
513.477	17229.9
513.679	17731.65
513.881	18264.13
514.084	18585.66
514.286	19101.75
514.488	19503.15
514.69	20316.19
514.893	20351.01
515.095	20944.92
515.297	21600.27
515.499	21800.97
515.701	22372.35
515.904	22730.75
516.106	23668.72
516.308	24096.74
516.51	24795.1
516.712	24721.37
516.914	25597.9
517.116	26138.57
517.318	26249.16
517.52	27244.47
517.722	27029.43
517.925	27965.35
518.127	28909.47
518.329	28997.53
518.531	29022.11
518.733	30041.99
518.935	30543.75
519.136	31238.01
519.338	31930.22
519.54	32554.85
519.742	32952.16
519.944	33476.44
520.146	34099.02
520.348	34142.03
520.55	34977.6
520.752	35129.15
520.954	35999.54
521.155	36450.09
521.357	37056.29
521.559	37361.44
521.761	38377.23
521.963	38326.03
522.164	38821.64
522.366	38784.77
522.568	39239.42
522.77	39536.38
522.971	40251.12
523.173	40107.76
523.375	40642.28
523.576	40883.94
523.778	41416.41
523.98	41559.77
524.181	41967.32
524.383	41799.38
524.584	42540.75
524.786	42495.69
524.988	42352.34
525.189	42866.38
525.391	42733.26
525.592	42794.7
525.794	42987.21
525.995	42903.24
526.197	43013.83
526.398	42933.96
526.6	43237.06
526.801	43011.78
527.003	42589.9
527.204	42880.71
527.406	43034.31
527.607	42325.71
527.808	42682.06
528.01	41969.36
528.211	42206.93
528.412	42227.41
528.614	41901.78
528.815	41664.22
529.016	41711.32
529.218	40734.44
529.419	40562.41
529.62	40707.82
529.822	39943.92
530.023	39554.81
530.224	39505.66
530.425	38962.95
530.626	38647.56
530.828	38283.02
531.029	38280.97
531.23	37449.5
531.431	36833.06
531.632	37189.41
531.833	36898.59
532.035	36015.92
532.236	35841.84
532.437	35505.98
532.638	34838.34
532.839	34309.96
533.04	34590.53
533.241	33609.56
533.442	33603.41
533.643	32704.35
533.844	32614.24
534.045	32315.24
534.246	31647.6
534.447	31207.29
534.648	30748.54
534.849	30371.72
535.05	29857.68
535.251	29540.24
535.451	29491.09
535.652	28829.6
535.853	28610.46
536.054	28229.54
536.255	27901.87
536.456	27217.85
536.657	26853.31
536.857	26898.36
537.058	26369.99
537.259	26185.67
537.46	25956.3
537.66	25178.07
537.861	25374.67
538.062	24643.55
538.263	24661.98
538.463	23896.04
538.664	23779.31
538.865	23574.51
539.065	23484.4
539.266	22771.71
539.466	22827
539.667	22292.48
539.868	22558.72
540.068	21821.45
540.269	21600.27
540.469	21655.56
540.67	20969.49
540.87	20877.33
541.071	20633.63
541.271	20490.27
541.472	20033.57
541.672	19910.69
541.873	19454
542.073	19331.12
542.274	19316.78
542.474	19120.18
542.675	18782.26
542.875	18870.33
543.075	18399.29
543.276	18157.63
543.476	18188.35
543.676	17811.53
543.877	17721.41
544.077	17537.1
544.277	17580.11
544.478	17035.35
544.678	16980.05
544.878	16623.7
545.078	16547.93
545.279	16191.58
545.479	15968.35
545.679	15644.77
545.879	15868
546.079	15759.46
546.28	15188.08
546.48	15020.14
546.68	14979.18
546.88	14979.18
547.08	14844.02
547.28	14436.47
547.48	14182.52
547.68	14098.56
547.88	14035.07
548.081	13881.47
548.281	13799.55
548.481	13437.06
548.681	13445.26
548.881	13396.1
549.081	13058.19
549.28	12867.73
549.48	12677.27
549.68	12521.62
549.88	12509.33
550.08	12099.74
550.28	12030.11
550.48	11849.89
550.68	11743.39
550.88	11514.02
551.08	11471.01
551.279	11284.65
551.479	10809.52
551.679	11040.94
551.879	10713.27
552.079	10696.88
552.278	10315.96
552.478	10102.97
552.678	10105.02
552.878	10115.26
553.077	9896.13
553.277	9525.44
553.477	9609.41
553.676	9277.64
553.876	9195.72
554.076	8886.48
554.275	8866
554.475	8630.48
554.674	8739.02
554.874	8581.33
555.074	8233.18
555.273	8362.2
555.473	8204.5
555.672	7887.07
555.872	7739.62
556.071	7571.68
556.271	7731.42
556.47	7457
556.67	7174.38
556.869	7266.53
557.068	7108.84
557.268	6871.28
557.467	6848.75
557.667	6715.63
557.866	6682.86
558.065	6484.21
558.265	6269.17
558.464	6402.29
558.663	6340.85
558.863	6142.2
559.062	6103.29
559.261	5851.39
559.461	5765.37
559.66	5701.89
559.859	5572.86
560.058	5411.07
560.258	5320.96
560.457	5357.83
560.656	5351.68
560.855	5216.52
561.054	5214.47
561.253	5054.73
561.453	5128.46
561.652	4825.36
561.851	4841.74
562.05	4569.36
562.249	4702.48
562.448	4579.6
562.647	4491.54
562.846	4405.52
563.045	4444.43
563.244	4362.51
563.443	4339.99
563.642	4118.81
563.841	4266.26
564.04	3993.88
564.239	4145.43
564.438	3991.83
564.637	3608.86
564.836	3821.85
565.035	3766.56
565.234	3617.05
565.432	3647.77
565.631	3547.42
565.83	3502.37
566.029	3512.61
566.228	3432.74
566.427	3457.31
566.625	3248.42
566.824	3371.3
567.023	3113.25
567.222	3131.69
567.42	3131.69
567.619	3121.45
567.818	2994.47
568.016	3201.32
568.215	3123.49
568.414	2967.85
568.612	2912.55
568.811	2857.26
569.01	2722.09
569.208	2765.1
569.407	2736.43
569.605	2746.67
569.804	2666.8
570.002	2566.45
570.201	2445.62
570.4	2621.74
570.598	2318.64
570.797	2410.8
570.995	2294.07
571.193	2371.89
571.392	2328.88
571.59	2154.8
571.789	2214.2
571.987	2271.54
572.186	2287.92
572.384	2013.49
572.582	2175.28
572.781	2232.63
572.979	2050.36
573.177	2134.32
573.376	1995.06
573.574	2029.88
573.772	1907
573.971	1847.61
574.169	1853.75
574.367	1786.17
574.565	1741.11
574.763	1679.68
574.962	1698.11
575.16	1610.04
575.358	1655.1
575.556	1677.63
575.754	1677.63
575.952	1497.41
576.151	1671.48
576.349	1562.94
576.547	1368.38
576.745	1571.13
576.943	1509.69
577.141	1425.73
577.339	1415.49
577.537	1415.49
577.735	1501.5
577.933	1442.11
578.131	1259.84
578.329	1407.3
578.527	1280.32
578.725	1319.23
578.923	1139.01
579.121	1341.76
579.319	1001.8
579.516	1081.67
579.714	1358.14
579.912	1175.88
580.11	1130.82
580.308	1091.91
580.506	1053
580.704	983.37
580.901	897.35
581.099	1112.39
581.297	1020.23
581.495	1016.13
581.692	962.89
581.89	1149.25
582.088	1009.99
582.285	952.65
582.483	852.3
582.681	932.17
582.878	917.83
583.076	946.5
583.274	858.44
583.471	862.54
583.669	745.8
583.866	850.25
584.064	799.05
584.262	715.08
584.459	780.62
584.657	786.76
584.854	835.91
585.052	696.65
585.249	760.14
585.447	837.96
585.644	581.96
585.841	827.72
586.039	745.8
586.236	780.62
586.434	727.37
586.631	665.93
586.828	618.83
587.026	616.78
587.223	635.21
587.42	596.3
587.618	721.23
587.815	696.65
588.012	690.51
588.21	627.02
588.407	567.63
588.604	635.21
588.801	524.62
588.999	524.62
589.196	639.31
589.393	567.63
589.59	555.34
589.787	633.16
589.984	606.54
590.182	573.77
590.379	543.05
590.576	584.01
590.773	606.54
590.97	506.19
591.167	561.48
591.364	616.78
591.561	528.72
591.758	541.01
591.955	543.05
592.152	442.7
592.349	512.33
592.546	473.42
592.743	565.58
592.94	495.95
593.137	592.2
593.334	528.72
593.531	612.68
593.727	598.35
593.924	588.11
594.121	471.37
594.318	436.56
594.515	543.05
594.712	606.54
594.908	633.16
595.105	452.94
595.302	586.06
595.499	614.73
595.696	663.88
595.892	534.86
596.089	569.68
596.286	588.11
596.482	702.79
596.679	682.31
596.876	530.77
597.072	717.13
597.269	581.96
597.466	629.07
597.662	606.54
597.859	637.26
598.055	624.97
598.252	799.05
598.448	694.6
598.645	825.67
598.841	768.33
599.038	915.78
599.234	897.35
599.431	848.2
599.627	936.26
599.824	981.32
600.02	1042.76
600.217	1030.47
600.413	1001.8
600.609	1116.48
600.806	1261.89
601.002	1204.55
601.198	1153.35
601.395	1265.99
601.591	1374.53
601.787	1280.32
601.984	1405.25
602.18	1468.73
602.376	1415.49
602.572	1618.24
602.769	1581.37
602.965	1591.61
603.161	1739.07
603.357	1827.13
603.553	1970.49
603.75	1825.08
603.946	1943.86
604.142	1970.49
604.338	2199.86
604.534	2021.69
604.73	2298.16
604.926	2249.01
605.122	2353.46
605.318	2324.79
605.514	2599.21
605.71	2564.4
605.906	2752.81
606.102	2715.95
606.298	2812.2
606.494	2996.52
606.69	3078.44
606.886	3035.43
607.082	3164.45
607.278	3195.17
607.474	3359.01
607.67	3492.13
607.866	3318.05
608.062	3709.21
608.257	3817.76
608.453	3698.97
608.649	3985.69
608.845	3877.15
609.041	4014.36
609.236	4053.27
609.432	4393.23
609.628	4491.54
609.824	4573.46
610.019	4743.44
610.215	4802.83
610.411	4937.99
610.606	5107.98
610.802	5228.81
610.998	5308.68
611.193	5550.34
611.389	5525.76
611.584	5824.76
611.78	5847.29
611.976	6113.53
612.171	6492.4
612.367	6252.79
612.562	6437.11
612.758	6557.94
612.953	6803.69
613.149	6910.19
613.344	7018.73
613.539	7340.26
613.735	7514.34
613.93	7856.35
614.126	7932.12
614.321	8202.46
614.517	8286.42
614.712	8638.67
614.907	8618.19
615.103	8984.78
615.298	9130.19
615.493	9425.09
615.688	9537.73
615.884	9955.52
616.079	9935.04
616.274	10397.88
616.47	10662.07
616.665	10954.93
616.86	10879.15
617.055	11354.28
617.25	11583.65
617.445	12148.89
617.641	11896.99
617.836	12572.82
618.031	12566.68
618.226	13217.93
618.421	13629.57
618.616	13754.5
618.811	13750.4
619.006	14301.31
619.201	14590.07
619.396	14942.32
619.591	15044.72
619.786	15773.8
619.981	15876.2
620.176	16392.28
620.371	16293.98
620.566	16969.81
620.761	17303.63
620.956	17758.28
621.151	17915.97
621.346	18229.31
621.541	18470.97
621.735	19068.98
621.93	19171.38
622.125	19458.09
622.32	19763.24
622.515	20496.41
622.709	20604.95
622.904	20983.83
623.099	21172.24
623.294	21743.63
623.488	21999.62
623.683	22558.72
623.878	22286.34
624.072	23244.79
624.267	23494.64
624.462	23850.99
624.656	23904.23
624.851	24760.28
625.046	24823.77
625.24	25298.9
625.435	25587.66
625.629	26195.91
625.824	26193.86
626.018	26488.77
626.213	26267.59
626.407	27119.54
626.602	27465.65
626.796	27742.13
626.991	28028.84
627.185	27914.16
627.38	28610.46
627.574	28557.22
627.768	29034.39
627.963	28712.86
628.157	28682.14
628.352	29202.33
628.546	28686.24
628.74	29269.91
628.935	29300.63
629.129	29446.04
629.323	29288.34
629.517	28821.41
629.712	28757.92
629.906	28762.01
630.1	28323.75
630.294	28133.29
630.489	27709.36
630.683	27555.76
630.877	27172.79
631.071	26679.23
631.265	26324.93
631.459	25993.16
631.653	25274.32
631.848	24602.59
632.042	24184.8
632.236	23775.21
632.43	23052.28
632.624	22534.14
632.818	21862.41
633.012	20885.53
633.206	20680.73
633.4	20154.4
633.594	19181.62
633.788	18579.51
633.982	18116.67
634.176	17479.75
634.369	16679
634.563	16044.13
634.757	15509.61
634.951	14991.47
635.145	14246.01
635.339	13877.38
635.533	13189.26
635.726	12734.61
635.92	12011.68
636.114	11663.52
636.308	11108.52
636.501	10887.34
636.695	10285.24
636.889	9724.1
637.083	9441.48
637.276	8872.14
637.47	8822.99
637.664	8253.66
637.857	8134.87
638.051	7837.92
638.244	7401.7
638.438	7207.14
638.632	6869.23
638.825	6308.09
639.019	6287.61
639.212	6082.81
639.406	5802.24
639.599	5427.46
639.793	5585.15
639.986	5222.66
640.18	4968.71
640.373	4636.94
640.567	4487.44
640.76	4532.5
640.954	4131.09
641.147	3891.48
641.34	3885.34
641.534	3737.88
641.727	3615.01
641.92	3545.38
642.114	3359.01
642.307	3248.42
642.5	3176.74
642.694	2859.31
642.887	2885.93
643.08	2820.39
643.273	2726.19
643.467	2429.23
643.66	2441.52
643.853	2371.89
644.046	2255.15
644.239	2076.98
644.432	2040.12
644.626	1833.27
644.819	1956.15
645.012	1954.1
645.205	1851.71
645.398	1853.75
645.591	1601.85
645.784	1636.67
645.977	1452.35
646.17	1616.19
646.363	1397.06
646.556	1272.13
646.749	1327.43
646.942	1192.26
647.135	1093.96
647.328	1141.06
647.521	1114.44
647.714	1067.33
647.907	1132.87
648.099	936.26
648.292	1055.05
648.485	987.46
648.678	891.21
648.871	846.15
649.064	985.41
649.256	672.08
649.449	717.13
649.642	643.4
649.835	751.95
650.027	627.02
650.22	706.89
650.413	618.83
650.605	653.64
650.798	588.11
650.991	577.87
651.183	551.24
651.376	600.4
651.568	551.24
651.761	524.62
651.954	491.85
652.146	459.09
652.339	612.68
652.531	411.98
652.724	358.74
652.916	356.69
653.109	256.34
653.301	344.4
653.494	422.22
653.686	457.04
653.879	366.93
654.071	403.79
654.263	256.34
654.456	319.82
654.648	403.79
654.84	377.17
655.033	280.91
655.225	364.88
655.417	166.23
655.61	440.65
655.802	352.59
655.994	379.22
656.186	188.75
656.379	244.05
656.571	194.9
656.763	190.8
656.955	196.95
657.148	227.67
657.34	340.3
657.532	248.15
657.724	219.47
657.916	291.15
658.108	282.96
658.3	215.38
658.492	266.58
658.684	74.07
658.876	338.26
659.068	164.18
659.26	209.23
659.452	162.13
659.644	213.33
659.836	262.48
660.028	147.8
660.22	180.56
660.412	141.65
660.604	158.03
660.796	229.71
660.988	219.47
661.18	98.64
661.372	280.91
661.563	135.51
661.755	86.36
661.947	180.56
662.139	117.08
662.331	139.6
662.522	143.7
662.714	67.92
662.906	102.74
663.097	145.75
663.289	67.92
663.481	-20.14
663.673	155.99
663.864	180.56
664.056	225.62
664.247	65.88
664.439	229.71
664.631	65.88
664.822	207.19
665.014	176.47
665.205	164.18
665.397	63.83
665.588	90.45
665.78	141.65
665.971	186.71
666.163	84.31
666.354	137.56
666.546	133.46
666.737	135.51
666.929	160.08
667.12	10.58
667.311	151.89
667.503	139.6
667.694	160.08
667.885	108.88
668.077	186.71
668.268	-5.8
668.459	145.75
668.651	119.12
668.842	203.09
669.033	72.02
669.224	69.97
669.416	315.73
669.607	104.79
669.798	49.49
669.989	233.81
670.18	117.08
670.371	149.84
670.563	12.63
670.754	149.84
670.945	180.56
671.136	188.75
671.327	133.46
671.518	182.61
671.709	153.94
671.9	219.47
672.091	250.19
672.282	76.12
672.473	98.64
672.664	37.2
672.855	176.47
673.046	160.08
673.237	272.72
673.428	178.51
673.619	205.14
673.809	115.03
674	213.33
674.191	221.52
674.382	223.57
674.573	96.6
674.764	192.85
674.954	231.76
675.145	102.74
675.336	14.68
675.527	53.59
675.717	170.32
675.908	143.7
676.099	94.55
676.289	155.99
676.48	102.74
676.671	149.84
676.861	67.92
677.052	188.75
677.243	182.61
677.433	72.02
677.624	117.08
677.814	205.14
678.005	158.03
678.195	170.32
678.386	137.56
678.576	178.51
678.767	39.25
678.957	151.89
679.148	246.1
679.338	291.15
679.529	254.29
679.719	137.56
679.909	307.54
680.1	231.76
680.29	246.1
680.481	106.84
680.671	260.43
680.861	254.29
681.052	262.48
681.242	155.99
681.432	207.19
681.622	153.94
681.813	98.64
682.003	242
682.193	145.75
682.383	151.89
682.573	215.38
682.764	168.27
682.954	233.81
683.144	323.92
683.334	31.06
683.524	205.14
683.714	258.39
683.904	178.51
684.094	215.38
684.284	258.39
684.474	354.64
684.664	332.11
684.854	235.86
685.044	219.47
685.234	246.1
685.424	272.72
685.614	160.08
685.804	323.92
685.994	252.24
686.184	237.91
686.374	207.19
686.564	201.04
686.753	198.99
686.943	162.13
687.133	276.82
687.323	133.46
687.513	256.34
687.702	196.95
687.892	198.99
688.082	309.58
688.272	325.97
688.461	266.58
688.651	338.26
688.841	289.1
689.03	153.94
689.22	242
689.41	287.06
689.599	229.71
689.789	207.19
689.979	346.45
690.168	182.61
690.358	354.64
690.547	155.99
690.737	207.19
690.926	239.95
691.116	276.82
691.305	268.63
691.495	295.25
691.684	90.45
691.874	108.88
692.063	242
692.252	307.54
692.442	342.35
692.631	192.85
692.82	127.32
693.01	272.72
693.199	176.47
693.388	203.09
693.578	192.85
693.767	276.82
693.956	239.95
694.146	215.38
694.335	285.01
694.524	190.8
694.713	366.93
694.902	198.99
695.092	209.23
695.281	229.71
695.47	188.75
695.659	147.8
695.848	198.99
696.037	190.8
696.226	293.2
696.415	180.56
696.604	338.26
696.793	358.74
696.982	201.04
697.171	389.46
697.36	178.51
697.549	180.56
697.738	84.31
697.927	151.89
698.116	174.42
698.305	211.28
698.494	223.57
698.683	172.37
698.872	332.11
699.061	121.17
699.25	172.37
699.438	246.1
699.627	178.51
699.816	299.34
700.005	186.71
700.193	145.75
700.382	293.2
700.571	221.52
700.76	301.39
700.948	309.58
701.137	309.58
701.326	203.09
701.514	155.99
701.703	235.86
701.892	141.65
702.08	401.74
702.269	108.88
702.457	188.75
702.646	186.71
702.834	192.85
703.023	307.54
703.212	256.34
703.4	287.06
703.589	149.84
703.777	149.84
703.965	164.18
704.154	133.46
704.342	96.6
704.531	166.23
704.719	170.32
704.907	231.76
705.096	102.74
705.284	125.27
705.472	98.64
705.661	223.57
705.849	264.53
706.037	325.97
706.226	170.32
706.414	229.71
706.602	180.56
706.79	207.19
706.979	80.21
707.167	209.23
707.355	10.58
707.543	262.48
707.731	227.67
707.919	256.34
708.107	211.28
708.296	115.03
708.484	82.26
708.672	225.62
708.86	164.18
709.048	237.91
709.236	162.13
709.424	278.87
709.612	328.02
709.8	53.59
709.988	158.03
710.176	274.77
710.364	342.35
710.551	282.96
710.739	176.47
710.927	170.32
711.115	188.75
711.303	260.43
711.491	268.63
711.679	242
711.866	211.28
712.054	170.32
712.242	268.63
712.43	285.01
712.617	219.47
712.805	305.49
712.993	221.52
713.181	45.4
713.368	262.48
713.556	203.09
713.744	143.7
713.931	360.78
714.119	299.34
714.306	209.23
714.494	131.41
714.682	176.47
714.869	74.07
715.057	162.13
715.244	117.08
715.432	305.49
715.619	164.18
715.807	203.09
715.994	188.75
716.182	262.48
716.369	223.57
716.556	313.68
716.744	135.51
716.931	127.32
717.119	323.92
717.306	248.15
717.493	217.43
717.681	201.04
717.868	188.75
718.055	270.67
718.242	158.03
718.43	252.24
718.617	272.72
718.804	147.8
718.991	250.19
719.179	149.84
719.366	342.35
719.553	321.87
719.74	250.19
719.927	164.18
720.114	153.94
720.301	90.45
720.488	203.09
720.676	160.08
720.863	291.15
721.05	399.7
721.237	317.78
721.424	217.43
721.611	270.67
721.798	221.52
721.985	192.85
722.172	280.91
722.358	260.43
722.545	282.96
722.732	209.23
722.919	309.58
723.106	332.11
723.293	174.42
723.48	254.29
723.667	170.32
723.853	285.01
724.04	254.29
724.227	301.39
724.414	270.67
724.6	235.86
724.787	258.39
724.974	342.35
725.161	252.24
725.347	287.06
725.534	266.58
725.72	268.63
725.907	328.02
726.094	256.34
726.28	182.61
726.467	258.39
726.653	170.32
726.84	348.5
727.027	391.5
727.213	248.15
727.4	332.11
727.586	178.51
727.773	227.67
727.959	282.96
728.145	325.97
728.332	196.95
728.518	207.19
728.705	307.54
728.891	285.01
729.077	282.96
729.264	190.8
729.45	268.63
729.636	274.77
729.823	203.09
730.009	289.1
730.195	323.92
730.382	313.68
730.568	184.66
730.754	303.44
730.94	305.49
731.126	274.77
731.313	350.54
731.499	291.15
731.685	332.11
731.871	346.45
732.057	276.82
732.243	348.5
732.429	215.38
732.615	399.7
732.801	305.49
732.987	303.44
733.173	250.19
733.359	219.47
733.545	332.11
733.731	303.44
733.917	383.31
734.103	291.15
734.289	383.31
734.475	282.96
734.661	420.17
734.847	360.78
735.033	303.44
735.219	338.26
735.404	217.43
735.59	291.15
735.776	190.8
735.962	340.3
736.148	371.02
736.333	399.7
736.519	348.5
736.705	362.83
736.89	330.06
737.076	244.05
737.262	201.04
737.447	203.09
737.633	272.72
737.819	364.88
738.004	229.71
738.19	305.49
738.375	289.1
738.561	364.88
738.747	285.01
738.932	151.89
739.118	436.56
739.303	385.36
739.489	385.36
739.674	256.34
739.859	282.96
740.045	377.17
740.23	293.2
740.416	170.32
740.601	311.63
740.786	248.15
740.972	285.01
741.157	258.39
741.342	194.9
741.528	184.66
741.713	426.32
741.898	317.78
742.084	268.63
742.269	295.25
742.454	377.17
742.639	330.06
742.824	272.72
743.01	350.54
743.195	434.51
743.38	264.53
743.565	260.43
743.75	239.95
743.935	381.26
744.12	362.83
744.305	231.76
744.49	237.91
744.675	233.81
744.86	254.29
745.045	256.34
745.23	258.39
745.415	280.91
745.6	340.3
745.785	340.3
745.97	317.78
746.155	272.72
746.34	414.03
746.525	219.47
746.71	280.91
746.895	203.09
747.079	223.57
747.264	160.08
747.449	268.63
747.634	311.63
747.819	289.1
748.003	203.09
748.188	266.58
748.373	252.24
748.557	338.26
748.742	319.82
748.927	252.24
749.111	264.53
749.296	291.15
749.481	258.39
749.665	272.72
749.85	205.14
750.034	252.24
750.219	221.52
750.404	211.28
750.588	323.92
750.773	188.75
750.957	239.95
751.141	303.44
751.326	223.57
751.51	88.4
751.695	174.42
751.879	203.09
752.064	309.58
752.248	217.43
752.432	350.54
752.617	274.77
752.801	299.34
752.985	268.63
753.17	307.54
753.354	276.82
753.538	219.47
753.722	166.23
753.907	198.99
754.091	182.61
754.275	303.44
754.459	158.03
754.643	182.61
754.828	117.08
755.012	248.15
755.196	170.32
755.38	227.67
755.564	104.79
755.748	129.36
755.932	264.53
756.116	223.57
756.3	213.33
756.484	190.8
756.668	229.71
756.852	-3.75
757.036	160.08
757.22	196.95
757.404	239.95
757.588	139.6
757.772	207.19
757.956	80.21
758.14	364.88
758.323	106.84
758.507	155.99
758.691	121.17
758.875	248.15
759.059	278.87
759.242	57.68
759.426	139.6
759.61	127.32
759.794	145.75
759.977	231.76
760.161	403.79
760.345	194.9
760.528	229.71
760.712	198.99
760.895	188.75
761.079	147.8
761.263	110.93
761.446	94.55
761.63	145.75
761.813	155.99
761.997	72.02
762.18	141.65
762.364	207.19
762.547	67.92
762.731	63.83
762.914	117.08
763.098	201.04
763.281	67.92
763.464	125.27
763.648	108.88
763.831	133.46
764.015	55.64
764.198	112.98
764.381	112.98
764.564	186.71
764.748	121.17
764.931	145.75
765.114	76.12
765.297	135.51
765.481	170.32
765.664	65.88
765.847	166.23
766.03	231.76
766.213	37.2
766.397	76.12
766.58	29.01
766.763	176.47
766.946	74.07
767.129	94.55
767.312	86.36
767.495	57.68
767.678	78.16
767.861	108.88
768.044	121.17
768.227	47.44
768.41	94.55
768.593	186.71
768.776	172.37
768.959	145.75
769.142	151.89
769.324	115.03
769.507	76.12
769.69	18.77
769.873	96.6
770.056	278.87
770.239	49.49
770.421	209.23
770.604	201.04
770.787	102.74
770.97	213.33
771.152	43.35
771.335	147.8
771.518	49.49
771.7	170.32
771.883	217.43
772.066	57.68
772.248	94.55
772.431	198.99
772.613	203.09
772.796	86.36
772.978	129.36
773.161	203.09
773.343	78.16
773.526	69.97
773.708	-67.24
773.891	-44.71
774.073	47.44
774.256	-32.43
774.438	194.9
774.621	31.06
774.803	127.32
774.985	-3.75
775.168	209.23
775.35	10.58
775.532	129.36
775.715	57.68
775.897	100.69
776.079	59.73
776.261	108.88
776.444	39.25
776.626	29.01
776.808	49.49
776.99	-9.9
777.173	72.02
777.355	31.06
777.537	55.64
777.719	78.16
777.901	84.31
778.083	-26.28
778.265	-67.24
778.447	84.31
778.629	-9.9
778.811	180.56
778.993	119.12
779.175	102.74
779.357	-13.99
779.539	-75.43
779.721	26.96
779.903	127.32
780.085	151.89
780.267	74.07
780.449	65.88
780.631	106.84
780.812	162.13
780.994	102.74
781.176	84.31
781.358	-26.28
781.54	20.82
781.721	92.5
781.903	133.46
782.085	39.25
782.267	106.84
782.448	-9.9
782.63	133.46
782.812	41.3
782.993	96.6
783.175	76.12
783.357	26.96
783.538	59.73
783.72	35.16
783.901	-3.75
784.083	90.45
784.264	82.26
784.446	-32.43
784.627	-3.75
784.809	133.46
784.99	-40.62
785.172	18.77
785.353	14.68
785.535	20.82
785.716	41.3
785.897	-3.75
786.079	39.25
786.26	80.21
786.441	90.45
786.623	-16.04
786.804	-48.81
786.985	49.49
787.167	51.54
787.348	2.39
787.529	16.73
787.71	182.61
787.891	80.21
788.073	4.44
788.254	26.96
788.435	141.65
788.616	59.73
788.797	18.77
788.978	-28.33
789.159	39.25
789.34	57.68
789.522	55.64
789.703	-95.91
789.884	67.92
790.065	61.78
790.246	213.33
790.427	22.87
790.607	84.31
790.788	155.99
790.969	-69.29
791.15	72.02
791.331	-3.75
791.512	55.64
791.693	41.3
791.874	-9.9
792.054	219.47
792.235	63.83
792.416	-3.75
792.597	-40.62
792.778	65.88
792.958	78.16
793.139	47.44
793.32	16.73
793.5	2.39
793.681	94.55
793.862	55.64
794.042	72.02
794.223	-91.82
794.404	67.92
794.584	-50.86
794.765	4.44
794.945	-36.52
795.126	20.82
795.306	110.93
795.487	-71.34
795.667	12.63
795.848	47.44
796.028	18.77
796.209	47.44
796.389	80.21
796.57	-11.95
796.75	-87.72
796.93	41.3
797.111	90.45
797.291	22.87
797.471	80.21
797.652	8.53
797.832	-3.75
798.012	51.54
798.192	-57
798.373	-114.34
798.553	-22.19
798.733	76.12
798.913	-67.24
799.093	-91.82
799.274	14.68
799.454	121.17
799.634	98.64
799.814	141.65
799.994	41.3
800.174	72.02
800.354	26.96
800.534	-77.48
800.714	90.45
800.894	-63.15
801.074	-79.53
801.254	-40.62
801.434	94.55
801.614	-48.81
801.794	-5.8
801.974	1771.83
802.154	-26.28
802.334	65.88
802.514	-32.43
802.693	39.25
802.873	-22.19
803.053	102.74
803.233	14.68
803.413	-54.95
803.592	-65.19
803.772	16.73
803.952	-13.99
804.131	-44.71
804.311	61.78
804.491	65.88
804.67	-73.39
804.85	-59.05
805.03	43.35
805.209	76.12
805.389	-16.04
805.568	14.68
805.748	-36.52
805.928	31.06
806.107	82.26
806.287	37.2
806.466	84.31
806.646	22.87
806.825	39.25
807.004	-63.15
807.184	-16.04
807.363	110.93
807.543	2.39
807.722	-79.53
807.901	84.31
808.081	-11.95
808.26	-132.78
808.439	18.77
808.619	57.68
808.798	-24.23
808.977	45.4
809.156	59.73
809.336	-54.95
809.515	76.12
809.694	-61.1
809.873	-52.91
810.052	2.39
810.231	102.74
810.411	43.35
810.59	65.88
810.769	-16.04
810.948	84.31
811.127	-77.48
811.306	33.11
811.485	43.35
811.664	162.13
811.843	12.63
812.022	-59.05
812.201	-136.87
812.38	59.73
812.559	-69.29
812.737	8.53
812.916	-108.2
813.095	-65.19
813.274	45.4
813.453	45.4
813.632	76.12
813.811	53.59
813.989	-91.82
814.168	-57
814.347	-30.38
814.526	14.68
814.704	112.98
814.883	104.79
815.062	-81.58
815.24	-1.71
815.419	-69.29
815.598	39.25
815.776	-48.81
815.955	16.73
816.133	-65.19
816.312	49.49
816.49	-59.05
816.669	-9.9
816.847	20.82
817.026	14.68
817.204	33.11
817.383	47.44
817.561	-67.24
817.74	22.87
817.918	22.87
818.097	-46.76
818.275	2.39
818.453	63.83
818.632	53.59
818.81	-28.33
818.988	-48.81
819.167	-108.2
819.345	-3.75
819.523	-40.62
819.701	12.63
819.879	26.96
820.058	67.92
820.236	0.34
820.414	65.88
820.592	31.06
820.77	-16.04
820.948	39.25
821.127	-97.96
821.305	47.44
821.483	-77.48
821.661	65.88
821.839	18.77
822.017	-13.99
822.195	24.92
822.373	110.93
822.551	12.63
822.729	-40.62
822.907	47.44
823.085	43.35
823.262	31.06
823.44	-32.43
823.618	-48.81
823.796	0.34
823.974	8.53
824.152	-46.76
824.329	-54.95
824.507	-32.43
824.685	33.11
824.863	-46.76
825.04	63.83
825.218	53.59
825.396	-34.47
825.574	45.4
825.751	-24.23
825.929	63.83
826.107	-73.39
826.284	43.35
826.462	63.83
826.639	-63.15
826.817	-155.3
826.994	98.64
827.172	-54.95
827.349	129.36
827.527	14.68
827.704	26.96
827.882	22.87
828.059	41.3
828.237	-46.76
828.414	104.79
828.591	-83.63
828.769	-1.71
828.946	-3.75
829.124	53.59
829.301	51.54
829.478	-3.75
829.655	-1.71
829.833	90.45
830.01	-151.21
830.187	0.34
830.364	67.92
830.542	31.06
830.719	82.26
830.896	26.96
831.073	-22.19
831.25	-13.99
831.427	39.25
831.604	4.44
831.782	24.92
831.959	-69.29
832.136	80.21
832.313	6.49
832.49	22.87
832.667	-20.14
832.844	-28.33
833.021	106.84
833.198	22.87
833.374	-44.71
833.551	12.63
833.728	-61.1
833.905	22.87
834.082	-126.63
834.259	31.06
834.436	35.16
834.612	-46.76
834.789	39.25
834.966	31.06
835.143	24.92
835.319	-75.43
835.496	47.44
835.673	33.11
835.85	88.4
836.026	33.11
836.203	98.64
836.38	-81.58
836.556	-18.09
836.733	-18.09
836.909	100.69
837.086	-50.86
837.262	-112.3
837.439	47.44
837.616	31.06
837.792	41.3
837.968	-87.72
838.145	-157.35
838.321	2.39
838.498	-3.75
838.674	49.49
838.851	-79.53
839.027	-1.71
839.203	33.11
839.38	24.92
839.556	22.87
839.732	82.26
839.909	0.34
840.085	47.44
840.261	-75.43
840.437	-46.76
840.614	-67.24
840.79	69.97
840.966	-5.8
841.142	43.35
841.318	-20.14
841.494	53.59
841.671	26.96
841.847	-102.06
842.023	-79.53
842.199	33.11
842.375	119.12
842.551	-85.67
842.727	-147.11
842.903	31.06
843.079	-77.48
843.255	76.12
843.431	6.49
843.607	98.64
843.783	-183.98
843.959	51.54
844.134	-81.58
844.31	100.69
844.486	-81.58
844.662	-42.67
844.838	-52.91
845.013	33.11
845.189	72.02
845.365	45.4
845.541	39.25
845.716	41.3
845.892	-16.04
846.068	-34.47
846.244	-87.72
846.419	51.54
846.595	-46.76
846.77	-91.82
846.946	65.88
847.122	-63.15
847.297	-32.43
847.473	131.41
847.648	-20.14
847.824	55.64
847.999	-102.06
848.175	-36.52
848.35	88.4
848.526	72.02
848.701	16.73
848.876	43.35
849.052	92.5
849.227	-128.68
849.403	24.92
849.578	-13.99
849.753	80.21
849.929	-11.95
850.104	-59.05
850.279	22.87
850.454	72.02
850.63	86.36
850.805	-11.95
850.98	2.39
851.155	-50.86
851.33	57.68
851.505	-81.58
851.681	153.94
851.856	-79.53
852.031	0.34
852.206	-3.75
852.381	-20.14
852.556	29.01
852.731	59.73
852.906	72.02
853.081	43.35
853.256	108.88
853.431	-52.91
853.606	4.44
853.781	63.83
853.956	-95.91
854.131	8.53
854.305	-97.96
854.48	-46.76
854.655	-77.48
854.83	29.01
855.005	-1.71
855.18	24.92
855.354	-46.76
855.529	37.2
855.704	18.77
855.879	2.39
856.053	-71.34
856.228	-20.14
856.403	-38.57
856.577	-3.75
856.752	-114.34
856.926	-50.86
857.101	-24.23
857.276	-114.34
857.45	-1.71
857.625	20.82
857.799	-26.28
857.974	2.39
858.148	-181.93
858.323	6.49
858.497	-59.05
858.672	-63.15
858.846	2.39
859.02	6.49
859.195	-24.23
859.369	-22.19
859.543	14.68
859.718	-42.67
859.892	49.49
860.066	57.68
860.241	-32.43
860.415	-112.3
860.589	-77.48
860.763	-28.33
860.938	-110.25
861.112	14.68
861.286	-32.43
861.46	31.06
861.634	-36.52
861.808	-20.14
861.982	-93.87
862.157	-126.63
862.331	-48.81
862.505	-65.19
862.679	-38.57
862.853	-46.76
863.027	-87.72
863.201	151.89
863.375	-28.33
863.549	-9.9
863.722	-48.81
863.896	80.21
864.07	-59.05
864.244	-36.52
864.418	16.73
864.592	-13.99
864.766	20.82
864.939	33.11
865.113	-63.15
865.287	129.36
865.461	-91.82
865.634	-3.75
865.808	-30.38
865.982	-36.52
866.156	-32.43
866.329	-83.63
866.503	39.25
866.676	76.12
866.85	8.53
867.024	-42.67
867.197	84.31
867.371	61.78
867.544	-36.52
867.718	-97.96
867.891	72.02
868.065	-118.44
868.238	86.36
868.412	135.51
868.585	-22.19
868.759	-5.8
868.932	16.73
869.105	-73.39
869.279	-16.04
869.452	-91.82
869.625	-18.09
869.799	-77.48
869.972	-132.78
870.145	-5.8
870.319	108.88
870.492	-69.29
870.665	-44.71
870.838	-83.63
871.011	-177.83
871.185	-63.15
871.358	-52.91
871.531	6.49
871.704	-108.2
871.877	16.73
872.05	24.92
872.223	-75.43
872.396	61.78
872.569	96.6
872.742	-153.26
872.915	10.58
873.088	61.78
873.261	-104.11
873.434	141.65
873.607	-40.62
873.78	69.97
873.953	-100.01
874.126	-38.57
874.299	-13.99
874.471	-122.54
874.644	18.77
874.817	-22.19
874.99	98.64
875.163	6.49
875.335	98.64
875.508	-63.15
875.681	69.97
875.853	-13.99
876.026	-9.9
876.199	55.64
876.371	-28.33
876.544	-65.19
876.717	12.63
876.889	14.68
877.062	8.53
877.234	-32.43
877.407	6.49
877.579	20.82
877.752	31.06
877.924	67.92
878.097	14.68
878.269	14.68
878.442	-40.62
878.614	67.92
878.786	-30.38
878.959	-26.28
879.131	-5.8
879.303	-130.73
879.476	-11.95
879.648	39.25
879.82	61.78
879.993	-20.14
880.165	-100.01
880.337	-110.25
880.509	39.25
880.681	-79.53
880.854	-32.43
881.026	8.53
881.198	164.18
881.37	-108.2
881.542	-1.71
881.714	-42.67
881.886	-81.58
882.058	2.39
882.23	29.01
882.402	6.49
882.574	57.68
882.746	74.07
882.918	72.02
883.09	57.68
883.262	-57
883.434	14.68
883.606	-91.82
883.778	-28.33
883.95	100.69
884.122	-42.67
884.293	12.63
884.465	43.35
884.637	51.54
884.809	-22.19
884.98	-22.19
885.152	-22.19
885.324	55.64
885.496	-38.57
885.667	-44.71
885.839	-50.86
886.011	123.22
886.182	59.73
886.354	-22.19
886.525	47.44
886.697	-32.43
886.869	6.49
887.04	-59.05
887.212	92.5
887.383	94.55
887.555	33.11
887.726	-44.71
887.897	-42.67
888.069	-57
888.24	86.36
888.412	-102.06
888.583	41.3
888.754	-26.28
888.926	-128.68
889.097	18.77
889.268	-120.49
889.44	22.87
889.611	-124.58
889.782	-87.72
889.953	33.11
890.125	149.84
890.296	-52.91
890.467	-104.11
890.638	-20.14
890.809	-83.63
890.98	-67.24
891.151	-28.33
891.323	82.26
891.494	-63.15
891.665	-16.04
891.836	-38.57
892.007	-26.28
892.178	12.63
892.349	-11.95
892.52	-116.39
892.691	43.35
892.862	-24.23
893.032	-95.91
893.203	33.11
893.374	31.06
893.545	92.5
893.716	26.96
893.887	72.02
894.057	-42.67
894.228	18.77
894.399	-50.86
894.57	55.64
894.74	-36.52
894.911	-7.85
895.082	-7.85
895.253	-30.38
895.423	14.68
895.594	20.82
895.764	57.68
895.935	-83.63
896.106	76.12
896.276	-108.2
896.447	55.64
896.617	-104.11
896.788	24.92
896.958	14.68
897.129	-3.75
897.299	-69.29
897.47	98.64
897.64	74.07
897.81	-30.38
897.981	-9.9
898.151	-89.77
898.322	-67.24
898.492	39.25
898.662	-85.67
898.832	-93.87
899.003	-67.24
899.173	16.73
899.343	-7.85
899.513	-34.47
