Data from USB4F104151__102__10-35-43-227.txt Node

Date: Wed Feb 26 10:35:43 EST 2025
User: louis
Spectrometer: USB4F10415
Trigger mode: 4
Integration Time (sec): 1.000000E-1
Scans to average: 1
Electric dark correction enabled: true
Nonlinearity correction enabled: false
Boxcar width: 0
XAxis mode: Wavelengths
Number of Pixels in Spectrum: 3648
>>>>>Begin Spectral Data<<<<<
178.204	-381.26
178.424	-381.26
178.644	-381.26
178.864	-422.22
179.084	-430.41
179.304	-0.34
179.524	-51.54
179.744	30.38
179.964	54.95
180.184	5.8
180.404	77.48
180.624	24.23
180.844	-20.82
181.064	-94.55
181.283	-24.92
181.503	-55.64
181.723	54.95
181.943	-119.12
182.163	157.35
182.383	48.81
182.602	100.01
182.822	192.17
183.042	32.43
183.262	-80.21
183.482	13.99
183.701	61.1
183.921	57
184.141	40.62
184.361	26.28
184.58	5.8
184.8	44.71
185.02	-84.31
185.239	106.15
185.459	36.52
185.679	114.34
185.898	-78.16
186.118	61.1
186.338	81.58
186.557	22.19
186.777	24.23
186.997	26.28
187.216	34.47
187.436	249.51
187.655	18.09
187.875	100.01
188.095	61.1
188.314	143.02
188.534	118.44
188.753	-43.35
188.973	108.2
189.192	118.44
189.412	5.8
189.631	65.19
189.851	16.04
190.07	145.06
190.29	-106.84
190.509	-12.63
190.729	16.04
190.948	106.15
191.168	249.51
191.387	114.34
191.607	40.62
191.826	52.91
192.045	7.85
192.265	-76.12
192.484	28.33
192.704	-12.63
192.923	-65.88
193.142	206.5
193.362	134.82
193.581	153.26
193.8	42.67
194.02	118.44
194.239	26.28
194.458	134.82
194.678	16.04
194.897	3.75
195.116	69.29
195.335	28.33
195.555	50.86
195.774	-10.58
195.993	173.74
196.212	73.39
196.432	-12.63
196.651	91.82
196.87	50.86
197.089	233.13
197.308	52.91
197.528	9.9
197.747	-31.06
197.966	46.76
198.185	153.26
198.404	1.71
198.623	171.69
198.842	155.3
199.062	42.67
199.281	97.96
199.5	1.71
199.719	38.57
199.938	75.43
200.157	85.67
200.376	104.11
200.595	130.73
200.814	-37.2
201.033	7.85
201.252	140.97
201.471	30.38
201.69	36.52
201.909	3.75
202.128	89.77
202.347	81.58
202.566	-6.49
202.785	-41.3
203.004	-53.59
203.223	233.13
203.442	-14.68
203.661	18.09
203.879	95.91
204.098	118.44
204.317	-20.82
204.536	149.16
204.755	52.91
204.974	52.91
205.193	57
205.411	136.87
205.63	97.96
205.849	89.77
206.068	40.62
206.287	48.81
206.505	110.25
206.724	28.33
206.943	-10.58
207.162	22.19
207.381	106.15
207.599	40.62
207.818	36.52
208.037	-24.92
208.255	114.34
208.474	24.23
208.693	20.14
208.911	34.47
209.13	128.68
209.349	93.87
209.567	85.67
209.786	24.23
210.005	87.72
210.223	81.58
210.442	-94.55
210.661	52.91
210.879	38.57
211.098	61.1
211.316	5.8
211.535	71.34
211.753	153.26
211.972	38.57
212.191	3.75
212.409	24.23
212.628	30.38
212.846	-63.83
213.065	26.28
213.283	89.77
213.502	50.86
213.72	61.1
213.938	28.33
214.157	-41.3
214.375	136.87
214.594	5.8
214.812	9.9
215.031	-43.35
215.249	44.71
215.467	114.34
215.686	22.19
215.904	95.91
216.122	57
216.341	161.45
216.559	26.28
216.778	-4.44
216.996	165.54
217.214	-16.73
217.432	28.33
217.651	-74.07
217.869	97.96
218.087	5.8
218.306	57
218.524	42.67
218.742	16.04
218.96	110.25
219.179	-45.4
219.397	-0.34
219.615	265.89
219.833	50.86
220.051	-14.68
220.27	112.3
220.488	91.82
220.706	38.57
220.924	-22.87
221.142	24.23
221.36	108.2
221.578	89.77
221.796	-35.16
222.015	-33.11
222.233	79.53
222.451	126.63
222.669	-39.25
222.887	75.43
223.105	-16.73
223.323	3.75
223.541	22.19
223.759	16.04
223.977	20.14
224.195	128.68
224.413	147.11
224.631	-4.44
224.849	57
225.067	226.98
225.285	52.91
225.503	-45.4
225.721	-39.25
225.939	24.23
226.157	71.34
226.375	183.98
226.592	-35.16
226.81	22.19
227.028	75.43
227.246	147.11
227.464	54.95
227.682	179.88
227.9	30.38
228.117	114.34
228.335	89.77
228.553	85.67
228.771	13.99
228.989	46.76
229.206	149.16
229.424	28.33
229.642	-31.06
229.86	-117.08
230.077	91.82
230.295	42.67
230.513	134.82
230.731	3.75
230.948	163.5
231.166	124.58
231.384	67.24
231.601	-29.01
231.819	126.63
232.037	26.28
232.254	-12.63
232.472	-37.2
232.689	-35.16
232.907	87.72
233.125	16.04
233.342	-35.16
233.56	-4.44
233.777	38.57
233.995	38.57
234.213	143.02
234.43	108.2
234.648	44.71
234.865	-33.11
235.083	44.71
235.3	40.62
235.518	-2.39
235.735	93.87
235.953	149.16
236.17	97.96
236.388	77.48
236.605	81.58
236.822	153.26
237.04	112.3
237.257	20.14
237.475	16.04
237.692	18.09
237.909	59.05
238.127	-10.58
238.344	108.2
238.562	63.15
238.779	-49.49
238.996	3.75
239.214	46.76
239.431	100.01
239.648	32.43
239.865	110.25
240.083	108.2
240.3	40.62
240.517	7.85
240.735	30.38
240.952	186.02
241.169	108.2
241.386	11.95
241.603	-0.34
241.821	-29.01
242.038	67.24
242.255	81.58
242.472	-2.39
242.689	77.48
242.907	52.91
243.124	69.29
243.341	81.58
243.558	-37.2
243.775	-45.4
243.992	-4.44
244.209	147.11
244.426	206.5
244.643	63.15
244.86	104.11
245.078	83.63
245.295	77.48
245.512	-0.34
245.729	26.28
245.946	108.2
246.163	73.39
246.38	-43.35
246.597	77.48
246.814	5.8
247.031	3.75
247.248	34.47
247.464	57
247.681	143.02
247.898	5.8
248.115	24.23
248.332	-47.44
248.549	224.94
248.766	140.97
248.983	100.01
249.2	132.78
249.417	63.15
249.633	-12.63
249.85	67.24
250.067	36.52
250.284	46.76
250.501	-20.82
250.717	104.11
250.934	13.99
251.151	73.39
251.368	-14.68
251.585	65.19
251.801	83.63
252.018	-37.2
252.235	157.35
252.451	-26.96
252.668	42.67
252.885	100.01
253.102	-4.44
253.318	-37.2
253.535	-41.3
253.752	-51.54
253.968	11.95
254.185	-84.31
254.401	36.52
254.618	104.11
254.835	-2.39
255.051	61.1
255.268	59.05
255.484	16.04
255.701	38.57
255.917	81.58
256.134	-26.96
256.351	5.8
256.567	-39.25
256.784	24.23
257	-37.2
257.217	124.58
257.433	16.04
257.65	57
257.866	177.83
258.082	22.19
258.299	30.38
258.515	11.95
258.732	-10.58
258.948	5.8
259.165	112.3
259.381	59.05
259.597	128.68
259.814	46.76
260.03	-39.25
260.246	87.72
260.463	145.06
260.679	208.55
260.895	108.2
261.112	116.39
261.328	-0.34
261.544	7.85
261.761	181.93
261.977	-6.49
262.193	-14.68
262.409	130.73
262.626	-0.34
262.842	81.58
263.058	13.99
263.274	91.82
263.49	120.49
263.707	67.24
263.923	114.34
264.139	38.57
264.355	46.76
264.571	38.57
264.787	-18.77
265.004	97.96
265.22	38.57
265.436	65.19
265.652	50.86
265.868	59.05
266.084	-47.44
266.3	20.14
266.516	-6.49
266.732	36.52
266.948	46.76
267.164	34.47
267.38	149.16
267.596	11.95
267.812	118.44
268.028	54.95
268.244	-6.49
268.46	100.01
268.676	26.28
268.892	-0.34
269.108	-65.88
269.324	-10.58
269.54	-33.11
269.756	122.54
269.972	-31.06
270.188	-33.11
270.403	-65.88
270.619	28.33
270.835	114.34
271.051	3.75
271.267	-22.87
271.483	-35.16
271.698	134.82
271.914	28.33
272.13	28.33
272.346	7.85
272.562	34.47
272.777	104.11
272.993	104.11
273.209	22.19
273.425	77.48
273.64	-51.54
273.856	50.86
274.072	44.71
274.287	34.47
274.503	3.75
274.719	106.15
274.934	24.23
275.15	-24.92
275.366	42.67
275.581	61.1
275.797	61.1
276.012	18.09
276.228	-59.73
276.444	42.67
276.659	110.25
276.875	-51.54
277.09	-2.39
277.306	-33.11
277.521	38.57
277.737	-2.39
277.952	26.28
278.168	52.91
278.383	28.33
278.599	102.06
278.814	175.78
279.03	1.71
279.245	79.53
279.461	59.05
279.676	81.58
279.892	-127.32
280.107	24.23
280.322	-18.77
280.538	85.67
280.753	-20.82
280.969	77.48
281.184	22.19
281.399	177.83
281.615	112.3
281.83	-16.73
282.045	30.38
282.26	61.1
282.476	100.01
282.691	75.43
282.906	22.19
283.122	155.3
283.337	-10.58
283.552	79.53
283.767	-8.53
283.983	159.4
284.198	71.34
284.413	13.99
284.628	-37.2
284.843	83.63
285.058	95.91
285.274	-2.39
285.489	-4.44
285.704	106.15
285.919	-76.12
286.134	52.91
286.349	-16.73
286.564	-22.87
286.779	57
286.995	18.09
287.21	-86.36
287.425	57
287.64	40.62
287.855	34.47
288.07	-72.02
288.285	100.01
288.5	208.55
288.715	118.44
288.93	-6.49
289.145	-37.2
289.36	108.2
289.575	89.77
289.79	140.97
290.004	59.05
290.219	75.43
290.434	-6.49
290.649	11.95
290.864	34.47
291.079	48.81
291.294	34.47
291.509	87.72
291.724	18.09
291.938	48.81
292.153	42.67
292.368	-29.01
292.583	104.11
292.798	69.29
293.012	-24.92
293.227	36.52
293.442	61.1
293.657	116.39
293.871	61.1
294.086	52.91
294.301	181.93
294.516	104.11
294.73	32.43
294.945	3.75
295.16	-45.4
295.374	104.11
295.589	181.93
295.804	3.75
296.018	16.04
296.233	100.01
296.447	85.67
296.662	-90.45
296.877	73.39
297.091	61.1
297.306	63.15
297.52	-20.82
297.735	42.67
297.949	36.52
298.164	13.99
298.378	81.58
298.593	-53.59
298.807	59.05
299.022	44.71
299.236	186.02
299.451	24.23
299.665	50.86
299.88	-26.96
300.094	16.04
300.309	54.95
300.523	28.33
300.737	48.81
300.952	32.43
301.166	91.82
301.381	-16.73
301.595	-16.73
301.809	104.11
302.024	3.75
302.238	102.06
302.452	188.07
302.667	44.71
302.881	110.25
303.095	165.54
303.309	7.85
303.524	-24.92
303.738	-12.63
303.952	1.71
304.166	36.52
304.381	-112.98
304.595	159.4
304.809	-117.08
305.023	34.47
305.237	87.72
305.452	63.15
305.666	71.34
305.88	118.44
306.094	151.21
306.308	11.95
306.522	136.87
306.736	61.1
306.95	46.76
307.164	110.25
307.379	46.76
307.593	77.48
307.807	104.11
308.021	79.53
308.235	20.14
308.449	-84.31
308.663	20.14
308.877	241.32
309.091	67.24
309.305	40.62
309.519	-170.32
309.733	32.43
309.947	-51.54
310.161	20.14
310.374	22.19
310.588	75.43
310.802	-100.69
311.016	-33.11
311.23	36.52
311.444	-20.82
311.658	50.86
311.872	128.68
312.085	65.19
312.299	198.31
312.513	159.4
312.727	42.67
312.941	-0.34
313.154	-10.58
313.368	46.76
313.582	95.91
313.796	65.19
314.009	7.85
314.223	147.11
314.437	69.29
314.651	89.77
314.864	63.15
315.078	28.33
315.292	-41.3
315.505	22.19
315.719	67.24
315.933	108.2
316.146	54.95
316.36	-43.35
316.573	104.11
316.787	34.47
317.001	26.28
317.214	-59.73
317.428	71.34
317.641	-24.92
317.855	-26.96
318.068	71.34
318.282	52.91
318.495	153.26
318.709	77.48
318.922	54.95
319.136	140.97
319.349	108.2
319.563	-22.87
319.776	116.39
319.99	-24.92
320.203	32.43
320.417	54.95
320.63	106.15
320.843	91.82
321.057	93.87
321.27	26.28
321.483	26.28
321.697	134.82
321.91	38.57
322.124	87.72
322.337	71.34
322.55	-22.87
322.763	52.91
322.977	-43.35
323.19	-22.87
323.403	124.58
323.617	73.39
323.83	89.77
324.043	-18.77
324.256	81.58
324.469	-37.2
324.683	65.19
324.896	71.34
325.109	104.11
325.322	-59.73
325.535	177.83
325.748	167.59
325.962	-24.92
326.175	104.11
326.388	89.77
326.601	145.06
326.814	46.76
327.027	28.33
327.24	140.97
327.453	-67.92
327.666	59.05
327.879	128.68
328.092	91.82
328.305	71.34
328.518	-33.11
328.731	91.82
328.944	1.71
329.157	102.06
329.37	63.15
329.583	140.97
329.796	87.72
330.009	-4.44
330.222	65.19
330.435	130.73
330.648	50.86
330.861	26.28
331.073	91.82
331.286	130.73
331.499	73.39
331.712	-14.68
331.925	46.76
332.138	-10.58
332.35	130.73
332.563	-22.87
332.776	196.26
332.989	7.85
333.202	-10.58
333.414	65.19
333.627	65.19
333.84	28.33
334.053	136.87
334.265	-26.96
334.478	32.43
334.691	18.09
334.903	106.15
335.116	-88.4
335.329	16.04
335.541	95.91
335.754	126.63
335.966	110.25
336.179	40.62
336.392	-57.68
336.604	13.99
336.817	157.35
337.029	36.52
337.242	73.39
337.454	30.38
337.667	89.77
337.88	136.87
338.092	122.54
338.305	108.2
338.517	-26.96
338.729	67.24
338.942	196.26
339.154	-26.96
339.367	7.85
339.579	102.06
339.792	-55.64
340.004	-2.39
340.217	7.85
340.429	118.44
340.641	13.99
340.854	1.71
341.066	-12.63
341.278	122.54
341.491	106.15
341.703	32.43
341.915	-88.4
342.128	97.96
342.34	61.1
342.552	-37.2
342.764	59.05
342.977	-6.49
343.189	32.43
343.401	3.75
343.613	-100.69
343.826	71.34
344.038	-45.4
344.25	3.75
344.462	16.04
344.674	93.87
344.886	44.71
345.099	108.2
345.311	34.47
345.523	24.23
345.735	-80.21
345.947	28.33
346.159	-6.49
346.371	3.75
346.583	-6.49
346.795	198.31
347.007	18.09
347.219	3.75
347.431	-29.01
347.643	114.34
347.855	-16.73
348.067	153.26
348.279	-72.02
348.491	87.72
348.703	67.24
348.915	69.29
349.127	-63.83
349.339	3.75
349.551	-14.68
349.763	30.38
349.975	7.85
350.187	97.96
350.399	171.69
350.61	-2.39
350.822	-10.58
351.034	91.82
351.246	-2.39
351.458	63.15
351.669	106.15
351.881	194.22
352.093	216.74
352.305	159.4
352.517	108.2
352.728	130.73
352.94	13.99
353.152	46.76
353.363	-14.68
353.575	36.52
353.787	186.02
353.999	20.14
354.21	237.22
354.422	-39.25
354.633	13.99
354.845	-29.01
355.057	26.28
355.268	-6.49
355.48	59.05
355.692	-0.34
355.903	38.57
356.115	-49.49
356.326	-49.49
356.538	120.49
356.749	87.72
356.961	110.25
357.172	11.95
357.384	-57.68
357.595	243.37
357.807	-18.77
358.018	-31.06
358.23	65.19
358.441	138.92
358.653	42.67
358.864	24.23
359.075	5.8
359.287	75.43
359.498	97.96
359.709	104.11
359.921	48.81
360.132	85.67
360.344	5.8
360.555	-35.16
360.766	65.19
360.977	-24.92
361.189	57
361.4	-6.49
361.611	114.34
361.823	108.2
362.034	110.25
362.245	-53.59
362.456	59.05
362.667	54.95
362.879	-59.73
363.09	48.81
363.301	77.48
363.512	102.06
363.723	5.8
363.935	-24.92
364.146	143.02
364.357	34.47
364.568	-0.34
364.779	-16.73
364.99	89.77
365.201	-78.16
365.412	126.63
365.623	-2.39
365.834	87.72
366.045	34.47
366.256	57
366.467	85.67
366.678	85.67
366.889	38.57
367.1	7.85
367.311	83.63
367.522	-31.06
367.733	7.85
367.944	83.63
368.155	38.57
368.366	52.91
368.577	104.11
368.788	38.57
368.999	-31.06
369.209	46.76
369.42	220.84
369.631	245.41
369.842	77.48
370.053	13.99
370.264	30.38
370.474	-88.4
370.685	143.02
370.896	32.43
371.107	75.43
371.317	26.28
371.528	67.24
371.739	136.87
371.95	57
372.16	40.62
372.371	81.58
372.582	24.23
372.792	65.19
373.003	48.81
373.214	-0.34
373.424	134.82
373.635	-6.49
373.846	138.92
374.056	126.63
374.267	67.24
374.477	61.1
374.688	-4.44
374.898	73.39
375.109	75.43
375.319	140.97
375.53	120.49
375.74	57
375.951	-10.58
376.161	77.48
376.372	161.45
376.582	-31.06
376.793	161.45
377.003	20.14
377.214	-10.58
377.424	57
377.635	34.47
377.845	30.38
378.055	97.96
378.266	-92.5
378.476	112.3
378.686	-8.53
378.897	54.95
379.107	112.3
379.317	38.57
379.528	16.04
379.738	110.25
379.948	-59.73
380.158	165.54
380.369	48.81
380.579	7.85
380.789	40.62
380.999	83.63
381.21	67.24
381.42	233.13
381.63	1.71
381.84	30.38
382.05	20.14
382.261	54.95
382.471	118.44
382.681	40.62
382.891	130.73
383.101	59.05
383.311	-12.63
383.521	-12.63
383.731	87.72
383.941	122.54
384.151	77.48
384.361	16.04
384.571	59.05
384.781	91.82
384.991	216.74
385.201	81.58
385.411	108.2
385.621	9.9
385.831	54.95
386.041	89.77
386.251	-18.77
386.461	120.49
386.671	48.81
386.881	46.76
387.091	9.9
387.301	132.78
387.511	34.47
387.72	97.96
387.93	110.25
388.14	-31.06
388.35	73.39
388.56	102.06
388.769	110.25
388.979	87.72
389.189	9.9
389.399	89.77
389.609	40.62
389.818	89.77
390.028	61.1
390.238	44.71
390.447	22.19
390.657	52.91
390.867	75.43
391.076	-94.55
391.286	18.09
391.496	-10.58
391.705	-10.58
391.915	75.43
392.125	67.24
392.334	24.23
392.544	116.39
392.753	-14.68
392.963	-43.35
393.172	81.58
393.382	-57.68
393.591	169.64
393.801	44.71
394.01	140.97
394.22	110.25
394.429	-16.73
394.639	57
394.848	24.23
395.058	145.06
395.267	-37.2
395.477	95.91
395.686	-20.82
395.895	218.79
396.105	206.5
396.314	93.87
396.524	46.76
396.733	61.1
396.942	110.25
397.152	44.71
397.361	71.34
397.57	110.25
397.78	18.09
397.989	-8.53
398.198	167.59
398.407	-24.92
398.617	38.57
398.826	46.76
399.035	57
399.244	85.67
399.453	85.67
399.663	57
399.872	100.01
400.081	-35.16
400.29	192.17
400.499	-12.63
400.708	136.87
400.917	87.72
401.127	20.14
401.336	26.28
401.545	181.93
401.754	89.77
401.963	85.67
402.172	-37.2
402.381	-63.83
402.59	32.43
402.799	67.24
403.008	145.06
403.217	7.85
403.426	52.91
403.635	-35.16
403.844	-26.96
404.053	-16.73
404.262	16.04
404.471	198.31
404.68	87.72
404.888	30.38
405.097	24.23
405.306	-49.49
405.515	110.25
405.724	-18.77
405.933	59.05
406.142	-29.01
406.35	130.73
406.559	28.33
406.768	3.75
406.977	153.26
407.185	95.91
407.394	54.95
407.603	13.99
407.812	52.91
408.02	140.97
408.229	50.86
408.438	1.71
408.646	-86.36
408.855	42.67
409.064	20.14
409.272	13.99
409.481	118.44
409.69	-141.65
409.898	-8.53
410.107	75.43
410.315	93.87
410.524	-39.25
410.733	61.1
410.941	42.67
411.15	149.16
411.358	38.57
411.567	79.53
411.775	24.23
411.984	120.49
412.192	67.24
412.401	26.28
412.609	130.73
412.818	71.34
413.026	108.2
413.234	-29.01
413.443	42.67
413.651	-47.44
413.86	54.95
414.068	93.87
414.276	171.69
414.485	36.52
414.693	112.3
414.901	167.59
415.11	61.1
415.318	32.43
415.526	-20.82
415.734	108.2
415.943	63.15
416.151	79.53
416.359	69.29
416.567	42.67
416.776	71.34
416.984	5.8
417.192	181.93
417.4	1.71
417.608	-74.07
417.817	-53.59
418.025	91.82
418.233	177.83
418.441	-33.11
418.649	7.85
418.857	61.1
419.065	202.41
419.273	36.52
419.481	108.2
419.689	7.85
419.897	-39.25
420.105	-65.88
420.313	100.01
420.521	114.34
420.729	145.06
420.937	-26.96
421.145	-2.39
421.353	83.63
421.561	145.06
421.769	44.71
421.977	-22.87
422.185	20.14
422.393	-86.36
422.601	95.91
422.809	75.43
423.017	65.19
423.224	24.23
423.432	102.06
423.64	11.95
423.848	81.58
424.056	85.67
424.263	100.01
424.471	30.38
424.679	155.3
424.887	13.99
425.094	79.53
425.302	85.67
425.51	59.05
425.718	89.77
425.925	34.47
426.133	36.52
426.341	208.55
426.548	-63.83
426.756	50.86
426.964	24.23
427.171	-22.87
427.379	157.35
427.586	1.71
427.794	59.05
428.001	-4.44
428.209	65.19
428.417	181.93
428.624	102.06
428.832	44.71
429.039	59.05
429.247	93.87
429.454	100.01
429.662	177.83
429.869	81.58
430.076	-6.49
430.284	83.63
430.491	130.73
430.699	93.87
430.906	132.78
431.114	89.77
431.321	79.53
431.528	95.91
431.736	34.47
431.943	171.69
432.15	114.34
432.358	151.21
432.565	212.65
432.772	-47.44
432.979	167.59
433.187	136.87
433.394	87.72
433.601	77.48
433.808	216.74
434.016	220.84
434.223	161.45
434.43	48.81
434.637	202.41
434.844	204.46
435.052	75.43
435.259	159.4
435.466	226.98
435.673	165.54
435.88	136.87
436.087	169.64
436.294	216.74
436.501	204.46
436.708	155.3
436.915	118.44
437.122	165.54
437.329	106.15
437.537	200.36
437.743	179.88
437.95	298.66
438.157	212.65
438.364	255.65
438.571	159.4
438.778	276.13
438.985	186.02
439.192	235.18
439.399	165.54
439.606	247.46
439.813	300.71
440.02	341.67
440.227	431.78
440.433	278.18
440.64	208.55
440.847	237.22
441.054	372.39
441.261	396.96
441.467	345.77
441.674	202.41
441.881	325.29
442.088	360.1
442.294	386.72
442.501	532.13
442.708	478.88
442.914	384.68
443.121	392.87
443.328	435.88
443.534	462.5
443.741	462.5
443.948	327.33
444.154	573.09
444.361	626.34
444.568	519.84
444.774	552.61
444.981	460.45
445.187	630.43
445.394	550.56
445.6	575.14
445.807	646.82
446.013	601.76
446.22	482.98
446.426	714.4
446.633	761.5
446.839	919.2
447.046	730.78
447.252	837.28
447.459	765.6
447.665	792.22
447.871	894.62
448.078	1078.94
448.284	982.68
448.491	1037.98
448.697	1167
448.903	1111.71
449.11	1111.71
449.316	1101.47
449.522	1322.65
449.728	1316.5
449.935	1236.63
450.141	1259.16
450.347	1375.89
450.553	1232.54
450.76	1476.24
450.966	1455.76
451.172	1541.78
451.378	1453.72
451.584	1570.45
451.791	1762.96
451.997	1840.78
452.203	1730.19
452.409	1957.52
452.615	1896.08
452.821	1916.56
453.027	1836.69
453.233	2180.75
453.44	2162.31
453.646	2170.51
453.852	2365.06
454.058	2348.68
454.264	2500.23
454.47	2616.96
454.676	2756.22
454.882	2903.68
455.088	2723.46
455.294	2850.43
455.5	3047.04
455.705	3274.36
455.911	3131
456.117	3356.28
456.323	3565.17
456.529	3565.17
456.735	3839.6
456.941	3901.04
457.147	4132.46
457.352	4109.93
457.558	4173.42
457.764	4570.72
457.97	4626.02
458.176	4865.63
458.381	5090.91
458.587	5242.46
458.793	5242.46
458.999	5428.82
459.204	6157.9
459.41	6245.96
459.616	6149.71
459.821	6553.16
460.027	6745.67
460.233	7136.83
460.438	7163.45
460.644	7446.07
460.85	7659.06
461.055	7884.34
461.261	8273.45
461.466	8162.86
461.672	8306.22
461.878	9096.74
462.083	9158.17
462.289	9467.42
462.494	9729.56
462.7	9840.15
462.905	9823.76
463.111	10769.93
463.316	10978.82
463.522	11466.24
463.727	11746.81
463.932	12164.59
464.138	12772.84
464.343	13096.42
464.549	13489.63
464.754	13950.42
464.959	14366.16
465.165	14802.38
465.37	14691.79
465.575	14308.82
465.781	15478.21
465.986	15832.51
466.191	15748.54
466.397	15807.93
466.602	15609.28
466.807	16651.69
467.012	16596.4
467.218	17032.61
467.423	17005.99
467.628	17360.29
467.833	18345.36
468.038	17915.29
468.244	17870.23
468.449	18810.25
468.654	18259.35
468.859	18388.37
469.064	18228.63
469.269	17792.41
469.474	18068.89
469.679	18251.16
469.885	18060.7
470.09	18218.39
470.295	18204.05
470.5	17735.07
470.705	17749.4
470.91	17776.03
471.115	17010.09
471.32	17491.36
471.525	17425.82
471.73	17096.1
471.935	16913.83
472.139	16096.69
472.344	16063.93
472.549	16119.22
472.754	15846.84
472.959	15142.34
473.164	14804.42
473.369	14726.6
473.574	14966.21
473.778	14755.27
473.983	14386.64
474.188	14018
474.393	13454.81
474.598	13520.35
474.802	13221.34
475.007	12983.78
475.212	12932.58
475.417	12127.73
475.621	12250.61
475.826	12023.28
476.031	11869.69
476.235	11625.98
476.44	11480.57
476.645	11240.96
476.849	11357.69
477.054	10970.63
477.259	10657.29
477.463	10655.24
477.668	10589.71
477.872	10415.63
478.077	10003.99
478.282	9586.2
478.486	9664.02
478.691	9827.86
478.895	9522.71
479.1	9422.36
479.304	9481.75
479.509	9051.68
479.713	9401.88
479.918	8980
480.122	8738.34
480.326	8865.32
480.531	8984.1
480.735	8754.73
480.94	8697.38
481.144	8959.52
481.348	8517.16
481.553	8672.81
481.757	8316.46
481.961	8326.7
482.166	8420.91
482.37	8316.46
482.574	8103.47
482.778	8039.98
482.983	8234.54
483.187	8037.94
483.391	7974.45
483.595	7796.28
483.8	7626.29
484.004	7910.96
484.208	7728.69
484.412	7771.7
484.616	7757.36
484.821	7384.63
485.025	7095.87
485.229	7251.52
485.433	6987.33
485.637	7147.07
485.841	7046.72
486.045	6903.36
486.249	6946.37
486.453	6739.52
486.657	6549.06
486.861	6352.46
487.065	6334.03
487.269	6409.8
487.473	6092.37
487.677	6346.31
487.881	6243.92
488.085	6055.5
488.289	6022.73
488.493	5680.72
488.697	5774.93
488.901	5627.48
489.105	5391.96
489.309	5406.3
489.512	5297.75
489.716	5230.17
489.92	5095
490.124	4910.69
490.328	4982.37
490.531	4933.22
490.735	4980.32
490.939	4617.83
491.143	4640.36
491.346	4550.25
491.55	4623.97
491.754	4353.64
491.958	4558.44
492.161	4306.54
492.365	4224.62
492.569	4230.76
492.772	4144.75
492.976	4142.7
493.18	4030.06
493.383	4085.36
493.587	3954.29
493.79	4030.06
493.994	3706.48
494.197	3692.15
494.401	3817.07
494.605	3698.29
494.808	3696.24
495.012	3612.28
495.215	3694.19
495.419	3841.65
495.622	3452.53
495.825	3532.4
496.029	3462.77
496.232	3712.63
496.436	3587.7
496.639	3579.51
496.843	3536.5
497.046	3442.29
497.249	3651.19
497.453	3622.52
497.656	3587.7
497.859	3462.77
498.063	3532.4
498.266	3597.94
498.469	3436.15
498.673	3520.12
498.876	3569.27
499.079	3683.95
499.282	3675.76
499.485	3786.35
499.689	3724.91
499.892	3782.26
500.095	3587.7
500.298	3694.19
500.501	3645.04
500.705	3794.54
500.908	3751.54
501.111	3671.67
501.314	3993.2
501.517	3968.62
501.72	3921.52
501.923	3958.38
502.126	4009.58
502.329	4222.57
502.532	4173.42
502.735	4204.14
502.938	4423.27
503.141	4310.63
503.344	4339.3
503.547	4296.3
503.75	4216.43
503.953	4390.5
504.156	4548.2
504.359	4617.83
504.562	4644.45
504.765	4750.95
504.968	4884.06
505.17	4863.58
505.373	4972.13
505.576	5072.48
505.779	5097.05
505.982	5002.85
506.185	5375.58
506.387	5203.55
506.59	5455.45
506.793	5480.02
506.996	5600.85
507.198	5826.13
507.401	5912.14
507.604	6008.4
507.807	6178.38
508.009	6086.22
508.212	6327.88
508.415	6395.47
508.617	6534.73
508.82	6688.32
509.022	6704.71
509.225	7063.1
509.428	7370.3
509.63	7241.28
509.833	7278.14
510.035	7794.23
510.238	7783.99
510.44	7749.17
510.643	8162.86
510.845	8412.71
511.048	8459.82
511.25	8543.78
511.453	9010.72
511.655	9182.75
511.858	9385.5
512.06	9455.13
512.262	9571.86
512.465	9690.65
512.667	10214.93
512.87	10116.62
513.072	10421.77
513.274	10819.08
513.477	10991.11
513.679	11144.7
513.881	11652.6
514.084	11736.57
514.286	11818.49
514.488	12344.81
514.69	12725.74
514.893	12731.88
515.095	12908.01
515.297	13319.65
515.499	13614.55
515.701	13882.84
515.904	14382.54
516.106	14417.36
516.308	14972.36
516.51	15197.63
516.712	15334.85
516.914	15601.08
517.116	16215.48
517.318	16260.53
517.52	16539.05
517.722	16676.27
517.925	17270.18
518.127	17671.58
518.329	17839.51
518.531	17661.34
518.733	18558.35
518.935	18763.15
519.136	18871.69
519.338	19295.62
519.54	19522.94
519.742	19922.3
519.944	20321.65
520.146	20532.59
520.348	20903.28
520.55	21419.36
520.752	21415.27
520.954	21939.55
521.155	21933.4
521.357	22439.25
521.559	22764.88
521.761	22850.89
521.963	23004.49
522.164	23340.36
522.366	23412.04
522.568	23733.57
522.77	24042.81
522.971	24337.72
523.173	23940.41
523.375	24550.71
523.576	24212.79
523.778	24583.48
523.98	24978.73
524.181	25097.52
524.383	24878.38
524.584	25152.81
524.786	25404.71
524.988	25093.42
525.189	25179.43
525.391	25736.48
525.592	25636.13
525.794	25244.97
525.995	25421.09
526.197	25568.55
526.398	25427.24
526.6	25222.44
526.801	25478.44
527.003	25357.61
527.204	25169.19
527.406	25251.11
527.607	25175.34
527.808	25337.13
528.01	24655.15
528.211	24692.02
528.412	24714.55
528.614	24476.98
528.815	24415.54
529.016	24476.98
529.218	24073.53
529.419	23909.69
529.62	23467.33
529.822	23485.76
530.023	23065.93
530.224	23137.61
530.425	22951.24
530.626	22443.35
530.828	22324.57
531.029	22386.01
531.23	21712.22
531.431	21585.25
531.632	21474.66
531.833	21071.21
532.035	20950.38
532.236	20725.1
532.437	20698.48
532.638	20325.75
532.839	20026.75
533.04	19791.23
533.241	19475.84
533.442	19426.69
533.643	19127.69
533.844	18650.51
534.045	18677.13
534.246	18154.9
534.447	18179.48
534.648	17839.51
534.849	17642.91
535.05	17173.92
535.251	17108.39
535.451	16983.46
535.652	16729.52
535.853	16299.44
536.054	16319.92
536.255	15992.25
536.456	15566.27
536.657	15637.95
536.857	15521.21
537.058	15291.84
537.259	14931.4
537.46	14777.8
537.66	14472.65
537.861	14366.16
538.062	14226.9
538.263	14015.96
538.463	13688.28
538.664	13782.49
538.865	13510.11
539.065	13348.32
539.266	13204.96
539.466	13008.36
539.667	12776.94
539.868	12729.83
540.068	12385.77
540.269	12686.83
540.469	12328.43
540.67	12183.02
540.87	11986.42
541.071	11587.07
541.271	11896.31
541.472	11605.5
541.672	11445.76
541.873	11261.44
542.073	10989.06
542.274	11093.51
542.474	11140.61
542.675	10624.52
542.875	10620.42
543.075	10409.48
543.276	10292.75
543.476	10415.63
543.676	10235.41
543.877	9993.75
544.077	9864.72
544.277	10014.23
544.478	9741.85
544.678	9778.71
544.878	9571.86
545.078	9666.07
545.279	9039.39
545.479	9176.61
545.679	9072.16
545.879	8844.84
546.079	8910.37
546.28	8883.75
546.48	8644.13
546.68	8623.66
546.88	8474.15
547.08	8451.63
547.28	8255.02
547.48	7988.78
547.68	8117.81
547.88	8140.33
548.081	8070.7
548.281	7740.98
548.481	7867.95
548.681	7769.65
548.881	7583.29
549.081	7554.62
549.28	7169.6
549.48	7345.72
549.68	7228.99
549.88	7083.58
550.08	6852.16
550.28	6983.23
550.48	6880.83
550.68	6706.76
550.88	6534.73
551.08	6508.1
551.279	6407.75
551.479	6264.4
551.679	6225.48
551.879	6051.41
552.079	5920.34
552.278	5946.96
552.478	5994.06
552.678	5670.48
552.878	5801.55
553.077	5678.68
553.277	5555.8
553.477	5529.17
553.676	5545.56
553.876	5219.93
554.076	5273.18
554.275	5154.4
554.475	5135.96
554.674	5013.09
554.874	4761.19
555.074	4755.04
555.273	4697.7
555.473	4742.75
555.672	4554.34
555.872	4439.65
556.071	4314.73
556.271	4564.58
556.47	4394.6
556.67	4226.67
556.869	4202.09
557.068	3991.15
557.268	3896.94
557.467	3954.29
557.667	3948.14
557.866	3716.72
558.065	3868.27
558.265	3782.26
558.464	3516.02
558.663	3616.37
558.863	3585.65
559.062	3602.04
559.261	3372.66
559.461	3438.2
559.66	3393.14
559.859	3223.16
560.058	3204.73
560.258	3124.86
560.457	3116.67
560.656	3102.33
560.855	2979.45
561.054	2989.69
561.253	2987.65
561.453	2991.74
561.652	2786.94
561.851	2926.21
562.05	2573.96
562.249	2614.91
562.448	2606.72
562.647	2522.76
562.846	2578.05
563.045	2565.76
563.244	2569.86
563.443	2588.29
563.642	2342.53
563.841	2326.15
564.04	2307.72
564.239	2313.86
564.438	2322.06
564.637	2199.18
564.836	2213.51
565.035	2217.61
565.234	2131.59
565.432	2135.69
565.631	2125.45
565.83	2111.11
566.029	1939.09
566.228	2002.57
566.427	2051.72
566.625	1765.01
566.824	1924.75
567.023	1859.21
567.222	1775.25
567.42	1722
567.619	1666.71
567.818	1777.3
568.016	1939.09
568.215	1734.29
568.414	1568.4
568.612	1642.13
568.811	1590.93
569.01	1613.46
569.208	1633.94
569.407	1603.22
569.605	1527.44
569.804	1515.16
570.002	1506.96
570.201	1484.44
570.4	1506.96
570.598	1365.65
570.797	1365.65
570.995	1275.54
571.193	1287.83
571.392	1357.46
571.59	1322.65
571.789	1398.42
571.987	1298.07
572.186	1418.9
572.384	1181.34
572.582	1126.04
572.781	1310.36
572.979	1142.43
573.177	1134.23
573.376	1189.53
573.574	1156.76
573.772	1042.07
573.971	994.97
574.169	1035.93
574.367	1095.32
574.565	1003.16
574.763	956.06
574.962	994.97
575.16	962.2
575.358	933.53
575.556	931.48
575.754	984.73
575.952	1005.21
576.151	1007.26
576.349	900.76
576.547	839.33
576.745	931.48
576.943	792.22
577.141	818.85
577.339	769.69
577.537	880.29
577.735	824.99
577.933	865.95
578.131	657.06
578.329	839.33
578.527	695.97
578.725	771.74
578.923	663.2
579.121	704.16
579.319	618.15
579.516	528.03
579.714	884.38
579.912	775.84
580.11	564.9
580.308	564.9
580.506	618.15
580.704	509.6
580.901	597.67
581.099	718.5
581.297	712.35
581.495	581.28
581.692	540.32
581.89	663.2
582.088	614.05
582.285	593.57
582.483	540.32
582.681	538.27
582.878	571.04
583.076	456.36
583.274	517.79
583.471	644.77
583.669	429.73
583.866	384.68
584.064	431.78
584.262	429.73
584.459	468.64
584.657	495.27
584.854	521.89
585.052	503.46
585.249	495.27
585.447	433.83
585.644	296.61
585.841	612
586.039	485.03
586.236	489.12
586.434	372.39
586.631	396.96
586.828	454.31
587.026	464.55
587.223	396.96
587.42	343.72
587.618	425.64
587.815	507.55
588.012	364.2
588.21	347.81
588.407	439.97
588.604	482.98
588.801	390.82
588.999	335.53
589.196	335.53
589.393	302.76
589.59	409.25
589.787	331.43
589.984	433.83
590.182	378.53
590.379	267.94
590.576	304.81
590.773	407.2
590.97	343.72
591.167	368.29
591.364	380.58
591.561	304.81
591.758	454.31
591.955	358.05
592.152	317.09
592.349	378.53
592.546	339.62
592.743	218.79
592.94	220.84
593.137	358.05
593.334	384.68
593.531	450.21
593.727	356.01
593.924	380.58
594.121	300.71
594.318	257.7
594.515	413.35
594.712	366.25
594.908	532.13
595.105	272.04
595.302	427.68
595.499	386.72
595.696	411.3
595.892	300.71
596.089	460.45
596.286	306.85
596.482	458.4
596.679	411.3
596.876	257.7
597.072	478.88
597.269	396.96
597.466	464.55
597.662	417.44
597.859	501.41
598.055	505.51
598.252	542.37
598.448	597.67
598.645	597.67
598.841	603.81
599.038	675.49
599.234	755.36
599.431	624.29
599.627	612
599.824	753.31
600.02	628.39
600.217	671.39
600.413	749.22
600.609	710.3
600.806	988.83
601.002	802.46
601.198	689.82
601.395	892.57
601.591	941.72
601.787	859.81
601.984	878.24
602.18	1113.75
602.376	1013.4
602.572	1142.43
602.769	1089.18
602.965	1054.36
603.161	1253.02
603.357	1334.93
603.553	1265.3
603.75	1232.54
603.946	1341.08
604.142	1382.04
604.338	1525.4
604.534	1412.76
604.73	1500.82
604.926	1533.59
605.122	1662.61
605.318	1693.33
605.514	1820.3
605.71	1762.96
605.906	1812.11
606.102	1822.35
606.298	1996.43
606.494	2078.35
606.69	2236.04
606.886	2088.59
607.082	2154.12
607.278	2213.51
607.474	2285.19
607.67	2395.78
607.866	2264.71
608.062	2547.33
608.257	2434.69
608.453	2496.13
608.649	2707.07
608.845	2635.39
609.041	2610.82
609.236	2862.72
609.432	2944.64
609.628	3020.41
609.824	3196.54
610.019	3098.24
610.215	3257.98
610.411	3440.25
610.606	3550.84
610.802	3483.25
610.998	3628.66
611.193	3726.96
611.389	3610.23
611.584	3927.66
611.78	3806.83
611.976	4087.4
612.171	4292.2
612.367	4425.32
612.562	4531.81
612.758	4462.18
612.953	4681.32
613.149	4779.62
613.344	4761.19
613.539	4980.32
613.735	5375.58
613.93	5348.95
614.126	5385.82
614.321	5672.53
614.517	5957.2
614.712	5756.5
614.907	5908.05
615.103	6194.76
615.298	6221.39
615.493	6628.93
615.688	6389.32
615.884	6792.77
616.079	6942.27
616.274	7159.36
616.47	7190.08
616.665	7636.53
616.86	7614.01
617.055	7888.43
617.25	7804.47
617.445	8246.83
617.641	8394.28
617.836	8623.66
618.031	8674.85
618.226	8977.95
618.421	9227.81
618.616	9473.56
618.811	9868.82
619.006	9930.26
619.201	9969.17
619.396	10337.8
619.591	10378.76
619.786	10870.28
619.981	11042.31
620.176	11185.66
620.371	11367.93
620.566	11798.01
620.761	11935.22
620.956	12238.32
621.151	12463.6
621.346	13180.39
621.541	12762.6
621.735	13370.85
621.93	13348.32
622.125	13497.82
622.32	13555.16
622.515	13899.22
622.709	14241.23
622.904	14654.92
623.099	14702.03
623.294	15291.84
623.488	15029.7
623.683	15680.96
623.878	15762.87
624.072	16272.82
624.267	16303.54
624.462	16559.53
624.656	16600.49
624.851	17010.09
625.046	17302.95
625.24	17466.78
625.435	17769.88
625.629	17851.8
625.824	18238.87
626.018	18455.95
626.213	18247.06
626.407	18847.12
626.602	19125.64
626.796	19258.76
626.991	19592.58
627.185	19697.02
627.38	19824
627.574	19543.42
627.768	19946.87
627.963	19957.11
628.157	19850.62
628.352	20141.43
628.546	19854.72
628.74	19948.92
628.935	19920.25
629.129	19920.25
629.323	19858.81
629.517	19723.65
629.712	19705.21
629.906	19574.14
630.1	18967.95
630.294	19004.81
630.489	18855.31
630.683	18722.19
630.877	18228.63
631.071	17786.27
631.265	17698.2
631.459	17307.04
631.653	16821.67
631.848	16590.25
632.042	16065.97
632.236	15726.01
632.43	15187.39
632.624	14927.3
632.818	14300.62
633.012	14106.07
633.206	13450.72
633.4	13366.75
633.594	12375.53
633.788	12170.74
633.982	11972.08
634.176	11605.5
634.369	11050.5
634.563	10485.26
634.757	10046.99
634.951	10057.23
635.145	9375.26
635.339	9432.6
635.533	8721.96
635.726	8525.35
635.92	7941.68
636.114	7642.68
636.308	7319.1
636.501	7075.39
636.695	7099.97
636.889	6430.28
637.083	6184.52
637.276	5996.11
637.47	5584.47
637.664	5549.65
637.857	5293.66
638.051	5013.09
638.244	5088.86
638.438	4613.73
638.632	4617.83
638.825	4267.63
639.019	4355.69
639.212	4034.16
639.406	4044.4
639.599	3700.34
639.793	3483.25
639.986	3288.7
640.18	3411.57
640.373	3192.44
640.567	3016.32
640.76	3059.32
640.954	2727.55
641.147	2692.74
641.34	2455.17
641.534	2616.96
641.727	2471.56
641.92	2326.15
642.114	2354.82
642.307	2070.16
642.5	2141.83
642.694	1934.99
642.887	1945.23
643.08	1988.24
643.273	1871.5
643.467	1621.65
643.66	1511.06
643.853	1595.03
644.046	1463.96
644.239	1552.02
644.432	1339.03
644.626	1310.36
644.819	1234.58
645.012	1156.76
645.205	1277.59
645.398	1279.64
645.591	1070.75
645.784	921.24
645.977	911
646.17	923.29
646.363	992.92
646.556	908.96
646.749	777.89
646.942	870.05
647.135	933.53
647.328	851.61
647.521	773.79
647.714	698.02
647.907	763.55
648.099	577.19
648.292	700.06
648.485	698.02
648.678	564.9
648.871	528.03
649.064	618.15
649.256	493.22
649.449	530.08
649.642	386.72
649.835	550.56
650.027	353.96
650.22	550.56
650.413	401.06
650.605	452.26
650.798	392.87
650.991	413.35
651.183	419.49
651.376	491.17
651.568	319.14
651.761	257.7
651.954	411.3
652.146	235.18
652.339	415.4
652.531	343.72
652.724	294.57
652.916	337.57
653.109	196.26
653.301	308.9
653.494	374.44
653.686	263.85
653.879	310.95
654.071	294.57
654.263	235.18
654.456	284.33
654.648	360.1
654.84	276.13
655.033	253.61
655.225	310.95
655.417	173.74
655.61	315.05
655.802	204.46
655.994	284.33
656.186	112.3
656.379	245.41
656.571	108.2
656.763	153.26
656.955	192.17
657.148	46.76
657.34	253.61
657.532	204.46
657.724	110.25
657.916	196.26
658.108	296.61
658.3	177.83
658.492	202.41
658.684	104.11
658.876	239.27
659.068	28.33
659.26	18.09
659.452	149.16
659.644	104.11
659.836	257.7
660.028	179.88
660.22	149.16
660.412	126.63
660.604	143.02
660.796	89.77
660.988	190.12
661.18	120.49
661.372	128.68
661.563	134.82
661.755	100.01
661.947	106.15
662.139	-24.92
662.331	100.01
662.522	75.43
662.714	16.04
662.906	89.77
663.097	34.47
663.289	67.24
663.481	-20.82
663.673	202.41
663.864	-8.53
664.056	100.01
664.247	85.67
664.439	224.94
664.631	89.77
664.822	130.73
665.014	122.54
665.205	54.95
665.397	77.48
665.588	151.21
665.78	-12.63
665.971	167.59
666.163	134.82
666.354	100.01
666.546	65.19
666.737	44.71
666.929	106.15
667.12	46.76
667.311	136.87
667.503	169.64
667.694	149.16
667.885	73.39
668.077	132.78
668.268	28.33
668.459	151.21
668.651	157.35
668.842	34.47
669.033	26.28
669.224	57
669.416	206.5
669.607	73.39
669.798	69.29
669.989	175.78
670.18	73.39
670.371	91.82
670.563	20.14
670.754	157.35
670.945	52.91
671.136	175.78
671.327	-12.63
671.518	149.16
671.709	298.66
671.9	147.11
672.091	140.97
672.282	110.25
672.473	136.87
672.664	61.1
672.855	100.01
673.046	67.24
673.237	75.43
673.428	79.53
673.619	204.46
673.809	69.29
674	192.17
674.191	194.22
674.382	151.21
674.573	48.81
674.764	63.15
674.954	153.26
675.145	28.33
675.336	77.48
675.527	24.23
675.717	48.81
675.908	79.53
676.099	-6.49
676.289	104.11
676.48	16.04
676.671	77.48
676.861	65.19
677.052	138.92
677.243	91.82
677.433	-37.2
677.624	143.02
677.814	159.4
678.005	83.63
678.195	183.98
678.386	38.57
678.576	145.06
678.767	20.14
678.957	77.48
679.148	200.36
679.338	282.28
679.529	114.34
679.719	106.15
679.909	130.73
680.1	163.5
680.29	147.11
680.481	73.39
680.671	110.25
680.861	112.3
681.052	112.3
681.242	28.33
681.432	167.59
681.622	153.26
681.813	-59.73
682.003	145.06
682.193	34.47
682.383	79.53
682.573	87.72
682.764	112.3
682.954	85.67
683.144	140.97
683.334	136.87
683.524	153.26
683.714	116.39
683.904	63.15
684.094	54.95
684.284	81.58
684.474	239.27
684.664	136.87
684.854	177.83
685.044	132.78
685.234	67.24
685.424	93.87
685.614	-10.58
685.804	267.94
685.994	138.92
686.184	91.82
686.374	151.21
686.564	143.02
686.753	108.2
686.943	32.43
687.133	140.97
687.323	54.95
687.513	134.82
687.702	151.21
687.892	87.72
688.082	169.64
688.272	218.79
688.461	159.4
688.651	196.26
688.841	175.78
689.03	153.26
689.22	140.97
689.41	145.06
689.599	149.16
689.789	134.82
689.979	247.46
690.168	59.05
690.358	136.87
690.547	97.96
690.737	239.27
690.926	163.5
691.116	140.97
691.305	173.74
691.495	151.21
691.684	79.53
691.874	120.49
692.063	169.64
692.252	167.59
692.442	175.78
692.631	83.63
692.82	83.63
693.01	226.98
693.199	32.43
693.388	169.64
693.578	136.87
693.767	190.12
693.956	128.68
694.146	110.25
694.335	138.92
694.524	155.3
694.713	181.93
694.902	81.58
695.092	93.87
695.281	134.82
695.47	40.62
695.659	57
695.848	159.4
696.037	77.48
696.226	106.15
696.415	175.78
696.604	190.12
696.793	155.3
696.982	106.15
697.171	181.93
697.36	100.01
697.549	181.93
697.738	73.39
697.927	36.52
698.116	38.57
698.305	149.16
698.494	42.67
698.683	112.3
698.872	226.98
699.061	91.82
699.25	65.19
699.438	143.02
699.627	46.76
699.816	188.07
700.005	-26.96
700.193	147.11
700.382	157.35
700.571	186.02
700.76	216.74
700.948	179.88
701.137	147.11
701.326	149.16
701.514	57
701.703	104.11
701.892	169.64
702.08	374.44
702.269	112.3
702.457	102.06
702.646	165.54
702.834	75.43
703.023	186.02
703.212	202.41
703.4	83.63
703.589	83.63
703.777	65.19
703.965	118.44
704.154	26.28
704.342	36.52
704.531	85.67
704.719	169.64
704.907	245.41
705.096	54.95
705.284	73.39
705.472	126.63
705.661	210.6
705.849	132.78
706.037	229.03
706.226	151.21
706.414	153.26
706.602	151.21
706.79	171.69
706.979	59.05
707.167	114.34
707.355	59.05
707.543	188.07
707.731	167.59
707.919	194.22
708.107	173.74
708.296	71.34
708.484	122.54
708.672	241.32
708.86	159.4
709.048	128.68
709.236	69.29
709.424	128.68
709.612	175.78
709.8	-0.34
709.988	130.73
710.176	143.02
710.364	284.33
710.551	85.67
710.739	149.16
710.927	22.19
711.115	108.2
711.303	153.26
711.491	188.07
711.679	81.58
711.866	192.17
712.054	116.39
712.242	183.98
712.43	173.74
712.617	63.15
712.805	196.26
712.993	38.57
713.181	77.48
713.368	147.11
713.556	95.91
713.744	87.72
713.931	292.52
714.119	110.25
714.306	128.68
714.494	145.06
714.682	91.82
714.869	42.67
715.057	71.34
715.244	18.09
715.432	175.78
715.619	32.43
715.807	97.96
715.994	147.11
716.182	136.87
716.369	224.94
716.556	222.89
716.744	24.23
716.931	81.58
717.119	202.41
717.306	108.2
717.493	163.5
717.681	73.39
717.868	38.57
718.055	136.87
718.242	126.63
718.43	169.64
718.617	192.17
718.804	100.01
718.991	241.32
719.179	132.78
719.366	136.87
719.553	247.46
719.74	208.55
719.927	222.89
720.114	13.99
720.301	42.67
720.488	151.21
720.676	106.15
720.863	194.22
721.05	216.74
721.237	179.88
721.424	153.26
721.611	112.3
721.798	50.86
721.985	52.91
722.172	214.7
722.358	102.06
722.545	188.07
722.732	161.45
722.919	188.07
723.106	181.93
723.293	118.44
723.48	120.49
723.667	93.87
723.853	132.78
724.04	196.26
724.227	218.79
724.414	48.81
724.6	190.12
724.787	284.33
724.974	300.71
725.161	132.78
725.347	38.57
725.534	134.82
725.72	198.31
725.907	186.02
726.094	257.7
726.28	116.39
726.467	153.26
726.653	42.67
726.84	233.13
727.027	261.8
727.213	128.68
727.4	167.59
727.586	130.73
727.773	165.54
727.959	157.35
728.145	106.15
728.332	93.87
728.518	161.45
728.705	210.6
728.891	155.3
729.077	181.93
729.264	36.52
729.45	106.15
729.636	257.7
729.823	104.11
730.009	241.32
730.195	280.23
730.382	204.46
730.568	114.34
730.754	198.31
730.94	208.55
731.126	173.74
731.313	214.7
731.499	69.29
731.685	192.17
731.871	214.7
732.057	183.98
732.243	294.57
732.429	278.18
732.615	229.03
732.801	259.75
732.987	196.26
733.173	171.69
733.359	97.96
733.545	196.26
733.731	175.78
733.917	249.51
734.103	208.55
734.289	181.93
734.475	175.78
734.661	306.85
734.847	249.51
735.033	118.44
735.219	296.61
735.404	153.26
735.59	140.97
735.776	157.35
735.962	202.41
736.148	304.81
736.333	302.76
736.519	145.06
736.705	132.78
736.89	202.41
737.076	175.78
737.262	122.54
737.447	136.87
737.633	108.2
737.819	241.32
738.004	198.31
738.19	204.46
738.375	249.51
738.561	249.51
738.747	183.98
738.932	126.63
739.118	321.19
739.303	200.36
739.489	251.56
739.674	188.07
739.859	114.34
740.045	210.6
740.23	251.56
740.416	89.77
740.601	194.22
740.786	220.84
740.972	188.07
741.157	167.59
741.342	138.92
741.528	206.5
741.713	269.99
741.898	114.34
742.084	157.35
742.269	136.87
742.454	181.93
742.639	231.08
742.824	157.35
743.01	335.53
743.195	202.41
743.38	208.55
743.565	231.08
743.75	241.32
743.935	298.66
744.12	337.57
744.305	108.2
744.49	173.74
744.675	214.7
744.86	181.93
745.045	212.65
745.23	255.65
745.415	235.18
745.6	315.05
745.785	153.26
745.97	251.56
746.155	241.32
746.34	362.15
746.525	231.08
746.71	325.29
746.895	50.86
747.079	169.64
747.264	112.3
747.449	208.55
747.634	247.46
747.819	239.27
748.003	155.3
748.188	44.71
748.373	140.97
748.557	106.15
748.742	208.55
748.927	235.18
749.111	128.68
749.296	147.11
749.481	243.37
749.665	288.42
749.85	118.44
750.034	255.65
750.219	183.98
750.404	171.69
750.588	206.5
750.773	126.63
750.957	194.22
751.141	143.02
751.326	265.89
751.51	126.63
751.695	128.68
751.879	118.44
752.064	298.66
752.248	214.7
752.432	304.81
752.617	288.42
752.801	157.35
752.985	165.54
753.17	218.79
753.354	206.5
753.538	181.93
753.722	44.71
753.907	108.2
754.091	75.43
754.275	175.78
754.459	114.34
754.643	114.34
754.828	157.35
755.012	175.78
755.196	75.43
755.38	233.13
755.564	132.78
755.748	85.67
755.932	149.16
756.116	202.41
756.3	218.79
756.484	126.63
756.668	140.97
756.852	30.38
757.036	165.54
757.22	159.4
757.404	87.72
757.588	108.2
757.772	140.97
757.956	149.16
758.14	224.94
758.323	116.39
758.507	145.06
758.691	46.76
758.875	143.02
759.059	132.78
759.242	48.81
759.426	118.44
759.61	132.78
759.794	97.96
759.977	147.11
760.161	241.32
760.345	194.22
760.528	167.59
760.712	190.12
760.895	167.59
761.079	87.72
761.263	83.63
761.446	81.58
761.63	91.82
761.813	136.87
761.997	-18.77
762.18	28.33
762.364	57
762.547	-65.88
762.731	87.72
762.914	102.06
763.098	116.39
763.281	57
763.464	67.24
763.648	145.06
763.831	63.15
764.015	50.86
764.198	161.45
764.381	124.58
764.564	124.58
764.748	89.77
764.931	130.73
765.114	85.67
765.297	91.82
765.481	122.54
765.664	83.63
765.847	77.48
766.03	196.26
766.213	97.96
766.397	102.06
766.58	-12.63
766.763	104.11
766.946	71.34
767.129	26.28
767.312	7.85
767.495	67.24
767.678	38.57
767.861	153.26
768.044	114.34
768.227	122.54
768.41	104.11
768.593	93.87
768.776	161.45
768.959	52.91
769.142	65.19
769.324	69.29
769.507	73.39
769.69	18.09
769.873	-20.82
770.056	296.61
770.239	48.81
770.421	188.07
770.604	114.34
770.787	16.04
770.97	81.58
771.152	20.14
771.335	120.49
771.518	-22.87
771.7	138.92
771.883	157.35
772.066	71.34
772.248	106.15
772.431	138.92
772.613	89.77
772.796	87.72
772.978	130.73
773.161	93.87
773.343	34.47
773.526	-59.73
773.708	-45.4
773.891	-72.02
774.073	153.26
774.256	-22.87
774.438	188.07
774.621	11.95
774.803	159.4
774.985	3.75
775.168	-18.77
775.35	50.86
775.532	63.15
775.715	40.62
775.897	9.9
776.079	-2.39
776.261	110.25
776.444	57
776.626	-22.87
776.808	81.58
776.99	-20.82
777.173	42.67
777.355	75.43
777.537	77.48
777.719	85.67
777.901	-0.34
778.083	52.91
778.265	-12.63
778.447	108.2
778.629	44.71
778.811	50.86
778.993	157.35
779.175	151.21
779.357	3.75
779.539	-55.64
779.721	77.48
779.903	120.49
780.085	50.86
780.267	91.82
780.449	108.2
780.631	57
780.812	171.69
780.994	42.67
781.176	59.05
781.358	3.75
781.54	57
781.721	179.88
781.903	44.71
782.085	30.38
782.267	132.78
782.448	-47.44
782.63	50.86
782.812	102.06
782.993	11.95
783.175	65.19
783.357	1.71
783.538	77.48
783.72	42.67
783.901	18.09
784.083	157.35
784.264	75.43
784.446	-88.4
784.627	1.71
784.809	-10.58
784.99	7.85
785.172	75.43
785.353	-10.58
785.535	112.3
785.716	16.04
785.897	-76.12
786.079	136.87
786.26	13.99
786.441	34.47
786.623	-39.25
786.804	11.95
786.985	7.85
787.167	95.91
787.348	16.04
787.529	26.28
787.71	122.54
787.891	44.71
788.073	13.99
788.254	20.14
788.435	97.96
788.616	61.1
788.797	38.57
788.978	40.62
789.159	-6.49
789.34	32.43
789.522	83.63
789.703	-67.92
789.884	26.28
790.065	48.81
790.246	212.65
790.427	3.75
790.607	169.64
790.788	95.91
790.969	57
791.15	-10.58
791.331	11.95
791.512	-6.49
791.693	-76.12
791.874	5.8
792.054	54.95
792.235	61.1
792.416	-35.16
792.597	-33.11
792.778	61.1
792.958	-0.34
793.139	36.52
793.32	-6.49
793.5	-47.44
793.681	85.67
793.862	50.86
794.042	52.91
794.223	-6.49
794.404	-96.6
794.584	-65.88
794.765	36.52
794.945	44.71
795.126	24.23
795.306	165.54
795.487	-24.92
795.667	18.09
795.848	44.71
796.028	-49.49
796.209	11.95
796.389	155.3
796.57	30.38
796.75	-29.01
796.93	-31.06
797.111	-78.16
797.291	-31.06
797.471	93.87
797.652	-55.64
797.832	-88.4
798.012	118.44
798.192	-6.49
798.373	-37.2
798.553	13.99
798.733	67.24
798.913	3.75
799.093	-4.44
799.274	50.86
799.454	108.2
799.634	63.15
799.814	95.91
799.994	42.67
800.174	42.67
800.354	-20.82
800.534	-88.4
800.714	61.1
800.894	11.95
801.074	-0.34
801.254	-16.73
801.434	100.01
801.614	-14.68
801.794	-18.77
801.974	1971.85
802.154	-74.07
802.334	11.95
802.514	-33.11
802.693	22.19
802.873	-20.82
803.053	44.71
803.233	95.91
803.413	-43.35
803.592	26.28
803.772	-72.02
803.952	30.38
804.131	-6.49
804.311	83.63
804.491	81.58
804.67	-117.08
804.85	-16.73
805.03	75.43
805.209	93.87
805.389	-22.87
805.568	7.85
805.748	7.85
805.928	50.86
806.107	-2.39
806.287	-24.92
806.466	136.87
806.646	-55.64
806.825	20.14
807.004	-67.92
807.184	81.58
807.363	50.86
807.543	59.05
807.722	-29.01
807.901	63.15
808.081	97.96
808.26	-133.46
808.439	34.47
808.619	48.81
808.798	30.38
808.977	79.53
809.156	97.96
809.336	-55.64
809.515	77.48
809.694	-119.12
809.873	-69.97
810.052	-26.96
810.231	71.34
810.411	46.76
810.59	112.3
810.769	-31.06
810.948	32.43
811.127	-180.56
811.306	-108.88
811.485	30.38
811.664	77.48
811.843	20.14
812.022	28.33
812.201	-29.01
812.38	3.75
812.559	11.95
812.737	100.01
812.916	-125.27
813.095	-29.01
813.274	18.09
813.453	-35.16
813.632	13.99
813.811	149.16
813.989	-98.64
814.168	50.86
814.347	-37.2
814.526	28.33
814.704	163.5
814.883	112.3
815.062	-59.73
815.24	104.11
815.419	7.85
815.598	122.54
815.776	-72.02
815.955	48.81
816.133	-69.97
816.312	67.24
816.49	-31.06
816.669	-53.59
816.847	16.04
817.026	42.67
817.204	30.38
817.383	7.85
817.561	-33.11
817.74	46.76
817.918	52.91
818.097	-14.68
818.275	-2.39
818.453	34.47
818.632	24.23
818.81	36.52
818.988	-26.96
819.167	-8.53
819.345	-29.01
819.523	-92.5
819.701	-4.44
819.879	44.71
820.058	26.28
820.236	16.04
820.414	-45.4
820.592	11.95
820.77	-33.11
820.948	16.04
821.127	-76.12
821.305	-45.4
821.483	-63.83
821.661	110.25
821.839	42.67
822.017	-61.78
822.195	-35.16
822.373	71.34
822.551	11.95
822.729	83.63
822.907	-10.58
823.085	95.91
823.262	-20.82
823.44	-51.54
823.618	-6.49
823.796	34.47
823.974	-26.96
824.152	-4.44
824.329	20.14
824.507	54.95
824.685	52.91
824.863	-22.87
825.04	-10.58
825.218	3.75
825.396	-10.58
825.574	106.15
825.751	-41.3
825.929	130.73
826.107	-0.34
826.284	3.75
826.462	50.86
826.639	-2.39
826.817	-31.06
826.994	-8.53
827.172	-106.84
827.349	126.63
827.527	28.33
827.704	30.38
827.882	26.28
828.059	30.38
828.237	-74.07
828.414	-14.68
828.591	-80.21
828.769	18.09
828.946	-108.88
829.124	81.58
829.301	11.95
829.478	-47.44
829.655	52.91
829.833	-16.73
830.01	-98.64
830.187	63.15
830.364	-76.12
830.542	-2.39
830.719	93.87
830.896	-59.73
831.073	30.38
831.25	85.67
831.427	138.92
831.604	-104.79
831.782	-63.83
831.959	32.43
832.136	-0.34
832.313	16.04
832.49	5.8
832.667	-18.77
832.844	-16.73
833.021	48.81
833.198	-12.63
833.374	1.71
833.551	7.85
833.728	-2.39
833.905	38.57
834.082	-135.51
834.259	95.91
834.436	83.63
834.612	-67.92
834.789	20.14
834.966	-10.58
835.143	69.29
835.319	-55.64
835.496	28.33
835.673	3.75
835.85	44.71
836.026	-55.64
836.203	38.57
836.38	-102.74
836.556	-59.73
836.733	-10.58
836.909	151.21
837.086	-41.3
837.262	-43.35
837.439	16.04
837.616	-88.4
837.792	30.38
837.968	110.25
838.145	-76.12
838.321	-20.82
838.498	48.81
838.674	-16.73
838.851	61.1
839.027	48.81
839.203	-4.44
839.38	57
839.556	-2.39
839.732	22.19
839.909	-43.35
840.085	79.53
840.261	-98.64
840.437	7.85
840.614	-49.49
840.79	44.71
840.966	18.09
841.142	3.75
841.318	-41.3
841.494	38.57
841.671	52.91
841.847	-43.35
842.023	-84.31
842.199	16.04
842.375	132.78
842.551	-117.08
842.727	-55.64
842.903	112.3
843.079	-131.41
843.255	61.1
843.431	54.95
843.607	7.85
843.783	-170.32
843.959	5.8
844.134	-63.83
844.31	85.67
844.486	-26.96
844.662	3.75
844.838	-22.87
845.013	-6.49
845.189	59.05
845.365	-22.87
845.541	89.77
845.716	93.87
845.892	159.4
846.068	-65.88
846.244	24.23
846.419	-6.49
846.595	-55.64
846.77	-106.84
846.946	89.77
847.122	-20.82
847.297	-72.02
847.473	91.82
847.648	-53.59
847.824	52.91
847.999	-143.7
848.175	-51.54
848.35	-37.2
848.526	118.44
848.701	44.71
848.876	108.2
849.052	120.49
849.227	32.43
849.403	75.43
849.578	24.23
849.753	-12.63
849.929	77.48
850.104	-86.36
850.279	-2.39
850.454	7.85
850.63	69.29
850.805	18.09
850.98	57
851.155	-29.01
851.33	32.43
851.505	-112.98
851.681	112.3
851.856	-63.83
852.031	-8.53
852.206	7.85
852.381	-127.32
852.556	20.14
852.731	-16.73
852.906	108.2
853.081	-49.49
853.256	173.74
853.431	-69.97
853.606	-65.88
853.781	-45.4
853.956	-133.46
854.131	63.15
854.305	-24.92
854.48	22.19
854.655	-78.16
854.83	-74.07
855.005	5.8
855.18	9.9
855.354	-49.49
855.529	57
855.704	-49.49
855.879	-14.68
856.053	-51.54
856.228	-37.2
856.403	-45.4
856.577	69.29
856.752	-39.25
856.926	26.28
857.101	7.85
857.276	-31.06
857.45	9.9
857.625	46.76
857.799	-2.39
857.974	-29.01
858.148	-121.17
858.323	13.99
858.497	-8.53
858.672	-8.53
858.846	-69.97
859.02	-6.49
859.195	-145.75
859.369	30.38
859.543	81.58
859.718	-8.53
859.892	-24.92
860.066	61.1
860.241	-45.4
860.415	-53.59
860.589	13.99
860.763	-49.49
860.938	-12.63
861.112	48.81
861.286	-37.2
861.46	42.67
861.634	-90.45
861.808	46.76
861.982	-117.08
862.157	-24.92
862.331	-49.49
862.505	-69.97
862.679	-143.7
862.853	-69.97
863.027	-12.63
863.201	112.3
863.375	-80.21
863.549	-33.11
863.722	54.95
863.896	95.91
864.07	-131.41
864.244	-35.16
864.418	46.76
864.592	28.33
864.766	32.43
864.939	-53.59
865.113	-59.73
865.287	50.86
865.461	-78.16
865.634	38.57
865.808	24.23
865.982	-88.4
866.156	-96.6
866.329	-49.49
866.503	-8.53
866.676	9.9
866.85	106.15
867.024	-26.96
867.197	38.57
867.371	42.67
867.544	-8.53
867.718	-141.65
867.891	65.19
868.065	-84.31
868.238	-53.59
868.412	65.19
868.585	-16.73
868.759	-67.92
868.932	-12.63
869.105	-53.59
869.279	79.53
869.452	-104.79
869.625	-29.01
869.799	-67.92
869.972	-29.01
870.145	16.04
870.319	69.29
870.492	-47.44
870.665	-10.58
870.838	-47.44
871.011	-155.99
871.185	-35.16
871.358	-84.31
871.531	-4.44
871.704	-49.49
871.877	24.23
872.05	13.99
872.223	-14.68
872.396	13.99
872.569	73.39
872.742	-84.31
872.915	-45.4
873.088	-80.21
873.261	-29.01
873.434	-14.68
873.607	-18.77
873.78	28.33
873.953	-16.73
874.126	-2.39
874.299	28.33
874.471	-35.16
874.644	-31.06
874.817	50.86
874.99	120.49
875.163	-16.73
875.335	77.48
875.508	13.99
875.681	126.63
875.853	-24.92
876.026	-37.2
876.199	1.71
876.371	-4.44
876.544	3.75
876.717	-47.44
876.889	16.04
877.062	18.09
877.234	-98.64
877.407	-74.07
877.579	-4.44
877.752	42.67
877.924	81.58
878.097	63.15
878.269	3.75
878.442	20.14
878.614	87.72
878.786	48.81
878.959	83.63
879.131	11.95
879.303	-72.02
879.476	13.99
879.648	30.38
879.82	42.67
879.993	65.19
880.165	-108.88
880.337	-158.03
880.509	-6.49
880.681	-108.88
880.854	-35.16
881.026	102.06
881.198	165.54
881.37	3.75
881.542	-49.49
881.714	57
881.886	38.57
882.058	-92.5
882.23	-12.63
882.402	-14.68
882.574	26.28
882.746	-39.25
882.918	69.29
883.09	77.48
883.262	-47.44
883.434	13.99
883.606	-96.6
883.778	-4.44
883.95	114.34
884.122	-16.73
884.293	36.52
884.465	-6.49
884.637	18.09
884.809	-74.07
884.98	-14.68
885.152	-12.63
885.324	38.57
885.496	-104.79
885.667	20.14
885.839	-26.96
886.011	110.25
886.182	54.95
886.354	157.35
886.525	46.76
886.697	-0.34
886.869	-16.73
887.04	-90.45
887.212	93.87
887.383	136.87
887.555	-6.49
887.726	-22.87
887.897	-72.02
888.069	-2.39
888.24	93.87
888.412	-108.88
888.583	-16.73
888.754	-49.49
888.926	-96.6
889.097	-102.74
889.268	-139.6
889.44	-24.92
889.611	-115.03
889.782	-49.49
889.953	-67.92
890.125	46.76
890.296	-45.4
890.467	-8.53
890.638	-51.54
890.809	-55.64
890.98	-98.64
891.151	54.95
891.323	85.67
891.494	18.09
891.665	-57.68
891.836	11.95
892.007	-31.06
892.178	81.58
892.349	-57.68
892.52	-57.68
892.691	13.99
892.862	5.8
893.032	-106.84
893.203	-0.34
893.374	5.8
893.545	63.15
893.716	-72.02
893.887	69.29
894.057	-16.73
894.228	26.28
894.399	-10.58
894.57	114.34
894.74	-43.35
894.911	128.68
895.082	-29.01
895.253	5.8
895.423	44.71
895.594	132.78
895.764	11.95
895.935	-96.6
896.106	46.76
896.276	-24.92
896.447	28.33
896.617	-125.27
896.788	16.04
896.958	67.24
897.129	-43.35
897.299	-22.87
897.47	42.67
897.64	67.24
897.81	-98.64
897.981	1.71
898.151	-94.55
898.322	54.95
898.492	1.71
898.662	-57.68
898.832	-18.77
899.003	-24.92
899.173	67.24
899.343	-49.49
899.513	-155.99
