Data from USB4F104151__6__10-22-23-754.txt Node

Date: Wed Feb 26 10:22:23 EST 2025
User: louis
Spectrometer: USB4F10415
Trigger mode: 4
Integration Time (sec): 1.000000E-1
Scans to average: 1
Electric dark correction enabled: true
Nonlinearity correction enabled: false
Boxcar width: 0
XAxis mode: Wavelengths
Number of Pixels in Spectrum: 3648
>>>>>Begin Spectral Data<<<<<
178.204	-402.43
178.424	-402.43
178.644	-402.43
178.864	-320.51
179.084	-427
179.304	60.42
179.524	62.46
179.744	-5.12
179.964	15.36
180.184	11.26
180.404	13.31
180.624	-1.02
180.844	7.17
181.064	-95.23
181.283	-13.31
181.503	-72.7
181.723	17.41
181.943	-91.13
182.163	189.44
182.383	21.5
182.602	142.33
182.822	179.2
183.042	46.08
183.262	-72.7
183.482	50.18
183.701	29.7
183.921	97.28
184.141	1.02
184.361	80.89
184.58	140.29
184.8	11.26
185.02	-19.46
185.239	144.38
185.459	35.84
185.679	80.89
185.898	-33.79
186.118	72.7
186.338	130.05
186.557	87.04
186.777	-50.18
186.997	15.36
187.216	27.65
187.436	156.67
187.655	44.03
187.875	162.81
188.095	-11.26
188.314	140.29
188.534	125.95
188.753	-15.36
188.973	140.29
189.192	99.33
189.412	39.94
189.631	80.89
189.851	211.96
190.07	146.43
190.29	23.55
190.509	39.94
190.729	48.13
190.948	156.67
191.168	277.5
191.387	76.8
191.607	-9.22
191.826	37.89
192.045	13.31
192.265	101.37
192.484	117.76
192.704	58.37
192.923	-80.89
193.142	181.25
193.362	56.32
193.581	201.72
193.8	76.8
194.02	74.75
194.239	33.79
194.458	35.84
194.678	-7.17
194.897	29.7
195.116	52.22
195.335	29.7
195.555	60.42
195.774	-23.55
195.993	158.72
196.212	-9.22
196.432	-5.12
196.651	-54.27
196.87	7.17
197.089	187.39
197.308	68.61
197.528	50.18
197.747	-17.41
197.966	23.55
198.185	148.48
198.404	41.98
198.623	84.99
198.842	105.47
199.062	84.99
199.281	91.13
199.5	37.89
199.719	134.14
199.938	60.42
200.157	23.55
200.376	173.05
200.595	19.46
200.814	89.09
201.033	-1.02
201.252	128
201.471	25.6
201.69	109.57
201.909	76.8
202.128	99.33
202.347	89.09
202.566	76.8
202.785	-37.89
203.004	-31.74
203.223	238.59
203.442	19.46
203.661	-17.41
203.879	1.02
204.098	115.71
204.317	21.5
204.536	103.42
204.755	154.62
204.974	64.51
205.193	-23.55
205.411	177.15
205.63	54.27
205.849	107.52
206.068	-5.12
206.287	-87.04
206.505	146.43
206.724	11.26
206.943	1.02
207.162	-52.22
207.381	150.53
207.599	11.26
207.818	-11.26
208.037	9.22
208.255	-25.6
208.474	58.37
208.693	82.94
208.911	21.5
209.13	113.66
209.349	115.71
209.567	76.8
209.786	93.18
210.005	72.7
210.223	121.85
210.442	-128
210.661	7.17
210.879	58.37
211.098	-5.12
211.316	54.27
211.535	74.75
211.753	27.65
211.972	119.81
212.191	39.94
212.409	91.13
212.628	154.62
212.846	-52.22
213.065	31.74
213.283	177.15
213.502	-7.17
213.72	56.32
213.938	50.18
214.157	46.08
214.375	187.39
214.594	-7.17
214.812	97.28
215.031	37.89
215.249	-23.55
215.467	50.18
215.686	93.18
215.904	-5.12
216.122	58.37
216.341	128
216.559	84.99
216.778	156.67
216.996	154.62
217.214	-1.02
217.432	3.07
217.651	-64.51
217.869	78.85
218.087	60.42
218.306	46.08
218.524	56.32
218.742	138.24
218.96	-23.55
219.179	-37.89
219.397	66.56
219.615	257.02
219.833	117.76
220.051	-56.32
220.27	121.85
220.488	123.9
220.706	56.32
220.924	3.07
221.142	-46.08
221.36	64.51
221.578	56.32
221.796	-7.17
222.015	117.76
222.233	70.65
222.451	107.52
222.669	-52.22
222.887	95.23
223.105	-37.89
223.323	23.55
223.541	-46.08
223.759	50.18
223.977	-9.22
224.195	205.82
224.413	68.61
224.631	91.13
224.849	72.7
225.067	291.84
225.285	33.79
225.503	58.37
225.721	-66.56
225.939	13.31
226.157	46.08
226.375	216.06
226.592	50.18
226.81	9.22
227.028	109.57
227.246	109.57
227.464	89.09
227.682	97.28
227.9	62.46
228.117	46.08
228.335	156.67
228.553	109.57
228.771	-3.07
228.989	46.08
229.206	107.52
229.424	11.26
229.642	60.42
229.86	-33.79
230.077	193.53
230.295	5.12
230.513	134.14
230.731	144.38
230.948	150.53
231.166	132.09
231.384	46.08
231.601	-19.46
231.819	160.77
232.037	-5.12
232.254	-54.27
232.472	60.42
232.689	31.74
232.907	119.81
233.125	23.55
233.342	-54.27
233.56	-21.5
233.777	23.55
233.995	21.5
234.213	78.85
234.43	25.6
234.648	46.08
234.865	-13.31
235.083	74.75
235.3	41.98
235.518	72.7
235.735	142.33
235.953	80.89
236.17	87.04
236.388	89.09
236.605	-1.02
236.822	185.34
237.04	60.42
237.257	68.61
237.475	13.31
237.692	66.56
237.909	76.8
238.127	-46.08
238.344	87.04
238.562	60.42
238.779	-33.79
238.996	44.03
239.214	-3.07
239.431	95.23
239.648	72.7
239.865	111.61
240.083	158.72
240.3	9.22
240.517	-54.27
240.735	130.05
240.952	130.05
241.169	107.52
241.386	23.55
241.603	48.13
241.821	-17.41
242.038	117.76
242.255	64.51
242.472	-46.08
242.689	140.29
242.907	82.94
243.124	48.13
243.341	76.8
243.558	70.65
243.775	-19.46
243.992	-37.89
244.209	123.9
244.426	246.78
244.643	82.94
244.86	-17.41
245.078	70.65
245.295	152.57
245.512	78.85
245.729	27.65
245.946	121.85
246.163	84.99
246.38	-23.55
246.597	78.85
246.814	-1.02
247.031	5.12
247.248	66.56
247.464	93.18
247.681	-25.6
247.898	117.76
248.115	140.29
248.332	11.26
248.549	162.81
248.766	115.71
248.983	95.23
249.2	54.27
249.417	144.38
249.633	39.94
249.85	138.24
250.067	91.13
250.284	78.85
250.501	152.57
250.717	74.75
250.934	-62.46
251.151	21.5
251.368	89.09
251.585	166.91
251.801	23.55
252.018	-50.18
252.235	89.09
252.451	-44.03
252.668	27.65
252.885	99.33
253.102	35.84
253.318	52.22
253.535	1.02
253.752	56.32
253.968	44.03
254.185	-56.32
254.401	70.65
254.618	91.13
254.835	-7.17
255.051	74.75
255.268	144.38
255.484	84.99
255.701	54.27
255.917	35.84
256.134	-46.08
256.351	140.29
256.567	-50.18
256.784	33.79
257	-19.46
257.217	148.48
257.433	64.51
257.65	9.22
257.866	125.95
258.082	29.7
258.299	60.42
258.515	-9.22
258.732	54.27
258.948	9.22
259.165	105.47
259.381	-35.84
259.597	82.94
259.814	-3.07
260.03	97.28
260.246	-15.36
260.463	121.85
260.679	136.19
260.895	7.17
261.112	35.84
261.328	70.65
261.544	29.7
261.761	261.12
261.977	-41.98
262.193	-50.18
262.409	144.38
262.626	82.94
262.842	-15.36
263.058	25.6
263.274	117.76
263.49	46.08
263.707	128
263.923	156.67
264.139	3.07
264.355	117.76
264.571	72.7
264.787	31.74
265.004	119.81
265.22	1.02
265.436	33.79
265.652	15.36
265.868	48.13
266.084	-50.18
266.3	41.98
266.516	17.41
266.732	7.17
266.948	35.84
267.164	9.22
267.38	48.13
267.596	46.08
267.812	103.42
268.028	97.28
268.244	15.36
268.46	66.56
268.676	60.42
268.892	68.61
269.108	56.32
269.324	-29.7
269.54	-52.22
269.756	119.81
269.972	17.41
270.188	33.79
270.403	3.07
270.619	35.84
270.835	78.85
271.051	41.98
271.267	15.36
271.483	54.27
271.698	60.42
271.914	121.85
272.13	23.55
272.346	27.65
272.562	91.13
272.777	205.82
272.993	17.41
273.209	3.07
273.425	103.42
273.64	-17.41
273.856	123.9
274.072	-5.12
274.287	37.89
274.503	113.66
274.719	121.85
274.934	-58.37
275.15	-117.76
275.366	-25.6
275.581	-21.5
275.797	29.7
276.012	9.22
276.228	58.37
276.444	89.09
276.659	99.33
276.875	44.03
277.09	89.09
277.306	82.94
277.521	93.18
277.737	103.42
277.952	95.23
278.168	54.27
278.383	54.27
278.599	107.52
278.814	128
279.03	82.94
279.245	197.63
279.461	33.79
279.676	31.74
279.892	-80.89
280.107	48.13
280.322	-56.32
280.538	87.04
280.753	-13.31
280.969	72.7
281.184	23.55
281.399	226.3
281.615	56.32
281.83	1.02
282.045	-66.56
282.26	-1.02
282.476	3.07
282.691	97.28
282.906	25.6
283.122	115.71
283.337	-3.07
283.552	31.74
283.767	-29.7
283.983	93.18
284.198	23.55
284.413	119.81
284.628	-25.6
284.843	93.18
285.058	50.18
285.274	31.74
285.489	44.03
285.704	154.62
285.919	15.36
286.134	39.94
286.349	105.47
286.564	-9.22
286.779	95.23
286.995	70.65
287.21	82.94
287.425	89.09
287.64	50.18
287.855	46.08
288.07	-89.09
288.285	164.86
288.5	107.52
288.715	74.75
288.93	-21.5
289.145	74.75
289.36	123.9
289.575	68.61
289.79	130.05
290.004	-1.02
290.219	140.29
290.434	25.6
290.649	-27.65
290.864	-21.5
291.079	-1.02
291.294	27.65
291.509	99.33
291.724	9.22
291.938	-48.13
292.153	123.9
292.368	54.27
292.583	128
292.798	60.42
293.012	35.84
293.227	74.75
293.442	-5.12
293.657	115.71
293.871	136.19
294.086	74.75
294.301	171.01
294.516	138.24
294.73	-1.02
294.945	-48.13
295.16	-9.22
295.374	117.76
295.589	136.19
295.804	11.26
296.018	41.98
296.233	140.29
296.447	-19.46
296.662	-13.31
296.877	107.52
297.091	136.19
297.306	39.94
297.52	41.98
297.735	48.13
297.949	97.28
298.164	64.51
298.378	74.75
298.593	-5.12
298.807	44.03
299.022	78.85
299.236	123.9
299.451	-56.32
299.665	1.02
299.88	11.26
300.094	29.7
300.309	39.94
300.523	48.13
300.737	27.65
300.952	87.04
301.166	93.18
301.381	1.02
301.595	-21.5
301.809	44.03
302.024	80.89
302.238	-64.51
302.452	123.9
302.667	27.65
302.881	109.57
303.095	123.9
303.309	93.18
303.524	-5.12
303.738	-1.02
303.952	54.27
304.166	99.33
304.381	-91.13
304.595	154.62
304.809	50.18
305.023	31.74
305.237	-1.02
305.452	29.7
305.666	91.13
305.88	125.95
306.094	80.89
306.308	48.13
306.522	48.13
306.736	168.96
306.95	76.8
307.164	46.08
307.379	11.26
307.593	117.76
307.807	121.85
308.021	78.85
308.235	107.52
308.449	-15.36
308.663	46.08
308.877	224.25
309.091	39.94
309.305	115.71
309.519	-82.94
309.733	82.94
309.947	17.41
310.161	64.51
310.374	146.43
310.588	95.23
310.802	5.12
311.016	-7.17
311.23	91.13
311.444	-13.31
311.658	39.94
311.872	52.22
312.085	101.37
312.299	134.14
312.513	189.44
312.727	3.07
312.941	27.65
313.154	15.36
313.368	1.02
313.582	99.33
313.796	76.8
314.009	11.26
314.223	39.94
314.437	46.08
314.651	111.61
314.864	21.5
315.078	52.22
315.292	-33.79
315.505	44.03
315.719	80.89
315.933	125.95
316.146	3.07
316.36	-21.5
316.573	168.96
316.787	121.85
317.001	109.57
317.214	-41.98
317.428	80.89
317.641	19.46
317.855	54.27
318.068	41.98
318.282	66.56
318.495	230.4
318.709	160.77
318.922	76.8
319.136	82.94
319.349	99.33
319.563	-7.17
319.776	31.74
319.99	-134.14
320.203	46.08
320.417	-21.5
320.63	84.99
320.843	160.77
321.057	46.08
321.27	97.28
321.483	62.46
321.697	111.61
321.91	89.09
322.124	76.8
322.337	148.48
322.55	-35.84
322.763	66.56
322.977	76.8
323.19	-48.13
323.403	27.65
323.617	62.46
323.83	166.91
324.043	-5.12
324.256	54.27
324.469	-23.55
324.683	66.56
324.896	13.31
325.109	23.55
325.322	-82.94
325.535	162.81
325.748	138.24
325.962	23.55
326.175	93.18
326.388	64.51
326.601	33.79
326.814	19.46
327.027	60.42
327.24	162.81
327.453	-44.03
327.666	199.68
327.879	107.52
328.092	91.13
328.305	89.09
328.518	-56.32
328.731	-15.36
328.944	103.42
329.157	125.95
329.37	25.6
329.583	207.87
329.796	191.49
330.009	-27.65
330.222	5.12
330.435	134.14
330.648	-46.08
330.861	21.5
331.073	60.42
331.286	111.61
331.499	-11.26
331.712	19.46
331.925	39.94
332.138	33.79
332.35	121.85
332.563	-3.07
332.776	177.15
332.989	62.46
333.202	48.13
333.414	56.32
333.627	-33.79
333.84	50.18
334.053	93.18
334.265	-15.36
334.478	54.27
334.691	1.02
334.903	-31.74
335.116	-54.27
335.329	15.36
335.541	84.99
335.754	101.37
335.966	-11.26
336.179	-58.37
336.392	78.85
336.604	-58.37
336.817	80.89
337.029	58.37
337.242	-13.31
337.454	48.13
337.667	62.46
337.88	140.29
338.092	93.18
338.305	95.23
338.517	-25.6
338.729	136.19
338.942	189.44
339.154	-39.94
339.367	-58.37
339.579	78.85
339.792	1.02
340.004	101.37
340.217	21.5
340.429	31.74
340.641	17.41
340.854	-27.65
341.066	21.5
341.278	64.51
341.491	97.28
341.703	130.05
341.915	-9.22
342.128	113.66
342.34	142.33
342.552	-39.94
342.764	64.51
342.977	-70.65
343.189	82.94
343.401	19.46
343.613	15.36
343.826	74.75
344.038	21.5
344.25	5.12
344.462	21.5
344.674	95.23
344.886	84.99
345.099	119.81
345.311	66.56
345.523	-37.89
345.735	-25.6
345.947	58.37
346.159	80.89
346.371	70.65
346.583	11.26
346.795	201.72
347.007	-27.65
347.219	138.24
347.431	-23.55
347.643	60.42
347.855	138.24
348.067	171.01
348.279	-46.08
348.491	97.28
348.703	84.99
348.915	58.37
349.127	19.46
349.339	119.81
349.551	-25.6
349.763	78.85
349.975	56.32
350.187	97.28
350.399	150.53
350.61	97.28
350.822	-21.5
351.034	3.07
351.246	64.51
351.458	48.13
351.669	132.09
351.881	216.06
352.093	132.09
352.305	93.18
352.517	44.03
352.728	109.57
352.94	140.29
353.152	66.56
353.363	-21.5
353.575	84.99
353.787	203.77
353.999	68.61
354.21	187.39
354.422	23.55
354.633	7.17
354.845	56.32
355.057	119.81
355.268	-13.31
355.48	130.05
355.692	-15.36
355.903	60.42
356.115	-19.46
356.326	-76.8
356.538	144.38
356.749	48.13
356.961	164.86
357.172	-5.12
357.384	-27.65
357.595	279.55
357.807	35.84
358.018	15.36
358.23	13.31
358.441	140.29
358.653	97.28
358.864	68.61
359.075	15.36
359.287	111.61
359.498	72.7
359.709	48.13
359.921	27.65
360.132	107.52
360.344	17.41
360.555	-19.46
360.766	138.24
360.977	91.13
361.189	84.99
361.4	-21.5
361.611	23.55
361.823	144.38
362.034	29.7
362.245	-33.79
362.456	9.22
362.667	74.75
362.879	-23.55
363.09	134.14
363.301	48.13
363.512	44.03
363.723	33.79
363.935	-33.79
364.146	166.91
364.357	5.12
364.568	78.85
364.779	9.22
364.99	99.33
365.201	-11.26
365.412	205.82
365.623	-48.13
365.834	150.53
366.045	3.07
366.256	68.61
366.467	50.18
366.678	33.79
366.889	52.22
367.1	-33.79
367.311	138.24
367.522	72.7
367.733	82.94
367.944	80.89
368.155	52.22
368.366	80.89
368.577	185.34
368.788	80.89
368.999	9.22
369.209	44.03
369.42	191.49
369.631	171.01
369.842	109.57
370.053	123.9
370.264	128
370.474	-11.26
370.685	9.22
370.896	39.94
371.107	44.03
371.317	37.89
371.528	74.75
371.739	93.18
371.95	82.94
372.16	29.7
372.371	-72.7
372.582	-46.08
372.792	101.37
373.003	91.13
373.214	50.18
373.424	54.27
373.635	-58.37
373.846	121.85
374.056	48.13
374.267	72.7
374.477	97.28
374.688	-3.07
374.898	62.46
375.109	41.98
375.319	62.46
375.53	162.81
375.74	84.99
375.951	9.22
376.161	48.13
376.372	101.37
376.582	13.31
376.793	154.62
377.003	19.46
377.214	-11.26
377.424	50.18
377.635	72.7
377.845	31.74
378.055	128
378.266	-23.55
378.476	103.42
378.686	25.6
378.897	97.28
379.107	207.87
379.317	48.13
379.528	5.12
379.738	117.76
379.948	-21.5
380.158	130.05
380.369	74.75
380.579	95.23
380.789	64.51
380.999	68.61
381.21	117.76
381.42	216.06
381.63	64.51
381.84	19.46
382.05	50.18
382.261	109.57
382.471	146.43
382.681	-58.37
382.891	148.48
383.101	117.76
383.311	-1.02
383.521	39.94
383.731	91.13
383.941	119.81
384.151	111.61
384.361	-1.02
384.571	93.18
384.781	13.31
384.991	222.2
385.201	218.11
385.411	89.09
385.621	140.29
385.831	109.57
386.041	31.74
386.251	31.74
386.461	72.7
386.671	31.74
386.881	52.22
387.091	89.09
387.301	99.33
387.511	74.75
387.72	62.46
387.93	80.89
388.14	3.07
388.35	17.41
388.56	121.85
388.769	142.33
388.979	60.42
389.189	-15.36
389.399	-44.03
389.609	207.87
389.818	117.76
390.028	111.61
390.238	27.65
390.447	-1.02
390.657	50.18
390.867	-37.89
391.076	-17.41
391.286	37.89
391.496	-33.79
391.705	21.5
391.915	146.43
392.125	64.51
392.334	17.41
392.544	132.09
392.753	48.13
392.963	-60.42
393.172	119.81
393.382	-13.31
393.591	119.81
393.801	27.65
394.01	173.05
394.22	72.7
394.429	39.94
394.639	11.26
394.848	84.99
395.058	62.46
395.267	27.65
395.477	89.09
395.686	95.23
395.895	207.87
396.105	224.25
396.314	89.09
396.524	68.61
396.733	105.47
396.942	146.43
397.152	132.09
397.361	136.19
397.57	9.22
397.78	74.75
397.989	64.51
398.198	181.25
398.407	58.37
398.617	64.51
398.826	25.6
399.035	29.7
399.244	113.66
399.453	11.26
399.663	44.03
399.872	60.42
400.081	27.65
400.29	148.48
400.499	31.74
400.708	160.77
400.917	62.46
401.127	-5.12
401.336	68.61
401.545	234.49
401.754	177.15
401.963	74.75
402.172	3.07
402.381	-13.31
402.59	95.23
402.799	105.47
403.008	66.56
403.217	29.7
403.426	125.95
403.635	-54.27
403.844	-1.02
404.053	41.98
404.262	-29.7
404.471	238.59
404.68	-15.36
404.888	35.84
405.097	87.04
405.306	1.02
405.515	144.38
405.724	46.08
405.933	84.99
406.142	113.66
406.35	125.95
406.559	-29.7
406.768	44.03
406.977	62.46
407.185	11.26
407.394	160.77
407.603	-7.17
407.812	78.85
408.02	154.62
408.229	93.18
408.438	62.46
408.646	-56.32
408.855	44.03
409.064	29.7
409.272	52.22
409.481	148.48
409.69	-3.07
409.898	-89.09
410.107	84.99
410.315	91.13
410.524	-37.89
410.733	-1.02
410.941	68.61
411.15	60.42
411.358	138.24
411.567	123.9
411.775	31.74
411.984	54.27
412.192	62.46
412.401	13.31
412.609	138.24
412.818	76.8
413.026	82.94
413.234	-82.94
413.443	84.99
413.651	-44.03
413.86	56.32
414.068	160.77
414.276	173.05
414.485	46.08
414.693	162.81
414.901	195.58
415.11	109.57
415.318	56.32
415.526	68.61
415.734	95.23
415.943	82.94
416.151	130.05
416.359	48.13
416.567	46.08
416.776	150.53
416.984	103.42
417.192	121.85
417.4	41.98
417.608	-7.17
417.817	-31.74
418.025	105.47
418.233	117.76
418.441	19.46
418.649	44.03
418.857	132.09
419.065	138.24
419.273	35.84
419.481	50.18
419.689	48.13
419.897	84.99
420.105	-19.46
420.313	95.23
420.521	146.43
420.729	144.38
420.937	31.74
421.145	-15.36
421.353	111.61
421.561	146.43
421.769	105.47
421.977	82.94
422.185	105.47
422.393	80.89
422.601	179.2
422.809	148.48
423.017	41.98
423.224	101.37
423.432	138.24
423.64	27.65
423.848	115.71
424.056	21.5
424.263	183.29
424.471	-50.18
424.679	130.05
424.887	33.79
425.094	220.16
425.302	136.19
425.51	21.5
425.718	103.42
425.925	33.79
426.133	93.18
426.341	261.12
426.548	39.94
426.756	119.81
426.964	156.67
427.171	-35.84
427.379	82.94
427.586	132.09
427.794	115.71
428.001	152.57
428.209	166.91
428.417	115.71
428.624	134.14
428.832	99.33
429.039	111.61
429.247	25.6
429.454	48.13
429.662	166.91
429.869	101.37
430.076	179.2
430.284	91.13
430.491	203.77
430.699	95.23
430.906	234.49
431.114	78.85
431.321	224.25
431.528	56.32
431.736	130.05
431.943	146.43
432.15	117.76
432.358	189.44
432.565	361.47
432.772	-68.61
432.979	156.67
433.187	58.37
433.394	156.67
433.601	119.81
433.808	218.11
434.016	244.73
434.223	158.72
434.43	244.73
434.637	246.78
434.844	238.59
435.052	205.82
435.259	287.74
435.466	156.67
435.673	277.5
435.88	340.99
436.087	271.36
436.294	336.89
436.501	261.12
436.708	244.73
436.915	209.92
437.122	381.95
437.329	248.83
437.537	363.51
437.743	310.27
437.95	418.81
438.157	293.88
438.364	289.79
438.571	320.51
438.778	394.23
438.985	392.19
439.192	437.24
439.399	304.12
439.606	375.8
439.813	410.62
440.02	517.11
440.227	586.74
440.433	484.34
440.64	521.21
440.847	437.24
441.054	439.29
441.261	566.26
441.467	441.34
441.674	480.25
441.881	596.98
442.088	549.88
442.294	695.29
442.501	717.81
442.708	683
442.914	680.95
443.121	814.07
443.328	756.72
443.534	916.47
443.741	750.58
443.948	635.89
444.154	789.49
444.361	971.76
444.568	842.74
444.774	934.9
444.981	875.51
445.187	1006.58
445.394	992.24
445.6	818.16
445.807	1047.54
446.013	1029.1
446.22	1125.36
446.426	1113.07
446.633	1244.14
446.839	1418.22
447.046	1190.89
447.252	1412.07
447.459	1391.59
447.665	1332.2
447.871	1438.7
448.078	1620.97
448.284	1713.13
448.491	1698.79
448.697	1698.79
448.903	1840.1
449.11	1905.63
449.316	1962.98
449.522	1960.93
449.728	1979.36
449.935	2116.58
450.141	2169.82
450.347	2309.08
450.553	2237.41
450.76	2278.37
450.966	2354.14
451.172	2563.03
451.378	2624.47
451.584	2718.68
451.791	2911.19
451.997	2972.63
452.203	2970.58
452.409	3105.74
452.615	3369.93
452.821	3226.57
453.027	3236.81
453.233	3716.04
453.44	3544.01
453.646	3847.11
453.852	3814.34
454.058	4076.48
454.264	4185.02
454.47	4475.84
454.676	4416.44
454.882	4774.84
455.088	4705.21
455.294	4946.87
455.5	5215.15
455.705	5598.12
455.911	5596.07
456.117	5639.08
456.323	5788.58
456.529	5841.83
456.735	6343.58
456.941	6552.48
457.147	6669.21
457.352	6896.53
457.558	6957.97
457.764	7619.47
457.97	7869.32
458.176	8096.64
458.381	8467.33
458.587	8606.59
458.793	9051
458.999	8856.44
459.204	10136.42
459.41	10546.02
459.616	10351.46
459.821	10939.23
460.027	11375.44
460.233	12151.62
460.438	12118.86
460.644	12786.49
460.85	12821.31
461.055	13419.32
461.261	13790
461.466	13804.33
461.672	13931.31
461.878	15778.58
462.083	15391.51
462.289	15840.01
462.494	16163.59
462.7	16491.27
462.905	16751.36
463.111	17969.9
463.316	19118.81
463.522	19366.62
463.727	19837.65
463.932	20634.31
464.138	21363.39
464.343	22002.35
464.549	22307.5
464.754	24124.05
464.959	24502.92
465.165	24863.36
465.37	25010.82
465.575	24859.27
465.781	26534.51
465.986	27353.69
466.191	26655.34
466.397	27089.51
466.602	26303.09
466.807	27935.32
467.012	28293.71
467.218	28842.57
467.423	29166.15
467.628	29579.84
467.833	31535.65
468.038	30482.99
468.244	30042.68
468.449	31187.49
468.654	30943.78
468.859	30702.12
469.064	30796.33
469.269	30241.33
469.474	30612.01
469.679	31527.45
469.885	30698.03
470.09	30872.1
470.295	31035.94
470.5	30222.9
470.705	30732.84
470.91	29579.84
471.115	29409.86
471.32	29522.49
471.525	29491.77
471.73	28734.03
471.935	28498.51
472.139	27503.2
472.344	27386.46
472.549	27476.57
472.754	27218.53
472.959	26194.54
473.164	25469.56
473.369	25000.58
473.574	25817.72
473.778	25184.9
473.983	24666.76
474.188	24435.34
474.393	23136.93
474.598	23077.54
474.802	22524.58
475.007	22151.85
475.212	22080.18
475.417	20906.69
475.621	21191.36
475.826	20587.21
476.031	20187.85
476.235	19776.21
476.44	19720.92
476.645	19219.16
476.849	18942.69
477.054	18862.82
477.259	18447.08
477.463	18199.27
477.668	17904.37
477.872	17918.7
478.077	17089.28
478.282	16980.73
478.486	16777.98
478.691	16317.19
478.895	16343.81
479.1	16349.96
479.304	16302.86
479.509	15754
479.713	16053
479.918	15344.41
480.122	15182.62
480.326	15416.08
480.531	15479.57
480.735	15160.09
480.94	14547.75
481.144	15344.41
481.348	14328.61
481.553	14652.19
481.757	14066.47
481.961	14654.24
482.166	14447.4
482.37	14160.68
482.574	13988.65
482.778	13910.83
482.983	14009.13
483.187	13718.32
483.391	13804.33
483.595	13429.56
483.8	13239.09
484.004	13402.93
484.208	13380.4
484.412	13122.36
484.616	12913.47
484.821	12776.25
485.025	12475.2
485.229	12692.29
485.433	12067.66
485.637	12118.86
485.841	11897.67
486.045	11934.54
486.249	11754.32
486.453	11717.45
486.657	11252.56
486.861	11201.37
487.065	10756.96
487.269	11162.45
487.473	10451.81
487.677	10568.54
487.881	10652.51
488.085	10259.3
488.289	10148.71
488.493	10003.3
488.697	10095.46
488.901	9724.78
489.105	9393.01
489.309	9323.38
489.512	9132.92
489.716	8950.65
489.92	8887.16
490.124	8496
490.328	8639.36
490.531	8412.03
490.735	8438.66
490.939	8094.6
491.143	7889.8
491.346	7807.88
491.55	7764.87
491.754	7535.5
491.958	7508.88
492.161	7545.74
492.365	7222.16
492.569	7156.63
492.772	6974.36
492.976	6871.96
493.18	6941.59
493.383	6798.23
493.587	6855.58
493.79	6615.96
493.994	6454.17
494.197	6632.35
494.401	6511.52
494.605	6419.36
494.808	6267.81
495.012	6312.86
495.215	6486.94
495.419	6353.82
495.622	6200.23
495.825	6079.4
496.029	6065.06
496.232	6157.22
496.436	6042.53
496.639	6288.29
496.843	6095.78
497.046	6001.57
497.249	6163.36
497.453	6167.46
497.656	6034.34
497.859	6259.62
498.063	6044.58
498.266	6288.29
498.469	6110.11
498.673	6075.3
498.876	6220.71
499.079	6060.96
499.282	6226.85
499.485	6628.25
499.689	6165.41
499.892	6452.13
500.095	6259.62
500.298	6632.35
500.501	6480.8
500.705	6515.61
500.908	6628.25
501.111	6738.84
501.314	6798.23
501.517	6912.92
501.72	6859.67
501.923	6871.96
502.126	7087
502.329	7269.27
502.532	7242.64
502.735	7158.67
502.938	7431.05
503.141	7500.69
503.344	7531.41
503.547	7725.96
503.75	7793.55
503.953	7664.52
504.156	7934.85
504.359	8119.17
504.562	8010.63
504.765	8215.43
504.968	8252.29
505.17	8385.41
505.373	8838.01
505.576	8983.41
505.779	8885.11
505.982	9077.62
506.185	9460.59
506.387	9366.39
506.59	9579.37
506.793	9861.99
506.996	9749.36
507.198	10445.66
507.401	10142.57
507.604	10599.26
507.807	10695.52
508.009	10959.7
508.212	11098.97
508.415	11291.48
508.617	11531.09
508.82	11641.68
509.022	11666.25
509.225	12381
509.428	12376.9
509.63	12639.04
509.833	12911.42
510.035	13417.27
510.238	13314.87
510.44	13544.24
510.643	14146.34
510.845	14431.01
511.048	14865.18
511.25	14799.65
511.453	15231.77
511.655	16085.77
511.858	16120.59
512.06	16556.8
512.262	16751.36
512.465	17013.5
512.667	17281.78
512.87	17715.95
513.072	18301.67
513.274	18981.6
513.477	19043.04
513.679	19272.41
513.881	19995.34
514.084	20382.41
514.286	20714.18
514.488	21199.55
514.69	21813.94
514.893	21578.42
515.095	22526.63
515.297	23012
515.499	23491.23
515.701	23898.77
515.904	24498.83
516.106	24781.45
516.308	25713.27
516.51	26055.28
516.712	26315.37
516.914	26913.38
517.116	27546.2
517.318	27648.6
517.52	28047.96
517.722	28457.55
517.925	29401.66
518.127	29866.55
518.329	30313.01
518.531	30378.54
518.733	31400.48
518.935	31502.88
519.136	31775.26
519.338	32580.11
519.54	33337.86
519.742	33739.26
519.944	34003.45
520.146	34652.66
520.348	35056.11
520.55	35342.82
520.752	35586.53
520.954	36426.2
521.155	36245.97
521.357	37036.49
521.559	37644.74
521.761	38076.86
521.963	38115.77
522.164	38566.32
522.366	38801.84
522.568	39389.61
522.77	39246.25
522.971	40124.83
523.173	39715.23
523.375	40395.16
523.576	40151.45
523.778	40481.17
523.98	40589.72
524.181	41038.22
524.383	40599.96
524.584	41404.81
524.786	41120.14
524.988	40976.78
525.189	41593.22
525.391	41251.21
525.592	41345.42
525.794	41318.79
525.995	41431.43
526.197	40958.35
526.398	41288.07
526.6	41302.41
526.801	41157
527.003	41218.44
527.204	40976.78
527.406	40876.43
527.607	40685.97
527.808	40460.69
528.01	39664.03
528.211	39858.59
528.412	39819.68
528.614	39621.03
528.815	38967.73
529.016	39211.43
529.218	38408.63
529.419	38508.98
529.62	37464.52
529.822	37294.53
530.023	37079.5
530.224	36739.54
530.425	36708.82
530.626	35865.05
530.828	35334.63
531.029	35754.46
531.23	34998.76
531.431	34290.16
531.632	34238.97
531.833	34046.46
532.035	33436.16
532.236	33204.74
532.437	32356.88
532.638	32174.61
532.839	31824.41
533.04	31357.47
533.241	30997.03
533.442	31191.59
533.643	30259.76
533.844	29762.11
534.045	29549.12
534.246	28850.76
534.447	28801.61
534.648	28447.31
534.849	28029.52
535.05	27363.93
535.251	27331.17
535.451	26706.54
535.652	26577.51
535.853	25956.98
536.054	26104.43
536.255	25375.36
536.456	24752.77
536.657	25178.75
536.857	24412.81
537.058	24425.1
537.259	23667.35
537.46	23610.01
537.66	22958.75
537.861	22858.4
538.062	22522.54
538.263	22295.21
538.463	22104.75
538.664	21695.16
538.865	21482.17
539.065	21312.19
539.266	20595.4
539.466	20732.61
539.667	20490.95
539.868	20462.28
540.068	19856.08
540.269	19882.7
540.469	19565.27
540.67	18995.93
540.87	19286.75
541.071	18825.95
541.271	18762.47
541.472	18219.75
541.672	18199.27
541.873	17949.42
542.073	17533.68
542.274	17648.37
542.474	17230.59
542.675	17199.87
542.875	17298.17
543.075	16583.43
543.276	16478.98
543.476	16593.67
543.676	16216.84
543.877	16116.49
544.077	15895.31
544.277	15731.47
544.478	15549.2
544.678	15645.46
544.878	15049.5
545.078	15039.26
545.279	14748.45
545.479	14631.71
545.679	14512.93
545.879	14279.46
546.079	14005.03
546.28	13892.4
546.48	13880.11
546.68	13763.37
546.88	13337.4
547.08	13527.86
547.28	13099.83
547.48	13001.53
547.68	12962.62
547.88	12639.04
548.081	12639.04
548.281	12489.54
548.481	12061.51
548.681	12317.51
548.881	12143.43
549.081	11889.48
549.28	11625.29
549.48	11475.79
549.68	11406.16
549.88	11066.2
550.08	10814.3
550.28	10668.89
550.48	10871.64
550.68	10718.04
550.88	10357.6
551.08	10386.27
551.279	10230.63
551.479	9888.62
551.679	9948.01
551.879	9579.37
552.079	9519.98
552.278	9517.93
552.478	9182.07
552.678	9137.01
552.878	9159.54
553.077	9024.37
553.277	8506.24
553.477	8684.41
553.676	8373.12
553.876	8334.21
554.076	8280.96
554.275	8065.92
554.475	7740.3
554.674	7957.38
554.874	7893.9
555.074	7402.38
555.273	7435.15
555.473	7224.21
555.672	7308.18
555.872	7072.66
556.071	7003.03
556.271	6947.73
556.47	6726.55
556.67	6570.91
556.869	6695.83
557.068	6493.08
557.268	6300.58
557.467	6402.97
557.667	6253.47
557.866	6161.31
558.065	5974.95
558.265	5946.28
558.464	5577.64
558.663	5637.03
558.863	5524.4
559.062	5559.21
559.261	5465
559.461	5424.05
559.66	5233.58
559.859	5090.23
560.058	5079.99
560.258	4828.09
560.457	5051.31
560.656	4916.15
560.855	4647.87
561.054	4680.63
561.253	4592.57
561.453	4524.99
561.652	4453.31
561.851	4508.6
562.05	4357.05
562.249	4193.22
562.448	4348.86
562.647	4070.34
562.846	4025.28
563.045	4135.87
563.244	4058.05
563.443	4056
563.642	3828.68
563.841	3740.61
564.04	3812.29
564.239	3701.7
564.438	3697.61
564.637	3365.84
564.836	3455.95
565.035	3529.67
565.234	3361.74
565.432	3371.98
565.631	3337.17
565.83	3431.37
566.029	3294.16
566.228	3034.07
566.427	3185.62
566.625	2970.58
566.824	3060.69
567.023	3099.6
567.222	2835.41
567.42	2991.06
567.619	3017.68
567.818	2837.46
568.016	3101.65
568.215	2827.22
568.414	2800.6
568.612	2780.12
568.811	2642.9
569.01	2583.51
569.208	2587.61
569.407	2618.33
569.605	2538.46
569.804	2464.73
570.002	2481.11
570.201	2452.44
570.4	2425.82
570.598	2300.89
570.797	2268.13
570.995	2200.54
571.193	2188.25
571.392	2210.78
571.59	2126.82
571.789	2208.73
571.987	2175.97
572.186	2128.86
572.384	2028.51
572.582	2032.61
572.781	2040.8
572.979	1821.67
573.177	1862.63
573.376	1893.35
573.574	1993.7
573.772	1840.1
573.971	1805.28
574.169	1666.02
574.367	1770.47
574.565	1706.98
574.763	1727.46
574.962	1696.74
575.16	1676.26
575.358	1645.54
575.556	1537
575.754	1532.9
575.952	1528.81
576.151	1567.72
576.349	1598.44
576.547	1369.07
576.745	1539.05
576.943	1565.67
577.141	1416.17
577.339	1340.4
577.537	1491.95
577.735	1446.89
577.933	1293.29
578.131	1262.57
578.329	1496.04
578.527	1299.44
578.725	1287.15
578.923	1088.5
579.121	1254.38
579.319	1117.17
579.516	1225.71
579.714	1328.11
579.912	1149.93
580.11	1051.63
580.308	1133.55
580.506	1010.67
580.704	1008.62
580.901	979.95
581.099	1170.41
581.297	1018.86
581.495	1084.4
581.692	928.75
581.89	1190.89
582.088	1063.92
582.285	1008.62
582.483	992.24
582.681	955.38
582.878	898.03
583.076	1000.43
583.274	967.67
583.471	994.29
583.669	834.55
583.866	795.64
584.064	760.82
584.262	787.44
584.459	809.97
584.657	850.93
584.854	848.88
585.052	832.5
585.249	726
585.447	805.88
585.644	750.58
585.841	855.03
586.039	762.87
586.236	898.03
586.434	680.95
586.631	734.2
586.828	644.09
587.026	721.91
587.223	551.93
587.42	664.57
587.618	662.52
587.815	773.11
588.012	685.05
588.21	533.5
588.407	670.71
588.604	697.33
588.801	535.54
588.999	576.5
589.196	721.91
589.393	533.5
589.59	601.08
589.787	646.13
589.984	564.22
590.182	605.17
590.379	545.78
590.576	539.64
590.773	603.13
590.97	617.46
591.167	605.17
591.364	488.44
591.561	513.02
591.758	713.72
591.955	601.08
592.152	490.49
592.349	527.35
592.546	572.41
592.743	594.93
592.94	482.3
593.137	553.98
593.334	666.61
593.531	615.41
593.727	617.46
593.924	586.74
594.121	463.86
594.318	601.08
594.515	672.76
594.712	740.34
594.908	685.05
595.105	392.19
595.302	705.53
595.499	576.5
595.696	803.83
595.892	566.26
596.089	697.33
596.286	627.7
596.482	713.72
596.679	746.48
596.876	605.17
597.072	824.31
597.269	662.52
597.466	715.77
597.662	723.96
597.859	760.82
598.055	934.9
598.252	879.6
598.448	891.89
598.645	969.71
598.841	861.17
599.038	1070.06
599.234	1018.86
599.431	1111.02
599.627	1098.74
599.824	1133.55
600.02	1068.02
600.217	1203.18
600.413	1209.33
600.609	1233.9
600.806	1516.52
601.002	1528.81
601.198	1367.02
601.395	1606.63
601.591	1522.66
601.787	1666.02
601.984	1567.72
602.18	1807.33
602.376	1776.61
602.572	1915.87
602.769	1872.87
602.965	2003.94
603.161	2094.05
603.357	2077.66
603.553	2354.14
603.75	2139.1
603.946	2155.49
604.142	2345.95
604.338	2567.13
604.534	2503.64
604.73	2657.24
604.926	2816.98
605.122	2948.05
605.318	2839.51
605.514	2989.01
605.71	2964.43
605.906	3220.43
606.102	3310.54
606.298	3376.08
606.494	3437.52
606.69	3683.27
606.886	3738.57
607.082	3851.21
607.278	3896.26
607.474	3906.5
607.67	4127.68
607.866	4070.34
608.062	4361.15
608.257	4416.44
608.453	4527.03
608.649	4615.1
608.845	4713.4
609.041	4877.24
609.236	4993.97
609.432	5129.14
609.628	5374.89
609.824	5579.69
610.019	5690.28
610.215	5796.78
610.411	5983.14
610.606	6106.02
610.802	6362.01
610.998	6269.86
611.193	6579.1
611.389	6632.35
611.584	6847.38
611.78	7134.1
611.976	7238.55
612.171	7469.97
612.367	7707.53
612.562	7885.7
612.758	7891.85
612.953	8356.74
613.149	8403.84
613.344	8545.15
613.539	8995.7
613.735	9239.41
613.93	9421.68
614.126	9530.22
614.321	9948.01
614.517	10146.66
614.712	10386.27
614.907	10838.87
615.103	10783.58
615.298	11152.21
615.493	11576.14
615.688	11807.56
615.884	12122.95
616.079	12303.17
616.274	12745.53
616.47	12966.71
616.665	13237.05
616.86	13554.48
617.055	13929.26
617.25	14013.23
617.445	14717.73
617.641	14955.29
617.836	15190.81
618.031	15455
618.226	16341.77
618.421	16399.11
618.616	16802.56
618.811	16988.92
619.006	17863.41
619.201	17890.03
619.396	18254.57
619.591	18682.59
619.786	19004.13
619.981	19186.4
620.176	20376.27
620.371	20363.98
620.566	20656.84
620.761	20990.66
620.956	21836.47
621.151	22190.77
621.346	22784.68
621.541	22676.13
621.735	23792.28
621.93	23487.13
622.125	24330.89
622.32	24595.08
622.515	25272.96
622.709	25631.35
622.904	26282.61
623.099	26194.54
623.294	27081.31
623.488	27263.58
623.683	27787.86
623.878	28156.5
624.072	28854.86
624.267	28717.64
624.462	29563.45
624.656	29975.09
624.851	30640.68
625.046	30976.55
625.24	31062.57
625.435	31492.64
625.629	32014.87
625.824	32377.36
626.018	33047.05
626.213	32913.93
626.407	33583.62
626.602	33655.29
626.796	34501.11
626.991	34775.53
627.185	34757.1
627.38	35127.78
627.574	35664.35
627.768	35250.66
627.963	35285.48
628.157	36002.27
628.352	36135.38
628.546	35572.19
628.74	36219.35
628.935	35942.88
629.129	36057.56
629.323	35301.86
629.517	35586.53
629.712	35217.89
629.906	35181.03
630.1	34396.66
630.294	34613.74
630.489	33892.86
630.683	33694.21
630.877	32899.59
631.071	32375.31
631.265	32141.85
631.459	31330.85
631.653	30603.82
631.848	29968.95
632.042	29332.03
632.236	28615.24
632.43	27691.61
632.624	27312.74
632.818	26169.97
633.012	25258.62
633.206	24453.77
633.4	24025.75
633.594	22975.14
633.788	22266.54
633.982	21486.26
634.176	20865.73
634.369	19348.18
634.563	19299.03
634.757	18307.82
634.951	18242.28
635.145	17038.08
635.339	16638.72
635.533	15923.98
635.726	15565.59
635.92	14441.25
636.114	14076.71
636.308	13441.84
636.501	12913.47
636.695	12553.02
636.889	11719.5
637.083	11473.74
637.276	10795.87
637.47	10498.91
637.664	9968.49
637.857	9821.03
638.051	9306.99
638.244	8905.59
638.438	8635.26
638.632	8403.84
638.825	7848.84
639.019	7644.04
639.212	7273.36
639.406	6972.31
639.599	6785.94
639.793	6693.79
639.986	6427.55
640.18	6171.55
640.373	5508.01
640.567	5594.03
640.76	5458.86
640.954	5286.83
641.147	5028.79
641.34	4635.58
641.534	4559.8
641.727	4438.97
641.92	4230.08
642.114	4127.68
642.307	3926.98
642.5	3761.09
642.694	3550.15
642.887	3660.74
643.08	3490.76
643.273	3298.25
643.467	3152.85
643.66	3019.73
643.853	2802.65
644.046	2802.65
644.239	2610.14
644.432	2558.94
644.626	2374.62
644.819	2325.47
645.012	2268.13
645.205	2184.16
645.398	2296.8
645.591	2139.1
645.784	1897.44
645.977	1901.54
646.17	1731.56
646.363	1831.91
646.556	1696.74
646.749	1526.76
646.942	1639.4
647.135	1563.62
647.328	1385.45
647.521	1424.36
647.714	1407.98
647.907	1346.54
648.099	1260.52
648.292	1242.09
648.485	1194.99
648.678	1020.91
648.871	971.76
649.064	1045.49
649.256	879.6
649.449	959.47
649.642	871.41
649.835	908.27
650.027	881.65
650.22	846.84
650.413	721.91
650.605	764.92
650.798	781.3
650.991	680.95
651.183	758.77
651.376	752.63
651.568	648.18
651.761	576.5
651.954	750.58
652.146	543.74
652.339	633.85
652.531	578.55
652.724	564.22
652.916	582.65
653.109	359.42
653.301	504.82
653.494	492.54
653.686	513.02
653.879	551.93
654.071	414.71
654.263	334.84
654.456	398.33
654.648	531.45
654.84	396.28
655.033	375.8
655.225	445.43
655.417	232.44
655.61	457.72
655.802	412.67
655.994	443.39
656.186	173.05
656.379	398.33
656.571	230.4
656.763	314.36
656.955	343.03
657.148	316.41
657.34	457.72
657.532	314.36
657.724	250.88
657.916	353.27
658.108	424.95
658.3	357.37
658.492	396.28
658.684	244.73
658.876	336.89
659.068	238.59
659.26	197.63
659.452	164.86
659.644	222.2
659.836	308.22
660.028	259.07
660.22	199.68
660.412	183.29
660.604	154.62
660.796	191.49
660.988	285.69
661.18	201.72
661.372	259.07
661.563	185.34
661.755	273.4
661.947	128
662.139	246.78
662.331	168.96
662.522	267.26
662.714	101.37
662.906	23.55
663.097	224.25
663.289	82.94
663.481	95.23
663.673	162.81
663.864	146.43
664.056	244.73
664.247	136.19
664.439	275.45
664.631	203.77
664.822	205.82
665.014	142.33
665.205	70.65
665.397	148.48
665.588	119.81
665.78	189.44
665.971	177.15
666.163	72.7
666.354	175.1
666.546	123.9
666.737	78.85
666.929	148.48
667.12	158.72
667.311	119.81
667.503	156.67
667.694	136.19
667.885	134.14
668.077	173.05
668.268	-29.7
668.459	107.52
668.651	140.29
668.842	228.35
669.033	93.18
669.224	87.04
669.416	308.22
669.607	109.57
669.798	119.81
669.989	234.49
670.18	134.14
670.371	146.43
670.563	72.7
670.754	117.76
670.945	130.05
671.136	166.91
671.327	76.8
671.518	148.48
671.709	189.44
671.9	199.68
672.091	209.92
672.282	87.04
672.473	152.57
672.664	17.41
672.855	138.24
673.046	97.28
673.237	158.72
673.428	125.95
673.619	150.53
673.809	119.81
674	209.92
674.191	189.44
674.382	171.01
674.573	99.33
674.764	160.77
674.954	156.67
675.145	97.28
675.336	119.81
675.527	31.74
675.717	52.22
675.908	80.89
676.099	84.99
676.289	164.86
676.48	29.7
676.671	140.29
676.861	60.42
677.052	218.11
677.243	50.18
677.433	89.09
677.624	146.43
677.814	144.38
678.005	115.71
678.195	228.35
678.386	87.04
678.576	132.09
678.767	46.08
678.957	113.66
679.148	203.77
679.338	269.31
679.529	136.19
679.719	115.71
679.909	218.11
680.1	175.1
680.29	177.15
680.481	99.33
680.671	154.62
680.861	136.19
681.052	117.76
681.242	107.52
681.432	171.01
681.622	232.44
681.813	117.76
682.003	89.09
682.193	99.33
682.383	162.81
682.573	97.28
682.764	152.57
682.954	152.57
683.144	273.4
683.334	119.81
683.524	164.86
683.714	218.11
683.904	261.12
684.094	148.48
684.284	105.47
684.474	295.93
684.664	228.35
684.854	224.25
685.044	132.09
685.234	60.42
685.424	228.35
685.614	93.18
685.804	261.12
685.994	175.1
686.184	134.14
686.374	195.58
686.564	152.57
686.753	185.34
686.943	99.33
687.133	148.48
687.323	220.16
687.513	205.82
687.702	152.57
687.892	125.95
688.082	263.16
688.272	173.05
688.461	168.96
688.651	334.84
688.841	179.2
689.03	134.14
689.22	171.01
689.41	248.83
689.599	132.09
689.789	160.77
689.979	324.6
690.168	224.25
690.358	224.25
690.547	203.77
690.737	162.81
690.926	191.49
691.116	218.11
691.305	279.55
691.495	220.16
691.684	103.42
691.874	171.01
692.063	125.95
692.252	308.22
692.442	281.6
692.631	128
692.82	138.24
693.01	171.01
693.199	193.53
693.388	265.21
693.578	166.91
693.767	222.2
693.956	224.25
694.146	154.62
694.335	191.49
694.524	109.57
694.713	263.16
694.902	236.54
695.092	138.24
695.281	164.86
695.47	144.38
695.659	134.14
695.848	199.68
696.037	132.09
696.226	220.16
696.415	185.34
696.604	175.1
696.793	166.91
696.982	150.53
697.171	236.54
697.36	160.77
697.549	105.47
697.738	44.03
697.927	97.28
698.116	115.71
698.305	185.34
698.494	214.01
698.683	160.77
698.872	330.75
699.061	78.85
699.25	142.33
699.438	140.29
699.627	164.86
699.816	228.35
700.005	93.18
700.193	54.27
700.382	197.63
700.571	183.29
700.76	205.82
700.948	197.63
701.137	207.87
701.326	207.87
701.514	87.04
701.703	240.64
701.892	236.54
702.08	349.18
702.269	140.29
702.457	125.95
702.646	66.56
702.834	123.9
703.023	199.68
703.212	234.49
703.4	218.11
703.589	160.77
703.777	105.47
703.965	199.68
704.154	132.09
704.342	68.61
704.531	142.33
704.719	220.16
704.907	238.59
705.096	48.13
705.284	125.95
705.472	130.05
705.661	181.25
705.849	216.06
706.037	259.07
706.226	140.29
706.414	187.39
706.602	62.46
706.79	209.92
706.979	103.42
707.167	142.33
707.355	39.94
707.543	199.68
707.731	197.63
707.919	150.53
708.107	166.91
708.296	115.71
708.484	109.57
708.672	158.72
708.86	216.06
709.048	179.2
709.236	97.28
709.424	228.35
709.612	246.78
709.8	166.91
709.988	203.77
710.176	211.96
710.364	236.54
710.551	123.9
710.739	191.49
710.927	140.29
711.115	177.15
711.303	222.2
711.491	226.3
711.679	216.06
711.866	216.06
712.054	183.29
712.242	211.96
712.43	259.07
712.617	132.09
712.805	218.11
712.993	158.72
713.181	48.13
713.368	242.68
713.556	128
713.744	82.94
713.931	371.71
714.119	216.06
714.306	119.81
714.494	101.37
714.682	222.2
714.869	56.32
715.057	189.44
715.244	99.33
715.432	156.67
715.619	84.99
715.807	103.42
715.994	150.53
716.182	199.68
716.369	242.68
716.556	246.78
716.744	46.08
716.931	107.52
717.119	267.26
717.306	263.16
717.493	179.2
717.681	179.2
717.868	173.05
718.055	248.83
718.242	236.54
718.43	195.58
718.617	252.92
718.804	121.85
718.991	308.22
719.179	228.35
719.366	211.96
719.553	175.1
719.74	146.43
719.927	132.09
720.114	177.15
720.301	103.42
720.488	109.57
720.676	209.92
720.863	279.55
721.05	353.27
721.237	252.92
721.424	193.53
721.611	193.53
721.798	121.85
721.985	187.39
722.172	228.35
722.358	160.77
722.545	265.21
722.732	205.82
722.919	293.88
723.106	291.84
723.293	222.2
723.48	195.58
723.667	199.68
723.853	285.69
724.04	179.2
724.227	320.51
724.414	287.74
724.6	293.88
724.787	324.6
724.974	363.51
725.161	175.1
725.347	105.47
725.534	244.73
725.72	295.93
725.907	275.45
726.094	322.56
726.28	261.12
726.467	265.21
726.653	119.81
726.84	297.98
727.027	277.5
727.213	226.3
727.4	273.4
727.586	254.97
727.773	275.45
727.959	238.59
728.145	252.92
728.332	248.83
728.518	216.06
728.705	314.36
728.891	230.4
729.077	236.54
729.264	191.49
729.45	320.51
729.636	259.07
729.823	246.78
730.009	330.75
730.195	361.47
730.382	324.6
730.568	232.44
730.754	373.75
730.94	244.73
731.126	207.87
731.313	312.32
731.499	216.06
731.685	295.93
731.871	320.51
732.057	302.08
732.243	406.52
732.429	359.42
732.615	414.71
732.801	289.79
732.987	263.16
733.173	281.6
733.359	257.02
733.545	310.27
733.731	324.6
733.917	357.37
734.103	291.84
734.289	404.47
734.475	273.4
734.661	386.04
734.847	250.88
735.033	365.56
735.219	345.08
735.404	310.27
735.59	230.4
735.776	238.59
735.962	318.46
736.148	345.08
736.333	408.57
736.519	312.32
736.705	308.22
736.89	263.16
737.076	308.22
737.262	197.63
737.447	310.27
737.633	334.84
737.819	367.61
738.004	340.99
738.19	275.45
738.375	318.46
738.561	289.79
738.747	318.46
738.932	216.06
739.118	396.28
739.303	343.03
739.489	363.51
739.674	312.32
739.859	185.34
740.045	336.89
740.23	353.27
740.416	125.95
740.601	398.33
740.786	277.5
740.972	269.31
741.157	246.78
741.342	263.16
741.528	191.49
741.713	418.81
741.898	214.01
742.084	334.84
742.269	275.45
742.454	369.66
742.639	414.71
742.824	359.42
743.01	435.19
743.195	486.39
743.38	295.93
743.565	347.13
743.75	289.79
743.935	402.43
744.12	449.53
744.305	351.23
744.49	318.46
744.675	302.08
744.86	279.55
745.045	359.42
745.23	283.64
745.415	306.17
745.6	383.99
745.785	322.56
745.97	314.36
746.155	386.04
746.34	359.42
746.525	275.45
746.71	465.91
746.895	242.68
747.079	291.84
747.264	257.02
747.449	353.27
747.634	379.9
747.819	322.56
748.003	322.56
748.188	185.34
748.373	326.65
748.557	375.8
748.742	316.41
748.927	310.27
749.111	211.96
749.296	195.58
749.481	324.6
749.665	390.14
749.85	216.06
750.034	328.7
750.219	300.03
750.404	300.03
750.588	201.72
750.773	207.87
750.957	351.23
751.141	224.25
751.326	240.64
751.51	211.96
751.695	214.01
751.879	179.2
752.064	375.8
752.248	257.02
752.432	357.37
752.617	345.08
752.801	314.36
752.985	183.29
753.17	242.68
753.354	322.56
753.538	273.4
753.722	259.07
753.907	259.07
754.091	185.34
754.275	291.84
754.459	52.22
754.643	134.14
754.828	214.01
755.012	240.64
755.196	222.2
755.38	252.92
755.564	211.96
755.748	244.73
755.932	392.19
756.116	257.02
756.3	312.32
756.484	158.72
756.668	295.93
756.852	121.85
757.036	216.06
757.22	214.01
757.404	142.33
757.588	150.53
757.772	250.88
757.956	199.68
758.14	306.17
758.323	166.91
758.507	257.02
758.691	261.12
758.875	218.11
759.059	218.11
759.242	220.16
759.426	136.19
759.61	265.21
759.794	142.33
759.977	279.55
760.161	324.6
760.345	281.6
760.528	240.64
760.712	291.84
760.895	234.49
761.079	185.34
761.263	179.2
761.446	128
761.63	201.72
761.813	254.97
761.997	21.5
762.18	166.91
762.364	134.14
762.547	52.22
762.731	195.58
762.914	201.72
763.098	140.29
763.281	87.04
763.464	152.57
763.648	234.49
763.831	140.29
764.015	91.13
764.198	197.63
764.381	123.9
764.564	138.24
764.748	134.14
764.931	211.96
765.114	240.64
765.297	220.16
765.481	140.29
765.664	195.58
765.847	144.38
766.03	242.68
766.213	41.98
766.397	115.71
766.58	111.61
766.763	209.92
766.946	154.62
767.129	132.09
767.312	93.18
767.495	199.68
767.678	109.57
767.861	232.44
768.044	154.62
768.227	160.77
768.41	93.18
768.593	160.77
768.776	140.29
768.959	119.81
769.142	189.44
769.324	78.85
769.507	142.33
769.69	56.32
769.873	105.47
770.056	318.46
770.239	23.55
770.421	138.24
770.604	203.77
770.787	146.43
770.97	164.86
771.152	64.51
771.335	181.25
771.518	82.94
771.7	156.67
771.883	238.59
772.066	87.04
772.248	121.85
772.431	224.25
772.613	101.37
772.796	87.04
772.978	89.09
773.161	203.77
773.343	87.04
773.526	66.56
773.708	17.41
773.891	142.33
774.073	113.66
774.256	60.42
774.438	287.74
774.621	48.13
774.803	162.81
774.985	173.05
775.168	154.62
775.35	99.33
775.532	140.29
775.715	52.22
775.897	154.62
776.079	142.33
776.261	50.18
776.444	117.76
776.626	105.47
776.808	91.13
776.99	37.89
777.173	211.96
777.355	134.14
777.537	95.23
777.719	179.2
777.901	9.22
778.083	23.55
778.265	25.6
778.447	128
778.629	66.56
778.811	72.7
778.993	123.9
779.175	150.53
779.357	119.81
779.539	3.07
779.721	142.33
779.903	97.28
780.085	13.31
780.267	101.37
780.449	97.28
780.631	156.67
780.812	166.91
780.994	60.42
781.176	62.46
781.358	-17.41
781.54	25.6
781.721	113.66
781.903	168.96
782.085	17.41
782.267	187.39
782.448	5.12
782.63	7.17
782.812	17.41
782.993	121.85
783.175	113.66
783.357	91.13
783.538	87.04
783.72	-7.17
783.901	113.66
784.083	91.13
784.264	101.37
784.446	-11.26
784.627	-35.84
784.809	68.61
784.99	84.99
785.172	93.18
785.353	72.7
785.535	64.51
785.716	-5.12
785.897	74.75
786.079	39.94
786.26	39.94
786.441	125.95
786.623	-11.26
786.804	35.84
786.985	50.18
787.167	70.65
787.348	58.37
787.529	117.76
787.71	232.44
787.891	125.95
788.073	9.22
788.254	-80.89
788.435	171.01
788.616	11.26
788.797	48.13
788.978	103.42
789.159	48.13
789.34	138.24
789.522	125.95
789.703	31.74
789.884	46.08
790.065	105.47
790.246	183.29
790.427	58.37
790.607	187.39
790.788	152.57
790.969	54.27
791.15	11.26
791.331	5.12
791.512	50.18
791.693	-17.41
791.874	9.22
792.054	191.49
792.235	87.04
792.416	-11.26
792.597	15.36
792.778	154.62
792.958	103.42
793.139	19.46
793.32	97.28
793.5	-17.41
793.681	115.71
793.862	156.67
794.042	74.75
794.223	-68.61
794.404	66.56
794.584	-80.89
794.765	48.13
794.945	64.51
795.126	109.57
795.306	80.89
795.487	-13.31
795.667	66.56
795.848	70.65
796.028	58.37
796.209	-3.07
796.389	74.75
796.57	27.65
796.75	-48.13
796.93	74.75
797.111	50.18
797.291	82.94
797.471	27.65
797.652	21.5
797.832	15.36
798.012	109.57
798.192	-33.79
798.373	-60.42
798.553	-91.13
798.733	76.8
798.913	-19.46
799.093	-74.75
799.274	111.61
799.454	48.13
799.634	113.66
799.814	93.18
799.994	21.5
800.174	70.65
800.354	15.36
800.534	-50.18
800.714	132.09
800.894	3.07
801.074	-52.22
801.254	-25.6
801.434	158.72
801.614	-11.26
801.794	-134.14
801.974	1917.92
802.154	-9.22
802.334	103.42
802.514	33.79
802.693	-5.12
802.873	25.6
803.053	156.67
803.233	80.89
803.413	93.18
803.592	-44.03
803.772	-29.7
803.952	46.08
804.131	-35.84
804.311	130.05
804.491	68.61
804.67	7.17
804.85	-13.31
805.03	74.75
805.209	158.72
805.389	13.31
805.568	-21.5
805.748	31.74
805.928	39.94
806.107	93.18
806.287	68.61
806.466	103.42
806.646	25.6
806.825	78.85
807.004	-25.6
807.184	101.37
807.363	39.94
807.543	50.18
807.722	-31.74
807.901	123.9
808.081	93.18
808.26	-144.38
808.439	-13.31
808.619	23.55
808.798	21.5
808.977	41.98
809.156	113.66
809.336	13.31
809.515	23.55
809.694	-29.7
809.873	31.74
810.052	39.94
810.231	162.81
810.411	78.85
810.59	97.28
810.769	19.46
810.948	111.61
811.127	-193.53
811.306	44.03
811.485	23.55
811.664	115.71
811.843	60.42
812.022	23.55
812.201	25.6
812.38	27.65
812.559	-3.07
812.737	-19.46
812.916	-103.42
813.095	-5.12
813.274	121.85
813.453	109.57
813.632	64.51
813.811	132.09
813.989	-66.56
814.168	-9.22
814.347	-23.55
814.526	19.46
814.704	113.66
814.883	138.24
815.062	-62.46
815.24	111.61
815.419	-62.46
815.598	25.6
815.776	-23.55
815.955	-33.79
816.133	-56.32
816.312	39.94
816.49	-68.61
816.669	-1.02
816.847	-13.31
817.026	35.84
817.204	82.94
817.383	103.42
817.561	31.74
817.74	103.42
817.918	64.51
818.097	-39.94
818.275	3.07
818.453	68.61
818.632	64.51
818.81	-11.26
818.988	-29.7
819.167	-37.89
819.345	41.98
819.523	27.65
819.701	9.22
819.879	35.84
820.058	5.12
820.236	-3.07
820.414	41.98
820.592	-9.22
820.77	35.84
820.948	25.6
821.127	17.41
821.305	-27.65
821.483	46.08
821.661	48.13
821.839	-9.22
822.017	9.22
822.195	7.17
822.373	201.72
822.551	5.12
822.729	70.65
822.907	11.26
823.085	138.24
823.262	87.04
823.44	-3.07
823.618	23.55
823.796	41.98
823.974	-21.5
824.152	54.27
824.329	80.89
824.507	-35.84
824.685	17.41
824.863	-21.5
825.04	-3.07
825.218	76.8
825.396	48.13
825.574	-7.17
825.751	33.79
825.929	70.65
826.107	-17.41
826.284	-5.12
826.462	56.32
826.639	-31.74
826.817	-37.89
826.994	-50.18
827.172	-95.23
827.349	78.85
827.527	50.18
827.704	35.84
827.882	119.81
828.059	46.08
828.237	-48.13
828.414	103.42
828.591	-142.33
828.769	9.22
828.946	-52.22
829.124	54.27
829.301	60.42
829.478	-9.22
829.655	72.7
829.833	9.22
830.01	-93.18
830.187	62.46
830.364	3.07
830.542	-9.22
830.719	128
830.896	15.36
831.073	48.13
831.25	76.8
831.427	54.27
831.604	-5.12
831.782	-89.09
831.959	29.7
832.136	-21.5
832.313	-60.42
832.49	33.79
832.667	-31.74
832.844	-19.46
833.021	95.23
833.198	21.5
833.374	9.22
833.551	-15.36
833.728	23.55
833.905	93.18
834.082	-117.76
834.259	93.18
834.436	82.94
834.612	29.7
834.789	123.9
834.966	5.12
835.143	-1.02
835.319	-70.65
835.496	78.85
835.673	54.27
835.85	50.18
836.026	72.7
836.203	17.41
836.38	-37.89
836.556	-1.02
836.733	23.55
836.909	39.94
837.086	-37.89
837.262	-76.8
837.439	11.26
837.616	9.22
837.792	13.31
837.968	-1.02
838.145	-103.42
838.321	15.36
838.498	-29.7
838.674	27.65
838.851	27.65
839.027	56.32
839.203	-27.65
839.38	-50.18
839.556	-5.12
839.732	23.55
839.909	-33.79
840.085	52.22
840.261	-29.7
840.437	44.03
840.614	-7.17
840.79	89.09
840.966	74.75
841.142	-17.41
841.318	-23.55
841.494	-19.46
841.671	56.32
841.847	-33.79
842.023	-109.57
842.199	1.02
842.375	105.47
842.551	-68.61
842.727	-68.61
842.903	64.51
843.079	-27.65
843.255	76.8
843.431	29.7
843.607	121.85
843.783	-101.37
843.959	7.17
844.134	-91.13
844.31	123.9
844.486	-9.22
844.662	-82.94
844.838	7.17
845.013	48.13
845.189	64.51
845.365	-13.31
845.541	-13.31
845.716	7.17
845.892	48.13
846.068	-54.27
846.244	-13.31
846.419	5.12
846.595	-109.57
846.77	-54.27
846.946	35.84
847.122	-15.36
847.297	-52.22
847.473	148.48
847.648	-58.37
847.824	72.7
847.999	-138.24
848.175	13.31
848.35	52.22
848.526	142.33
848.701	11.26
848.876	111.61
849.052	64.51
849.227	-25.6
849.403	23.55
849.578	-21.5
849.753	62.46
849.929	5.12
850.104	-78.85
850.279	48.13
850.454	70.65
850.63	15.36
850.805	-9.22
850.98	23.55
851.155	-80.89
851.33	-31.74
851.505	-41.98
851.681	144.38
851.856	-33.79
852.031	41.98
852.206	-15.36
852.381	11.26
852.556	27.65
852.731	60.42
852.906	121.85
853.081	84.99
853.256	60.42
853.431	-19.46
853.606	-41.98
853.781	-70.65
853.956	-107.52
854.131	60.42
854.305	52.22
854.48	27.65
854.655	-9.22
854.83	-76.8
855.005	5.12
855.18	33.79
855.354	-91.13
855.529	-15.36
855.704	-50.18
855.879	33.79
856.053	-78.85
856.228	-31.74
856.403	-7.17
856.577	66.56
856.752	-82.94
856.926	76.8
857.101	-29.7
857.276	-66.56
857.45	-5.12
857.625	82.94
857.799	44.03
857.974	70.65
858.148	-97.28
858.323	48.13
858.497	35.84
858.672	-76.8
858.846	19.46
859.02	74.75
859.195	-11.26
859.369	-70.65
859.543	54.27
859.718	70.65
859.892	33.79
860.066	-33.79
860.241	74.75
860.415	-50.18
860.589	-13.31
860.763	-3.07
860.938	27.65
861.112	46.08
861.286	-44.03
861.46	70.65
861.634	27.65
861.808	7.17
861.982	25.6
862.157	-121.85
862.331	-13.31
862.505	-136.19
862.679	-84.99
862.853	27.65
863.027	-21.5
863.201	123.9
863.375	-21.5
863.549	11.26
863.722	-29.7
863.896	74.75
864.07	-89.09
864.244	54.27
864.418	76.8
864.592	48.13
864.766	37.89
864.939	132.09
865.113	-3.07
865.287	64.51
865.461	-50.18
865.634	-60.42
865.808	23.55
865.982	-11.26
866.156	-87.04
866.329	-95.23
866.503	27.65
866.676	101.37
866.85	-17.41
867.024	-66.56
867.197	21.5
867.371	1.02
867.544	91.13
867.718	-76.8
867.891	78.85
868.065	-76.8
868.238	25.6
868.412	76.8
868.585	60.42
868.759	-11.26
868.932	-78.85
869.105	-48.13
869.279	48.13
869.452	-76.8
869.625	105.47
869.799	-7.17
869.972	-64.51
870.145	60.42
870.319	134.14
870.492	37.89
870.665	-29.7
870.838	-7.17
871.011	-91.13
871.185	35.84
871.358	-97.28
871.531	37.89
871.704	-11.26
871.877	-25.6
872.05	-15.36
872.223	13.31
872.396	95.23
872.569	91.13
872.742	-60.42
872.915	62.46
873.088	-52.22
873.261	-33.79
873.434	54.27
873.607	-68.61
873.78	76.8
873.953	-136.19
874.126	52.22
874.299	78.85
874.471	7.17
874.644	9.22
874.817	117.76
874.99	183.29
875.163	-87.04
875.335	3.07
875.508	25.6
875.681	111.61
875.853	33.79
876.026	-29.7
876.199	39.94
876.371	-7.17
876.544	-115.71
876.717	25.6
876.889	-58.37
877.062	46.08
877.234	-70.65
877.407	-9.22
877.579	-50.18
877.752	52.22
877.924	89.09
878.097	66.56
878.269	52.22
878.442	7.17
878.614	50.18
878.786	-54.27
878.959	74.75
879.131	21.5
879.303	-154.62
879.476	13.31
879.648	80.89
879.82	37.89
879.993	-19.46
880.165	-25.6
880.337	-66.56
880.509	48.13
880.681	-52.22
880.854	33.79
881.026	29.7
881.198	183.29
881.37	-93.18
881.542	-58.37
881.714	-35.84
881.886	-13.31
882.058	5.12
882.23	80.89
882.402	-72.7
882.574	13.31
882.746	48.13
882.918	80.89
883.09	54.27
883.262	-52.22
883.434	-15.36
883.606	-84.99
883.778	41.98
883.95	76.8
884.122	-68.61
884.293	15.36
884.465	21.5
884.637	7.17
884.809	-27.65
884.98	-5.12
885.152	21.5
885.324	17.41
885.496	-109.57
885.667	-48.13
885.839	37.89
886.011	35.84
886.182	-5.12
886.354	50.18
886.525	-17.41
886.697	-15.36
886.869	15.36
887.04	-5.12
887.212	119.81
887.383	177.15
887.555	-1.02
887.726	-48.13
887.897	-17.41
888.069	-39.94
888.24	37.89
888.412	11.26
888.583	9.22
888.754	37.89
888.926	-185.34
889.097	-52.22
889.268	-50.18
889.44	19.46
889.611	-107.52
889.782	-121.85
889.953	-97.28
890.125	148.48
890.296	25.6
890.467	-56.32
890.638	41.98
890.809	-31.74
890.98	-3.07
891.151	76.8
891.323	121.85
891.494	15.36
891.665	-37.89
891.836	48.13
892.007	15.36
892.178	-62.46
892.349	15.36
892.52	46.08
892.691	-19.46
892.862	-46.08
893.032	-95.23
893.203	-60.42
893.374	46.08
893.545	74.75
893.716	-87.04
893.887	72.7
894.057	-46.08
894.228	-9.22
894.399	44.03
894.57	148.48
894.74	56.32
894.911	-17.41
895.082	-58.37
895.253	-58.37
895.423	11.26
895.594	58.37
895.764	97.28
895.935	-54.27
896.106	27.65
896.276	-56.32
896.447	13.31
896.617	-130.05
896.788	-105.47
896.958	-19.46
897.129	-13.31
897.299	25.6
897.47	66.56
897.64	103.42
897.81	70.65
897.981	-21.5
898.151	-52.22
898.322	13.31
898.492	91.13
898.662	-101.37
898.832	-7.17
899.003	-37.89
899.173	15.36
899.343	-107.52
899.513	9.22
