Data from USB4F104151__30__10-24-19-142.txt Node

Date: Wed Feb 26 10:24:19 EST 2025
User: louis
Spectrometer: USB4F10415
Trigger mode: 4
Integration Time (sec): 1.000000E-1
Scans to average: 1
Electric dark correction enabled: true
Nonlinearity correction enabled: false
Boxcar width: 0
XAxis mode: Wavelengths
Number of Pixels in Spectrum: 3648
>>>>>Begin Spectral Data<<<<<
178.204	-351.23
178.424	-351.23
178.644	-351.23
178.864	-398.33
179.084	-330.75
179.304	13.31
179.524	-19.46
179.744	-48.13
179.964	13.31
180.184	-11.26
180.404	-11.26
180.624	-3.07
180.844	44.03
181.064	-84.99
181.283	68.61
181.503	-11.26
181.723	50.18
181.943	-76.8
182.163	181.25
182.383	62.46
182.602	158.72
182.822	125.95
183.042	62.46
183.262	-31.74
183.482	11.26
183.701	97.28
183.921	60.42
184.141	29.7
184.361	164.86
184.58	91.13
184.8	78.85
185.02	21.5
185.239	103.42
185.459	150.53
185.679	130.05
185.898	-23.55
186.118	66.56
186.338	128
186.557	52.22
186.777	1.02
186.997	11.26
187.216	35.84
187.436	209.92
187.655	132.09
187.875	154.62
188.095	52.22
188.314	138.24
188.534	93.18
188.753	-64.51
188.973	91.13
189.192	154.62
189.412	93.18
189.631	41.98
189.851	25.6
190.07	171.01
190.29	-11.26
190.509	21.5
190.729	52.22
190.948	205.82
191.168	263.16
191.387	58.37
191.607	103.42
191.826	138.24
192.045	44.03
192.265	39.94
192.484	70.65
192.704	74.75
192.923	-58.37
193.142	154.62
193.362	119.81
193.581	250.88
193.8	82.94
194.02	41.98
194.239	70.65
194.458	60.42
194.678	25.6
194.897	48.13
195.116	89.09
195.335	99.33
195.555	66.56
195.774	60.42
195.993	123.9
196.212	5.12
196.432	5.12
196.651	78.85
196.87	23.55
197.089	252.92
197.308	113.66
197.528	138.24
197.747	-15.36
197.966	119.81
198.185	111.61
198.404	-5.12
198.623	97.28
198.842	123.9
199.062	72.7
199.281	144.38
199.5	48.13
199.719	136.19
199.938	111.61
200.157	156.67
200.376	138.24
200.595	164.86
200.814	105.47
201.033	-15.36
201.252	158.72
201.471	37.89
201.69	91.13
201.909	84.99
202.128	91.13
202.347	119.81
202.566	99.33
202.785	-97.28
203.004	21.5
203.223	226.3
203.442	62.46
203.661	-31.74
203.879	48.13
204.098	193.53
204.317	-41.98
204.536	111.61
204.755	107.52
204.974	113.66
205.193	7.17
205.411	228.35
205.63	82.94
205.849	128
206.068	56.32
206.287	-48.13
206.505	119.81
206.724	132.09
206.943	56.32
207.162	1.02
207.381	93.18
207.599	54.27
207.818	117.76
208.037	99.33
208.255	84.99
208.474	132.09
208.693	66.56
208.911	-76.8
209.13	70.65
209.349	17.41
209.567	87.04
209.786	13.31
210.005	128
210.223	101.37
210.442	-62.46
210.661	78.85
210.879	48.13
211.098	5.12
211.316	84.99
211.535	68.61
211.753	13.31
211.972	109.57
212.191	66.56
212.409	68.61
212.628	158.72
212.846	72.7
213.065	128
213.283	113.66
213.502	44.03
213.72	72.7
213.938	56.32
214.157	64.51
214.375	191.49
214.594	89.09
214.812	84.99
215.031	41.98
215.249	93.18
215.467	136.19
215.686	105.47
215.904	72.7
216.122	123.9
216.341	166.91
216.559	113.66
216.778	78.85
216.996	234.49
217.214	5.12
217.432	-11.26
217.651	-78.85
217.869	189.44
218.087	-3.07
218.306	41.98
218.524	142.33
218.742	-25.6
218.96	134.14
219.179	52.22
219.397	13.31
219.615	283.64
219.833	109.57
220.051	82.94
220.27	111.61
220.488	179.2
220.706	35.84
220.924	21.5
221.142	23.55
221.36	50.18
221.578	117.76
221.796	44.03
222.015	95.23
222.233	91.13
222.451	158.72
222.669	-9.22
222.887	130.05
223.105	13.31
223.323	52.22
223.541	-113.66
223.759	21.5
223.977	39.94
224.195	187.39
224.413	142.33
224.631	109.57
224.849	115.71
225.067	300.03
225.285	35.84
225.503	66.56
225.721	-91.13
225.939	50.18
226.157	27.65
226.375	289.79
226.592	-9.22
226.81	52.22
227.028	123.9
227.246	150.53
227.464	48.13
227.682	64.51
227.9	95.23
228.117	138.24
228.335	74.75
228.553	39.94
228.771	64.51
228.989	89.09
229.206	136.19
229.424	35.84
229.642	62.46
229.86	-19.46
230.077	156.67
230.295	35.84
230.513	70.65
230.731	99.33
230.948	144.38
231.166	111.61
231.384	-44.03
231.601	-21.5
231.819	168.96
232.037	60.42
232.254	5.12
232.472	70.65
232.689	-46.08
232.907	62.46
233.125	48.13
233.342	-11.26
233.56	44.03
233.777	44.03
233.995	93.18
234.213	152.57
234.43	125.95
234.648	80.89
234.865	87.04
235.083	95.23
235.3	62.46
235.518	103.42
235.735	37.89
235.953	60.42
236.17	128
236.388	111.61
236.605	44.03
236.822	25.6
237.04	158.72
237.257	80.89
237.475	-39.94
237.692	60.42
237.909	123.9
238.127	15.36
238.344	87.04
238.562	44.03
238.779	-48.13
238.996	13.31
239.214	44.03
239.431	82.94
239.648	-64.51
239.865	183.29
240.083	72.7
240.3	35.84
240.517	54.27
240.735	78.85
240.952	160.77
241.169	93.18
241.386	152.57
241.603	-21.5
241.821	39.94
242.038	111.61
242.255	185.34
242.472	-50.18
242.689	68.61
242.907	82.94
243.124	101.37
243.341	78.85
243.558	-21.5
243.775	-5.12
243.992	-23.55
244.209	35.84
244.426	109.57
244.643	60.42
244.86	54.27
245.078	103.42
245.295	109.57
245.512	76.8
245.729	54.27
245.946	68.61
246.163	7.17
246.38	-39.94
246.597	91.13
246.814	13.31
247.031	113.66
247.248	138.24
247.464	185.34
247.681	152.57
247.898	19.46
248.115	97.28
248.332	-11.26
248.549	142.33
248.766	144.38
248.983	78.85
249.2	64.51
249.417	216.06
249.633	-5.12
249.85	121.85
250.067	48.13
250.284	44.03
250.501	136.19
250.717	177.15
250.934	-58.37
251.151	7.17
251.368	44.03
251.585	132.09
251.801	39.94
252.018	-46.08
252.235	179.2
252.451	-11.26
252.668	99.33
252.885	156.67
253.102	37.89
253.318	78.85
253.535	-1.02
253.752	23.55
253.968	91.13
254.185	23.55
254.401	62.46
254.618	134.14
254.835	56.32
255.051	164.86
255.268	62.46
255.484	66.56
255.701	103.42
255.917	128
256.134	-7.17
256.351	56.32
256.567	3.07
256.784	-19.46
257	33.79
257.217	136.19
257.433	152.57
257.65	138.24
257.866	148.48
258.082	37.89
258.299	-72.7
258.515	160.77
258.732	37.89
258.948	25.6
259.165	76.8
259.381	-21.5
259.597	76.8
259.814	68.61
260.03	46.08
260.246	56.32
260.463	107.52
260.679	164.86
260.895	60.42
261.112	93.18
261.328	-7.17
261.544	17.41
261.761	175.1
261.977	19.46
262.193	-41.98
262.409	66.56
262.626	78.85
262.842	46.08
263.058	48.13
263.274	99.33
263.49	132.09
263.707	76.8
263.923	138.24
264.139	-23.55
264.355	52.22
264.571	152.57
264.787	119.81
265.004	156.67
265.22	15.36
265.436	-7.17
265.652	19.46
265.868	80.89
266.084	5.12
266.3	46.08
266.516	62.46
266.732	99.33
266.948	21.5
267.164	23.55
267.38	95.23
267.596	130.05
267.812	228.35
268.028	91.13
268.244	52.22
268.46	78.85
268.676	58.37
268.892	160.77
269.108	-13.31
269.324	-29.7
269.54	-9.22
269.756	117.76
269.972	-17.41
270.188	21.5
270.403	35.84
270.619	93.18
270.835	156.67
271.051	25.6
271.267	64.51
271.483	-5.12
271.698	203.77
271.914	89.09
272.13	70.65
272.346	-3.07
272.562	101.37
272.777	84.99
272.993	1.02
273.209	5.12
273.425	171.01
273.64	-1.02
273.856	84.99
274.072	-39.94
274.287	23.55
274.503	158.72
274.719	111.61
274.934	35.84
275.15	-35.84
275.366	78.85
275.581	60.42
275.797	68.61
276.012	72.7
276.228	21.5
276.444	39.94
276.659	189.44
276.875	44.03
277.09	35.84
277.306	66.56
277.521	103.42
277.737	39.94
277.952	130.05
278.168	72.7
278.383	76.8
278.599	35.84
278.814	107.52
279.03	41.98
279.245	144.38
279.461	144.38
279.676	187.39
279.892	-31.74
280.107	-19.46
280.322	-41.98
280.538	134.14
280.753	29.7
280.969	132.09
281.184	101.37
281.399	74.75
281.615	132.09
281.83	125.95
282.045	-31.74
282.26	52.22
282.476	52.22
282.691	228.35
282.906	119.81
283.122	56.32
283.337	9.22
283.552	162.81
283.767	35.84
283.983	146.43
284.198	39.94
284.413	50.18
284.628	31.74
284.843	70.65
285.058	58.37
285.274	-5.12
285.489	58.37
285.704	123.9
285.919	-78.85
286.134	107.52
286.349	117.76
286.564	-17.41
286.779	146.43
286.995	93.18
287.21	-31.74
287.425	41.98
287.64	74.75
287.855	103.42
288.07	-25.6
288.285	146.43
288.5	152.57
288.715	68.61
288.93	37.89
289.145	-9.22
289.36	144.38
289.575	60.42
289.79	142.33
290.004	27.65
290.219	138.24
290.434	5.12
290.649	-9.22
290.864	76.8
291.079	52.22
291.294	103.42
291.509	72.7
291.724	41.98
291.938	66.56
292.153	74.75
292.368	105.47
292.583	56.32
292.798	91.13
293.012	11.26
293.227	33.79
293.442	58.37
293.657	130.05
293.871	95.23
294.086	164.86
294.301	232.44
294.516	121.85
294.73	82.94
294.945	-64.51
295.16	13.31
295.374	285.69
295.589	123.9
295.804	87.04
296.018	95.23
296.233	185.34
296.447	148.48
296.662	13.31
296.877	142.33
297.091	148.48
297.306	52.22
297.52	-15.36
297.735	119.81
297.949	35.84
298.164	27.65
298.378	46.08
298.593	13.31
298.807	-15.36
299.022	138.24
299.236	142.33
299.451	64.51
299.665	56.32
299.88	9.22
300.094	74.75
300.309	78.85
300.523	130.05
300.737	56.32
300.952	113.66
301.166	107.52
301.381	80.89
301.595	-5.12
301.809	109.57
302.024	48.13
302.238	21.5
302.452	166.91
302.667	21.5
302.881	275.45
303.095	136.19
303.309	140.29
303.524	-5.12
303.738	11.26
303.952	9.22
304.166	58.37
304.381	-87.04
304.595	224.25
304.809	84.99
305.023	74.75
305.237	41.98
305.452	136.19
305.666	72.7
305.88	119.81
306.094	115.71
306.308	146.43
306.522	150.53
306.736	87.04
306.95	31.74
307.164	50.18
307.379	39.94
307.593	107.52
307.807	181.25
308.021	101.37
308.235	136.19
308.449	23.55
308.663	25.6
308.877	224.25
309.091	70.65
309.305	130.05
309.519	19.46
309.733	89.09
309.947	-46.08
310.161	27.65
310.374	185.34
310.588	91.13
310.802	1.02
311.016	52.22
311.23	203.77
311.444	21.5
311.658	9.22
311.872	123.9
312.085	123.9
312.299	134.14
312.513	121.85
312.727	11.26
312.941	9.22
313.154	115.71
313.368	56.32
313.582	25.6
313.796	52.22
314.009	27.65
314.223	134.14
314.437	105.47
314.651	130.05
314.864	58.37
315.078	-17.41
315.292	-9.22
315.505	-3.07
315.719	136.19
315.933	84.99
316.146	50.18
316.36	-25.6
316.573	123.9
316.787	121.85
317.001	60.42
317.214	15.36
317.428	29.7
317.641	33.79
317.855	-1.02
318.068	93.18
318.282	15.36
318.495	265.21
318.709	87.04
318.922	-23.55
319.136	164.86
319.349	138.24
319.563	62.46
319.776	166.91
319.99	-44.03
320.203	74.75
320.417	54.27
320.63	58.37
320.843	191.49
321.057	95.23
321.27	25.6
321.483	74.75
321.697	125.95
321.91	62.46
322.124	31.74
322.337	78.85
322.55	35.84
322.763	52.22
322.977	29.7
323.19	-62.46
323.403	109.57
323.617	66.56
323.83	76.8
324.043	97.28
324.256	121.85
324.469	50.18
324.683	148.48
324.896	105.47
325.109	37.89
325.322	-95.23
325.535	189.44
325.748	72.7
325.962	35.84
326.175	31.74
326.388	35.84
326.601	103.42
326.814	66.56
327.027	62.46
327.24	99.33
327.453	-78.85
327.666	46.08
327.879	183.29
328.092	29.7
328.305	70.65
328.518	48.13
328.731	-1.02
328.944	37.89
329.157	113.66
329.37	87.04
329.583	199.68
329.796	187.39
330.009	52.22
330.222	72.7
330.435	62.46
330.648	58.37
330.861	27.65
331.073	125.95
331.286	179.2
331.499	21.5
331.712	68.61
331.925	35.84
332.138	17.41
332.35	99.33
332.563	132.09
332.776	257.02
332.989	72.7
333.202	-48.13
333.414	23.55
333.627	37.89
333.84	23.55
334.053	31.74
334.265	37.89
334.478	-27.65
334.691	3.07
334.903	41.98
335.116	-41.98
335.329	44.03
335.541	60.42
335.754	207.87
335.966	37.89
336.179	87.04
336.392	103.42
336.604	52.22
336.817	66.56
337.029	72.7
337.242	58.37
337.454	72.7
337.667	48.13
337.88	150.53
338.092	103.42
338.305	66.56
338.517	37.89
338.729	17.41
338.942	130.05
339.154	-19.46
339.367	-15.36
339.579	148.48
339.792	25.6
340.004	138.24
340.217	56.32
340.429	56.32
340.641	46.08
340.854	13.31
341.066	19.46
341.278	76.8
341.491	158.72
341.703	54.27
341.915	3.07
342.128	103.42
342.34	78.85
342.552	37.89
342.764	66.56
342.977	58.37
343.189	156.67
343.401	101.37
343.613	13.31
343.826	78.85
344.038	-11.26
344.25	33.79
344.462	29.7
344.674	72.7
344.886	7.17
345.099	103.42
345.311	64.51
345.523	-54.27
345.735	-48.13
345.947	70.65
346.159	74.75
346.371	48.13
346.583	46.08
346.795	115.71
347.007	13.31
347.219	58.37
347.431	111.61
347.643	80.89
347.855	-9.22
348.067	189.44
348.279	-1.02
348.491	7.17
348.703	62.46
348.915	115.71
349.127	15.36
349.339	109.57
349.551	60.42
349.763	164.86
349.975	95.23
350.187	125.95
350.399	136.19
350.61	39.94
350.822	31.74
351.034	37.89
351.246	97.28
351.458	105.47
351.669	103.42
351.881	125.95
352.093	101.37
352.305	144.38
352.517	99.33
352.728	76.8
352.94	95.23
353.152	66.56
353.363	-46.08
353.575	66.56
353.787	189.44
353.999	105.47
354.21	152.57
354.422	25.6
354.633	1.02
354.845	15.36
355.057	136.19
355.268	58.37
355.48	166.91
355.692	-52.22
355.903	37.89
356.115	-3.07
356.326	1.02
356.538	185.34
356.749	119.81
356.961	134.14
357.172	80.89
357.384	66.56
357.595	244.73
357.807	-15.36
358.018	52.22
358.23	1.02
358.441	173.05
358.653	123.9
358.864	13.31
359.075	-5.12
359.287	119.81
359.498	134.14
359.709	78.85
359.921	31.74
360.132	148.48
360.344	107.52
360.555	-74.75
360.766	46.08
360.977	68.61
361.189	140.29
361.4	119.81
361.611	74.75
361.823	33.79
362.034	150.53
362.245	-11.26
362.456	66.56
362.667	136.19
362.879	13.31
363.09	56.32
363.301	119.81
363.512	25.6
363.723	21.5
363.935	7.17
364.146	140.29
364.357	82.94
364.568	132.09
364.779	5.12
364.99	148.48
365.201	-7.17
365.412	109.57
365.623	-31.74
365.834	54.27
366.045	-29.7
366.256	152.57
366.467	123.9
366.678	41.98
366.889	179.2
367.1	37.89
367.311	99.33
367.522	9.22
367.733	95.23
367.944	74.75
368.155	1.02
368.366	177.15
368.577	191.49
368.788	89.09
368.999	25.6
369.209	78.85
369.42	228.35
369.631	267.26
369.842	130.05
370.053	27.65
370.264	107.52
370.474	15.36
370.685	74.75
370.896	70.65
371.107	101.37
371.317	95.23
371.528	37.89
371.739	222.2
371.95	99.33
372.16	82.94
372.371	-17.41
372.582	9.22
372.792	95.23
373.003	76.8
373.214	93.18
373.424	117.76
373.635	44.03
373.846	105.47
374.056	23.55
374.267	56.32
374.477	37.89
374.688	21.5
374.898	17.41
375.109	72.7
375.319	48.13
375.53	218.11
375.74	72.7
375.951	-19.46
376.161	93.18
376.372	183.29
376.582	-23.55
376.793	138.24
377.003	101.37
377.214	82.94
377.424	33.79
377.635	66.56
377.845	23.55
378.055	177.15
378.266	-39.94
378.476	41.98
378.686	121.85
378.897	119.81
379.107	78.85
379.317	111.61
379.528	41.98
379.738	148.48
379.948	-29.7
380.158	146.43
380.369	46.08
380.579	113.66
380.789	62.46
380.999	113.66
381.21	123.9
381.42	259.07
381.63	72.7
381.84	140.29
382.05	76.8
382.261	95.23
382.471	168.96
382.681	64.51
382.891	207.87
383.101	74.75
383.311	58.37
383.521	19.46
383.731	148.48
383.941	173.05
384.151	103.42
384.361	74.75
384.571	87.04
384.781	23.55
384.991	287.74
385.201	156.67
385.411	128
385.621	105.47
385.831	64.51
386.041	111.61
386.251	-5.12
386.461	146.43
386.671	74.75
386.881	103.42
387.091	58.37
387.301	140.29
387.511	62.46
387.72	64.51
387.93	154.62
388.14	-33.79
388.35	125.95
388.56	93.18
388.769	80.89
388.979	62.46
389.189	23.55
389.399	66.56
389.609	78.85
389.818	62.46
390.028	113.66
390.238	140.29
390.447	5.12
390.657	136.19
390.867	95.23
391.076	-19.46
391.286	60.42
391.496	84.99
391.705	33.79
391.915	173.05
392.125	123.9
392.334	70.65
392.544	187.39
392.753	82.94
392.963	39.94
393.172	68.61
393.382	35.84
393.591	207.87
393.801	87.04
394.01	115.71
394.22	195.58
394.429	68.61
394.639	78.85
394.848	128
395.058	136.19
395.267	21.5
395.477	138.24
395.686	74.75
395.895	230.4
396.105	248.83
396.314	109.57
396.524	31.74
396.733	-3.07
396.942	87.04
397.152	105.47
397.361	154.62
397.57	160.77
397.78	113.66
397.989	164.86
398.198	230.4
398.407	3.07
398.617	78.85
398.826	-13.31
399.035	87.04
399.244	109.57
399.453	58.37
399.663	44.03
399.872	130.05
400.081	-17.41
400.29	152.57
400.499	37.89
400.708	117.76
400.917	-41.98
401.127	64.51
401.336	-46.08
401.545	246.78
401.754	171.01
401.963	181.25
402.172	15.36
402.381	-17.41
402.59	-13.31
402.799	56.32
403.008	152.57
403.217	74.75
403.426	78.85
403.635	52.22
403.844	50.18
404.053	44.03
404.262	11.26
404.471	218.11
404.68	66.56
404.888	-39.94
405.097	58.37
405.306	72.7
405.515	168.96
405.724	25.6
405.933	171.01
406.142	111.61
406.35	175.1
406.559	76.8
406.768	93.18
406.977	144.38
407.185	58.37
407.394	156.67
407.603	74.75
407.812	121.85
408.02	119.81
408.229	99.33
408.438	117.76
408.646	-27.65
408.855	-3.07
409.064	93.18
409.272	64.51
409.481	132.09
409.69	-31.74
409.898	76.8
410.107	87.04
410.315	115.71
410.524	56.32
410.733	39.94
410.941	109.57
411.15	187.39
411.358	119.81
411.567	185.34
411.775	48.13
411.984	105.47
412.192	95.23
412.401	-25.6
412.609	244.73
412.818	152.57
413.026	64.51
413.234	107.52
413.443	15.36
413.651	-17.41
413.86	99.33
414.068	191.49
414.276	209.92
414.485	-80.89
414.693	187.39
414.901	177.15
415.11	117.76
415.318	46.08
415.526	37.89
415.734	156.67
415.943	37.89
416.151	125.95
416.359	50.18
416.567	64.51
416.776	152.57
416.984	140.29
417.192	166.91
417.4	-11.26
417.608	21.5
417.817	13.31
418.025	89.09
418.233	142.33
418.441	56.32
418.649	27.65
418.857	68.61
419.065	146.43
419.273	-21.5
419.481	91.13
419.689	60.42
419.897	21.5
420.105	25.6
420.313	138.24
420.521	230.4
420.729	142.33
420.937	41.98
421.145	-13.31
421.353	134.14
421.561	193.53
421.769	111.61
421.977	-35.84
422.185	113.66
422.393	185.34
422.601	125.95
422.809	89.09
423.017	101.37
423.224	93.18
423.432	203.77
423.64	130.05
423.848	99.33
424.056	97.28
424.263	140.29
424.471	76.8
424.679	224.25
424.887	5.12
425.094	56.32
425.302	31.74
425.51	121.85
425.718	175.1
425.925	99.33
426.133	84.99
426.341	246.78
426.548	82.94
426.756	52.22
426.964	84.99
427.171	99.33
427.379	97.28
427.586	144.38
427.794	50.18
428.001	267.26
428.209	150.53
428.417	152.57
428.624	128
428.832	156.67
429.039	50.18
429.247	64.51
429.454	140.29
429.662	142.33
429.869	191.49
430.076	115.71
430.284	177.15
430.491	160.77
430.699	113.66
430.906	224.25
431.114	181.25
431.321	140.29
431.528	148.48
431.736	164.86
431.943	214.01
432.15	242.68
432.358	211.96
432.565	310.27
432.772	125.95
432.979	173.05
433.187	109.57
433.394	293.88
433.601	107.52
433.808	199.68
434.016	232.44
434.223	242.68
434.43	193.53
434.637	224.25
434.844	310.27
435.052	230.4
435.259	310.27
435.466	326.65
435.673	263.16
435.88	263.16
436.087	316.41
436.294	390.14
436.501	267.26
436.708	234.49
436.915	347.13
437.122	328.7
437.329	300.03
437.537	377.85
437.743	416.76
437.95	508.92
438.157	402.43
438.364	371.71
438.571	386.04
438.778	451.58
438.985	449.53
439.192	547.83
439.399	394.23
439.606	463.86
439.813	531.45
440.02	754.68
440.227	754.68
440.433	553.98
440.64	523.26
440.847	525.3
441.054	553.98
441.261	666.61
441.467	709.62
441.674	701.43
441.881	754.68
442.088	660.47
442.294	766.96
442.501	701.43
442.708	895.99
442.914	830.45
443.121	881.65
443.328	869.36
443.534	957.43
443.741	938.99
443.948	869.36
444.154	1080.3
444.361	1059.82
444.568	1076.21
444.774	1041.39
444.981	924.66
445.187	1201.13
445.394	1281
445.6	1188.85
445.807	1342.44
446.013	1334.25
446.22	1240.05
446.426	1426.41
446.633	1457.13
446.839	1698.79
447.046	1399.79
447.252	1543.14
447.459	1625.06
447.665	1610.73
447.871	1752.04
448.078	1874.92
448.284	1850.34
448.491	2044.9
448.697	2135.01
448.903	2139.1
449.11	2204.64
449.316	2055.14
449.522	2411.48
449.728	2384.86
449.935	2513.88
450.141	2622.42
450.347	2640.86
450.553	2655.19
450.76	2855.89
450.966	2919.38
451.172	2972.63
451.378	3152.85
451.584	3236.81
451.791	3343.31
451.997	3490.76
452.203	3564.49
452.409	3791.81
452.615	3824.58
452.821	3804.1
453.027	3857.35
453.233	4461.5
453.44	4221.89
453.646	4453.31
453.852	4594.62
454.058	4750.26
454.264	4955.06
454.47	5284.78
454.676	5166
454.882	5538.73
455.088	5381.04
455.294	5827.5
455.5	6069.16
455.705	6577.05
455.911	6452.13
456.117	6658.97
456.323	6925.21
456.529	6857.62
456.735	7490.45
456.941	7803.78
457.147	7941
457.352	8317.83
457.558	8364.93
457.764	8766.33
457.97	9096.05
458.176	9509.74
458.381	10111.85
458.587	10109.8
458.793	10701.66
458.999	10689.37
459.204	11959.11
459.41	12364.61
459.616	12260.16
459.821	12847.93
460.027	13640.5
460.233	14185.26
460.438	14213.93
460.644	14834.46
460.85	15035.16
461.055	15799.05
461.261	16407.3
461.466	16139.02
461.672	16556.8
461.878	18309.86
462.083	18516.71
462.289	18557.67
462.494	19176.16
462.7	19337.94
462.905	19794.64
463.111	21168.83
463.316	22327.98
463.522	22643.37
463.727	23407.26
463.932	24679.05
464.138	25123.46
464.343	25911.92
464.549	25877.11
464.754	28115.54
464.959	29024.84
465.165	29229.63
465.37	28963.4
465.575	29057.6
465.781	31109.67
465.986	31906.33
466.191	31521.31
466.397	31808.03
466.602	30990.89
466.807	32832.01
467.012	33198.6
467.218	34085.37
467.423	34044.41
467.628	35064.3
467.833	36534.74
468.038	36227.54
468.244	35348.96
468.449	37112.27
468.654	36403.67
468.859	36684.24
469.064	36581.84
469.269	35592.67
469.474	35975.64
469.679	36649.42
469.885	36180.44
470.09	36475.35
470.295	36735.44
470.5	35727.84
470.705	35836.38
470.91	34707.95
471.115	34486.77
471.32	34820.59
471.525	34867.69
471.73	34122.23
471.935	33778.17
472.139	32545.3
472.344	32926.22
472.549	32473.62
472.754	31789.59
472.959	31048.23
473.164	29805.11
473.369	29618.75
473.574	30540.33
473.778	29653.56
473.983	29200.96
474.188	28738.12
474.393	27572.83
474.598	27269.73
474.802	26747.5
475.007	26200.69
475.212	26075.76
475.417	25145.98
475.621	24656.52
475.826	24660.62
476.031	23861.91
476.235	23409.31
476.44	23532.18
476.645	22543.02
476.849	22692.52
477.054	22303.4
477.259	21689.01
477.463	21813.94
477.668	21082.81
477.872	21236.41
478.077	20869.83
478.282	20146.89
478.486	20038.35
478.691	19923.66
478.895	19538.65
479.1	19438.3
479.304	19253.98
479.509	18815.71
479.713	19098.33
479.918	18281.19
480.122	17994.48
480.326	18322.15
480.531	18318.06
480.735	17877.74
480.94	17525.49
481.144	17945.33
481.348	17173.24
481.553	17275.64
481.757	16833.28
481.961	17040.12
482.166	17126.14
482.37	16966.4
482.574	16304.9
482.778	16595.71
482.983	16706.31
483.187	16243.46
483.391	16548.61
483.595	15962.89
483.8	15858.45
484.004	15803.15
484.208	15790.86
484.412	15340.31
484.616	15569.68
484.821	15256.34
485.025	14875.42
485.229	14994.2
485.433	14537.51
485.637	14529.31
485.841	14074.67
486.045	13923.12
486.249	13724.46
486.453	13681.46
486.657	13572.91
486.861	13361.97
487.065	12761.92
487.269	13024.06
487.473	12530.5
487.677	12514.11
487.881	12675.9
488.085	12143.43
488.289	11809.61
488.493	11512.66
488.697	11668.3
488.901	11420.5
489.105	11049.82
489.309	10971.99
489.512	10961.75
489.716	10736.48
489.92	10492.77
490.124	10163.04
490.328	10144.61
490.531	9923.43
490.735	9718.64
490.939	9644.91
491.143	9405.3
491.346	9335.67
491.55	9214.84
491.754	9036.66
491.958	8870.78
492.161	8833.91
492.365	8571.77
492.569	8387.46
492.772	8405.89
492.976	8242.05
493.18	8041.35
493.383	8022.92
493.587	8061.83
493.79	8072.07
493.994	7734.15
494.197	7789.45
494.401	7803.78
494.605	7574.41
494.808	7408.53
495.012	7426.96
495.215	7347.09
495.419	7420.81
495.622	7150.48
495.825	7142.29
496.029	7179.15
496.232	7283.6
496.436	7009.17
496.639	7187.35
496.843	7209.87
497.046	7054.23
497.249	7375.76
497.453	7175.06
497.656	7007.13
497.859	7029.65
498.063	7054.23
498.266	7162.77
498.469	7261.07
498.673	7209.87
498.876	7250.83
499.079	7101.33
499.282	7054.23
499.485	7494.54
499.689	7193.49
499.892	7629.71
500.095	7392.14
500.298	7639.95
500.501	7187.35
500.705	7689.1
500.908	7549.84
501.111	7627.66
501.314	7828.36
501.517	7865.22
501.72	7850.89
501.923	7773.07
502.126	8041.35
502.329	8434.56
502.532	8231.81
502.735	8348.54
502.938	8467.33
503.141	8643.45
503.344	8516.48
503.547	8913.78
503.75	8790.91
503.953	9089.91
504.156	9302.9
504.359	9087.86
504.562	9374.58
504.765	9429.87
504.968	9562.99
505.17	9851.75
505.373	9954.15
505.576	10060.65
505.779	10263.4
505.982	10427.23
506.185	10435.42
506.387	10812.25
506.59	10761.05
506.793	11055.96
506.996	11111.25
507.198	11776.84
507.401	11735.88
507.604	11866.95
507.807	12081.99
508.009	12311.36
508.212	12831.55
508.415	12862.27
508.617	12890.94
508.82	13140.79
509.022	13341.49
509.225	13992.75
509.428	14304.04
509.63	14287.65
509.833	14517.03
510.035	15299.35
510.238	15213.34
510.44	15657.75
510.643	16089.87
510.845	16339.72
511.048	16653.06
511.25	16835.33
511.453	17337.08
511.655	18035.44
511.858	17953.52
512.06	18672.36
512.262	18916.06
512.465	19235.55
512.667	19776.21
512.87	20110.03
513.072	20507.34
513.274	21488.31
513.477	21467.83
513.679	21926.58
513.881	22436.52
514.084	23110.3
514.286	23263.9
514.488	23665.3
514.69	24468.11
514.893	24756.87
515.095	25221.76
515.297	25674.36
515.499	26229.36
515.701	26925.67
515.904	27445.85
516.106	27968.09
516.308	28605
516.51	28985.93
516.712	29053.51
516.914	30323.25
517.116	30714.41
517.318	31126.05
517.52	31457.82
517.722	32072.21
517.925	32473.62
518.127	33409.54
518.329	33735.17
518.531	33870.33
518.733	34791.92
518.935	35394.02
519.136	35989.98
519.338	36653.52
519.54	36714.96
519.742	37343.69
519.944	38001.08
520.146	38525.36
520.348	38881.71
520.55	39393.7
520.752	39778.72
520.954	40714.64
521.155	40356.25
521.357	41415.05
521.559	41894.27
521.761	42183.04
521.963	42496.38
522.164	42459.51
522.366	43278.7
522.568	43700.58
522.77	43532.65
522.971	44411.23
523.173	44110.17
523.375	44745.05
523.576	44165.47
523.778	44876.12
523.98	45128.02
524.181	45558.09
524.383	45566.28
524.584	46238.01
524.786	45166.93
524.988	45713.73
525.189	46123.33
525.391	45390.16
525.592	46303.55
525.794	45961.54
525.995	45668.68
526.197	45728.07
526.398	45529.42
526.6	45719.88
526.801	45320.52
527.003	45529.42
527.204	45097.3
527.406	45320.52
527.607	44849.49
527.808	44738.9
528.01	43911.52
528.211	44159.33
528.412	44417.37
528.614	43649.38
528.815	43452.78
529.016	43727.2
529.218	42422.65
529.419	42015.1
529.62	41908.61
529.822	41533.83
530.023	41095.56
530.224	40628.63
530.425	40348.06
530.626	39524.77
530.828	39467.43
531.029	39375.27
531.23	38439.35
531.431	37933.5
531.632	37833.15
531.833	37384.65
532.035	36837.84
532.236	36637.14
532.437	36291.03
532.638	35344.87
532.839	35058.15
533.04	34783.73
533.241	34232.82
533.442	34390.52
533.643	33624.57
533.844	32913.93
534.045	32893.45
534.246	32051.73
534.447	31846.94
534.648	31250.98
534.849	30825
535.05	29940.28
535.251	30460.46
535.451	29463.1
535.652	29272.64
535.853	28992.07
536.054	28506.7
536.255	28322.38
536.456	27396.7
536.657	27437.66
536.857	26782.31
537.058	26634.86
537.259	26227.31
537.46	26010.23
537.66	25567.87
537.861	25080.45
538.062	24910.47
538.263	24609.42
538.463	24095.38
538.664	23677.59
538.865	23536.28
539.065	23476.89
539.266	23276.19
539.466	22981.28
539.667	22178.48
539.868	22688.42
540.068	22096.56
540.269	21660.34
540.469	21590.71
540.67	21267.13
540.87	21041.85
541.071	20753.09
541.271	20644.55
541.472	20265.67
541.672	20165.32
541.873	19786.45
542.073	19159.77
542.274	19423.96
542.474	19069.66
542.675	18713.31
542.875	18844.38
543.075	18383.59
543.276	18207.47
543.476	18260.71
543.676	17578.74
543.877	17644.27
544.077	17726.19
544.277	17441.53
544.478	17105.66
544.678	17126.14
544.878	16440.07
545.078	16513.8
545.279	16302.86
545.479	15926.03
545.679	15876.88
545.879	15747.86
546.079	15547.15
546.28	15424.28
546.48	15436.56
546.68	15063.83
546.88	15121.18
547.08	14646.05
547.28	14433.06
547.48	14181.16
547.68	14162.73
547.88	13982.51
548.081	13931.31
548.281	13626.16
548.481	13333.3
548.681	13335.35
548.881	13361.97
549.081	13058.87
549.28	12886.84
549.48	12567.36
549.68	12278.6
549.88	12352.32
550.08	11885.39
550.28	11862.86
550.48	11875.15
550.68	11561.81
550.88	11326.29
551.08	11256.66
551.279	11277.14
551.479	10849.11
551.679	10834.78
551.879	10832.73
552.079	10701.66
552.278	10453.86
552.478	10529.63
552.678	10126.18
552.878	9974.63
553.077	9855.85
553.277	9483.12
553.477	9540.46
553.676	9253.75
553.876	9235.32
554.076	9225.08
554.275	8940.41
554.475	8864.63
554.674	8686.46
554.874	8637.31
555.074	8272.77
555.273	8170.37
555.473	8004.49
555.672	8098.69
555.872	7947.14
556.071	7768.97
556.271	7840.65
556.47	7443.34
556.67	7445.39
556.869	7269.27
557.068	7330.7
557.268	7066.52
557.467	6982.55
557.667	6898.58
557.866	6751.13
558.065	6552.48
558.265	6429.6
558.464	6204.32
558.663	6415.26
558.863	6132.64
559.062	6259.62
559.261	6149.03
559.461	5895.08
559.66	5706.66
559.859	5725.1
560.058	5661.61
560.258	5532.59
560.457	5520.3
560.656	5505.96
560.855	5178.29
561.054	5239.73
561.253	5188.53
561.453	5143.47
561.652	5100.47
561.851	5069.75
562.05	4674.49
562.249	4658.1
562.448	4717.5
562.647	4600.76
562.846	4473.79
563.045	4496.32
563.244	4391.87
563.443	4334.53
563.642	4213.7
563.841	4279.23
564.04	4254.66
564.239	4142.02
564.438	4094.91
564.637	3898.31
564.836	3910.6
565.035	4035.52
565.234	3683.27
565.432	3746.76
565.631	3814.34
565.83	3701.7
566.029	3685.32
566.228	3484.62
566.427	3654.6
566.625	3412.94
566.824	3501
567.023	3365.84
567.222	3257.29
567.42	3298.25
567.619	3228.62
567.818	3177.42
568.016	3429.32
568.215	3218.38
568.414	3079.12
568.612	3126.22
568.811	2995.15
569.01	3001.3
569.208	2819.03
569.407	2786.26
569.605	2894.8
569.804	2808.79
570.002	2792.41
570.201	2687.96
570.4	2804.69
570.598	2569.18
570.797	2614.23
570.995	2491.35
571.193	2501.59
571.392	2515.93
571.59	2380.76
571.789	2393.05
571.987	2364.38
572.186	2554.84
572.384	2323.42
572.582	2247.65
572.781	2255.84
572.979	2139.1
573.177	2276.32
573.376	2233.31
573.574	2208.73
573.772	2110.43
573.971	2005.99
574.169	2026.47
574.367	1926.11
574.565	1944.55
574.763	1840.1
574.962	1938.4
575.16	1803.24
575.358	1768.42
575.556	1786.85
575.754	1729.51
575.952	1752.04
576.151	1737.7
576.349	1807.33
576.547	1598.44
576.745	1571.82
576.943	1725.41
577.141	1629.16
577.339	1305.58
577.537	1635.3
577.735	1567.72
577.933	1659.88
578.131	1391.59
578.329	1651.69
578.527	1438.7
578.725	1381.35
578.923	1313.77
579.121	1440.75
579.319	1217.52
579.516	1414.12
579.714	1510.38
579.912	1346.54
580.11	1192.94
580.308	1197.04
580.506	1254.38
580.704	1215.47
580.901	1207.28
581.099	1262.57
581.297	1115.12
581.495	1215.47
581.692	1176.56
581.89	1315.82
582.088	1203.18
582.285	1133.55
582.483	1129.45
582.681	1078.26
582.878	1096.69
583.076	1141.74
583.274	1065.97
583.471	1186.8
583.669	961.52
583.866	934.9
584.064	945.14
584.262	943.09
584.459	984.05
584.657	951.28
584.854	992.24
585.052	1068.02
585.249	973.81
585.447	924.66
585.644	807.92
585.841	1010.67
586.039	893.94
586.236	953.33
586.434	705.53
586.631	723.96
586.828	840.69
587.026	746.48
587.223	637.94
587.42	787.44
587.618	762.87
587.815	789.49
588.012	764.92
588.21	781.3
588.407	650.23
588.604	709.62
588.801	664.57
588.999	793.59
589.196	863.22
589.393	615.41
589.59	683
589.787	664.57
589.984	766.96
590.182	713.72
590.379	619.51
590.576	717.81
590.773	719.86
590.97	695.29
591.167	728.05
591.364	709.62
591.561	672.76
591.758	826.36
591.955	621.56
592.152	726
592.349	699.38
592.546	607.22
592.743	551.93
592.94	553.98
593.137	670.71
593.334	693.24
593.531	709.62
593.727	658.42
593.924	637.94
594.121	588.79
594.318	633.85
594.515	666.61
594.712	828.4
594.908	721.91
595.105	629.75
595.302	658.42
595.499	730.1
595.696	809.97
595.892	631.8
596.089	809.97
596.286	715.77
596.482	814.07
596.679	812.02
596.876	748.53
597.072	938.99
597.269	730.1
597.466	852.98
597.662	877.55
597.859	799.73
598.055	889.84
598.252	1004.53
598.448	949.23
598.645	1029.1
598.841	1068.02
599.038	1188.85
599.234	1176.56
599.431	1127.41
599.627	1262.57
599.824	1289.2
600.02	1258.48
600.217	1283.05
600.413	1311.72
600.609	1381.35
600.806	1698.79
601.002	1532.9
601.198	1559.53
601.395	1651.69
601.591	1698.79
601.787	1786.85
601.984	1823.72
602.18	1772.52
602.376	1977.31
602.572	2044.9
602.769	2212.83
602.965	2173.92
603.161	2282.46
603.357	2341.85
603.553	2456.54
603.75	2485.21
603.946	2577.37
604.142	2560.98
604.338	2802.65
604.534	2808.79
604.73	2827.22
604.926	2913.24
605.122	3152.85
605.318	3103.7
605.514	3253.2
605.71	3259.34
605.906	3474.38
606.102	3636.17
606.298	3705.8
606.494	3750.85
606.69	4035.52
606.886	4015.04
607.082	4133.82
607.278	4107.2
607.474	4402.11
607.67	4559.8
607.866	4375.49
608.062	4770.74
608.257	4815.8
608.453	4944.82
608.649	5188.53
608.845	5233.58
609.041	5254.06
609.236	5444.52
609.432	5706.66
609.628	5847.97
609.824	6020
610.019	6052.77
610.215	6439.84
610.411	6558.62
610.606	6687.64
610.802	6769.56
610.998	7029.65
611.193	7242.64
611.389	7359.38
611.584	7486.35
611.78	7809.93
611.976	8018.82
612.171	8125.32
612.367	8403.84
612.562	8452.99
612.758	8817.53
612.953	8921.98
613.149	9436.02
613.344	9444.21
613.539	9814.89
613.735	10087.27
613.93	10146.66
614.126	10613.6
614.321	10947.42
614.517	11252.56
614.712	11199.32
614.907	11572.05
615.103	11840.33
615.298	12344.13
615.493	12700.48
615.688	12862.27
615.884	13425.46
616.079	13423.41
616.274	13966.12
616.47	14181.16
616.665	14619.42
616.86	14875.42
617.055	15436.56
617.25	15655.7
617.445	16235.27
617.641	16179.98
617.836	17093.37
618.031	16952.06
618.226	17695.47
618.421	17978.09
618.616	18725.6
618.811	18989.79
619.006	19698.39
619.201	19641.04
619.396	20175.56
619.591	20341.45
619.786	21433.02
619.981	21359.29
620.176	22215.34
620.371	22532.78
620.566	22960.8
620.761	23454.36
620.956	24038.03
621.151	24050.32
621.346	24918.66
621.541	24672.9
621.735	25727.61
621.93	25987.7
622.125	26806.89
622.32	26751.59
622.515	27648.6
622.709	28031.57
622.904	28613.2
623.099	28955.21
623.294	29815.35
623.488	29776.44
623.683	30759.47
623.878	31152.68
624.072	31275.55
624.267	32012.82
624.462	32471.57
624.656	32512.53
624.851	33581.57
625.046	33942.01
625.24	34490.87
625.435	34767.34
625.629	35600.86
625.824	35817.95
626.018	36544.98
626.213	35860.96
626.407	36956.62
626.602	37173.7
626.796	37966.27
626.991	38121.91
627.185	38474.16
627.38	38402.49
627.574	39045.55
627.768	38941.1
627.963	39186.86
628.157	39291.3
628.352	39823.78
628.546	39094.7
628.74	40047
628.935	39672.23
629.129	39780.77
629.323	39160.23
629.517	39242.15
629.712	38914.48
629.906	38934.96
630.1	38001.08
630.294	38080.95
630.489	37525.96
630.683	37140.94
630.877	36471.25
631.071	36022.75
631.265	35434.98
631.459	34726.38
631.653	34195.96
631.848	33663.49
632.042	32363.03
632.236	31793.69
632.43	30839.34
632.624	30140.98
632.818	29235.78
633.012	28269.14
633.206	27712.09
633.4	26907.24
633.594	25727.61
633.788	25082.5
633.982	24158.86
634.176	23237.28
634.369	22082.22
634.563	21674.68
634.757	20556.49
634.951	20302.54
635.145	19432.15
635.339	18475.75
635.533	17740.53
635.726	17185.53
635.92	16251.66
636.114	15688.46
636.308	14912.28
636.501	14490.4
636.695	14021.42
636.889	13220.66
637.083	12483.39
637.276	12362.56
637.47	11660.11
637.664	11369.3
637.857	11021.14
638.051	10603.36
638.244	10070.89
638.438	9616.24
638.632	9294.71
638.825	8680.32
639.019	8536.96
639.212	8084.36
639.406	7969.67
639.599	7293.84
639.793	7162.77
639.986	6902.68
640.18	6747.03
640.373	6425.5
640.567	6339.49
640.76	6189.99
640.954	5782.44
641.147	5561.26
641.34	5188.53
641.534	5100.47
641.727	5125.04
641.92	4953.01
642.114	4725.69
642.307	4357.05
642.5	4369.34
642.694	4000.71
642.887	3863.49
643.08	3840.97
643.273	3742.66
643.467	3476.43
643.66	3257.29
643.853	3300.3
644.046	3111.89
644.239	3042.26
644.432	2802.65
644.626	2708.44
644.819	2685.91
645.012	2659.29
645.205	2366.43
645.398	2515.93
645.591	2227.17
645.784	2210.78
645.977	2024.42
646.17	2081.76
646.363	2059.23
646.556	1821.67
646.749	1762.28
646.942	1770.47
647.135	1713.13
647.328	1577.96
647.521	1700.84
647.714	1453.03
647.907	1532.9
648.099	1328.11
648.292	1412.07
648.485	1309.68
648.678	1258.48
648.871	1188.85
649.064	1086.45
649.256	1135.6
649.449	1135.6
649.642	1006.58
649.835	1119.21
650.027	945.14
650.22	1027.06
650.413	912.37
650.605	920.56
650.798	818.16
650.991	807.92
651.183	930.8
651.376	824.31
651.568	820.21
651.761	633.85
651.954	664.57
652.146	637.94
652.339	652.28
652.531	693.24
652.724	570.36
652.916	527.35
653.109	443.39
653.301	683
653.494	656.37
653.686	570.36
653.879	660.47
654.071	500.73
654.263	467.96
654.456	488.44
654.648	500.73
654.84	498.68
655.033	435.19
655.225	568.31
655.417	293.88
655.61	523.26
655.802	537.59
655.994	490.49
656.186	275.45
656.379	441.34
656.571	377.85
656.763	287.74
656.955	308.22
657.148	287.74
657.34	429.05
657.532	416.76
657.724	279.55
657.916	347.13
658.108	322.56
658.3	308.22
658.492	340.99
658.684	252.92
658.876	377.85
659.068	232.44
659.26	273.4
659.452	156.67
659.644	261.12
659.836	357.37
660.028	259.07
660.22	201.72
660.412	269.31
660.604	291.84
660.796	238.59
660.988	318.46
661.18	267.26
661.372	281.6
661.563	187.39
661.755	238.59
661.947	177.15
662.139	154.62
662.331	189.44
662.522	306.17
662.714	117.76
662.906	154.62
663.097	232.44
663.289	263.16
663.481	138.24
663.673	181.25
663.864	269.31
664.056	183.29
664.247	142.33
664.439	332.79
664.631	140.29
664.822	314.36
665.014	195.58
665.205	111.61
665.397	82.94
665.588	214.01
665.78	146.43
665.971	314.36
666.163	158.72
666.354	162.81
666.546	166.91
666.737	162.81
666.929	168.96
667.12	181.25
667.311	177.15
667.503	166.91
667.694	218.11
667.885	236.54
668.077	273.4
668.268	60.42
668.459	136.19
668.651	142.33
668.842	173.05
669.033	82.94
669.224	164.86
669.416	373.75
669.607	123.9
669.798	160.77
669.989	271.36
670.18	193.53
670.371	216.06
670.563	115.71
670.754	259.07
670.945	168.96
671.136	250.88
671.327	91.13
671.518	257.02
671.709	334.84
671.9	166.91
672.091	195.58
672.282	267.26
672.473	177.15
672.664	140.29
672.855	232.44
673.046	240.64
673.237	244.73
673.428	191.49
673.619	250.88
673.809	144.38
674	259.07
674.191	308.22
674.382	164.86
674.573	187.39
674.764	203.77
674.954	171.01
675.145	123.9
675.336	175.1
675.527	66.56
675.717	242.68
675.908	226.3
676.099	171.01
676.289	250.88
676.48	113.66
676.671	185.34
676.861	158.72
677.052	281.6
677.243	234.49
677.433	257.02
677.624	283.64
677.814	267.26
678.005	197.63
678.195	361.47
678.386	121.85
678.576	218.11
678.767	121.85
678.957	259.07
679.148	277.5
679.338	457.72
679.529	308.22
679.719	263.16
679.909	334.84
680.1	236.54
680.29	281.6
680.481	72.7
680.671	326.65
680.861	347.13
681.052	222.2
681.242	257.02
681.432	283.64
681.622	291.84
681.813	234.49
682.003	265.21
682.193	166.91
682.383	306.17
682.573	248.83
682.764	283.64
682.954	261.12
683.144	381.95
683.334	287.74
683.524	322.56
683.714	338.94
683.904	353.27
684.094	238.59
684.284	220.16
684.474	392.19
684.664	316.41
684.854	326.65
685.044	269.31
685.234	254.97
685.424	353.27
685.614	265.21
685.804	470.01
685.994	328.7
686.184	314.36
686.374	269.31
686.564	365.56
686.753	357.37
686.943	252.92
687.133	289.79
687.323	289.79
687.513	326.65
687.702	271.36
687.892	214.01
688.082	390.14
688.272	340.99
688.461	281.6
688.651	424.95
688.841	291.84
689.03	302.08
689.22	373.75
689.41	404.47
689.599	320.51
689.789	252.92
689.979	398.33
690.168	230.4
690.358	330.75
690.547	285.69
690.737	320.51
690.926	418.81
691.116	205.82
691.305	328.7
691.495	390.14
691.684	189.44
691.874	326.65
692.063	269.31
692.252	332.79
692.442	291.84
692.631	271.36
692.82	209.92
693.01	338.94
693.199	189.44
693.388	228.35
693.578	254.97
693.767	279.55
693.956	306.17
694.146	234.49
694.335	220.16
694.524	199.68
694.713	216.06
694.902	261.12
695.092	263.16
695.281	302.08
695.47	222.2
695.659	160.77
695.848	218.11
696.037	236.54
696.226	297.98
696.415	199.68
696.604	336.89
696.793	338.94
696.982	302.08
697.171	363.51
697.36	236.54
697.549	279.55
697.738	162.81
697.927	203.77
698.116	123.9
698.305	340.99
698.494	259.07
698.683	205.82
698.872	390.14
699.061	181.25
699.25	205.82
699.438	273.4
699.627	222.2
699.816	228.35
700.005	211.96
700.193	123.9
700.382	220.16
700.571	259.07
700.76	295.93
700.948	330.75
701.137	336.89
701.326	263.16
701.514	209.92
701.703	273.4
701.892	193.53
702.08	445.43
702.269	279.55
702.457	111.61
702.646	271.36
702.834	250.88
703.023	263.16
703.212	308.22
703.4	199.68
703.589	195.58
703.777	144.38
703.965	240.64
704.154	193.53
704.342	171.01
704.531	121.85
704.719	228.35
704.907	211.96
705.096	136.19
705.284	218.11
705.472	275.45
705.661	220.16
705.849	308.22
706.037	277.5
706.226	230.4
706.414	281.6
706.602	183.29
706.79	267.26
706.979	144.38
707.167	168.96
707.355	130.05
707.543	259.07
707.731	211.96
707.919	224.25
708.107	187.39
708.296	132.09
708.484	152.57
708.672	177.15
708.86	277.5
709.048	236.54
709.236	158.72
709.424	336.89
709.612	326.65
709.8	136.19
709.988	183.29
710.176	330.75
710.364	345.08
710.551	269.31
710.739	175.1
710.927	277.5
711.115	220.16
711.303	289.79
711.491	275.45
711.679	195.58
711.866	334.84
712.054	152.57
712.242	218.11
712.43	308.22
712.617	232.44
712.805	300.03
712.993	261.12
713.181	50.18
713.368	318.46
713.556	211.96
713.744	156.67
713.931	396.28
714.119	236.54
714.306	232.44
714.494	238.59
714.682	261.12
714.869	173.05
715.057	250.88
715.244	101.37
715.432	269.31
715.619	248.83
715.807	244.73
715.994	209.92
716.182	246.78
716.369	300.03
716.556	279.55
716.744	105.47
716.931	171.01
717.119	320.51
717.306	252.92
717.493	199.68
717.681	275.45
717.868	218.11
718.055	236.54
718.242	185.34
718.43	347.13
718.617	283.64
718.804	224.25
718.991	343.03
719.179	287.74
719.366	357.37
719.553	291.84
719.74	238.59
719.927	214.01
720.114	334.84
720.301	197.63
720.488	236.54
720.676	168.96
720.863	291.84
721.05	461.82
721.237	300.03
721.424	254.97
721.611	310.27
721.798	148.48
721.985	222.2
722.172	302.08
722.358	273.4
722.545	351.23
722.732	336.89
722.919	400.38
723.106	336.89
723.293	216.06
723.48	287.74
723.667	187.39
723.853	416.76
724.04	293.88
724.227	285.69
724.414	222.2
724.6	316.41
724.787	402.43
724.974	416.76
725.161	275.45
725.347	175.1
725.534	277.5
725.72	302.08
725.907	338.94
726.094	361.47
726.28	304.12
726.467	283.64
726.653	263.16
726.84	410.62
727.027	453.63
727.213	338.94
727.4	461.82
727.586	381.95
727.773	293.88
727.959	324.6
728.145	281.6
728.332	312.32
728.518	347.13
728.705	345.08
728.891	263.16
729.077	377.85
729.264	275.45
729.45	351.23
729.636	357.37
729.823	353.27
730.009	418.81
730.195	310.27
730.382	390.14
730.568	300.03
730.754	334.84
730.94	345.08
731.126	381.95
731.313	347.13
731.499	371.71
731.685	312.32
731.871	420.86
732.057	408.57
732.243	392.19
732.429	388.09
732.615	480.25
732.801	375.8
732.987	390.14
733.173	363.51
733.359	283.64
733.545	383.99
733.731	400.38
733.917	470.01
734.103	365.56
734.289	398.33
734.475	322.56
734.661	594.93
734.847	287.74
735.033	332.79
735.219	416.76
735.404	340.99
735.59	336.89
735.776	375.8
735.962	383.99
736.148	494.58
736.333	412.67
736.519	355.32
736.705	355.32
736.89	392.19
737.076	476.15
737.262	250.88
737.447	361.47
737.633	353.27
737.819	490.49
738.004	390.14
738.19	357.37
738.375	414.71
738.561	465.91
738.747	381.95
738.932	343.03
739.118	601.08
739.303	379.9
739.489	447.48
739.674	402.43
739.859	351.23
740.045	490.49
740.23	418.81
740.416	300.03
740.601	351.23
740.786	375.8
740.972	330.75
741.157	424.95
741.342	406.52
741.528	289.79
741.713	441.34
741.898	375.8
742.084	459.77
742.269	435.19
742.454	361.47
742.639	467.96
742.824	480.25
743.01	492.54
743.195	494.58
743.38	326.65
743.565	531.45
743.75	347.13
743.935	447.48
744.12	398.33
744.305	285.69
744.49	400.38
744.675	451.58
744.86	388.09
745.045	449.53
745.23	365.56
745.415	381.95
745.6	504.82
745.785	402.43
745.97	486.39
746.155	441.34
746.34	474.1
746.525	379.9
746.71	510.97
746.895	318.46
747.079	394.23
747.264	332.79
747.449	451.58
747.634	478.2
747.819	373.75
748.003	445.43
748.188	222.2
748.373	418.81
748.557	306.17
748.742	463.86
748.927	422.91
749.111	338.94
749.296	302.08
749.481	410.62
749.665	445.43
749.85	343.03
750.034	375.8
750.219	379.9
750.404	330.75
750.588	351.23
750.773	265.21
750.957	320.51
751.141	336.89
751.326	439.29
751.51	316.41
751.695	336.89
751.879	340.99
752.064	379.9
752.248	314.36
752.432	324.6
752.617	330.75
752.801	427
752.985	306.17
753.17	422.91
753.354	324.6
753.538	400.38
753.722	254.97
753.907	318.46
754.091	281.6
754.275	275.45
754.459	207.87
754.643	269.31
754.828	334.84
755.012	324.6
755.196	218.11
755.38	314.36
755.564	252.92
755.748	340.99
755.932	267.26
756.116	390.14
756.3	273.4
756.484	261.12
756.668	369.66
756.852	152.57
757.036	267.26
757.22	269.31
757.404	242.68
757.588	191.49
757.772	203.77
757.956	226.3
758.14	431.1
758.323	250.88
758.507	302.08
758.691	320.51
758.875	287.74
759.059	295.93
759.242	166.91
759.426	340.99
759.61	304.12
759.794	211.96
759.977	330.75
760.161	400.38
760.345	365.56
760.528	295.93
760.712	246.78
760.895	275.45
761.079	287.74
761.263	185.34
761.446	144.38
761.63	222.2
761.813	408.57
761.997	154.62
762.18	177.15
762.364	205.82
762.547	130.05
762.731	156.67
762.914	252.92
763.098	164.86
763.281	222.2
763.464	216.06
763.648	242.68
763.831	236.54
764.015	171.01
764.198	283.64
764.381	164.86
764.564	275.45
764.748	205.82
764.931	209.92
765.114	158.72
765.297	263.16
765.481	130.05
765.664	230.4
765.847	183.29
766.03	263.16
766.213	76.8
766.397	158.72
766.58	142.33
766.763	277.5
766.946	130.05
767.129	148.48
767.312	130.05
767.495	185.34
767.678	134.14
767.861	218.11
768.044	181.25
768.227	195.58
768.41	183.29
768.593	193.53
768.776	125.95
768.959	60.42
769.142	226.3
769.324	119.81
769.507	128
769.69	189.44
769.873	128
770.056	308.22
770.239	130.05
770.421	297.98
770.604	234.49
770.787	214.01
770.97	171.01
771.152	103.42
771.335	191.49
771.518	154.62
771.7	287.74
771.883	238.59
772.066	93.18
772.248	259.07
772.431	203.77
772.613	252.92
772.796	144.38
772.978	232.44
773.161	226.3
773.343	175.1
773.526	56.32
773.708	17.41
773.891	27.65
774.073	54.27
774.256	93.18
774.438	224.25
774.621	119.81
774.803	211.96
774.985	111.61
775.168	158.72
775.35	89.09
775.532	191.49
775.715	107.52
775.897	142.33
776.079	99.33
776.261	109.57
776.444	70.65
776.626	121.85
776.808	62.46
776.99	21.5
777.173	160.77
777.355	144.38
777.537	107.52
777.719	156.67
777.901	80.89
778.083	158.72
778.265	84.99
778.447	166.91
778.629	95.23
778.811	89.09
778.993	185.34
779.175	171.01
779.357	91.13
779.539	58.37
779.721	107.52
779.903	218.11
780.085	103.42
780.267	111.61
780.449	82.94
780.631	142.33
780.812	193.53
780.994	84.99
781.176	134.14
781.358	44.03
781.54	64.51
781.721	72.7
781.903	248.83
782.085	113.66
782.267	273.4
782.448	101.37
782.63	68.61
782.812	152.57
782.993	95.23
783.175	144.38
783.357	121.85
783.538	144.38
783.72	70.65
783.901	68.61
784.083	132.09
784.264	154.62
784.446	25.6
784.627	60.42
784.809	121.85
784.99	95.23
785.172	60.42
785.353	76.8
785.535	107.52
785.716	-21.5
785.897	68.61
786.079	31.74
786.26	121.85
786.441	115.71
786.623	-25.6
786.804	11.26
786.985	117.76
787.167	162.81
787.348	113.66
787.529	37.89
787.71	185.34
787.891	111.61
788.073	80.89
788.254	-11.26
788.435	199.68
788.616	95.23
788.797	78.85
788.978	123.9
789.159	64.51
789.34	72.7
789.522	111.61
789.703	33.79
789.884	158.72
790.065	128
790.246	173.05
790.427	183.29
790.607	220.16
790.788	152.57
790.969	-19.46
791.15	41.98
791.331	91.13
791.512	82.94
791.693	17.41
791.874	41.98
792.054	199.68
792.235	103.42
792.416	37.89
792.597	41.98
792.778	66.56
792.958	52.22
793.139	52.22
793.32	146.43
793.5	-27.65
793.681	125.95
793.862	60.42
794.042	72.7
794.223	-7.17
794.404	56.32
794.584	-27.65
794.765	78.85
794.945	97.28
795.126	35.84
795.306	152.57
795.487	50.18
795.667	72.7
795.848	60.42
796.028	128
796.209	44.03
796.389	140.29
796.57	54.27
796.75	-29.7
796.93	68.61
797.111	5.12
797.291	33.79
797.471	177.15
797.652	7.17
797.832	-46.08
798.012	154.62
798.192	-44.03
798.373	7.17
798.553	13.31
798.733	158.72
798.913	-56.32
799.093	-3.07
799.274	21.5
799.454	121.85
799.634	66.56
799.814	35.84
799.994	95.23
800.174	66.56
800.354	17.41
800.534	-56.32
800.714	162.81
800.894	19.46
801.074	-35.84
801.254	44.03
801.434	175.1
801.614	-5.12
801.794	23.55
801.974	1979.36
802.154	64.51
802.334	123.9
802.514	25.6
802.693	29.7
802.873	5.12
803.053	97.28
803.233	89.09
803.413	78.85
803.592	27.65
803.772	15.36
803.952	37.89
804.131	-41.98
804.311	113.66
804.491	84.99
804.67	-11.26
804.85	3.07
805.03	52.22
805.209	158.72
805.389	33.79
805.568	9.22
805.748	35.84
805.928	-31.74
806.107	91.13
806.287	66.56
806.466	125.95
806.646	62.46
806.825	-5.12
807.004	27.65
807.184	87.04
807.363	68.61
807.543	99.33
807.722	-9.22
807.901	144.38
808.081	78.85
808.26	-97.28
808.439	87.04
808.619	125.95
808.798	19.46
808.977	-1.02
809.156	93.18
809.336	82.94
809.515	154.62
809.694	39.94
809.873	-15.36
810.052	89.09
810.231	119.81
810.411	-44.03
810.59	105.47
810.769	-25.6
810.948	80.89
811.127	-164.86
811.306	27.65
811.485	27.65
811.664	66.56
811.843	128
812.022	58.37
812.201	-15.36
812.38	70.65
812.559	48.13
812.737	99.33
812.916	-125.95
813.095	-1.02
813.274	23.55
813.453	70.65
813.632	60.42
813.811	91.13
813.989	-46.08
814.168	35.84
814.347	-27.65
814.526	62.46
814.704	78.85
814.883	128
815.062	-62.46
815.24	168.96
815.419	-1.02
815.598	111.61
815.776	-56.32
815.955	3.07
816.133	-99.33
816.312	39.94
816.49	37.89
816.669	58.37
816.847	27.65
817.026	113.66
817.204	-41.98
817.383	-33.79
817.561	-107.52
817.74	64.51
817.918	89.09
818.097	7.17
818.275	39.94
818.453	115.71
818.632	144.38
818.81	91.13
818.988	41.98
819.167	66.56
819.345	60.42
819.523	-3.07
819.701	33.79
819.879	103.42
820.058	39.94
820.236	68.61
820.414	64.51
820.592	21.5
820.77	119.81
820.948	-117.76
821.127	27.65
821.305	41.98
821.483	35.84
821.661	150.53
821.839	33.79
822.017	27.65
822.195	52.22
822.373	148.48
822.551	29.7
822.729	87.04
822.907	27.65
823.085	82.94
823.262	19.46
823.44	5.12
823.618	9.22
823.796	13.31
823.974	31.74
824.152	9.22
824.329	64.51
824.507	1.02
824.685	87.04
824.863	76.8
825.04	62.46
825.218	97.28
825.396	44.03
825.574	52.22
825.751	-60.42
825.929	136.19
826.107	-60.42
826.284	19.46
826.462	93.18
826.639	-15.36
826.817	-7.17
826.994	87.04
827.172	-1.02
827.349	91.13
827.527	99.33
827.704	111.61
827.882	3.07
828.059	-1.02
828.237	11.26
828.414	76.8
828.591	-117.76
828.769	35.84
828.946	-1.02
829.124	91.13
829.301	29.7
829.478	-35.84
829.655	52.22
829.833	58.37
830.01	-11.26
830.187	64.51
830.364	56.32
830.542	9.22
830.719	156.67
830.896	84.99
831.073	101.37
831.25	109.57
831.427	27.65
831.604	27.65
831.782	9.22
831.959	68.61
832.136	-41.98
832.313	21.5
832.49	3.07
832.667	56.32
832.844	-5.12
833.021	136.19
833.198	13.31
833.374	19.46
833.551	82.94
833.728	-13.31
833.905	46.08
834.082	-89.09
834.259	72.7
834.436	119.81
834.612	-76.8
834.789	101.37
834.966	35.84
835.143	50.18
835.319	27.65
835.496	29.7
835.673	76.8
835.85	48.13
836.026	46.08
836.203	125.95
836.38	54.27
836.556	27.65
836.733	-19.46
836.909	152.57
837.086	3.07
837.262	7.17
837.439	44.03
837.616	-125.95
837.792	62.46
837.968	1.02
838.145	-66.56
838.321	31.74
838.498	58.37
838.674	66.56
838.851	33.79
839.027	21.5
839.203	64.51
839.38	19.46
839.556	-58.37
839.732	37.89
839.909	62.46
840.085	9.22
840.261	23.55
840.437	121.85
840.614	-7.17
840.79	95.23
840.966	97.28
841.142	-9.22
841.318	21.5
841.494	3.07
841.671	150.53
841.847	5.12
842.023	21.5
842.199	74.75
842.375	72.7
842.551	-48.13
842.727	-48.13
842.903	205.82
843.079	-35.84
843.255	146.43
843.431	-19.46
843.607	60.42
843.783	-95.23
843.959	27.65
844.134	-19.46
844.31	144.38
844.486	-29.7
844.662	-41.98
844.838	15.36
845.013	97.28
845.189	68.61
845.365	50.18
845.541	52.22
845.716	80.89
845.892	166.91
846.068	-46.08
846.244	-5.12
846.419	58.37
846.595	-41.98
846.77	19.46
846.946	93.18
847.122	3.07
847.297	5.12
847.473	130.05
847.648	-95.23
847.824	21.5
847.999	-74.75
848.175	21.5
848.35	72.7
848.526	113.66
848.701	31.74
848.876	68.61
849.052	37.89
849.227	-64.51
849.403	-21.5
849.578	-21.5
849.753	82.94
849.929	13.31
850.104	-31.74
850.279	17.41
850.454	-7.17
850.63	72.7
850.805	72.7
850.98	70.65
851.155	48.13
851.33	54.27
851.505	21.5
851.681	175.1
851.856	-70.65
852.031	-21.5
852.206	31.74
852.381	-48.13
852.556	-23.55
852.731	87.04
852.906	179.2
853.081	103.42
853.256	115.71
853.431	33.79
853.606	23.55
853.781	-25.6
853.956	-117.76
854.131	74.75
854.305	-66.56
854.48	-11.26
854.655	5.12
854.83	11.26
855.005	-35.84
855.18	-13.31
855.354	31.74
855.529	62.46
855.704	-7.17
855.879	74.75
856.053	-29.7
856.228	117.76
856.403	-52.22
856.577	78.85
856.752	-27.65
856.926	15.36
857.101	74.75
857.276	-76.8
857.45	11.26
857.625	44.03
857.799	-41.98
857.974	9.22
858.148	-103.42
858.323	11.26
858.497	-70.65
858.672	-9.22
858.846	-46.08
859.02	82.94
859.195	-29.7
859.369	15.36
859.543	-7.17
859.718	46.08
859.892	27.65
860.066	-3.07
860.241	-7.17
860.415	13.31
860.589	-9.22
860.763	37.89
860.938	-58.37
861.112	52.22
861.286	35.84
861.46	-15.36
861.634	-21.5
861.808	107.52
861.982	-68.61
862.157	-1.02
862.331	17.41
862.505	-23.55
862.679	-37.89
862.853	19.46
863.027	19.46
863.201	142.33
863.375	-1.02
863.549	-1.02
863.722	46.08
863.896	144.38
864.07	-50.18
864.244	64.51
864.418	33.79
864.592	37.89
864.766	-35.84
864.939	9.22
865.113	-21.5
865.287	93.18
865.461	-23.55
865.634	5.12
865.808	-3.07
865.982	13.31
866.156	-23.55
866.329	-80.89
866.503	-35.84
866.676	54.27
866.85	68.61
867.024	-52.22
867.197	60.42
867.371	56.32
867.544	93.18
867.718	-48.13
867.891	62.46
868.065	-58.37
868.238	50.18
868.412	70.65
868.585	33.79
868.759	-35.84
868.932	35.84
869.105	-76.8
869.279	33.79
869.452	11.26
869.625	56.32
869.799	21.5
869.972	9.22
870.145	13.31
870.319	41.98
870.492	41.98
870.665	33.79
870.838	-39.94
871.011	-56.32
871.185	-7.17
871.358	-64.51
871.531	132.09
871.704	-5.12
871.877	1.02
872.05	33.79
872.223	-74.75
872.396	101.37
872.569	52.22
872.742	-27.65
872.915	97.28
873.088	1.02
873.261	-19.46
873.434	121.85
873.607	-29.7
873.78	144.38
873.953	-41.98
874.126	44.03
874.299	97.28
874.471	-31.74
874.644	21.5
874.817	3.07
874.99	195.58
875.163	-46.08
875.335	89.09
875.508	-17.41
875.681	72.7
875.853	46.08
876.026	17.41
876.199	95.23
876.371	54.27
876.544	-27.65
876.717	1.02
876.889	-17.41
877.062	93.18
877.234	-29.7
877.407	-58.37
877.579	58.37
877.752	-1.02
877.924	35.84
878.097	134.14
878.269	-11.26
878.442	27.65
878.614	25.6
878.786	-37.89
878.959	99.33
879.131	41.98
879.303	-125.95
879.476	-9.22
879.648	103.42
879.82	-62.46
879.993	-27.65
880.165	-60.42
880.337	1.02
880.509	7.17
880.681	-78.85
880.854	-93.18
881.026	1.02
881.198	162.81
881.37	-33.79
881.542	-27.65
881.714	44.03
881.886	-5.12
882.058	105.47
882.23	60.42
882.402	-9.22
882.574	70.65
882.746	78.85
882.918	148.48
883.09	44.03
883.262	-68.61
883.434	-7.17
883.606	-17.41
883.778	7.17
883.95	68.61
884.122	-27.65
884.293	173.05
884.465	-11.26
884.637	15.36
884.809	-80.89
884.98	23.55
885.152	78.85
885.324	103.42
885.496	39.94
885.667	-80.89
885.839	11.26
886.011	136.19
886.182	25.6
886.354	109.57
886.525	44.03
886.697	-9.22
886.869	-19.46
887.04	7.17
887.212	146.43
887.383	84.99
887.555	-17.41
887.726	-3.07
887.897	-62.46
888.069	84.99
888.24	166.91
888.412	5.12
888.583	62.46
888.754	50.18
888.926	-35.84
889.097	35.84
889.268	-84.99
889.44	48.13
889.611	-80.89
889.782	-23.55
889.953	1.02
890.125	132.09
890.296	29.7
890.467	-27.65
890.638	1.02
890.809	-13.31
890.98	-66.56
891.151	39.94
891.323	132.09
891.494	105.47
891.665	44.03
891.836	19.46
892.007	60.42
892.178	97.28
892.349	27.65
892.52	-23.55
892.691	35.84
892.862	-25.6
893.032	-33.79
893.203	7.17
893.374	-17.41
893.545	72.7
893.716	-74.75
893.887	93.18
894.057	-15.36
894.228	87.04
894.399	35.84
894.57	68.61
894.74	76.8
894.911	91.13
895.082	-7.17
895.253	-1.02
895.423	-3.07
895.594	54.27
895.764	25.6
895.935	-154.62
896.106	39.94
896.276	-64.51
896.447	33.79
896.617	15.36
896.788	-50.18
896.958	-103.42
897.129	-19.46
897.299	-60.42
897.47	97.28
897.64	64.51
897.81	29.7
897.981	39.94
898.151	-35.84
898.322	56.32
898.492	3.07
898.662	-52.22
898.832	-39.94
899.003	13.31
899.173	9.22
899.343	-132.09
899.513	3.07
