Data from USB4F104151__84__11-31-31-161.txt Node

Date: Wed Feb 26 11:31:31 EST 2025
User: louis
Spectrometer: USB4F10415
Trigger mode: 4
Integration Time (sec): 1.000000E-1
Scans to average: 1
Electric dark correction enabled: true
Nonlinearity correction enabled: false
Boxcar width: 0
XAxis mode: Wavelengths
Number of Pixels in Spectrum: 3648
>>>>>Begin Spectral Data<<<<<
178.204	-418.98
178.424	-418.98
178.644	-418.98
178.864	-398.5
179.084	-369.83
179.304	9.05
179.524	19.29
179.744	11.09
179.964	52.05
180.184	-13.48
180.404	52.05
180.624	19.29
180.844	-1.19
181.064	-76.97
181.283	27.48
181.503	-126.12
181.723	27.48
181.943	-103.59
182.163	181.07
182.383	4.95
182.602	17.24
182.822	148.31
183.042	15.19
183.262	23.38
183.482	33.62
183.701	-50.35
183.921	90.96
184.141	-11.43
184.361	97.11
184.58	29.52
184.8	-29.87
185.02	21.33
185.239	64.34
185.459	60.24
185.679	23.38
185.898	-97.45
186.118	78.68
186.338	43.86
186.557	133.97
186.777	11.09
186.997	-52.39
187.216	19.29
187.436	224.08
187.655	64.34
187.875	76.63
188.095	-21.67
188.314	191.31
188.534	107.35
188.753	-83.11
188.973	86.87
189.192	115.54
189.412	41.81
189.631	-48.3
189.851	62.29
190.07	123.73
190.29	-83.11
190.509	-42.15
190.729	27.48
190.948	219.99
191.168	224.08
191.387	50
191.607	37.72
191.826	68.44
192.045	2.9
192.265	-1.19
192.484	74.58
192.704	39.76
192.923	-81.07
193.142	144.21
193.362	103.25
193.581	154.45
193.8	76.63
194.02	80.72
194.239	9.05
194.458	47.96
194.678	-27.82
194.897	7
195.116	-21.67
195.335	146.26
195.555	72.53
195.774	13.14
195.993	52.05
196.212	13.14
196.432	-19.63
196.651	-3.24
196.87	9.05
197.089	236.37
197.308	29.52
197.528	113.49
197.747	-40.11
197.966	39.76
198.185	140.12
198.404	15.19
198.623	136.02
198.842	90.96
199.062	101.2
199.281	144.21
199.5	-3.24
199.719	74.58
199.938	37.72
200.157	27.48
200.376	74.58
200.595	101.2
200.814	74.58
201.033	54.1
201.252	101.2
201.471	88.92
201.69	47.96
201.909	-13.48
202.128	72.53
202.347	39.76
202.566	25.43
202.785	-115.88
203.004	-54.44
203.223	244.56
203.442	-5.29
203.661	-85.16
203.879	50
204.098	144.21
204.317	-13.48
204.536	209.75
204.755	84.82
204.974	93.01
205.193	58.2
205.411	138.07
205.63	27.48
205.849	13.14
206.068	-9.39
206.287	-17.58
206.505	142.16
206.724	27.48
206.943	-50.35
207.162	-95.4
207.381	138.07
207.599	-70.83
207.818	-1.19
208.037	-17.58
208.255	-17.58
208.474	56.15
208.693	-11.43
208.911	-19.63
209.13	33.62
209.349	115.54
209.567	97.11
209.786	121.68
210.005	109.4
210.223	9.05
210.442	-91.31
210.661	58.2
210.879	33.62
211.098	-29.87
211.316	25.43
211.535	13.14
211.753	76.63
211.972	68.44
212.191	13.14
212.409	-23.72
212.628	11.09
212.846	-31.91
213.065	-1.19
213.283	113.49
213.502	37.72
213.72	66.39
213.938	17.24
214.157	13.14
214.375	133.97
214.594	25.43
214.812	90.96
215.031	72.53
215.249	56.15
215.467	47.96
215.686	70.48
215.904	136.02
216.122	62.29
216.341	230.23
216.559	99.16
216.778	56.15
216.996	101.2
217.214	68.44
217.432	0.85
217.651	-25.77
217.869	11.09
218.087	54.1
218.306	13.14
218.524	41.81
218.742	17.24
218.96	129.88
219.179	-19.63
219.397	56.15
219.615	172.88
219.833	43.86
220.051	-93.35
220.27	74.58
220.488	107.35
220.706	170.83
220.924	17.24
221.142	-3.24
221.36	43.86
221.578	115.54
221.796	58.2
222.015	9.05
222.233	39.76
222.451	158.55
222.669	39.76
222.887	64.34
223.105	35.67
223.323	23.38
223.541	-7.34
223.759	19.29
223.977	29.52
224.195	127.83
224.413	56.15
224.631	-9.39
224.849	62.29
225.067	197.46
225.285	9.05
225.503	17.24
225.721	-64.68
225.939	62.29
226.157	31.57
226.375	211.79
226.592	-3.24
226.81	60.24
227.028	195.41
227.246	121.68
227.464	45.91
227.682	56.15
227.9	115.54
228.117	117.59
228.335	111.44
228.553	21.33
228.771	11.09
228.989	29.52
229.206	70.48
229.424	-1.19
229.642	-5.29
229.86	4.95
230.077	191.31
230.295	-15.53
230.513	105.3
230.731	121.68
230.948	131.92
231.166	119.64
231.384	-13.48
231.601	-38.06
231.819	111.44
232.037	25.43
232.254	-31.91
232.472	50
232.689	21.33
232.907	99.16
233.125	29.52
233.342	-27.82
233.56	-9.39
233.777	21.33
233.995	72.53
234.213	131.92
234.43	115.54
234.648	23.38
234.865	39.76
235.083	107.35
235.3	33.62
235.518	56.15
235.735	121.68
235.953	-13.48
236.17	47.96
236.388	93.01
236.605	68.44
236.822	111.44
237.04	125.78
237.257	-31.91
237.475	-33.96
237.692	78.68
237.909	107.35
238.127	54.1
238.344	64.34
238.562	9.05
238.779	-27.82
238.996	17.24
239.214	25.43
239.431	39.76
239.648	11.09
239.865	82.77
240.083	15.19
240.3	-17.58
240.517	17.24
240.735	-7.34
240.952	105.3
241.169	140.12
241.386	72.53
241.603	31.57
241.821	-36.01
242.038	70.48
242.255	66.39
242.472	-52.39
242.689	52.05
242.907	41.81
243.124	131.92
243.341	82.77
243.558	54.1
243.775	-89.26
243.992	-40.11
244.209	58.2
244.426	140.12
244.643	76.63
244.86	15.19
245.078	50
245.295	127.83
245.512	9.05
245.729	-44.2
245.946	33.62
246.163	13.14
246.38	23.38
246.597	43.86
246.814	78.68
247.031	66.39
247.248	101.2
247.464	80.72
247.681	45.91
247.898	62.29
248.115	7
248.332	-52.39
248.549	174.93
248.766	215.89
248.983	13.14
249.2	21.33
249.417	90.96
249.633	45.91
249.85	107.35
250.067	99.16
250.284	54.1
250.501	58.2
250.717	88.92
250.934	-83.11
251.151	-33.96
251.368	43.86
251.585	47.96
251.801	142.16
252.018	-54.44
252.235	181.07
252.451	-99.5
252.668	-27.82
252.885	119.64
253.102	11.09
253.318	43.86
253.535	-17.58
253.752	-46.25
253.968	39.76
254.185	-19.63
254.401	-1.19
254.618	76.63
254.835	-52.39
255.051	133.97
255.268	152.4
255.484	9.05
255.701	60.24
255.917	78.68
256.134	-54.44
256.351	7
256.567	-1.19
256.784	-9.39
257	-70.83
257.217	88.92
257.433	86.87
257.65	84.82
257.866	154.45
258.082	33.62
258.299	-9.39
258.515	95.06
258.732	-36.01
258.948	-17.58
259.165	86.87
259.381	-33.96
259.597	37.72
259.814	-11.43
260.03	95.06
260.246	39.76
260.463	185.17
260.679	82.77
260.895	105.3
261.112	23.38
261.328	60.24
261.544	-27.82
261.761	113.49
261.977	29.52
262.193	-42.15
262.409	54.1
262.626	-5.29
262.842	54.1
263.058	-3.24
263.274	41.81
263.49	60.24
263.707	72.53
263.923	148.31
264.139	15.19
264.355	25.43
264.571	129.88
264.787	-7.34
265.004	127.83
265.22	64.34
265.436	-87.21
265.652	-31.91
265.868	54.1
266.084	45.91
266.3	11.09
266.516	-36.01
266.732	45.91
266.948	31.57
267.164	-5.29
267.38	123.73
267.596	45.91
267.812	133.97
268.028	23.38
268.244	-17.58
268.46	90.96
268.676	-50.35
268.892	97.11
269.108	97.11
269.324	-162.98
269.54	-7.34
269.756	70.48
269.972	-89.26
270.188	33.62
270.403	-50.35
270.619	52.05
270.835	60.24
271.051	29.52
271.267	50
271.483	-19.63
271.698	109.4
271.914	-23.72
272.13	11.09
272.346	0.85
272.562	39.76
272.777	174.93
272.993	64.34
273.209	-81.07
273.425	70.48
273.64	-64.68
273.856	84.82
274.072	-60.59
274.287	21.33
274.503	52.05
274.719	78.68
274.934	-40.11
275.15	-138.41
275.366	78.68
275.581	-46.25
275.797	45.91
276.012	25.43
276.228	31.57
276.444	58.2
276.659	88.92
276.875	-25.77
277.09	-23.72
277.306	-44.2
277.521	43.86
277.737	50
277.952	88.92
278.168	11.09
278.383	54.1
278.599	56.15
278.814	50
279.03	84.82
279.245	181.07
279.461	60.24
279.676	121.68
279.892	-19.63
280.107	2.9
280.322	-52.39
280.538	0.85
280.753	4.95
280.969	29.52
281.184	-11.43
281.399	111.44
281.615	58.2
281.83	58.2
282.045	-33.96
282.26	-42.15
282.476	9.05
282.691	78.68
282.906	37.72
283.122	47.96
283.337	-19.63
283.552	27.48
283.767	27.48
283.983	119.64
284.198	-48.3
284.413	37.72
284.628	-19.63
284.843	47.96
285.058	90.96
285.274	-15.53
285.489	-25.77
285.704	58.2
285.919	-60.59
286.134	64.34
286.349	58.2
286.564	-13.48
286.779	133.97
286.995	70.48
287.21	-44.2
287.425	-58.54
287.64	-44.2
287.855	117.59
288.07	-13.48
288.285	39.76
288.5	123.73
288.715	60.24
288.93	64.34
289.145	13.14
289.36	95.06
289.575	17.24
289.79	140.12
290.004	-33.96
290.219	95.06
290.434	9.05
290.649	-1.19
290.864	17.24
291.079	78.68
291.294	31.57
291.509	52.05
291.724	107.35
291.938	-15.53
292.153	25.43
292.368	97.11
292.583	127.83
292.798	95.06
293.012	27.48
293.227	99.16
293.442	-3.24
293.657	76.63
293.871	111.44
294.086	50
294.301	340.82
294.516	105.3
294.73	76.63
294.945	-36.01
295.16	17.24
295.374	90.96
295.589	125.78
295.804	31.57
296.018	21.33
296.233	27.48
296.447	37.72
296.662	-1.19
296.877	99.16
297.091	60.24
297.306	19.29
297.52	39.76
297.735	66.39
297.949	52.05
298.164	78.68
298.378	0.85
298.593	-74.92
298.807	19.29
299.022	66.39
299.236	119.64
299.451	52.05
299.665	29.52
299.88	52.05
300.094	33.62
300.309	11.09
300.523	66.39
300.737	-66.73
300.952	64.34
301.166	103.25
301.381	-62.63
301.595	-19.63
301.809	31.57
302.024	76.63
302.238	-15.53
302.452	191.31
302.667	-27.82
302.881	117.59
303.095	84.82
303.309	31.57
303.524	15.19
303.738	-9.39
303.952	-29.87
304.166	-5.29
304.381	-74.92
304.595	148.31
304.809	-17.58
305.023	121.68
305.237	54.1
305.452	95.06
305.666	25.43
305.88	45.91
306.094	62.29
306.308	70.48
306.522	109.4
306.736	72.53
306.95	82.77
307.164	88.92
307.379	-29.87
307.593	156.5
307.807	56.15
308.021	101.2
308.235	70.48
308.449	-15.53
308.663	64.34
308.877	111.44
309.091	70.48
309.305	64.34
309.519	-33.96
309.733	103.25
309.947	-54.44
310.161	21.33
310.374	158.55
310.588	154.45
310.802	25.43
311.016	4.95
311.23	41.81
311.444	-72.87
311.658	33.62
311.872	125.78
312.085	115.54
312.299	195.41
312.513	158.55
312.727	60.24
312.941	-5.29
313.154	109.4
313.368	86.87
313.582	62.29
313.796	-9.39
314.009	31.57
314.223	113.49
314.437	54.1
314.651	115.54
314.864	19.29
315.078	45.91
315.292	-93.35
315.505	0.85
315.719	76.63
315.933	45.91
316.146	-46.25
316.36	-15.53
316.573	43.86
316.787	29.52
317.001	129.88
317.214	-31.91
317.428	-17.58
317.641	7
317.855	-9.39
318.068	27.48
318.282	43.86
318.495	117.59
318.709	23.38
318.922	-27.82
319.136	127.83
319.349	103.25
319.563	11.09
319.776	148.31
319.99	-89.26
320.203	140.12
320.417	39.76
320.63	107.35
320.843	125.78
321.057	66.39
321.27	29.52
321.483	58.2
321.697	211.79
321.91	107.35
322.124	9.05
322.337	84.82
322.55	0.85
322.763	144.21
322.977	25.43
323.19	-44.2
323.403	13.14
323.617	31.57
323.83	166.74
324.043	15.19
324.256	23.38
324.469	-117.93
324.683	107.35
324.896	72.53
325.109	97.11
325.322	29.52
325.535	127.83
325.748	107.35
325.962	39.76
326.175	60.24
326.388	52.05
326.601	23.38
326.814	9.05
327.027	37.72
327.24	176.98
327.453	-101.55
327.666	74.58
327.879	140.12
328.092	68.44
328.305	111.44
328.518	0.85
328.731	-11.43
328.944	35.67
329.157	-9.39
329.37	-54.44
329.583	252.75
329.796	95.06
330.009	-56.49
330.222	74.58
330.435	107.35
330.648	88.92
330.861	25.43
331.073	33.62
331.286	33.62
331.499	-27.82
331.712	-13.48
331.925	78.68
332.138	90.96
332.35	105.3
332.563	31.57
332.776	80.72
332.989	-5.29
333.202	-109.74
333.414	0.85
333.627	27.48
333.84	74.58
334.053	21.33
334.265	-7.34
334.478	-42.15
334.691	41.81
334.903	56.15
335.116	-5.29
335.329	23.38
335.541	95.06
335.754	199.51
335.966	78.68
336.179	-11.43
336.392	-33.96
336.604	64.34
336.817	117.59
337.029	0.85
337.242	72.53
337.454	97.11
337.667	99.16
337.88	191.31
338.092	144.21
338.305	43.86
338.517	-62.63
338.729	99.16
338.942	152.4
339.154	-111.78
339.367	-27.82
339.579	142.16
339.792	-7.34
340.004	103.25
340.217	84.82
340.429	19.29
340.641	-97.45
340.854	-66.73
341.066	4.95
341.278	97.11
341.491	232.27
341.703	86.87
341.915	-50.35
342.128	54.1
342.34	64.34
342.552	-62.63
342.764	31.57
342.977	37.72
343.189	90.96
343.401	37.72
343.613	31.57
343.826	13.14
344.038	-7.34
344.25	45.91
344.462	13.14
344.674	52.05
344.886	-42.15
345.099	80.72
345.311	39.76
345.523	-1.19
345.735	-87.21
345.947	23.38
346.159	45.91
346.371	15.19
346.583	58.2
346.795	160.59
347.007	-27.82
347.219	111.44
347.431	119.64
347.643	74.58
347.855	23.38
348.067	129.88
348.279	-27.82
348.491	7
348.703	52.05
348.915	-15.53
349.127	-36.01
349.339	80.72
349.551	-36.01
349.763	107.35
349.975	0.85
350.187	131.92
350.399	176.98
350.61	68.44
350.822	29.52
351.034	33.62
351.246	62.29
351.458	41.81
351.669	47.96
351.881	117.59
352.093	160.59
352.305	131.92
352.517	86.87
352.728	121.68
352.94	41.81
353.152	101.2
353.363	-1.19
353.575	39.76
353.787	164.69
353.999	-36.01
354.21	123.73
354.422	-72.87
354.633	23.38
354.845	78.68
355.057	-7.34
355.268	-3.24
355.48	156.5
355.692	-83.11
355.903	29.52
356.115	-3.24
356.326	-140.46
356.538	191.31
356.749	66.39
356.961	103.25
357.172	-33.96
357.384	-15.53
357.595	174.93
357.807	17.24
358.018	-21.67
358.23	88.92
358.441	170.83
358.653	68.44
358.864	62.29
359.075	-36.01
359.287	43.86
359.498	113.49
359.709	123.73
359.921	76.63
360.132	19.29
360.344	4.95
360.555	2.9
360.766	47.96
360.977	31.57
361.189	156.5
361.4	-11.43
361.611	41.81
361.823	136.02
362.034	25.43
362.245	-31.91
362.456	21.33
362.667	76.63
362.879	45.91
363.09	43.86
363.301	78.68
363.512	43.86
363.723	17.24
363.935	-9.39
364.146	72.53
364.357	-11.43
364.568	17.24
364.779	-17.58
364.99	117.59
365.201	43.86
365.412	105.3
365.623	27.48
365.834	80.72
366.045	-7.34
366.256	64.34
366.467	119.64
366.678	-29.87
366.889	78.68
367.1	88.92
367.311	99.16
367.522	21.33
367.733	29.52
367.944	54.1
368.155	99.16
368.366	115.54
368.577	80.72
368.788	80.72
368.999	0.85
369.209	50
369.42	238.42
369.631	193.36
369.842	19.29
370.053	-9.39
370.264	99.16
370.474	13.14
370.685	17.24
370.896	80.72
371.107	37.72
371.317	50
371.528	39.76
371.739	101.2
371.95	160.59
372.16	97.11
372.371	-56.49
372.582	-19.63
372.792	127.83
373.003	76.63
373.214	56.15
373.424	50
373.635	-91.31
373.846	140.12
374.056	-13.48
374.267	13.14
374.477	78.68
374.688	-46.25
374.898	47.96
375.109	86.87
375.319	97.11
375.53	35.67
375.74	138.07
375.951	45.91
376.161	66.39
376.372	131.92
376.582	31.57
376.793	58.2
377.003	0.85
377.214	86.87
377.424	47.96
377.635	23.38
377.845	-29.87
378.055	93.01
378.266	-107.69
378.476	19.29
378.686	99.16
378.897	19.29
379.107	45.91
379.317	52.05
379.528	37.72
379.738	35.67
379.948	-7.34
380.158	144.21
380.369	62.29
380.579	101.2
380.789	45.91
380.999	58.2
381.21	119.64
381.42	185.17
381.63	86.87
381.84	-5.29
382.05	29.52
382.261	140.12
382.471	121.68
382.681	-64.68
382.891	140.12
383.101	109.4
383.311	13.14
383.521	-9.39
383.731	0.85
383.941	47.96
384.151	84.82
384.361	54.1
384.571	41.81
384.781	80.72
384.991	154.45
385.201	197.46
385.411	70.48
385.621	9.05
385.831	15.19
386.041	84.82
386.251	-21.67
386.461	72.53
386.671	11.09
386.881	107.35
387.091	-44.2
387.301	68.44
387.511	15.19
387.72	25.43
387.93	181.07
388.14	-66.73
388.35	80.72
388.56	90.96
388.769	82.77
388.979	2.9
389.189	-122.02
389.399	7
389.609	95.06
389.818	113.49
390.028	9.05
390.238	64.34
390.447	74.58
390.657	31.57
390.867	-25.77
391.076	-21.67
391.286	17.24
391.496	-19.63
391.705	50
391.915	121.68
392.125	109.4
392.334	-9.39
392.544	125.78
392.753	52.05
392.963	0.85
393.172	-19.63
393.382	15.19
393.591	109.4
393.801	62.29
394.01	72.53
394.22	136.02
394.429	-19.63
394.639	-36.01
394.848	93.01
395.058	58.2
395.267	-27.82
395.477	99.16
395.686	64.34
395.895	187.22
396.105	105.3
396.314	84.82
396.524	25.43
396.733	-79.02
396.942	174.93
397.152	105.3
397.361	84.82
397.57	97.11
397.78	84.82
397.989	113.49
398.198	244.56
398.407	-9.39
398.617	-56.49
398.826	54.1
399.035	52.05
399.244	140.12
399.453	58.2
399.663	105.3
399.872	60.24
400.081	-21.67
400.29	121.68
400.499	-21.67
400.708	47.96
400.917	78.68
401.127	-1.19
401.336	-13.48
401.545	152.4
401.754	58.2
401.963	64.34
402.172	-58.54
402.381	13.14
402.59	13.14
402.799	9.05
403.008	41.81
403.217	125.78
403.426	133.97
403.635	-60.59
403.844	76.63
404.053	-3.24
404.262	-46.25
404.471	158.55
404.68	105.3
404.888	35.67
405.097	76.63
405.306	123.73
405.515	113.49
405.724	68.44
405.933	68.44
406.142	80.72
406.35	113.49
406.559	19.29
406.768	43.86
406.977	123.73
407.185	-31.91
407.394	33.62
407.603	-9.39
407.812	101.2
408.02	152.4
408.229	23.38
408.438	154.45
408.646	-48.3
408.855	-19.63
409.064	68.44
409.272	58.2
409.481	82.77
409.69	-9.39
409.898	-62.63
410.107	-27.82
410.315	158.55
410.524	-40.11
410.733	90.96
410.941	64.34
411.15	52.05
411.358	168.79
411.567	107.35
411.775	72.53
411.984	58.2
412.192	45.91
412.401	33.62
412.609	164.69
412.818	127.83
413.026	68.44
413.234	15.19
413.443	189.27
413.651	17.24
413.86	-83.11
414.068	127.83
414.276	74.58
414.485	-25.77
414.693	136.02
414.901	140.12
415.11	50
415.318	58.2
415.526	76.63
415.734	113.49
415.943	23.38
416.151	43.86
416.359	66.39
416.567	99.16
416.776	127.83
416.984	68.44
417.192	213.84
417.4	-38.06
417.608	-5.29
417.817	-31.91
418.025	136.02
418.233	172.88
418.441	25.43
418.649	-62.63
418.857	66.39
419.065	103.25
419.273	11.09
419.481	78.68
419.689	-85.16
419.897	17.24
420.105	4.95
420.313	43.86
420.521	205.65
420.729	170.83
420.937	62.29
421.145	-33.96
421.353	142.16
421.561	105.3
421.769	52.05
421.977	17.24
422.185	50
422.393	-21.67
422.601	129.88
422.809	109.4
423.017	54.1
423.224	107.35
423.432	150.36
423.64	88.92
423.848	129.88
424.056	-7.34
424.263	156.5
424.471	60.24
424.679	142.16
424.887	70.48
425.094	170.83
425.302	144.21
425.51	62.29
425.718	72.53
425.925	99.16
426.133	64.34
426.341	185.17
426.548	66.39
426.756	-1.19
426.964	101.2
427.171	2.9
427.379	86.87
427.586	93.01
427.794	119.64
428.001	201.55
428.209	47.96
428.417	260.95
428.624	97.11
428.832	68.44
429.039	74.58
429.247	181.07
429.454	140.12
429.662	123.73
429.869	47.96
430.076	123.73
430.284	105.3
430.491	252.75
430.699	193.36
430.906	199.51
431.114	121.68
431.321	138.07
431.528	170.83
431.736	129.88
431.943	156.5
432.15	99.16
432.358	144.21
432.565	275.28
432.772	-85.16
432.979	199.51
433.187	138.07
433.394	236.37
433.601	115.54
433.808	258.9
434.016	258.9
434.223	222.03
434.43	203.6
434.637	262.99
434.844	262.99
435.052	281.43
435.259	308.05
435.466	301.9
435.673	213.84
435.88	267.09
436.087	392.02
436.294	357.2
436.501	275.28
436.708	250.71
436.915	330.58
437.122	369.49
437.329	240.47
437.537	387.92
437.743	310.1
437.95	463.69
438.157	367.44
438.364	359.25
438.571	455.5
438.778	437.07
438.985	537.42
439.192	451.41
439.399	457.55
439.606	475.98
439.813	543.57
440.02	611.15
440.227	605
440.433	496.46
440.64	512.85
440.847	535.37
441.054	723.79
441.261	709.45
441.467	766.79
441.674	668.49
441.881	664.4
442.088	709.45
442.294	793.42
442.501	766.79
442.708	738.12
442.914	713.55
443.121	858.95
443.328	895.82
443.534	996.17
443.741	926.54
443.948	852.81
444.154	1022.79
444.361	1243.97
444.568	1096.52
444.774	1076.04
444.981	1063.75
445.187	1215.3
445.394	1336.13
445.6	1133.38
445.807	1391.42
446.013	1391.42
446.22	1295.17
446.426	1446.72
446.633	1694.52
446.839	1678.14
447.046	1487.68
447.252	1725.24
447.459	1798.97
447.665	1741.63
447.871	1979.19
448.078	2132.79
448.284	2009.91
448.491	2003.77
448.697	2229.04
448.903	2317.11
449.11	2325.3
449.316	2220.85
449.522	2683.69
449.728	2624.3
449.935	2779.95
450.141	2851.63
450.347	2915.11
450.553	2784.04
450.76	3093.29
450.966	3058.47
451.172	3185.44
451.378	3365.67
451.584	3423.01
451.791	3656.48
451.997	3719.96
452.203	3695.39
452.409	4174.61
452.615	4365.07
452.821	4096.79
453.027	4113.17
453.233	4840.2
453.44	4573.97
453.646	4758.28
453.852	4975.37
454.058	5057.29
454.264	5104.39
454.47	5708.54
454.676	5739.26
454.882	6085.37
455.088	5860.09
455.294	6286.07
455.5	6566.64
455.705	7199.46
455.911	7131.88
456.117	7291.62
456.323	7545.57
456.529	7566.05
456.735	8291.03
456.941	8356.57
457.147	8729.3
457.352	9040.59
457.558	9255.62
457.764	10025.66
457.97	10099.39
458.176	10402.49
458.381	11203.24
458.587	11049.64
458.793	11702.95
458.999	11801.25
459.204	13257.36
459.41	13644.42
459.616	13531.78
459.821	14402.17
460.027	15149.68
460.233	15690.34
460.438	15596.14
460.644	16796.25
460.85	16640.6
461.055	17386.06
461.261	18084.42
461.466	17914.44
461.672	18367.04
461.878	20384.29
462.083	19827.24
462.289	20345.37
462.494	21346.83
462.7	21383.7
462.905	22057.48
463.111	23501.29
463.316	24865.24
463.522	25158.1
463.727	26167.75
463.932	26948.03
464.138	27677.1
464.343	28826.01
464.549	28588.45
464.754	31177.08
464.959	32178.54
465.165	32758.11
465.37	32303.46
465.575	32319.85
465.781	34728.26
465.986	35658.04
466.191	34984.26
466.397	35443
466.602	34636.1
466.807	36557.1
467.012	37191.97
467.218	37501.21
467.423	38002.96
467.628	38787.33
467.833	40851.69
468.038	40356.08
468.244	39313.66
468.449	41337.05
468.654	40812.77
468.859	40427.76
469.064	40657.13
469.269	39633.14
469.474	39993.59
469.679	41042.15
469.885	39846.13
470.09	40763.62
470.295	40546.54
470.5	39635.19
470.705	39522.55
470.91	38580.49
471.115	38506.76
471.32	39000.32
471.525	38551.82
471.73	37513.5
471.935	37544.22
472.139	35914.03
472.344	36514.09
472.549	35737.91
472.754	35477.82
472.959	34339.15
473.164	33554.77
473.369	32788.83
473.574	34072.91
473.778	33036.64
473.983	32203.11
474.188	31977.84
474.393	30230.92
474.598	30409.09
474.802	29804.94
475.007	29165.98
475.212	29272.47
475.417	28225.96
475.621	27466.16
475.826	27453.87
476.031	26548.67
476.235	26307.01
476.44	26122.69
476.645	25612.75
476.849	25340.37
477.054	24797.66
477.259	24250.85
477.463	24320.48
477.668	23163.38
477.872	23419.38
478.077	23093.75
478.282	22305.28
478.486	21811.72
478.691	21803.53
478.895	21369.36
479.1	21559.82
479.304	21228.05
479.509	20808.22
479.713	20824.6
479.918	20130.34
480.122	19868.2
480.326	20249.12
480.531	20290.08
480.735	19661.35
480.94	19288.62
481.144	19950.12
481.348	19216.94
481.553	19290.67
481.757	18623.03
481.961	19028.53
482.166	19192.37
482.37	18604.6
482.574	18180.67
482.778	18385.47
482.983	18571.83
483.187	18082.37
483.391	17881.67
483.595	17625.67
483.8	17586.76
484.004	17623.62
484.208	17597
484.412	17105.49
484.616	17076.82
484.821	16796.25
485.025	16243.29
485.229	16546.39
485.433	16245.34
485.637	16216.67
485.841	15837.8
486.045	15473.26
486.249	15585.9
486.453	15151.73
486.657	15088.24
486.861	14867.06
487.065	14393.98
487.269	14273.15
487.473	14092.93
487.677	14162.56
487.881	14033.54
488.085	13267.59
488.289	13355.66
488.493	12962.45
488.697	12917.39
488.901	12561.05
489.105	12192.41
489.309	12014.24
489.512	12081.82
489.716	11739.81
489.92	11477.67
490.124	11217.58
490.328	11473.57
490.531	10916.53
490.735	10855.09
490.939	10601.14
491.143	10273.46
491.346	10195.64
491.55	10138.3
491.754	9812.67
491.958	9720.51
492.161	9396.93
492.365	9452.23
492.569	9300.68
492.772	9140.94
492.976	9028.3
493.18	8796.88
493.383	8782.54
493.587	8669.91
493.79	8784.59
493.994	8424.15
494.197	8387.29
494.401	8301.27
494.605	8198.87
494.808	8213.21
495.012	8110.81
495.215	8278.74
495.419	8100.57
495.622	7822.05
495.825	7936.73
496.029	7834.33
496.232	8024.79
496.436	7604.96
496.639	8090.33
496.843	7822.05
497.046	7803.61
497.249	7924.44
497.453	7721.7
497.656	7750.37
497.859	7768.8
498.063	7854.81
498.266	8069.85
498.469	7820
498.673	7811.81
498.876	7635.68
499.079	7918.3
499.282	7748.32
499.485	8262.36
499.689	8041.18
499.892	8170.2
500.095	8170.2
500.298	8016.6
500.501	8010.46
500.705	8291.03
500.908	8315.61
501.111	8471.25
501.314	8530.64
501.517	8692.43
501.72	8577.75
501.923	8657.62
502.126	8757.97
502.329	9218.76
502.532	9050.83
502.735	9128.65
502.938	9239.24
503.141	9333.45
503.344	9288.39
503.547	9343.69
503.75	9874.11
503.953	9669.31
504.156	10267.32
504.359	10105.53
504.562	10040
504.765	10130.11
504.968	10558.13
505.17	10758.83
505.373	10799.79
505.576	11111.08
505.779	11104.94
505.982	11438.76
506.185	11496.1
506.387	11639.46
506.59	11887.26
506.793	12147.36
506.996	12124.83
507.198	12798.61
507.401	12657.3
507.604	12886.67
507.807	13234.83
508.009	13681.28
508.212	13726.34
508.415	14176.89
508.617	14537.34
508.82	14396.03
509.022	14598.77
509.225	15092.34
509.428	15401.58
509.63	15915.62
509.833	15901.28
510.035	16388.7
510.238	16923.22
510.44	17052.24
510.643	17814.09
510.845	17936.96
511.048	18272.83
511.25	18668.09
511.453	18895.41
511.655	19857.96
511.858	20023.84
512.06	20533.79
512.262	20750.87
512.465	21056.02
512.667	21877.26
512.87	22381.06
513.072	22632.96
513.274	23622.12
513.477	23869.93
513.679	24533.47
513.881	25225.68
514.084	25549.26
514.286	26044.87
514.488	26497.47
514.69	27328.95
514.893	27691.44
515.095	28195.24
515.297	28959.13
515.499	29426.07
515.701	30130.57
515.904	30687.62
516.106	31668.59
516.308	32100.72
516.51	32608.61
516.712	33102.17
516.914	34099.53
517.116	34808.13
517.318	35213.63
517.52	36047.15
517.722	36536.62
517.925	37087.52
518.127	37820.69
518.329	38207.76
518.531	38572.3
518.733	40311.02
518.935	40315.12
519.136	41169.12
519.338	42168.53
519.54	42449.1
519.742	43223.23
519.944	43616.44
520.146	44511.41
520.348	45052.07
520.55	45406.37
520.752	45662.36
520.954	47020.17
521.155	46659.73
521.357	47501.44
521.559	48773.23
521.761	49264.74
521.963	49186.92
522.164	49604.7
522.366	50055.26
522.568	50700.37
522.77	50927.69
522.971	51755.07
523.173	51050.57
523.375	52174.91
523.576	51865.66
523.778	52559.92
523.98	52561.97
524.181	52531.25
524.383	53352.49
524.584	53702.69
524.786	53370.92
524.988	53213.23
525.189	54016.03
525.391	53745.7
525.592	54079.52
525.794	54138.91
525.995	53547.04
526.197	54071.32
526.398	54116.38
526.6	53921.82
526.801	54339.61
527.003	53753.89
527.204	53655.59
527.406	53733.41
527.607	53272.62
527.808	53553.19
528.01	52162.62
528.211	52631.6
528.412	53088.3
528.614	51974.2
528.815	51775.55
529.016	51886.14
529.218	50638.93
529.419	50960.46
529.62	50460.76
529.822	49662.05
530.023	49133.67
530.224	49217.64
530.425	48658.54
530.626	47732.86
530.828	47198.34
531.029	47884.41
531.23	46362.77
531.431	45750.43
531.632	45914.26
531.833	45598.88
532.035	44759.21
532.236	44206.26
532.437	43960.5
532.638	43210.95
532.839	42969.29
533.04	42676.43
533.241	41314.53
533.442	41935.06
533.643	40685.8
533.844	40394.99
534.045	40108.27
534.246	39164.16
534.447	39004.42
534.648	37781.78
534.849	37873.94
535.05	36661.54
535.251	36731.17
535.451	36178.22
535.652	35766.58
535.853	35477.82
536.054	35225.92
536.255	34539.85
536.456	33231.19
536.657	33892.69
536.857	33069.4
537.058	32577.89
537.259	31983.98
537.46	31762.8
537.66	31342.97
537.861	30964.09
538.062	30673.28
538.263	30341.51
538.463	29626.77
538.664	29401.49
538.865	29383.06
539.065	28875.16
539.266	28473.76
539.466	28178.86
539.667	27609.52
539.868	27687.34
540.068	27265.46
540.269	26872.25
540.469	26331.59
540.67	26173.89
540.87	26118.6
541.071	25743.82
541.271	25213.4
541.472	25078.23
541.672	24728.03
541.873	24412.64
542.073	23798.25
542.274	23980.52
542.474	23634.41
542.675	22987.25
542.875	23523.82
543.075	22952.44
543.276	22348.29
543.476	22348.29
543.676	22047.24
543.877	21811.72
544.077	21756.43
544.277	21383.7
544.478	21094.93
544.678	21037.59
544.878	20685.34
545.078	20453.92
545.279	20304.42
545.479	20003.36
545.679	20132.39
545.879	19548.72
546.079	19493.42
546.28	18977.33
546.48	18661.94
546.68	18819.64
546.88	18819.64
547.08	18297.41
547.28	18076.23
547.48	17570.38
547.68	17957.44
547.88	17316.43
548.081	17250.89
548.281	16872.02
548.481	16749.14
548.681	16874.07
548.881	16560.73
549.081	16194.14
549.28	15952.48
549.48	15708.77
549.68	15710.82
549.88	15592.04
550.08	15063.66
550.28	15073.9
550.48	14852.72
550.68	14711.41
550.88	14262.91
551.08	13978.24
551.279	13990.53
551.479	13666.95
551.679	13632.13
551.879	13460.1
552.079	13329.03
552.278	12952.21
552.478	12903.06
552.678	12638.87
552.878	12421.78
553.077	12499.61
553.277	11905.7
553.477	11954.85
553.676	11584.16
553.876	11457.19
554.076	11332.26
554.275	11076.27
554.475	10756.79
554.674	10838.7
554.874	10896.05
555.074	10422.97
555.273	10513.08
555.473	10416.82
555.672	9806.53
555.872	9855.68
556.071	9685.7
556.271	9632.45
556.47	9450.18
556.67	9153.23
556.869	9009.87
557.068	9044.68
557.268	8796.88
557.467	8770.26
557.667	8616.66
557.866	8448.72
558.065	8051.42
558.265	8084.19
558.464	7906.01
558.663	8262.36
558.863	7678.69
559.062	7717.6
559.261	7275.24
559.461	7336.68
559.66	7090.92
559.859	7111.4
560.058	6884.08
560.258	6877.93
560.457	6691.57
560.656	6791.92
560.855	6454
561.054	6425.33
561.253	6304.5
561.453	6499.06
561.652	6286.07
561.851	6259.45
562.05	5997.31
562.249	5755.65
562.448	5837.56
562.647	5513.99
562.846	5798.65
563.045	5614.34
563.244	5425.92
563.443	5477.12
563.642	5405.44
563.841	5169.93
564.04	5153.54
564.239	5061.38
564.438	4967.18
564.637	4963.08
564.836	4750.09
565.035	4754.19
565.234	4666.13
565.432	4717.33
565.631	4635.41
565.83	4500.24
566.029	4317.97
566.228	4395.79
566.427	4420.37
566.625	4172.57
566.824	4176.66
567.023	4107.03
567.222	4115.22
567.42	4037.4
567.619	4035.35
567.818	3891.99
568.016	3914.52
568.215	3805.98
568.414	3793.69
568.612	3803.93
568.811	3715.87
569.01	3509.02
569.208	3574.56
569.407	3646.24
569.605	3504.93
569.804	3439.39
570.002	3369.76
570.201	3179.3
570.4	3431.2
570.598	3089.19
570.797	3070.76
570.995	3087.14
571.193	3115.81
571.392	3115.81
571.59	2825
571.789	3044.13
571.987	2941.74
572.186	2935.59
572.384	2822.95
572.582	2835.24
572.781	2718.51
572.979	2552.62
573.177	2691.88
573.376	2581.29
573.574	2626.35
573.772	2368.31
573.971	2429.74
574.169	2368.31
574.367	2399.02
574.565	2360.11
574.763	2353.97
574.962	2360.11
575.16	2265.91
575.358	2134.84
575.556	2128.69
575.754	2183.99
575.952	2130.74
576.151	2132.79
576.349	2165.56
576.547	1921.85
576.745	2036.53
576.943	2112.31
577.141	1966.9
577.339	1821.5
577.537	1803.07
577.735	1858.36
577.933	1874.74
578.131	1770.3
578.329	1825.59
578.527	1626.94
578.725	1725.24
578.923	1553.21
579.121	1704.76
579.319	1450.82
579.516	1549.12
579.714	1823.55
579.912	1649.47
580.11	1493.82
580.308	1461.06
580.506	1393.47
580.704	1272.64
580.901	1313.6
581.099	1547.07
581.297	1372.99
581.495	1379.14
581.692	1233.73
581.89	1456.96
582.088	1276.74
582.285	1272.64
582.483	1217.35
582.681	1327.94
582.878	1217.35
583.076	1221.44
583.274	1209.15
583.471	1295.17
583.669	1104.71
583.866	1020.74
584.064	1069.89
584.262	1063.75
584.459	1073.99
584.657	1043.27
584.854	1117
585.052	1139.52
585.249	1086.28
585.447	1045.32
585.644	910.15
585.841	1207.11
586.039	1078.08
586.236	1018.69
586.434	1000.26
586.631	934.73
586.828	928.58
587.026	981.83
587.223	777.03
587.42	883.53
587.618	885.58
587.815	914.25
588.012	844.62
588.21	772.94
588.407	885.58
588.604	879.43
588.801	738.12
588.999	805.71
589.196	881.48
589.393	709.45
589.59	926.54
589.787	832.33
589.984	813.9
590.182	838.47
590.379	734.03
590.576	768.84
590.773	688.97
590.97	688.97
591.167	742.22
591.364	803.66
591.561	717.64
591.758	811.85
591.955	734.03
592.152	879.43
592.349	768.84
592.546	674.64
592.743	738.12
592.94	709.45
593.137	783.18
593.334	793.42
593.531	807.75
593.727	815.94
593.924	793.42
594.121	738.12
594.318	795.47
594.515	744.27
594.712	957.25
594.908	899.91
595.105	762.7
595.302	779.08
595.499	838.47
595.696	930.63
595.892	746.31
596.089	912.2
596.286	787.27
596.482	981.83
596.679	916.3
596.876	861
597.072	1053.51
597.269	916.3
597.466	1026.89
597.662	1016.65
597.859	1004.36
598.055	1051.46
598.252	1123.14
598.448	1188.68
598.645	1241.92
598.841	1188.68
599.038	1338.18
599.234	1581.89
599.431	1442.62
599.627	1463.1
599.824	1489.73
600.02	1448.77
600.217	1577.79
600.413	1661.76
600.609	1725.24
600.806	2128.69
601.002	1907.51
601.198	1774.39
601.395	1956.66
601.591	2179.89
601.787	2147.12
601.984	2126.64
602.18	2261.81
602.376	2331.44
602.572	2501.42
602.769	2593.58
602.965	2638.64
603.161	2661.16
603.357	2810.67
603.553	3103.53
603.75	3005.22
603.946	3111.72
604.142	3089.19
604.338	3474.21
604.534	3339.04
604.73	3562.27
604.926	3529.5
605.122	3889.95
605.318	3943.19
605.514	4102.93
605.71	4195.09
605.906	4252.44
606.102	4369.17
606.298	4522.77
606.494	4778.76
606.69	4776.72
606.886	5059.34
607.082	4809.48
607.278	5266.18
607.474	5266.18
607.67	5507.84
607.866	5565.18
608.062	5903.1
608.257	6073.08
608.453	6081.27
608.649	6214.39
608.845	6374.13
609.041	6757.1
609.236	6894.32
609.432	6959.85
609.628	7181.03
609.824	7607.01
610.019	7418.6
610.215	7625.44
610.411	7961.31
610.606	8188.63
610.802	8309.46
610.998	8504.02
611.193	8985.29
611.389	8909.52
611.584	9335.49
611.78	9370.31
611.976	9786.05
612.171	10136.25
612.367	10285.75
612.562	10425.01
612.758	11037.36
612.953	10871.47
613.149	11477.67
613.344	11711.14
613.539	11999.9
613.735	12192.41
613.93	12583.57
614.126	12665.49
614.321	13415.05
614.517	13638.28
614.712	13537.93
614.907	14015.1
615.103	14563.96
615.298	14903.92
615.493	15331.95
615.688	15434.35
615.884	16218.72
616.079	16343.64
616.274	16859.73
616.47	17228.37
616.665	17498.7
616.86	17988.16
617.055	18518.59
617.25	18817.59
617.445	19849.77
617.641	19841.57
617.836	20486.68
618.031	20908.57
618.226	21312.02
618.421	21803.53
618.616	22364.67
618.811	22579.71
619.006	23720.43
619.201	23966.18
619.396	24521.18
619.591	24658.4
619.786	26003.91
619.981	25676.24
620.176	26323.4
620.371	26646.97
620.566	27756.97
620.761	28180.9
620.956	28950.94
621.151	29039
621.346	29743.5
621.541	30538.12
621.735	31269.24
621.93	31334.78
622.125	32270.7
622.32	32532.84
622.515	33438.04
622.709	33687.89
622.904	34584.9
623.099	35092.8
623.294	35612.98
623.488	35842.35
623.683	36878.63
623.878	37286.17
624.072	38492.43
624.267	38672.65
624.462	39254.27
624.656	39567.61
624.851	40306.93
625.046	40954.08
625.24	41328.86
625.435	41416.93
625.629	42784.97
625.824	43169.99
626.018	43823.29
626.213	43303.1
626.407	44202.16
626.602	44392.62
626.796	45738.14
626.991	45871.26
627.185	46155.93
627.38	46487.7
627.574	46190.74
627.768	46495.89
627.963	47046.79
628.157	46948.49
628.352	47407.23
628.546	46708.88
628.74	47646.85
628.935	47087.75
629.129	47487.1
629.323	46522.51
629.517	46461.07
629.712	46403.73
629.906	46080.15
630.1	45258.91
630.294	44886.18
630.489	44501.17
630.683	43954.36
630.877	43256
631.071	42588.36
631.265	41687.26
631.459	41289.95
631.653	40358.13
631.848	39076.1
632.042	38230.29
632.236	37417.24
632.43	36366.63
632.624	35676.47
632.818	34138.44
633.012	33147.23
633.206	32242.03
633.4	31379.83
633.594	29835.66
633.788	29360.53
633.982	28176.81
634.176	27310.52
634.369	25856.46
634.563	25426.39
634.757	24386.02
634.951	23396.85
635.145	22399.49
635.339	21498.38
635.533	20693.53
635.726	19925.54
635.92	18950.71
636.114	18317.89
636.308	17625.67
636.501	16704.09
636.695	16110.18
636.889	15186.54
637.083	14748.28
637.276	14342.78
637.47	13492.87
637.664	13068.94
637.857	12677.78
638.051	12110.49
638.244	11739.81
638.438	11010.73
638.632	10818.22
638.825	10169.02
639.019	9827.01
639.212	9374.41
639.406	9102.03
639.599	8549.07
639.793	8579.79
639.986	8241.88
640.18	7783.13
640.373	7459.56
640.567	7138.02
640.76	7011.05
640.954	6802.16
641.147	6216.44
641.34	6138.62
641.534	5888.76
641.727	5786.37
641.92	5421.83
642.114	5354.24
642.307	5114.63
642.5	4936.46
642.694	4627.21
642.887	4293.4
643.08	4483.86
643.273	4252.44
643.467	4014.87
643.66	3879.71
643.853	3568.41
644.046	3636
644.239	3310.37
644.432	3291.94
644.626	3222.31
644.819	2976.55
645.012	2945.83
645.205	2863.91
645.398	2743.08
645.591	2569.01
645.784	2378.55
645.977	2343.73
646.17	2329.39
646.363	2249.52
646.556	2128.69
646.749	1966.9
646.942	1962.81
647.135	1960.76
647.328	1760.06
647.521	1753.91
647.714	1622.84
647.907	1704.76
648.099	1493.82
648.292	1545.02
648.485	1440.58
648.678	1475.39
648.871	1397.57
649.064	1350.46
649.256	1233.73
649.449	1223.49
649.642	1061.7
649.835	1024.84
650.027	947.01
650.22	1145.67
650.413	1028.93
650.605	1037.13
650.798	920.39
650.991	985.93
651.183	895.82
651.376	895.82
651.568	901.96
651.761	922.44
651.954	764.75
652.146	697.16
652.339	762.7
652.531	826.18
652.724	670.54
652.916	570.19
653.109	508.75
653.301	719.69
653.494	598.86
653.686	621.39
653.879	705.35
654.071	553.8
654.263	512.85
654.456	529.23
654.648	598.86
654.84	512.85
655.033	396.11
655.225	619.34
655.417	396.11
655.61	580.43
655.802	455.5
655.994	566.09
656.186	353.1
656.379	473.93
656.571	381.78
656.763	394.06
656.955	426.83
657.148	418.64
657.34	463.69
657.532	359.25
657.724	336.72
657.916	355.15
658.108	392.02
658.3	432.97
658.492	293.71
658.684	232.27
658.876	369.49
659.068	236.37
659.26	273.23
659.452	285.52
659.644	283.47
659.836	383.82
660.028	207.7
660.22	267.09
660.412	275.28
660.604	279.38
660.796	338.77
660.988	277.33
661.18	269.14
661.372	344.91
661.563	203.6
661.755	166.74
661.947	148.31
662.139	228.18
662.331	217.94
662.522	219.99
662.714	191.31
662.906	166.74
663.097	195.41
663.289	115.54
663.481	11.09
663.673	252.75
663.864	174.93
664.056	217.94
664.247	140.12
664.439	301.9
664.631	191.31
664.822	207.7
665.014	123.73
665.205	131.92
665.397	136.02
665.588	209.75
665.78	107.35
665.971	262.99
666.163	269.14
666.354	193.36
666.546	95.06
666.737	50
666.929	146.26
667.12	170.83
667.311	199.51
667.503	154.45
667.694	199.51
667.885	119.64
668.077	207.7
668.268	56.15
668.459	187.22
668.651	166.74
668.842	148.31
669.033	47.96
669.224	70.48
669.416	330.58
669.607	101.2
669.798	56.15
669.989	260.95
670.18	162.64
670.371	123.73
670.563	84.82
670.754	150.36
670.945	250.71
671.136	205.65
671.327	74.58
671.518	234.32
671.709	310.1
671.9	189.27
672.091	277.33
672.282	150.36
672.473	150.36
672.664	66.39
672.855	133.97
673.046	234.32
673.237	207.7
673.428	185.17
673.619	224.08
673.809	99.16
674	256.85
674.191	203.6
674.382	195.41
674.573	150.36
674.764	179.03
674.954	234.32
675.145	117.59
675.336	119.64
675.527	166.74
675.717	119.64
675.908	187.22
676.099	125.78
676.289	158.55
676.48	111.44
676.671	172.88
676.861	138.07
677.052	310.1
677.243	127.83
677.433	123.73
677.624	228.18
677.814	205.65
678.005	99.16
678.195	324.43
678.386	179.03
678.576	138.07
678.767	144.21
678.957	260.95
679.148	199.51
679.338	338.77
679.529	219.99
679.719	99.16
679.909	293.71
680.1	224.08
680.29	172.88
680.481	131.92
680.671	277.33
680.861	158.55
681.052	197.46
681.242	164.69
681.432	133.97
681.622	295.76
681.813	111.44
682.003	195.41
682.193	193.36
682.383	172.88
682.573	234.32
682.764	236.37
682.954	258.9
683.144	289.62
683.334	236.37
683.524	260.95
683.714	338.77
683.904	256.85
684.094	150.36
684.284	228.18
684.474	349.01
684.664	312.14
684.854	260.95
685.044	201.55
685.234	254.8
685.424	219.99
685.614	205.65
685.804	357.2
685.994	246.61
686.184	250.71
686.374	205.65
686.564	269.14
686.753	308.05
686.943	193.36
687.133	258.9
687.323	324.43
687.513	244.56
687.702	297.81
687.892	267.09
688.082	344.91
688.272	334.67
688.461	271.19
688.651	377.68
688.841	344.91
689.03	336.72
689.22	308.05
689.41	375.63
689.599	310.1
689.789	199.51
689.979	383.82
690.168	260.95
690.358	383.82
690.547	293.71
690.737	275.28
690.926	273.23
691.116	293.71
691.305	406.35
691.495	299.86
691.684	168.79
691.874	217.94
692.063	340.82
692.252	351.06
692.442	332.62
692.631	240.47
692.82	279.38
693.01	299.86
693.199	226.13
693.388	320.34
693.578	224.08
693.767	228.18
693.956	392.02
694.146	281.43
694.335	353.1
694.524	246.61
694.713	351.06
694.902	199.51
695.092	306
695.281	289.62
695.47	222.03
695.659	254.8
695.848	287.57
696.037	262.99
696.226	365.39
696.415	185.17
696.604	328.53
696.793	287.57
696.982	197.46
697.171	373.58
697.36	246.61
697.549	293.71
697.738	150.36
697.927	236.37
698.116	230.23
698.305	353.1
698.494	312.14
698.683	197.46
698.872	377.68
699.061	234.32
699.25	201.55
699.438	254.8
699.627	254.8
699.816	353.1
700.005	181.07
700.193	295.76
700.382	306
700.571	291.66
700.76	265.04
700.948	222.03
701.137	289.62
701.326	334.67
701.514	201.55
701.703	355.15
701.892	340.82
702.08	385.87
702.269	252.75
702.457	238.42
702.646	299.86
702.834	246.61
703.023	330.58
703.212	322.38
703.4	187.22
703.589	279.38
703.777	248.66
703.965	287.57
704.154	267.09
704.342	150.36
704.531	213.84
704.719	215.89
704.907	328.53
705.096	123.73
705.284	258.9
705.472	267.09
705.661	318.29
705.849	340.82
706.037	230.23
706.226	318.29
706.414	295.76
706.602	136.02
706.79	279.38
706.979	248.66
707.167	301.9
707.355	125.78
707.543	248.66
707.731	252.75
707.919	289.62
708.107	293.71
708.296	256.85
708.484	199.51
708.672	316.24
708.86	209.75
709.048	262.99
709.236	179.03
709.424	258.9
709.612	277.33
709.8	148.31
709.988	185.17
710.176	303.95
710.364	355.15
710.551	240.47
710.739	299.86
710.927	244.56
711.115	293.71
711.303	385.87
711.491	373.58
711.679	230.23
711.866	244.56
712.054	217.94
712.242	293.71
712.43	332.62
712.617	320.34
712.805	426.83
712.993	283.47
713.181	162.64
713.368	365.39
713.556	287.57
713.744	271.19
713.931	451.41
714.119	332.62
714.306	248.66
714.494	217.94
714.682	303.95
714.869	224.08
715.057	211.79
715.244	189.27
715.432	219.99
715.619	279.38
715.807	291.66
715.994	205.65
716.182	260.95
716.369	336.72
716.556	252.75
716.744	224.08
716.931	273.23
717.119	299.86
717.306	273.23
717.493	314.19
717.681	246.61
717.868	303.95
718.055	297.81
718.242	283.47
718.43	279.38
718.617	308.05
718.804	240.47
718.991	361.3
719.179	215.89
719.366	291.66
719.553	295.76
719.74	338.77
719.927	252.75
720.114	320.34
720.301	230.23
720.488	232.27
720.676	250.71
720.863	322.38
721.05	418.64
721.237	316.24
721.424	283.47
721.611	322.38
721.798	199.51
721.985	338.77
722.172	258.9
722.358	357.2
722.545	279.38
722.732	371.54
722.919	408.4
723.106	334.67
723.293	289.62
723.48	314.19
723.667	260.95
723.853	373.58
724.04	381.78
724.227	439.12
724.414	258.9
724.6	371.54
724.787	361.3
724.974	490.32
725.161	334.67
725.347	205.65
725.534	303.95
725.72	381.78
725.907	330.58
726.094	410.45
726.28	281.43
726.467	340.82
726.653	273.23
726.84	416.59
727.027	443.21
727.213	344.91
727.4	361.3
727.586	285.52
727.773	400.21
727.959	330.58
728.145	277.33
728.332	340.82
728.518	295.76
728.705	367.44
728.891	353.1
729.077	330.58
729.264	283.47
729.45	361.3
729.636	377.68
729.823	281.43
730.009	394.06
730.195	346.96
730.382	400.21
730.568	287.57
730.754	371.54
730.94	369.49
731.126	291.66
731.313	332.62
731.499	306
731.685	324.43
731.871	432.97
732.057	422.73
732.243	420.69
732.429	455.5
732.615	457.55
732.801	451.41
732.987	414.54
733.173	314.19
733.359	328.53
733.545	441.17
733.731	297.81
733.917	369.49
734.103	318.29
734.289	373.58
734.475	316.24
734.661	516.94
734.847	365.39
735.033	385.87
735.219	410.45
735.404	328.53
735.59	301.9
735.776	256.85
735.962	359.25
736.148	435.02
736.333	475.98
736.519	375.63
736.705	367.44
736.89	363.34
737.076	373.58
737.262	351.06
737.447	412.5
737.633	234.32
737.819	371.54
738.004	361.3
738.19	349.01
738.375	346.96
738.561	480.08
738.747	318.29
738.932	363.34
739.118	447.31
739.303	424.78
739.489	418.64
739.674	400.21
739.859	342.86
740.045	344.91
740.23	367.44
740.416	271.19
740.601	392.02
740.786	365.39
740.972	455.5
741.157	363.34
741.342	277.33
741.528	224.08
741.713	402.26
741.898	320.34
742.084	336.72
742.269	443.21
742.454	375.63
742.639	420.69
742.824	385.87
743.01	514.89
743.195	467.79
743.38	363.34
743.565	312.14
743.75	387.92
743.935	414.54
744.12	475.98
744.305	303.95
744.49	308.05
744.675	406.35
744.86	375.63
745.045	400.21
745.23	310.1
745.415	340.82
745.6	453.45
745.785	271.19
745.97	426.83
746.155	371.54
746.34	414.54
746.525	342.86
746.71	488.27
746.895	265.04
747.079	234.32
747.264	289.62
747.449	392.02
747.634	398.16
747.819	396.11
748.003	310.1
748.188	262.99
748.373	359.25
748.557	281.43
748.742	299.86
748.927	316.24
749.111	256.85
749.296	303.95
749.481	310.1
749.665	295.76
749.85	281.43
750.034	346.96
750.219	342.86
750.404	254.8
750.588	355.15
750.773	320.34
750.957	226.13
751.141	226.13
751.326	369.49
751.51	230.23
751.695	346.96
751.879	314.19
752.064	418.64
752.248	334.67
752.432	351.06
752.617	373.58
752.801	389.97
752.985	269.14
753.17	353.1
753.354	260.95
753.538	269.14
753.722	203.6
753.907	176.98
754.091	113.49
754.275	287.57
754.459	238.42
754.643	140.12
754.828	215.89
755.012	244.56
755.196	213.84
755.38	326.48
755.564	252.75
755.748	232.27
755.932	338.77
756.116	258.9
756.3	279.38
756.484	195.41
756.668	240.47
756.852	191.31
757.036	215.89
757.22	256.85
757.404	199.51
757.588	117.59
757.772	279.38
757.956	185.17
758.14	349.01
758.323	164.69
758.507	271.19
758.691	185.17
758.875	267.09
759.059	203.6
759.242	133.97
759.426	265.04
759.61	213.84
759.794	242.51
759.977	232.27
760.161	385.87
760.345	275.28
760.528	240.47
760.712	279.38
760.895	219.99
761.079	224.08
761.263	172.88
761.446	131.92
761.63	185.17
761.813	346.96
761.997	111.44
762.18	113.49
762.364	230.23
762.547	90.96
762.731	244.56
762.914	166.74
763.098	181.07
763.281	154.45
763.464	236.37
763.648	191.31
763.831	119.64
764.015	101.2
764.198	199.51
764.381	205.65
764.564	226.13
764.748	168.79
764.931	170.83
765.114	117.59
765.297	260.95
765.481	62.29
765.664	166.74
765.847	129.88
766.03	179.03
766.213	70.48
766.397	205.65
766.58	72.53
766.763	242.51
766.946	152.4
767.129	111.44
767.312	90.96
767.495	109.4
767.678	27.48
767.861	144.21
768.044	242.51
768.227	72.53
768.41	144.21
768.593	156.5
768.776	119.64
768.959	140.12
769.142	314.19
769.324	129.88
769.507	172.88
769.69	101.2
769.873	140.12
770.056	283.47
770.239	160.59
770.421	193.36
770.604	136.02
770.787	205.65
770.97	133.97
771.152	111.44
771.335	176.98
771.518	41.81
771.7	189.27
771.883	260.95
772.066	115.54
772.248	183.12
772.431	215.89
772.613	121.68
772.796	107.35
772.978	154.45
773.161	234.32
773.343	58.2
773.526	142.16
773.708	37.72
773.891	-46.25
774.073	60.24
774.256	64.34
774.438	301.9
774.621	54.1
774.803	72.53
774.985	119.64
775.168	93.01
775.35	117.59
775.532	144.21
775.715	62.29
775.897	117.59
776.079	60.24
776.261	136.02
776.444	9.05
776.626	152.4
776.808	119.64
776.99	-38.06
777.173	185.17
777.355	17.24
777.537	70.48
777.719	105.3
777.901	64.34
778.083	21.33
778.265	27.48
778.447	119.64
778.629	33.62
778.811	138.07
778.993	107.35
779.175	140.12
779.357	101.2
779.539	4.95
779.721	105.3
779.903	133.97
780.085	33.62
780.267	45.91
780.449	62.29
780.631	195.41
780.812	234.32
780.994	99.16
781.176	39.76
781.358	47.96
781.54	60.24
781.721	168.79
781.903	90.96
782.085	17.24
782.267	99.16
782.448	35.67
782.63	0.85
782.812	50
782.993	185.17
783.175	142.16
783.357	35.67
783.538	101.2
783.72	19.29
783.901	113.49
784.083	117.59
784.264	54.1
784.446	-105.64
784.627	-70.83
784.809	80.72
784.99	19.29
785.172	80.72
785.353	107.35
785.535	60.24
785.716	-15.53
785.897	39.76
786.079	50
786.26	74.58
786.441	105.3
786.623	-64.68
786.804	9.05
786.985	72.53
787.167	107.35
787.348	72.53
787.529	103.25
787.71	205.65
787.891	62.29
788.073	-17.58
788.254	-58.54
788.435	181.07
788.616	15.19
788.797	-46.25
788.978	7
789.159	64.34
789.34	160.59
789.522	136.02
789.703	45.91
789.884	-25.77
790.065	7
790.246	174.93
790.427	-46.25
790.607	183.12
790.788	78.68
790.969	-7.34
791.15	129.88
791.331	-68.78
791.512	58.2
791.693	-11.43
791.874	-17.58
792.054	183.12
792.235	29.52
792.416	43.86
792.597	-9.39
792.778	54.1
792.958	37.72
793.139	80.72
793.32	60.24
793.5	-27.82
793.681	113.49
793.862	35.67
794.042	0.85
794.223	-40.11
794.404	0.85
794.584	-27.82
794.765	47.96
794.945	2.9
795.126	113.49
795.306	62.29
795.487	29.52
795.667	74.58
795.848	86.87
796.028	33.62
796.209	-17.58
796.389	60.24
796.57	70.48
796.75	-9.39
796.93	45.91
797.111	13.14
797.291	-58.54
797.471	39.76
797.652	-40.11
797.832	-27.82
798.012	144.21
798.192	-58.54
798.373	2.9
798.553	2.9
798.733	95.06
798.913	58.2
799.093	-38.06
799.274	41.81
799.454	109.4
799.634	62.29
799.814	66.39
799.994	39.76
800.174	107.35
800.354	43.86
800.534	-46.25
800.714	62.29
800.894	-74.92
801.074	-89.26
801.254	-68.78
801.434	90.96
801.614	2.9
801.794	17.24
801.974	1739.58
802.154	-11.43
802.334	68.44
802.514	-60.59
802.693	27.48
802.873	21.33
803.053	50
803.233	41.81
803.413	27.48
803.592	-1.19
803.772	-56.49
803.952	72.53
804.131	-1.19
804.311	64.34
804.491	107.35
804.67	-5.29
804.85	-48.3
805.03	101.2
805.209	66.39
805.389	-54.44
805.568	-42.15
805.748	-31.91
805.928	-54.44
806.107	-76.97
806.287	31.57
806.466	7
806.646	41.81
806.825	-21.67
807.004	2.9
807.184	86.87
807.363	144.21
807.543	45.91
807.722	-83.11
807.901	138.07
808.081	43.86
808.26	-103.59
808.439	2.9
808.619	-21.67
808.798	-89.26
808.977	-66.73
809.156	80.72
809.336	-3.24
809.515	136.02
809.694	-134.31
809.873	37.72
810.052	86.87
810.231	78.68
810.411	15.19
810.59	54.1
810.769	-64.68
810.948	-9.39
811.127	-128.17
811.306	-19.63
811.485	-13.48
811.664	115.54
811.843	52.05
812.022	47.96
812.201	-29.87
812.38	21.33
812.559	-19.63
812.737	99.16
812.916	-66.73
813.095	-85.16
813.274	60.24
813.453	56.15
813.632	-40.11
813.811	17.24
813.989	-31.91
814.168	54.1
814.347	-62.63
814.526	-40.11
814.704	158.55
814.883	125.78
815.062	-44.2
815.24	105.3
815.419	-7.34
815.598	35.67
815.776	-74.92
815.955	21.33
816.133	-95.4
816.312	52.05
816.49	-101.55
816.669	17.24
816.847	-70.83
817.026	56.15
817.204	-97.45
817.383	-31.91
817.561	2.9
817.74	33.62
817.918	-40.11
818.097	-93.35
818.275	11.09
818.453	-7.34
818.632	99.16
818.81	-31.91
818.988	-56.49
819.167	-48.3
819.345	2.9
819.523	-13.48
819.701	-70.83
819.879	21.33
820.058	47.96
820.236	70.48
820.414	-27.82
820.592	-42.15
820.77	23.38
820.948	-87.21
821.127	-1.19
821.305	-3.24
821.483	-111.78
821.661	50
821.839	4.95
822.017	-54.44
822.195	17.24
822.373	23.38
822.551	7
822.729	76.63
822.907	-111.78
823.085	45.91
823.262	-33.96
823.44	-83.11
823.618	-46.25
823.796	45.91
823.974	-48.3
824.152	-60.59
824.329	33.62
824.507	23.38
824.685	41.81
824.863	-17.58
825.04	-11.43
825.218	52.05
825.396	50
825.574	35.67
825.751	-46.25
825.929	-13.48
826.107	-103.59
826.284	64.34
826.462	109.4
826.639	-83.11
826.817	-62.63
826.994	7
827.172	-36.01
827.349	47.96
827.527	13.14
827.704	72.53
827.882	31.57
828.059	25.43
828.237	-23.72
828.414	123.73
828.591	-85.16
828.769	50
828.946	-42.15
829.124	119.64
829.301	86.87
829.478	-87.21
829.655	93.01
829.833	64.34
830.01	-136.36
830.187	45.91
830.364	-68.78
830.542	13.14
830.719	86.87
830.896	2.9
831.073	0.85
831.25	-9.39
831.427	62.29
831.604	43.86
831.782	-85.16
831.959	-5.29
832.136	-7.34
832.313	60.24
832.49	-79.02
832.667	52.05
832.844	15.19
833.021	45.91
833.198	-19.63
833.374	41.81
833.551	103.25
833.728	-25.77
833.905	37.72
834.082	-50.35
834.259	66.39
834.436	76.63
834.612	-48.3
834.789	76.63
834.966	74.58
835.143	31.57
835.319	-134.31
835.496	72.53
835.673	70.48
835.85	29.52
836.026	-48.3
836.203	64.34
836.38	-85.16
836.556	-54.44
836.733	-46.25
836.909	82.77
837.086	-9.39
837.262	-76.97
837.439	62.29
837.616	-128.17
837.792	60.24
837.968	-23.72
838.145	-169.13
838.321	39.76
838.498	27.48
838.674	82.77
838.851	-19.63
839.027	-40.11
839.203	0.85
839.38	99.16
839.556	-60.59
839.732	117.59
839.909	-60.59
840.085	45.91
840.261	-42.15
840.437	2.9
840.614	-60.59
840.79	88.92
840.966	19.29
841.142	66.39
841.318	-66.73
841.494	37.72
841.671	105.3
841.847	-87.21
842.023	-70.83
842.199	31.57
842.375	95.06
842.551	-91.31
842.727	-36.01
842.903	88.92
843.079	-66.73
843.255	90.96
843.431	2.9
843.607	62.29
843.783	-189.61
843.959	-13.48
844.134	-91.31
844.31	66.39
844.486	-85.16
844.662	-11.43
844.838	-17.58
845.013	109.4
845.189	60.24
845.365	62.29
845.541	-13.48
845.716	-124.07
845.892	62.29
846.068	-72.87
846.244	-97.45
846.419	35.67
846.595	-113.83
846.77	-23.72
846.946	41.81
847.122	-74.92
847.297	-70.83
847.473	35.67
847.648	-107.69
847.824	-19.63
847.999	-165.03
848.175	-25.77
848.35	-33.96
848.526	131.92
848.701	41.81
848.876	82.77
849.052	111.44
849.227	-29.87
849.403	-68.78
849.578	21.33
849.753	27.48
849.929	107.35
850.104	-89.26
850.279	-13.48
850.454	-13.48
850.63	-54.44
850.805	23.38
850.98	-19.63
851.155	-33.96
851.33	-52.39
851.505	-160.94
851.681	37.72
851.856	-79.02
852.031	25.43
852.206	-11.43
852.381	-158.89
852.556	-11.43
852.731	9.05
852.906	84.82
853.081	43.86
853.256	148.31
853.431	-31.91
853.606	-107.69
853.781	-38.06
853.956	-144.55
854.131	-64.68
854.305	-109.74
854.48	-42.15
854.655	-76.97
854.83	-38.06
855.005	29.52
855.18	15.19
855.354	-17.58
855.529	-31.91
855.704	-27.82
855.879	54.1
856.053	-138.41
856.228	29.52
856.403	-5.29
856.577	50
856.752	-122.02
856.926	11.09
857.101	50
857.276	-38.06
857.45	17.24
857.625	-11.43
857.799	-11.43
857.974	-38.06
858.148	-144.55
858.323	64.34
858.497	-36.01
858.672	-56.49
858.846	-95.4
859.02	54.1
859.195	-156.84
859.369	2.9
859.543	-105.64
859.718	50
859.892	58.2
860.066	-7.34
860.241	7
860.415	-76.97
860.589	-74.92
860.763	-56.49
860.938	-54.44
861.112	99.16
861.286	-17.58
861.46	-36.01
861.634	35.67
861.808	95.06
861.982	-40.11
862.157	-175.27
862.331	-74.92
862.505	-130.22
862.679	-48.3
862.853	-42.15
863.027	-19.63
863.201	66.39
863.375	-7.34
863.549	80.72
863.722	21.33
863.896	82.77
864.07	-62.63
864.244	-3.24
864.418	-9.39
864.592	-19.63
864.766	13.14
864.939	31.57
865.113	-52.39
865.287	60.24
865.461	-3.24
865.634	9.05
865.808	-42.15
865.982	-66.73
866.156	-56.49
866.329	-60.59
866.503	66.39
866.676	62.29
866.85	2.9
867.024	-3.24
867.197	62.29
867.371	64.34
867.544	23.38
867.718	-83.11
867.891	78.68
868.065	-128.17
868.238	-15.53
868.412	80.72
868.585	15.19
868.759	-9.39
868.932	-74.92
869.105	-42.15
869.279	-38.06
869.452	-132.26
869.625	23.38
869.799	-83.11
869.972	-111.78
870.145	-54.44
870.319	66.39
870.492	-42.15
870.665	-1.19
870.838	-60.59
871.011	-150.7
871.185	0.85
871.358	-66.73
871.531	9.05
871.704	-48.3
871.877	17.24
872.05	-50.35
872.223	-58.54
872.396	113.49
872.569	-72.87
872.742	-44.2
872.915	-23.72
873.088	-31.91
873.261	-29.87
873.434	47.96
873.607	-15.53
873.78	50
873.953	-62.63
874.126	72.53
874.299	-17.58
874.471	-3.24
874.644	-42.15
874.817	37.72
874.99	86.87
875.163	0.85
875.335	15.19
875.508	21.33
875.681	99.16
875.853	-38.06
876.026	-7.34
876.199	-21.67
876.371	0.85
876.544	-25.77
876.717	35.67
876.889	-115.88
877.062	109.4
877.234	-109.74
877.407	-3.24
877.579	76.63
877.752	-15.53
877.924	72.53
878.097	-17.58
878.269	-46.25
878.442	-99.5
878.614	64.34
878.786	11.09
878.959	54.1
879.131	45.91
879.303	-91.31
879.476	-3.24
879.648	0.85
879.82	-7.34
879.993	-36.01
880.165	-81.07
880.337	-60.59
880.509	-52.39
880.681	-66.73
880.854	-40.11
881.026	43.86
881.198	170.83
881.37	-95.4
881.542	-31.91
881.714	-79.02
881.886	-7.34
882.058	-85.16
882.23	17.24
882.402	-27.82
882.574	-33.96
882.746	93.01
882.918	113.49
883.09	19.29
883.262	-60.59
883.434	17.24
883.606	-210.09
883.778	-48.3
883.95	95.06
884.122	-33.96
884.293	78.68
884.465	-33.96
884.637	56.15
884.809	-11.43
884.98	-36.01
885.152	33.62
885.324	29.52
885.496	17.24
885.667	-1.19
885.839	31.57
886.011	72.53
886.182	72.53
886.354	9.05
886.525	-21.67
886.697	-3.24
886.869	19.29
887.04	-15.53
887.212	105.3
887.383	90.96
887.555	-21.67
887.726	-44.2
887.897	-17.58
888.069	15.19
888.24	52.05
888.412	-66.73
888.583	-21.67
888.754	-36.01
888.926	-132.26
889.097	-79.02
889.268	-93.35
889.44	-7.34
889.611	-17.58
889.782	-46.25
889.953	-40.11
890.125	74.58
890.296	-107.69
890.467	-54.44
890.638	-44.2
890.809	-72.87
890.98	21.33
891.151	33.62
891.323	105.3
891.494	-3.24
891.665	80.72
891.836	-31.91
892.007	-13.48
892.178	2.9
892.349	17.24
892.52	-97.45
892.691	29.52
892.862	-25.77
893.032	-89.26
893.203	-122.02
893.374	-87.21
893.545	50
893.716	-167.08
893.887	52.05
894.057	-27.82
894.228	-62.63
894.399	-72.87
894.57	105.3
894.74	-19.63
894.911	21.33
895.082	-58.54
895.253	-111.78
895.423	-11.43
895.594	-25.77
895.764	-15.53
895.935	-29.87
896.106	52.05
896.276	-64.68
896.447	-21.67
896.617	-74.92
896.788	-31.91
896.958	-93.35
897.129	-29.87
897.299	-50.35
897.47	37.72
897.64	70.48
897.81	-40.11
897.981	-23.72
898.151	-87.21
898.322	9.05
898.492	60.24
898.662	-115.88
898.832	-76.97
899.003	-23.72
899.173	0.85
899.343	43.86
899.513	-101.55
