Data from USB4F104151__52__09-28-17-903.txt Node

Date: Wed Feb 26 09:28:17 EST 2025
User: louis
Spectrometer: USB4F10415
Trigger mode: 4
Integration Time (sec): 1.000000E-1
Scans to average: 1
Electric dark correction enabled: true
Nonlinearity correction enabled: false
Boxcar width: 0
XAxis mode: Wavelengths
Number of Pixels in Spectrum: 3648
>>>>>Begin Spectral Data<<<<<
178.204	-353.27
178.424	-353.27
178.644	-353.27
178.864	-300.03
179.084	-369.66
179.304	-39.94
179.524	-74.75
179.744	-39.94
179.964	31.74
180.184	19.46
180.404	44.03
180.624	-7.17
180.844	58.37
181.064	-35.84
181.283	56.32
181.503	-25.6
181.723	13.31
181.943	-119.81
182.163	152.57
182.383	-23.55
182.602	56.32
182.822	121.85
183.042	15.36
183.262	-11.26
183.482	-58.37
183.701	27.65
183.921	11.26
184.141	27.65
184.361	91.13
184.58	121.85
184.8	46.08
185.02	-58.37
185.239	93.18
185.459	74.75
185.679	89.09
185.898	-66.56
186.118	-25.6
186.338	13.31
186.557	82.94
186.777	-33.79
186.997	33.79
187.216	21.5
187.436	142.33
187.655	48.13
187.875	107.52
188.095	72.7
188.314	95.23
188.534	91.13
188.753	-56.32
188.973	109.57
189.192	105.47
189.412	39.94
189.631	15.36
189.851	-3.07
190.07	109.57
190.29	-74.75
190.509	-37.89
190.729	-25.6
190.948	148.48
191.168	318.46
191.387	66.56
191.607	-44.03
191.826	87.04
192.045	78.85
192.265	9.22
192.484	60.42
192.704	46.08
192.923	-68.61
193.142	220.16
193.362	72.7
193.581	37.89
193.8	95.23
194.02	138.24
194.239	80.89
194.458	101.37
194.678	5.12
194.897	15.36
195.116	93.18
195.335	23.55
195.555	56.32
195.774	13.31
195.993	128
196.212	119.81
196.432	52.22
196.651	-37.89
196.87	89.09
197.089	179.2
197.308	78.85
197.528	80.89
197.747	-21.5
197.966	-5.12
198.185	187.39
198.404	-56.32
198.623	72.7
198.842	105.47
199.062	101.37
199.281	62.46
199.5	50.18
199.719	68.61
199.938	7.17
200.157	111.61
200.376	117.76
200.595	70.65
200.814	-11.26
201.033	21.5
201.252	156.67
201.471	72.7
201.69	128
201.909	39.94
202.128	31.74
202.347	-41.98
202.566	21.5
202.785	-23.55
203.004	11.26
203.223	257.02
203.442	76.8
203.661	56.32
203.879	58.37
204.098	189.44
204.317	-11.26
204.536	142.33
204.755	48.13
204.974	140.29
205.193	11.26
205.411	179.2
205.63	168.96
205.849	84.99
206.068	39.94
206.287	-15.36
206.505	181.25
206.724	-74.75
206.943	62.46
207.162	37.89
207.381	95.23
207.599	52.22
207.818	70.65
208.037	29.7
208.255	41.98
208.474	23.55
208.693	-5.12
208.911	5.12
209.13	72.7
209.349	39.94
209.567	-37.89
209.786	107.52
210.005	31.74
210.223	93.18
210.442	-48.13
210.661	41.98
210.879	31.74
211.098	31.74
211.316	31.74
211.535	-46.08
211.753	44.03
211.972	-1.02
212.191	-17.41
212.409	-72.7
212.628	150.53
212.846	9.22
213.065	31.74
213.283	74.75
213.502	-1.02
213.72	9.22
213.938	31.74
214.157	52.22
214.375	113.66
214.594	13.31
214.812	60.42
215.031	-5.12
215.249	54.27
215.467	50.18
215.686	-3.07
215.904	93.18
216.122	3.07
216.341	76.8
216.559	80.89
216.778	121.85
216.996	76.8
217.214	7.17
217.432	-29.7
217.651	5.12
217.869	17.41
218.087	52.22
218.306	1.02
218.524	44.03
218.742	-39.94
218.96	87.04
219.179	15.36
219.397	39.94
219.615	187.39
219.833	68.61
220.051	-19.46
220.27	105.47
220.488	99.33
220.706	123.9
220.924	56.32
221.142	19.46
221.36	78.85
221.578	39.94
221.796	39.94
222.015	84.99
222.233	52.22
222.451	105.47
222.669	-33.79
222.887	148.48
223.105	11.26
223.323	-84.99
223.541	-37.89
223.759	15.36
223.977	64.51
224.195	128
224.413	136.19
224.631	52.22
224.849	31.74
225.067	183.29
225.285	-25.6
225.503	-33.79
225.721	-84.99
225.939	33.79
226.157	52.22
226.375	248.83
226.592	-19.46
226.81	72.7
227.028	87.04
227.246	144.38
227.464	-1.02
227.682	11.26
227.9	152.57
228.117	60.42
228.335	-17.41
228.553	23.55
228.771	-1.02
228.989	48.13
229.206	113.66
229.424	56.32
229.642	58.37
229.86	-109.57
230.077	97.28
230.295	37.89
230.513	136.19
230.731	41.98
230.948	111.61
231.166	80.89
231.384	-3.07
231.601	60.42
231.819	128
232.037	-46.08
232.254	-78.85
232.472	13.31
232.689	-23.55
232.907	138.24
233.125	11.26
233.342	-23.55
233.56	66.56
233.777	23.55
233.995	23.55
234.213	97.28
234.43	-25.6
234.648	50.18
234.865	66.56
235.083	168.96
235.3	-52.22
235.518	95.23
235.735	105.47
235.953	1.02
236.17	7.17
236.388	50.18
236.605	46.08
236.822	74.75
237.04	52.22
237.257	-9.22
237.475	-19.46
237.692	50.18
237.909	60.42
238.127	-29.7
238.344	97.28
238.562	168.96
238.779	-17.41
238.996	-62.46
239.214	37.89
239.431	97.28
239.648	35.84
239.865	72.7
240.083	33.79
240.3	-33.79
240.517	23.55
240.735	84.99
240.952	138.24
241.169	39.94
241.386	62.46
241.603	41.98
241.821	-37.89
242.038	78.85
242.255	68.61
242.472	-41.98
242.689	39.94
242.907	76.8
243.124	17.41
243.341	39.94
243.558	-82.94
243.775	-82.94
243.992	-76.8
244.209	123.9
244.426	175.1
244.643	66.56
244.86	93.18
245.078	138.24
245.295	33.79
245.512	58.37
245.729	21.5
245.946	105.47
246.163	19.46
246.38	68.61
246.597	11.26
246.814	41.98
247.031	21.5
247.248	-17.41
247.464	44.03
247.681	13.31
247.898	27.65
248.115	74.75
248.332	15.36
248.549	52.22
248.766	211.96
248.983	48.13
249.2	48.13
249.417	80.89
249.633	1.02
249.85	93.18
250.067	13.31
250.284	35.84
250.501	93.18
250.717	80.89
250.934	-35.84
251.151	21.5
251.368	48.13
251.585	56.32
251.801	48.13
252.018	-62.46
252.235	105.47
252.451	27.65
252.668	48.13
252.885	72.7
253.102	74.75
253.318	31.74
253.535	-21.5
253.752	-54.27
253.968	64.51
254.185	-37.89
254.401	89.09
254.618	31.74
254.835	46.08
255.051	183.29
255.268	68.61
255.484	48.13
255.701	80.89
255.917	154.62
256.134	7.17
256.351	82.94
256.567	-3.07
256.784	3.07
257	-58.37
257.217	72.7
257.433	134.14
257.65	1.02
257.866	128
258.082	-91.13
258.299	-62.46
258.515	52.22
258.732	52.22
258.948	-99.33
259.165	46.08
259.381	-15.36
259.597	70.65
259.814	31.74
260.03	7.17
260.246	19.46
260.463	80.89
260.679	103.42
260.895	-5.12
261.112	72.7
261.328	5.12
261.544	37.89
261.761	158.72
261.977	91.13
262.193	39.94
262.409	123.9
262.626	31.74
262.842	50.18
263.058	-66.56
263.274	11.26
263.49	52.22
263.707	146.43
263.923	68.61
264.139	-70.65
264.355	70.65
264.571	115.71
264.787	39.94
265.004	60.42
265.22	23.55
265.436	-19.46
265.652	-17.41
265.868	82.94
266.084	-13.31
266.3	-17.41
266.516	-39.94
266.732	13.31
266.948	136.19
267.164	64.51
267.38	99.33
267.596	39.94
267.812	128
268.028	80.89
268.244	-41.98
268.46	58.37
268.676	3.07
268.892	58.37
269.108	-9.22
269.324	-1.02
269.54	-15.36
269.756	27.65
269.972	-66.56
270.188	-15.36
270.403	-21.5
270.619	107.52
270.835	87.04
271.051	7.17
271.267	-82.94
271.483	78.85
271.698	23.55
271.914	31.74
272.13	41.98
272.346	-25.6
272.562	105.47
272.777	201.72
272.993	46.08
273.209	31.74
273.425	46.08
273.64	-35.84
273.856	48.13
274.072	-52.22
274.287	-33.79
274.503	50.18
274.719	115.71
274.934	-21.5
275.15	-80.89
275.366	80.89
275.581	21.5
275.797	37.89
276.012	31.74
276.228	-9.22
276.444	89.09
276.659	195.58
276.875	17.41
277.09	-93.18
277.306	-41.98
277.521	76.8
277.737	64.51
277.952	152.57
278.168	44.03
278.383	68.61
278.599	9.22
278.814	72.7
279.03	72.7
279.245	93.18
279.461	68.61
279.676	158.72
279.892	7.17
280.107	52.22
280.322	56.32
280.538	60.42
280.753	-3.07
280.969	82.94
281.184	-111.61
281.399	183.29
281.615	95.23
281.83	25.6
282.045	7.17
282.26	-3.07
282.476	84.99
282.691	105.47
282.906	44.03
283.122	3.07
283.337	27.65
283.552	39.94
283.767	-25.6
283.983	80.89
284.198	11.26
284.413	125.95
284.628	-9.22
284.843	58.37
285.058	91.13
285.274	-1.02
285.489	13.31
285.704	37.89
285.919	50.18
286.134	-41.98
286.349	23.55
286.564	-54.27
286.779	162.81
286.995	5.12
287.21	-13.31
287.425	89.09
287.64	-66.56
287.855	19.46
288.07	-23.55
288.285	74.75
288.5	185.34
288.715	97.28
288.93	60.42
289.145	-9.22
289.36	175.1
289.575	-29.7
289.79	76.8
290.004	-5.12
290.219	41.98
290.434	13.31
290.649	15.36
290.864	-17.41
291.079	52.22
291.294	35.84
291.509	39.94
291.724	111.61
291.938	-1.02
292.153	46.08
292.368	58.37
292.583	64.51
292.798	109.57
293.012	68.61
293.227	115.71
293.442	-35.84
293.657	54.27
293.871	101.37
294.086	87.04
294.301	191.49
294.516	21.5
294.73	-31.74
294.945	17.41
295.16	-41.98
295.374	138.24
295.589	87.04
295.804	19.46
296.018	105.47
296.233	93.18
296.447	48.13
296.662	-58.37
296.877	58.37
297.091	121.85
297.306	119.81
297.52	41.98
297.735	89.09
297.949	19.46
298.164	76.8
298.378	82.94
298.593	-19.46
298.807	44.03
299.022	44.03
299.236	60.42
299.451	-37.89
299.665	56.32
299.88	17.41
300.094	60.42
300.309	-1.02
300.523	52.22
300.737	23.55
300.952	-21.5
301.166	37.89
301.381	-3.07
301.595	7.17
301.809	62.46
302.024	-29.7
302.238	7.17
302.452	-1.02
302.667	21.5
302.881	111.61
303.095	37.89
303.309	25.6
303.524	23.55
303.738	-5.12
303.952	-3.07
304.166	80.89
304.381	-148.48
304.595	91.13
304.809	-5.12
305.023	89.09
305.237	25.6
305.452	-60.42
305.666	101.37
305.88	80.89
306.094	80.89
306.308	144.38
306.522	101.37
306.736	33.79
306.95	119.81
307.164	31.74
307.379	27.65
307.593	199.68
307.807	146.43
308.021	5.12
308.235	138.24
308.449	-82.94
308.663	15.36
308.877	152.57
309.091	70.65
309.305	113.66
309.519	-74.75
309.733	111.61
309.947	-72.7
310.161	97.28
310.374	162.81
310.588	117.76
310.802	-23.55
311.016	80.89
311.23	103.42
311.444	-68.61
311.658	21.5
311.872	105.47
312.085	179.2
312.299	82.94
312.513	130.05
312.727	37.89
312.941	84.99
313.154	109.57
313.368	5.12
313.582	89.09
313.796	56.32
314.009	52.22
314.223	72.7
314.437	101.37
314.651	128
314.864	11.26
315.078	-3.07
315.292	-1.02
315.505	29.7
315.719	-9.22
315.933	46.08
316.146	56.32
316.36	-68.61
316.573	70.65
316.787	35.84
317.001	48.13
317.214	-113.66
317.428	-25.6
317.641	-9.22
317.855	-84.99
318.068	31.74
318.282	76.8
318.495	187.39
318.709	107.52
318.922	-33.79
319.136	97.28
319.349	84.99
319.563	-41.98
319.776	46.08
319.99	-80.89
320.203	89.09
320.417	111.61
320.63	39.94
320.843	119.81
321.057	80.89
321.27	33.79
321.483	56.32
321.697	113.66
321.91	113.66
322.124	52.22
322.337	119.81
322.55	-25.6
322.763	-23.55
322.977	-56.32
323.19	-5.12
323.403	-46.08
323.617	66.56
323.83	138.24
324.043	66.56
324.256	-48.13
324.469	-68.61
324.683	89.09
324.896	-9.22
325.109	39.94
325.322	-41.98
325.535	72.7
325.748	105.47
325.962	21.5
326.175	35.84
326.388	46.08
326.601	99.33
326.814	82.94
327.027	82.94
327.24	113.66
327.453	-31.74
327.666	23.55
327.879	115.71
328.092	113.66
328.305	82.94
328.518	23.55
328.731	11.26
328.944	56.32
329.157	138.24
329.37	62.46
329.583	128
329.796	134.14
330.009	-97.28
330.222	72.7
330.435	123.9
330.648	27.65
330.861	46.08
331.073	-52.22
331.286	23.55
331.499	56.32
331.712	-62.46
331.925	29.7
332.138	80.89
332.35	115.71
332.563	5.12
332.776	46.08
332.989	-46.08
333.202	56.32
333.414	29.7
333.627	48.13
333.84	27.65
334.053	27.65
334.265	-11.26
334.478	-41.98
334.691	50.18
334.903	35.84
335.116	-31.74
335.329	21.5
335.541	80.89
335.754	136.19
335.966	68.61
336.179	54.27
336.392	-19.46
336.604	39.94
336.817	11.26
337.029	39.94
337.242	27.65
337.454	105.47
337.667	39.94
337.88	103.42
338.092	99.33
338.305	58.37
338.517	23.55
338.729	119.81
338.942	138.24
339.154	-44.03
339.367	-29.7
339.579	109.57
339.792	17.41
340.004	60.42
340.217	60.42
340.429	70.65
340.641	37.89
340.854	-107.52
341.066	-68.61
341.278	46.08
341.491	173.05
341.703	7.17
341.915	-46.08
342.128	97.28
342.34	15.36
342.552	-25.6
342.764	35.84
342.977	5.12
343.189	60.42
343.401	80.89
343.613	-66.56
343.826	48.13
344.038	-27.65
344.25	121.85
344.462	-33.79
344.674	62.46
344.886	23.55
345.099	29.7
345.311	97.28
345.523	37.89
345.735	-54.27
345.947	64.51
346.159	146.43
346.371	89.09
346.583	-44.03
346.795	218.11
347.007	-11.26
347.219	33.79
347.431	29.7
347.643	80.89
347.855	19.46
348.067	115.71
348.279	-62.46
348.491	113.66
348.703	70.65
348.915	-23.55
349.127	-103.42
349.339	48.13
349.551	-33.79
349.763	115.71
349.975	31.74
350.187	82.94
350.399	50.18
350.61	39.94
350.822	44.03
351.034	60.42
351.246	7.17
351.458	70.65
351.669	56.32
351.881	162.81
352.093	21.5
352.305	150.53
352.517	84.99
352.728	125.95
352.94	15.36
353.152	80.89
353.363	-87.04
353.575	107.52
353.787	136.19
353.999	41.98
354.21	93.18
354.422	-7.17
354.633	-70.65
354.845	60.42
355.057	64.51
355.268	31.74
355.48	93.18
355.692	-119.81
355.903	-25.6
356.115	-82.94
356.326	-76.8
356.538	152.57
356.749	68.61
356.961	103.42
357.172	-21.5
357.384	-33.79
357.595	171.01
357.807	3.07
358.018	-5.12
358.23	31.74
358.441	125.95
358.653	31.74
358.864	13.31
359.075	-74.75
359.287	125.95
359.498	29.7
359.709	54.27
359.921	3.07
360.132	60.42
360.344	56.32
360.555	15.36
360.766	97.28
360.977	54.27
361.189	82.94
361.4	31.74
361.611	64.51
361.823	150.53
362.034	91.13
362.245	-58.37
362.456	1.02
362.667	37.89
362.879	-37.89
363.09	-74.75
363.301	50.18
363.512	9.22
363.723	-5.12
363.935	15.36
364.146	35.84
364.357	25.6
364.568	35.84
364.779	-37.89
364.99	39.94
365.201	-1.02
365.412	101.37
365.623	-15.36
365.834	31.74
366.045	56.32
366.256	48.13
366.467	78.85
366.678	21.5
366.889	52.22
367.1	-33.79
367.311	87.04
367.522	-41.98
367.733	60.42
367.944	84.99
368.155	64.51
368.366	97.28
368.577	121.85
368.788	130.05
368.999	-70.65
369.209	39.94
369.42	154.62
369.631	175.1
369.842	107.52
370.053	89.09
370.264	91.13
370.474	-3.07
370.685	72.7
370.896	48.13
371.107	132.09
371.317	56.32
371.528	48.13
371.739	146.43
371.95	95.23
372.16	99.33
372.371	-9.22
372.582	44.03
372.792	95.23
373.003	80.89
373.214	7.17
373.424	93.18
373.635	-17.41
373.846	70.65
374.056	-1.02
374.267	-7.17
374.477	56.32
374.688	-37.89
374.898	46.08
375.109	11.26
375.319	50.18
375.53	76.8
375.74	68.61
375.951	13.31
376.161	64.51
376.372	103.42
376.582	44.03
376.793	21.5
377.003	29.7
377.214	46.08
377.424	107.52
377.635	39.94
377.845	-70.65
378.055	121.85
378.266	-68.61
378.476	48.13
378.686	54.27
378.897	82.94
379.107	105.47
379.317	-17.41
379.528	105.47
379.738	134.14
379.948	-35.84
380.158	140.29
380.369	54.27
380.579	91.13
380.789	41.98
380.999	39.94
381.21	103.42
381.42	128
381.63	60.42
381.84	91.13
382.05	62.46
382.261	199.68
382.471	103.42
382.681	1.02
382.891	78.85
383.101	140.29
383.311	-50.18
383.521	15.36
383.731	-1.02
383.941	68.61
384.151	97.28
384.361	-5.12
384.571	64.51
384.781	78.85
384.991	130.05
385.201	72.7
385.411	60.42
385.621	97.28
385.831	5.12
386.041	76.8
386.251	-11.26
386.461	48.13
386.671	15.36
386.881	39.94
387.091	68.61
387.301	80.89
387.511	72.7
387.72	72.7
387.93	7.17
388.14	5.12
388.35	9.22
388.56	60.42
388.769	25.6
388.979	74.75
389.189	-54.27
389.399	64.51
389.609	35.84
389.818	105.47
390.028	33.79
390.238	23.55
390.447	44.03
390.657	95.23
390.867	13.31
391.076	-52.22
391.286	101.37
391.496	76.8
391.705	21.5
391.915	107.52
392.125	103.42
392.334	48.13
392.544	125.95
392.753	115.71
392.963	-1.02
393.172	84.99
393.382	-25.6
393.591	125.95
393.801	19.46
394.01	105.47
394.22	35.84
394.429	41.98
394.639	-25.6
394.848	95.23
395.058	29.7
395.267	31.74
395.477	35.84
395.686	97.28
395.895	115.71
396.105	130.05
396.314	15.36
396.524	39.94
396.733	-21.5
396.942	80.89
397.152	19.46
397.361	117.76
397.57	23.55
397.78	58.37
397.989	19.46
398.198	214.01
398.407	72.7
398.617	-9.22
398.826	56.32
399.035	80.89
399.244	128
399.453	58.37
399.663	21.5
399.872	39.94
400.081	3.07
400.29	130.05
400.499	-84.99
400.708	95.23
400.917	78.85
401.127	82.94
401.336	-31.74
401.545	171.01
401.754	168.96
401.963	117.76
402.172	19.46
402.381	-60.42
402.59	84.99
402.799	60.42
403.008	78.85
403.217	70.65
403.426	130.05
403.635	-109.57
403.844	115.71
404.053	1.02
404.262	35.84
404.471	160.77
404.68	35.84
404.888	9.22
405.097	44.03
405.306	60.42
405.515	1.02
405.724	37.89
405.933	70.65
406.142	50.18
406.35	134.14
406.559	78.85
406.768	91.13
406.977	203.77
407.185	-29.7
407.394	87.04
407.603	-1.02
407.812	37.89
408.02	111.61
408.229	64.51
408.438	13.31
408.646	11.26
408.855	68.61
409.064	-5.12
409.272	-1.02
409.481	99.33
409.69	-60.42
409.898	-52.22
410.107	54.27
410.315	109.57
410.524	66.56
410.733	54.27
410.941	66.56
411.15	91.13
411.358	13.31
411.567	158.72
411.775	46.08
411.984	44.03
412.192	62.46
412.401	5.12
412.609	183.29
412.818	54.27
413.026	56.32
413.234	-21.5
413.443	7.17
413.651	-7.17
413.86	-9.22
414.068	111.61
414.276	162.81
414.485	60.42
414.693	199.68
414.901	175.1
415.11	41.98
415.318	80.89
415.526	37.89
415.734	56.32
415.943	64.51
416.151	95.23
416.359	64.51
416.567	48.13
416.776	142.33
416.984	103.42
417.192	191.49
417.4	-23.55
417.608	-13.31
417.817	-17.41
418.025	82.94
418.233	125.95
418.441	-9.22
418.649	-87.04
418.857	105.47
419.065	130.05
419.273	15.36
419.481	58.37
419.689	35.84
419.897	31.74
420.105	13.31
420.313	123.9
420.521	80.89
420.729	119.81
420.937	-1.02
421.145	-13.31
421.353	62.46
421.561	150.53
421.769	72.7
421.977	-25.6
422.185	128
422.393	66.56
422.601	82.94
422.809	31.74
423.017	11.26
423.224	54.27
423.432	103.42
423.64	44.03
423.848	101.37
424.056	-99.33
424.263	138.24
424.471	58.37
424.679	152.57
424.887	-19.46
425.094	238.59
425.302	84.99
425.51	175.1
425.718	84.99
425.925	31.74
426.133	7.17
426.341	232.44
426.548	105.47
426.756	95.23
426.964	95.23
427.171	-74.75
427.379	107.52
427.586	-17.41
427.794	154.62
428.001	93.18
428.209	27.65
428.417	113.66
428.624	64.51
428.832	17.41
429.039	115.71
429.247	54.27
429.454	134.14
429.662	142.33
429.869	64.51
430.076	105.47
430.284	48.13
430.491	187.39
430.699	144.38
430.906	144.38
431.114	138.24
431.321	107.52
431.528	87.04
431.736	138.24
431.943	234.49
432.15	123.9
432.358	119.81
432.565	152.57
432.772	-19.46
432.979	232.44
433.187	89.09
433.394	197.63
433.601	23.55
433.808	134.14
434.016	203.77
434.223	173.05
434.43	101.37
434.637	218.11
434.844	222.2
435.052	252.92
435.259	226.3
435.466	187.39
435.673	181.25
435.88	283.64
436.087	259.07
436.294	220.16
436.501	283.64
436.708	226.3
436.915	211.96
437.122	295.93
437.329	236.54
437.537	261.12
437.743	240.64
437.95	371.71
438.157	222.2
438.364	297.98
438.571	265.21
438.778	285.69
438.985	338.94
439.192	351.23
439.399	222.2
439.606	367.61
439.813	496.63
440.02	543.74
440.227	459.77
440.433	445.43
440.64	459.77
440.847	343.03
441.054	439.29
441.261	523.26
441.467	480.25
441.674	453.63
441.881	523.26
442.088	504.82
442.294	558.07
442.501	535.54
442.708	635.89
442.914	519.16
443.121	623.61
443.328	619.51
443.534	726
443.741	650.23
443.948	551.93
444.154	703.48
444.361	893.94
444.568	711.67
444.774	705.53
444.981	742.39
445.187	879.6
445.394	807.92
445.6	783.35
445.807	928.75
446.013	906.23
446.22	818.16
446.426	982
446.633	1002.48
446.839	1149.93
447.046	910.32
447.252	1225.71
447.459	1192.94
447.665	1088.5
447.871	1254.38
448.078	1369.07
448.284	1375.21
448.491	1371.12
448.697	1473.51
448.903	1481.71
449.11	1493.99
449.316	1534.95
449.522	1653.73
449.728	1698.79
449.935	1768.42
450.141	1809.38
450.347	1874.92
450.553	1901.54
450.76	1901.54
450.966	1928.16
451.172	2083.81
451.378	2163.68
451.584	2282.46
451.791	2560.98
451.997	2509.79
452.203	2458.59
452.409	2800.6
452.615	2771.93
452.821	2612.18
453.027	2681.82
453.233	3148.75
453.44	3005.39
453.646	2964.43
453.852	3191.76
454.058	3380.17
454.264	3396.56
454.47	3759.05
454.676	3642.31
454.882	4213.7
455.088	3943.36
455.294	3980.23
455.5	4289.47
455.705	4668.34
455.911	4422.59
456.117	4680.63
456.323	4850.61
456.529	5067.7
456.735	5374.89
456.941	5518.25
457.147	5903.27
457.352	5788.58
457.558	5936.04
457.764	6405.02
457.97	6493.08
458.176	6728.6
458.381	7023.51
458.587	7289.74
458.793	7601.04
458.999	7584.65
459.204	8518.53
459.41	8772.47
459.616	8876.92
459.821	9259.89
460.027	9692.01
460.233	10070.89
460.438	10236.77
460.644	10595.17
460.85	10687.32
461.055	11117.4
461.261	11823.95
461.466	11502.42
461.672	11658.06
461.878	12954.43
462.083	13060.92
462.289	13191.99
462.494	13726.51
462.7	13687.6
462.905	13994.79
463.111	15418.13
463.316	15903.5
463.522	16388.87
463.727	16476.93
463.932	17251.06
464.138	18053.87
464.343	18490.09
464.549	18631.4
464.754	20019.92
464.959	20406.98
465.165	21066.43
465.37	20693.7
465.575	20890.31
465.781	22045.36
465.986	22995.62
466.191	22581.93
466.397	22674.09
466.602	22010.54
466.807	23567
467.012	24060.56
467.218	24101.52
467.423	24259.21
467.628	25123.46
467.833	26069.62
468.038	25938.55
468.244	25449.08
468.449	26772.07
468.654	26268.27
468.859	26204.78
469.064	26176.11
469.269	25537.15
469.474	25670.26
469.679	26638.95
469.885	25565.82
470.09	26040.95
470.295	26059.38
470.5	25475.71
470.705	25823.86
470.91	24912.52
471.115	24556.17
471.32	24990.34
471.525	24939.14
471.73	24314.51
471.935	24062.61
472.139	23521.95
472.344	23450.27
472.549	23315.1
472.754	22803.11
472.959	22387.37
473.164	21451.45
473.369	21203.64
473.574	21727.92
473.778	21359.29
473.983	21050.05
474.188	20699.84
474.393	19385.05
474.598	19540.69
474.802	18967.26
475.007	18684.64
475.212	18567.91
475.417	17869.55
475.621	17912.56
475.826	17658.61
476.031	17361.66
476.235	16851.71
476.44	16749.31
476.645	16235.27
476.849	16257.8
477.054	15934.22
477.259	15514.39
477.463	15684.37
477.668	15307.54
477.872	15250.2
478.077	14906.14
478.282	14445.35
478.486	14240.55
478.691	14160.68
478.895	13884.2
479.1	13869.87
479.304	13814.57
479.509	13087.54
479.713	13433.65
479.918	12972.86
480.122	12792.64
480.326	13026.11
480.531	13071.16
480.735	12682.05
480.94	12305.22
481.144	12802.88
481.348	12305.22
481.553	12424
481.757	11961.16
481.961	12219.21
482.166	12309.32
482.37	12024.65
482.574	11696.97
482.778	11617.1
482.983	12004.17
483.187	11660.11
483.391	11725.65
483.595	11213.65
483.8	11217.75
484.004	11088.73
484.208	11146.07
484.412	11221.84
484.616	10924.89
484.821	10922.84
485.025	10605.41
485.229	10662.75
485.433	10427.23
485.637	10382.18
485.841	10038.12
486.045	10025.83
486.249	9950.06
486.453	9597.81
486.657	9665.39
486.861	9530.22
487.065	9304.95
487.269	9091.96
487.473	9071.48
487.677	8964.98
487.881	9204.6
488.085	8674.17
488.289	8622.97
488.493	8338.3
488.697	8547.2
488.901	8049.54
489.105	8098.69
489.309	7932.81
489.512	7762.83
489.716	7570.32
489.92	7330.7
490.124	7318.42
490.328	7457.68
490.531	7144.34
490.735	7162.77
490.939	6757.27
491.143	6744.99
491.346	6667.16
491.55	6763.42
491.754	6550.43
491.958	6474.65
492.161	6265.76
492.365	6288.29
492.569	6216.61
492.772	6118.31
492.976	5987.24
493.18	5778.34
493.383	5878.69
493.587	5661.61
493.79	5757.86
493.994	5600.17
494.197	5661.61
494.401	5540.78
494.605	5577.64
494.808	5571.5
495.012	5667.75
495.215	5249.97
495.419	5538.73
495.622	5161.91
495.825	5278.64
496.029	5307.31
496.232	5276.59
496.436	5231.54
496.639	5362.61
496.843	5110.71
497.046	5348.27
497.249	5381.04
497.453	5415.85
497.656	5309.36
497.859	5231.54
498.063	5376.94
498.266	5487.53
498.469	5249.97
498.673	5188.53
498.876	5424.05
499.079	5303.22
499.282	5505.96
499.485	5608.36
499.689	5477.29
499.892	5608.36
500.095	5626.79
500.298	5553.07
500.501	5473.2
500.705	5688.23
500.908	5718.95
501.111	5766.06
501.314	5843.88
501.517	5968.8
501.72	5864.36
501.923	5997.48
502.126	6077.35
502.329	6273.95
502.532	6314.91
502.735	6325.15
502.938	6591.39
503.141	6554.52
503.344	6618.01
503.547	6759.32
503.75	6851.48
503.953	6654.87
504.156	6779.8
504.359	7048.08
504.562	6986.65
504.765	7347.09
504.968	7498.64
505.17	7416.72
505.373	7459.73
505.576	7926.66
505.779	8088.45
505.982	7877.51
506.185	8291.2
506.387	8203.14
506.59	8567.68
506.793	8563.58
506.996	8633.21
507.198	9065.33
507.401	9157.49
507.604	9218.93
507.807	9479.02
508.009	9792.36
508.212	9765.74
508.415	9833.32
508.617	10322.79
508.82	10337.12
509.022	10445.66
509.225	11072.34
509.428	11074.39
509.63	11221.84
509.833	11625.29
510.035	12110.66
510.238	12090.18
510.44	12385.09
510.643	12813.12
510.845	12813.12
511.048	13024.06
511.25	13495.09
511.453	13712.17
511.655	14392.1
511.858	14717.73
512.06	14844.7
512.262	15186.71
512.465	15483.67
512.667	15817.49
512.87	16010
513.072	16405.25
513.274	17036.03
513.477	17089.28
513.679	17576.69
513.881	18303.72
514.084	18365.16
514.286	18762.47
514.488	19077.85
514.69	19933.9
514.893	20320.97
515.095	20439.75
515.297	20683.46
515.499	21559.99
515.701	21635.77
515.904	22284.97
516.106	22981.28
516.308	23540.38
516.51	23659.16
516.712	24251.02
516.914	24763.01
517.116	25152.13
517.318	25887.35
517.52	26380.91
517.722	26436.2
517.925	27273.82
518.127	27837.02
518.329	28494.41
518.531	28260.94
518.733	29037.12
518.935	29893.18
519.136	30143.03
519.338	30835.24
519.54	31703.58
519.742	31451.68
519.944	31941.14
520.146	32725.52
520.348	33415.68
520.55	33942.01
520.752	34079.22
520.954	35006.95
521.155	34435.57
521.357	35359.2
521.559	35920.35
521.761	36233.69
521.963	36618.71
522.164	36839.89
522.366	37392.84
522.568	37896.64
522.77	37802.43
522.971	38748.59
523.173	38212.02
523.375	38711.73
523.576	38828.46
523.778	38465.97
523.98	39813.54
524.181	39971.23
524.383	39436.71
524.584	40104.35
524.786	39911.84
524.988	39649.7
525.189	40243.61
525.391	40247.71
525.592	40614.29
525.794	40720.79
525.995	40294.81
526.197	40649.11
526.398	40511.89
526.6	40688.02
526.801	40602
527.003	40468.89
527.204	40497.56
527.406	40262.04
527.607	40044.96
527.808	40276.38
528.01	39492.01
528.211	39461.29
528.412	39799.2
528.614	39346.6
528.815	38797.74
529.016	39086.51
529.218	37835.2
529.419	38199.74
529.62	38027.71
529.822	37437.89
530.023	37566.91
530.224	36768.21
530.425	36547.03
530.626	36121.05
530.828	35783.13
531.029	36045.27
531.23	35246.57
531.431	34415.09
531.632	34265.59
531.833	34304.5
532.035	33378.82
532.236	33301
532.437	32956.94
532.638	32512.53
532.839	32588.3
533.04	32021.02
533.241	31425.06
533.442	31640.09
533.643	30771.75
533.844	30249.52
534.045	29788.73
534.246	29477.44
534.447	28922.44
534.648	28887.62
534.849	28617.29
535.05	27693.66
535.251	27501.15
535.451	27245.15
535.652	27091.55
535.853	26270.32
536.054	26456.68
536.255	25821.81
536.456	25750.14
536.657	25279.1
536.857	25223.81
537.058	24615.56
537.259	24386.19
537.46	23689.88
537.66	23276.19
537.861	23032.48
538.062	22882.98
538.263	22536.87
538.463	22407.85
538.664	22362.79
538.865	21680.82
539.065	21965.49
539.266	21275.32
539.466	21156.54
539.667	20339.4
539.868	20759.24
540.068	20169.42
540.269	19970.77
540.469	19933.9
540.67	19704.53
540.87	19331.8
541.071	18973.41
541.271	18879.2
541.472	18746.08
541.672	18320.1
541.873	18442.98
542.073	18004.72
542.274	17924.85
542.474	17685.23
542.675	17517.3
542.875	17531.64
543.075	17263.35
543.276	16648.96
543.476	16800.51
543.676	16380.68
543.877	16268.04
544.077	16167.69
544.277	15778.58
544.478	15653.65
544.678	15717.14
544.878	15401.75
545.078	15340.31
545.279	15135.51
545.479	14920.48
545.679	14895.9
545.879	14396.2
546.079	14471.97
546.28	14109.48
546.48	13982.51
546.68	13859.63
546.88	13802.29
547.08	13663.02
547.28	13368.12
547.48	13103.93
547.68	13175.61
547.88	12917.56
548.081	12749.63
548.281	12454.72
548.481	12485.44
548.681	12344.13
548.881	12200.77
549.081	12028.74
549.28	11928.39
549.48	11940.68
549.68	11615.05
549.88	11514.7
550.08	11250.52
550.28	10959.7
550.48	10984.28
550.68	10525.54
550.88	10593.12
551.08	10351.46
551.279	10462.05
551.479	9976.68
551.679	9956.2
551.879	9907.05
552.079	9878.38
552.278	9515.89
552.478	9710.44
552.678	9390.96
552.878	9220.98
553.077	8893.3
553.277	8913.78
553.477	8756.09
553.676	8661.88
553.876	8530.81
554.076	8364.93
554.275	8270.72
554.475	8012.68
554.674	8108.93
554.874	7959.43
555.074	7627.66
555.273	7732.11
555.473	7623.56
555.672	7431.05
555.872	7359.38
556.071	7203.73
556.271	7117.72
556.47	6853.53
556.67	6761.37
556.869	6464.41
557.068	6552.48
557.268	6462.37
557.467	6292.38
557.667	6331.3
557.866	6239.14
558.065	6099.87
558.265	5845.93
558.464	5829.54
558.663	5772.2
558.863	5737.38
559.062	5675.95
559.261	5520.3
559.461	5434.29
559.66	5315.5
559.859	5131.19
560.058	5063.6
560.258	5014.45
560.457	4889.53
560.656	5049.27
560.855	4881.33
561.054	4848.57
561.253	4750.26
561.453	4635.58
561.652	4502.46
561.851	4541.37
562.05	4438.97
562.249	4156.35
562.448	4170.69
562.647	4115.39
562.846	4012.99
563.045	4148.16
563.244	4078.53
563.443	3929.03
563.642	3781.57
563.841	3804.1
564.04	3824.58
564.239	3849.16
564.438	3701.7
564.637	3521.48
564.836	3509.19
565.035	3376.08
565.234	3492.81
565.432	3445.71
565.631	3361.74
565.83	3341.26
566.029	3158.99
566.228	3122.13
566.427	3361.74
566.625	2991.06
566.824	3126.22
567.023	2978.77
567.222	2946
567.42	2888.66
567.619	2759.64
567.818	2788.31
568.016	2800.6
568.215	2655.19
568.414	2849.75
568.612	2755.54
568.811	2640.86
569.01	2534.36
569.208	2458.59
569.407	2567.13
569.605	2382.81
569.804	2446.3
570.002	2399.2
570.201	2380.76
570.4	2360.28
570.598	2354.14
570.797	2247.65
570.995	2204.64
571.193	2157.54
571.392	2167.77
571.59	1975.27
571.789	2186.21
571.987	2165.73
572.186	2010.08
572.384	1895.4
572.582	1977.31
572.781	1985.51
572.979	1911.78
573.177	1901.54
573.376	1827.81
573.574	1854.44
573.772	1793
573.971	1817.57
574.169	1623.02
574.367	1713.13
574.565	1702.89
574.763	1580.01
574.962	1674.21
575.16	1586.15
575.358	1563.62
575.556	1508.33
575.754	1534.95
575.952	1543.14
576.151	1430.51
576.349	1412.07
576.547	1346.54
576.745	1338.35
576.943	1455.08
577.141	1295.34
577.339	1274.86
577.537	1315.82
577.735	1342.44
577.933	1219.57
578.131	1227.76
578.329	1334.25
578.527	1201.13
578.725	1285.1
578.923	1076.21
579.121	1188.85
579.319	1063.92
579.516	1125.36
579.714	1242.09
579.912	982
580.11	1027.06
580.308	941.04
580.506	1029.1
580.704	891.89
580.901	916.47
581.099	1094.64
581.297	979.95
581.495	1033.2
581.692	932.85
581.89	1129.45
582.088	965.62
582.285	934.9
582.483	859.12
582.681	857.07
582.878	900.08
583.076	875.51
583.274	795.64
583.471	906.23
583.669	902.13
583.866	746.48
584.064	760.82
584.262	650.23
584.459	633.85
584.657	769.01
584.854	760.82
585.052	754.68
585.249	728.05
585.447	656.37
585.644	568.31
585.841	760.82
586.039	685.05
586.236	779.25
586.434	695.29
586.631	652.28
586.828	662.52
587.026	658.42
587.223	556.02
587.42	625.65
587.618	648.18
587.815	670.71
588.012	668.66
588.21	582.65
588.407	625.65
588.604	570.36
588.801	596.98
588.999	611.32
589.196	611.32
589.393	527.35
589.59	584.7
589.787	617.46
589.984	484.34
590.182	521.21
590.379	427
590.576	525.3
590.773	586.74
590.97	513.02
591.167	558.07
591.364	556.02
591.561	504.82
591.758	648.18
591.955	470.01
592.152	443.39
592.349	515.06
592.546	496.63
592.743	406.52
592.94	441.34
593.137	535.54
593.334	539.64
593.531	486.39
593.727	601.08
593.924	535.54
594.121	506.87
594.318	531.45
594.515	525.3
594.712	580.6
594.908	662.52
595.105	449.53
595.302	580.6
595.499	465.91
595.696	605.17
595.892	515.06
596.089	629.75
596.286	498.68
596.482	676.85
596.679	533.5
596.876	596.98
597.072	728.05
597.269	578.55
597.466	633.85
597.662	621.56
597.859	613.37
598.055	711.67
598.252	789.49
598.448	705.53
598.645	812.02
598.841	863.22
599.038	836.6
599.234	895.99
599.431	834.55
599.627	920.56
599.824	957.43
600.02	984.05
600.217	986.1
600.413	1090.54
600.609	1031.15
600.806	1311.72
601.002	1311.72
601.198	1133.55
601.395	1313.77
601.591	1307.63
601.787	1383.4
601.984	1459.18
602.18	1336.3
602.376	1493.99
602.572	1489.9
602.769	1639.4
602.965	1561.58
603.161	1737.7
603.357	1784.8
603.553	1858.53
603.75	1721.32
603.946	1911.78
604.142	2034.66
604.338	2276.32
604.534	2141.15
604.73	2157.54
604.926	2243.55
605.122	2354.14
605.318	2399.2
605.514	2554.84
605.71	2505.69
605.906	2677.72
606.102	2706.39
606.298	2872.28
606.494	2853.84
606.69	3130.32
606.886	3163.09
607.082	3042.26
607.278	3091.41
607.474	3298.25
607.67	3429.32
607.866	3392.46
608.062	3828.68
608.257	3754.95
608.453	3654.6
608.649	3986.37
608.845	3926.98
609.041	3904.45
609.236	4252.61
609.432	4381.63
609.628	4463.55
609.824	4676.54
610.019	4742.07
610.215	4893.62
610.411	4928.44
610.606	5288.88
610.802	5122.99
610.998	5446.57
611.193	5643.18
611.389	5489.58
611.584	5847.97
611.78	5807.02
611.976	6083.49
612.171	6505.37
612.367	6425.5
612.562	6536.09
612.758	6749.08
612.953	6837.14
613.149	7089.04
613.344	7297.94
613.539	7613.32
613.735	7797.64
613.93	7883.66
614.126	8070.02
614.321	8274.82
614.517	8473.47
614.712	8655.74
614.907	8909.69
615.103	9124.72
615.298	9382.77
615.493	9509.74
615.688	9788.27
615.884	10171.24
616.079	10148.71
616.274	10537.82
616.47	10804.06
616.665	10937.18
616.86	11340.63
617.055	11598.67
617.25	11797.32
617.445	12172.1
617.641	12294.98
617.836	12723.01
618.031	12968.76
618.226	13470.51
618.421	13581.1
618.616	14172.97
618.811	14160.68
619.006	14773.02
619.201	15000.35
619.396	15420.18
619.591	15567.63
619.786	16079.63
619.981	16145.16
620.176	16630.53
620.371	16835.33
620.566	17287.93
620.761	17509.11
620.956	18146.03
621.151	18291.43
621.346	18772.71
621.541	18938.59
621.735	19555.03
621.93	19602.13
622.125	20118.22
622.32	20302.54
622.515	20947.65
622.709	20978.37
622.904	21666.49
623.099	21852.85
623.294	22590.12
623.488	22254.25
623.683	22975.14
623.878	23104.16
624.072	23921.3
624.267	24238.73
624.462	24496.78
624.656	24771.21
624.851	25473.66
625.046	25485.95
625.24	25897.59
625.435	26280.56
625.629	26853.99
625.824	27312.74
626.018	27609.69
626.213	27490.91
626.407	27920.98
626.602	27910.74
626.796	28555.85
626.991	28869.19
627.185	29076.04
627.38	29311.55
627.574	28965.45
627.768	29442.62
627.963	29938.23
628.157	29424.19
628.352	30267.95
628.546	30061.11
628.74	30329.39
628.935	30198.32
629.129	30419.5
629.323	29915.7
629.517	29592.12
629.712	29811.26
629.906	29346.37
630.1	28820.04
630.294	29076.04
630.489	28459.6
630.683	28340.82
630.877	27529.82
631.071	27318.88
631.265	27017.83
631.459	26456.68
631.653	26024.56
631.848	25078.4
632.042	24808.07
632.236	24566.41
632.43	23472.79
632.624	23251.61
632.818	22354.6
633.012	21713.59
633.206	20943.55
633.4	20583.11
633.594	19632.85
633.788	19182.3
633.982	18481.89
634.176	17881.84
634.369	17230.59
634.563	16417.54
634.757	15858.45
634.951	15522.58
635.145	14885.66
635.339	14056.23
635.533	13699.89
635.726	13212.47
635.92	12358.47
636.114	12145.48
636.308	11561.81
636.501	10947.42
636.695	10812.25
636.889	10068.84
637.083	9825.13
637.276	9268.08
637.47	9007.99
637.664	8719.23
637.857	8340.35
638.051	8051.59
638.244	7660.43
638.438	7408.53
638.632	7109.52
638.825	6648.73
639.019	6613.92
639.212	6335.39
639.406	6036.39
639.599	5811.11
639.793	5616.55
639.986	5221.3
640.18	5274.54
640.373	4985.78
640.567	4742.07
640.76	4561.85
640.954	4424.64
641.147	4160.45
641.34	4101.06
641.534	3834.82
641.727	3767.24
641.92	3666.89
642.114	3675.08
642.307	3230.67
642.5	3240.91
642.694	2995.15
642.887	2903
643.08	2995.15
643.273	2855.89
643.467	2636.76
643.66	2493.4
643.853	2423.77
644.046	2403.29
644.239	2391
644.432	2116.58
644.626	2005.99
644.819	2161.63
645.012	1940.45
645.205	1962.98
645.398	1881.06
645.591	1760.23
645.784	1567.72
645.977	1387.5
646.17	1580.01
646.363	1563.62
646.556	1295.34
646.749	1301.48
646.942	1283.05
647.135	1317.87
647.328	1166.32
647.521	1260.52
647.714	1131.5
647.907	1041.39
648.099	1002.48
648.292	1070.06
648.485	1027.06
648.678	922.61
648.871	920.56
649.064	867.31
649.256	814.07
649.449	869.36
649.642	705.53
649.835	752.63
650.027	762.87
650.22	707.57
650.413	691.19
650.605	742.39
650.798	662.52
650.991	654.33
651.183	562.17
651.376	586.74
651.568	527.35
651.761	596.98
651.954	504.82
652.146	447.48
652.339	523.26
652.531	529.4
652.724	353.27
652.916	414.71
653.109	254.97
653.301	494.58
653.494	498.68
653.686	394.23
653.879	465.91
654.071	424.95
654.263	326.65
654.456	302.08
654.648	443.39
654.84	359.42
655.033	338.94
655.225	343.03
655.417	209.92
655.61	248.83
655.802	338.94
655.994	431.1
656.186	291.84
656.379	472.06
656.571	252.92
656.763	199.68
656.955	224.25
657.148	263.16
657.34	320.51
657.532	285.69
657.724	224.25
657.916	277.5
658.108	293.88
658.3	281.6
658.492	293.88
658.684	142.33
658.876	216.06
659.068	189.44
659.26	171.01
659.452	130.05
659.644	185.34
659.836	304.12
660.028	236.54
660.22	154.62
660.412	189.44
660.604	154.62
660.796	244.73
660.988	285.69
661.18	179.2
661.372	216.06
661.563	121.85
661.755	183.29
661.947	128
662.139	134.14
662.331	179.2
662.522	113.66
662.714	125.95
662.906	80.89
663.097	205.82
663.289	171.01
663.481	44.03
663.673	195.58
663.864	146.43
664.056	203.77
664.247	58.37
664.439	218.11
664.631	144.38
664.822	142.33
665.014	160.77
665.205	109.57
665.397	117.76
665.588	164.86
665.78	175.1
665.971	228.35
666.163	31.74
666.354	156.67
666.546	54.27
666.737	72.7
666.929	78.85
667.12	84.99
667.311	154.62
667.503	70.65
667.694	142.33
667.885	95.23
668.077	138.24
668.268	-3.07
668.459	113.66
668.651	119.81
668.842	144.38
669.033	46.08
669.224	48.13
669.416	234.49
669.607	-44.03
669.798	121.85
669.989	220.16
670.18	48.13
670.371	168.96
670.563	37.89
670.754	199.68
670.945	74.75
671.136	214.01
671.327	72.7
671.518	134.14
671.709	222.2
671.9	150.53
672.091	187.39
672.282	113.66
672.473	138.24
672.664	35.84
672.855	109.57
673.046	136.19
673.237	207.87
673.428	121.85
673.619	150.53
673.809	70.65
674	160.77
674.191	154.62
674.382	134.14
674.573	128
674.764	130.05
674.954	189.44
675.145	89.09
675.336	39.94
675.527	54.27
675.717	152.57
675.908	134.14
676.099	146.43
676.289	140.29
676.48	39.94
676.671	199.68
676.861	111.61
677.052	117.76
677.243	132.09
677.433	125.95
677.624	177.15
677.814	95.23
678.005	95.23
678.195	226.3
678.386	68.61
678.576	138.24
678.767	50.18
678.957	109.57
679.148	220.16
679.338	275.45
679.529	146.43
679.719	175.1
679.909	197.63
680.1	185.34
680.29	211.96
680.481	56.32
680.671	244.73
680.861	177.15
681.052	199.68
681.242	84.99
681.432	166.91
681.622	220.16
681.813	146.43
682.003	171.01
682.193	117.76
682.383	193.53
682.573	115.71
682.764	134.14
682.954	123.9
683.144	263.16
683.334	125.95
683.524	146.43
683.714	224.25
683.904	175.1
684.094	154.62
684.284	283.64
684.474	252.92
684.664	306.17
684.854	201.72
685.044	252.92
685.234	125.95
685.424	252.92
685.614	156.67
685.804	300.03
685.994	199.68
686.184	138.24
686.374	203.77
686.564	232.44
686.753	193.53
686.943	171.01
687.133	183.29
687.323	125.95
687.513	173.05
687.702	103.42
687.892	166.91
688.082	232.44
688.272	261.12
688.461	279.55
688.651	248.83
688.841	240.64
689.03	160.77
689.22	130.05
689.41	238.59
689.599	261.12
689.789	39.94
689.979	338.94
690.168	150.53
690.358	205.82
690.547	201.72
690.737	187.39
690.926	189.44
691.116	222.2
691.305	257.02
691.495	171.01
691.684	62.46
691.874	191.49
692.063	140.29
692.252	236.54
692.442	228.35
692.631	168.96
692.82	148.48
693.01	277.5
693.199	177.15
693.388	191.49
693.578	193.53
693.767	234.49
693.956	244.73
694.146	154.62
694.335	228.35
694.524	123.9
694.713	222.2
694.902	218.11
695.092	68.61
695.281	218.11
695.47	146.43
695.659	171.01
695.848	214.01
696.037	154.62
696.226	142.33
696.415	121.85
696.604	261.12
696.793	269.31
696.982	136.19
697.171	269.31
697.36	103.42
697.549	171.01
697.738	97.28
697.927	156.67
698.116	150.53
698.305	175.1
698.494	209.92
698.683	128
698.872	236.54
699.061	148.48
699.25	171.01
699.438	125.95
699.627	134.14
699.816	257.02
700.005	113.66
700.193	150.53
700.382	261.12
700.571	193.53
700.76	189.44
700.948	285.69
701.137	289.79
701.326	252.92
701.514	179.2
701.703	201.72
701.892	175.1
702.08	302.08
702.269	113.66
702.457	60.42
702.646	162.81
702.834	134.14
703.023	248.83
703.212	187.39
703.4	76.8
703.589	162.81
703.777	144.38
703.965	142.33
704.154	181.25
704.342	72.7
704.531	162.81
704.719	191.49
704.907	257.02
705.096	80.89
705.284	111.61
705.472	209.92
705.661	207.87
705.849	185.34
706.037	261.12
706.226	209.92
706.414	201.72
706.602	148.48
706.79	171.01
706.979	197.63
707.167	166.91
707.355	89.09
707.543	214.01
707.731	183.29
707.919	158.72
708.107	125.95
708.296	187.39
708.484	68.61
708.672	195.58
708.86	193.53
709.048	142.33
709.236	154.62
709.424	218.11
709.612	230.4
709.8	105.47
709.988	150.53
710.176	244.73
710.364	218.11
710.551	179.2
710.739	158.72
710.927	175.1
711.115	134.14
711.303	242.68
711.491	168.96
711.679	140.29
711.866	281.6
712.054	154.62
712.242	185.34
712.43	234.49
712.617	144.38
712.805	222.2
712.993	209.92
713.181	58.37
713.368	177.15
713.556	171.01
713.744	146.43
713.931	324.6
714.119	248.83
714.306	220.16
714.494	130.05
714.682	121.85
714.869	150.53
715.057	281.6
715.244	80.89
715.432	185.34
715.619	134.14
715.807	185.34
715.994	179.2
716.182	138.24
716.369	300.03
716.556	199.68
716.744	97.28
716.931	136.19
717.119	293.88
717.306	216.06
717.493	254.97
717.681	107.52
717.868	130.05
718.055	220.16
718.242	187.39
718.43	236.54
718.617	285.69
718.804	205.82
718.991	214.01
719.179	277.5
719.366	185.34
719.553	189.44
719.74	168.96
719.927	183.29
720.114	191.49
720.301	138.24
720.488	109.57
720.676	154.62
720.863	269.31
721.05	343.03
721.237	201.72
721.424	328.7
721.611	205.82
721.798	232.44
721.985	214.01
722.172	80.89
722.358	273.4
722.545	250.88
722.732	254.97
722.919	388.09
723.106	289.79
723.293	195.58
723.48	201.72
723.667	166.91
723.853	308.22
724.04	289.79
724.227	338.94
724.414	242.68
724.6	273.4
724.787	334.84
724.974	363.51
725.161	269.31
725.347	183.29
725.534	283.64
725.72	246.78
725.907	259.07
726.094	322.56
726.28	224.25
726.467	289.79
726.653	263.16
726.84	271.36
727.027	408.57
727.213	220.16
727.4	232.44
727.586	222.2
727.773	207.87
727.959	224.25
728.145	228.35
728.332	224.25
728.518	228.35
728.705	289.79
728.891	279.55
729.077	250.88
729.264	175.1
729.45	244.73
729.636	263.16
729.823	234.49
730.009	316.41
730.195	236.54
730.382	295.93
730.568	220.16
730.754	252.92
730.94	226.3
731.126	263.16
731.313	271.36
731.499	214.01
731.685	265.21
731.871	316.41
732.057	291.84
732.243	300.03
732.429	269.31
732.615	375.8
732.801	332.79
732.987	279.55
733.173	318.46
733.359	160.77
733.545	234.49
733.731	238.59
733.917	383.99
734.103	271.36
734.289	297.98
734.475	222.2
734.661	416.76
734.847	293.88
735.033	283.64
735.219	324.6
735.404	283.64
735.59	193.53
735.776	332.79
735.962	343.03
736.148	369.66
736.333	363.51
736.519	283.64
736.705	277.5
736.89	252.92
737.076	285.69
737.262	156.67
737.447	199.68
737.633	289.79
737.819	326.65
738.004	211.96
738.19	297.98
738.375	248.83
738.561	338.94
738.747	310.27
738.932	191.49
739.118	474.1
739.303	340.99
739.489	300.03
739.674	271.36
739.859	226.3
740.045	275.45
740.23	261.12
740.416	105.47
740.601	293.88
740.786	261.12
740.972	179.2
741.157	209.92
741.342	269.31
741.528	257.02
741.713	291.84
741.898	222.2
742.084	277.5
742.269	328.7
742.454	297.98
742.639	297.98
742.824	263.16
743.01	343.03
743.195	355.32
743.38	285.69
743.565	228.35
743.75	283.64
743.935	267.26
744.12	287.74
744.305	248.83
744.49	230.4
744.675	271.36
744.86	177.15
745.045	187.39
745.23	248.83
745.415	265.21
745.6	408.57
745.785	277.5
745.97	257.02
746.155	297.98
746.34	322.56
746.525	252.92
746.71	351.23
746.895	242.68
747.079	160.77
747.264	205.82
747.449	297.98
747.634	248.83
747.819	254.97
748.003	171.01
748.188	152.57
748.373	297.98
748.557	273.4
748.742	203.77
748.927	273.4
749.111	230.4
749.296	177.15
749.481	351.23
749.665	183.29
749.85	228.35
750.034	261.12
750.219	285.69
750.404	171.01
750.588	248.83
750.773	164.86
750.957	199.68
751.141	195.58
751.326	279.55
751.51	158.72
751.695	232.44
751.879	175.1
752.064	334.84
752.248	265.21
752.432	318.46
752.617	279.55
752.801	230.4
752.985	164.86
753.17	302.08
753.354	166.91
753.538	222.2
753.722	187.39
753.907	136.19
754.091	181.25
754.275	236.54
754.459	101.37
754.643	162.81
754.828	146.43
755.012	230.4
755.196	89.09
755.38	248.83
755.564	209.92
755.748	146.43
755.932	228.35
756.116	289.79
756.3	199.68
756.484	189.44
756.668	207.87
756.852	89.09
757.036	162.81
757.22	128
757.404	168.96
757.588	66.56
757.772	160.77
757.956	175.1
758.14	297.98
758.323	154.62
758.507	220.16
758.691	150.53
758.875	250.88
759.059	269.31
759.242	70.65
759.426	181.25
759.61	156.67
759.794	125.95
759.977	224.25
760.161	347.13
760.345	201.72
760.528	177.15
760.712	205.82
760.895	191.49
761.079	60.42
761.263	175.1
761.446	35.84
761.63	128
761.813	211.96
761.997	84.99
762.18	74.75
762.364	166.91
762.547	64.51
762.731	93.18
762.914	107.52
763.098	103.42
763.281	89.09
763.464	152.57
763.648	130.05
763.831	146.43
764.015	80.89
764.198	171.01
764.381	144.38
764.564	162.81
764.748	175.1
764.931	220.16
765.114	203.77
765.297	148.48
765.481	41.98
765.664	117.76
765.847	191.49
766.03	187.39
766.213	87.04
766.397	175.1
766.58	97.28
766.763	211.96
766.946	123.9
767.129	91.13
767.312	125.95
767.495	107.52
767.678	82.94
767.861	158.72
768.044	97.28
768.227	101.37
768.41	171.01
768.593	158.72
768.776	84.99
768.959	80.89
769.142	183.29
769.324	46.08
769.507	152.57
769.69	150.53
769.873	152.57
770.056	254.97
770.239	146.43
770.421	134.14
770.604	209.92
770.787	19.46
770.97	11.26
771.152	60.42
771.335	70.65
771.518	107.52
771.7	207.87
771.883	207.87
772.066	148.48
772.248	179.2
772.431	185.34
772.613	191.49
772.796	154.62
772.978	111.61
773.161	220.16
773.343	162.81
773.526	89.09
773.708	39.94
773.891	44.03
774.073	48.13
774.256	97.28
774.438	166.91
774.621	50.18
774.803	80.89
774.985	31.74
775.168	191.49
775.35	60.42
775.532	164.86
775.715	107.52
775.897	64.51
776.079	13.31
776.261	105.47
776.444	80.89
776.626	27.65
776.808	62.46
776.99	-5.12
777.173	60.42
777.355	-21.5
777.537	101.37
777.719	50.18
777.901	58.37
778.083	58.37
778.265	-19.46
778.447	152.57
778.629	44.03
778.811	95.23
778.993	154.62
779.175	70.65
779.357	103.42
779.539	-11.26
779.721	115.71
779.903	136.19
780.085	56.32
780.267	105.47
780.449	80.89
780.631	97.28
780.812	74.75
780.994	52.22
781.176	46.08
781.358	9.22
781.54	39.94
781.721	162.81
781.903	152.57
782.085	89.09
782.267	68.61
782.448	11.26
782.63	41.98
782.812	78.85
782.993	105.47
783.175	56.32
783.357	54.27
783.538	35.84
783.72	19.46
783.901	44.03
784.083	76.8
784.264	56.32
784.446	29.7
784.627	11.26
784.809	82.94
784.99	27.65
785.172	64.51
785.353	19.46
785.535	74.75
785.716	-25.6
785.897	-37.89
786.079	-13.31
786.26	39.94
786.441	31.74
786.623	-58.37
786.804	17.41
786.985	35.84
787.167	15.36
787.348	93.18
787.529	44.03
787.71	203.77
787.891	74.75
788.073	41.98
788.254	-60.42
788.435	148.48
788.616	11.26
788.797	-1.02
788.978	-19.46
789.159	101.37
789.34	54.27
789.522	-31.74
789.703	35.84
789.884	87.04
790.065	39.94
790.246	173.05
790.427	-54.27
790.607	117.76
790.788	179.2
790.969	-33.79
791.15	44.03
791.331	-9.22
791.512	37.89
791.693	-62.46
791.874	19.46
792.054	156.67
792.235	109.57
792.416	37.89
792.597	21.5
792.778	76.8
792.958	66.56
793.139	78.85
793.32	48.13
793.5	-27.65
793.681	84.99
793.862	64.51
794.042	62.46
794.223	-50.18
794.404	-3.07
794.584	-78.85
794.765	-25.6
794.945	84.99
795.126	87.04
795.306	109.57
795.487	-9.22
795.667	-41.98
795.848	46.08
796.028	-33.79
796.209	-5.12
796.389	168.96
796.57	-7.17
796.75	-60.42
796.93	-17.41
797.111	7.17
797.291	3.07
797.471	150.53
797.652	15.36
797.832	-46.08
798.012	89.09
798.192	44.03
798.373	-9.22
798.553	-54.27
798.733	44.03
798.913	-70.65
799.093	-17.41
799.274	46.08
799.454	132.09
799.634	3.07
799.814	82.94
799.994	80.89
800.174	-23.55
800.354	7.17
800.534	-78.85
800.714	95.23
800.894	-9.22
801.074	3.07
801.254	-50.18
801.434	72.7
801.614	-25.6
801.794	52.22
801.974	1745.89
802.154	-41.98
802.334	46.08
802.514	-11.26
802.693	44.03
802.873	-5.12
803.053	80.89
803.233	62.46
803.413	44.03
803.592	-11.26
803.772	-58.37
803.952	-21.5
804.131	-48.13
804.311	87.04
804.491	80.89
804.67	-25.6
804.85	7.17
805.03	68.61
805.209	66.56
805.389	-29.7
805.568	-48.13
805.748	50.18
805.928	-1.02
806.107	39.94
806.287	33.79
806.466	35.84
806.646	-78.85
806.825	3.07
807.004	7.17
807.184	62.46
807.363	50.18
807.543	93.18
807.722	-101.37
807.901	35.84
808.081	91.13
808.26	-76.8
808.439	66.56
808.619	13.31
808.798	54.27
808.977	23.55
809.156	171.01
809.336	72.7
809.515	113.66
809.694	-13.31
809.873	-33.79
810.052	121.85
810.231	80.89
810.411	60.42
810.59	95.23
810.769	9.22
810.948	76.8
811.127	11.26
811.306	-48.13
811.485	-9.22
811.664	113.66
811.843	11.26
812.022	-13.31
812.201	-66.56
812.38	39.94
812.559	-41.98
812.737	39.94
812.916	-21.5
813.095	-33.79
813.274	62.46
813.453	-33.79
813.632	60.42
813.811	103.42
813.989	-111.61
814.168	52.22
814.347	-54.27
814.526	-19.46
814.704	82.94
814.883	50.18
815.062	-54.27
815.24	54.27
815.419	-5.12
815.598	134.14
815.776	-74.75
815.955	-23.55
816.133	-105.47
816.312	-5.12
816.49	-46.08
816.669	27.65
816.847	7.17
817.026	103.42
817.204	-1.02
817.383	-1.02
817.561	-29.7
817.74	15.36
817.918	31.74
818.097	-13.31
818.275	-21.5
818.453	17.41
818.632	29.7
818.81	27.65
818.988	23.55
819.167	-33.79
819.345	15.36
819.523	-11.26
819.701	-25.6
819.879	58.37
820.058	-13.31
820.236	21.5
820.414	5.12
820.592	-31.74
820.77	-11.26
820.948	5.12
821.127	50.18
821.305	103.42
821.483	-50.18
821.661	103.42
821.839	-11.26
822.017	-1.02
822.195	-76.8
822.373	130.05
822.551	35.84
822.729	48.13
822.907	37.89
823.085	93.18
823.262	-9.22
823.44	-21.5
823.618	-15.36
823.796	-54.27
823.974	-41.98
824.152	-13.31
824.329	21.5
824.507	27.65
824.685	5.12
824.863	54.27
825.04	27.65
825.218	21.5
825.396	54.27
825.574	17.41
825.751	-60.42
825.929	44.03
826.107	7.17
826.284	-29.7
826.462	5.12
826.639	-84.99
826.817	-68.61
826.994	31.74
827.172	-60.42
827.349	103.42
827.527	64.51
827.704	11.26
827.882	33.79
828.059	-9.22
828.237	13.31
828.414	56.32
828.591	-78.85
828.769	31.74
828.946	-113.66
829.124	117.76
829.301	48.13
829.478	-50.18
829.655	64.51
829.833	-7.17
830.01	-80.89
830.187	-52.22
830.364	107.52
830.542	74.75
830.719	80.89
830.896	111.61
831.073	78.85
831.25	41.98
831.427	39.94
831.604	-5.12
831.782	-37.89
831.959	35.84
832.136	-72.7
832.313	101.37
832.49	72.7
832.667	87.04
832.844	15.36
833.021	21.5
833.198	-7.17
833.374	41.98
833.551	27.65
833.728	-82.94
833.905	54.27
834.082	-48.13
834.259	62.46
834.436	48.13
834.612	-52.22
834.789	72.7
834.966	48.13
835.143	-62.46
835.319	-144.38
835.496	56.32
835.673	-44.03
835.85	50.18
836.026	11.26
836.203	48.13
836.38	48.13
836.556	-29.7
836.733	54.27
836.909	179.2
837.086	5.12
837.262	-70.65
837.439	3.07
837.616	23.55
837.792	29.7
837.968	-5.12
838.145	-89.09
838.321	46.08
838.498	-27.65
838.674	23.55
838.851	44.03
839.027	-11.26
839.203	35.84
839.38	66.56
839.556	-58.37
839.732	19.46
839.909	64.51
840.085	60.42
840.261	-119.81
840.437	-17.41
840.614	-29.7
840.79	9.22
840.966	41.98
841.142	-3.07
841.318	-41.98
841.494	68.61
841.671	29.7
841.847	-41.98
842.023	-72.7
842.199	76.8
842.375	103.42
842.551	-35.84
842.727	-58.37
842.903	146.43
843.079	19.46
843.255	48.13
843.431	15.36
843.607	64.51
843.783	-119.81
843.959	46.08
844.134	-50.18
844.31	72.7
844.486	-33.79
844.662	-5.12
844.838	-33.79
845.013	-11.26
845.189	-19.46
845.365	70.65
845.541	-1.02
845.716	-25.6
845.892	21.5
846.068	-5.12
846.244	-11.26
846.419	64.51
846.595	-27.65
846.77	-60.42
846.946	46.08
847.122	15.36
847.297	-11.26
847.473	72.7
847.648	-93.18
847.824	5.12
847.999	-97.28
848.175	-60.42
848.35	31.74
848.526	97.28
848.701	105.47
848.876	-19.46
849.052	101.37
849.227	-44.03
849.403	-5.12
849.578	-41.98
849.753	-9.22
849.929	146.43
850.104	-74.75
850.279	17.41
850.454	62.46
850.63	87.04
850.805	64.51
850.98	11.26
851.155	-25.6
851.33	13.31
851.505	-27.65
851.681	27.65
851.856	-74.75
852.031	1.02
852.206	39.94
852.381	-54.27
852.556	23.55
852.731	-31.74
852.906	48.13
853.081	-7.17
853.256	89.09
853.431	-41.98
853.606	-46.08
853.781	44.03
853.956	-50.18
854.131	37.89
854.305	-72.7
854.48	-41.98
854.655	-72.7
854.83	-23.55
855.005	-7.17
855.18	5.12
855.354	64.51
855.529	-17.41
855.704	-41.98
855.879	19.46
856.053	-17.41
856.228	-46.08
856.403	-3.07
856.577	68.61
856.752	-39.94
856.926	35.84
857.101	-9.22
857.276	-58.37
857.45	111.61
857.625	113.66
857.799	1.02
857.974	-3.07
858.148	-89.09
858.323	39.94
858.497	19.46
858.672	-25.6
858.846	-93.18
859.02	119.81
859.195	-74.75
859.369	-3.07
859.543	21.5
859.718	-27.65
859.892	-5.12
860.066	46.08
860.241	-3.07
860.415	21.5
860.589	7.17
860.763	-5.12
860.938	-82.94
861.112	-17.41
861.286	-15.36
861.46	-27.65
861.634	-11.26
861.808	68.61
861.982	-58.37
862.157	-70.65
862.331	-35.84
862.505	-117.76
862.679	-54.27
862.853	-31.74
863.027	-44.03
863.201	95.23
863.375	-56.32
863.549	5.12
863.722	35.84
863.896	97.28
864.07	-25.6
864.244	27.65
864.418	48.13
864.592	-25.6
864.766	52.22
864.939	-23.55
865.113	1.02
865.287	11.26
865.461	-128
865.634	64.51
865.808	37.89
865.982	-17.41
866.156	-93.18
866.329	-50.18
866.503	-33.79
866.676	54.27
866.85	-31.74
867.024	-37.89
867.197	150.53
867.371	70.65
867.544	37.89
867.718	-76.8
867.891	64.51
868.065	-50.18
868.238	21.5
868.412	52.22
868.585	11.26
868.759	-66.56
868.932	-56.32
869.105	-39.94
869.279	17.41
869.452	-48.13
869.625	46.08
869.799	-64.51
869.972	-35.84
870.145	95.23
870.319	87.04
870.492	-48.13
870.665	-9.22
870.838	-52.22
871.011	-82.94
871.185	-64.51
871.358	-39.94
871.531	87.04
871.704	-25.6
871.877	-9.22
872.05	-60.42
872.223	-21.5
872.396	93.18
872.569	60.42
872.742	-76.8
872.915	60.42
873.088	25.6
873.261	-33.79
873.434	62.46
873.607	-46.08
873.78	62.46
873.953	-101.37
874.126	-27.65
874.299	25.6
874.471	-21.5
874.644	-87.04
874.817	39.94
874.99	121.85
875.163	-87.04
875.335	60.42
875.508	-82.94
875.681	50.18
875.853	-7.17
876.026	19.46
876.199	33.79
876.371	-13.31
876.544	-17.41
876.717	-41.98
876.889	-76.8
877.062	5.12
877.234	-33.79
877.407	-82.94
877.579	7.17
877.752	76.8
877.924	39.94
878.097	48.13
878.269	-41.98
878.442	80.89
878.614	50.18
878.786	84.99
878.959	-41.98
879.131	-23.55
879.303	-58.37
879.476	1.02
879.648	68.61
879.82	-3.07
879.993	-21.5
880.165	-60.42
880.337	-58.37
880.509	-29.7
880.681	7.17
880.854	-109.57
881.026	50.18
881.198	132.09
881.37	-68.61
881.542	-78.85
881.714	-29.7
881.886	3.07
882.058	56.32
882.23	-37.89
882.402	-11.26
882.574	31.74
882.746	-27.65
882.918	105.47
883.09	64.51
883.262	-39.94
883.434	21.5
883.606	-78.85
883.778	5.12
883.95	82.94
884.122	-17.41
884.293	52.22
884.465	-50.18
884.637	27.65
884.809	-29.7
884.98	-17.41
885.152	11.26
885.324	23.55
885.496	-19.46
885.667	-27.65
885.839	-50.18
886.011	54.27
886.182	56.32
886.354	87.04
886.525	7.17
886.697	72.7
886.869	-99.33
887.04	23.55
887.212	60.42
887.383	132.09
887.555	17.41
887.726	-29.7
887.897	-5.12
888.069	-52.22
888.24	109.57
888.412	27.65
888.583	27.65
888.754	-9.22
888.926	-125.95
889.097	31.74
889.268	-74.75
889.44	-25.6
889.611	-115.71
889.782	-58.37
889.953	-46.08
890.125	52.22
890.296	-173.05
890.467	-58.37
890.638	-119.81
890.809	-113.66
890.98	7.17
891.151	-11.26
891.323	37.89
891.494	-50.18
891.665	-50.18
891.836	-37.89
892.007	-48.13
892.178	-37.89
892.349	-37.89
892.52	-33.79
892.691	39.94
892.862	-37.89
893.032	-146.43
893.203	-78.85
893.374	-62.46
893.545	68.61
893.716	-74.75
893.887	46.08
894.057	-46.08
894.228	13.31
894.399	48.13
894.57	37.89
894.74	17.41
894.911	29.7
895.082	-21.5
895.253	-111.61
895.423	-33.79
895.594	74.75
895.764	60.42
895.935	-5.12
896.106	15.36
896.276	-84.99
896.447	-23.55
896.617	-74.75
896.788	-41.98
896.958	-70.65
897.129	-5.12
897.299	27.65
897.47	117.76
897.64	84.99
897.81	-78.85
897.981	-46.08
898.151	-19.46
898.322	64.51
898.492	27.65
898.662	-60.42
898.832	-76.8
899.003	-17.41
899.173	46.08
899.343	-1.02
899.513	-48.13
