Data from USB4F104151__97__11-31-47-659.txt Node

Date: Wed Feb 26 11:31:47 EST 2025
User: louis
Spectrometer: USB4F10415
Trigger mode: 4
Integration Time (sec): 1.000000E-1
Scans to average: 1
Electric dark correction enabled: true
Nonlinearity correction enabled: false
Boxcar width: 0
XAxis mode: Wavelengths
Number of Pixels in Spectrum: 3648
>>>>>Begin Spectral Data<<<<<
178.204	-335.18
178.424	-335.18
178.644	-335.18
178.864	-408.91
179.084	-445.77
179.304	2.73
179.524	-46.42
179.744	-21.85
179.964	94.89
180.184	-1.37
180.404	-3.41
180.624	2.73
180.844	62.12
181.064	-66.9
181.283	-11.61
181.503	-27.99
181.723	17.07
181.943	-148.82
182.163	168.62
182.383	-50.52
182.602	33.45
182.822	187.05
183.042	12.97
183.262	6.83
183.482	-5.46
183.701	-46.42
183.921	88.75
184.141	-30.04
184.361	133.8
184.58	72.36
184.8	0.68
185.02	-91.48
185.239	129.7
185.459	25.26
185.679	191.14
185.898	-124.24
186.118	17.07
186.338	33.45
186.557	131.75
186.777	-83.28
186.997	-3.41
187.216	29.35
187.436	164.52
187.655	47.79
187.875	70.31
188.095	62.12
188.314	103.08
188.534	80.55
188.753	-3.41
188.973	35.5
189.192	88.75
189.412	-40.28
189.631	47.79
189.851	2.73
190.07	144.04
190.29	-7.51
190.509	39.59
190.729	78.51
190.948	137.9
191.168	246.44
191.387	133.8
191.607	-25.94
191.826	51.88
192.045	31.4
192.265	-11.61
192.484	-15.7
192.704	10.92
192.923	-124.24
193.142	225.96
193.362	43.69
193.581	137.9
193.8	78.51
194.02	66.22
194.239	49.83
194.458	51.88
194.678	74.41
194.897	-75.09
195.116	15.02
195.335	58.03
195.555	82.6
195.774	2.73
195.993	86.7
196.212	72.36
196.432	-42.32
196.651	-111.96
196.87	66.22
197.089	193.19
197.308	15.02
197.528	76.46
197.747	-44.37
197.966	121.51
198.185	148.14
198.404	-36.18
198.623	92.84
198.842	82.6
199.062	58.03
199.281	105.13
199.5	-9.56
199.719	88.75
199.938	47.79
200.157	131.75
200.376	66.22
200.595	158.38
200.814	60.07
201.033	-44.37
201.252	121.51
201.471	39.59
201.69	135.85
201.909	33.45
202.128	51.88
202.347	23.21
202.566	-9.56
202.785	-83.28
203.004	10.92
203.223	334.5
203.442	43.69
203.661	2.73
203.879	101.03
204.098	156.33
204.317	-87.38
204.536	139.94
204.755	47.79
204.974	80.55
205.193	-34.13
205.411	113.32
205.63	19.11
205.849	41.64
206.068	-23.89
206.287	41.64
206.505	127.66
206.724	-17.75
206.943	33.45
207.162	70.31
207.381	107.18
207.599	-32.08
207.818	45.74
208.037	10.92
208.255	43.69
208.474	72.36
208.693	-40.28
208.911	39.59
209.13	137.9
209.349	88.75
209.567	101.03
209.786	45.74
210.005	123.56
210.223	62.12
210.442	-36.18
210.661	-9.56
210.879	17.07
211.098	12.97
211.316	29.35
211.535	45.74
211.753	76.46
211.972	53.93
212.191	2.73
212.409	6.83
212.628	72.36
212.846	12.97
213.065	-36.18
213.283	94.89
213.502	37.55
213.72	-1.37
213.938	68.27
214.157	-15.7
214.375	68.27
214.594	84.65
214.812	66.22
215.031	62.12
215.249	29.35
215.467	80.55
215.686	98.99
215.904	88.75
216.122	23.21
216.341	162.47
216.559	82.6
216.778	135.85
216.996	170.66
217.214	-17.75
217.432	21.16
217.651	-13.65
217.869	78.51
218.087	-23.89
218.306	6.83
218.524	98.99
218.742	64.17
218.96	49.83
219.179	19.11
219.397	4.78
219.615	297.64
219.833	129.7
220.051	-9.56
220.27	103.08
220.488	123.56
220.706	72.36
220.924	-13.65
221.142	0.68
221.36	8.87
221.578	141.99
221.796	8.87
222.015	88.75
222.233	39.59
222.451	131.75
222.669	-36.18
222.887	105.13
223.105	37.55
223.323	6.83
223.541	-32.08
223.759	137.9
223.977	62.12
224.195	193.19
224.413	43.69
224.631	35.5
224.849	33.45
225.067	207.53
225.285	-38.23
225.503	6.83
225.721	-83.28
225.939	84.65
226.157	68.27
226.375	223.91
226.592	2.73
226.81	37.55
227.028	117.42
227.246	139.94
227.464	-19.8
227.682	109.23
227.9	47.79
228.117	4.78
228.335	115.37
228.553	53.93
228.771	49.83
228.989	12.97
229.206	98.99
229.424	98.99
229.642	15.02
229.86	6.83
230.077	133.8
230.295	53.93
230.513	39.59
230.731	64.17
230.948	139.94
231.166	174.76
231.384	-93.52
231.601	-15.7
231.819	170.66
232.037	0.68
232.254	-1.37
232.472	19.11
232.689	51.88
232.907	113.32
233.125	133.8
233.342	-52.56
233.56	-13.65
233.777	51.88
233.995	64.17
234.213	123.56
234.43	58.03
234.648	-3.41
234.865	6.83
235.083	141.99
235.3	19.11
235.518	27.31
235.735	98.99
235.953	64.17
236.17	103.08
236.388	115.37
236.605	2.73
236.822	185
237.04	152.23
237.257	90.79
237.475	6.83
237.692	86.7
237.909	66.22
238.127	-17.75
238.344	53.93
238.562	17.07
238.779	-1.37
238.996	-40.28
239.214	53.93
239.431	84.65
239.648	72.36
239.865	82.6
240.083	86.7
240.3	19.11
240.517	35.5
240.735	41.64
240.952	187.05
241.169	45.74
241.386	43.69
241.603	0.68
241.821	-25.94
242.038	113.32
242.255	119.46
242.472	-11.61
242.689	55.98
242.907	107.18
243.124	49.83
243.341	-9.56
243.558	-3.41
243.775	-58.71
243.992	-42.32
244.209	98.99
244.426	172.71
244.643	64.17
244.86	82.6
245.078	98.99
245.295	101.03
245.512	8.87
245.729	-9.56
245.946	98.99
246.163	-15.7
246.38	15.02
246.597	49.83
246.814	31.4
247.031	43.69
247.248	98.99
247.464	86.7
247.681	111.27
247.898	72.36
248.115	62.12
248.332	-1.37
248.549	107.18
248.766	199.34
248.983	19.11
249.2	125.61
249.417	101.03
249.633	-25.94
249.85	55.98
250.067	-9.56
250.284	82.6
250.501	29.35
250.717	43.69
250.934	-25.94
251.151	105.13
251.368	19.11
251.585	96.94
251.801	78.51
252.018	-19.8
252.235	115.37
252.451	-154.96
252.668	12.97
252.885	160.42
253.102	47.79
253.318	25.26
253.535	45.74
253.752	109.23
253.968	31.4
254.185	-38.23
254.401	-7.51
254.618	55.98
254.835	-7.51
255.051	80.55
255.268	115.37
255.484	72.36
255.701	-15.7
255.917	39.59
256.134	0.68
256.351	-23.89
256.567	-44.37
256.784	19.11
257	-89.43
257.217	139.94
257.433	88.75
257.65	-7.51
257.866	158.38
258.082	-58.71
258.299	55.98
258.515	55.98
258.732	27.31
258.948	-111.96
259.165	58.03
259.381	-1.37
259.597	70.31
259.814	-21.85
260.03	74.41
260.246	-30.04
260.463	205.48
260.679	107.18
260.895	33.45
261.112	60.07
261.328	31.4
261.544	-27.99
261.761	154.28
261.977	-5.46
262.193	-19.8
262.409	115.37
262.626	98.99
262.842	60.07
263.058	68.27
263.274	35.5
263.49	121.51
263.707	107.18
263.923	121.51
264.139	-77.14
264.355	64.17
264.571	170.66
264.787	35.5
265.004	158.38
265.22	58.03
265.436	-54.61
265.652	-17.75
265.868	53.93
266.084	-15.7
266.3	66.22
266.516	25.26
266.732	82.6
266.948	66.22
267.164	-5.46
267.38	51.88
267.596	101.03
267.812	141.99
268.028	12.97
268.244	-23.89
268.46	72.36
268.676	31.4
268.892	10.92
269.108	25.26
269.324	-21.85
269.54	8.87
269.756	86.7
269.972	-21.85
270.188	39.59
270.403	8.87
270.619	33.45
270.835	74.41
271.051	21.16
271.267	-3.41
271.483	-27.99
271.698	127.66
271.914	119.46
272.13	-30.04
272.346	-62.8
272.562	88.75
272.777	105.13
272.993	39.59
273.209	0.68
273.425	49.83
273.64	-54.61
273.856	96.94
274.072	17.07
274.287	-23.89
274.503	47.79
274.719	58.03
274.934	15.02
275.15	-38.23
275.366	80.55
275.581	-44.37
275.797	33.45
276.012	45.74
276.228	6.83
276.444	76.46
276.659	148.14
276.875	-11.61
277.09	-19.8
277.306	-40.28
277.521	60.07
277.737	45.74
277.952	96.94
278.168	98.99
278.383	-11.61
278.599	-1.37
278.814	123.56
279.03	-40.28
279.245	174.76
279.461	70.31
279.676	162.47
279.892	-13.65
280.107	-3.41
280.322	-11.61
280.538	19.11
280.753	-9.56
280.969	35.5
281.184	45.74
281.399	191.14
281.615	107.18
281.83	80.55
282.045	-68.95
282.26	-54.61
282.476	2.73
282.691	33.45
282.906	49.83
283.122	-64.85
283.337	-62.8
283.552	127.66
283.767	-19.8
283.983	158.38
284.198	45.74
284.413	88.75
284.628	-23.89
284.843	45.74
285.058	47.79
285.274	-38.23
285.489	-5.46
285.704	107.18
285.919	-9.56
286.134	76.46
286.349	31.4
286.564	10.92
286.779	135.85
286.995	19.11
287.21	-36.18
287.425	96.94
287.64	27.31
287.855	47.79
288.07	-25.94
288.285	78.51
288.5	146.09
288.715	55.98
288.93	72.36
289.145	-36.18
289.36	141.99
289.575	27.31
289.79	125.61
290.004	-19.8
290.219	8.87
290.434	23.21
290.649	8.87
290.864	19.11
291.079	-40.28
291.294	88.75
291.509	68.27
291.724	86.7
291.938	33.45
292.153	35.5
292.368	6.83
292.583	72.36
292.798	103.08
293.012	131.75
293.227	70.31
293.442	-9.56
293.657	148.14
293.871	127.66
294.086	98.99
294.301	180.9
294.516	72.36
294.73	-3.41
294.945	-95.57
295.16	0.68
295.374	74.41
295.589	107.18
295.804	-48.47
296.018	105.13
296.233	150.18
296.447	64.17
296.662	-34.13
296.877	133.8
297.091	62.12
297.306	86.7
297.52	12.97
297.735	55.98
297.949	72.36
298.164	8.87
298.378	60.07
298.593	-11.61
298.807	-7.51
299.022	27.31
299.236	189.1
299.451	4.78
299.665	47.79
299.88	37.55
300.094	105.13
300.309	45.74
300.523	68.27
300.737	8.87
300.952	141.99
301.166	113.32
301.381	-13.65
301.595	-27.99
301.809	105.13
302.024	35.5
302.238	-46.42
302.452	103.08
302.667	45.74
302.881	125.61
303.095	121.51
303.309	39.59
303.524	-9.56
303.738	78.51
303.952	41.64
304.166	8.87
304.381	-124.24
304.595	205.48
304.809	43.69
305.023	107.18
305.237	12.97
305.452	-1.37
305.666	94.89
305.88	82.6
306.094	98.99
306.308	62.12
306.522	92.84
306.736	117.42
306.95	162.47
307.164	-3.41
307.379	45.74
307.593	162.47
307.807	115.37
308.021	105.13
308.235	78.51
308.449	-58.71
308.663	43.69
308.877	168.62
309.091	47.79
309.305	41.64
309.519	-124.24
309.733	90.79
309.947	-62.8
310.161	107.18
310.374	146.09
310.588	133.8
310.802	-42.32
311.016	19.11
311.23	94.89
311.444	-64.85
311.658	-21.85
311.872	86.7
312.085	144.04
312.299	158.38
312.513	146.09
312.727	17.07
312.941	2.73
313.154	55.98
313.368	78.51
313.582	21.16
313.796	109.23
314.009	39.59
314.223	148.14
314.437	60.07
314.651	135.85
314.864	29.35
315.078	25.26
315.292	-97.62
315.505	-7.51
315.719	23.21
315.933	98.99
316.146	-32.08
316.36	-75.09
316.573	119.46
316.787	129.7
317.001	49.83
317.214	15.02
317.428	92.84
317.641	27.31
317.855	-1.37
318.068	29.35
318.282	21.16
318.495	191.14
318.709	37.55
318.922	-50.52
319.136	146.09
319.349	113.32
319.563	19.11
319.776	86.7
319.99	-3.41
320.203	96.94
320.417	35.5
320.63	94.89
320.843	141.99
321.057	76.46
321.27	62.12
321.483	94.89
321.697	162.47
321.91	98.99
322.124	96.94
322.337	78.51
322.55	6.83
322.763	66.22
322.977	55.98
323.19	29.35
323.403	-17.75
323.617	94.89
323.83	117.42
324.043	-13.65
324.256	119.46
324.469	-54.61
324.683	156.33
324.896	-11.61
325.109	-25.94
325.322	-40.28
325.535	80.55
325.748	123.56
325.962	37.55
326.175	80.55
326.388	39.59
326.601	211.62
326.814	12.97
327.027	15.02
327.24	105.13
327.453	-15.7
327.666	121.51
327.879	158.38
328.092	133.8
328.305	37.55
328.518	-1.37
328.731	70.31
328.944	33.45
329.157	80.55
329.37	23.21
329.583	191.14
329.796	174.76
330.009	4.78
330.222	133.8
330.435	125.61
330.648	123.56
330.861	96.94
331.073	49.83
331.286	72.36
331.499	41.64
331.712	8.87
331.925	21.16
332.138	17.07
332.35	121.51
332.563	-1.37
332.776	74.41
332.989	-38.23
333.202	12.97
333.414	6.83
333.627	21.16
333.84	47.79
334.053	45.74
334.265	29.35
334.478	51.88
334.691	43.69
334.903	2.73
335.116	17.07
335.329	39.59
335.541	123.56
335.754	162.47
335.966	-9.56
336.179	133.8
336.392	51.88
336.604	-27.99
336.817	109.23
337.029	23.21
337.242	10.92
337.454	92.84
337.667	35.5
337.88	121.51
338.092	117.42
338.305	64.17
338.517	-5.46
338.729	60.07
338.942	162.47
339.154	-64.85
339.367	-32.08
339.579	96.94
339.792	12.97
340.004	84.65
340.217	39.59
340.429	123.56
340.641	39.59
340.854	29.35
341.066	0.68
341.278	78.51
341.491	264.87
341.703	-56.66
341.915	45.74
342.128	76.46
342.34	15.02
342.552	23.21
342.764	53.93
342.977	45.74
343.189	-23.89
343.401	117.42
343.613	-36.18
343.826	29.35
344.038	-48.47
344.25	29.35
344.462	0.68
344.674	68.27
344.886	35.5
345.099	58.03
345.311	90.79
345.523	10.92
345.735	-3.41
345.947	37.55
346.159	64.17
346.371	-13.65
346.583	-5.46
346.795	150.18
347.007	-13.65
347.219	115.37
347.431	70.31
347.643	131.75
347.855	-21.85
348.067	174.76
348.279	-32.08
348.491	39.59
348.703	117.42
348.915	-44.37
349.127	-36.18
349.339	33.45
349.551	-27.99
349.763	135.85
349.975	96.94
350.187	144.04
350.399	111.27
350.61	107.18
350.822	-3.41
351.034	60.07
351.246	55.98
351.458	131.75
351.669	68.27
351.881	117.42
352.093	121.51
352.305	62.12
352.517	123.56
352.728	180.9
352.94	-7.51
353.152	125.61
353.363	-50.52
353.575	98.99
353.787	158.38
353.999	31.4
354.21	178.86
354.422	37.55
354.633	-27.99
354.845	41.64
355.057	31.4
355.268	74.41
355.48	113.32
355.692	-5.46
355.903	47.79
356.115	-13.65
356.326	-27.99
356.538	123.56
356.749	131.75
356.961	176.81
357.172	19.11
357.384	62.12
357.595	205.48
357.807	-66.9
358.018	37.55
358.23	10.92
358.441	162.47
358.653	39.59
358.864	58.03
359.075	4.78
359.287	76.46
359.498	86.7
359.709	133.8
359.921	90.79
360.132	6.83
360.344	60.07
360.555	35.5
360.766	92.84
360.977	80.55
361.189	62.12
361.4	15.02
361.611	154.28
361.823	49.83
362.034	23.21
362.245	-27.99
362.456	35.5
362.667	55.98
362.879	0.68
363.09	41.64
363.301	68.27
363.512	92.84
363.723	47.79
363.935	-50.52
364.146	111.27
364.357	64.17
364.568	10.92
364.779	15.02
364.99	264.87
365.201	-5.46
365.412	107.18
365.623	-38.23
365.834	49.83
366.045	43.69
366.256	121.51
366.467	78.51
366.678	12.97
366.889	103.08
367.1	19.11
367.311	88.75
367.522	4.78
367.733	129.7
367.944	0.68
368.155	35.5
368.366	109.23
368.577	103.08
368.788	146.09
368.999	47.79
369.209	76.46
369.42	197.29
369.631	234.15
369.842	121.51
370.053	-38.23
370.264	53.93
370.474	-21.85
370.685	150.18
370.896	-11.61
371.107	187.05
371.317	103.08
371.528	88.75
371.739	105.13
371.95	107.18
372.16	64.17
372.371	-1.37
372.582	-21.85
372.792	86.7
373.003	64.17
373.214	47.79
373.424	53.93
373.635	35.5
373.846	10.92
374.056	90.79
374.267	70.31
374.477	86.7
374.688	-56.66
374.898	94.89
375.109	-34.13
375.319	15.02
375.53	101.03
375.74	39.59
375.951	-5.46
376.161	17.07
376.372	107.18
376.582	-17.75
376.793	25.26
377.003	29.35
377.214	10.92
377.424	88.75
377.635	105.13
377.845	29.35
378.055	178.86
378.266	-19.8
378.476	39.59
378.686	166.57
378.897	15.02
379.107	94.89
379.317	111.27
379.528	35.5
379.738	105.13
379.948	-11.61
380.158	146.09
380.369	88.75
380.579	41.64
380.789	6.83
380.999	96.94
381.21	74.41
381.42	164.52
381.63	15.02
381.84	115.37
382.05	70.31
382.261	117.42
382.471	101.03
382.681	19.11
382.891	176.81
383.101	88.75
383.311	66.22
383.521	31.4
383.731	137.9
383.941	103.08
384.151	70.31
384.361	-46.42
384.571	25.26
384.781	76.46
384.991	199.34
385.201	195.24
385.411	92.84
385.621	90.79
385.831	109.23
386.041	72.36
386.251	19.11
386.461	133.8
386.671	-5.46
386.881	47.79
387.091	27.31
387.301	70.31
387.511	98.99
387.72	41.64
387.93	146.09
388.14	-11.61
388.35	49.83
388.56	135.85
388.769	-5.46
388.979	-5.46
389.189	-3.41
389.399	15.02
389.609	139.94
389.818	135.85
390.028	39.59
390.238	98.99
390.447	-11.61
390.657	6.83
390.867	43.69
391.076	-11.61
391.286	31.4
391.496	8.87
391.705	2.73
391.915	113.32
392.125	94.89
392.334	55.98
392.544	199.34
392.753	-58.71
392.963	-87.38
393.172	58.03
393.382	58.03
393.591	211.62
393.801	41.64
394.01	187.05
394.22	72.36
394.429	78.51
394.639	10.92
394.848	123.56
395.058	121.51
395.267	72.36
395.477	66.22
395.686	88.75
395.895	256.68
396.105	185
396.314	86.7
396.524	55.98
396.733	43.69
396.942	137.9
397.152	92.84
397.361	101.03
397.57	137.9
397.78	-68.95
397.989	127.66
398.198	187.05
398.407	84.65
398.617	49.83
398.826	139.94
399.035	23.21
399.244	185
399.453	70.31
399.663	45.74
399.872	115.37
400.081	72.36
400.29	137.9
400.499	-30.04
400.708	105.13
400.917	49.83
401.127	10.92
401.336	21.16
401.545	160.42
401.754	72.36
401.963	98.99
402.172	23.21
402.381	-81.24
402.59	-7.51
402.799	2.73
403.008	29.35
403.217	92.84
403.426	76.46
403.635	-64.85
403.844	88.75
404.053	-7.51
404.262	31.4
404.471	170.66
404.68	70.31
404.888	64.17
405.097	15.02
405.306	105.13
405.515	119.46
405.724	31.4
405.933	199.34
406.142	53.93
406.35	62.12
406.559	76.46
406.768	66.22
406.977	109.23
407.185	60.07
407.394	64.17
407.603	-44.37
407.812	82.6
408.02	180.9
408.229	84.65
408.438	88.75
408.646	25.26
408.855	84.65
409.064	49.83
409.272	29.35
409.481	178.86
409.69	-54.61
409.898	53.93
410.107	74.41
410.315	101.03
410.524	-17.75
410.733	64.17
410.941	33.45
411.15	43.69
411.358	74.41
411.567	154.28
411.775	35.5
411.984	31.4
412.192	60.07
412.401	25.26
412.609	103.08
412.818	105.13
413.026	174.76
413.234	12.97
413.443	111.27
413.651	62.12
413.86	55.98
414.068	139.94
414.276	154.28
414.485	23.21
414.693	174.76
414.901	131.75
415.11	25.26
415.318	68.27
415.526	64.17
415.734	152.23
415.943	111.27
416.151	166.57
416.359	15.02
416.567	141.99
416.776	111.27
416.984	133.8
417.192	174.76
417.4	2.73
417.608	29.35
417.817	43.69
418.025	135.85
418.233	219.82
418.441	55.98
418.649	10.92
418.857	47.79
419.065	164.52
419.273	21.16
419.481	94.89
419.689	31.4
419.897	2.73
420.105	-32.08
420.313	113.32
420.521	152.23
420.729	195.24
420.937	-5.46
421.145	35.5
421.353	129.7
421.561	150.18
421.769	45.74
421.977	58.03
422.185	219.82
422.393	94.89
422.601	111.27
422.809	117.42
423.017	148.14
423.224	117.42
423.432	107.18
423.64	121.51
423.848	150.18
424.056	0.68
424.263	117.42
424.471	-44.37
424.679	164.52
424.887	-32.08
425.094	162.47
425.302	141.99
425.51	162.47
425.718	152.23
425.925	58.03
426.133	-32.08
426.341	215.72
426.548	68.27
426.756	-9.56
426.964	144.04
427.171	4.78
427.379	168.62
427.586	148.14
427.794	45.74
428.001	109.23
428.209	92.84
428.417	139.94
428.624	115.37
428.832	115.37
429.039	125.61
429.247	49.83
429.454	139.94
429.662	199.34
429.869	139.94
430.076	92.84
430.284	139.94
430.491	185
430.699	137.9
430.906	191.14
431.114	182.95
431.321	228.01
431.528	119.46
431.736	148.14
431.943	160.42
432.15	168.62
432.358	193.19
432.565	266.92
432.772	70.31
432.979	248.49
433.187	133.8
433.394	262.82
433.601	199.34
433.808	264.87
434.016	297.64
434.223	182.95
434.43	248.49
434.637	273.06
434.844	250.53
435.052	256.68
435.259	258.73
435.466	316.07
435.673	236.2
435.88	318.12
436.087	379.56
436.294	430.76
436.501	395.94
436.708	316.07
436.915	352.93
437.122	305.83
437.329	299.69
437.537	359.08
437.743	375.46
437.95	387.75
438.157	434.85
438.364	406.18
438.571	428.71
438.778	555.68
438.985	516.77
439.192	486.05
439.399	393.89
439.606	502.44
439.813	639.65
440.02	668.32
440.227	699.04
440.433	619.17
440.64	502.44
440.847	529.06
441.054	680.61
441.261	852.64
441.467	719.52
441.674	631.46
441.881	764.58
442.088	584.35
442.294	742.05
442.501	875.17
442.708	850.59
442.914	750.24
443.121	912.03
443.328	944.8
443.534	1004.19
443.741	928.41
443.948	866.97
444.154	946.84
444.361	1206.94
444.568	1079.96
444.774	1094.3
444.981	1094.3
445.187	1319.57
445.394	1264.28
445.6	1231.51
445.807	1432.21
446.013	1430.16
446.22	1327.77
446.426	1409.69
446.633	1567.38
446.839	1876.62
447.046	1434.26
447.252	1804.94
447.459	1716.88
447.665	1788.56
447.871	1976.97
448.078	1958.54
448.284	2036.36
448.491	2185.87
448.697	2296.46
448.903	2298.5
449.11	2310.79
449.316	2388.61
449.522	2486.92
449.728	2628.23
449.935	2740.86
450.141	2806.4
450.347	2939.52
450.553	2843.26
450.76	3023.48
450.966	3146.36
451.172	3316.34
451.378	3474.04
451.584	3535.48
451.791	3664.5
451.997	3818.1
452.203	3912.3
452.409	4119.15
452.615	4375.14
452.821	4143.72
453.027	4110.96
453.233	4764.26
453.44	4633.19
453.646	4870.75
453.852	5085.79
454.058	5282.39
454.264	5323.35
454.47	5585.49
454.676	5691.99
454.882	6224.46
455.088	5966.42
455.294	6517.32
455.5	6609.48
455.705	7080.51
455.911	7080.51
456.117	7232.06
456.323	7522.87
456.529	7498.3
456.735	8122.93
456.941	8632.87
457.147	8587.82
457.352	9110.05
457.558	9368.09
457.764	9908.76
457.97	10048.02
458.176	10525.19
458.381	11024.9
458.587	11115.01
458.793	11696.63
458.999	11637.24
459.204	13236.7
459.41	13656.54
459.616	13353.44
459.821	14361.04
460.027	14830.02
460.233	15653.31
460.438	15718.84
460.644	16527.79
460.85	16660.91
461.055	17111.46
461.261	18260.37
461.466	17668.51
461.672	18235.8
461.878	20175.22
462.083	19810.68
462.289	20732.27
462.494	21453.16
462.7	21367.14
462.905	22034.78
463.111	23726.4
463.316	24924.46
463.522	25321.77
463.727	26075.42
463.932	27037.97
464.138	27764.99
464.343	29069.55
464.549	29090.03
464.754	31127.76
464.959	32096.45
465.165	32383.16
465.37	32407.74
465.575	32524.47
465.781	34533.53
465.986	35641.48
466.191	35092.63
466.397	35158.16
466.602	34623.64
466.807	36481.15
467.012	37001.33
467.218	37660.78
467.423	37767.27
467.628	38830.17
467.833	40640.57
468.038	39786.57
468.244	39221.33
468.449	41271.35
468.654	40548.42
468.859	40411.2
469.064	40593.47
469.269	39641.17
469.474	39718.99
469.679	41232.44
469.885	39620.69
470.09	40470.59
470.295	40259.65
470.5	39583.82
470.705	40366.15
470.91	38688.86
471.115	38602.85
471.32	38842.46
471.525	38965.34
471.73	37625.96
471.935	37363.82
472.139	35827.85
472.344	36384.9
472.549	36200.58
472.754	35250.32
472.959	34341.02
473.164	33104.05
473.369	32815.29
473.574	33931.43
473.778	32843.96
473.983	32444.6
474.188	31928.52
474.393	30499.03
474.598	30085.34
474.802	29595.88
475.007	29309.16
475.212	28659.96
475.417	27767.04
475.621	27379.98
475.826	27265.29
476.031	26382.62
476.235	26153.24
476.44	26081.56
476.645	25385.26
476.849	24879.41
477.054	24668.47
477.259	24166.71
477.463	24019.26
477.668	23402.82
477.872	23445.83
478.077	22782.29
478.282	22221.14
478.486	21938.52
478.691	21803.36
478.895	21782.88
479.1	21236.07
479.304	21158.25
479.509	20701.55
479.713	20969.83
479.918	20783.47
480.122	19872.12
480.326	20197.75
480.531	19868.03
480.735	20019.58
480.94	19634.56
481.144	20095.35
481.348	18938.25
481.553	19141
481.757	18631.05
481.961	18755.98
482.166	18946.44
482.37	18639.25
482.574	18422.16
482.778	18389.39
482.983	18440.59
483.187	18162.07
483.391	18110.87
483.595	17453.47
483.8	17379.75
484.004	17306.02
484.208	17473.95
484.412	16796.07
484.616	17174.95
484.821	17076.65
485.025	16431.54
485.229	16531.89
485.433	16157.11
485.637	16267.7
485.841	15952.31
486.045	15460.8
486.249	15485.37
486.453	15071.68
486.657	15157.7
486.861	14840.26
487.065	14373.33
487.269	14539.21
487.473	13814.23
487.677	14084.56
487.881	13863.38
488.085	13404.64
488.289	13410.78
488.493	12833.25
488.697	12923.37
488.901	12761.58
489.105	12521.96
489.309	12298.73
489.512	12179.95
489.716	11878.9
489.92	11774.45
490.124	11495.93
490.328	11477.5
490.531	11055.62
490.735	10725.89
490.939	10816.01
491.143	10568.2
491.346	10373.64
491.55	10512.91
491.754	10215.95
491.958	10056.21
492.161	9765.4
492.365	9619.99
492.569	9253.41
492.772	9480.73
492.976	9269.79
493.18	9112.1
493.383	9050.66
493.587	9028.13
493.79	8833.57
493.994	8571.43
494.197	8667.69
494.401	8534.57
494.605	8555.05
494.808	8563.24
495.012	8337.96
495.215	8466.99
495.419	8311.34
495.622	8002.1
495.825	8176.17
496.029	8055.34
496.232	8284.72
496.436	8061.49
496.639	8217.13
496.843	7998
497.046	8143.41
497.249	8133.17
497.453	8061.49
497.656	8098.35
497.859	7868.98
498.063	8292.91
498.266	8290.86
498.469	8008.24
498.673	8210.99
498.876	8258.09
499.079	8362.54
499.282	8231.47
499.485	8567.34
499.689	8309.29
499.892	8600.1
500.095	8497.7
500.298	8720.93
500.501	8471.08
500.705	8817.19
500.908	8849.96
501.111	8899.11
501.314	8882.72
501.517	9138.72
501.72	9142.82
501.923	9282.08
502.126	9267.74
502.329	9484.83
502.532	9556.5
502.735	9773.59
502.938	9855.51
503.141	9888.28
503.344	10072.59
503.547	10299.92
503.75	10238.48
503.953	10359.31
504.156	10519.05
504.359	10650.12
504.562	10768.9
504.765	10867.2
504.968	11297.28
505.17	11563.51
505.373	11545.08
505.576	12014.07
505.779	12149.23
505.982	12114.42
506.185	12499.44
506.387	12497.39
506.59	12978.66
506.793	13064.68
506.996	13111.78
507.198	13793.75
507.401	13494.75
507.604	14330.32
507.807	14328.27
508.009	14899.66
508.212	14795.21
508.415	15192.51
508.617	15792.57
508.82	15942.07
509.022	15999.41
509.225	16611.76
509.428	17025.45
509.63	17121.7
509.833	17203.62
510.035	18479.5
510.238	18157.97
510.44	18827.66
510.643	19063.18
510.845	19900.8
511.048	20144.5
511.25	20404.6
511.453	20816.24
511.655	21809.5
511.858	22024.54
512.06	22174.04
512.262	22747.47
512.465	23279.94
512.667	23767.36
512.87	24213.82
513.072	25125.16
513.274	25614.63
513.477	26403.1
513.679	26554.65
513.881	27267.34
514.084	28078.33
514.286	28399.87
514.488	28844.27
514.69	29868.26
514.893	30329.05
515.095	31111.38
515.297	31768.77
515.499	32317.63
515.701	33099.95
515.904	33972.39
516.106	34594.97
516.308	35264.66
516.51	35922.05
516.712	36610.17
516.914	37185.65
517.116	38174.82
517.318	38670.43
517.52	39565.39
517.722	39837.77
517.925	40677.44
518.127	41539.63
518.329	42410.02
518.531	42289.19
518.733	44019.72
518.935	44513.28
519.136	44945.4
519.338	45864.94
519.54	46876.64
519.742	47421.4
519.944	47572.95
520.146	48678.85
520.348	48840.64
520.55	49987.5
520.752	49969.07
520.954	51333.02
521.155	50919.33
521.357	52375.44
521.559	52893.57
521.761	53505.91
521.963	53589.88
522.164	54216.56
522.366	54908.77
522.568	55197.54
522.77	55889.75
522.971	56864.58
523.173	56635.21
523.375	56749.9
523.576	56856.39
523.778	57204.55
523.98	57823.03
524.181	57784.12
524.383	58412.85
524.584	58687.28
524.786	58527.53
524.988	58672.94
525.189	58679.08
525.391	59473.7
525.592	58994.47
525.794	59754.27
525.995	59176.74
526.197	59244.32
526.398	58894.12
526.6	59049.77
526.801	58861.35
527.003	58912.55
527.204	58496.81
527.406	58789.67
527.607	58593.07
527.808	58627.88
528.01	56956.74
528.211	57724.73
528.412	58072.88
528.614	57106.24
528.815	56801.1
529.016	56921.93
529.218	55957.33
529.419	55668.57
529.62	55099.23
529.822	54876.01
530.023	54470.51
530.224	53901.17
530.425	53514.11
530.626	52748.17
530.828	51748.76
531.029	52731.78
531.23	51122.08
531.431	50235.31
531.632	50319.27
531.833	49876.91
532.035	49319.87
532.236	48756.67
532.437	48355.27
532.638	47341.53
532.839	47488.98
533.04	46620.64
533.241	45666.29
533.442	46051.31
533.643	45004.8
533.844	44324.87
534.045	43843.6
534.246	42981.4
534.447	42510.37
534.648	41863.21
534.849	41441.33
535.05	40601.66
535.251	40542.27
535.451	39915.59
535.652	39401.55
535.853	38498.4
536.054	38250.6
536.255	37914.73
536.456	36802.68
536.657	37093.49
536.857	36169.86
537.058	35684.49
537.259	35629.19
537.46	35315.86
537.66	34529.44
537.861	34431.13
538.062	33665.19
538.263	33054.9
538.463	32917.68
538.664	32778.42
538.865	31928.52
539.065	31803.59
539.266	31398.09
539.466	31226.06
539.667	30384.35
539.868	30494.94
540.068	29913.31
540.269	29382.89
540.469	29350.12
540.67	28786.93
540.87	28575.99
541.071	27889.92
541.271	27705.6
541.472	27697.41
541.672	27484.42
541.873	26910.99
542.073	26507.54
542.274	26693.91
542.474	26245.4
542.675	26030.37
542.875	25737.51
543.075	25125.16
543.276	24664.37
543.476	24858.93
543.676	24224.06
543.877	24248.63
544.077	23984.44
544.277	23427.4
544.478	23390.53
544.678	23343.43
544.878	23069
545.078	22337.88
545.279	22352.21
545.479	21686.62
545.679	21670.24
545.879	21770.59
546.079	21326.18
546.28	21061.99
546.48	20787.57
546.68	20658.54
546.88	20687.22
547.08	20099.45
547.28	19861.88
547.48	19546.5
547.68	19677.57
547.88	18909.58
548.081	19192.2
548.281	18567.57
548.481	18340.24
548.681	18413.97
548.881	17867.16
549.081	17754.52
549.28	17688.99
549.48	17344.93
549.68	17088.93
549.88	16951.72
550.08	16441.78
550.28	16404.91
550.48	16191.92
550.68	16185.78
550.88	15747.51
551.08	15356.35
551.279	15606.2
551.479	14801.35
551.679	15008.2
551.879	14557.64
552.079	14385.62
552.278	14191.06
552.478	14139.86
552.678	13937.11
552.878	13775.32
553.077	13449.69
553.277	12859.88
553.477	13076.96
553.676	12829.16
553.876	12431.85
554.076	12237.3
554.275	12257.78
554.475	11926
554.674	12067.31
554.874	11688.44
555.074	11356.67
555.273	11469.31
555.473	11176.45
555.672	11110.91
555.872	10752.52
556.071	10816.01
556.271	10496.52
556.47	10205.71
556.67	10023.44
556.869	9861.65
557.068	9916.95
557.268	9593.37
557.467	9431.58
557.667	9443.87
557.866	9064.99
558.065	8948.26
558.265	8944.16
558.464	8716.84
558.663	8669.73
558.863	8264.24
559.062	8466.99
559.261	8147.5
559.461	8182.32
559.66	7868.98
559.859	7762.48
560.058	7629.37
560.258	7447.1
560.457	7455.29
560.656	7410.23
560.855	7027.26
561.054	7240.25
561.253	7100.99
561.453	6998.59
561.652	6740.55
561.851	6734.4
562.05	6482.5
562.249	6398.54
562.448	6214.22
562.647	6199.88
562.846	6224.46
563.045	6240.84
563.244	5825.11
563.443	6001.23
563.642	5816.91
563.841	5823.06
564.04	5696.08
564.239	5663.32
564.438	5325.4
564.637	5399.13
564.836	5386.84
565.035	5159.52
565.234	5079.65
565.432	5104.22
565.631	5042.78
565.83	5083.74
566.029	4905.57
566.228	4731.49
566.427	4797.03
566.625	4561.51
566.824	4291.18
567.023	4446.82
567.222	4428.39
567.42	4491.88
567.619	4227.69
567.818	4346.47
568.016	4209.26
568.215	4127.34
568.414	4186.73
568.612	4047.47
568.811	3926.64
569.01	4041.32
569.208	3779.18
569.407	3746.42
569.605	3775.09
569.804	3818.1
570.002	3607.16
570.201	3457.65
570.4	3570.29
570.598	3361.4
570.797	3414.65
570.995	3484.28
571.193	3166.84
571.392	3230.33
571.59	3043.96
571.789	3318.39
571.987	3201.66
572.186	3072.64
572.384	2980.48
572.582	3052.16
572.781	3043.96
572.979	2787.97
573.177	2851.46
573.376	2851.46
573.574	2859.65
573.772	2861.69
573.971	2642.56
574.169	2519.68
574.367	2628.23
574.565	2542.21
574.763	2460.29
574.962	2407.05
575.16	2443.91
575.358	2370.18
575.556	2355.85
575.754	2405
575.952	2218.63
576.151	2278.02
576.349	2241.16
576.547	2149
576.745	2114.19
576.943	2235.02
577.141	2134.67
577.339	2081.42
577.537	2001.55
577.735	2028.17
577.933	1956.49
578.131	1786.51
578.329	1979.02
578.527	1780.37
578.725	1839.76
578.923	1768.08
579.121	1845.9
579.319	1737.36
579.516	1643.15
579.714	1964.68
579.912	1675.92
580.11	1628.82
580.308	1585.81
580.506	1604.24
580.704	1469.08
580.901	1563.28
581.099	1456.79
581.297	1501.84
581.495	1432.21
581.692	1546.9
581.89	1569.43
582.088	1454.74
582.285	1460.88
582.483	1370.77
582.681	1323.67
582.878	1348.25
583.076	1325.72
583.274	1350.29
583.471	1413.78
583.669	1198.74
583.866	1219.22
584.064	1204.89
584.262	1159.83
584.459	1102.49
584.657	1256.09
584.854	1233.56
585.052	1041.05
585.249	1153.69
585.447	1182.36
585.644	940.7
585.841	1131.16
586.039	1116.83
586.236	1235.61
586.434	1100.44
586.631	1012.38
586.828	1026.71
587.026	1004.19
587.223	889.5
587.42	996
587.618	1082.01
587.815	1036.95
588.012	950.94
588.21	963.23
588.407	1026.71
588.604	940.7
588.801	905.88
588.999	912.03
589.196	938.65
589.393	807.58
589.59	944.8
589.787	899.74
589.984	821.92
590.182	938.65
590.379	797.34
590.576	793.25
590.773	891.55
590.97	828.06
591.167	928.41
591.364	877.21
591.561	752.29
591.758	858.78
591.955	834.21
592.152	848.54
592.349	694.94
592.546	748.19
592.743	758.43
592.94	791.2
593.137	854.69
593.334	885.41
593.531	826.01
593.727	864.93
593.924	828.06
594.121	793.25
594.318	709.28
594.515	866.97
594.712	1024.67
594.908	879.26
595.105	780.96
595.302	957.08
595.499	838.3
595.696	1049.24
595.892	821.92
596.089	1020.57
596.286	891.55
596.482	1079.96
596.679	1016.48
596.876	916.12
597.072	1055.39
597.269	985.76
597.466	1151.64
597.662	1143.45
597.859	1110.68
598.055	1219.22
598.252	1188.5
598.448	1274.52
598.645	1262.23
598.841	1372.82
599.038	1464.98
599.234	1673.87
599.431	1464.98
599.627	1630.87
599.824	1663.63
600.02	1686.16
600.217	1647.25
600.413	1776.27
600.609	1782.42
600.806	2132.62
601.002	2017.93
601.198	1991.31
601.395	2097.8
601.591	2288.26
601.787	2382.47
601.984	2421.38
602.18	2509.44
602.376	2501.25
602.572	2595.46
602.769	2712.19
602.965	2820.74
603.161	3046.01
603.357	3158.65
603.553	3117.69
603.75	3230.33
603.946	3461.75
604.142	3504.76
604.338	3672.69
604.534	3799.66
604.73	3791.47
604.926	3859.06
605.122	4254.31
605.318	4190.83
605.514	4264.55
605.71	4508.26
605.906	4743.78
606.102	4833.89
606.298	4954.72
606.494	5028.45
606.69	5296.73
606.886	5223
607.082	5415.51
607.278	5489.24
607.474	5741.14
607.67	5978.7
607.866	6107.73
608.062	6294.09
608.257	6431.3
608.453	6509.13
608.649	6838.85
608.845	6773.32
609.041	7141.95
609.236	7492.15
609.432	7586.36
609.628	7778.87
609.824	8092.21
610.019	8045.1
610.215	8305.2
610.411	8557.1
610.606	8829.48
610.802	9120.29
610.998	9310.75
611.193	9542.17
611.389	9595.42
611.584	10099.22
611.78	10240.53
611.976	10289.68
612.171	10906.12
612.367	10914.31
612.562	11354.62
612.758	11753.98
612.953	11794.93
613.149	12110.32
613.344	12648.94
613.539	13076.96
613.735	13324.77
613.93	13615.58
614.126	13842.9
614.321	14451.15
614.517	14842.31
614.712	15245.76
614.907	15557.05
615.103	16034.23
615.298	16202.16
615.493	16652.72
615.688	16902.57
615.884	17736.09
616.079	17813.91
616.274	18639.25
616.47	18936.2
616.665	19612.03
616.86	19775.87
617.055	20289.91
617.25	20791.66
617.445	21680.48
617.641	21418.34
617.836	22534.48
618.031	22874.45
618.226	23636.29
618.421	23728.45
618.616	24701.23
618.811	24926.51
619.006	25921.82
619.201	26089.76
619.396	26964.24
619.591	27201.8
619.786	27846.91
619.981	28156.16
620.176	29245.68
620.371	29491.43
620.566	30361.82
620.761	30890.2
620.956	31731.91
621.151	32012.48
621.346	33130.67
621.541	33437.87
621.735	34298.02
621.93	34101.41
622.125	35498.12
622.32	35246.22
622.515	36737.15
622.709	36972.66
622.904	37822.57
623.099	38273.12
623.294	39280.72
623.488	39585.87
623.683	40437.83
623.878	40745.02
624.072	41814.06
624.267	42512.42
624.462	42604.58
624.656	43296.79
624.851	44412.93
625.046	44804.1
625.24	45379.57
625.435	45809.65
625.629	46585.83
625.824	46972.89
626.018	47894.48
626.213	47820.75
626.407	48705.48
626.602	48916.42
626.796	49737.65
626.991	50206.64
627.185	50143.15
627.38	50694.05
627.574	51146.65
627.768	51322.78
627.963	51369.88
628.157	51322.78
628.352	51890.07
628.546	51853.2
628.74	52533.13
628.935	51849.11
629.129	52037.52
629.323	51146.65
629.517	51120.03
629.712	51222.43
629.906	50726.82
630.1	49803.19
630.294	49719.22
630.489	48717.76
630.683	48631.75
630.877	47562.71
631.071	46436.33
631.265	46378.98
631.459	45434.87
631.653	44412.93
631.848	43825.17
632.042	42457.12
632.236	41852.97
632.43	40155.21
632.624	39399.51
632.818	38109.29
633.012	36849.78
633.206	35891.33
633.4	34941.08
633.594	33286.32
633.788	32780.47
633.982	31486.15
634.176	30230.75
634.369	29268.2
634.563	27967.74
634.757	26935.57
634.951	26196.25
635.145	24815.92
635.339	24293.69
635.533	23181.64
635.726	22360.41
635.92	21076.33
636.114	20234.61
636.308	19409.28
636.501	18899.34
636.695	18055.58
636.889	17242.53
637.083	16744.88
637.276	15927.74
637.47	15321.54
637.664	14612.94
637.857	14029.27
638.051	13599.2
638.244	12968.42
638.438	12532.2
638.632	12138.99
638.825	11362.81
639.019	11244.03
639.212	10519.05
639.406	10162.7
639.599	9775.64
639.793	9333.28
639.986	8765.99
640.18	8831.52
640.373	8411.69
640.567	7948.85
640.76	7705.14
640.954	7545.4
641.147	7117.37
641.34	6908.48
641.534	6480.46
641.727	6539.85
641.92	6185.55
642.114	5993.04
642.307	5732.95
642.5	5505.62
642.694	5089.88
642.887	5061.21
643.08	5141.08
643.273	4768.35
643.467	4518.5
643.66	4332.14
643.853	4115.05
644.046	4086.38
644.239	3916.4
644.432	3590.77
644.626	3545.72
644.819	3451.51
645.012	3320.44
645.205	3259
645.398	3132.03
645.591	2902.65
645.784	2747.01
645.977	2613.89
646.17	2509.44
646.363	2460.29
646.556	2323.08
646.749	2257.54
646.942	2212.49
647.135	2280.07
647.328	2163.34
647.521	1921.68
647.714	1942.16
647.907	1745.55
648.099	1800.85
648.292	1835.66
648.485	1651.35
648.678	1647.25
648.871	1489.56
649.064	1589.91
649.256	1329.81
649.449	1430.16
649.642	1233.56
649.835	1288.85
650.027	1147.55
650.22	1268.38
650.413	1077.91
650.605	1247.9
650.798	1112.73
650.991	942.75
651.183	1043.1
651.376	1022.62
651.568	930.46
651.761	866.97
651.954	912.03
652.146	850.59
652.339	901.79
652.531	879.26
652.724	764.58
652.916	764.58
653.109	582.31
653.301	766.62
653.494	742.05
653.686	682.66
653.879	678.56
654.071	705.18
654.263	686.75
654.456	543.39
654.648	645.79
654.84	629.41
655.033	555.68
655.225	598.69
655.417	520.87
655.61	619.17
655.802	459.43
655.994	602.79
656.186	465.57
656.379	561.83
656.571	459.43
656.763	408.23
656.955	397.99
657.148	397.99
657.34	533.15
657.532	393.89
657.724	438.95
657.916	381.6
658.108	461.48
658.3	424.61
658.492	393.89
658.684	268.97
658.876	412.32
659.068	326.31
659.26	283.3
659.452	246.44
659.644	420.52
659.836	453.28
660.028	373.41
660.22	332.45
660.412	238.25
660.604	357.03
660.796	305.83
660.988	295.59
661.18	260.77
661.372	293.54
661.563	301.73
661.755	289.45
661.947	141.99
662.139	236.2
662.331	246.44
662.522	211.62
662.714	164.52
662.906	199.34
663.097	180.9
663.289	141.99
663.481	221.86
663.673	168.62
663.864	207.53
664.056	240.3
664.247	189.1
664.439	281.25
664.631	170.66
664.822	195.24
665.014	230.06
665.205	90.79
665.397	94.89
665.588	225.96
665.78	236.2
665.971	271.01
666.163	148.14
666.354	262.82
666.546	185
666.737	156.33
666.929	225.96
667.12	158.38
667.311	219.82
667.503	209.58
667.694	203.43
667.885	203.43
668.077	223.91
668.268	92.84
668.459	191.14
668.651	199.34
668.842	195.24
669.033	62.12
669.224	129.7
669.416	289.45
669.607	123.56
669.798	129.7
669.989	258.73
670.18	195.24
670.371	268.97
670.563	92.84
670.754	252.58
670.945	172.71
671.136	281.25
671.327	121.51
671.518	125.61
671.709	285.35
671.9	160.42
672.091	266.92
672.282	219.82
672.473	189.1
672.664	78.51
672.855	195.24
673.046	191.14
673.237	242.34
673.428	225.96
673.619	197.29
673.809	94.89
674	281.25
674.191	309.93
674.382	125.61
674.573	168.62
674.764	164.52
674.954	236.2
675.145	129.7
675.336	92.84
675.527	146.09
675.717	96.94
675.908	129.7
676.099	191.14
676.289	244.39
676.48	55.98
676.671	193.19
676.861	236.2
677.052	160.42
677.243	250.53
677.433	129.7
677.624	264.87
677.814	164.52
678.005	150.18
678.195	322.21
678.386	164.52
678.576	201.38
678.767	119.46
678.957	232.1
679.148	260.77
679.338	299.69
679.529	293.54
679.719	223.91
679.909	301.73
680.1	330.41
680.29	250.53
680.481	170.66
680.671	299.69
680.861	279.21
681.052	225.96
681.242	189.1
681.432	344.74
681.622	223.91
681.813	166.57
682.003	262.82
682.193	152.23
682.383	299.69
682.573	258.73
682.764	238.25
682.954	230.06
683.144	295.59
683.334	289.45
683.524	252.58
683.714	326.31
683.904	262.82
684.094	256.68
684.284	242.34
684.474	400.04
684.664	320.17
684.854	260.77
685.044	242.34
685.234	277.16
685.424	389.8
685.614	219.82
685.804	383.65
685.994	404.13
686.184	297.64
686.374	297.64
686.564	342.69
686.753	250.53
686.943	180.9
687.133	217.77
687.323	307.88
687.513	268.97
687.702	303.78
687.892	293.54
688.082	375.46
688.272	430.76
688.461	277.16
688.651	357.03
688.841	291.49
689.03	242.34
689.22	291.49
689.41	311.97
689.599	348.84
689.789	254.63
689.979	434.85
690.168	236.2
690.358	369.32
690.547	252.58
690.737	330.41
690.926	365.22
691.116	340.65
691.305	338.6
691.495	357.03
691.684	273.06
691.874	301.73
692.063	279.21
692.252	350.89
692.442	287.4
692.631	295.59
692.82	277.16
693.01	314.02
693.199	311.97
693.388	242.34
693.578	277.16
693.767	324.26
693.956	348.84
694.146	293.54
694.335	359.08
694.524	242.34
694.713	354.98
694.902	293.54
695.092	209.58
695.281	281.25
695.47	320.17
695.659	244.39
695.848	273.06
696.037	207.53
696.226	346.79
696.415	262.82
696.604	385.7
696.793	289.45
696.982	234.15
697.171	404.13
697.36	242.34
697.549	291.49
697.738	195.24
697.927	205.48
698.116	221.86
698.305	359.08
698.494	246.44
698.683	201.38
698.872	490.15
699.061	277.16
699.25	234.15
699.438	389.8
699.627	242.34
699.816	527.01
700.005	121.51
700.193	240.3
700.382	352.93
700.571	363.17
700.76	264.87
700.948	320.17
701.137	316.07
701.326	393.89
701.514	238.25
701.703	318.12
701.892	342.69
702.08	385.7
702.269	393.89
702.457	176.81
702.646	309.93
702.834	293.54
703.023	381.6
703.212	373.41
703.4	322.21
703.589	195.24
703.777	297.64
703.965	225.96
704.154	324.26
704.342	230.06
704.531	297.64
704.719	334.5
704.907	340.65
705.096	246.44
705.284	137.9
705.472	250.53
705.661	293.54
705.849	326.31
706.037	410.28
706.226	285.35
706.414	314.02
706.602	324.26
706.79	244.39
706.979	238.25
707.167	295.59
707.355	166.57
707.543	330.41
707.731	328.36
707.919	250.53
708.107	211.62
708.296	244.39
708.484	246.44
708.672	268.97
708.86	275.11
709.048	283.3
709.236	324.26
709.424	389.8
709.612	320.17
709.8	213.67
709.988	338.6
710.176	332.45
710.364	395.94
710.551	281.25
710.739	295.59
710.927	264.87
711.115	305.83
711.303	344.74
711.491	357.03
711.679	228.01
711.866	293.54
712.054	365.22
712.242	332.45
712.43	281.25
712.617	279.21
712.805	369.32
712.993	240.3
713.181	121.51
713.368	275.11
713.556	217.77
713.744	187.05
713.931	455.33
714.119	395.94
714.306	256.68
714.494	252.58
714.682	291.49
714.869	160.42
715.057	311.97
715.244	182.95
715.432	314.02
715.619	314.02
715.807	328.36
715.994	260.77
716.182	326.31
716.369	387.75
716.556	336.55
716.744	205.48
716.931	191.14
717.119	291.49
717.306	293.54
717.493	352.93
717.681	252.58
717.868	256.68
718.055	273.06
718.242	326.31
718.43	449.19
718.617	359.08
718.804	324.26
718.991	361.13
719.179	369.32
719.366	336.55
719.553	311.97
719.74	295.59
719.927	322.21
720.114	301.73
720.301	344.74
720.488	311.97
720.676	307.88
720.863	400.04
721.05	434.85
721.237	328.36
721.424	426.66
721.611	363.17
721.798	248.49
721.985	275.11
722.172	232.1
722.358	391.84
722.545	369.32
722.732	379.56
722.919	430.76
723.106	324.26
723.293	416.42
723.48	449.19
723.667	311.97
723.853	406.18
724.04	363.17
724.227	469.67
724.414	344.74
724.6	451.24
724.787	451.24
724.974	539.3
725.161	346.79
725.347	246.44
725.534	350.89
725.72	346.79
725.907	371.37
726.094	486.05
726.28	352.93
726.467	330.41
726.653	291.49
726.84	465.57
727.027	524.96
727.213	441
727.4	397.99
727.586	336.55
727.773	371.37
727.959	404.13
728.145	387.75
728.332	393.89
728.518	348.84
728.705	445.09
728.891	332.45
729.077	408.23
729.264	330.41
729.45	336.55
729.636	449.19
729.823	410.28
730.009	377.51
730.195	381.6
730.382	441
730.568	275.11
730.754	367.27
730.94	385.7
731.126	434.85
731.313	408.23
731.499	418.47
731.685	488.1
731.871	420.52
732.057	449.19
732.243	422.56
732.429	422.56
732.615	543.39
732.801	461.48
732.987	420.52
733.173	408.23
733.359	344.74
733.545	492.2
733.731	395.94
733.917	383.65
734.103	469.67
734.289	393.89
734.475	365.22
734.661	565.92
734.847	400.04
735.033	455.33
735.219	445.09
735.404	410.28
735.59	410.28
735.776	379.56
735.962	371.37
736.148	377.51
736.333	494.24
736.519	377.51
736.705	338.6
736.89	338.6
737.076	379.56
737.262	350.89
737.447	408.23
737.633	367.27
737.819	432.8
738.004	395.94
738.19	377.51
738.375	416.42
738.561	436.9
738.747	365.22
738.932	414.37
739.118	545.44
739.303	488.1
739.489	434.85
739.674	420.52
739.859	393.89
740.045	418.47
740.23	391.84
740.416	330.41
740.601	397.99
740.786	496.29
740.972	402.08
741.157	350.89
741.342	412.32
741.528	252.58
741.713	496.29
741.898	350.89
742.084	324.26
742.269	391.84
742.454	422.56
742.639	498.34
742.824	404.13
743.01	510.63
743.195	553.63
743.38	397.99
743.565	459.43
743.75	502.44
743.935	426.66
744.12	488.1
744.305	357.03
744.49	330.41
744.675	361.13
744.86	410.28
745.045	367.27
745.23	385.7
745.415	381.6
745.6	510.63
745.785	377.51
745.97	524.96
746.155	387.75
746.34	481.96
746.525	426.66
746.71	512.67
746.895	395.94
747.079	324.26
747.264	383.65
747.449	434.85
747.634	441
747.819	260.77
748.003	318.12
748.188	328.36
748.373	402.08
748.557	322.21
748.742	328.36
748.927	432.8
749.111	350.89
749.296	309.93
749.481	512.67
749.665	320.17
749.85	271.01
750.034	322.21
750.219	369.32
750.404	336.55
750.588	295.59
750.773	273.06
750.957	330.41
751.141	336.55
751.326	383.65
751.51	291.49
751.695	363.17
751.879	254.63
752.064	451.24
752.248	221.86
752.432	449.19
752.617	404.13
752.801	332.45
752.985	266.92
753.17	311.97
753.354	301.73
753.538	367.27
753.722	172.71
753.907	309.93
754.091	295.59
754.275	348.84
754.459	256.68
754.643	213.67
754.828	295.59
755.012	299.69
755.196	160.42
755.38	305.83
755.564	215.72
755.748	215.72
755.932	309.93
756.116	334.5
756.3	307.88
756.484	277.16
756.668	320.17
756.852	115.37
757.036	187.05
757.22	297.64
757.404	225.96
757.588	254.63
757.772	320.17
757.956	258.73
758.14	332.45
758.323	162.47
758.507	252.58
758.691	199.34
758.875	279.21
759.059	332.45
759.242	260.77
759.426	268.97
759.61	293.54
759.794	285.35
759.977	363.17
760.161	400.04
760.345	268.97
760.528	295.59
760.712	256.68
760.895	244.39
761.079	197.29
761.263	150.18
761.446	205.48
761.63	264.87
761.813	307.88
761.997	213.67
762.18	180.9
762.364	293.54
762.547	88.75
762.731	248.49
762.914	234.15
763.098	170.66
763.281	211.62
763.464	162.47
763.648	203.43
763.831	123.56
764.015	191.14
764.198	172.71
764.381	168.62
764.564	209.58
764.748	207.53
764.931	268.97
765.114	189.1
765.297	221.86
765.481	150.18
765.664	135.85
765.847	123.56
766.03	250.53
766.213	86.7
766.397	203.43
766.58	98.99
766.763	219.82
766.946	189.1
767.129	117.42
767.312	137.9
767.495	133.8
767.678	176.81
767.861	176.81
768.044	172.71
768.227	92.84
768.41	166.57
768.593	176.81
768.776	166.57
768.959	166.57
769.142	266.92
769.324	131.75
769.507	101.03
769.69	78.51
769.873	187.05
770.056	324.26
770.239	172.71
770.421	221.86
770.604	201.38
770.787	248.49
770.97	139.94
771.152	158.38
771.335	203.43
771.518	19.11
771.7	170.66
771.883	258.73
772.066	123.56
772.248	158.38
772.431	236.2
772.613	285.35
772.796	35.5
772.978	197.29
773.161	279.21
773.343	121.51
773.526	78.51
773.708	58.03
773.891	23.21
774.073	111.27
774.256	135.85
774.438	246.44
774.621	88.75
774.803	170.66
774.985	92.84
775.168	170.66
775.35	72.36
775.532	211.62
775.715	58.03
775.897	193.19
776.079	129.7
776.261	137.9
776.444	162.47
776.626	141.99
776.808	141.99
776.99	23.21
777.173	84.65
777.355	49.83
777.537	21.16
777.719	146.09
777.901	96.94
778.083	92.84
778.265	8.87
778.447	152.23
778.629	-15.7
778.811	47.79
778.993	207.53
779.175	246.44
779.357	162.47
779.539	86.7
779.721	88.75
779.903	162.47
780.085	8.87
780.267	127.66
780.449	78.51
780.631	191.14
780.812	240.3
780.994	141.99
781.176	127.66
781.358	39.59
781.54	39.59
781.721	121.51
781.903	166.57
782.085	15.02
782.267	168.62
782.448	103.08
782.63	-46.42
782.812	80.55
782.993	170.66
783.175	144.04
783.357	29.35
783.538	131.75
783.72	92.84
783.901	109.23
784.083	45.74
784.264	55.98
784.446	-36.18
784.627	-11.61
784.809	74.41
784.99	58.03
785.172	113.32
785.353	-11.61
785.535	107.18
785.716	8.87
785.897	19.11
786.079	94.89
786.26	119.46
786.441	121.51
786.623	-71
786.804	-15.7
786.985	68.27
787.167	103.08
787.348	66.22
787.529	72.36
787.71	185
787.891	105.13
788.073	17.07
788.254	-15.7
788.435	199.34
788.616	66.22
788.797	39.59
788.978	55.98
789.159	37.55
789.34	66.22
789.522	19.11
789.703	-42.32
789.884	113.32
790.065	94.89
790.246	135.85
790.427	39.59
790.607	127.66
790.788	109.23
790.969	6.83
791.15	-5.46
791.331	90.79
791.512	31.4
791.693	-7.51
791.874	-25.94
792.054	254.63
792.235	115.37
792.416	-56.66
792.597	-25.94
792.778	58.03
792.958	127.66
793.139	98.99
793.32	23.21
793.5	-3.41
793.681	178.86
793.862	12.97
794.042	10.92
794.223	-62.8
794.404	-58.71
794.584	-71
794.765	25.26
794.945	47.79
795.126	68.27
795.306	172.71
795.487	23.21
795.667	-17.75
795.848	129.7
796.028	74.41
796.209	15.02
796.389	101.03
796.57	-30.04
796.75	-1.37
796.93	25.26
797.111	-66.9
797.291	25.26
797.471	72.36
797.652	-21.85
797.832	-5.46
798.012	90.79
798.192	-17.75
798.373	-93.52
798.553	27.31
798.733	58.03
798.913	-9.56
799.093	64.17
799.274	53.93
799.454	70.31
799.634	96.94
799.814	-19.8
799.994	94.89
800.174	53.93
800.354	17.07
800.534	-19.8
800.714	101.03
800.894	4.78
801.074	-25.94
801.254	-68.95
801.434	160.42
801.614	37.55
801.794	-44.37
801.974	1702.54
802.154	-73.04
802.334	23.21
802.514	0.68
802.693	-9.56
802.873	-66.9
803.053	119.46
803.233	37.55
803.413	45.74
803.592	-36.18
803.772	39.59
803.952	76.46
804.131	-17.75
804.311	90.79
804.491	141.99
804.67	-13.65
804.85	-5.46
805.03	19.11
805.209	94.89
805.389	-46.42
805.568	-27.99
805.748	-52.56
805.928	12.97
806.107	121.51
806.287	19.11
806.466	84.65
806.646	-30.04
806.825	6.83
807.004	23.21
807.184	121.51
807.363	62.12
807.543	55.98
807.722	-68.95
807.901	156.33
808.081	144.04
808.26	-165.2
808.439	78.51
808.619	86.7
808.798	-111.96
808.977	117.42
809.156	84.65
809.336	43.69
809.515	131.75
809.694	-103.76
809.873	-52.56
810.052	41.64
810.231	107.18
810.411	25.26
810.59	19.11
810.769	82.6
810.948	15.02
811.127	-50.52
811.306	-3.41
811.485	41.64
811.664	219.82
811.843	60.07
812.022	51.88
812.201	47.79
812.38	-60.76
812.559	-34.13
812.737	72.36
812.916	-68.95
813.095	-73.04
813.274	12.97
813.453	4.78
813.632	74.41
813.811	86.7
813.989	-101.72
814.168	-44.37
814.347	-19.8
814.526	2.73
814.704	78.51
814.883	129.7
815.062	4.78
815.24	-5.46
815.419	-73.04
815.598	23.21
815.776	-64.85
815.955	53.93
816.133	-73.04
816.312	6.83
816.49	31.4
816.669	41.64
816.847	6.83
817.026	49.83
817.204	-11.61
817.383	6.83
817.561	-87.38
817.74	-11.61
817.918	-11.61
818.097	-32.08
818.275	-32.08
818.453	107.18
818.632	15.02
818.81	45.74
818.988	-60.76
819.167	-44.37
819.345	27.31
819.523	-13.65
819.701	39.59
819.879	129.7
820.058	25.26
820.236	76.46
820.414	25.26
820.592	-81.24
820.77	103.08
820.948	-9.56
821.127	23.21
821.305	43.69
821.483	-77.14
821.661	55.98
821.839	8.87
822.017	-9.56
822.195	-48.47
822.373	78.51
822.551	21.16
822.729	51.88
822.907	-19.8
823.085	8.87
823.262	4.78
823.44	0.68
823.618	29.35
823.796	-17.75
823.974	-48.47
824.152	-30.04
824.329	17.07
824.507	2.73
824.685	55.98
824.863	0.68
825.04	53.93
825.218	19.11
825.396	10.92
825.574	31.4
825.751	-93.52
825.929	74.41
826.107	-3.41
826.284	-30.04
826.462	55.98
826.639	-9.56
826.817	-109.91
826.994	-9.56
827.172	-146.77
827.349	113.32
827.527	23.21
827.704	15.02
827.882	68.27
828.059	6.83
828.237	-40.28
828.414	53.93
828.591	-68.95
828.769	25.26
828.946	-46.42
829.124	55.98
829.301	123.56
829.478	-1.37
829.655	101.03
829.833	39.59
830.01	-77.14
830.187	53.93
830.364	37.55
830.542	27.31
830.719	84.65
830.896	53.93
831.073	12.97
831.25	92.84
831.427	41.64
831.604	47.79
831.782	23.21
831.959	27.31
832.136	-19.8
832.313	55.98
832.49	-83.28
832.667	51.88
832.844	-23.89
833.021	82.6
833.198	23.21
833.374	17.07
833.551	43.69
833.728	53.93
833.905	148.14
834.082	-54.61
834.259	35.5
834.436	8.87
834.612	-93.52
834.789	113.32
834.966	64.17
835.143	72.36
835.319	-62.8
835.496	58.03
835.673	-30.04
835.85	49.83
836.026	12.97
836.203	49.83
836.38	-52.56
836.556	-3.41
836.733	10.92
836.909	160.42
837.086	-17.75
837.262	-64.85
837.439	2.73
837.616	-25.94
837.792	-15.7
837.968	39.59
838.145	-58.71
838.321	31.4
838.498	-5.46
838.674	82.6
838.851	33.45
839.027	53.93
839.203	-21.85
839.38	119.46
839.556	-15.7
839.732	96.94
839.909	15.02
840.085	37.55
840.261	-68.95
840.437	35.5
840.614	-25.94
840.79	68.27
840.966	49.83
841.142	-48.47
841.318	-27.99
841.494	29.35
841.671	129.7
841.847	-103.76
842.023	-101.72
842.199	84.65
842.375	135.85
842.551	-62.8
842.727	-38.23
842.903	154.28
843.079	-73.04
843.255	64.17
843.431	-1.37
843.607	-3.41
843.783	-208.21
843.959	-1.37
844.134	-13.65
844.31	135.85
844.486	-83.28
844.662	-66.9
844.838	64.17
845.013	76.46
845.189	51.88
845.365	-30.04
845.541	-30.04
845.716	25.26
845.892	78.51
846.068	-52.56
846.244	-13.65
846.419	27.31
846.595	-71
846.77	-44.37
846.946	-11.61
847.122	-52.56
847.297	-66.9
847.473	152.23
847.648	-140.63
847.824	41.64
847.999	-79.19
848.175	-44.37
848.35	27.31
848.526	123.56
848.701	74.41
848.876	70.31
849.052	103.08
849.227	-58.71
849.403	2.73
849.578	64.17
849.753	86.7
849.929	-34.13
850.104	-52.56
850.279	-7.51
850.454	-13.65
850.63	23.21
850.805	60.07
850.98	21.16
851.155	4.78
851.33	45.74
851.505	-79.19
851.681	64.17
851.856	-15.7
852.031	37.55
852.206	29.35
852.381	-77.14
852.556	2.73
852.731	21.16
852.906	86.7
853.081	4.78
853.256	68.27
853.431	33.45
853.606	-71
853.781	-64.85
853.956	-91.48
854.131	-38.23
854.305	-48.47
854.48	-21.85
854.655	21.16
854.83	-107.86
855.005	-32.08
855.18	35.5
855.354	39.59
855.529	19.11
855.704	-3.41
855.879	23.21
856.053	-40.28
856.228	45.74
856.403	-46.42
856.577	15.02
856.752	-71
856.926	-62.8
857.101	-7.51
857.276	-105.81
857.45	-5.46
857.625	64.17
857.799	6.83
857.974	43.69
858.148	-179.54
858.323	51.88
858.497	-116.05
858.672	-36.18
858.846	-75.09
859.02	31.4
859.195	-52.56
859.369	8.87
859.543	33.45
859.718	-36.18
859.892	70.31
860.066	-3.41
860.241	-25.94
860.415	-5.46
860.589	-7.51
860.763	-77.14
860.938	19.11
861.112	43.69
861.286	-62.8
861.46	74.41
861.634	43.69
861.808	121.51
861.982	-13.65
862.157	-107.86
862.331	-62.8
862.505	-105.81
862.679	-9.56
862.853	-66.9
863.027	-44.37
863.201	98.99
863.375	23.21
863.549	76.46
863.722	41.64
863.896	84.65
864.07	-56.66
864.244	-27.99
864.418	74.41
864.592	45.74
864.766	70.31
864.939	-9.56
865.113	-107.86
865.287	43.69
865.461	-25.94
865.634	-1.37
865.808	-13.65
865.982	60.07
866.156	-48.47
866.329	-107.86
866.503	-64.85
866.676	10.92
866.85	6.83
867.024	-99.67
867.197	19.11
867.371	12.97
867.544	43.69
867.718	-71
867.891	23.21
868.065	-83.28
868.238	-79.19
868.412	113.32
868.585	15.02
868.759	-13.65
868.932	-9.56
869.105	-40.28
869.279	0.68
869.452	-36.18
869.625	41.64
869.799	8.87
869.972	-105.81
870.145	-44.37
870.319	68.27
870.492	41.64
870.665	-62.8
870.838	-21.85
871.011	-171.35
871.185	23.21
871.358	-50.52
871.531	-32.08
871.704	-15.7
871.877	2.73
872.05	-36.18
872.223	-120.15
872.396	45.74
872.569	27.31
872.742	-85.33
872.915	-15.7
873.088	-23.89
873.261	-79.19
873.434	74.41
873.607	0.68
873.78	123.56
873.953	-66.9
874.126	74.41
874.299	-38.23
874.471	-13.65
874.644	-60.76
874.817	23.21
874.99	98.99
875.163	-15.7
875.335	41.64
875.508	0.68
875.681	125.61
875.853	-50.52
876.026	-21.85
876.199	53.93
876.371	12.97
876.544	-13.65
876.717	-40.28
876.889	-11.61
877.062	-48.47
877.234	-9.56
877.407	-77.14
877.579	55.98
877.752	37.55
877.924	109.23
878.097	27.31
878.269	10.92
878.442	-46.42
878.614	10.92
878.786	60.07
878.959	-36.18
879.131	15.02
879.303	-85.33
879.476	4.78
879.648	80.55
879.82	-19.8
879.993	-50.52
880.165	-66.9
880.337	-71
880.509	41.64
880.681	-128.34
880.854	-107.86
881.026	45.74
881.198	156.33
881.37	31.4
881.542	-52.56
881.714	84.65
881.886	6.83
882.058	60.07
882.23	29.35
882.402	-34.13
882.574	-75.09
882.746	25.26
882.918	53.93
883.09	-9.56
883.262	78.51
883.434	37.55
883.606	-114
883.778	-21.85
883.95	107.18
884.122	4.78
884.293	62.12
884.465	45.74
884.637	37.55
884.809	-64.85
884.98	19.11
885.152	8.87
885.324	27.31
885.496	-91.48
885.667	-83.28
885.839	-58.71
886.011	84.65
886.182	47.79
886.354	49.83
886.525	17.07
886.697	-5.46
886.869	-36.18
887.04	-40.28
887.212	62.12
887.383	189.1
887.555	-13.65
887.726	-13.65
887.897	-42.32
888.069	15.02
888.24	-5.46
888.412	-21.85
888.583	19.11
888.754	-36.18
888.926	-40.28
889.097	-7.51
889.268	-56.66
889.44	-19.8
889.611	2.73
889.782	-50.52
889.953	-62.8
890.125	53.93
890.296	-48.47
890.467	-134.48
890.638	-46.42
890.809	-25.94
890.98	-52.56
891.151	4.78
891.323	51.88
891.494	-17.75
891.665	0.68
891.836	-1.37
892.007	23.21
892.178	37.55
892.349	53.93
892.52	-85.33
892.691	-15.7
892.862	-77.14
893.032	-128.34
893.203	-66.9
893.374	15.02
893.545	113.32
893.716	-109.91
893.887	21.16
894.057	-46.42
894.228	-36.18
894.399	-54.61
894.57	123.56
894.74	-7.51
894.911	31.4
895.082	39.59
895.253	-130.39
895.423	-25.94
895.594	0.68
895.764	-17.75
895.935	-101.72
896.106	25.26
896.276	-99.67
896.447	88.75
896.617	-66.9
896.788	2.73
896.958	-23.89
897.129	-66.9
897.299	-30.04
897.47	55.98
897.64	8.87
897.81	-11.61
897.981	-64.85
898.151	-44.37
898.322	17.07
898.492	86.7
898.662	-44.37
898.832	-46.42
899.003	-27.99
899.173	39.59
899.343	-44.37
899.513	-64.85
