Data from USB4F104151__76__10-33-07-344.txt Node

Date: Wed Feb 26 10:33:07 EST 2025
User: louis
Spectrometer: USB4F10415
Trigger mode: 4
Integration Time (sec): 1.000000E-1
Scans to average: 1
Electric dark correction enabled: true
Nonlinearity correction enabled: false
Boxcar width: 0
XAxis mode: Wavelengths
Number of Pixels in Spectrum: 3648
>>>>>Begin Spectral Data<<<<<
178.204	-346.62
178.424	-346.62
178.644	-346.62
178.864	-422.39
179.084	-334.33
179.304	-10.75
179.524	-2.56
179.744	-16.9
179.964	24.06
180.184	46.59
180.404	3.58
180.624	11.78
180.844	60.93
181.064	-80.38
181.283	56.83
181.503	-35.33
181.723	-57.86
181.943	42.5
182.163	194.05
182.383	40.45
182.602	69.12
182.822	122.37
183.042	110.08
183.262	17.92
183.482	87.55
183.701	110.08
183.921	185.85
184.141	-16.9
184.361	122.37
184.58	67.07
184.8	148.99
185.02	-0.51
185.239	130.56
185.459	28.16
185.679	245.24
185.898	-45.57
186.118	99.84
186.338	122.37
186.557	114.17
186.777	30.21
186.997	28.16
187.216	148.99
187.436	208.38
187.655	95.74
187.875	99.84
188.095	95.74
188.314	175.61
188.534	114.17
188.753	-25.09
188.973	126.46
189.192	153.09
189.412	28.16
189.631	52.74
189.851	122.37
190.07	198.14
190.29	-39.42
190.509	40.45
190.729	142.85
190.948	237.05
191.168	290.3
191.387	130.56
191.607	7.68
191.826	126.46
192.045	40.45
192.265	44.54
192.484	71.17
192.704	99.84
192.923	22.02
193.142	204.28
193.362	202.24
193.581	204.28
193.8	161.28
194.02	69.12
194.239	146.94
194.458	108.03
194.678	38.4
194.897	67.07
195.116	38.4
195.335	101.89
195.555	38.4
195.774	9.73
195.993	192
196.212	28.16
196.432	28.16
196.651	58.88
196.87	103.93
197.089	306.68
197.308	56.83
197.528	130.56
197.747	-0.51
197.966	75.26
198.185	148.99
198.404	15.87
198.623	97.79
198.842	134.65
199.062	198.14
199.281	124.41
199.5	77.31
199.719	140.8
199.938	181.76
200.157	151.04
200.376	148.99
200.595	136.7
200.814	116.22
201.033	38.4
201.252	183.81
201.471	95.74
201.69	99.84
201.909	118.27
202.128	38.4
202.347	89.6
202.566	30.21
202.785	-41.47
203.004	77.31
203.223	251.39
203.442	28.16
203.661	-16.9
203.879	146.94
204.098	237.05
204.317	13.82
204.536	132.61
204.755	85.5
204.974	157.18
205.193	65.02
205.411	155.13
205.63	114.17
205.849	153.09
206.068	83.45
206.287	36.35
206.505	163.33
206.724	161.28
206.943	26.11
207.162	24.06
207.381	77.31
207.599	116.22
207.818	48.64
208.037	11.78
208.255	89.6
208.474	105.98
208.693	138.75
208.911	-2.56
209.13	185.85
209.349	132.61
209.567	114.17
209.786	108.03
210.005	173.57
210.223	62.98
210.442	32.26
210.661	7.68
210.879	108.03
211.098	148.99
211.316	110.08
211.535	122.37
211.753	136.7
211.972	167.42
212.191	73.21
212.409	11.78
212.628	112.13
212.846	54.78
213.065	99.84
213.283	130.56
213.502	46.59
213.72	93.69
213.938	169.47
214.157	28.16
214.375	138.75
214.594	-33.28
214.812	101.89
215.031	91.65
215.249	67.07
215.467	144.89
215.686	77.31
215.904	75.26
216.122	75.26
216.341	226.81
216.559	60.93
216.778	148.99
216.996	171.52
217.214	89.6
217.432	-31.23
217.651	-2.56
217.869	58.88
218.087	112.13
218.306	110.08
218.524	44.54
218.742	38.4
218.96	142.85
219.179	30.21
219.397	36.35
219.615	278.01
219.833	167.42
220.051	52.74
220.27	112.13
220.488	169.47
220.706	138.75
220.924	28.16
221.142	42.5
221.36	-55.81
221.578	97.79
221.796	73.21
222.015	38.4
222.233	142.85
222.451	153.09
222.669	87.55
222.887	126.46
223.105	89.6
223.323	120.32
223.541	32.26
223.759	93.69
223.977	83.45
224.195	165.37
224.413	67.07
224.631	126.46
224.849	116.22
225.067	214.52
225.285	44.54
225.503	9.73
225.721	5.63
225.939	97.79
226.157	202.24
226.375	226.81
226.592	44.54
226.81	91.65
227.028	153.09
227.246	196.09
227.464	157.18
227.682	128.51
227.9	73.21
228.117	81.41
228.335	97.79
228.553	105.98
228.771	36.35
228.989	134.65
229.206	85.5
229.424	120.32
229.642	108.03
229.86	26.11
230.077	171.52
230.295	169.47
230.513	165.37
230.731	110.08
230.948	60.93
231.166	181.76
231.384	-33.28
231.601	11.78
231.819	228.86
232.037	44.54
232.254	26.11
232.472	93.69
232.689	7.68
232.907	140.8
233.125	93.69
233.342	-39.42
233.56	50.69
233.777	11.78
233.995	46.59
234.213	177.66
234.43	189.95
234.648	60.93
234.865	24.06
235.083	75.26
235.3	142.85
235.518	62.98
235.735	126.46
235.953	153.09
236.17	105.98
236.388	69.12
236.605	105.98
236.822	69.12
237.04	122.37
237.257	3.58
237.475	-10.75
237.692	15.87
237.909	130.56
238.127	71.17
238.344	148.99
238.562	81.41
238.779	-8.7
238.996	3.58
239.214	71.17
239.431	97.79
239.648	40.45
239.865	122.37
240.083	173.57
240.3	15.87
240.517	-20.99
240.735	7.68
240.952	95.74
241.169	67.07
241.386	71.17
241.603	54.78
241.821	-6.66
242.038	128.51
242.255	175.61
242.472	30.21
242.689	46.59
242.907	85.5
243.124	56.83
243.341	81.41
243.558	11.78
243.775	15.87
243.992	58.88
244.209	116.22
244.426	151.04
244.643	179.71
244.86	46.59
245.078	122.37
245.295	136.7
245.512	75.26
245.729	36.35
245.946	91.65
246.163	97.79
246.38	77.31
246.597	138.75
246.814	34.3
247.031	65.02
247.248	95.74
247.464	138.75
247.681	34.3
247.898	103.93
248.115	112.13
248.332	-4.61
248.549	159.23
248.766	122.37
248.983	173.57
249.2	95.74
249.417	136.7
249.633	-12.8
249.85	108.03
250.067	105.98
250.284	85.5
250.501	73.21
250.717	112.13
250.934	-6.66
251.151	95.74
251.368	40.45
251.585	108.03
251.801	89.6
252.018	62.98
252.235	67.07
252.451	38.4
252.668	46.59
252.885	103.93
253.102	44.54
253.318	60.93
253.535	-0.51
253.752	22.02
253.968	32.26
254.185	-14.85
254.401	130.56
254.618	75.26
254.835	65.02
255.051	146.94
255.268	132.61
255.484	95.74
255.701	67.07
255.917	56.83
256.134	48.64
256.351	-29.18
256.567	-8.7
256.784	38.4
257	-43.52
257.217	81.41
257.433	198.14
257.65	134.65
257.866	153.09
258.082	-14.85
258.299	56.83
258.515	108.03
258.732	73.21
258.948	110.08
259.165	91.65
259.381	11.78
259.597	118.27
259.814	58.88
260.03	48.64
260.246	36.35
260.463	85.5
260.679	167.42
260.895	155.13
261.112	87.55
261.328	138.75
261.544	62.98
261.761	173.57
261.977	79.36
262.193	22.02
262.409	169.47
262.626	91.65
262.842	126.46
263.058	50.69
263.274	151.04
263.49	130.56
263.707	101.89
263.923	116.22
264.139	-33.28
264.355	105.98
264.571	136.7
264.787	126.46
265.004	110.08
265.22	112.13
265.436	24.06
265.652	34.3
265.868	52.74
266.084	32.26
266.3	50.69
266.516	-49.66
266.732	54.78
266.948	108.03
267.164	163.33
267.38	95.74
267.596	130.56
267.812	187.9
268.028	183.81
268.244	17.92
268.46	93.69
268.676	38.4
268.892	130.56
269.108	19.97
269.324	91.65
269.54	1.54
269.756	157.18
269.972	40.45
270.188	3.58
270.403	60.93
270.619	87.55
270.835	142.85
271.051	50.69
271.267	97.79
271.483	28.16
271.698	122.37
271.914	42.5
272.13	75.26
272.346	155.13
272.562	19.97
272.777	175.61
272.993	-47.62
273.209	-6.66
273.425	71.17
273.64	36.35
273.856	124.41
274.072	73.21
274.287	75.26
274.503	161.28
274.719	103.93
274.934	46.59
275.15	28.16
275.366	101.89
275.581	5.63
275.797	28.16
276.012	9.73
276.228	81.41
276.444	159.23
276.659	175.61
276.875	52.74
277.09	15.87
277.306	22.02
277.521	105.98
277.737	50.69
277.952	89.6
278.168	124.41
278.383	73.21
278.599	71.17
278.814	146.94
279.03	-10.75
279.245	192
279.461	22.02
279.676	105.98
279.892	19.97
280.107	-25.09
280.322	95.74
280.538	118.27
280.753	-2.56
280.969	58.88
281.184	60.93
281.399	194.05
281.615	46.59
281.83	95.74
282.045	-59.9
282.26	114.17
282.476	118.27
282.691	142.85
282.906	50.69
283.122	32.26
283.337	67.07
283.552	110.08
283.767	65.02
283.983	89.6
284.198	62.98
284.413	71.17
284.628	-45.57
284.843	77.31
285.058	124.41
285.274	36.35
285.489	-0.51
285.704	116.22
285.919	24.06
286.134	114.17
286.349	30.21
286.564	81.41
286.779	185.85
286.995	89.6
287.21	-39.42
287.425	99.84
287.64	99.84
287.855	110.08
288.07	-86.53
288.285	216.57
288.5	105.98
288.715	130.56
288.93	95.74
289.145	56.83
289.36	138.75
289.575	48.64
289.79	126.46
290.004	19.97
290.219	138.75
290.434	40.45
290.649	77.31
290.864	75.26
291.079	56.83
291.294	87.55
291.509	75.26
291.724	69.12
291.938	148.99
292.153	54.78
292.368	101.89
292.583	52.74
292.798	165.37
293.012	132.61
293.227	73.21
293.442	118.27
293.657	126.46
293.871	155.13
294.086	77.31
294.301	140.8
294.516	146.94
294.73	99.84
294.945	-10.75
295.16	62.98
295.374	169.47
295.589	130.56
295.804	71.17
296.018	-8.7
296.233	134.65
296.447	181.76
296.662	5.63
296.877	187.9
297.091	54.78
297.306	54.78
297.52	56.83
297.735	56.83
297.949	105.98
298.164	112.13
298.378	22.02
298.593	22.02
298.807	-12.8
299.022	67.07
299.236	247.29
299.451	3.58
299.665	-2.56
299.88	79.36
300.094	151.04
300.309	97.79
300.523	67.07
300.737	60.93
300.952	142.85
301.166	105.98
301.381	48.64
301.595	62.98
301.809	87.55
302.024	112.13
302.238	9.73
302.452	99.84
302.667	30.21
302.881	128.51
303.095	105.98
303.309	157.18
303.524	7.68
303.738	56.83
303.952	15.87
304.166	71.17
304.381	-133.63
304.595	175.61
304.809	118.27
305.023	157.18
305.237	85.5
305.452	44.54
305.666	148.99
305.88	134.65
306.094	124.41
306.308	91.65
306.522	118.27
306.736	153.09
306.95	97.79
307.164	67.07
307.379	169.47
307.593	87.55
307.807	130.56
308.021	173.57
308.235	140.8
308.449	-0.51
308.663	126.46
308.877	290.3
309.091	81.41
309.305	83.45
309.519	-92.67
309.733	165.37
309.947	-8.7
310.161	122.37
310.374	120.32
310.588	187.9
310.802	-6.66
311.016	-8.7
311.23	87.55
311.444	56.83
311.658	81.41
311.872	134.65
312.085	148.99
312.299	148.99
312.513	120.32
312.727	206.33
312.941	34.3
313.154	65.02
313.368	132.61
313.582	32.26
313.796	81.41
314.009	67.07
314.223	105.98
314.437	112.13
314.651	159.23
314.864	26.11
315.078	11.78
315.292	-66.05
315.505	73.21
315.719	81.41
315.933	73.21
316.146	93.69
316.36	5.63
316.573	130.56
316.787	165.37
317.001	157.18
317.214	17.92
317.428	93.69
317.641	19.97
317.855	105.98
318.068	93.69
318.282	81.41
318.495	263.68
318.709	167.42
318.922	7.68
319.136	175.61
319.349	171.52
319.563	30.21
319.776	79.36
319.99	11.78
320.203	56.83
320.417	95.74
320.63	101.89
320.843	165.37
321.057	118.27
321.27	-20.99
321.483	69.12
321.697	124.41
321.91	144.89
322.124	114.17
322.337	151.04
322.55	7.68
322.763	161.28
322.977	17.92
323.19	46.59
323.403	144.89
323.617	157.18
323.83	99.84
324.043	99.84
324.256	118.27
324.469	46.59
324.683	224.76
324.896	87.55
325.109	77.31
325.322	-10.75
325.535	183.81
325.748	132.61
325.962	42.5
326.175	146.94
326.388	46.59
326.601	132.61
326.814	101.89
327.027	142.85
327.24	204.28
327.453	-49.66
327.666	171.52
327.879	192
328.092	122.37
328.305	65.02
328.518	40.45
328.731	-12.8
328.944	75.26
329.157	151.04
329.37	81.41
329.583	261.63
329.796	255.48
330.009	-35.33
330.222	36.35
330.435	120.32
330.648	81.41
330.861	-10.75
331.073	32.26
331.286	144.89
331.499	142.85
331.712	56.83
331.925	54.78
332.138	77.31
332.35	105.98
332.563	28.16
332.776	148.99
332.989	32.26
333.202	11.78
333.414	87.55
333.627	3.58
333.84	83.45
334.053	138.75
334.265	65.02
334.478	52.74
334.691	15.87
334.903	144.89
335.116	32.26
335.329	17.92
335.541	81.41
335.754	247.29
335.966	19.97
336.179	93.69
336.392	77.31
336.604	91.65
336.817	101.89
337.029	60.93
337.242	130.56
337.454	56.83
337.667	126.46
337.88	173.57
338.092	144.89
338.305	67.07
338.517	69.12
338.729	159.23
338.942	206.33
339.154	19.97
339.367	7.68
339.579	159.23
339.792	3.58
340.004	169.47
340.217	30.21
340.429	95.74
340.641	-45.57
340.854	26.11
341.066	60.93
341.278	208.38
341.491	269.82
341.703	15.87
341.915	34.3
342.128	179.71
342.34	128.51
342.552	15.87
342.764	40.45
342.977	3.58
343.189	114.17
343.401	95.74
343.613	22.02
343.826	105.98
344.038	75.26
344.25	52.74
344.462	62.98
344.674	120.32
344.886	50.69
345.099	167.42
345.311	163.33
345.523	83.45
345.735	-25.09
345.947	65.02
346.159	128.51
346.371	81.41
346.583	32.26
346.795	261.63
347.007	38.4
347.219	146.94
347.431	32.26
347.643	218.62
347.855	-23.04
348.067	165.37
348.279	-18.94
348.491	116.22
348.703	58.88
348.915	50.69
349.127	85.5
349.339	46.59
349.551	-14.85
349.763	183.81
349.975	26.11
350.187	185.85
350.399	210.43
350.61	79.36
350.822	97.79
351.034	99.84
351.246	71.17
351.458	155.13
351.669	151.04
351.881	105.98
352.093	81.41
352.305	187.9
352.517	167.42
352.728	171.52
352.94	140.8
353.152	83.45
353.363	5.63
353.575	65.02
353.787	153.09
353.999	91.65
354.21	198.14
354.422	65.02
354.633	5.63
354.845	103.93
355.057	24.06
355.268	69.12
355.48	112.13
355.692	36.35
355.903	167.42
356.115	40.45
356.326	1.54
356.538	183.81
356.749	83.45
356.961	120.32
357.172	67.07
357.384	-2.56
357.595	237.05
357.807	75.26
358.018	19.97
358.23	87.55
358.441	183.81
358.653	85.5
358.864	69.12
359.075	46.59
359.287	108.03
359.498	167.42
359.709	87.55
359.921	105.98
360.132	169.47
360.344	103.93
360.555	83.45
360.766	91.65
360.977	28.16
361.189	128.51
361.4	87.55
361.611	136.7
361.823	171.52
362.034	136.7
362.245	-14.85
362.456	144.89
362.667	103.93
362.879	71.17
363.09	54.78
363.301	91.65
363.512	69.12
363.723	-55.81
363.935	52.74
364.146	126.46
364.357	130.56
364.568	198.14
364.779	24.06
364.99	214.52
365.201	32.26
365.412	167.42
365.623	-43.52
365.834	67.07
366.045	38.4
366.256	85.5
366.467	75.26
366.678	30.21
366.889	77.31
367.1	26.11
367.311	24.06
367.522	-45.57
367.733	153.09
367.944	52.74
368.155	46.59
368.366	138.75
368.577	126.46
368.788	194.05
368.999	30.21
369.209	134.65
369.42	259.58
369.631	220.67
369.842	91.65
370.053	19.97
370.264	194.05
370.474	-20.99
370.685	77.31
370.896	79.36
371.107	179.71
371.317	142.85
371.528	-8.7
371.739	181.76
371.95	101.89
372.16	112.13
372.371	-6.66
372.582	95.74
372.792	130.56
373.003	34.3
373.214	126.46
373.424	163.33
373.635	73.21
373.846	159.23
374.056	91.65
374.267	99.84
374.477	97.79
374.688	77.31
374.898	165.37
375.109	83.45
375.319	153.09
375.53	118.27
375.74	105.98
375.951	95.74
376.161	159.23
376.372	159.23
376.582	28.16
376.793	60.93
377.003	54.78
377.214	95.74
377.424	169.47
377.635	60.93
377.845	24.06
378.055	169.47
378.266	-39.42
378.476	22.02
378.686	83.45
378.897	132.61
379.107	159.23
379.317	132.61
379.528	56.83
379.738	216.57
379.948	38.4
380.158	142.85
380.369	85.5
380.579	185.85
380.789	91.65
380.999	101.89
381.21	146.94
381.42	237.05
381.63	120.32
381.84	157.18
382.05	142.85
382.261	185.85
382.471	177.66
382.681	-33.28
382.891	192
383.101	108.03
383.311	19.97
383.521	75.26
383.731	126.46
383.941	187.9
384.151	122.37
384.361	89.6
384.571	124.41
384.781	155.13
384.991	148.99
385.201	267.77
385.411	114.17
385.621	93.69
385.831	101.89
386.041	103.93
386.251	11.78
386.461	122.37
386.671	93.69
386.881	140.8
387.091	67.07
387.301	93.69
387.511	146.94
387.72	159.23
387.93	138.75
388.14	-102.91
388.35	110.08
388.56	161.28
388.769	69.12
388.979	97.79
389.189	11.78
389.399	34.3
389.609	118.27
389.818	93.69
390.028	83.45
390.238	144.89
390.447	44.54
390.657	112.13
390.867	65.02
391.076	-12.8
391.286	132.61
391.496	40.45
391.705	181.76
391.915	169.47
392.125	105.98
392.334	32.26
392.544	187.9
392.753	101.89
392.963	-2.56
393.172	105.98
393.382	89.6
393.591	292.35
393.801	11.78
394.01	157.18
394.22	120.32
394.429	89.6
394.639	44.54
394.848	95.74
395.058	171.52
395.267	65.02
395.477	153.09
395.686	36.35
395.895	194.05
396.105	235
396.314	126.46
396.524	89.6
396.733	93.69
396.942	157.18
397.152	73.21
397.361	130.56
397.57	28.16
397.78	128.51
397.989	85.5
398.198	204.28
398.407	126.46
398.617	50.69
398.826	146.94
399.035	69.12
399.244	185.85
399.453	62.98
399.663	73.21
399.872	151.04
400.081	54.78
400.29	161.28
400.499	9.73
400.708	181.76
400.917	65.02
401.127	120.32
401.336	62.98
401.545	196.09
401.754	73.21
401.963	112.13
402.172	-49.66
402.381	40.45
402.59	50.69
402.799	30.21
403.008	204.28
403.217	142.85
403.426	91.65
403.635	-45.57
403.844	83.45
404.053	54.78
404.262	112.13
404.471	224.76
404.68	99.84
404.888	71.17
405.097	89.6
405.306	161.28
405.515	132.61
405.724	91.65
405.933	138.75
406.142	77.31
406.35	222.72
406.559	95.74
406.768	108.03
406.977	189.95
407.185	103.93
407.394	93.69
407.603	56.83
407.812	75.26
408.02	167.42
408.229	124.41
408.438	157.18
408.646	-29.18
408.855	22.02
409.064	146.94
409.272	103.93
409.481	165.37
409.69	26.11
409.898	52.74
410.107	161.28
410.315	142.85
410.524	30.21
410.733	91.65
410.941	97.79
411.15	116.22
411.358	71.17
411.567	194.05
411.775	65.02
411.984	75.26
412.192	196.09
412.401	44.54
412.609	265.72
412.818	241.15
413.026	153.09
413.234	46.59
413.443	155.13
413.651	-10.75
413.86	114.17
414.068	187.9
414.276	267.77
414.485	32.26
414.693	177.66
414.901	239.1
415.11	93.69
415.318	87.55
415.526	116.22
415.734	153.09
415.943	52.74
416.151	157.18
416.359	46.59
416.567	124.41
416.776	120.32
416.984	91.65
417.192	243.2
417.4	40.45
417.608	114.17
417.817	34.3
418.025	122.37
418.233	212.48
418.441	5.63
418.649	-4.61
418.857	65.02
419.065	179.71
419.273	93.69
419.481	132.61
419.689	42.5
419.897	65.02
420.105	103.93
420.313	177.66
420.521	132.61
420.729	185.85
420.937	-0.51
421.145	-0.51
421.353	116.22
421.561	173.57
421.769	42.5
421.977	40.45
422.185	165.37
422.393	110.08
422.601	132.61
422.809	140.8
423.017	132.61
423.224	99.84
423.432	153.09
423.64	48.64
423.848	189.95
424.056	36.35
424.263	189.95
424.471	79.36
424.679	259.58
424.887	77.31
425.094	214.52
425.302	95.74
425.51	120.32
425.718	169.47
425.925	132.61
426.133	62.98
426.341	218.62
426.548	130.56
426.756	34.3
426.964	124.41
427.171	97.79
427.379	169.47
427.586	97.79
427.794	159.23
428.001	171.52
428.209	222.72
428.417	235
428.624	89.6
428.832	155.13
429.039	124.41
429.247	169.47
429.454	159.23
429.662	202.24
429.869	189.95
430.076	87.55
430.284	173.57
430.491	249.34
430.699	204.28
430.906	249.34
431.114	151.04
431.321	155.13
431.528	153.09
431.736	216.57
431.943	140.8
432.15	212.48
432.358	282.11
432.565	284.16
432.772	15.87
432.979	335.35
433.187	132.61
433.394	327.16
433.601	132.61
433.808	153.09
434.016	300.54
434.223	263.68
434.43	222.72
434.637	300.54
434.844	288.25
435.052	302.59
435.259	308.73
435.466	306.68
435.673	263.68
435.88	316.92
436.087	417.27
436.294	390.65
436.501	349.69
436.708	337.4
436.915	382.46
437.122	458.23
437.329	339.45
437.537	380.41
437.743	505.34
437.95	579.06
438.157	486.9
438.364	454.14
438.571	484.86
438.778	536.06
438.985	478.71
439.192	544.25
439.399	562.68
439.606	515.58
439.813	591.35
440.02	615.93
440.227	749.04
440.433	679.41
440.64	656.89
440.847	642.55
441.054	703.99
441.261	701.94
441.467	730.61
441.674	767.48
441.881	841.2
442.088	769.52
442.294	916.98
442.501	759.28
442.708	863.73
442.914	839.16
443.121	916.98
443.328	945.65
443.534	1076.72
443.741	904.69
443.948	890.35
444.154	1068.53
444.361	1218.03
444.568	1152.49
444.774	1203.69
444.981	1134.06
445.187	1326.57
445.394	1265.13
445.6	1189.36
445.807	1512.94
446.013	1416.68
446.22	1381.87
446.426	1562.09
446.633	1723.88
446.839	1887.72
447.046	1545.7
447.252	1793.51
447.459	1713.64
447.665	1746.41
447.871	1945.06
448.078	2106.85
448.284	2057.7
448.491	2133.47
448.697	2266.59
448.903	2424.28
449.11	2436.57
449.316	2352.6
449.522	2555.35
449.728	2708.95
449.935	2772.44
450.141	2715.09
450.347	2975.19
450.553	2909.65
450.76	3022.29
450.966	3139.02
451.172	3405.26
451.378	3521.99
451.584	3474.89
451.791	3780.04
451.997	3726.79
452.203	3800.52
452.409	4103.62
452.615	4054.47
452.821	4177.34
453.027	4216.26
453.233	4736.44
453.44	4484.54
453.646	4785.59
453.852	5023.16
454.058	5395.89
454.264	5326.25
454.47	5889.45
454.676	5676.46
454.882	6348.19
455.088	6198.69
455.294	6538.65
455.5	6645.15
455.705	7249.3
455.911	6905.24
456.117	7095.7
456.323	7634.32
456.529	7517.58
456.735	8248.71
456.941	8430.98
457.147	8885.62
457.352	9028.98
457.558	9336.18
457.764	9874.79
457.97	10331.49
458.176	10497.38
458.381	10829.15
458.587	11459.92
458.793	12055.88
458.999	11865.42
459.204	13266.23
459.41	13710.64
459.616	13534.51
459.821	14204.2
460.027	15117.59
460.233	15713.55
460.438	15756.56
460.644	16661.76
460.85	16637.19
461.055	17439.99
461.261	18072.81
461.466	18199.79
461.672	18320.62
461.878	20589.77
462.083	20032.72
462.289	20724.93
462.494	21386.43
462.7	21583.03
462.905	21970.1
463.111	23927.95
463.316	24865.92
463.522	25224.32
463.727	26088.56
463.932	27210.85
464.138	27520.09
464.343	29025.35
464.549	29158.47
464.754	30932.01
464.959	31935.51
465.165	32850.95
465.37	32072.73
465.575	32191.51
465.781	34348.02
465.986	35759.07
466.191	35226.6
466.397	35349.48
466.602	34546.67
466.807	36152.28
467.012	37227.46
467.218	37508.04
467.423	37495.75
467.628	38491.06
467.833	40754.07
468.038	40002.46
468.244	39158.7
468.449	41362.31
468.654	40387.48
468.859	40428.44
469.064	40065.95
469.269	39318.44
469.474	39707.55
469.679	40909.71
469.885	39488.42
470.09	40217.5
470.295	40240.03
470.5	38833.07
470.705	39584.68
470.91	39044.01
471.115	38151.1
471.32	38812.59
471.525	38536.12
471.73	37413.83
471.935	36905.93
472.139	35582.95
472.344	35754.97
472.549	35904.48
472.754	35034.09
472.959	34223.09
473.164	32930.83
473.369	32508.94
473.574	33494.02
473.778	32633.87
473.983	32353.3
474.188	31558.69
474.393	30102.58
474.598	29844.54
474.802	29332.54
475.007	29211.71
475.212	28658.76
475.417	27485.28
475.621	27137.12
475.826	27008.1
476.031	25922.68
476.235	25810.04
476.44	25785.46
476.645	25166.98
476.849	24937.6
477.054	24595.59
477.259	23956.63
477.463	23925.91
477.668	23198.88
477.872	23018.66
478.077	22459.56
478.282	22054.06
478.486	21597.37
478.691	21435.58
478.895	21423.29
479.1	21206.2
479.304	21120.19
479.509	20167.88
479.713	20626.63
479.918	20176.08
480.122	19725.52
480.326	19948.75
480.531	19907.79
480.735	19774.67
480.94	19252.44
481.144	19836.11
481.348	18826.46
481.553	18982.11
481.757	18328.81
481.961	18842.85
482.166	18937.06
482.37	18644.2
482.574	17968.37
482.778	18201.83
482.983	18367.72
483.187	17980.65
483.391	17710.32
483.595	17519.86
483.8	17171.71
484.004	17566.96
484.208	17364.22
484.412	17108.22
484.616	17065.21
484.821	16805.12
485.025	16235.78
485.229	16573.7
485.433	15875.34
485.637	16024.84
485.841	15725.84
486.045	15410.45
486.249	15203.61
486.453	15109.4
486.657	15174.94
486.861	15021.34
487.065	14222.63
487.269	14140.71
487.473	13542.71
487.677	13862.19
487.881	13772.08
488.085	13415.73
488.289	13200.69
488.493	12895.55
488.697	12891.45
488.901	12645.7
489.105	12279.11
489.309	12141.89
489.512	11808.08
489.716	11576.66
489.92	11322.71
490.124	11079
490.328	11101.53
490.531	10784.09
490.735	10900.83
490.939	10415.46
491.143	10286.44
491.346	10032.49
491.55	10089.83
491.754	9641.32
491.958	9835.88
492.161	9606.51
492.365	9446.77
492.569	9215.35
492.772	8824.19
492.976	9063.8
493.18	8703.36
493.383	8815.99
493.587	8762.75
493.79	8738.17
493.994	8316.29
494.197	8320.39
494.401	8299.91
494.605	8115.59
494.808	8177.03
495.012	7996.81
495.215	7982.47
495.419	8045.96
495.622	7933.32
495.825	7841.16
496.029	7665.04
496.232	7785.87
496.436	7595.4
496.639	7912.84
496.843	7794.06
497.046	7921.03
497.249	7744.91
497.453	7638.41
497.656	7589.26
497.859	7759.24
498.063	7746.95
498.266	7841.16
498.469	7638.41
498.673	7931.27
498.876	7808.39
499.079	7902.6
499.282	7693.71
499.485	8146.31
499.689	8123.78
499.892	7961.99
500.095	8054.15
500.298	8322.43
500.501	8056.2
500.705	8408.45
500.908	8330.62
501.111	8299.91
501.314	8471.93
501.517	8514.94
501.72	8682.88
501.923	8754.55
502.126	8721.79
502.329	8815.99
502.532	8965.5
502.735	9012.6
502.938	9184.63
503.141	9213.3
503.344	9377.14
503.547	9358.71
503.75	9606.51
503.953	9710.96
504.156	9909.61
504.359	9907.56
504.562	9780.59
504.765	10253.67
504.968	10145.13
505.17	10528.1
505.373	10868.06
505.576	11105.62
505.779	11179.35
505.982	11056.47
506.185	11521.36
506.387	11369.81
506.59	11734.35
506.793	11945.29
506.996	12174.66
507.198	12416.32
507.401	12635.46
507.604	12844.35
507.807	13352.24
508.009	13534.51
508.212	13839.66
508.415	13813.04
508.617	14300.45
508.82	14427.43
509.022	14509.35
509.225	14845.21
509.428	15211.8
509.63	15570.19
509.833	15811.85
510.035	16528.64
510.238	16719.1
510.44	17356.02
510.643	17722.61
510.845	18119.92
511.048	18169.07
511.25	18619.62
511.453	18603.24
511.655	19612.88
511.858	19907.79
512.06	20372.68
512.262	20677.83
512.465	21087.42
512.667	21392.57
512.87	21869.75
513.072	22512.81
513.274	23155.87
513.477	23610.52
513.679	23932.05
513.881	24542.35
514.084	25230.46
514.286	25478.27
514.488	26059.89
514.69	27100.26
514.893	27124.83
515.095	27825.24
515.297	28675.15
515.499	29000.77
515.701	29899.83
515.904	30295.09
516.106	30966.82
516.308	31355.94
516.51	32386.07
516.712	32564.24
516.914	33408
517.116	34153.46
517.318	34640.88
517.52	35240.93
517.722	35648.48
517.925	36774.86
518.127	37022.67
518.329	37993.4
518.531	38163.39
518.733	39107.5
518.935	39607.2
519.136	39900.06
519.338	40706.96
519.54	41272.2
519.742	42070.91
519.944	42605.43
520.146	43645.8
520.348	43987.81
520.55	44493.66
520.752	44467.03
520.954	45906.76
521.155	45359.95
521.357	46390.08
521.559	46940.98
521.761	47862.57
521.963	47760.17
522.164	48554.78
522.366	48335.65
522.568	49339.15
522.77	49175.31
522.971	50086.66
523.173	49558.28
523.375	50549.5
523.576	49996.55
523.778	50526.97
523.98	51290.87
524.181	51163.89
524.383	51370.74
524.584	51917.54
524.786	51530.48
524.988	51409.65
525.189	52011.75
525.391	52040.42
525.592	52099.81
525.794	51983.08
525.995	51743.47
526.197	52237.03
526.398	51753.71
526.6	52392.67
526.801	51839.72
527.003	52214.5
527.204	51364.59
527.406	51096.31
527.607	51737.32
527.808	51141.36
528.01	50256.64
528.211	50334.46
528.412	50467.58
528.614	49746.7
528.815	49652.49
529.016	49650.44
529.218	48888.6
529.419	48681.75
529.62	48489.24
529.822	47846.18
530.023	47282.99
530.224	46959.41
530.425	46406.46
530.626	45769.54
530.828	44874.58
531.029	45742.92
531.23	44557.14
531.431	43991.9
531.632	43697
531.833	43283.31
532.035	42496.89
532.236	42369.91
532.437	41669.51
532.638	41200.52
532.839	40858.51
533.04	40618.9
533.241	39232.43
533.442	39515.05
533.643	38751.15
533.844	38316.98
534.045	38228.92
534.246	36922.32
534.447	36762.58
534.648	36037.59
534.849	35793.89
535.05	34860.01
535.251	34835.44
535.451	34055.16
535.652	33936.38
535.853	33485.83
536.054	33045.51
536.255	32705.55
536.456	32062.49
536.657	32205.84
536.857	31437.86
537.058	30608.43
537.259	30782.51
537.46	30053.43
537.66	29680.7
537.861	29404.22
538.062	28965.96
538.263	28585.04
538.463	27757.66
538.664	27819.1
538.865	27241.57
539.065	27192.42
539.266	26715.24
539.466	26578.03
539.667	25916.53
539.868	26158.19
540.068	25377.92
540.269	25105.54
540.469	25009.28
540.67	24681.61
540.87	24677.51
541.071	24247.44
541.271	23901.33
541.472	23843.99
541.672	23155.87
541.873	22731.94
542.073	22303.92
542.274	22543.53
542.474	22193.33
542.675	21953.71
542.875	21716.15
543.075	21314.75
543.276	21142.72
543.476	21087.42
543.676	20894.91
543.877	20571.33
544.077	20362.44
544.277	20073.68
544.478	19907.79
544.678	19879.12
544.878	19377.37
545.078	19326.17
545.279	18832.61
545.479	18756.83
545.679	18498.79
545.879	18093.29
546.079	18124.01
546.28	17562.87
546.48	17827.06
546.68	17530.1
546.88	17423.61
547.08	17227
547.28	16846.08
547.48	16712.96
547.68	16545.03
547.88	16465.16
548.081	16282.89
548.281	15961.36
548.481	15475.99
548.681	15539.47
548.881	15314.2
549.081	15183.13
549.28	14943.52
549.48	14753.05
549.68	14423.33
549.88	14365.99
550.08	13888.81
550.28	14066.99
550.48	13802.8
550.68	13612.34
550.88	13356.34
551.08	13276.47
551.279	13020.47
551.479	12713.28
551.679	12635.46
551.879	12422.47
552.079	12227.91
552.278	12182.85
552.478	11830.6
552.678	11767.12
552.878	11732.3
553.077	11375.95
553.277	10995.03
553.477	11095.38
553.676	11021.66
553.876	10589.53
554.076	10745.18
554.275	10511.71
554.475	10132.84
554.674	9989.48
554.874	9864.55
555.074	9770.35
555.273	9710.96
555.473	9569.65
555.672	9375.09
555.872	9057.65
556.071	9006.45
556.271	9063.8
556.47	8627.58
556.67	8668.54
556.869	8484.22
557.068	8263.04
557.268	8168.84
557.467	7906.7
557.667	7990.66
557.866	7820.68
558.065	7607.69
558.265	7490.96
558.464	7452.05
558.663	7261.59
558.863	7116.18
559.062	7001.49
559.261	6905.24
559.461	6968.73
559.66	6653.34
559.859	6401.44
560.058	6280.61
560.258	6417.82
560.457	6213.03
560.656	6303.14
560.855	6176.16
561.054	6233.5
561.253	5885.35
561.453	5907.88
561.652	5903.78
561.851	5569.96
562.05	5295.54
562.249	5537.2
562.448	5549.48
562.647	5373.36
562.846	5250.48
563.045	5217.71
563.244	5131.7
563.443	4947.38
563.642	4971.96
563.841	4879.8
564.04	4711.86
564.239	4734.39
564.438	4650.43
564.637	4439.48
564.836	4513.21
565.035	4386.24
565.234	4343.23
565.432	4322.75
565.631	4310.46
565.83	4226.5
566.029	4169.15
566.228	4257.22
566.427	3952.07
566.625	3954.12
566.824	3972.55
567.023	3872.2
567.222	3763.65
567.42	3806.66
567.619	3657.16
567.818	3794.37
568.016	3790.28
568.215	3542.47
568.414	3503.56
568.612	3612.1
568.811	3546.57
569.01	3380.68
569.208	3368.4
569.407	3206.61
569.605	3218.89
569.804	3194.32
570.002	3253.71
570.201	2999.76
570.4	3059.15
570.598	2987.47
570.797	2938.32
570.995	3042.77
571.193	2872.79
571.392	2852.31
571.59	2635.22
571.789	2731.48
571.987	2778.58
572.186	2770.39
572.384	2622.94
572.582	2602.46
572.781	2590.17
572.979	2434.52
573.177	2581.98
573.376	2489.82
573.574	2489.82
573.772	2375.13
573.971	2219.49
574.169	2059.74
574.367	2366.94
574.565	2237.92
574.763	2203.1
574.962	2100.7
575.16	2147.81
575.358	2106.85
575.556	2078.18
575.754	1949.15
575.952	1983.97
576.151	1934.82
576.349	1971.68
576.547	1811.94
576.745	1801.7
576.943	1885.67
577.141	1805.8
577.339	1715.69
577.537	1822.18
577.735	1758.69
577.933	1766.89
578.131	1586.66
578.329	1795.56
578.527	1727.97
578.725	1617.38
578.923	1433.07
579.121	1619.43
579.319	1437.16
579.516	1398.25
579.714	1691.11
579.912	1455.59
580.11	1328.62
580.308	1349.1
580.506	1322.48
580.704	1246.7
580.901	1338.86
581.099	1349.1
581.297	1365.48
581.495	1297.9
581.692	1345
581.89	1410.54
582.088	1375.72
582.285	1211.89
582.483	1183.21
582.681	1244.65
582.878	1099.25
583.076	1193.45
583.274	1134.06
583.471	1240.56
583.669	1033.71
583.866	953.84
584.064	1019.38
584.262	1023.47
584.459	1011.18
584.657	1091.06
584.854	1078.77
585.052	984.56
585.249	1037.81
585.447	968.18
585.644	916.98
585.841	1058.29
586.039	1009.14
586.236	976.37
586.434	882.16
586.631	880.11
586.828	783.86
587.026	929.27
587.223	902.64
587.42	853.49
587.618	873.97
587.815	871.92
588.012	935.41
588.21	843.25
588.407	839.16
588.604	898.55
588.801	720.37
588.999	779.76
589.196	837.11
589.393	767.48
589.59	792.05
589.787	728.56
589.984	810.48
590.182	830.96
590.379	634.36
590.576	722.42
590.773	744.95
590.97	742.9
591.167	787.96
591.364	777.72
591.561	556.54
591.758	818.68
591.955	693.75
592.152	730.61
592.349	663.03
592.546	732.66
592.743	615.93
592.94	714.23
593.137	771.57
593.334	890.35
593.531	744.95
593.727	773.62
593.924	730.61
594.121	749.04
594.318	710.13
594.515	689.65
594.712	806.39
594.908	892.4
595.105	656.89
595.302	863.73
595.499	826.87
595.696	884.21
595.892	787.96
596.089	962.03
596.286	755.19
596.482	892.4
596.679	968.18
596.876	783.86
597.072	876.02
597.269	871.92
597.466	910.83
597.662	939.51
597.859	978.42
598.055	1056.24
598.252	1123.82
598.448	1138.16
598.645	1201.65
598.841	1185.26
599.038	1310.19
599.234	1396.2
599.431	1351.15
599.627	1316.33
599.824	1469.93
600.02	1443.31
600.217	1412.59
600.413	1607.14
600.609	1576.42
600.806	1912.29
601.002	1799.65
601.198	1695.21
601.395	1938.91
601.591	1926.63
601.787	2035.17
601.984	2139.62
602.18	2237.92
602.376	2248.16
602.572	2332.12
602.769	2473.43
602.965	2461.15
603.161	2633.18
603.357	2657.75
603.553	2893.27
603.75	2891.22
603.946	2870.74
604.142	2923.99
604.338	3179.98
604.534	3190.22
604.73	3403.21
604.926	3341.77
605.122	3677.64
605.318	3724.74
605.514	3712.46
605.71	3816.9
605.906	4021.7
606.102	4048.32
606.298	4328.89
606.494	4384.19
606.69	4478.4
606.886	4677.05
607.082	4742.58
607.278	4779.45
607.474	5006.77
607.67	5193.14
607.866	5139.89
608.062	5541.29
608.257	5426.61
608.453	5696.94
608.649	5901.73
608.845	6012.32
609.041	6084
609.236	6378.91
609.432	6405.53
609.628	6661.53
609.824	7009.69
610.019	6942.1
610.215	7062.93
610.411	7654.8
610.606	7595.4
610.802	7617.93
610.998	7910.79
611.193	8191.36
611.389	8344.96
611.584	8678.78
611.78	8652.16
611.976	9229.68
612.171	9493.87
612.367	9680.24
612.562	9846.12
612.758	9971.05
612.953	10055.01
613.149	10825.05
613.344	10702.17
613.539	11408.72
613.735	11507.02
613.93	11746.64
614.126	12004.68
614.321	12506.43
614.517	12637.5
614.712	12942.65
614.907	13227.32
615.103	13784.37
615.298	13835.56
615.493	14339.37
615.688	14679.33
615.884	15201.56
616.079	15414.55
616.274	16174.35
616.47	16194.82
616.665	16686.34
616.86	16997.63
617.055	17521.91
617.25	18089.2
617.445	18543.85
617.641	18470.12
617.836	19420.38
618.031	19487.96
618.226	20253.9
618.421	20473.03
618.616	21333.18
618.811	21435.58
619.006	22330.54
619.201	22248.62
619.396	23239.84
619.591	23225.5
619.786	24114.32
619.981	24351.88
620.176	25463.93
620.371	25427.07
620.566	26330.22
620.761	26608.75
620.956	27450.46
621.151	27440.22
621.346	28353.62
621.541	28601.42
621.735	29645.88
621.93	29586.49
622.125	30503.98
622.32	30573.61
622.515	31378.47
622.709	32211.99
622.904	32590.86
623.099	33063.94
623.294	33883.13
623.488	34235.38
623.683	34696.17
623.878	35154.92
624.072	35826.65
624.267	36477.91
624.462	36996.04
624.656	37116.87
624.851	37925.82
625.046	38310.84
625.24	38884.27
625.435	39164.84
625.629	40326.04
625.824	40498.07
626.018	40983.44
626.213	40725.39
626.407	41743.24
626.602	41927.55
626.796	42926.96
626.991	43096.94
627.185	43441
627.38	43582.31
627.574	43858.79
627.768	43711.33
627.963	44301.15
628.157	44184.41
628.352	44395.35
628.546	44168.03
628.74	44766.04
628.935	44071.78
629.129	44208.99
629.323	43688.81
629.517	43783.01
629.712	43705.19
629.906	43527.02
630.1	42468.22
630.294	42253.18
630.489	42177.4
630.683	41376.65
630.877	40555.41
631.071	39697.31
631.265	38806.45
631.459	38171.58
631.653	37567.43
631.848	36953.04
632.042	35685.34
632.236	35073
632.43	33999.87
632.624	33508.35
632.818	32367.63
633.012	30985.26
633.206	30430.26
633.4	29430.85
633.594	27812.95
633.788	27241.57
633.982	26289.26
634.176	25586.81
634.369	24319.12
634.563	23528.6
634.757	22516.9
634.951	21767.35
635.145	20999.36
635.339	20167.88
635.533	19629.27
635.726	18490.6
635.92	17597.68
636.114	17018.11
636.308	16348.42
636.501	15813.9
636.695	15052.06
636.889	14654.75
637.083	14050.6
637.276	13161.78
637.47	12903.74
637.664	12113.22
637.857	11840.84
638.051	11269.46
638.244	11015.51
638.438	10468.7
638.632	10036.58
638.825	9366.9
639.019	9233.78
639.212	8881.53
639.406	8543.61
639.599	8324.48
639.793	7734.67
639.986	7585.16
640.18	7331.22
640.373	7013.78
640.567	6823.32
640.76	6569.37
640.954	6270.37
641.147	5959.08
641.34	5723.56
641.534	5643.69
641.727	5543.34
641.92	5223.86
642.114	4945.33
642.307	4775.35
642.5	4646.33
642.694	4382.14
642.887	4183.49
643.08	4298.17
643.273	3976.64
643.467	3806.66
643.66	3626.44
643.853	3589.58
644.046	3458.51
644.239	3216.85
644.432	3104.21
644.626	2942.42
644.819	2893.27
645.012	2774.49
645.205	2678.23
645.398	2708.95
645.591	2495.96
645.784	2338.27
645.977	2360.8
646.17	2203.1
646.363	2244.06
646.556	2110.94
646.749	1867.24
646.942	1900
647.135	1775.08
647.328	1789.41
647.521	1748.45
647.714	1660.39
647.907	1615.34
648.099	1476.07
648.292	1535.46
648.485	1469.93
648.678	1340.91
648.871	1291.76
649.064	1318.38
649.256	1107.44
649.449	1170.93
649.642	1025.52
649.835	1027.57
650.027	1078.77
650.22	1121.77
650.413	953.84
650.605	988.66
650.798	865.78
650.991	931.31
651.183	873.97
651.376	790
651.568	882.16
651.761	708.09
651.954	779.76
652.146	767.48
652.339	826.87
652.531	773.62
652.724	663.03
652.916	564.73
653.109	540.15
653.301	738.8
653.494	753.14
653.686	667.13
653.879	691.7
654.071	607.73
654.263	585.21
654.456	466.42
654.648	624.12
654.84	650.74
655.033	450.04
655.225	607.73
655.417	374.27
655.61	542.2
655.802	484.86
655.994	607.73
656.186	407.03
656.379	491
656.571	343.55
656.763	429.56
656.955	331.26
657.148	351.74
657.34	407.03
657.532	376.31
657.724	409.08
657.916	314.88
658.108	419.32
658.3	384.51
658.492	402.94
658.684	308.73
658.876	464.38
659.068	327.16
659.26	245.24
659.452	255.48
659.644	267.77
659.836	433.66
660.028	306.68
660.22	222.72
660.412	251.39
660.604	275.96
660.796	286.2
660.988	292.35
661.18	187.9
661.372	273.92
661.563	325.12
661.755	247.29
661.947	241.15
662.139	200.19
662.331	251.39
662.522	175.61
662.714	161.28
662.906	177.66
663.097	259.58
663.289	237.05
663.481	126.46
663.673	343.55
663.864	161.28
664.056	263.68
664.247	181.76
664.439	265.72
664.631	292.35
664.822	273.92
665.014	171.52
665.205	198.14
665.397	204.28
665.588	165.37
665.78	189.95
665.971	218.62
666.163	132.61
666.354	243.2
666.546	148.99
666.737	179.71
666.929	124.41
667.12	167.42
667.311	185.85
667.503	165.37
667.694	196.09
667.885	177.66
668.077	278.01
668.268	32.26
668.459	226.81
668.651	208.38
668.842	192
669.033	124.41
669.224	110.08
669.416	325.12
669.607	175.61
669.798	183.81
669.989	261.63
670.18	153.09
670.371	200.19
670.563	87.55
670.754	306.68
670.945	237.05
671.136	198.14
671.327	155.13
671.518	237.05
671.709	220.67
671.9	216.57
672.091	245.24
672.282	200.19
672.473	212.48
672.664	140.8
672.855	222.72
673.046	179.71
673.237	331.26
673.428	110.08
673.619	261.63
673.809	196.09
674	294.4
674.191	200.19
674.382	196.09
674.573	210.43
674.764	212.48
674.954	202.24
675.145	241.15
675.336	122.37
675.527	120.32
675.717	200.19
675.908	220.67
676.099	204.28
676.289	165.37
676.48	161.28
676.671	218.62
676.861	114.17
677.052	200.19
677.243	230.91
677.433	120.32
677.624	196.09
677.814	192
678.005	13.82
678.195	382.46
678.386	89.6
678.576	224.76
678.767	83.45
678.957	255.48
679.148	312.83
679.338	347.64
679.529	275.96
679.719	163.33
679.909	261.63
680.1	364.03
680.29	296.44
680.481	153.09
680.671	243.2
680.861	181.76
681.052	269.82
681.242	196.09
681.432	261.63
681.622	288.25
681.813	153.09
682.003	218.62
682.193	120.32
682.383	245.24
682.573	214.52
682.764	257.53
682.954	314.88
683.144	253.44
683.334	265.72
683.524	243.2
683.714	308.73
683.904	296.44
684.094	169.47
684.284	220.67
684.474	394.75
684.664	372.22
684.854	374.27
685.044	198.14
685.234	196.09
685.424	251.39
685.614	239.1
685.804	351.74
685.994	265.72
686.184	220.67
686.374	318.97
686.564	228.86
686.753	278.01
686.943	204.28
687.133	253.44
687.323	269.82
687.513	280.06
687.702	261.63
687.892	253.44
688.082	355.83
688.272	376.31
688.461	202.24
688.651	306.68
688.841	376.31
689.03	245.24
689.22	284.16
689.41	282.11
689.599	323.07
689.789	235
689.979	404.99
690.168	222.72
690.358	329.21
690.547	286.2
690.737	278.01
690.926	241.15
691.116	321.02
691.305	341.5
691.495	294.4
691.684	224.76
691.874	263.68
692.063	181.76
692.252	302.59
692.442	261.63
692.631	200.19
692.82	177.66
693.01	224.76
693.199	282.11
693.388	280.06
693.578	130.56
693.767	226.81
693.956	286.2
694.146	273.92
694.335	261.63
694.524	323.07
694.713	257.53
694.902	198.14
695.092	232.96
695.281	259.58
695.47	245.24
695.659	200.19
695.848	210.43
696.037	269.82
696.226	259.58
696.415	146.94
696.604	392.7
696.793	249.34
696.982	132.61
697.171	361.98
697.36	101.89
697.549	249.34
697.738	134.65
697.927	187.9
698.116	157.18
698.305	271.87
698.494	265.72
698.683	263.68
698.872	306.68
699.061	163.33
699.25	196.09
699.438	222.72
699.627	167.42
699.816	298.49
700.005	122.37
700.193	210.43
700.382	255.48
700.571	273.92
700.76	316.92
700.948	382.46
701.137	247.29
701.326	304.64
701.514	198.14
701.703	280.06
701.892	237.05
702.08	402.94
702.269	128.51
702.457	302.59
702.646	253.44
702.834	216.57
703.023	263.68
703.212	321.02
703.4	257.53
703.589	263.68
703.777	165.37
703.965	249.34
704.154	183.81
704.342	54.78
704.531	146.94
704.719	175.61
704.907	376.31
705.096	130.56
705.284	161.28
705.472	179.71
705.661	189.95
705.849	296.44
706.037	314.88
706.226	239.1
706.414	212.48
706.602	198.14
706.79	321.02
706.979	159.23
707.167	210.43
707.355	112.13
707.543	271.87
707.731	278.01
707.919	200.19
708.107	232.96
708.296	126.46
708.484	179.71
708.672	271.87
708.86	280.06
709.048	214.52
709.236	167.42
709.424	310.78
709.612	226.81
709.8	116.22
709.988	222.72
710.176	306.68
710.364	378.36
710.551	245.24
710.739	210.43
710.927	179.71
711.115	251.39
711.303	275.96
711.491	278.01
711.679	120.32
711.866	302.59
712.054	267.77
712.242	282.11
712.43	306.68
712.617	159.23
712.805	292.35
712.993	245.24
713.181	116.22
713.368	282.11
713.556	251.39
713.744	155.13
713.931	351.74
714.119	271.87
714.306	196.09
714.494	280.06
714.682	257.53
714.869	251.39
715.057	269.82
715.244	167.42
715.432	290.3
715.619	196.09
715.807	298.49
715.994	151.04
716.182	251.39
716.369	337.4
716.556	267.77
716.744	183.81
716.931	206.33
717.119	192
717.306	275.96
717.493	296.44
717.681	202.24
717.868	183.81
718.055	214.52
718.242	235
718.43	251.39
718.617	273.92
718.804	280.06
718.991	284.16
719.179	271.87
719.366	331.26
719.553	304.64
719.74	265.72
719.927	235
720.114	265.72
720.301	228.86
720.488	263.68
720.676	185.85
720.863	300.54
721.05	421.37
721.237	257.53
721.424	355.83
721.611	308.73
721.798	187.9
721.985	181.76
722.172	273.92
722.358	302.59
722.545	413.18
722.732	255.48
722.919	343.55
723.106	323.07
723.293	220.67
723.48	284.16
723.667	247.29
723.853	304.64
724.04	306.68
724.227	312.83
724.414	237.05
724.6	357.88
724.787	413.18
724.974	386.55
725.161	282.11
725.347	230.91
725.534	310.78
725.72	316.92
725.907	310.78
726.094	335.35
726.28	228.86
726.467	288.25
726.653	251.39
726.84	470.52
727.027	384.51
727.213	361.98
727.4	335.35
727.586	302.59
727.773	318.97
727.959	263.68
728.145	249.34
728.332	339.45
728.518	220.67
728.705	359.93
728.891	341.5
729.077	318.97
729.264	282.11
729.45	239.1
729.636	314.88
729.823	312.83
730.009	294.4
730.195	235
730.382	271.87
730.568	235
730.754	245.24
730.94	372.22
731.126	386.55
731.313	343.55
731.499	302.59
731.685	298.49
731.871	280.06
732.057	396.79
732.243	378.36
732.429	384.51
732.615	441.85
732.801	370.17
732.987	192
733.173	196.09
733.359	306.68
733.545	394.75
733.731	263.68
733.917	349.69
734.103	392.7
734.289	413.18
734.475	310.78
734.661	542.2
734.847	294.4
735.033	380.41
735.219	447.99
735.404	370.17
735.59	243.2
735.776	345.59
735.962	314.88
736.148	361.98
736.333	433.66
736.519	368.12
736.705	327.16
736.89	386.55
737.076	353.79
737.262	212.48
737.447	353.79
737.633	321.02
737.819	409.08
738.004	347.64
738.19	314.88
738.375	318.97
738.561	400.89
738.747	400.89
738.932	327.16
739.118	511.48
739.303	466.42
739.489	351.74
739.674	298.49
739.859	316.92
740.045	427.51
740.23	339.45
740.416	165.37
740.601	321.02
740.786	398.84
740.972	294.4
741.157	345.59
741.342	200.19
741.528	218.62
741.713	394.75
741.898	327.16
742.084	392.7
742.269	376.31
742.454	357.88
742.639	404.99
742.824	335.35
743.01	484.86
743.195	437.75
743.38	341.5
743.565	341.5
743.75	359.93
743.935	343.55
744.12	433.66
744.305	196.09
744.49	278.01
744.675	331.26
744.86	261.63
745.045	411.13
745.23	296.44
745.415	278.01
745.6	396.79
745.785	349.69
745.97	384.51
746.155	443.9
746.34	441.85
746.525	329.21
746.71	554.49
746.895	208.38
747.079	253.44
747.264	235
747.449	378.36
747.634	351.74
747.819	341.5
748.003	292.35
748.188	296.44
748.373	374.27
748.557	327.16
748.742	255.48
748.927	308.73
749.111	267.77
749.296	261.63
749.481	308.73
749.665	273.92
749.85	288.25
750.034	300.54
750.219	245.24
750.404	355.83
750.588	366.07
750.773	230.91
750.957	288.25
751.141	374.27
751.326	296.44
751.51	243.2
751.695	237.05
751.879	255.48
752.064	343.55
752.248	304.64
752.432	396.79
752.617	323.07
752.801	308.73
752.985	226.81
753.17	380.41
753.354	267.77
753.538	335.35
753.722	206.33
753.907	177.66
754.091	216.57
754.275	335.35
754.459	165.37
754.643	230.91
754.828	327.16
755.012	345.59
755.196	140.8
755.38	273.92
755.564	189.95
755.748	267.77
755.932	300.54
756.116	284.16
756.3	253.44
756.484	194.05
756.668	327.16
756.852	175.61
757.036	259.58
757.22	251.39
757.404	157.18
757.588	228.86
757.772	294.4
757.956	286.2
758.14	333.31
758.323	208.38
758.507	249.34
758.691	151.04
758.875	235
759.059	333.31
759.242	153.09
759.426	212.48
759.61	267.77
759.794	71.17
759.977	187.9
760.161	439.8
760.345	321.02
760.528	208.38
760.712	241.15
760.895	181.76
761.079	202.24
761.263	97.79
761.446	116.22
761.63	177.66
761.813	288.25
761.997	202.24
762.18	218.62
762.364	265.72
762.547	159.23
762.731	192
762.914	185.85
763.098	224.76
763.281	165.37
763.464	103.93
763.648	177.66
763.831	216.57
764.015	146.94
764.198	210.43
764.381	87.55
764.564	132.61
764.748	282.11
764.931	241.15
765.114	175.61
765.297	206.33
765.481	124.41
765.664	146.94
765.847	118.27
766.03	261.63
766.213	181.76
766.397	120.32
766.58	130.56
766.763	175.61
766.946	210.43
767.129	155.13
767.312	101.89
767.495	181.76
767.678	97.79
767.861	175.61
768.044	251.39
768.227	136.7
768.41	130.56
768.593	183.81
768.776	206.33
768.959	157.18
769.142	259.58
769.324	122.37
769.507	138.75
769.69	181.76
769.873	120.32
770.056	310.78
770.239	132.61
770.421	218.62
770.604	282.11
770.787	179.71
770.97	163.33
771.152	165.37
771.335	249.34
771.518	44.54
771.7	282.11
771.883	251.39
772.066	126.46
772.248	177.66
772.431	189.95
772.613	257.53
772.796	112.13
772.978	110.08
773.161	335.35
773.343	116.22
773.526	83.45
773.708	-29.18
773.891	5.63
774.073	138.75
774.256	89.6
774.438	224.76
774.621	65.02
774.803	194.05
774.985	161.28
775.168	210.43
775.35	122.37
775.532	187.9
775.715	69.12
775.897	169.47
776.079	155.13
776.261	103.93
776.444	144.89
776.626	114.17
776.808	77.31
776.99	95.74
777.173	189.95
777.355	116.22
777.537	140.8
777.719	146.94
777.901	93.69
778.083	108.03
778.265	38.4
778.447	101.89
778.629	46.59
778.811	171.52
778.993	128.51
779.175	251.39
779.357	134.65
779.539	-82.43
779.721	116.22
779.903	175.61
780.085	85.5
780.267	69.12
780.449	95.74
780.631	261.63
780.812	202.24
780.994	77.31
781.176	91.65
781.358	128.51
781.54	134.65
781.721	159.23
781.903	103.93
782.085	5.63
782.267	226.81
782.448	26.11
782.63	69.12
782.812	44.54
782.993	192
783.175	136.7
783.357	112.13
783.538	206.33
783.72	32.26
783.901	204.28
784.083	196.09
784.264	140.8
784.446	-20.99
784.627	1.54
784.809	120.32
784.99	95.74
785.172	179.71
785.353	116.22
785.535	122.37
785.716	108.03
785.897	13.82
786.079	91.65
786.26	114.17
786.441	101.89
786.623	48.64
786.804	62.98
786.985	175.61
787.167	116.22
787.348	124.41
787.529	54.78
787.71	208.38
787.891	73.21
788.073	44.54
788.254	-12.8
788.435	181.76
788.616	97.79
788.797	87.55
788.978	42.5
789.159	28.16
789.34	95.74
789.522	116.22
789.703	-14.85
789.884	132.61
790.065	93.69
790.246	251.39
790.427	34.3
790.607	167.42
790.788	144.89
790.969	22.02
791.15	169.47
791.331	67.07
791.512	32.26
791.693	38.4
791.874	79.36
792.054	232.96
792.235	112.13
792.416	38.4
792.597	22.02
792.778	114.17
792.958	58.88
793.139	140.8
793.32	65.02
793.5	48.64
793.681	159.23
793.862	99.84
794.042	87.55
794.223	54.78
794.404	75.26
794.584	-37.38
794.765	75.26
794.945	112.13
795.126	103.93
795.306	161.28
795.487	138.75
795.667	-66.05
795.848	122.37
796.028	-12.8
796.209	126.46
796.389	71.17
796.57	34.3
796.75	11.78
796.93	95.74
797.111	-49.66
797.291	-0.51
797.471	85.5
797.652	108.03
797.832	9.73
798.012	200.19
798.192	91.65
798.373	26.11
798.553	114.17
798.733	169.47
798.913	7.68
799.093	26.11
799.274	83.45
799.454	177.66
799.634	167.42
799.814	60.93
799.994	93.69
800.174	52.74
800.354	54.78
800.534	-80.38
800.714	62.98
800.894	3.58
801.074	-18.94
801.254	62.98
801.434	171.52
801.614	46.59
801.794	-33.28
801.974	1807.84
802.154	77.31
802.334	146.94
802.514	52.74
802.693	91.65
802.873	19.97
803.053	153.09
803.233	93.69
803.413	44.54
803.592	-10.75
803.772	32.26
803.952	58.88
804.131	-29.18
804.311	67.07
804.491	120.32
804.67	-16.9
804.85	7.68
805.03	163.33
805.209	146.94
805.389	73.21
805.568	3.58
805.748	-2.56
805.928	93.69
806.107	69.12
806.287	44.54
806.466	155.13
806.646	99.84
806.825	44.54
807.004	-29.18
807.184	75.26
807.363	62.98
807.543	179.71
807.722	32.26
807.901	124.41
808.081	181.76
808.26	-98.81
808.439	65.02
808.619	19.97
808.798	-8.7
808.977	138.75
809.156	140.8
809.336	15.87
809.515	118.27
809.694	9.73
809.873	34.3
810.052	114.17
810.231	189.95
810.411	67.07
810.59	65.02
810.769	42.5
810.948	91.65
811.127	-8.7
811.306	22.02
811.485	9.73
811.664	161.28
811.843	5.63
812.022	87.55
812.201	40.45
812.38	58.88
812.559	-14.85
812.737	97.79
812.916	-0.51
813.095	-2.56
813.274	40.45
813.453	93.69
813.632	1.54
813.811	81.41
813.989	-27.14
814.168	56.83
814.347	9.73
814.526	22.02
814.704	132.61
814.883	120.32
815.062	56.83
815.24	89.6
815.419	-4.61
815.598	157.18
815.776	-33.28
815.955	-20.99
816.133	-61.95
816.312	19.97
816.49	-41.47
816.669	22.02
816.847	69.12
817.026	19.97
817.204	-8.7
817.383	-27.14
817.561	13.82
817.74	116.22
817.918	103.93
818.097	-0.51
818.275	46.59
818.453	110.08
818.632	58.88
818.81	93.69
818.988	1.54
819.167	99.84
819.345	-8.7
819.523	13.82
819.701	116.22
819.879	30.21
820.058	77.31
820.236	-27.14
820.414	-16.9
820.592	79.36
820.77	50.69
820.948	-20.99
821.127	-27.14
821.305	105.98
821.483	-53.76
821.661	138.75
821.839	44.54
822.017	-57.86
822.195	-64
822.373	144.89
822.551	36.35
822.729	146.94
822.907	19.97
823.085	77.31
823.262	108.03
823.44	32.26
823.618	17.92
823.796	30.21
823.974	34.3
824.152	3.58
824.329	73.21
824.507	19.97
824.685	146.94
824.863	34.3
825.04	75.26
825.218	132.61
825.396	89.6
825.574	30.21
825.751	79.36
825.929	95.74
826.107	-0.51
826.284	30.21
826.462	67.07
826.639	-25.09
826.817	7.68
826.994	93.69
827.172	-61.95
827.349	210.43
827.527	120.32
827.704	77.31
827.882	77.31
828.059	75.26
828.237	11.78
828.414	124.41
828.591	-98.81
828.769	122.37
828.946	-41.47
829.124	85.5
829.301	118.27
829.478	44.54
829.655	69.12
829.833	48.64
830.01	-84.48
830.187	118.27
830.364	71.17
830.542	93.69
830.719	159.23
830.896	87.55
831.073	22.02
831.25	99.84
831.427	40.45
831.604	120.32
831.782	-8.7
831.959	13.82
832.136	-10.75
832.313	77.31
832.49	32.26
832.667	83.45
832.844	-0.51
833.021	124.41
833.198	69.12
833.374	85.5
833.551	42.5
833.728	116.22
833.905	138.75
834.082	-133.63
834.259	69.12
834.436	65.02
834.612	-33.28
834.789	19.97
834.966	60.93
835.143	46.59
835.319	-47.62
835.496	91.65
835.673	93.69
835.85	54.78
836.026	58.88
836.203	112.13
836.38	13.82
836.556	-14.85
836.733	48.64
836.909	153.09
837.086	9.73
837.262	-35.33
837.439	26.11
837.616	-2.56
837.792	22.02
837.968	32.26
838.145	-49.66
838.321	26.11
838.498	56.83
838.674	93.69
838.851	71.17
839.027	54.78
839.203	-2.56
839.38	50.69
839.556	108.03
839.732	116.22
839.909	62.98
840.085	58.88
840.261	-4.61
840.437	101.89
840.614	-2.56
840.79	204.28
840.966	165.37
841.142	118.27
841.318	-41.47
841.494	93.69
841.671	65.02
841.847	17.92
842.023	-59.9
842.199	34.3
842.375	155.13
842.551	-37.38
842.727	-31.23
842.903	165.37
843.079	54.78
843.255	169.47
843.431	7.68
843.607	9.73
843.783	5.63
843.959	62.98
844.134	-33.28
844.31	134.65
844.486	-4.61
844.662	7.68
844.838	38.4
845.013	54.78
845.189	142.85
845.365	-29.18
845.541	13.82
845.716	-10.75
845.892	181.76
846.068	34.3
846.244	11.78
846.419	87.55
846.595	-61.95
846.77	-2.56
846.946	118.27
847.122	32.26
847.297	28.16
847.473	122.37
847.648	-111.1
847.824	22.02
847.999	-82.43
848.175	22.02
848.35	144.89
848.526	81.41
848.701	44.54
848.876	181.76
849.052	22.02
849.227	28.16
849.403	97.79
849.578	-23.04
849.753	50.69
849.929	97.79
850.104	-27.14
850.279	-29.18
850.454	40.45
850.63	48.64
850.805	38.4
850.98	48.64
851.155	56.83
851.33	54.78
851.505	-70.14
851.681	237.05
851.856	28.16
852.031	124.41
852.206	-6.66
852.381	26.11
852.556	67.07
852.731	60.93
852.906	50.69
853.081	67.07
853.256	105.98
853.431	3.58
853.606	19.97
853.781	46.59
853.956	-66.05
854.131	-27.14
854.305	38.4
854.48	34.3
854.655	-31.23
854.83	-100.86
855.005	1.54
855.18	34.3
855.354	48.64
855.529	40.45
855.704	5.63
855.879	36.35
856.053	-0.51
856.228	58.88
856.403	-0.51
856.577	36.35
856.752	-90.62
856.926	93.69
857.101	34.3
857.276	-49.66
857.45	30.21
857.625	93.69
857.799	89.6
857.974	46.59
858.148	-74.24
858.323	87.55
858.497	-33.28
858.672	9.73
858.846	-35.33
859.02	148.99
859.195	-33.28
859.369	17.92
859.543	91.65
859.718	22.02
859.892	19.97
860.066	38.4
860.241	-10.75
860.415	-53.76
860.589	19.97
860.763	-23.04
860.938	19.97
861.112	32.26
861.286	-0.51
861.46	93.69
861.634	7.68
861.808	124.41
861.982	-18.94
862.157	-27.14
862.331	38.4
862.505	-29.18
862.679	-55.81
862.853	17.92
863.027	48.64
863.201	196.09
863.375	-10.75
863.549	44.54
863.722	95.74
863.896	136.7
864.07	7.68
864.244	67.07
864.418	69.12
864.592	36.35
864.766	75.26
864.939	105.98
865.113	40.45
865.287	69.12
865.461	-82.43
865.634	-0.51
865.808	-88.57
865.982	-45.57
866.156	-18.94
866.329	9.73
866.503	-8.7
866.676	34.3
866.85	62.98
867.024	13.82
867.197	103.93
867.371	3.58
867.544	62.98
867.718	-45.57
867.891	187.9
868.065	-37.38
868.238	87.55
868.412	105.98
868.585	81.41
868.759	83.45
868.932	-35.33
869.105	-31.23
869.279	40.45
869.452	-20.99
869.625	155.13
869.799	26.11
869.972	-100.86
870.145	67.07
870.319	128.51
870.492	99.84
870.665	32.26
870.838	15.87
871.011	-31.23
871.185	-23.04
871.358	-41.47
871.531	3.58
871.704	-96.77
871.877	17.92
872.05	7.68
872.223	-6.66
872.396	93.69
872.569	83.45
872.742	-18.94
872.915	50.69
873.088	101.89
873.261	-47.62
873.434	132.61
873.607	77.31
873.78	169.47
873.953	19.97
874.126	9.73
874.299	34.3
874.471	-64
874.644	19.97
874.817	56.83
874.99	112.13
875.163	56.83
875.335	17.92
875.508	-0.51
875.681	126.46
875.853	3.58
876.026	22.02
876.199	136.7
876.371	97.79
876.544	44.54
876.717	42.5
876.889	3.58
877.062	-23.04
877.234	-2.56
877.407	38.4
877.579	15.87
877.752	38.4
877.924	142.85
878.097	87.55
878.269	36.35
878.442	44.54
878.614	46.59
878.786	52.74
878.959	19.97
879.131	50.69
879.303	-53.76
879.476	-14.85
879.648	93.69
879.82	32.26
879.993	-12.8
880.165	-78.33
880.337	-72.19
880.509	60.93
880.681	-72.19
880.854	32.26
881.026	148.99
881.198	167.42
881.37	3.58
881.542	-25.09
881.714	-70.14
881.886	71.17
882.058	-0.51
882.23	36.35
882.402	-29.18
882.574	44.54
882.746	87.55
882.918	175.61
883.09	103.93
883.262	-6.66
883.434	73.21
883.606	-45.57
883.778	42.5
883.95	136.7
884.122	-14.85
884.293	24.06
884.465	42.5
884.637	52.74
884.809	-27.14
884.98	28.16
885.152	32.26
885.324	65.02
885.496	-29.18
885.667	-6.66
885.839	11.78
886.011	83.45
886.182	71.17
886.354	75.26
886.525	28.16
886.697	69.12
886.869	-27.14
887.04	-27.14
887.212	144.89
887.383	165.37
887.555	73.21
887.726	60.93
887.897	-14.85
888.069	38.4
888.24	54.78
888.412	-57.86
888.583	38.4
888.754	26.11
888.926	-41.47
889.097	-49.66
889.268	-25.09
889.44	28.16
889.611	5.63
889.782	-82.43
889.953	-49.66
890.125	163.33
890.296	3.58
890.467	-20.99
890.638	17.92
890.809	-27.14
890.98	26.11
891.151	118.27
891.323	146.94
891.494	95.74
891.665	48.64
891.836	65.02
892.007	81.41
892.178	24.06
892.349	120.32
892.52	26.11
892.691	9.73
892.862	-6.66
893.032	-47.62
893.203	-20.99
893.374	30.21
893.545	44.54
893.716	-33.28
893.887	56.83
894.057	-18.94
894.228	50.69
894.399	19.97
894.57	103.93
894.74	83.45
894.911	56.83
895.082	3.58
895.253	38.4
895.423	81.41
895.594	108.03
895.764	38.4
895.935	-27.14
896.106	101.89
896.276	19.97
896.447	91.65
896.617	56.83
896.788	-23.04
896.958	-94.72
897.129	28.16
897.299	32.26
897.47	118.27
897.64	62.98
897.81	46.59
897.981	44.54
898.151	-20.99
898.322	120.32
898.492	56.83
898.662	-45.57
898.832	62.98
899.003	89.6
899.173	50.69
899.343	-55.81
899.513	-8.7
