Data from USB4F104151__9__10-22-59-650.txt Node

Date: Wed Feb 26 10:22:59 EST 2025
User: louis
Spectrometer: USB4F10415
Trigger mode: 4
Integration Time (sec): 1.000000E-1
Scans to average: 1
Electric dark correction enabled: true
Nonlinearity correction enabled: false
Boxcar width: 0
XAxis mode: Wavelengths
Number of Pixels in Spectrum: 3648
>>>>>Begin Spectral Data<<<<<
178.204	-414.71
178.424	-414.71
178.644	-414.71
178.864	-416.76
179.084	-422.91
179.304	68.61
179.524	-50.18
179.744	17.41
179.964	68.61
180.184	64.51
180.404	54.27
180.624	-84.99
180.844	-11.26
181.064	-27.65
181.283	-52.22
181.503	-27.65
181.723	-19.46
181.943	-103.42
182.163	224.25
182.383	-56.32
182.602	103.42
182.822	95.23
183.042	72.7
183.262	29.7
183.482	-23.55
183.701	3.07
183.921	9.22
184.141	-54.27
184.361	23.55
184.58	39.94
184.8	70.65
185.02	-46.08
185.239	82.94
185.459	-19.46
185.679	134.14
185.898	-46.08
186.118	87.04
186.338	35.84
186.557	80.89
186.777	-48.13
186.997	1.02
187.216	44.03
187.436	146.43
187.655	84.99
187.875	76.8
188.095	60.42
188.314	128
188.534	84.99
188.753	-72.7
188.973	160.77
189.192	154.62
189.412	1.02
189.631	31.74
189.851	152.57
190.07	134.14
190.29	19.46
190.509	31.74
190.729	95.23
190.948	138.24
191.168	199.68
191.387	89.09
191.607	-58.37
191.826	74.75
192.045	25.6
192.265	17.41
192.484	58.37
192.704	27.65
192.923	-15.36
193.142	140.29
193.362	103.42
193.581	21.5
193.8	17.41
194.02	95.23
194.239	72.7
194.458	3.07
194.678	23.55
194.897	27.65
195.116	68.61
195.335	44.03
195.555	13.31
195.774	-72.7
195.993	87.04
196.212	39.94
196.432	-17.41
196.651	48.13
196.87	70.65
197.089	254.97
197.308	99.33
197.528	-19.46
197.747	-11.26
197.966	72.7
198.185	117.76
198.404	-54.27
198.623	132.09
198.842	91.13
199.062	130.05
199.281	136.19
199.5	134.14
199.719	99.33
199.938	33.79
200.157	130.05
200.376	66.56
200.595	121.85
200.814	27.65
201.033	-15.36
201.252	111.61
201.471	-44.03
201.69	50.18
201.909	68.61
202.128	46.08
202.347	103.42
202.566	41.98
202.785	-44.03
203.004	-56.32
203.223	263.16
203.442	31.74
203.661	-19.46
203.879	54.27
204.098	82.94
204.317	-5.12
204.536	70.65
204.755	48.13
204.974	105.47
205.193	56.32
205.411	166.91
205.63	95.23
205.849	76.8
206.068	21.5
206.287	15.36
206.505	140.29
206.724	-15.36
206.943	13.31
207.162	19.46
207.381	101.37
207.599	41.98
207.818	66.56
208.037	-33.79
208.255	78.85
208.474	3.07
208.693	11.26
208.911	5.12
209.13	132.09
209.349	113.66
209.567	101.37
209.786	117.76
210.005	93.18
210.223	1.02
210.442	-46.08
210.661	27.65
210.879	56.32
211.098	17.41
211.316	44.03
211.535	78.85
211.753	-3.07
211.972	70.65
212.191	25.6
212.409	29.7
212.628	66.56
212.846	-31.74
213.065	33.79
213.283	115.71
213.502	25.6
213.72	48.13
213.938	78.85
214.157	48.13
214.375	95.23
214.594	-41.98
214.812	95.23
215.031	-11.26
215.249	7.17
215.467	-5.12
215.686	50.18
215.904	3.07
216.122	62.46
216.341	232.44
216.559	125.95
216.778	64.51
216.996	72.7
217.214	91.13
217.432	9.22
217.651	3.07
217.869	41.98
218.087	74.75
218.306	19.46
218.524	74.75
218.742	27.65
218.96	56.32
219.179	82.94
219.397	21.5
219.615	175.1
219.833	68.61
220.051	-17.41
220.27	89.09
220.488	156.67
220.706	117.76
220.924	21.5
221.142	29.7
221.36	68.61
221.578	89.09
221.796	-35.84
222.015	62.46
222.233	-3.07
222.451	99.33
222.669	-21.5
222.887	87.04
223.105	60.42
223.323	37.89
223.541	72.7
223.759	-1.02
223.977	5.12
224.195	173.05
224.413	54.27
224.631	-13.31
224.849	39.94
225.067	191.49
225.285	-48.13
225.503	21.5
225.721	-54.27
225.939	107.52
226.157	25.6
226.375	179.2
226.592	-48.13
226.81	29.7
227.028	185.34
227.246	54.27
227.464	89.09
227.682	123.9
227.9	84.99
228.117	82.94
228.335	50.18
228.553	17.41
228.771	60.42
228.989	5.12
229.206	107.52
229.424	72.7
229.642	-52.22
229.86	-5.12
230.077	121.85
230.295	21.5
230.513	134.14
230.731	56.32
230.948	160.77
231.166	76.8
231.384	27.65
231.601	-1.02
231.819	148.48
232.037	-60.42
232.254	-56.32
232.472	87.04
232.689	-21.5
232.907	109.57
233.125	-29.7
233.342	9.22
233.56	50.18
233.777	-29.7
233.995	46.08
234.213	35.84
234.43	132.09
234.648	72.7
234.865	31.74
235.083	35.84
235.3	72.7
235.518	166.91
235.735	123.9
235.953	171.01
236.17	89.09
236.388	-50.18
236.605	-9.22
236.822	84.99
237.04	117.76
237.257	62.46
237.475	-48.13
237.692	5.12
237.909	33.79
238.127	-7.17
238.344	68.61
238.562	66.56
238.779	-37.89
238.996	-31.74
239.214	15.36
239.431	54.27
239.648	-9.22
239.865	78.85
240.083	130.05
240.3	-29.7
240.517	-17.41
240.735	76.8
240.952	150.53
241.169	66.56
241.386	66.56
241.603	44.03
241.821	-11.26
242.038	60.42
242.255	138.24
242.472	-39.94
242.689	58.37
242.907	72.7
243.124	82.94
243.341	76.8
243.558	17.41
243.775	-35.84
243.992	-25.6
244.209	103.42
244.426	211.96
244.643	95.23
244.86	23.55
245.078	74.75
245.295	17.41
245.512	9.22
245.729	-17.41
245.946	113.66
246.163	107.52
246.38	-29.7
246.597	44.03
246.814	-1.02
247.031	9.22
247.248	-3.07
247.464	121.85
247.681	66.56
247.898	78.85
248.115	138.24
248.332	-15.36
248.549	95.23
248.766	197.63
248.983	56.32
249.2	76.8
249.417	146.43
249.633	62.46
249.85	95.23
250.067	56.32
250.284	48.13
250.501	121.85
250.717	125.95
250.934	-70.65
251.151	62.46
251.368	48.13
251.585	80.89
251.801	121.85
252.018	-128
252.235	82.94
252.451	-1.02
252.668	9.22
252.885	162.81
253.102	27.65
253.318	-13.31
253.535	25.6
253.752	9.22
253.968	-35.84
254.185	-58.37
254.401	33.79
254.618	150.53
254.835	-13.31
255.051	84.99
255.268	103.42
255.484	19.46
255.701	74.75
255.917	76.8
256.134	-41.98
256.351	39.94
256.567	-54.27
256.784	3.07
257	-107.52
257.217	84.99
257.433	132.09
257.65	64.51
257.866	156.67
258.082	-76.8
258.299	-7.17
258.515	46.08
258.732	70.65
258.948	27.65
259.165	80.89
259.381	-21.5
259.597	-25.6
259.814	46.08
260.03	21.5
260.246	66.56
260.463	113.66
260.679	164.86
260.895	44.03
261.112	33.79
261.328	25.6
261.544	-11.26
261.761	140.29
261.977	7.17
262.193	-37.89
262.409	150.53
262.626	-15.36
262.842	46.08
263.058	17.41
263.274	78.85
263.49	78.85
263.707	125.95
263.923	5.12
264.139	-82.94
264.355	13.31
264.571	58.37
264.787	-9.22
265.004	248.83
265.22	113.66
265.436	5.12
265.652	58.37
265.868	50.18
266.084	17.41
266.3	109.57
266.516	64.51
266.732	117.76
266.948	87.04
267.164	54.27
267.38	76.8
267.596	25.6
267.812	201.72
268.028	103.42
268.244	50.18
268.46	80.89
268.676	46.08
268.892	48.13
269.108	-87.04
269.324	-9.22
269.54	17.41
269.756	80.89
269.972	-64.51
270.188	-62.46
270.403	-78.85
270.619	-3.07
270.835	132.09
271.051	-5.12
271.267	-19.46
271.483	-31.74
271.698	54.27
271.914	48.13
272.13	-27.65
272.346	9.22
272.562	54.27
272.777	189.44
272.993	-31.74
273.209	44.03
273.425	60.42
273.64	-7.17
273.856	31.74
274.072	13.31
274.287	-48.13
274.503	95.23
274.719	46.08
274.934	33.79
275.15	-44.03
275.366	52.22
275.581	-87.04
275.797	-46.08
276.012	54.27
276.228	41.98
276.444	19.46
276.659	56.32
276.875	-84.99
277.09	-1.02
277.306	-48.13
277.521	95.23
277.737	-33.79
277.952	80.89
278.168	29.7
278.383	-60.42
278.599	23.55
278.814	44.03
279.03	54.27
279.245	128
279.461	105.47
279.676	58.37
279.892	17.41
280.107	-3.07
280.322	-35.84
280.538	123.9
280.753	-1.02
280.969	23.55
281.184	50.18
281.399	173.05
281.615	-3.07
281.83	78.85
282.045	-5.12
282.26	-13.31
282.476	21.5
282.691	62.46
282.906	82.94
283.122	44.03
283.337	58.37
283.552	13.31
283.767	15.36
283.983	158.72
284.198	1.02
284.413	99.33
284.628	1.02
284.843	19.46
285.058	70.65
285.274	72.7
285.489	7.17
285.704	162.81
285.919	23.55
286.134	3.07
286.349	64.51
286.564	46.08
286.779	130.05
286.995	23.55
287.21	-33.79
287.425	105.47
287.64	5.12
287.855	93.18
288.07	-29.7
288.285	224.25
288.5	177.15
288.715	103.42
288.93	-29.7
289.145	-25.6
289.36	115.71
289.575	52.22
289.79	197.63
290.004	56.32
290.219	82.94
290.434	13.31
290.649	39.94
290.864	3.07
291.079	76.8
291.294	68.61
291.509	52.22
291.724	23.55
291.938	9.22
292.153	41.98
292.368	1.02
292.583	35.84
292.798	148.48
293.012	46.08
293.227	130.05
293.442	-31.74
293.657	48.13
293.871	95.23
294.086	109.57
294.301	205.82
294.516	91.13
294.73	17.41
294.945	13.31
295.16	31.74
295.374	164.86
295.589	64.51
295.804	64.51
296.018	136.19
296.233	144.38
296.447	60.42
296.662	9.22
296.877	103.42
297.091	132.09
297.306	-19.46
297.52	-5.12
297.735	97.28
297.949	70.65
298.164	11.26
298.378	87.04
298.593	9.22
298.807	-19.46
299.022	33.79
299.236	146.43
299.451	15.36
299.665	-41.98
299.88	39.94
300.094	78.85
300.309	11.26
300.523	50.18
300.737	37.89
300.952	78.85
301.166	41.98
301.381	-11.26
301.595	-3.07
301.809	-17.41
302.024	58.37
302.238	-23.55
302.452	72.7
302.667	64.51
302.881	107.52
303.095	15.36
303.309	103.42
303.524	-48.13
303.738	56.32
303.952	-9.22
304.166	95.23
304.381	-64.51
304.595	107.52
304.809	-7.17
305.023	193.53
305.237	-37.89
305.452	48.13
305.666	140.29
305.88	119.81
306.094	119.81
306.308	58.37
306.522	72.7
306.736	11.26
306.95	93.18
307.164	-1.02
307.379	23.55
307.593	224.25
307.807	117.76
308.021	115.71
308.235	80.89
308.449	-35.84
308.663	-7.17
308.877	224.25
309.091	13.31
309.305	109.57
309.519	-78.85
309.733	64.51
309.947	-97.28
310.161	132.09
310.374	62.46
310.588	93.18
310.802	-62.46
311.016	44.03
311.23	27.65
311.444	33.79
311.658	31.74
311.872	84.99
312.085	185.34
312.299	105.47
312.513	107.52
312.727	39.94
312.941	52.22
313.154	56.32
313.368	103.42
313.582	119.81
313.796	46.08
314.009	50.18
314.223	171.01
314.437	152.57
314.651	99.33
314.864	50.18
315.078	-1.02
315.292	-44.03
315.505	27.65
315.719	52.22
315.933	64.51
316.146	-44.03
316.36	-27.65
316.573	125.95
316.787	68.61
317.001	80.89
317.214	-62.46
317.428	46.08
317.641	-72.7
317.855	25.6
318.068	111.61
318.282	48.13
318.495	248.83
318.709	3.07
318.922	9.22
319.136	78.85
319.349	121.85
319.563	-41.98
319.776	146.43
319.99	-72.7
320.203	91.13
320.417	64.51
320.63	177.15
320.843	160.77
321.057	23.55
321.27	31.74
321.483	152.57
321.697	195.58
321.91	91.13
322.124	84.99
322.337	70.65
322.55	-21.5
322.763	142.33
322.977	62.46
323.19	21.5
323.403	121.85
323.617	58.37
323.83	62.46
324.043	-1.02
324.256	54.27
324.469	-41.98
324.683	121.85
324.896	54.27
325.109	87.04
325.322	-66.56
325.535	140.29
325.748	101.37
325.962	48.13
326.175	103.42
326.388	109.57
326.601	117.76
326.814	52.22
327.027	9.22
327.24	189.44
327.453	-113.66
327.666	158.72
327.879	56.32
328.092	44.03
328.305	58.37
328.518	62.46
328.731	-5.12
328.944	-3.07
329.157	80.89
329.37	11.26
329.583	134.14
329.796	150.53
330.009	-91.13
330.222	91.13
330.435	91.13
330.648	37.89
330.861	107.52
331.073	54.27
331.286	87.04
331.499	72.7
331.712	-11.26
331.925	-21.5
332.138	11.26
332.35	130.05
332.563	-13.31
332.776	101.37
332.989	-23.55
333.202	-3.07
333.414	109.57
333.627	46.08
333.84	25.6
334.053	62.46
334.265	33.79
334.478	21.5
334.691	44.03
334.903	93.18
335.116	-11.26
335.329	35.84
335.541	146.43
335.754	205.82
335.966	-70.65
336.179	31.74
336.392	25.6
336.604	87.04
336.817	58.37
337.029	37.89
337.242	87.04
337.454	117.76
337.667	1.02
337.88	168.96
338.092	80.89
338.305	95.23
338.517	-1.02
338.729	97.28
338.942	175.1
339.154	-54.27
339.367	-39.94
339.579	21.5
339.792	-37.89
340.004	142.33
340.217	35.84
340.429	70.65
340.641	-35.84
340.854	60.42
341.066	80.89
341.278	138.24
341.491	144.38
341.703	70.65
341.915	31.74
342.128	113.66
342.34	72.7
342.552	-5.12
342.764	-25.6
342.977	23.55
343.189	117.76
343.401	72.7
343.613	-5.12
343.826	17.41
344.038	-23.55
344.25	78.85
344.462	-35.84
344.674	54.27
344.886	82.94
345.099	134.14
345.311	25.6
345.523	-3.07
345.735	-62.46
345.947	109.57
346.159	46.08
346.371	54.27
346.583	41.98
346.795	95.23
347.007	-27.65
347.219	72.7
347.431	1.02
347.643	130.05
347.855	39.94
348.067	146.43
348.279	-19.46
348.491	78.85
348.703	46.08
348.915	70.65
349.127	-48.13
349.339	39.94
349.551	15.36
349.763	185.34
349.975	41.98
350.187	156.67
350.399	113.66
350.61	91.13
350.822	-11.26
351.034	29.7
351.246	128
351.458	60.42
351.669	56.32
351.881	21.5
352.093	142.33
352.305	173.05
352.517	132.09
352.728	99.33
352.94	31.74
353.152	72.7
353.363	37.89
353.575	58.37
353.787	160.77
353.999	62.46
354.21	201.72
354.422	44.03
354.633	52.22
354.845	23.55
355.057	35.84
355.268	7.17
355.48	193.53
355.692	-23.55
355.903	103.42
356.115	-33.79
356.326	-80.89
356.538	158.72
356.749	93.18
356.961	150.53
357.172	136.19
357.384	7.17
357.595	205.82
357.807	54.27
358.018	19.46
358.23	9.22
358.441	162.81
358.653	60.42
358.864	27.65
359.075	39.94
359.287	82.94
359.498	101.37
359.709	87.04
359.921	82.94
360.132	60.42
360.344	-21.5
360.555	35.84
360.766	93.18
360.977	-17.41
361.189	93.18
361.4	-7.17
361.611	87.04
361.823	78.85
362.034	48.13
362.245	-60.42
362.456	-3.07
362.667	37.89
362.879	3.07
363.09	46.08
363.301	119.81
363.512	39.94
363.723	72.7
363.935	-35.84
364.146	21.5
364.357	1.02
364.568	101.37
364.779	-48.13
364.99	220.16
365.201	17.41
365.412	130.05
365.623	-99.33
365.834	93.18
366.045	21.5
366.256	66.56
366.467	107.52
366.678	3.07
366.889	39.94
367.1	-5.12
367.311	31.74
367.522	-3.07
367.733	64.51
367.944	56.32
368.155	15.36
368.366	64.51
368.577	138.24
368.788	130.05
368.999	-1.02
369.209	15.36
369.42	138.24
369.631	209.92
369.842	111.61
370.053	56.32
370.264	121.85
370.474	-50.18
370.685	80.89
370.896	19.46
371.107	130.05
371.317	109.57
371.528	39.94
371.739	52.22
371.95	64.51
372.16	103.42
372.371	27.65
372.582	-21.5
372.792	46.08
373.003	97.28
373.214	56.32
373.424	50.18
373.635	37.89
373.846	148.48
374.056	3.07
374.267	119.81
374.477	21.5
374.688	-31.74
374.898	15.36
375.109	35.84
375.319	119.81
375.53	179.2
375.74	117.76
375.951	46.08
376.161	15.36
376.372	70.65
376.582	7.17
376.793	95.23
377.003	9.22
377.214	119.81
377.424	48.13
377.635	54.27
377.845	25.6
378.055	175.1
378.266	-50.18
378.476	15.36
378.686	11.26
378.897	80.89
379.107	123.9
379.317	93.18
379.528	58.37
379.738	91.13
379.948	-5.12
380.158	123.9
380.369	-17.41
380.579	15.36
380.789	50.18
380.999	70.65
381.21	89.09
381.42	199.68
381.63	25.6
381.84	99.33
382.05	72.7
382.261	39.94
382.471	158.72
382.681	-9.22
382.891	177.15
383.101	125.95
383.311	7.17
383.521	1.02
383.731	17.41
383.941	117.76
384.151	103.42
384.361	123.9
384.571	97.28
384.781	136.19
384.991	191.49
385.201	119.81
385.411	146.43
385.621	46.08
385.831	66.56
386.041	97.28
386.251	41.98
386.461	171.01
386.671	-17.41
386.881	175.1
387.091	66.56
387.301	160.77
387.511	9.22
387.72	128
387.93	103.42
388.14	-109.57
388.35	74.75
388.56	99.33
388.769	166.91
388.979	41.98
389.189	-48.13
389.399	82.94
389.609	136.19
389.818	97.28
390.028	39.94
390.238	146.43
390.447	-29.7
390.657	48.13
390.867	9.22
391.076	-46.08
391.286	44.03
391.496	56.32
391.705	84.99
391.915	150.53
392.125	128
392.334	-17.41
392.544	156.67
392.753	48.13
392.963	62.46
393.172	87.04
393.382	19.46
393.591	146.43
393.801	54.27
394.01	171.01
394.22	123.9
394.429	78.85
394.639	33.79
394.848	123.9
395.058	105.47
395.267	97.28
395.477	117.76
395.686	109.57
395.895	207.87
396.105	218.11
396.314	66.56
396.524	119.81
396.733	48.13
396.942	166.91
397.152	62.46
397.361	111.61
397.57	48.13
397.78	44.03
397.989	109.57
398.198	168.96
398.407	60.42
398.617	3.07
398.826	-56.32
399.035	62.46
399.244	78.85
399.453	70.65
399.663	95.23
399.872	11.26
400.081	27.65
400.29	103.42
400.499	11.26
400.708	111.61
400.917	17.41
401.127	93.18
401.336	33.79
401.545	123.9
401.754	185.34
401.963	87.04
402.172	62.46
402.381	9.22
402.59	41.98
402.799	62.46
403.008	162.81
403.217	138.24
403.426	35.84
403.635	-25.6
403.844	101.37
404.053	-25.6
404.262	84.99
404.471	195.58
404.68	41.98
404.888	7.17
405.097	82.94
405.306	91.13
405.515	152.57
405.724	50.18
405.933	148.48
406.142	132.09
406.35	121.85
406.559	27.65
406.768	84.99
406.977	132.09
407.185	35.84
407.394	119.81
407.603	-87.04
407.812	48.13
408.02	119.81
408.229	44.03
408.438	48.13
408.646	-1.02
408.855	82.94
409.064	97.28
409.272	78.85
409.481	60.42
409.69	25.6
409.898	39.94
410.107	91.13
410.315	99.33
410.524	15.36
410.733	35.84
410.941	41.98
411.15	109.57
411.358	97.28
411.567	179.2
411.775	21.5
411.984	52.22
412.192	37.89
412.401	23.55
412.609	216.06
412.818	146.43
413.026	1.02
413.234	35.84
413.443	17.41
413.651	-7.17
413.86	64.51
414.068	121.85
414.276	140.29
414.485	-17.41
414.693	164.86
414.901	183.29
415.11	64.51
415.318	82.94
415.526	54.27
415.734	115.71
415.943	54.27
416.151	136.19
416.359	76.8
416.567	113.66
416.776	82.94
416.984	89.09
417.192	140.29
417.4	140.29
417.608	13.31
417.817	-21.5
418.025	183.29
418.233	134.14
418.441	-5.12
418.649	-31.74
418.857	148.48
419.065	115.71
419.273	72.7
419.481	-1.02
419.689	23.55
419.897	9.22
420.105	-25.6
420.313	160.77
420.521	93.18
420.729	125.95
420.937	44.03
421.145	13.31
421.353	103.42
421.561	154.62
421.769	121.85
421.977	76.8
422.185	117.76
422.393	70.65
422.601	199.68
422.809	136.19
423.017	107.52
423.224	44.03
423.432	54.27
423.64	29.7
423.848	166.91
424.056	-41.98
424.263	128
424.471	80.89
424.679	168.96
424.887	46.08
425.094	173.05
425.302	97.28
425.51	103.42
425.718	125.95
425.925	64.51
426.133	87.04
426.341	183.29
426.548	58.37
426.756	19.46
426.964	156.67
427.171	-3.07
427.379	105.47
427.586	156.67
427.794	142.33
428.001	162.81
428.209	95.23
428.417	230.4
428.624	136.19
428.832	95.23
429.039	48.13
429.247	52.22
429.454	199.68
429.662	277.5
429.869	103.42
430.076	105.47
430.284	128
430.491	207.87
430.699	179.2
430.906	195.58
431.114	173.05
431.321	105.47
431.528	107.52
431.736	130.05
431.943	187.39
432.15	265.21
432.358	195.58
432.565	267.26
432.772	82.94
432.979	168.96
433.187	130.05
433.394	246.78
433.601	177.15
433.808	201.72
434.016	271.36
434.223	195.58
434.43	246.78
434.637	306.17
434.844	283.64
435.052	263.16
435.259	285.69
435.466	300.03
435.673	316.41
435.88	316.41
436.087	408.57
436.294	381.95
436.501	300.03
436.708	275.45
436.915	289.79
437.122	410.62
437.329	295.93
437.537	265.21
437.743	420.86
437.95	435.19
438.157	381.95
438.364	271.36
438.571	377.85
438.778	500.73
438.985	435.19
439.192	455.67
439.399	445.43
439.606	451.58
439.813	551.93
440.02	596.98
440.227	603.13
440.433	541.69
440.64	596.98
440.847	467.96
441.054	613.37
441.261	732.15
441.467	625.65
441.674	578.55
441.881	801.78
442.088	648.18
442.294	850.93
442.501	797.68
442.708	850.93
442.914	818.16
443.121	914.42
443.328	875.51
443.534	1035.25
443.741	930.8
443.948	910.32
444.154	1127.41
444.361	1266.67
444.568	1082.35
444.774	1070.06
444.981	1084.4
445.187	1162.22
445.394	1299.44
445.6	1235.95
445.807	1448.94
446.013	1274.86
446.22	1246.19
446.426	1487.85
446.633	1561.58
446.839	1756.13
447.046	1481.71
447.252	1770.47
447.459	1774.56
447.665	1764.33
447.871	1969.12
448.078	2118.62
448.284	2046.94
448.491	2083.81
448.697	2251.74
448.903	2286.56
449.11	2237.41
449.316	2225.12
449.522	2638.81
449.728	2540.51
449.935	2708.44
450.141	2790.36
450.347	2876.37
450.553	2821.08
450.76	2841.56
450.966	3216.33
451.172	3204.05
451.378	3402.7
451.584	3410.89
451.791	3695.56
451.997	3619.78
452.203	3705.8
452.409	3902.4
452.615	4111.3
452.821	4160.45
453.027	4211.65
453.233	4527.03
453.44	4498.36
453.646	4842.42
453.852	4926.39
454.058	5018.55
454.264	5176.24
454.47	5563.31
454.676	5641.13
454.882	6161.31
455.088	6067.11
455.294	6128.55
455.5	6488.99
455.705	7154.58
455.911	6790.04
456.117	7156.63
456.323	7213.97
456.529	7316.37
456.735	8022.92
456.941	8272.77
457.147	8448.9
457.352	8622.97
457.558	8893.3
457.764	9696.11
457.97	9919.34
458.176	10132.33
458.381	10740.57
458.587	10916.7
458.793	11354.96
458.999	11369.3
459.204	13056.82
459.41	13292.34
459.616	13103.93
459.821	13982.51
460.027	14449.44
460.233	14969.63
460.438	15055.64
460.644	15831.82
460.85	16157.45
461.055	16925.44
461.261	17875.7
461.466	17328.89
461.672	17914.61
461.878	19708.63
462.083	19331.8
462.289	19897.04
462.494	20933.31
462.7	20810.43
462.905	21056.19
463.111	23069.34
463.316	23773.85
463.522	24234.64
463.727	25354.88
463.932	26223.22
464.138	27073.12
464.343	28299.86
464.549	28203.6
464.754	30126.64
464.959	31175.2
465.165	31216.16
465.37	31570.46
465.575	31506.98
465.781	33221.13
465.986	34220.53
466.191	33843.71
466.397	34179.57
466.602	33462.79
466.807	35523.04
467.012	35953.12
467.218	36358.61
467.423	36592.08
467.628	37566.91
467.833	39338.41
468.038	38592.95
468.244	38222.26
468.449	39682.47
468.654	39383.46
468.859	39162.28
469.064	39039.4
469.269	38357.43
469.474	38203.83
469.679	39309.74
469.885	38351.29
470.09	39174.57
470.295	39033.26
470.5	38062.52
470.705	38281.66
470.91	37552.58
471.115	37091.79
471.32	37573.06
471.525	37140.94
471.73	36188.63
471.935	36018.65
472.139	34722.29
472.344	34808.3
472.549	34623.98
472.754	33614.34
472.959	33143.3
473.164	32188.95
473.369	31646.24
473.574	32457.23
473.778	31650.33
473.983	31042.09
474.188	30462.51
474.393	28932.68
474.598	29293.12
474.802	28568.14
475.007	28293.71
475.212	27675.23
475.417	26661.48
475.621	26464.88
475.826	26176.11
476.031	25588.35
476.235	25168.51
476.44	25207.42
476.645	24449.67
476.849	24134.29
477.054	23839.38
477.259	23360.16
477.463	23136.93
477.668	22577.83
477.872	22581.93
478.077	21809.84
478.282	21433.02
478.486	21514.94
478.691	21148.35
478.895	20691.65
479.1	20699.84
479.304	20878.02
479.509	19604.18
479.713	20073.17
479.918	19636.95
480.122	19423.96
480.326	19172.06
480.531	19688.15
480.735	19059.42
480.94	18627.3
481.144	19387.1
481.348	18340.58
481.553	18510.57
481.757	18027.24
481.961	18330.34
482.166	18488.04
482.37	18191.08
482.574	17421.05
482.778	17767.15
482.983	17906.41
483.187	17330.94
483.391	17378.04
483.595	17130.23
483.8	16716.54
484.004	16874.24
484.208	17189.63
484.412	16755.46
484.616	16474.88
484.821	16524.04
485.025	15682.32
485.229	16106.25
485.433	15498
485.637	15252.25
485.841	15311.64
486.045	14863.13
486.249	14844.7
486.453	14838.56
486.657	14512.93
486.861	14172.97
487.065	13570.86
487.269	13781.81
487.473	13464.37
487.677	13800.24
487.881	13615.92
488.085	12852.03
488.289	12735.29
488.493	12548.93
488.697	12362.56
488.901	12362.56
489.105	11907.91
489.309	11762.51
489.512	11635.53
489.716	11535.18
489.92	11357.01
490.124	11080.53
490.328	11152.21
490.531	10529.63
490.735	10818.39
490.939	10347.36
491.143	10187.62
491.346	10077.03
491.55	10036.07
491.754	9818.99
491.958	9548.65
492.161	9528.17
492.365	9366.39
492.569	9196.4
492.772	8919.93
492.976	9020.28
493.18	8825.72
493.383	8801.15
493.587	8598.4
493.79	8557.44
493.994	8307.59
494.197	8524.67
494.401	8268.67
494.605	8356.74
494.808	8240
495.012	8076.16
495.215	8303.49
495.419	8166.28
495.622	7926.66
495.825	7836.55
496.029	7867.27
496.232	8018.82
496.436	7779.21
496.639	8115.08
496.843	7908.23
497.046	7906.18
497.249	8244.1
497.453	7926.66
497.656	7762.83
497.859	7869.32
498.063	7977.86
498.266	8153.99
498.469	7889.8
498.673	7936.9
498.876	8008.58
499.079	7928.71
499.282	7863.18
499.485	8487.81
499.689	8156.04
499.892	8203.14
500.095	8385.41
500.298	8508.29
500.501	8256.39
500.705	8543.1
500.908	8559.49
501.111	8569.73
501.314	8950.65
501.517	8942.46
501.72	9001.85
501.923	8932.22
502.126	9227.12
502.329	9350
502.532	9485.17
502.735	9350
502.938	9642.86
503.141	9626.48
503.344	9827.18
503.547	10064.74
503.75	9927.53
503.953	10328.93
504.156	10597.21
504.359	10349.41
504.562	10849.11
504.765	10971.99
504.968	11041.62
505.17	11264.85
505.373	11154.26
505.576	11670.35
505.779	11760.46
505.982	11746.12
506.185	12313.41
506.387	12122.95
506.59	12694.33
506.793	12737.34
506.996	12880.7
507.198	13357.88
507.401	13202.23
507.604	13759.28
507.807	13962.03
508.009	14301.99
508.212	14525.22
508.415	15010.59
508.617	15350.55
508.82	15293.21
509.022	15364.89
509.225	16220.94
509.428	16476.93
509.63	16734.98
509.833	16878.33
510.035	17885.94
510.238	17924.85
510.44	18176.75
510.643	18707.17
510.845	19118.81
511.048	19034.85
511.25	19567.32
511.453	20187.85
511.655	20890.31
511.858	21043.9
512.06	21273.28
512.262	21992.11
512.465	22401.71
512.667	23145.12
512.87	23493.27
513.072	23667.35
513.274	24384.14
513.477	25152.13
513.679	25643.64
513.881	26180.21
514.084	26677.86
514.286	27064.93
514.488	27523.68
514.69	28459.6
514.893	28766.79
515.095	29413.95
515.297	30143.03
515.499	30781.99
515.701	31181.35
515.904	32180.76
516.106	32432.66
516.308	33360.39
516.51	33995.26
516.712	34243.06
516.914	34920.94
517.116	35559.91
517.318	36135.38
517.52	36899.28
517.722	37409.22
517.925	37931.45
518.127	39156.14
518.329	39373.22
518.531	39618.98
518.733	40419.74
518.935	41107.85
519.136	41496.97
519.338	42461.56
519.54	42738.04
519.742	43594.09
519.944	44206.43
520.146	44699.99
520.348	44935.51
520.55	45762.89
520.752	46020.93
520.954	47073.59
521.155	46862.64
521.357	47941.92
521.559	48240.93
521.761	48988.44
521.963	49180.95
522.164	49553.68
522.366	49934.6
522.568	50116.87
522.77	50663.67
522.971	51861.74
523.173	50778.36
523.375	51134.71
523.576	51556.59
523.778	51255.54
523.98	52261.09
524.181	52775.13
524.383	52334.82
524.584	52936.92
524.786	53125.33
524.988	52484.32
525.189	52881.63
525.391	52945.11
525.592	52642.01
525.794	53158.1
525.995	52529.37
526.197	52648.16
526.398	52463.84
526.6	52543.71
526.801	52218.08
527.003	52281.57
527.204	52170.98
527.406	52285.67
527.607	51683.56
527.808	51595.5
528.01	50309.38
528.211	50635
528.412	51136.76
528.614	50444.54
528.815	50075.91
529.016	50342.14
529.218	48754.97
529.419	49074.45
529.62	48277.79
529.822	47771.94
530.023	47786.28
530.224	46975.28
530.425	46389.56
530.626	45869.38
530.828	45257.04
531.029	45959.49
531.23	44216.67
531.431	43833.7
531.632	43854.18
531.833	43110.77
532.035	42770.8
532.236	42133.89
532.437	41927.04
532.638	40882.58
532.839	40710.55
533.04	40536.47
533.241	39154.09
533.442	39606.69
533.643	39002.54
533.844	37999.04
534.045	38087.1
534.246	37018.06
534.447	36723.15
534.648	36129.24
534.849	35611.1
535.05	35142.12
535.251	34685.42
535.451	34318.84
535.652	33690.11
535.853	33268.23
536.054	33208.84
536.255	32537.1
536.456	31722.01
536.657	31828.51
536.857	31064.61
537.058	30683.69
537.259	30444.08
537.46	29936.18
537.66	29123.14
537.861	29233.73
538.062	28877.38
538.263	28400.21
538.463	27763.29
538.664	27521.63
538.865	27284.06
539.065	27273.82
539.266	26270.32
539.466	26696.3
539.667	25911.92
539.868	25670.26
540.068	25414.27
540.269	25109.12
540.469	24816.26
540.67	24582.79
540.87	24224.4
541.071	24025.75
541.271	23718.55
541.472	23476.89
541.672	22928.03
541.873	22962.85
542.073	22203.05
542.274	22338.22
542.474	22201.01
542.675	22000.3
542.875	21580.47
543.075	21383.87
543.276	20796.1
543.476	20935.36
543.676	20697.8
543.877	20701.89
544.077	20480.71
544.277	20073.17
544.478	19763.92
544.678	19628.76
544.878	19628.76
545.078	19004.13
545.279	18883.3
545.479	18655.97
545.679	18399.98
545.879	18127.6
546.079	17861.36
546.28	17564.4
546.48	17560.31
546.68	17744.63
546.88	17255.16
547.08	16927.49
547.28	16921.34
547.48	16593.67
547.68	16628.48
547.88	15983.37
548.081	15981.32
548.281	15774.48
548.481	15770.38
548.681	15547.15
548.881	15289.11
549.081	15098.65
549.28	14883.61
549.48	14648.1
549.68	14406.44
549.88	14762.78
550.08	14005.03
550.28	13796.14
550.48	13890.35
550.68	13640.5
550.88	13179.7
551.08	13099.83
551.279	13177.65
551.479	12616.51
551.679	12534.59
551.879	12153.67
552.079	12282.69
552.278	12079.94
552.478	12196.68
552.678	11801.42
552.878	11664.21
553.077	11465.55
553.277	11254.61
553.477	11076.44
553.676	10875.74
553.876	10693.47
554.076	10394.47
554.275	10378.08
554.475	10148.71
554.674	10189.67
554.874	9847.66
555.074	9481.07
555.273	9487.22
555.473	9505.65
555.672	9173.88
555.872	9104.25
556.071	9028.47
556.271	8692.6
556.47	8598.4
556.67	8416.13
556.869	8326.02
557.068	8233.86
557.268	8078.21
557.467	8012.68
557.667	8033.16
557.866	7674.76
558.065	7537.55
558.265	7291.79
558.464	7398.29
558.663	7269.27
558.863	7138.2
559.062	7146.39
559.261	6824.86
559.461	6982.55
559.66	6458.27
559.859	6587.29
560.058	6312.86
560.258	6316.96
560.457	6421.41
560.656	6445.98
560.855	5933.99
561.054	6050.72
561.253	5989.28
561.453	5913.51
561.652	5735.34
561.851	5747.62
562.05	5518.25
562.249	5415.85
562.448	5532.59
562.647	5149.62
562.846	5202.86
563.045	5313.45
563.244	4985.78
563.443	5100.47
563.642	4840.37
563.841	4961.2
564.04	4903.86
564.239	4819.89
564.438	4611
564.637	4447.16
564.836	4629.43
565.035	4490.17
565.234	4244.42
565.432	4355.01
565.631	4299.71
565.83	4285.37
566.029	4187.07
566.228	4029.38
566.427	4199.36
566.625	3972.04
566.824	3980.23
567.023	3802.05
567.222	3765.19
567.42	3795.91
567.619	3722.18
567.818	3693.51
568.016	3800.01
568.215	3554.25
568.414	3673.03
568.612	3496.91
568.811	3562.44
569.01	3412.94
569.208	3333.07
569.407	3349.45
569.605	3292.11
569.804	3165.14
570.002	3175.38
570.201	3009.49
570.4	3150.8
570.598	3009.49
570.797	3011.54
570.995	2989.01
571.193	2825.17
571.392	2978.77
571.59	2843.6
571.789	2796.5
571.987	2868.18
572.186	2755.54
572.384	2507.74
572.582	2618.33
572.781	2722.77
572.979	2522.07
573.177	2542.55
573.376	2479.07
573.574	2546.65
573.772	2356.19
573.971	2280.41
574.169	2204.64
574.367	2378.72
574.565	2333.66
574.763	2241.5
574.962	2116.58
575.16	2126.82
575.358	1969.12
575.556	2065.38
575.754	1899.49
575.952	1971.17
576.151	2104.29
576.349	2040.8
576.547	1909.73
576.745	1907.68
576.943	1924.07
577.141	1821.67
577.339	1709.03
577.537	1831.91
577.735	1870.82
577.933	1700.84
578.131	1666.02
578.329	1795.04
578.527	1752.04
578.725	1760.23
578.923	1534.95
579.121	1627.11
579.319	1520.62
579.516	1557.48
579.714	1782.76
579.912	1532.9
580.11	1428.46
580.308	1489.9
580.506	1432.55
580.704	1307.63
580.901	1326.06
581.099	1537
581.297	1356.78
581.495	1317.87
581.692	1252.33
581.89	1489.9
582.088	1299.44
582.285	1272.81
582.483	1227.76
582.681	1254.38
582.878	1254.38
583.076	1244.14
583.274	1346.54
583.471	1291.24
583.669	1074.16
583.866	1051.63
584.064	1025.01
584.262	1008.62
584.459	1016.82
584.657	1096.69
584.854	1047.54
585.052	1078.26
585.249	1080.3
585.447	1025.01
585.644	953.33
585.841	1092.59
586.039	977.91
586.236	969.71
586.434	945.14
586.631	844.79
586.828	910.32
587.026	945.14
587.223	814.07
587.42	789.49
587.618	848.88
587.815	920.56
588.012	842.74
588.21	789.49
588.407	934.9
588.604	844.79
588.801	783.35
588.999	809.97
589.196	855.03
589.393	674.81
589.59	791.54
589.787	713.72
589.984	857.07
590.182	726
590.379	730.1
590.576	799.73
590.773	668.66
590.97	789.49
591.167	740.34
591.364	744.44
591.561	738.29
591.758	906.23
591.955	672.76
592.152	658.42
592.349	701.43
592.546	637.94
592.743	670.71
592.94	613.37
593.137	769.01
593.334	873.46
593.531	840.69
593.727	748.53
593.924	795.64
594.121	766.96
594.318	787.44
594.515	801.78
594.712	814.07
594.908	928.75
595.105	683
595.302	689.14
595.499	777.2
595.696	873.46
595.892	742.39
596.089	988.14
596.286	793.59
596.482	955.38
596.679	824.31
596.876	781.3
597.072	895.99
597.269	877.55
597.466	990.19
597.662	904.18
597.859	846.84
598.055	1008.62
598.252	990.19
598.448	1065.97
598.645	1244.14
598.841	1184.75
599.038	1319.92
599.234	1291.24
599.431	1295.34
599.627	1389.55
599.824	1387.5
600.02	1475.56
600.217	1375.21
600.413	1567.72
600.609	1614.82
600.806	1842.15
601.002	1766.37
601.198	1661.93
601.395	1803.24
601.591	1786.85
601.787	2108.38
601.984	2130.91
602.18	2042.85
602.376	2239.45
602.572	2388.96
602.769	2337.76
602.965	2384.86
603.161	2532.31
603.357	2614.23
603.553	2708.44
603.75	2819.03
603.946	2911.19
604.142	2909.14
604.338	3195.86
604.534	3140.56
604.73	3191.76
604.926	3304.4
605.122	3535.82
605.318	3605.45
605.514	3716.04
605.71	3750.85
605.906	4006.85
606.102	3902.4
606.298	4191.17
606.494	4410.3
606.69	4615.1
606.886	4414.4
607.082	4686.78
607.278	4740.02
607.474	4901.81
607.67	5235.63
607.866	5018.55
608.062	5520.3
608.257	5428.14
608.453	5465
608.649	5794.73
608.845	5958.57
609.041	6001.57
609.236	6179.75
609.432	6558.62
609.628	6491.04
609.824	6747.03
610.019	6855.58
610.215	7011.22
610.411	7336.85
610.606	7709.58
610.802	7707.53
610.998	7973.77
611.193	8203.14
611.389	8328.06
611.584	8672.12
611.78	8592.25
611.976	9106.29
612.171	9634.67
612.367	9573.23
612.562	9853.8
612.758	9841.51
612.953	10167.14
613.149	10386.27
613.344	10568.54
613.539	11115.35
613.735	11291.48
613.93	11635.53
614.126	11897.67
614.321	12491.59
614.517	12790.59
614.712	12935.99
614.907	13046.58
615.103	13493.04
615.298	13808.43
615.493	14476.07
615.688	14437.16
615.884	15164.18
616.079	15123.23
616.274	16214.79
616.47	16333.57
616.665	16583.43
616.86	16804.61
617.055	17711.86
617.25	17787.63
617.445	18215.66
617.641	18541.29
617.836	19178.2
618.031	19245.79
618.226	20466.38
618.421	20300.49
618.616	21336.76
618.811	21433.02
619.006	22176.43
619.201	22547.11
619.396	23474.84
619.591	23171.74
619.786	24394.38
619.981	24179.34
620.176	25014.91
620.371	25205.38
620.566	25989.75
620.761	26606.19
620.956	27155.04
621.151	27257.44
621.346	28207.7
621.541	28172.88
621.735	29649.47
621.93	29379.14
622.125	30282.29
622.32	30028.34
622.515	31300.13
622.709	31566.37
622.904	32553.49
623.099	32993.8
623.294	33411.59
623.488	33575.42
623.683	34611.7
623.878	34761.2
624.072	35768.8
624.267	36186.58
624.462	36661.71
624.656	37073.35
624.851	37976.51
625.046	38355.38
625.24	38984.11
625.435	39688.61
625.629	39995.81
625.824	40356.25
626.018	41429.38
626.213	41173.39
626.407	41945.47
626.602	41947.52
626.796	42920.31
626.991	42924.4
627.185	43358.57
627.38	43708.77
627.574	43716.96
627.768	44142.94
627.963	44382.55
628.157	44294.49
628.352	44648.79
628.546	44323.16
628.74	44607.83
628.935	44919.12
629.129	44984.66
629.323	43944.29
629.517	43927.91
629.712	44114.27
629.906	43528.55
630.1	42856.82
630.294	43157.87
630.489	42316.15
630.683	41806.21
630.877	41179.53
631.071	40743.31
631.265	40206.75
631.459	39281.06
631.653	38537.65
631.848	37542.34
632.042	36438.48
632.236	36018.65
632.43	34556.4
632.624	34259.45
632.818	33071.62
633.012	32037.4
633.206	30765.61
633.4	30155.32
633.594	29022.79
633.788	28103.25
633.982	27284.06
634.176	26346.09
634.369	25242.24
634.563	24095.38
634.757	23431.83
634.951	22717.09
635.145	21869.23
635.339	20783.81
635.533	20079.31
635.726	19649.24
635.92	18332.39
636.114	17713.91
636.308	16880.38
636.501	16321.29
636.695	15819.53
636.889	14779.17
637.083	14418.72
637.276	13824.81
637.47	13355.83
637.664	12909.37
637.857	12426.05
638.051	11733.84
638.244	11367.25
638.438	10984.28
638.632	10527.58
638.825	10017.64
639.019	9610.09
639.212	9190.26
639.406	8825.72
639.599	8455.04
639.793	8352.64
639.986	7973.77
640.18	7748.49
640.373	7259.03
640.567	7015.32
640.76	6890.39
640.954	6632.35
641.147	6187.94
641.34	6032.29
641.534	5745.58
641.727	5788.58
641.92	5362.61
642.114	5176.24
642.307	4983.73
642.5	4830.13
642.694	4516.8
642.887	4242.37
643.08	4293.57
643.273	4158.4
643.467	3994.56
643.66	3976.13
643.853	3533.77
644.046	3437.52
644.239	3394.51
644.432	3095.5
644.626	3052.5
644.819	3103.7
645.012	2900.95
645.205	3009.49
645.398	2712.53
645.591	2610.14
645.784	2491.35
645.977	2253.79
646.17	2257.89
646.363	2210.78
646.556	2022.37
646.749	1954.79
646.942	2040.8
647.135	1969.12
647.328	1799.14
647.521	1825.76
647.714	1713.13
647.907	1700.84
648.099	1573.86
648.292	1655.78
648.485	1450.99
648.678	1434.6
648.871	1285.1
649.064	1303.53
649.256	1133.55
649.449	1201.13
649.642	1094.64
649.835	1170.41
650.027	1115.12
650.22	1078.26
650.413	1045.49
650.605	1082.35
650.798	908.27
650.991	930.8
651.183	941.04
651.376	840.69
651.568	861.17
651.761	797.68
651.954	859.12
652.146	713.72
652.339	873.46
652.531	830.45
652.724	652.28
652.916	599.03
653.109	496.63
653.301	648.18
653.494	623.61
653.686	644.09
653.879	693.24
654.071	586.74
654.263	553.98
654.456	496.63
654.648	617.46
654.84	568.31
655.033	443.39
655.225	582.65
655.417	338.94
655.61	574.46
655.802	502.78
655.994	601.08
656.186	443.39
656.379	549.88
656.571	359.42
656.763	365.56
656.955	392.19
657.148	318.46
657.34	418.81
657.532	343.03
657.724	320.51
657.916	394.23
658.108	429.05
658.3	429.05
658.492	392.19
658.684	334.84
658.876	386.04
659.068	250.88
659.26	226.3
659.452	386.04
659.644	259.07
659.836	439.29
660.028	277.5
660.22	185.34
660.412	232.44
660.604	236.54
660.796	226.3
660.988	328.7
661.18	193.53
661.372	279.55
661.563	244.73
661.755	218.11
661.947	144.38
662.139	136.19
662.331	183.29
662.522	289.79
662.714	199.68
662.906	154.62
663.097	263.16
663.289	152.57
663.481	113.66
663.673	177.15
663.864	209.92
664.056	205.82
664.247	103.42
664.439	224.25
664.631	189.44
664.822	226.3
665.014	162.81
665.205	158.72
665.397	144.38
665.588	179.2
665.78	181.25
665.971	199.68
666.163	183.29
666.354	248.83
666.546	121.85
666.737	183.29
666.929	148.48
667.12	211.96
667.311	162.81
667.503	144.38
667.694	205.82
667.885	197.63
668.077	144.38
668.268	80.89
668.459	62.46
668.651	142.33
668.842	162.81
669.033	48.13
669.224	80.89
669.416	400.38
669.607	150.53
669.798	93.18
669.989	179.2
670.18	123.9
670.371	142.33
670.563	78.85
670.754	191.49
670.945	195.58
671.136	150.53
671.327	181.25
671.518	244.73
671.709	275.45
671.9	207.87
672.091	345.08
672.282	128
672.473	158.72
672.664	82.94
672.855	103.42
673.046	156.67
673.237	285.69
673.428	203.77
673.619	128
673.809	125.95
674	281.6
674.191	175.1
674.382	105.47
674.573	101.37
674.764	109.57
674.954	250.88
675.145	107.52
675.336	82.94
675.527	152.57
675.717	181.25
675.908	158.72
676.099	134.14
676.289	144.38
676.48	33.79
676.671	185.34
676.861	158.72
677.052	134.14
677.243	189.44
677.433	197.63
677.624	195.58
677.814	173.05
678.005	136.19
678.195	242.68
678.386	134.14
678.576	195.58
678.767	97.28
678.957	97.28
679.148	150.53
679.338	300.03
679.529	191.49
679.719	140.29
679.909	209.92
680.1	232.44
680.29	183.29
680.481	128
680.671	214.01
680.861	203.77
681.052	179.2
681.242	205.82
681.432	261.12
681.622	257.02
681.813	66.56
682.003	166.91
682.193	216.06
682.383	234.49
682.573	156.67
682.764	189.44
682.954	244.73
683.144	224.25
683.334	123.9
683.524	195.58
683.714	181.25
683.904	308.22
684.094	173.05
684.284	201.72
684.474	252.92
684.664	265.21
684.854	234.49
685.044	142.33
685.234	234.49
685.424	295.93
685.614	136.19
685.804	386.04
685.994	228.35
686.184	240.64
686.374	226.3
686.564	265.21
686.753	203.77
686.943	115.71
687.133	216.06
687.323	187.39
687.513	228.35
687.702	238.59
687.892	195.58
688.082	277.5
688.272	275.45
688.461	224.25
688.651	338.94
688.841	306.17
689.03	244.73
689.22	238.59
689.41	199.68
689.599	214.01
689.789	191.49
689.979	310.27
690.168	203.77
690.358	261.12
690.547	181.25
690.737	250.88
690.926	222.2
691.116	261.12
691.305	295.93
691.495	209.92
691.684	187.39
691.874	183.29
692.063	189.44
692.252	318.46
692.442	248.83
692.631	218.11
692.82	140.29
693.01	105.47
693.199	142.33
693.388	156.67
693.578	228.35
693.767	205.82
693.956	275.45
694.146	222.2
694.335	240.64
694.524	154.62
694.713	314.36
694.902	140.29
695.092	162.81
695.281	201.72
695.47	171.01
695.659	191.49
695.848	259.07
696.037	193.53
696.226	236.54
696.415	201.72
696.604	234.49
696.793	269.31
696.982	211.96
697.171	334.84
697.36	107.52
697.549	158.72
697.738	87.04
697.927	111.61
698.116	179.2
698.305	371.71
698.494	287.74
698.683	168.96
698.872	222.2
699.061	224.25
699.25	121.85
699.438	230.4
699.627	144.38
699.816	263.16
700.005	140.29
700.193	207.87
700.382	168.96
700.571	244.73
700.76	177.15
700.948	257.02
701.137	267.26
701.326	234.49
701.514	93.18
701.703	181.25
701.892	273.4
702.08	259.07
702.269	236.54
702.457	209.92
702.646	185.34
702.834	138.24
703.023	214.01
703.212	224.25
703.4	242.68
703.589	185.34
703.777	191.49
703.965	216.06
704.154	101.37
704.342	160.77
704.531	179.2
704.719	175.1
704.907	218.11
705.096	138.24
705.284	144.38
705.472	201.72
705.661	246.78
705.849	271.36
706.037	316.41
706.226	207.87
706.414	220.16
706.602	146.43
706.79	211.96
706.979	187.39
707.167	164.86
707.355	80.89
707.543	281.6
707.731	295.93
707.919	146.43
708.107	252.92
708.296	218.11
708.484	62.46
708.672	185.34
708.86	250.88
709.048	228.35
709.236	205.82
709.424	187.39
709.612	345.08
709.8	168.96
709.988	191.49
710.176	263.16
710.364	330.75
710.551	136.19
710.739	216.06
710.927	181.25
711.115	261.12
711.303	320.51
711.491	234.49
711.679	91.13
711.866	228.35
712.054	207.87
712.242	297.98
712.43	164.86
712.617	224.25
712.805	283.64
712.993	134.14
713.181	158.72
713.368	281.6
713.556	189.44
713.744	177.15
713.931	357.37
714.119	201.72
714.306	179.2
714.494	156.67
714.682	218.11
714.869	99.33
715.057	144.38
715.244	138.24
715.432	211.96
715.619	201.72
715.807	148.48
715.994	109.57
716.182	216.06
716.369	199.68
716.556	297.98
716.744	89.09
716.931	189.44
717.119	250.88
717.306	166.91
717.493	357.37
717.681	236.54
717.868	168.96
718.055	293.88
718.242	209.92
718.43	240.64
718.617	306.17
718.804	146.43
718.991	312.32
719.179	185.34
719.366	244.73
719.553	179.2
719.74	273.4
719.927	207.87
720.114	207.87
720.301	162.81
720.488	257.02
720.676	138.24
720.863	351.23
721.05	351.23
721.237	224.25
721.424	291.84
721.611	232.44
721.798	242.68
721.985	171.01
722.172	214.01
722.358	220.16
722.545	320.51
722.732	297.98
722.919	324.6
723.106	257.02
723.293	275.45
723.48	371.71
723.667	222.2
723.853	388.09
724.04	345.08
724.227	343.03
724.414	234.49
724.6	365.56
724.787	482.3
724.974	447.48
725.161	261.12
725.347	146.43
725.534	257.02
725.72	324.6
725.907	332.79
726.094	312.32
726.28	216.06
726.467	257.02
726.653	226.3
726.84	314.36
727.027	390.14
727.213	273.4
727.4	340.99
727.586	228.35
727.773	257.02
727.959	324.6
728.145	281.6
728.332	275.45
728.518	187.39
728.705	297.98
728.891	306.17
729.077	252.92
729.264	214.01
729.45	226.3
729.636	338.94
729.823	330.75
730.009	347.13
730.195	353.27
730.382	271.36
730.568	205.82
730.754	347.13
730.94	209.92
731.126	330.75
731.313	324.6
731.499	334.84
731.685	416.76
731.871	224.25
732.057	312.32
732.243	381.95
732.429	330.75
732.615	541.69
732.801	453.63
732.987	279.55
733.173	314.36
733.359	236.54
733.545	404.47
733.731	310.27
733.917	392.19
734.103	353.27
734.289	408.57
734.475	287.74
734.661	461.82
734.847	388.09
735.033	379.9
735.219	500.73
735.404	328.7
735.59	347.13
735.776	367.61
735.962	377.85
736.148	470.01
736.333	427
736.519	304.12
736.705	326.65
736.89	324.6
737.076	381.95
737.262	316.41
737.447	312.32
737.633	273.4
737.819	334.84
738.004	314.36
738.19	318.46
738.375	379.9
738.561	492.54
738.747	455.67
738.932	324.6
739.118	476.15
739.303	465.91
739.489	433.15
739.674	304.12
739.859	349.18
740.045	402.43
740.23	398.33
740.416	287.74
740.601	390.14
740.786	381.95
740.972	371.71
741.157	386.04
741.342	279.55
741.528	316.41
741.713	420.86
741.898	314.36
742.084	338.94
742.269	369.66
742.454	402.43
742.639	433.15
742.824	322.56
743.01	414.71
743.195	422.91
743.38	371.71
743.565	400.38
743.75	328.7
743.935	406.52
744.12	484.34
744.305	275.45
744.49	302.08
744.675	416.76
744.86	404.47
745.045	410.62
745.23	381.95
745.415	361.47
745.6	545.78
745.785	316.41
745.97	427
746.155	340.99
746.34	533.5
746.525	351.23
746.71	439.29
746.895	277.5
747.079	267.26
747.264	383.99
747.449	437.24
747.634	429.05
747.819	437.24
748.003	340.99
748.188	265.21
748.373	373.75
748.557	343.03
748.742	338.94
748.927	273.4
749.111	248.83
749.296	293.88
749.481	355.32
749.665	312.32
749.85	349.18
750.034	402.43
750.219	332.79
750.404	371.71
750.588	336.89
750.773	318.46
750.957	289.79
751.141	283.64
751.326	361.47
751.51	214.01
751.695	277.5
751.879	265.21
752.064	410.62
752.248	365.56
752.432	416.76
752.617	322.56
752.801	371.71
752.985	289.79
753.17	394.23
753.354	306.17
753.538	357.37
753.722	234.49
753.907	269.31
754.091	232.44
754.275	293.88
754.459	222.2
754.643	226.3
754.828	334.84
755.012	304.12
755.196	166.91
755.38	379.9
755.564	306.17
755.748	273.4
755.932	349.18
756.116	332.79
756.3	353.27
756.484	224.25
756.668	308.22
756.852	168.96
757.036	236.54
757.22	257.02
757.404	183.29
757.588	252.92
757.772	287.74
757.956	168.96
758.14	287.74
758.323	193.53
758.507	320.51
758.691	175.1
758.875	308.22
759.059	338.94
759.242	150.53
759.426	240.64
759.61	236.54
759.794	173.05
759.977	218.11
760.161	492.54
760.345	252.92
760.528	275.45
760.712	240.64
760.895	289.79
761.079	211.96
761.263	160.77
761.446	80.89
761.63	166.91
761.813	289.79
761.997	76.8
762.18	140.29
762.364	291.84
762.547	183.29
762.731	138.24
762.914	173.05
763.098	203.77
763.281	236.54
763.464	150.53
763.648	224.25
763.831	216.06
764.015	171.01
764.198	189.44
764.381	193.53
764.564	189.44
764.748	187.39
764.931	171.01
765.114	142.33
765.297	183.29
765.481	33.79
765.664	152.57
765.847	224.25
766.03	306.17
766.213	121.85
766.397	207.87
766.58	132.09
766.763	183.29
766.946	144.38
767.129	160.77
767.312	134.14
767.495	113.66
767.678	91.13
767.861	119.81
768.044	218.11
768.227	134.14
768.41	142.33
768.593	205.82
768.776	119.81
768.959	117.76
769.142	211.96
769.324	166.91
769.507	218.11
769.69	58.37
769.873	84.99
770.056	211.96
770.239	62.46
770.421	164.86
770.604	244.73
770.787	142.33
770.97	205.82
771.152	82.94
771.335	136.19
771.518	101.37
771.7	197.63
771.883	254.97
772.066	142.33
772.248	130.05
772.431	205.82
772.613	164.86
772.796	130.05
772.978	259.07
773.161	250.88
773.343	76.8
773.526	82.94
773.708	62.46
773.891	5.12
774.073	158.72
774.256	93.18
774.438	226.3
774.621	101.37
774.803	171.01
774.985	13.31
775.168	177.15
775.35	125.95
775.532	181.25
775.715	101.37
775.897	156.67
776.079	111.61
776.261	152.57
776.444	105.47
776.626	52.22
776.808	113.66
776.99	101.37
777.173	84.99
777.355	37.89
777.537	134.14
777.719	121.85
777.901	107.52
778.083	7.17
778.265	-19.46
778.447	257.02
778.629	68.61
778.811	111.61
778.993	132.09
779.175	199.68
779.357	91.13
779.539	19.46
779.721	164.86
779.903	150.53
780.085	25.6
780.267	132.09
780.449	175.1
780.631	97.28
780.812	191.49
780.994	146.43
781.176	66.56
781.358	33.79
781.54	13.31
781.721	142.33
781.903	181.25
782.085	54.27
782.267	222.2
782.448	-1.02
782.63	37.89
782.812	125.95
782.993	84.99
783.175	93.18
783.357	25.6
783.538	80.89
783.72	44.03
783.901	105.47
784.083	232.44
784.264	101.37
784.446	-44.03
784.627	-23.55
784.809	162.81
784.99	-9.22
785.172	193.53
785.353	72.7
785.535	76.8
785.716	-13.31
785.897	58.37
786.079	54.27
786.26	54.27
786.441	66.56
786.623	1.02
786.804	33.79
786.985	48.13
787.167	115.71
787.348	35.84
787.529	46.08
787.71	191.49
787.891	50.18
788.073	5.12
788.254	-84.99
788.435	140.29
788.616	89.09
788.797	17.41
788.978	-66.56
789.159	84.99
789.34	111.61
789.522	70.65
789.703	54.27
789.884	103.42
790.065	62.46
790.246	171.01
790.427	41.98
790.607	289.79
790.788	144.38
790.969	-35.84
791.15	97.28
791.331	19.46
791.512	72.7
791.693	-9.22
791.874	80.89
792.054	183.29
792.235	166.91
792.416	-27.65
792.597	41.98
792.778	72.7
792.958	99.33
793.139	89.09
793.32	80.89
793.5	-33.79
793.681	177.15
793.862	109.57
794.042	58.37
794.223	-17.41
794.404	-7.17
794.584	-109.57
794.765	130.05
794.945	41.98
795.126	99.33
795.306	97.28
795.487	117.76
795.667	-33.79
795.848	74.75
796.028	87.04
796.209	70.65
796.389	91.13
796.57	41.98
796.75	58.37
796.93	-5.12
797.111	11.26
797.291	-50.18
797.471	91.13
797.652	15.36
797.832	-48.13
798.012	9.22
798.192	-7.17
798.373	-44.03
798.553	-21.5
798.733	107.52
798.913	-58.37
799.093	-11.26
799.274	93.18
799.454	70.65
799.634	91.13
799.814	97.28
799.994	66.56
800.174	82.94
800.354	9.22
800.534	-64.51
800.714	109.57
800.894	-29.7
801.074	-93.18
801.254	46.08
801.434	150.53
801.614	37.89
801.794	-33.79
801.974	1915.87
802.154	17.41
802.334	3.07
802.514	-41.98
802.693	3.07
802.873	-13.31
803.053	195.58
803.233	39.94
803.413	39.94
803.592	-9.22
803.772	-31.74
803.952	50.18
804.131	-109.57
804.311	111.61
804.491	146.43
804.67	39.94
804.85	-44.03
805.03	56.32
805.209	54.27
805.389	58.37
805.568	-13.31
805.748	-33.79
805.928	13.31
806.107	21.5
806.287	123.9
806.466	52.22
806.646	60.42
806.825	-54.27
807.004	17.41
807.184	60.42
807.363	37.89
807.543	-9.22
807.722	-74.75
807.901	27.65
808.081	82.94
808.26	-195.58
808.439	13.31
808.619	-33.79
808.798	-13.31
808.977	130.05
809.156	25.6
809.336	-11.26
809.515	56.32
809.694	-74.75
809.873	5.12
810.052	97.28
810.231	80.89
810.411	99.33
810.59	1.02
810.769	-44.03
810.948	72.7
811.127	-87.04
811.306	3.07
811.485	17.41
811.664	66.56
811.843	52.22
812.022	3.07
812.201	-19.46
812.38	-21.5
812.559	-23.55
812.737	-9.22
812.916	-58.37
813.095	-27.65
813.274	33.79
813.453	62.46
813.632	58.37
813.811	70.65
813.989	-52.22
814.168	27.65
814.347	-37.89
814.526	48.13
814.704	46.08
814.883	158.72
815.062	-80.89
815.24	113.66
815.419	-15.36
815.598	11.26
815.776	-56.32
815.955	-29.7
816.133	-84.99
816.312	46.08
816.49	-91.13
816.669	-33.79
816.847	44.03
817.026	39.94
817.204	-7.17
817.383	-54.27
817.561	-44.03
817.74	97.28
817.918	46.08
818.097	15.36
818.275	-9.22
818.453	103.42
818.632	21.5
818.81	-37.89
818.988	13.31
819.167	1.02
819.345	-33.79
819.523	-76.8
819.701	-50.18
819.879	95.23
820.058	54.27
820.236	-13.31
820.414	-76.8
820.592	-44.03
820.77	25.6
820.948	13.31
821.127	-128
821.305	33.79
821.483	29.7
821.661	46.08
821.839	7.17
822.017	-27.65
822.195	91.13
822.373	50.18
822.551	-15.36
822.729	46.08
822.907	60.42
823.085	29.7
823.262	70.65
823.44	-44.03
823.618	-46.08
823.796	-29.7
823.974	-13.31
824.152	-9.22
824.329	-60.42
824.507	-58.37
824.685	29.7
824.863	-7.17
825.04	-7.17
825.218	78.85
825.396	33.79
825.574	33.79
825.751	66.56
825.929	74.75
826.107	-84.99
826.284	-19.46
826.462	-29.7
826.639	-68.61
826.817	-80.89
826.994	15.36
827.172	-80.89
827.349	168.96
827.527	44.03
827.704	111.61
827.882	68.61
828.059	-23.55
828.237	3.07
828.414	82.94
828.591	-72.7
828.769	-13.31
828.946	-60.42
829.124	111.61
829.301	125.95
829.478	-58.37
829.655	1.02
829.833	21.5
830.01	-119.81
830.187	-7.17
830.364	1.02
830.542	3.07
830.719	121.85
830.896	115.71
831.073	115.71
831.25	3.07
831.427	37.89
831.604	-19.46
831.782	-89.09
831.959	66.56
832.136	-39.94
832.313	78.85
832.49	-89.09
832.667	80.89
832.844	-91.13
833.021	64.51
833.198	9.22
833.374	5.12
833.551	39.94
833.728	-70.65
833.905	41.98
834.082	-62.46
834.259	58.37
834.436	91.13
834.612	-95.23
834.789	3.07
834.966	60.42
835.143	31.74
835.319	-35.84
835.496	-5.12
835.673	15.36
835.85	37.89
836.026	37.89
836.203	35.84
836.38	9.22
836.556	-39.94
836.733	-54.27
836.909	123.9
837.086	-60.42
837.262	-89.09
837.439	-23.55
837.616	-15.36
837.792	-11.26
837.968	-9.22
838.145	-78.85
838.321	3.07
838.498	70.65
838.674	78.85
838.851	66.56
839.027	-80.89
839.203	-11.26
839.38	101.37
839.556	-136.19
839.732	52.22
839.909	-44.03
840.085	95.23
840.261	-111.61
840.437	70.65
840.614	21.5
840.79	48.13
840.966	87.04
841.142	-19.46
841.318	78.85
841.494	72.7
841.671	48.13
841.847	-25.6
842.023	-33.79
842.199	15.36
842.375	95.23
842.551	-121.85
842.727	-187.39
842.903	111.61
843.079	-37.89
843.255	78.85
843.431	-50.18
843.607	50.18
843.783	-156.67
843.959	33.79
844.134	5.12
844.31	125.95
844.486	9.22
844.662	-62.46
844.838	-54.27
845.013	-21.5
845.189	68.61
845.365	56.32
845.541	11.26
845.716	56.32
845.892	62.46
846.068	-33.79
846.244	-97.28
846.419	13.31
846.595	15.36
846.77	-50.18
846.946	74.75
847.122	-117.76
847.297	23.55
847.473	89.09
847.648	-48.13
847.824	52.22
847.999	-82.94
848.175	-21.5
848.35	29.7
848.526	68.61
848.701	84.99
848.876	101.37
849.052	27.65
849.227	-33.79
849.403	5.12
849.578	-78.85
849.753	-33.79
849.929	19.46
850.104	-48.13
850.279	27.65
850.454	-7.17
850.63	3.07
850.805	11.26
850.98	-13.31
851.155	33.79
851.33	87.04
851.505	-62.46
851.681	132.09
851.856	-13.31
852.031	1.02
852.206	-5.12
852.381	-150.53
852.556	68.61
852.731	50.18
852.906	97.28
853.081	-17.41
853.256	123.9
853.431	5.12
853.606	-48.13
853.781	-130.05
853.956	-117.76
854.131	9.22
854.305	-3.07
854.48	-66.56
854.655	-70.65
854.83	-87.04
855.005	-17.41
855.18	64.51
855.354	11.26
855.529	9.22
855.704	39.94
855.879	-15.36
856.053	-125.95
856.228	82.94
856.403	-76.8
856.577	-11.26
856.752	-19.46
856.926	-23.55
857.101	39.94
857.276	-56.32
857.45	44.03
857.625	78.85
857.799	-27.65
857.974	-11.26
858.148	-109.57
858.323	68.61
858.497	-66.56
858.672	-105.47
858.846	-21.5
859.02	21.5
859.195	-29.7
859.369	-41.98
859.543	-21.5
859.718	46.08
859.892	35.84
860.066	-31.74
860.241	-9.22
860.415	-39.94
860.589	-91.13
860.763	-7.17
860.938	9.22
861.112	-17.41
861.286	-17.41
861.46	27.65
861.634	29.7
861.808	44.03
861.982	1.02
862.157	-117.76
862.331	-11.26
862.505	-78.85
862.679	-78.85
862.853	-23.55
863.027	-68.61
863.201	128
863.375	-72.7
863.549	-50.18
863.722	-9.22
863.896	56.32
864.07	-76.8
864.244	13.31
864.418	31.74
864.592	66.56
864.766	13.31
864.939	37.89
865.113	-103.42
865.287	117.76
865.461	-62.46
865.634	60.42
865.808	-66.56
865.982	11.26
866.156	-58.37
866.329	-107.52
866.503	3.07
866.676	95.23
866.85	5.12
867.024	-25.6
867.197	93.18
867.371	-31.74
867.544	35.84
867.718	-35.84
867.891	160.77
868.065	-76.8
868.238	46.08
868.412	58.37
868.585	48.13
868.759	5.12
868.932	17.41
869.105	-113.66
869.279	-21.5
869.452	-158.72
869.625	31.74
869.799	-37.89
869.972	-60.42
870.145	-130.05
870.319	66.56
870.492	-66.56
870.665	3.07
870.838	60.42
871.011	-171.01
871.185	-3.07
871.358	-54.27
871.531	66.56
871.704	-111.61
871.877	15.36
872.05	-56.32
872.223	-109.57
872.396	-25.6
872.569	60.42
872.742	-89.09
872.915	23.55
873.088	-82.94
873.261	-70.65
873.434	-19.46
873.607	3.07
873.78	15.36
873.953	-125.95
874.126	-1.02
874.299	21.5
874.471	68.61
874.644	-19.46
874.817	35.84
874.99	109.57
875.163	-5.12
875.335	44.03
875.508	7.17
875.681	-3.07
875.853	-111.61
876.026	29.7
876.199	80.89
876.371	-29.7
876.544	-64.51
876.717	-21.5
876.889	15.36
877.062	74.75
877.234	-93.18
877.407	-95.23
877.579	-72.7
877.752	37.89
877.924	68.61
878.097	5.12
878.269	3.07
878.442	-52.22
878.614	17.41
878.786	-15.36
878.959	-46.08
879.131	-13.31
879.303	-89.09
879.476	-9.22
879.648	111.61
879.82	-15.36
879.993	27.65
880.165	-33.79
880.337	-93.18
880.509	25.6
880.681	-37.89
880.854	1.02
881.026	54.27
881.198	185.34
881.37	-35.84
881.542	52.22
881.714	-56.32
881.886	23.55
882.058	29.7
882.23	37.89
882.402	-23.55
882.574	3.07
882.746	37.89
882.918	101.37
883.09	41.98
883.262	-33.79
883.434	-46.08
883.606	-107.52
883.778	-31.74
883.95	105.47
884.122	-48.13
884.293	107.52
884.465	-54.27
884.637	74.75
884.809	-41.98
884.98	-3.07
885.152	-48.13
885.324	1.02
885.496	-27.65
885.667	-11.26
885.839	-60.42
886.011	99.33
886.182	78.85
886.354	62.46
886.525	-1.02
886.697	19.46
886.869	-3.07
887.04	-11.26
887.212	140.29
887.383	162.81
887.555	9.22
887.726	-33.79
887.897	-9.22
888.069	68.61
888.24	109.57
888.412	1.02
888.583	-113.66
888.754	-1.02
888.926	-105.47
889.097	-52.22
889.268	-80.89
889.44	-25.6
889.611	-7.17
889.782	25.6
889.953	-80.89
890.125	68.61
890.296	-134.14
890.467	-107.52
890.638	-15.36
890.809	9.22
890.98	-76.8
891.151	1.02
891.323	64.51
891.494	-82.94
891.665	56.32
891.836	-11.26
892.007	3.07
892.178	74.75
892.349	62.46
892.52	-93.18
892.691	78.85
892.862	-13.31
893.032	3.07
893.203	44.03
893.374	-41.98
893.545	62.46
893.716	-66.56
893.887	-1.02
894.057	-80.89
894.228	-1.02
894.399	-46.08
894.57	144.38
894.74	48.13
894.911	66.56
895.082	23.55
895.253	-56.32
895.423	-54.27
895.594	46.08
895.764	7.17
895.935	-76.8
896.106	-9.22
896.276	-1.02
896.447	-19.46
896.617	-105.47
896.788	-89.09
896.958	-58.37
897.129	3.07
897.299	-54.27
897.47	33.79
897.64	29.7
897.81	-48.13
897.981	35.84
898.151	-33.79
898.322	11.26
898.492	29.7
898.662	-68.61
898.832	-9.22
899.003	17.41
899.173	58.37
899.343	-93.18
899.513	-97.28
