Data from USB4F104151__28__11-24-51-405.txt Node

Date: Wed Feb 26 11:24:51 EST 2025
User: louis
Spectrometer: USB4F10415
Trigger mode: 4
Integration Time (sec): 1.000000E-1
Scans to average: 1
Electric dark correction enabled: true
Nonlinearity correction enabled: false
Boxcar width: 0
XAxis mode: Wavelengths
Number of Pixels in Spectrum: 3648
>>>>>Begin Spectral Data<<<<<
178.204	-390.48
178.424	-390.48
178.644	-390.48
178.864	-423.25
179.084	-400.72
179.304	51.88
179.524	-73.04
179.744	-34.13
179.964	33.45
180.184	31.4
180.404	45.74
180.624	-54.61
180.844	-79.19
181.064	-19.8
181.283	76.46
181.503	-52.56
181.723	74.41
181.943	-126.29
182.163	176.81
182.383	-66.9
182.602	76.46
182.822	252.58
183.042	53.93
183.262	-34.13
183.482	-66.9
183.701	43.69
183.921	84.65
184.141	-38.23
184.361	90.79
184.58	86.7
184.8	119.46
185.02	-42.32
185.239	17.07
185.459	33.45
185.679	115.37
185.898	-71
186.118	74.41
186.338	-9.56
186.557	68.27
186.777	-56.66
186.997	-68.95
187.216	58.03
187.436	185
187.655	109.22
187.875	92.84
188.095	53.93
188.314	64.17
188.534	180.9
188.753	-30.04
188.973	148.14
189.192	146.09
189.412	58.03
189.631	76.46
189.851	103.08
190.07	213.67
190.29	-27.99
190.509	17.07
190.729	156.33
190.948	141.99
191.168	215.72
191.387	117.42
191.607	84.65
191.826	66.22
192.045	-15.7
192.265	8.87
192.484	23.21
192.704	41.64
192.923	-5.46
193.142	160.42
193.362	121.51
193.581	78.51
193.8	70.31
194.02	29.35
194.239	86.7
194.458	53.93
194.678	33.45
194.897	39.59
195.116	23.21
195.335	49.83
195.555	123.56
195.774	-1.37
195.993	148.14
196.212	53.93
196.432	-17.75
196.651	17.07
196.87	-5.46
197.089	285.35
197.308	53.93
197.528	82.6
197.747	-68.95
197.966	41.64
198.185	88.75
198.404	47.79
198.623	111.27
198.842	129.7
199.062	90.79
199.281	105.13
199.5	12.97
199.719	33.45
199.938	-7.51
200.157	72.36
200.376	119.46
200.595	64.17
200.814	64.17
201.033	-11.61
201.252	111.27
201.471	-7.51
201.69	53.93
201.909	62.12
202.128	103.08
202.347	88.75
202.566	60.07
202.785	-7.51
203.004	-1.37
203.223	305.83
203.442	53.93
203.661	-15.7
203.879	23.21
204.098	53.93
204.317	19.11
204.536	90.79
204.755	15.02
204.974	74.41
205.193	113.32
205.411	86.7
205.63	76.46
205.849	86.7
206.068	-23.89
206.287	39.59
206.505	141.99
206.724	23.21
206.943	27.31
207.162	-7.51
207.381	82.6
207.599	-38.23
207.818	29.35
208.037	-21.85
208.255	39.59
208.474	68.27
208.693	2.73
208.911	80.55
209.13	127.66
209.349	131.75
209.567	88.75
209.786	109.22
210.005	107.18
210.223	39.59
210.442	-111.96
210.661	33.45
210.879	123.56
211.098	31.4
211.316	74.41
211.535	17.07
211.753	78.51
211.972	17.07
212.191	-40.28
212.409	23.21
212.628	33.45
212.846	-13.65
213.065	133.8
213.283	158.38
213.502	76.46
213.72	76.46
213.938	-1.37
214.157	-13.65
214.375	109.22
214.594	47.79
214.812	17.07
215.031	2.73
215.249	111.27
215.467	72.36
215.686	55.98
215.904	119.46
216.122	45.74
216.341	148.14
216.559	68.27
216.778	121.51
216.996	113.32
217.214	-1.37
217.432	37.55
217.651	-1.37
217.869	39.59
218.087	12.97
218.306	41.64
218.524	25.26
218.742	12.97
218.96	49.83
219.179	-19.8
219.397	-5.46
219.615	211.62
219.833	119.46
220.051	-81.24
220.27	58.03
220.488	115.37
220.706	141.99
220.924	4.78
221.142	4.78
221.36	141.99
221.578	101.03
221.796	-9.56
222.015	82.6
222.233	111.27
222.451	158.38
222.669	21.16
222.887	84.65
223.105	31.4
223.323	47.79
223.541	0.68
223.759	58.03
223.977	-34.13
224.195	109.22
224.413	125.61
224.631	35.5
224.849	107.18
225.067	279.21
225.285	6.83
225.503	39.59
225.721	-42.32
225.939	105.13
226.157	94.89
226.375	320.17
226.592	-42.32
226.81	72.36
227.028	166.57
227.246	70.31
227.464	78.51
227.682	154.28
227.9	66.22
228.117	86.7
228.335	80.55
228.553	-9.56
228.771	53.93
228.989	66.22
229.206	76.46
229.424	19.11
229.642	8.87
229.86	-11.61
230.077	86.7
230.295	41.64
230.513	41.64
230.731	86.7
230.948	191.14
231.166	90.79
231.384	-15.7
231.601	39.59
231.819	74.41
232.037	-56.66
232.254	4.78
232.472	45.74
232.689	10.92
232.907	172.71
233.125	-3.41
233.342	-15.7
233.56	19.11
233.777	33.45
233.995	68.27
234.213	58.03
234.43	94.89
234.648	39.59
234.865	-25.94
235.083	45.74
235.3	105.13
235.518	66.22
235.735	125.61
235.953	123.56
236.17	84.65
236.388	-75.09
236.605	60.07
236.822	107.18
237.04	101.03
237.257	47.79
237.475	-13.65
237.692	94.89
237.909	162.47
238.127	33.45
238.344	141.99
238.562	10.92
238.779	-40.28
238.996	-46.42
239.214	23.21
239.431	96.94
239.648	-15.7
239.865	98.99
240.083	74.41
240.3	-3.41
240.517	0.68
240.735	17.07
240.952	101.03
241.169	121.51
241.386	60.07
241.603	-15.7
241.821	-3.41
242.038	84.65
242.255	148.14
242.472	-109.91
242.689	105.13
242.907	154.28
243.124	115.37
243.341	92.84
243.558	-5.46
243.775	-32.08
243.992	-17.75
244.209	64.17
244.426	197.29
244.643	80.55
244.86	53.93
245.078	33.45
245.295	115.37
245.512	29.35
245.729	29.35
245.946	148.14
246.163	41.64
246.38	17.07
246.597	68.27
246.814	55.98
247.031	-40.28
247.248	84.65
247.464	96.94
247.681	78.51
247.898	90.79
248.115	113.32
248.332	21.16
248.549	152.23
248.766	152.23
248.983	96.94
249.2	-7.51
249.417	92.84
249.633	60.07
249.85	49.83
250.067	84.65
250.284	70.31
250.501	31.4
250.717	39.59
250.934	41.64
251.151	31.4
251.368	6.83
251.585	115.37
251.801	45.74
252.018	-68.95
252.235	107.18
252.451	-50.52
252.668	58.03
252.885	53.93
253.102	123.56
253.318	-7.51
253.535	76.46
253.752	4.78
253.968	-66.9
254.185	-66.9
254.401	-25.94
254.618	68.27
254.835	0.68
255.051	144.04
255.268	10.92
255.484	78.51
255.701	17.07
255.917	66.22
256.134	12.97
256.351	8.87
256.567	53.93
256.784	8.87
257	-44.37
257.217	68.27
257.433	90.79
257.65	4.78
257.866	131.75
258.082	-27.99
258.299	19.11
258.515	96.94
258.732	47.79
258.948	21.16
259.165	-23.89
259.381	19.11
259.597	131.75
259.814	68.27
260.03	82.6
260.246	-17.75
260.463	125.61
260.679	158.38
260.895	82.6
261.112	70.31
261.328	-5.46
261.544	-87.38
261.761	166.57
261.977	25.26
262.193	-58.71
262.409	98.99
262.626	88.75
262.842	49.83
263.058	19.11
263.274	129.7
263.49	21.16
263.707	141.99
263.923	92.84
264.139	-5.46
264.355	25.26
264.571	213.67
264.787	41.64
265.004	135.85
265.22	31.4
265.436	37.55
265.652	33.45
265.868	-7.51
266.084	-79.19
266.3	109.22
266.516	-54.61
266.732	37.55
266.948	113.32
267.164	15.02
267.38	131.75
267.596	55.98
267.812	172.71
268.028	123.56
268.244	2.73
268.46	92.84
268.676	-9.56
268.892	25.26
269.108	-5.46
269.324	-23.89
269.54	12.97
269.756	82.6
269.972	-71
270.188	37.55
270.403	-27.99
270.619	29.35
270.835	72.36
271.051	60.07
271.267	74.41
271.483	6.83
271.698	43.69
271.914	51.88
272.13	74.41
272.346	-1.37
272.562	121.51
272.777	144.04
272.993	10.92
273.209	-3.41
273.425	43.69
273.64	8.87
273.856	94.89
274.072	49.83
274.287	-17.75
274.503	109.22
274.719	111.27
274.934	-3.41
275.15	-87.38
275.366	141.99
275.581	21.16
275.797	60.07
276.012	94.89
276.228	23.21
276.444	98.99
276.659	172.71
276.875	-48.47
277.09	60.07
277.306	6.83
277.521	141.99
277.737	-3.41
277.952	129.7
278.168	-36.18
278.383	31.4
278.599	62.12
278.814	115.37
279.03	17.07
279.245	103.08
279.461	-13.65
279.676	35.5
279.892	-34.13
280.107	-23.89
280.322	41.64
280.538	4.78
280.753	33.45
280.969	82.6
281.184	84.65
281.399	182.95
281.615	80.55
281.83	62.12
282.045	-44.37
282.26	-64.85
282.476	23.21
282.691	135.85
282.906	88.75
283.122	70.31
283.337	66.22
283.552	66.22
283.767	-1.37
283.983	86.7
284.198	39.59
284.413	84.65
284.628	-71
284.843	-5.46
285.058	10.92
285.274	45.74
285.489	-34.13
285.704	111.27
285.919	39.59
286.134	19.11
286.349	64.17
286.564	-1.37
286.779	82.6
286.995	27.31
287.21	4.78
287.425	117.42
287.64	23.21
287.855	107.18
288.07	-60.76
288.285	160.42
288.5	176.81
288.715	82.6
288.93	8.87
289.145	25.26
289.36	29.35
289.575	27.31
289.79	148.14
290.004	25.26
290.219	158.38
290.434	-15.7
290.649	-40.28
290.864	39.59
291.079	12.97
291.294	51.88
291.509	70.31
291.724	-32.08
291.938	-19.8
292.153	45.74
292.368	45.74
292.583	86.7
292.798	51.88
293.012	4.78
293.227	92.84
293.442	-56.66
293.657	88.75
293.871	84.65
294.086	131.75
294.301	189.1
294.516	127.66
294.73	144.04
294.945	-52.56
295.16	58.03
295.374	141.99
295.589	154.28
295.804	6.83
296.018	37.55
296.233	62.12
296.447	62.12
296.662	-23.89
296.877	166.57
297.091	133.8
297.306	78.51
297.52	70.31
297.735	17.07
297.949	96.94
298.164	62.12
298.378	55.98
298.593	10.92
298.807	-56.66
299.022	8.87
299.236	129.7
299.451	53.93
299.665	51.88
299.88	39.59
300.094	74.41
300.309	70.31
300.523	49.83
300.737	41.64
300.952	162.47
301.166	88.75
301.381	-19.8
301.595	-19.8
301.809	2.73
302.024	10.92
302.238	-9.56
302.452	68.27
302.667	6.83
302.881	205.48
303.095	51.88
303.309	109.22
303.524	0.68
303.738	-25.94
303.952	-46.42
304.166	60.07
304.381	-81.24
304.595	115.37
304.809	45.74
305.023	29.35
305.237	33.45
305.452	21.16
305.666	119.46
305.88	76.46
306.094	84.65
306.308	107.18
306.522	84.65
306.736	101.03
306.95	62.12
307.164	8.87
307.379	21.16
307.593	135.85
307.807	162.47
308.021	33.45
308.235	45.74
308.449	-109.91
308.663	47.79
308.877	199.34
309.091	49.83
309.305	80.55
309.519	-75.09
309.733	172.71
309.947	-38.23
310.161	19.11
310.374	70.31
310.588	115.37
310.802	-36.18
311.016	21.16
311.23	70.31
311.444	47.79
311.658	-11.61
311.872	117.42
312.085	105.13
312.299	150.18
312.513	82.6
312.727	64.17
312.941	-54.61
313.154	12.97
313.368	82.6
313.582	51.88
313.796	23.21
314.009	37.55
314.223	154.28
314.437	45.74
314.651	72.36
314.864	-5.46
315.078	55.98
315.292	0.68
315.505	-7.51
315.719	-3.41
315.933	92.84
316.146	41.64
316.36	6.83
316.573	45.74
316.787	80.55
317.001	49.83
317.214	-103.76
317.428	37.55
317.641	6.83
317.855	41.64
318.068	8.87
318.282	39.59
318.495	176.81
318.709	127.66
318.922	60.07
319.136	164.52
319.349	113.32
319.563	-52.56
319.776	68.27
319.99	-36.18
320.203	82.6
320.417	15.02
320.63	164.52
320.843	113.32
321.057	-13.65
321.27	33.45
321.483	121.51
321.697	92.84
321.91	141.99
322.124	125.61
322.337	121.51
322.55	-89.43
322.763	33.45
322.977	70.31
323.19	-34.13
323.403	60.07
323.617	72.36
323.83	135.85
324.043	64.17
324.256	19.11
324.469	-11.61
324.683	109.22
324.896	-23.89
325.109	58.03
325.322	-58.71
325.535	33.45
325.748	199.34
325.962	33.45
326.175	41.64
326.388	86.7
326.601	90.79
326.814	21.16
327.027	78.51
327.24	135.85
327.453	-142.68
327.666	0.68
327.879	80.55
328.092	90.79
328.305	60.07
328.518	-52.56
328.731	-17.75
328.944	-1.37
329.157	135.85
329.37	-1.37
329.583	98.99
329.796	150.18
330.009	-97.62
330.222	113.32
330.435	96.94
330.648	76.46
330.861	78.51
331.073	21.16
331.286	94.89
331.499	53.93
331.712	-52.56
331.925	15.02
332.138	-25.94
332.35	127.66
332.563	39.59
332.776	150.18
332.989	10.92
333.202	90.79
333.414	96.94
333.627	31.4
333.84	53.93
334.053	76.46
334.265	2.73
334.478	-19.8
334.691	0.68
334.903	51.88
335.116	27.31
335.329	12.97
335.541	113.32
335.754	129.7
335.966	-17.75
336.179	27.31
336.392	53.93
336.604	-13.65
336.817	86.7
337.029	74.41
337.242	53.93
337.454	133.8
337.667	53.93
337.88	123.56
338.092	72.36
338.305	62.12
338.517	8.87
338.729	29.35
338.942	172.71
339.154	-58.71
339.367	-34.13
339.579	125.61
339.792	-30.04
340.004	107.18
340.217	0.68
340.429	55.98
340.641	-32.08
340.854	8.87
341.066	53.93
341.278	115.37
341.491	123.56
341.703	6.83
341.915	45.74
342.128	113.32
342.34	55.98
342.552	-40.28
342.764	60.07
342.977	-5.46
343.189	21.16
343.401	53.93
343.613	-44.37
343.826	35.5
344.038	-27.99
344.25	33.45
344.462	21.16
344.674	96.94
344.886	58.03
345.099	33.45
345.311	25.26
345.523	94.89
345.735	-3.41
345.947	72.36
346.159	19.11
346.371	17.07
346.583	64.17
346.795	152.23
347.007	29.35
347.219	129.7
347.431	86.7
347.643	129.7
347.855	39.59
348.067	158.38
348.279	8.87
348.491	35.5
348.703	162.47
348.915	-40.28
349.127	41.64
349.339	111.27
349.551	37.55
349.763	152.23
349.975	60.07
350.187	168.62
350.399	135.85
350.61	86.7
350.822	21.16
351.034	15.02
351.246	17.07
351.458	94.89
351.669	60.07
351.881	156.33
352.093	185
352.305	109.22
352.517	148.14
352.728	150.18
352.94	4.78
353.152	74.41
353.363	-27.99
353.575	35.5
353.787	115.37
353.999	68.27
354.21	195.24
354.422	-7.51
354.633	43.69
354.845	-25.94
355.057	47.79
355.268	25.26
355.48	172.71
355.692	-40.28
355.903	-5.46
356.115	-3.41
356.326	-79.19
356.538	148.14
356.749	55.98
356.961	178.86
357.172	86.7
357.384	-64.85
357.595	293.54
357.807	39.59
358.018	-5.46
358.23	98.99
358.441	176.81
358.653	78.51
358.864	76.46
359.075	-1.37
359.287	35.5
359.498	144.04
359.709	131.75
359.921	86.7
360.132	35.5
360.344	17.07
360.555	6.83
360.766	19.11
360.977	31.4
361.189	121.51
361.4	-1.37
361.611	92.84
361.823	133.8
362.034	80.55
362.245	21.16
362.456	70.31
362.667	49.83
362.879	-36.18
363.09	64.17
363.301	70.31
363.512	76.46
363.723	15.02
363.935	23.21
364.146	68.27
364.357	125.61
364.568	111.27
364.779	-34.13
364.99	189.1
365.201	21.16
365.412	137.9
365.623	-58.71
365.834	94.89
366.045	37.55
366.256	101.03
366.467	25.26
366.678	64.17
366.889	55.98
367.1	37.55
367.311	43.69
367.522	45.74
367.733	195.24
367.944	37.55
368.155	53.93
368.366	98.99
368.577	164.52
368.788	98.99
368.999	-11.61
369.209	45.74
369.42	176.81
369.631	238.25
369.842	103.08
370.053	53.93
370.264	154.28
370.474	-46.42
370.685	135.85
370.896	111.27
371.107	170.66
371.317	123.56
371.528	31.4
371.739	129.7
371.95	107.18
372.16	109.22
372.371	-44.37
372.582	6.83
372.792	115.37
373.003	70.31
373.214	49.83
373.424	146.09
373.635	-19.8
373.846	121.51
374.056	29.35
374.267	60.07
374.477	98.99
374.688	72.36
374.898	66.22
375.109	55.98
375.319	43.69
375.53	80.55
375.74	105.13
375.951	-15.7
376.161	105.13
376.372	174.76
376.582	58.03
376.793	-9.56
377.003	33.45
377.214	37.55
377.424	115.37
377.635	-17.75
377.845	12.97
378.055	60.07
378.266	0.68
378.476	-7.51
378.686	51.88
378.897	33.45
379.107	121.51
379.317	80.55
379.528	-15.7
379.738	144.04
379.948	-85.33
380.158	180.9
380.369	35.5
380.579	68.27
380.789	80.55
380.999	70.31
381.21	166.57
381.42	205.48
381.63	25.26
381.84	172.71
382.05	45.74
382.261	115.37
382.471	105.13
382.681	12.97
382.891	141.99
383.101	125.61
383.311	43.69
383.521	58.03
383.731	127.66
383.941	78.51
384.151	74.41
384.361	25.26
384.571	49.83
384.781	10.92
384.991	176.81
385.201	207.53
385.411	156.33
385.621	84.65
385.831	70.31
386.041	58.03
386.251	-1.37
386.461	144.04
386.671	10.92
386.881	90.79
387.091	15.02
387.301	137.9
387.511	39.59
387.72	23.21
387.93	64.17
388.14	-52.56
388.35	21.16
388.56	72.36
388.769	105.13
388.979	33.45
389.189	70.31
389.399	82.6
389.609	96.94
389.818	154.28
390.028	-44.37
390.238	4.78
390.447	-25.94
390.657	88.75
390.867	49.83
391.076	4.78
391.286	90.79
391.496	41.64
391.705	6.83
391.915	78.51
392.125	129.7
392.334	45.74
392.544	121.51
392.753	-17.75
392.963	-34.13
393.172	10.92
393.382	-9.56
393.591	125.61
393.801	70.31
394.01	185
394.22	111.27
394.429	33.45
394.639	86.7
394.848	62.12
395.058	115.37
395.267	27.31
395.477	105.13
395.686	51.88
395.895	223.91
396.105	191.14
396.314	121.51
396.524	-17.75
396.733	72.36
396.942	105.13
397.152	72.36
397.361	141.99
397.57	64.17
397.78	-95.57
397.989	123.56
398.198	221.86
398.407	8.87
398.617	74.41
398.826	144.04
399.035	29.35
399.244	150.18
399.453	92.84
399.663	0.68
399.872	39.59
400.081	51.88
400.29	94.89
400.499	74.41
400.708	55.98
400.917	25.26
401.127	58.03
401.336	43.69
401.545	199.34
401.754	103.08
401.963	82.6
402.172	41.64
402.381	-13.65
402.59	21.16
402.799	43.69
403.008	53.93
403.217	49.83
403.426	80.55
403.635	-25.94
403.844	68.27
404.053	-38.23
404.262	66.22
404.471	180.9
404.68	78.51
404.888	33.45
405.097	2.73
405.306	-30.04
405.515	84.65
405.724	-60.76
405.933	129.7
406.142	43.69
406.35	141.99
406.559	-15.7
406.768	78.51
406.977	141.99
407.185	64.17
407.394	133.8
407.603	-71
407.812	84.65
408.02	72.36
408.229	21.16
408.438	82.6
408.646	-27.99
408.855	53.93
409.064	98.99
409.272	82.6
409.481	76.46
409.69	-105.81
409.898	-3.41
410.107	47.79
410.315	88.75
410.524	19.11
410.733	166.57
410.941	82.6
411.15	41.64
411.358	135.85
411.567	148.14
411.775	43.69
411.984	-19.8
412.192	94.89
412.401	25.26
412.609	90.79
412.818	86.7
413.026	123.56
413.234	96.94
413.443	135.85
413.651	-11.61
413.86	29.35
414.068	94.89
414.276	158.38
414.485	-13.65
414.693	152.23
414.901	230.06
415.11	131.75
415.318	88.75
415.526	72.36
415.734	96.94
415.943	70.31
416.151	127.66
416.359	17.07
416.567	72.36
416.776	70.31
416.984	129.7
417.192	121.51
417.4	-40.28
417.608	19.11
417.817	-64.85
418.025	125.61
418.233	113.32
418.441	51.88
418.649	19.11
418.857	37.55
419.065	182.95
419.273	-60.76
419.481	68.27
419.689	53.93
419.897	23.21
420.105	49.83
420.313	80.55
420.521	148.14
420.729	144.04
420.937	35.5
421.145	6.83
421.353	156.33
421.561	197.29
421.769	103.08
421.977	-40.28
422.185	74.41
422.393	74.41
422.601	193.19
422.809	133.8
423.017	37.55
423.224	62.12
423.432	133.8
423.64	60.07
423.848	176.81
424.056	23.21
424.263	133.8
424.471	-1.37
424.679	225.96
424.887	19.11
425.094	205.48
425.302	78.51
425.51	62.12
425.718	176.81
425.925	74.41
426.133	-52.56
426.341	234.15
426.548	111.27
426.756	29.35
426.964	60.07
427.171	25.26
427.379	131.75
427.586	103.08
427.794	45.74
428.001	178.86
428.209	166.57
428.417	228.01
428.624	107.18
428.832	115.37
429.039	101.03
429.247	101.03
429.454	117.42
429.662	174.76
429.869	166.57
430.076	193.19
430.284	203.43
430.491	225.96
430.699	150.18
430.906	234.15
431.114	199.34
431.321	141.99
431.528	98.99
431.736	115.37
431.943	152.23
432.15	176.81
432.358	199.34
432.565	203.43
432.772	64.17
432.979	205.48
433.187	160.42
433.394	223.91
433.601	103.08
433.808	281.25
434.016	215.72
434.223	170.66
434.43	203.43
434.637	201.38
434.844	266.92
435.052	201.38
435.259	242.34
435.466	156.33
435.673	244.39
435.88	250.53
436.087	291.49
436.294	299.69
436.501	260.77
436.708	228.01
436.915	264.87
437.122	361.13
437.329	242.34
437.537	256.68
437.743	307.88
437.95	375.46
438.157	336.55
438.364	467.62
438.571	277.16
438.778	412.32
438.985	397.99
439.192	453.28
439.399	406.18
439.606	473.76
439.813	488.1
440.02	547.49
440.227	662.18
440.433	623.27
440.64	436.9
440.847	436.9
441.054	592.55
441.261	643.74
441.467	494.24
441.674	432.8
441.881	664.22
442.088	551.59
442.294	602.79
442.501	715.42
442.708	746.14
442.914	785.05
443.121	854.69
443.328	756.38
443.534	783.01
443.741	873.12
443.948	748.19
444.154	809.63
444.361	1024.67
444.568	860.83
444.774	889.5
444.981	740
445.187	1096.35
445.394	1057.43
445.6	1022.62
445.807	1213.08
446.013	1026.71
446.22	1108.63
446.426	1211.03
446.633	1331.86
446.839	1471.12
447.046	1235.61
447.252	1366.68
447.459	1436.31
447.665	1462.93
447.871	1618.58
448.078	1720.98
448.284	1667.73
448.491	1682.06
448.697	1819.28
448.903	1968.78
449.11	1923.73
449.316	1927.82
449.522	2144.91
449.728	2087.56
449.935	2194.06
450.141	2212.49
450.347	2542.21
450.553	2359.94
450.76	2388.61
450.966	2523.78
451.172	2642.56
451.378	2830.98
451.584	2794.11
451.791	3156.6
451.997	3084.92
452.203	3089.02
452.409	3330.68
452.615	3406.45
452.821	3324.54
453.027	3336.82
453.233	3869.3
453.44	3770.99
453.646	3887.73
453.852	4063.85
454.058	4219.5
454.264	4340.33
454.47	4674.15
454.676	4633.19
454.882	4997.73
455.088	4821.6
455.294	5001.82
455.5	5186.14
455.705	5614.16
455.911	5663.32
456.117	5855.83
456.323	6091.34
456.529	6122.06
456.735	6439.5
456.941	6754.88
457.147	7014.98
457.352	7164.48
457.558	7383.61
457.764	8073.78
457.97	8131.12
458.176	8294.96
458.381	9003.55
458.587	8997.41
458.793	9665.05
458.999	9364
459.204	10643.98
459.41	10805.77
459.616	10590.73
459.821	11336.19
460.027	11954.68
460.233	12431.85
460.438	12497.39
460.644	13230.56
460.85	13085.15
461.055	13894.1
461.261	14526.92
461.466	13971.93
461.672	14160.34
461.878	16185.78
462.083	16249.27
462.289	16490.93
462.494	17027.49
462.7	17140.13
462.905	17353.12
463.111	18796.94
463.316	19739.01
463.522	20128.12
463.727	20715.89
463.932	21641.57
464.138	22360.41
464.343	22948.17
464.549	23501.12
464.754	25245.99
464.959	25776.42
465.165	26190.11
465.37	25833.76
465.575	26009.89
465.781	27402.5
465.986	28651.77
466.191	28088.57
466.397	28334.33
466.602	27638.02
466.807	29436.14
467.012	29792.48
467.218	30318.81
467.423	30451.93
467.628	31107.28
467.833	32749.75
468.038	32501.95
468.244	31635.66
468.449	33253.55
468.654	33042.61
468.859	32659.64
469.064	32596.15
469.269	32080.07
469.474	32327.87
469.679	33507.5
469.885	32321.73
470.09	32817.33
470.295	32934.07
470.5	32223.42
470.705	32188.61
470.91	31647.94
471.115	31283.41
471.32	31740.1
471.525	31320.27
471.73	30673.11
471.935	30492.89
472.139	29051.12
472.344	29516.01
472.549	29286.64
472.754	28440.82
472.959	28035.33
473.164	27046.16
473.369	26724.63
473.574	27613.45
473.778	27136.27
473.983	26560.79
474.188	26056.99
474.393	24879.41
474.598	24846.64
474.802	23746.88
475.007	23806.27
475.212	23533.89
475.417	22524.24
475.621	22436.18
475.826	22376.79
476.031	21735.78
476.235	21240.17
476.44	21328.23
476.645	20820.33
476.849	20361.59
477.054	19974.52
477.259	19827.07
477.463	19640.7
477.668	19192.2
477.872	18891.15
478.077	18624.91
478.282	18157.97
478.486	18164.12
478.691	17781.15
478.895	17619.36
479.1	17553.82
479.304	17256.87
479.509	16779.69
479.713	17142.18
479.918	16830.89
480.122	16284.08
480.326	16327.09
480.531	16372.14
480.735	15940.02
480.94	15950.26
481.144	16456.11
481.348	15530.43
481.553	15645.12
481.757	14979.53
481.961	15167.94
482.166	15444.41
482.37	15116.74
482.574	14684.62
482.778	14643.66
482.983	15047.11
483.187	14504.4
483.391	14488.01
483.595	14252.5
483.8	14240.21
484.004	14141.91
484.208	14121.43
484.412	14033.36
484.616	13847
484.821	13765.08
485.025	13351.39
485.229	13472.22
485.433	13158.88
485.637	13113.83
485.841	12802.54
486.045	12841.45
486.249	12616.17
486.453	12253.68
486.657	12145.14
486.861	12134.9
487.065	11813.37
487.269	11600.38
487.473	11502.08
487.677	11252.22
487.881	11495.93
488.085	10816.01
488.289	10951.17
488.493	10367.5
488.697	10656.26
488.901	10392.08
489.105	9990.67
489.309	9951.76
489.512	9882.13
489.716	9832.98
489.92	9249.31
490.124	9132.58
490.328	9261.6
490.531	9103.9
490.735	9136.67
490.939	8675.88
491.143	8335.92
491.346	8503.85
491.55	8421.93
491.754	8036.91
491.958	8208.94
492.161	7842.35
492.365	7926.32
492.569	7776.82
492.772	7694.9
492.976	7754.29
493.18	7377.47
493.383	7469.62
493.587	7342.65
493.79	7379.51
493.994	7023.17
494.197	6771.27
494.401	7066.17
494.605	6826.56
494.808	7107.13
495.012	6888
495.215	6830.66
495.419	6830.66
495.622	6455.88
495.825	6476.36
496.029	6507.08
496.232	6771.27
496.436	6619.72
496.639	6744.64
496.843	6621.77
497.046	6609.48
497.249	6595.14
497.453	6507.08
497.656	6615.62
497.859	6580.81
498.063	6699.59
498.266	6613.57
498.469	6525.51
498.673	6748.74
498.876	6740.55
499.079	6812.23
499.282	6867.52
499.485	6951.49
499.689	7043.65
499.892	6912.58
500.095	6793.8
500.298	7105.09
500.501	6793.8
500.705	7115.33
500.908	7344.7
501.111	7240.25
501.314	7254.59
501.517	7393.85
501.72	7457.34
501.923	7572.02
502.126	7399.99
502.329	7774.77
502.532	7809.59
502.735	7928.37
502.938	8043.06
503.141	8225.33
503.344	8030.77
503.547	8333.87
503.75	8286.76
503.953	8477.23
504.156	8682.02
504.359	8675.88
504.562	8682.02
504.765	9071.14
504.968	9091.62
505.17	9339.42
505.373	9368.09
505.576	9540.12
505.779	9814.55
505.982	9826.84
506.185	9916.95
506.387	10074.64
506.59	10197.52
506.793	10598.92
506.996	10912.26
507.198	11336.19
507.401	11414.01
507.604	11420.16
507.807	11702.78
508.009	11921.91
508.212	12089.84
508.415	12501.48
508.617	12544.49
508.82	12759.53
509.022	12921.32
509.225	13582.81
509.428	13908.44
509.63	13844.95
509.833	14084.56
510.035	14692.81
510.238	15055.3
510.44	15106.5
510.643	15571.39
510.845	16011.7
511.048	16185.78
511.25	16400.82
511.453	16892.33
511.655	17639.84
511.858	17588.64
512.06	18096.53
512.262	18528.66
512.465	18780.56
512.667	19556.74
512.87	19720.57
513.072	19888.51
513.274	20650.35
513.477	21234.02
513.679	21698.91
513.881	22335.83
514.084	22751.57
514.286	22950.22
514.488	23730.5
514.69	24514.87
514.893	24777.01
515.095	25209.13
515.297	25686.31
515.499	26229.02
515.701	26986.77
515.904	27521.29
516.106	28164.35
516.308	28784.88
516.51	29065.46
516.712	29376.75
516.914	30187.74
517.116	30955.73
517.318	31170.77
517.52	31920.32
517.722	33013.94
517.925	33560.75
518.127	34224.29
518.329	34582.68
518.531	34695.32
518.733	35541.13
518.935	36153.47
519.136	36860.02
519.338	37388.4
519.54	38381.66
519.742	38516.83
519.944	38953.05
520.146	39700.56
520.348	40294.47
520.55	40659.01
520.752	41154.61
520.954	42252.33
521.155	42068.01
521.357	42913.82
521.559	43485.2
521.761	44357.64
521.963	44148.74
522.164	44804.09
522.366	45176.83
522.568	45961.2
522.77	46006.25
522.971	46655.46
523.173	46389.22
523.375	47050.72
523.576	47173.59
523.778	47275.99
523.98	47591.38
524.181	48134.09
524.383	48283.59
524.584	48816.07
524.786	48404.42
524.988	48498.63
525.189	48916.42
525.391	48979.9
525.592	49033.15
525.794	49344.44
525.995	48895.94
526.197	49051.58
526.398	49246.14
526.6	48834.5
526.801	49145.79
527.003	48914.37
527.204	48590.79
527.406	48347.08
527.607	48388.04
527.808	48508.87
528.01	47558.61
528.211	47691.73
528.412	48156.62
528.614	47493.08
528.815	47232.99
529.016	47097.82
529.218	46557.16
529.419	46391.27
529.62	45608.95
529.822	45041.66
530.023	44955.64
530.224	44902.4
530.425	44097.55
530.626	43634.7
530.828	42874.91
531.029	43343.89
531.23	42575.9
531.431	41689.13
531.632	42025
531.833	41293.88
532.035	40894.52
532.236	40521.79
532.437	40179.78
532.638	39827.53
532.839	39024.73
533.04	38711.39
533.241	37441.65
533.442	37720.17
533.643	37466.22
533.844	36741.24
534.045	36616.32
534.246	35461.26
534.447	35362.96
534.648	34773.14
534.849	34351.26
535.05	33865.89
535.251	33175.73
535.451	32723.13
535.652	32463.04
535.853	32194.75
536.054	31621.32
536.255	31264.97
536.456	30798.04
536.657	30697.69
536.857	29903.07
537.058	29243.63
537.259	29165.81
537.46	29188.33
537.66	28465.4
537.861	28125.44
538.062	27582.73
538.263	27175.18
538.463	27187.47
538.664	26757.39
538.865	26181.92
539.065	26208.54
539.266	25925.92
539.466	25676.07
539.667	25012.53
539.868	25159.98
540.068	24516.92
540.269	24285.5
540.469	24187.19
540.67	23718.21
540.87	23222.6
541.071	23134.54
541.271	22989.13
541.472	22593.87
541.672	22333.78
541.873	21897.56
542.073	21743.97
542.274	21737.82
542.474	21393.76
542.675	21082.47
542.875	20971.88
543.075	20760.94
543.276	20105.59
543.476	20420.98
543.676	19794.3
543.877	19675.52
544.077	19763.58
544.277	19313.03
544.478	18932.11
544.678	19061.13
544.878	18614.67
545.078	18551.18
545.279	18182.55
545.479	17877.4
545.679	17938.84
545.879	17815.96
546.079	17480.1
546.28	17148.33
546.48	16996.78
546.68	16992.68
546.88	16767.4
547.08	16759.21
547.28	16349.62
547.48	16126.39
547.68	15962.55
547.88	15620.54
548.081	15567.29
548.281	15360.45
548.481	14805.45
548.681	14985.67
548.881	14649.8
549.081	14825.93
549.28	14506.45
549.48	14229.97
549.68	13949.4
549.88	14019.03
550.08	13674.97
550.28	13613.53
550.48	13173.22
550.68	12988.9
550.88	12863.97
551.08	12624.36
551.279	12685.8
551.479	12265.97
551.679	12079.6
551.879	11901.43
552.079	11874.81
552.278	11880.95
552.478	11491.84
552.678	11385.34
552.878	11225.6
553.077	10965.51
553.277	10390.03
553.477	10781.19
553.676	10453.52
553.876	10224.14
554.076	10203.66
554.275	9886.23
554.475	9898.52
554.674	9724.44
554.874	9597.46
555.074	9185.82
555.273	9294.36
555.473	9167.39
555.672	8999.46
555.872	8770.08
556.071	8663.59
556.271	8663.59
556.47	8514.09
556.67	8280.62
556.869	8106.54
557.068	8065.58
557.268	7832.12
557.467	7729.72
557.667	7569.98
557.866	7670.33
558.065	7342.65
558.265	7316.03
558.464	6988.35
558.663	7080.51
558.863	6998.59
559.062	6824.51
559.261	6613.57
559.461	6701.64
559.66	6265.42
559.859	6277.71
560.058	6183.5
560.258	6093.39
560.457	5874.26
560.656	6066.77
560.855	5616.21
561.054	5765.71
561.253	5696.08
561.453	5679.7
561.652	5489.24
561.851	5487.19
562.05	5339.74
562.249	5005.92
562.448	5206.62
562.647	5077.6
562.846	5016.16
563.045	5122.65
563.244	4891.23
563.443	4858.46
563.642	4801.12
563.841	4745.83
564.04	4588.13
564.239	4602.47
564.438	4567.65
564.637	4274.79
564.836	4360.81
565.035	4182.63
565.234	4274.79
565.432	4151.92
565.631	4080.24
565.83	4084.33
566.029	4000.37
566.228	3986.03
566.427	3983.98
566.625	3621.49
566.824	3814
567.023	3900.02
567.222	3652.21
567.42	3723.89
567.619	3646.07
567.818	3457.65
568.016	3615.35
568.215	3373.69
568.414	3568.24
568.612	3261.05
568.811	3164.79
569.01	3207.8
569.208	3080.83
569.407	3052.16
569.605	3259
569.804	2957.95
570.002	2927.23
570.201	2890.37
570.4	2929.28
570.598	2863.74
570.797	2785.92
570.995	2781.82
571.193	2753.15
571.392	2708.1
571.59	2648.71
571.789	2640.51
571.987	2622.08
572.186	2521.73
572.384	2458.25
572.582	2372.23
572.781	2511.49
572.979	2278.02
573.177	2335.37
573.376	2284.17
573.574	2382.47
573.772	2149
573.971	2022.03
574.169	2062.99
574.367	2163.34
574.565	2138.76
574.763	2073.23
574.962	1999.5
575.16	2103.95
575.358	1802.9
575.556	1739.41
575.754	1944.2
575.952	1753.74
576.151	1847.95
576.349	1917.58
576.547	1690.26
576.745	1802.9
576.943	1782.42
577.141	1696.4
577.339	1532.56
577.537	1725.07
577.735	1729.17
577.933	1634.96
578.131	1548.95
578.329	1620.63
578.527	1538.71
578.725	1540.76
578.923	1299.09
579.121	1409.69
579.319	1424.02
579.516	1475.22
579.714	1591.95
579.912	1411.73
580.11	1206.94
580.308	1333.91
580.506	1170.07
580.704	1092.25
580.901	1217.18
581.099	1239.7
581.297	1219.22
581.495	1262.23
581.692	1249.94
581.89	1329.81
582.088	1165.98
582.285	1133.21
582.483	1102.49
582.681	1198.74
582.878	1051.29
583.076	1102.49
583.274	1098.39
583.471	1219.22
583.669	1041.05
583.866	914.08
584.064	932.51
584.262	854.69
584.459	938.65
584.657	1036.95
584.854	1051.29
585.052	881.31
585.249	967.32
585.447	912.03
585.644	778.91
585.841	971.42
586.039	959.13
586.236	944.8
586.434	844.45
586.631	766.62
586.828	793.25
587.026	828.06
587.223	713.38
587.42	768.67
587.618	785.05
587.815	838.3
588.012	680.61
588.21	684.7
588.407	840.35
588.604	864.93
588.801	658.08
588.999	780.96
589.196	692.9
589.393	643.74
589.59	709.28
589.787	647.84
589.984	789.15
590.182	651.94
590.379	592.55
590.576	656.03
590.773	613.03
590.97	643.74
591.167	699.04
591.364	703.14
591.561	686.75
591.758	799.39
591.955	733.86
592.152	596.64
592.349	606.88
592.546	633.5
592.743	617.12
592.94	565.92
593.137	744.1
593.334	625.31
593.531	664.22
593.727	672.42
593.924	688.8
594.121	639.65
594.318	506.53
594.515	653.98
594.712	744.1
594.908	756.38
595.105	545.44
595.302	692.9
595.499	740
595.696	826.01
595.892	705.18
596.089	799.39
596.286	625.31
596.482	826.01
596.679	783.01
596.876	756.38
597.072	832.16
597.269	791.2
597.466	715.42
597.662	791.2
597.859	838.3
598.055	895.64
598.252	850.59
598.448	934.56
598.645	971.42
598.841	1051.29
599.038	1036.95
599.234	1157.79
599.431	1135.26
599.627	1182.36
599.824	1118.87
600.02	1178.26
600.217	1350.29
600.413	1301.14
600.609	1340.05
600.806	1682.06
601.002	1376.92
601.198	1518.23
601.395	1639.06
601.591	1579.67
601.787	1669.78
601.984	1811.09
602.18	1929.87
602.376	1864.33
602.572	1921.68
602.769	2126.47
602.965	1901.2
603.161	2202.25
603.357	2275.98
603.553	2372.23
603.75	2284.17
603.946	2472.58
604.142	2632.32
604.338	2790.02
604.534	2695.81
604.73	2845.31
604.926	2947.71
605.122	3029.63
605.318	3109.5
605.514	3271.29
605.71	3193.47
605.906	3412.6
606.102	3428.98
606.298	3619.44
606.494	3609.2
606.69	3930.73
606.886	3805.81
607.082	3832.43
607.278	4110.96
607.474	4196.97
607.67	4387.43
607.866	4422.25
608.062	4694.63
608.257	4706.91
608.453	4651.62
608.649	5057.12
608.845	5012.06
609.041	5180
609.236	5458.52
609.432	5519.96
609.628	5864.02
609.824	5900.88
610.019	5988.94
610.215	6152.78
610.411	6451.78
610.606	6509.13
610.802	6707.78
610.998	6740.55
611.193	6998.59
611.389	7055.93
611.584	7473.72
611.78	7410.23
611.976	7807.54
612.171	7981.62
612.367	8352.3
612.562	8260.14
612.758	8430.12
612.953	8686.12
613.149	8821.28
613.344	9153.05
613.539	9466.39
613.735	9671.19
613.93	10031.63
614.126	10113.55
614.321	10545.67
614.517	10820.1
614.712	10994.18
614.907	11190.78
615.103	11604.47
615.298	11817.46
615.493	12165.62
615.688	12292.59
615.884	12919.27
616.079	12978.66
616.274	13425.12
616.47	13531.61
616.665	14158.29
616.86	14375.38
617.055	14672.33
617.25	15098.31
617.445	15444.41
617.641	15557.05
617.836	16177.59
618.031	16253.36
618.226	17072.55
618.421	17265.06
618.616	17811.87
618.811	18024.86
619.006	18770.32
619.201	18528.66
619.396	19577.22
619.591	19454.34
619.786	20320.63
619.981	20482.42
620.176	21057.9
620.371	21477.73
620.566	22098.27
620.761	22434.13
620.956	23253.32
621.151	22813.01
621.346	24176.95
621.541	23867.71
621.735	24971.57
621.93	24944.94
622.125	25794.85
622.32	25708.83
622.515	26376.47
622.709	26878.22
622.904	27310.35
623.099	27838.72
623.294	28561.65
623.488	28453.11
623.683	29567.21
623.878	29624.55
624.072	30511.32
624.267	30847.19
624.462	31504.59
624.656	31834.31
624.851	32121.02
625.046	32448.7
625.24	33077.43
625.435	33358
625.629	34064.55
625.824	34443.42
626.018	34971.8
626.213	34607.26
626.407	35549.32
626.602	35901.57
626.796	36626.56
626.991	36984.95
627.185	36849.78
627.38	37060.73
627.574	37537.9
627.768	37699.69
627.963	37929.06
628.157	37496.94
628.352	38361.19
628.546	37775.47
628.74	38535.26
628.935	37873.77
629.129	38166.63
629.323	37953.64
629.517	37832.81
629.712	37754.99
629.906	37304.43
630.1	37040.25
630.294	36909.18
630.489	36567.16
630.683	36370.56
630.877	35152.02
631.071	34580.63
631.265	34582.68
631.459	33579.18
631.653	33245.36
631.848	32663.74
632.042	31660.23
632.236	30984.4
632.43	29708.52
632.624	29595.88
632.818	28301.56
633.012	27633.92
633.206	26878.22
633.4	26339.61
633.594	24893.74
633.788	24443.19
633.982	23767.36
634.176	22899.02
634.369	22143.32
634.563	21160.3
634.757	20306.29
634.951	19954.04
635.145	18895.24
635.339	18450.83
635.533	17396.13
635.726	16918.95
635.92	16034.23
636.114	15571.39
636.308	14805.45
636.501	14127.57
636.695	13619.67
636.889	12933.61
637.083	12462.57
637.276	12171.76
637.47	11352.57
637.664	11080.19
637.857	10576.39
638.051	10215.95
638.244	10060.31
638.438	9568.79
638.632	9153.05
638.825	8458.79
639.019	8532.52
639.212	7830.07
639.406	7748.15
639.599	7340.6
639.793	7158.33
639.986	6836.8
640.18	6586.95
640.373	6226.51
640.567	5999.18
640.76	5818.96
640.954	5849.68
641.147	5358.17
641.34	5229.15
641.534	4856.42
641.727	4981.34
641.92	4708.96
642.114	4428.39
642.307	4369
642.5	4100.72
642.694	3924.59
642.887	3902.06
643.08	3807.86
643.273	3689.07
643.467	3302.01
643.66	3170.94
643.853	3048.06
644.046	3080.83
644.239	2828.93
644.432	2800.26
644.626	2611.84
644.819	2521.73
645.012	2513.54
645.205	2433.67
645.398	2329.22
645.591	2239.11
645.784	2073.23
645.977	1993.36
646.17	2040.46
646.363	1876.62
646.556	1680.02
646.749	1739.41
646.942	1860.24
647.135	1688.21
647.328	1505.94
647.521	1471.12
647.714	1454.74
647.907	1442.45
648.099	1366.68
648.292	1428.12
648.485	1276.57
648.678	1157.79
648.871	1159.83
649.064	1067.67
649.256	1014.43
649.449	1106.59
649.642	924.32
649.835	830.11
650.027	932.51
650.22	1010.33
650.413	848.54
650.605	832.16
650.798	774.81
650.991	846.49
651.183	688.8
651.376	711.33
651.568	742.05
651.761	588.45
651.954	666.27
652.146	643.74
652.339	746.14
652.531	696.99
652.724	610.98
652.916	486.05
653.109	408.23
653.301	705.18
653.494	545.44
653.686	504.48
653.879	551.59
654.071	551.59
654.263	520.87
654.456	404.13
654.648	481.96
654.84	504.48
655.033	481.96
655.225	475.81
655.417	228.01
655.61	522.91
655.802	508.58
655.994	492.2
656.186	256.68
656.379	354.98
656.571	338.6
656.763	305.83
656.955	338.6
657.148	381.6
657.34	400.04
657.532	289.45
657.724	311.97
657.916	295.59
658.108	426.66
658.3	342.69
658.492	385.7
658.684	301.73
658.876	408.23
659.068	211.62
659.26	164.52
659.452	154.28
659.644	275.11
659.836	420.52
660.028	252.58
660.22	201.38
660.412	230.06
660.604	244.39
660.796	246.44
660.988	334.5
661.18	258.73
661.372	295.59
661.563	217.77
661.755	277.16
661.947	146.09
662.139	119.46
662.331	211.62
662.522	268.97
662.714	182.95
662.906	191.14
663.097	131.75
663.289	70.31
663.481	76.46
663.673	107.18
663.864	266.92
664.056	262.82
664.247	105.13
664.439	309.93
664.631	174.76
664.822	139.94
665.014	172.71
665.205	82.6
665.397	185
665.588	205.48
665.78	254.63
665.971	125.61
666.163	53.93
666.354	185
666.546	107.18
666.737	109.22
666.929	133.8
667.12	78.51
667.311	217.77
667.503	172.71
667.694	176.81
667.885	139.94
668.077	277.16
668.268	70.31
668.459	246.44
668.651	174.76
668.842	117.42
669.033	141.99
669.224	55.98
669.416	375.46
669.607	125.61
669.798	127.66
669.989	301.73
670.18	201.38
670.371	199.34
670.563	152.23
670.754	195.24
670.945	207.53
671.136	148.14
671.327	80.55
671.518	279.21
671.709	334.5
671.9	279.21
672.091	281.25
672.282	150.18
672.473	228.01
672.664	107.18
672.855	166.57
673.046	193.19
673.237	176.81
673.428	154.28
673.619	154.28
673.809	146.09
674	258.73
674.191	215.72
674.382	146.09
674.573	139.94
674.764	144.04
674.954	275.11
675.145	92.84
675.336	139.94
675.527	195.24
675.717	191.14
675.908	144.04
676.099	162.47
676.289	217.77
676.48	160.42
676.671	223.91
676.861	90.79
677.052	258.73
677.243	201.38
677.433	197.29
677.624	326.31
677.814	215.72
678.005	180.9
678.195	305.83
678.386	121.51
678.576	217.77
678.767	103.08
678.957	182.95
679.148	305.83
679.338	285.35
679.529	291.49
679.719	197.29
679.909	264.87
680.1	246.44
680.29	309.93
680.481	133.8
680.671	316.07
680.861	225.96
681.052	262.82
681.242	164.52
681.432	246.44
681.622	295.59
681.813	133.8
682.003	295.59
682.193	221.86
682.383	273.06
682.573	281.25
682.764	223.91
682.954	334.5
683.144	301.73
683.334	260.77
683.524	291.49
683.714	307.88
683.904	248.49
684.094	234.15
684.284	221.86
684.474	338.6
684.664	348.84
684.854	219.82
685.044	260.77
685.234	295.59
685.424	275.11
685.614	248.49
685.804	395.94
685.994	268.97
686.184	268.97
686.374	318.12
686.564	340.65
686.753	283.3
686.943	242.34
687.133	273.06
687.323	225.96
687.513	287.4
687.702	260.77
687.892	221.86
688.082	242.34
688.272	303.78
688.461	322.21
688.651	381.6
688.841	324.26
689.03	207.53
689.22	311.97
689.41	338.6
689.599	250.53
689.789	164.52
689.979	389.8
690.168	295.59
690.358	240.29
690.547	254.63
690.737	209.58
690.926	332.45
691.116	324.26
691.305	389.8
691.495	346.79
691.684	268.97
691.874	185
692.063	242.34
692.252	432.8
692.442	318.12
692.631	215.72
692.82	238.25
693.01	268.97
693.199	189.1
693.388	289.45
693.578	283.3
693.767	311.97
693.956	268.97
694.146	187.05
694.335	225.96
694.524	228.01
694.713	238.25
694.902	236.2
695.092	203.43
695.281	295.59
695.47	275.11
695.659	221.86
695.848	221.86
696.037	221.86
696.226	277.16
696.415	232.1
696.604	338.6
696.793	283.3
696.982	244.39
697.171	330.41
697.36	170.66
697.549	221.86
697.738	164.52
697.927	240.29
698.116	164.52
698.305	273.06
698.494	326.31
698.683	148.14
698.872	367.27
699.061	201.38
699.25	242.34
699.438	273.06
699.627	234.15
699.816	316.07
700.005	187.05
700.193	109.22
700.382	287.4
700.571	322.21
700.76	254.63
700.948	299.69
701.137	295.59
701.326	361.13
701.514	146.09
701.703	271.01
701.892	209.58
702.08	357.03
702.269	225.96
702.457	234.15
702.646	207.53
702.834	195.24
703.023	242.34
703.212	205.48
703.4	201.38
703.589	182.95
703.777	252.58
703.965	197.29
704.154	119.46
704.342	113.32
704.531	191.14
704.719	195.24
704.907	287.4
705.096	154.28
705.284	174.76
705.472	301.73
705.661	230.06
705.849	285.35
706.037	279.21
706.226	213.67
706.414	199.34
706.602	115.37
706.79	258.73
706.979	207.53
707.167	223.91
707.355	185
707.543	277.16
707.731	242.34
707.919	228.01
708.107	287.4
708.296	123.56
708.484	205.48
708.672	246.44
708.86	234.15
709.048	275.11
709.236	176.81
709.424	254.63
709.612	277.16
709.8	101.03
709.988	232.1
710.176	293.54
710.364	299.69
710.551	209.58
710.739	223.91
710.927	250.53
711.115	201.38
711.303	225.96
711.491	320.17
711.679	166.57
711.866	242.34
712.054	144.04
712.242	330.41
712.43	299.69
712.617	205.48
712.805	297.64
712.993	125.61
713.181	107.18
713.368	301.73
713.556	228.01
713.744	215.72
713.931	379.56
714.119	281.25
714.306	240.29
714.494	199.34
714.682	314.02
714.869	125.61
715.057	207.53
715.244	187.05
715.432	144.04
715.619	260.77
715.807	266.92
715.994	203.43
716.182	213.67
716.369	260.77
716.556	268.97
716.744	80.55
716.931	76.46
717.119	185
717.306	246.44
717.493	361.13
717.681	223.91
717.868	185
718.055	303.78
718.242	223.91
718.43	277.16
718.617	389.8
718.804	277.16
718.991	242.34
719.179	268.97
719.366	246.44
719.553	314.02
719.74	271.01
719.927	217.77
720.114	240.29
720.301	234.15
720.488	205.48
720.676	164.52
720.863	383.65
721.05	311.97
721.237	293.54
721.424	324.26
721.611	283.3
721.798	119.46
721.985	205.48
722.172	230.06
722.358	297.64
722.545	326.31
722.732	264.87
722.919	367.27
723.106	328.36
723.293	225.96
723.48	281.25
723.667	215.72
723.853	334.5
724.04	213.67
724.227	361.13
724.414	238.25
724.6	273.06
724.787	397.99
724.974	436.9
725.161	326.31
725.347	209.58
725.534	336.55
725.72	281.25
725.907	268.97
726.094	326.31
726.28	242.34
726.467	268.97
726.653	228.01
726.84	404.13
727.027	445.09
727.213	234.15
727.4	342.69
727.586	281.25
727.773	234.15
727.959	305.83
728.145	289.45
728.332	316.07
728.518	262.82
728.705	291.49
728.891	254.63
729.077	305.83
729.264	209.58
729.45	264.87
729.636	314.02
729.823	293.54
730.009	342.69
730.195	299.69
730.382	385.7
730.568	217.77
730.754	332.45
730.94	297.64
731.126	320.17
731.313	354.98
731.499	277.16
731.685	357.03
731.871	258.73
732.057	365.22
732.243	397.99
732.429	342.69
732.615	367.27
732.801	344.74
732.987	285.35
733.173	326.31
733.359	273.06
733.545	357.03
733.731	334.5
733.917	348.84
734.103	344.74
734.289	365.22
734.475	295.59
734.661	412.32
734.847	256.68
735.033	336.55
735.219	344.74
735.404	234.15
735.59	303.78
735.776	297.64
735.962	295.59
736.148	416.42
736.333	363.17
736.519	295.59
736.705	350.89
736.89	277.16
737.076	293.54
737.262	309.93
737.447	250.53
737.633	369.32
737.819	383.65
738.004	236.2
738.19	363.17
738.375	273.06
738.561	416.42
738.747	408.23
738.932	236.2
739.118	430.76
739.303	305.83
739.489	422.56
739.674	258.73
739.859	266.92
740.045	320.17
740.23	293.54
740.416	201.38
740.601	412.32
740.786	373.41
740.972	314.02
741.157	264.87
741.342	178.86
741.528	221.86
741.713	395.94
741.898	289.45
742.084	297.64
742.269	324.26
742.454	414.37
742.639	322.21
742.824	363.17
743.01	373.41
743.195	453.28
743.38	357.03
743.565	217.77
743.75	316.07
743.935	404.13
744.12	318.12
744.305	320.17
744.49	273.06
744.675	320.17
744.86	330.41
745.045	338.6
745.23	314.02
745.415	244.39
745.6	412.32
745.785	283.3
745.97	375.46
746.155	346.79
746.34	311.97
746.525	305.83
746.71	367.27
746.895	258.73
747.079	246.44
747.264	295.59
747.449	393.89
747.634	338.6
747.819	377.51
748.003	281.25
748.188	230.06
748.373	293.54
748.557	326.31
748.742	318.12
748.927	281.25
749.111	336.55
749.296	275.11
749.481	375.46
749.665	283.3
749.85	291.49
750.034	223.91
750.219	221.86
750.404	318.12
750.588	303.78
750.773	131.75
750.957	207.53
751.141	316.07
751.326	293.54
751.51	191.14
751.695	289.45
751.879	205.48
752.064	383.65
752.248	326.31
752.432	322.21
752.617	369.32
752.801	357.03
752.985	232.1
753.17	287.4
753.354	281.25
753.538	287.4
753.722	223.91
753.907	266.92
754.091	113.32
754.275	307.88
754.459	211.62
754.643	139.94
754.828	213.67
755.012	256.68
755.196	195.24
755.38	295.59
755.564	148.14
755.748	164.52
755.932	363.17
756.116	287.4
756.3	275.11
756.484	166.57
756.668	215.72
756.852	60.07
757.036	221.86
757.22	242.34
757.404	135.85
757.588	230.06
757.772	246.44
757.956	160.42
758.14	311.97
758.323	119.46
758.507	309.93
758.691	148.14
758.875	250.53
759.059	283.3
759.242	170.66
759.426	201.38
759.61	246.44
759.794	166.57
759.977	303.78
760.161	438.95
760.345	291.49
760.528	299.69
760.712	238.25
760.895	275.11
761.079	209.58
761.263	105.13
761.446	129.7
761.63	217.77
761.813	260.77
761.997	107.18
762.18	203.43
762.364	254.63
762.547	70.31
762.731	137.9
762.914	103.08
763.098	248.49
763.281	119.46
763.464	103.08
763.648	174.76
763.831	109.22
764.015	76.46
764.198	193.19
764.381	162.47
764.564	170.66
764.748	172.71
764.931	213.67
765.114	144.04
765.297	170.66
765.481	127.66
765.664	127.66
765.847	82.6
766.03	193.19
766.213	72.36
766.397	125.61
766.58	60.07
766.763	156.33
766.946	109.22
767.129	115.37
767.312	41.64
767.495	133.8
767.678	125.61
767.861	121.51
768.044	78.51
768.227	82.6
768.41	115.37
768.593	166.57
768.776	160.42
768.959	45.74
769.142	279.21
769.324	193.19
769.507	72.36
769.69	88.75
769.873	72.36
770.056	289.45
770.239	144.04
770.421	178.86
770.604	191.14
770.787	90.79
770.97	127.66
771.152	27.31
771.335	103.08
771.518	19.11
771.7	205.48
771.883	289.45
772.066	45.74
772.248	197.29
772.431	240.29
772.613	127.66
772.796	72.36
772.978	139.94
773.161	185
773.343	53.93
773.526	70.31
773.708	4.78
773.891	-7.51
774.073	82.6
774.256	129.7
774.438	236.2
774.621	70.31
774.803	94.89
774.985	78.51
775.168	150.18
775.35	55.98
775.532	111.27
775.715	135.85
775.897	148.14
776.079	103.08
776.261	133.8
776.444	74.41
776.626	117.42
776.808	105.13
776.99	-1.37
777.173	125.61
777.355	119.46
777.537	78.51
777.719	43.69
777.901	66.22
778.083	43.69
778.265	37.55
778.447	201.38
778.629	47.79
778.811	119.46
778.993	156.33
779.175	141.99
779.357	150.18
779.539	8.87
779.721	58.03
779.903	82.6
780.085	78.51
780.267	123.56
780.449	60.07
780.631	84.65
780.812	162.47
780.994	6.83
781.176	45.74
781.358	53.93
781.54	8.87
781.721	92.84
781.903	193.19
782.085	62.12
782.267	191.14
782.448	-11.61
782.63	51.88
782.812	133.8
782.993	125.61
783.175	72.36
783.357	45.74
783.538	119.46
783.72	45.74
783.901	109.22
784.083	43.69
784.264	146.09
784.446	-64.85
784.627	-13.65
784.809	158.38
784.99	60.07
785.172	185
785.353	105.13
785.535	80.55
785.716	88.75
785.897	-48.47
786.079	127.66
786.26	90.79
786.441	84.65
786.623	-60.76
786.804	-75.09
786.985	72.36
787.167	76.46
787.348	31.4
787.529	43.69
787.71	152.23
787.891	70.31
788.073	35.5
788.254	-32.08
788.435	156.33
788.616	43.69
788.797	70.31
788.978	43.69
789.159	47.79
789.34	76.46
789.522	25.26
789.703	15.02
789.884	66.22
790.065	96.94
790.246	115.37
790.427	17.07
790.607	133.8
790.788	127.66
790.969	25.26
791.15	62.12
791.331	-11.61
791.512	17.07
791.693	-79.19
791.874	-3.41
792.054	287.4
792.235	176.81
792.416	4.78
792.597	78.51
792.778	45.74
792.958	43.69
793.139	41.64
793.32	6.83
793.5	15.02
793.681	187.05
793.862	156.33
794.042	25.26
794.223	-50.52
794.404	78.51
794.584	-15.7
794.765	25.26
794.945	60.07
795.126	98.99
795.306	27.31
795.487	60.07
795.667	29.35
795.848	90.79
796.028	127.66
796.209	31.4
796.389	119.46
796.57	25.26
796.75	-71
796.93	23.21
797.111	8.87
797.291	21.16
797.471	111.27
797.652	-3.41
797.832	-17.75
798.012	156.33
798.192	2.73
798.373	-30.04
798.553	10.92
798.733	-5.46
798.913	-34.13
799.093	39.59
799.274	10.92
799.454	125.61
799.634	19.11
799.814	109.22
799.994	113.32
800.174	49.83
800.354	70.31
800.534	-77.14
800.714	72.36
800.894	-13.65
801.074	25.26
801.254	-44.37
801.434	103.08
801.614	-27.99
801.794	-48.47
801.974	1700.5
802.154	47.79
802.334	174.76
802.514	-36.18
802.693	62.12
802.873	72.36
803.053	107.18
803.233	33.45
803.413	25.26
803.592	-3.41
803.772	-58.71
803.952	-7.51
804.131	2.73
804.311	80.55
804.491	92.84
804.67	21.16
804.85	-62.8
805.03	41.64
805.209	205.48
805.389	-1.37
805.568	4.78
805.748	64.17
805.928	88.75
806.107	76.46
806.287	86.7
806.466	47.79
806.646	47.79
806.825	2.73
807.004	-32.08
807.184	80.55
807.363	66.22
807.543	29.35
807.722	-62.8
807.901	90.79
808.081	51.88
808.26	-161.11
808.439	74.41
808.619	12.97
808.798	-40.28
808.977	33.45
809.156	21.16
809.336	-15.7
809.515	92.84
809.694	-34.13
809.873	-68.95
810.052	88.75
810.231	123.56
810.411	-19.8
810.59	109.22
810.769	53.93
810.948	17.07
811.127	-79.19
811.306	-30.04
811.485	2.73
811.664	119.46
811.843	10.92
812.022	19.11
812.201	17.07
812.38	-27.99
812.559	-32.08
812.737	131.75
812.916	-38.23
813.095	-36.18
813.274	19.11
813.453	0.68
813.632	113.32
813.811	101.03
813.989	-30.04
814.168	-30.04
814.347	-52.56
814.526	-27.99
814.704	182.95
814.883	90.79
815.062	-32.08
815.24	88.75
815.419	-66.9
815.598	62.12
815.776	-50.52
815.955	-30.04
816.133	-97.62
816.312	-25.94
816.49	-44.37
816.669	39.59
816.847	12.97
817.026	66.22
817.204	2.73
817.383	-64.85
817.561	-66.9
817.74	76.46
817.918	37.55
818.097	-40.28
818.275	-9.56
818.453	39.59
818.632	88.75
818.81	-68.95
818.988	6.83
819.167	-27.99
819.345	2.73
819.523	-58.71
819.701	27.31
819.879	51.88
820.058	86.7
820.236	23.21
820.414	62.12
820.592	53.93
820.77	29.35
820.948	80.55
821.127	35.5
821.305	-7.51
821.483	-27.99
821.661	37.55
821.839	51.88
822.017	0.68
822.195	-25.94
822.373	125.61
822.551	-23.89
822.729	88.75
822.907	8.87
823.085	74.41
823.262	41.64
823.44	-89.43
823.618	-42.32
823.796	-17.75
823.974	-19.8
824.152	-50.52
824.329	12.97
824.507	76.46
824.685	39.59
824.863	19.11
825.04	-44.37
825.218	51.88
825.396	53.93
825.574	17.07
825.751	90.79
825.929	72.36
826.107	-77.14
826.284	-11.61
826.462	162.47
826.639	-68.95
826.817	-85.33
826.994	-19.8
827.172	-48.47
827.349	174.76
827.527	21.16
827.704	15.02
827.882	-17.75
828.059	47.79
828.237	-44.37
828.414	125.61
828.591	-134.48
828.769	72.36
828.946	-19.8
829.124	82.6
829.301	131.75
829.478	-87.38
829.655	-9.56
829.833	4.78
830.01	-109.91
830.187	78.51
830.364	4.78
830.542	45.74
830.719	133.8
830.896	-15.7
831.073	35.5
831.25	6.83
831.427	15.02
831.604	80.55
831.782	-107.86
831.959	94.89
832.136	15.02
832.313	80.55
832.49	70.31
832.667	19.11
832.844	-30.04
833.021	119.46
833.198	31.4
833.374	-15.7
833.551	-19.8
833.728	17.07
833.905	4.78
834.082	-154.96
834.259	19.11
834.436	101.03
834.612	-79.19
834.789	133.8
834.966	49.83
835.143	-25.94
835.319	-89.43
835.496	78.51
835.673	35.5
835.85	37.55
836.026	47.79
836.203	68.27
836.38	-56.66
836.556	27.31
836.733	-40.28
836.909	135.85
837.086	-36.18
837.262	-105.81
837.439	-19.8
837.616	10.92
837.792	-48.47
837.968	27.31
838.145	-107.86
838.321	12.97
838.498	33.45
838.674	82.6
838.851	31.4
839.027	-38.23
839.203	35.5
839.38	64.17
839.556	-81.24
839.732	70.31
839.909	-36.18
840.085	80.55
840.261	-87.38
840.437	80.55
840.614	-25.94
840.79	41.64
840.966	17.07
841.142	60.07
841.318	17.07
841.494	72.36
841.671	92.84
841.847	-56.66
842.023	-46.42
842.199	25.26
842.375	82.6
842.551	-128.34
842.727	-64.85
842.903	144.04
843.079	-91.48
843.255	148.14
843.431	41.64
843.607	62.12
843.783	-73.04
843.959	62.12
844.134	4.78
844.31	86.7
844.486	-60.76
844.662	-56.66
844.838	80.55
845.013	41.64
845.189	103.08
845.365	35.5
845.541	29.35
845.716	19.11
845.892	115.37
846.068	-62.8
846.244	-58.71
846.419	53.93
846.595	-50.52
846.77	-95.57
846.946	47.79
847.122	25.26
847.297	-32.08
847.473	60.07
847.648	-118.1
847.824	6.83
847.999	-58.71
848.175	-1.37
848.35	29.35
848.526	86.7
848.701	-1.37
848.876	47.79
849.052	92.84
849.227	8.87
849.403	-7.51
849.578	-54.61
849.753	66.22
849.929	8.87
850.104	-89.43
850.279	0.68
850.454	-1.37
850.63	109.22
850.805	12.97
850.98	-101.72
851.155	10.92
851.33	-11.61
851.505	19.11
851.681	103.08
851.856	-109.91
852.031	21.16
852.206	-17.75
852.381	-114
852.556	15.02
852.731	19.11
852.906	60.07
853.081	21.16
853.256	96.94
853.431	-9.56
853.606	-9.56
853.781	4.78
853.956	-42.32
854.131	-32.08
854.305	-42.32
854.48	-38.23
854.655	-44.37
854.83	-11.61
855.005	-34.13
855.18	15.02
855.354	17.07
855.529	84.65
855.704	-105.81
855.879	55.98
856.053	-40.28
856.228	10.92
856.403	-95.57
856.577	-19.8
856.752	-64.85
856.926	45.74
857.101	47.79
857.276	-81.24
857.45	64.17
857.625	21.16
857.799	23.21
857.974	-1.37
858.148	-103.76
858.323	2.73
858.497	-38.23
858.672	-91.48
858.846	-75.09
859.02	25.26
859.195	-13.65
859.369	12.97
859.543	25.26
859.718	25.26
859.892	53.93
860.066	-13.65
860.241	-60.76
860.415	8.87
860.589	35.5
860.763	2.73
860.938	-134.48
861.112	53.93
861.286	-13.65
861.46	-23.89
861.634	-7.51
861.808	60.07
861.982	8.87
862.157	-93.52
862.331	-11.61
862.505	-75.09
862.679	-107.86
862.853	-62.8
863.027	2.73
863.201	80.55
863.375	-30.04
863.549	8.87
863.722	19.11
863.896	58.03
864.07	-68.95
864.244	-27.99
864.418	62.12
864.592	-7.51
864.766	25.26
864.939	90.79
865.113	74.41
865.287	82.6
865.461	-58.71
865.634	62.12
865.808	58.03
865.982	-40.28
866.156	-42.32
866.329	-36.18
866.503	10.92
866.676	-3.41
866.85	86.7
867.024	25.26
867.197	125.61
867.371	101.03
867.544	70.31
867.718	-81.24
867.891	101.03
868.065	-103.76
868.238	19.11
868.412	78.51
868.585	-19.8
868.759	-21.85
868.932	-27.99
869.105	-142.68
869.279	31.4
869.452	-68.95
869.625	41.64
869.799	-60.76
869.972	27.31
870.145	-3.41
870.319	33.45
870.492	-95.57
870.665	-3.41
870.838	-48.47
871.011	-177.49
871.185	-48.47
871.358	8.87
871.531	15.02
871.704	-75.09
871.877	19.11
872.05	29.35
872.223	-44.37
872.396	4.78
872.569	33.45
872.742	-136.53
872.915	47.79
873.088	-73.04
873.261	-30.04
873.434	51.88
873.607	49.83
873.78	119.46
873.953	-77.14
874.126	-1.37
874.299	-13.65
874.471	-36.18
874.644	78.51
874.817	74.41
874.99	182.95
875.163	-50.52
875.335	60.07
875.508	-7.51
875.681	96.94
875.853	-21.85
876.026	29.35
876.199	88.75
876.371	0.68
876.544	15.02
876.717	-79.19
876.889	-77.14
877.062	35.5
877.234	-66.9
877.407	-11.61
877.579	-5.46
877.752	-36.18
877.924	-1.37
878.097	66.22
878.269	62.12
878.442	15.02
878.614	68.27
878.786	21.16
878.959	-60.76
879.131	23.21
879.303	-75.09
879.476	-19.8
879.648	27.31
879.82	10.92
879.993	19.11
880.165	-19.8
880.337	-60.76
880.509	74.41
880.681	-81.24
880.854	-77.14
881.026	109.22
881.198	185
881.37	-19.8
881.542	25.26
881.714	-13.65
881.886	29.35
882.058	-34.13
882.23	78.51
882.402	-48.47
882.574	37.55
882.746	47.79
882.918	170.66
883.09	49.83
883.262	-5.46
883.434	-3.41
883.606	-122.2
883.778	-79.19
883.95	180.9
884.122	-27.99
884.293	78.51
884.465	-27.99
884.637	68.27
884.809	-19.8
884.98	-42.32
885.152	41.64
885.324	49.83
885.496	-32.08
885.667	10.92
885.839	-9.56
886.011	35.5
886.182	84.65
886.354	84.65
886.525	113.32
886.697	60.07
886.869	-79.19
887.04	-48.47
887.212	51.88
887.383	189.1
887.555	25.26
887.726	-19.8
887.897	-89.43
888.069	-44.37
888.24	109.22
888.412	-25.94
888.583	-11.61
888.754	60.07
888.926	-136.53
889.097	-17.75
889.268	-32.08
889.44	62.12
889.611	0.68
889.782	-71
889.953	-64.85
890.125	109.22
890.296	-48.47
890.467	0.68
890.638	-36.18
890.809	-13.65
890.98	-105.81
891.151	15.02
891.323	76.46
891.494	47.79
891.665	-46.42
891.836	-23.89
892.007	-7.51
892.178	4.78
892.349	-13.65
892.52	-85.33
892.691	0.68
892.862	-79.19
893.032	-93.52
893.203	-42.32
893.374	10.92
893.545	129.7
893.716	-75.09
893.887	41.64
894.057	-79.19
894.228	-34.13
894.399	-38.23
894.57	35.5
894.74	-48.47
894.911	27.31
895.082	-25.94
895.253	-38.23
895.423	31.4
895.594	51.88
895.764	8.87
895.935	-71
896.106	-9.56
896.276	-58.71
896.447	17.07
896.617	-25.94
896.788	-101.72
896.958	-42.32
897.129	-30.04
897.299	-77.14
897.47	137.9
897.64	12.97
897.81	6.83
897.981	53.93
898.151	-64.85
898.322	4.78
898.492	74.41
898.662	-116.05
898.832	0.68
899.003	-46.42
899.173	-11.61
899.343	10.92
899.513	12.97
