Data from USB4F104151__43__11-26-39-592.txt Node

Date: Wed Feb 26 11:26:39 EST 2025
User: louis
Spectrometer: USB4F10415
Trigger mode: 4
Integration Time (sec): 1.000000E-1
Scans to average: 1
Electric dark correction enabled: true
Nonlinearity correction enabled: false
Boxcar width: 0
XAxis mode: Wavelengths
Number of Pixels in Spectrum: 3648
>>>>>Begin Spectral Data<<<<<
178.204	-404.3
178.424	-404.3
178.644	-404.3
178.864	-385.87
179.084	-322.38
179.304	3.24
179.524	13.48
179.744	-31.57
179.964	52.39
180.184	70.83
180.404	-45.91
180.624	-45.91
180.844	-70.48
181.064	-62.29
181.283	52.39
181.503	50.35
181.723	13.48
181.943	-29.52
182.163	130.22
182.383	5.29
182.602	60.59
182.822	113.83
183.042	130.22
183.262	-35.67
183.482	23.72
183.701	13.48
183.921	56.49
184.141	-7
184.361	52.39
184.58	56.49
184.8	99.5
185.02	15.53
185.239	46.25
185.459	58.54
185.679	165.03
185.898	-37.72
186.118	52.39
186.338	152.74
186.557	171.18
186.777	-52.05
186.997	-52.05
187.216	-11.09
187.436	191.66
187.655	95.4
187.875	72.87
188.095	54.44
188.314	58.54
188.534	138.41
188.753	31.91
188.973	117.93
189.192	183.46
189.412	64.68
189.631	-11.09
189.851	81.07
190.07	134.31
190.29	-37.72
190.509	31.91
190.729	13.48
190.948	193.7
191.168	289.96
191.387	93.35
191.607	56.49
191.826	9.39
192.045	91.31
192.265	19.63
192.484	33.96
192.704	87.21
192.923	-47.96
193.142	220.33
193.362	11.43
193.581	126.12
193.8	142.5
194.02	83.11
194.239	122.02
194.458	70.83
194.678	-41.81
194.897	50.35
195.116	93.35
195.335	36.01
195.555	81.07
195.774	56.49
195.993	109.74
196.212	132.26
196.432	3.24
196.651	17.58
196.87	7.34
197.089	244.9
197.308	76.97
197.528	54.44
197.747	-9.05
197.966	87.21
198.185	191.66
198.404	50.35
198.623	146.6
198.842	83.11
199.062	99.5
199.281	191.66
199.5	46.25
199.719	117.93
199.938	13.48
200.157	179.37
200.376	160.94
200.595	68.78
200.814	17.58
201.033	42.15
201.252	169.13
201.471	23.72
201.69	130.22
201.909	19.63
202.128	126.12
202.347	130.22
202.566	27.82
202.785	-9.05
203.004	-82.77
203.223	191.66
203.442	5.29
203.661	-0.85
203.879	136.36
204.098	173.22
204.317	64.68
204.536	40.11
204.755	105.64
204.974	126.12
205.193	36.01
205.411	160.94
205.63	150.7
205.849	79.02
206.068	-66.39
206.287	19.63
206.505	144.55
206.724	74.92
206.943	-56.15
207.162	-31.57
207.381	85.16
207.599	-2.9
207.818	70.83
208.037	-47.96
208.255	36.01
208.474	124.07
208.693	122.02
208.911	83.11
209.13	134.31
209.349	93.35
209.567	23.72
209.786	130.22
210.005	119.98
210.223	-15.19
210.442	-115.54
210.661	89.26
210.879	64.68
211.098	48.3
211.316	1.19
211.535	76.97
211.753	87.21
211.972	50.35
212.191	-19.29
212.409	36.01
212.628	87.21
212.846	1.19
213.065	-4.95
213.283	140.46
213.502	81.07
213.72	101.55
213.938	107.69
214.157	-33.62
214.375	146.6
214.594	31.91
214.812	111.78
215.031	42.15
215.249	27.82
215.467	91.31
215.686	27.82
215.904	103.59
216.122	81.07
216.341	216.23
216.559	74.92
216.778	201.9
216.996	48.3
217.214	19.63
217.432	7.34
217.651	-117.59
217.869	103.59
218.087	-0.85
218.306	13.48
218.524	56.49
218.742	46.25
218.96	132.26
219.179	23.72
219.397	70.83
219.615	179.37
219.833	138.41
220.051	-52.05
220.27	79.02
220.488	72.87
220.706	89.26
220.924	99.5
221.142	19.63
221.36	66.73
221.578	25.77
221.796	-4.95
222.015	85.16
222.233	132.26
222.451	173.22
222.669	-7
222.887	160.94
223.105	40.11
223.323	56.49
223.541	66.73
223.759	93.35
223.977	50.35
224.195	177.32
224.413	81.07
224.631	85.16
224.849	-0.85
225.067	150.7
225.285	29.87
225.503	119.98
225.721	-23.38
225.939	68.78
226.157	54.44
226.375	212.14
226.592	13.48
226.81	70.83
227.028	128.17
227.246	93.35
227.464	107.69
227.682	48.3
227.9	60.59
228.117	54.44
228.335	68.78
228.553	-4.95
228.771	70.83
228.989	83.11
229.206	144.55
229.424	33.96
229.642	3.24
229.86	31.91
230.077	68.78
230.295	5.29
230.513	130.22
230.731	40.11
230.948	249
231.166	216.23
231.384	48.3
231.601	-0.85
231.819	181.42
232.037	58.54
232.254	36.01
232.472	-2.9
232.689	66.73
232.907	138.41
233.125	60.59
233.342	1.19
233.56	-33.62
233.777	36.01
233.995	117.93
234.213	152.74
234.43	122.02
234.648	72.87
234.865	60.59
235.083	56.49
235.3	89.26
235.518	85.16
235.735	177.32
235.953	107.69
236.17	38.06
236.388	64.68
236.605	50.35
236.822	126.12
237.04	27.82
237.257	76.97
237.475	-31.57
237.692	7.34
237.909	56.49
238.127	7.34
238.344	60.59
238.562	-4.95
238.779	-25.43
238.996	-4.95
239.214	33.96
239.431	150.7
239.648	-47.96
239.865	113.83
240.083	183.46
240.3	3.24
240.517	36.01
240.735	19.63
240.952	130.22
241.169	74.92
241.386	99.5
241.603	64.68
241.821	31.91
242.038	167.08
242.255	93.35
242.472	-25.43
242.689	105.64
242.907	66.73
243.124	38.06
243.341	36.01
243.558	-4.95
243.775	-52.05
243.992	-56.15
244.209	93.35
244.426	193.7
244.643	99.5
244.86	46.25
245.078	13.48
245.295	72.87
245.512	27.82
245.729	27.82
245.946	70.83
246.163	33.96
246.38	66.73
246.597	1.19
246.814	64.68
247.031	103.59
247.248	128.17
247.464	138.41
247.681	40.11
247.898	25.77
248.115	150.7
248.332	-31.57
248.549	158.89
248.766	224.42
248.983	62.63
249.2	68.78
249.417	165.03
249.633	36.01
249.85	48.3
250.067	40.11
250.284	66.73
250.501	81.07
250.717	144.55
250.934	-17.24
251.151	70.83
251.368	3.24
251.585	42.15
251.801	64.68
252.018	-11.09
252.235	52.39
252.451	33.96
252.668	13.48
252.885	113.83
253.102	97.45
253.318	31.91
253.535	-21.33
253.752	56.49
253.968	-66.39
254.185	-31.57
254.401	52.39
254.618	-4.95
254.835	48.3
255.051	144.55
255.268	97.45
255.484	31.91
255.701	64.68
255.917	85.16
256.134	-9.05
256.351	64.68
256.567	-54.1
256.784	48.3
257	-41.81
257.217	56.49
257.433	97.45
257.65	62.63
257.866	93.35
258.082	-29.52
258.299	62.63
258.515	48.3
258.732	-27.48
258.948	17.58
259.165	64.68
259.381	-47.96
259.597	101.55
259.814	38.06
260.03	-2.9
260.246	33.96
260.463	46.25
260.679	197.8
260.895	50.35
261.112	97.45
261.328	17.58
261.544	-47.96
261.761	205.99
261.977	27.82
262.193	-45.91
262.409	173.22
262.626	107.69
262.842	68.78
263.058	70.83
263.274	81.07
263.49	85.16
263.707	105.64
263.923	105.64
264.139	-62.29
264.355	46.25
264.571	187.56
264.787	79.02
265.004	187.56
265.22	132.26
265.436	-23.38
265.652	-2.9
265.868	76.97
266.084	-58.2
266.3	-17.24
266.516	-43.86
266.732	76.97
266.948	36.01
267.164	62.63
267.38	158.89
267.596	56.49
267.812	136.36
268.028	52.39
268.244	105.64
268.46	95.4
268.676	48.3
268.892	93.35
269.108	62.63
269.324	-33.62
269.54	7.34
269.756	138.41
269.972	1.19
270.188	50.35
270.403	62.63
270.619	13.48
270.835	132.26
271.051	31.91
271.267	27.82
271.483	-2.9
271.698	83.11
271.914	72.87
272.13	103.59
272.346	33.96
272.562	76.97
272.777	146.6
272.993	21.67
273.209	21.67
273.425	87.21
273.64	-60.24
273.856	54.44
274.072	-45.91
274.287	-2.9
274.503	103.59
274.719	109.74
274.934	5.29
275.15	-78.68
275.366	15.53
275.581	-37.72
275.797	76.97
276.012	50.35
276.228	74.92
276.444	66.73
276.659	56.49
276.875	33.96
277.09	64.68
277.306	15.53
277.521	103.59
277.737	68.78
277.952	119.98
278.168	93.35
278.383	89.26
278.599	89.26
278.814	122.02
279.03	-17.24
279.245	122.02
279.461	130.22
279.676	103.59
279.892	-76.63
280.107	-0.85
280.322	-33.62
280.538	31.91
280.753	-0.85
280.969	107.69
281.184	-0.85
281.399	203.94
281.615	81.07
281.83	87.21
282.045	-62.29
282.26	74.92
282.476	42.15
282.691	87.21
282.906	85.16
283.122	72.87
283.337	9.39
283.552	64.68
283.767	23.72
283.983	81.07
284.198	68.78
284.413	117.93
284.628	-31.57
284.843	76.97
285.058	115.88
285.274	46.25
285.489	11.43
285.704	138.41
285.919	72.87
286.134	91.31
286.349	95.4
286.564	-25.43
286.779	165.03
286.995	72.87
287.21	-15.19
287.425	56.49
287.64	-11.09
287.855	-0.85
288.07	-70.48
288.285	97.45
288.5	101.55
288.715	62.63
288.93	-9.05
289.145	-15.19
289.36	58.54
289.575	-9.05
289.79	193.7
290.004	-58.2
290.219	81.07
290.434	-45.91
290.649	9.39
290.864	27.82
291.079	-37.72
291.294	109.74
291.509	103.59
291.724	62.63
291.938	-45.91
292.153	105.64
292.368	36.01
292.583	1.19
292.798	115.88
293.012	40.11
293.227	38.06
293.442	52.39
293.657	150.7
293.871	187.56
294.086	31.91
294.301	107.69
294.516	126.12
294.73	76.97
294.945	-70.48
295.16	130.22
295.374	138.41
295.589	203.94
295.804	70.83
296.018	103.59
296.233	113.83
296.447	97.45
296.662	46.25
296.877	148.65
297.091	83.11
297.306	-4.95
297.52	42.15
297.735	52.39
297.949	68.78
298.164	85.16
298.378	148.65
298.593	-33.62
298.807	-4.95
299.022	93.35
299.236	201.9
299.451	1.19
299.665	113.83
299.88	17.58
300.094	109.74
300.309	31.91
300.523	64.68
300.737	31.91
300.952	25.77
301.166	21.67
301.381	7.34
301.595	-9.05
301.809	60.59
302.024	46.25
302.238	-62.29
302.452	115.88
302.667	23.72
302.881	103.59
303.095	197.8
303.309	89.26
303.524	-2.9
303.738	-58.2
303.952	-62.29
304.166	99.5
304.381	-95.06
304.595	191.66
304.809	-35.67
305.023	72.87
305.237	87.21
305.452	56.49
305.666	40.11
305.88	142.5
306.094	95.4
306.308	103.59
306.522	144.55
306.736	54.44
306.95	130.22
307.164	-0.85
307.379	62.63
307.593	220.33
307.807	148.65
308.021	99.5
308.235	128.17
308.449	-23.38
308.663	42.15
308.877	214.18
309.091	48.3
309.305	83.11
309.519	-13.14
309.733	167.08
309.947	-2.9
310.161	113.83
310.374	109.74
310.588	156.84
310.802	-58.2
311.016	-4.95
311.23	126.12
311.444	-35.67
311.658	60.59
311.872	146.6
312.085	124.07
312.299	91.31
312.513	197.8
312.727	66.73
312.941	-78.68
313.154	54.44
313.368	132.26
313.582	48.3
313.796	83.11
314.009	52.39
314.223	216.23
314.437	72.87
314.651	124.07
314.864	111.78
315.078	76.97
315.292	-50
315.505	-4.95
315.719	60.59
315.933	128.17
316.146	-11.09
316.36	3.24
316.573	138.41
316.787	74.92
317.001	167.08
317.214	-13.14
317.428	31.91
317.641	7.34
317.855	95.4
318.068	23.72
318.282	40.11
318.495	201.9
318.709	130.22
318.922	15.53
319.136	199.85
319.349	130.22
319.563	17.58
319.776	70.83
319.99	-66.39
320.203	93.35
320.417	15.53
320.63	130.22
320.843	173.22
321.057	103.59
321.27	7.34
321.483	142.5
321.697	177.32
321.91	15.53
322.124	19.63
322.337	62.63
322.55	-33.62
322.763	68.78
322.977	79.02
323.19	9.39
323.403	-13.14
323.617	177.32
323.83	156.84
324.043	-4.95
324.256	72.87
324.469	-31.57
324.683	232.62
324.896	33.96
325.109	56.49
325.322	1.19
325.535	93.35
325.748	81.07
325.962	-11.09
326.175	66.73
326.388	97.45
326.601	134.31
326.814	138.41
327.027	85.16
327.24	126.12
327.453	23.72
327.666	93.35
327.879	142.5
328.092	38.06
328.305	46.25
328.518	-0.85
328.731	-29.52
328.944	-58.2
329.157	148.65
329.37	89.26
329.583	146.6
329.796	156.84
330.009	-15.19
330.222	50.35
330.435	130.22
330.648	19.63
330.861	72.87
331.073	72.87
331.286	169.13
331.499	40.11
331.712	48.3
331.925	54.44
332.138	11.43
332.35	122.02
332.563	25.77
332.776	128.17
332.989	21.67
333.202	-11.09
333.414	17.58
333.627	56.49
333.84	33.96
334.053	111.78
334.265	33.96
334.478	-33.62
334.691	29.87
334.903	60.59
335.116	1.19
335.329	109.74
335.541	148.65
335.754	165.03
335.966	13.48
336.179	64.68
336.392	46.25
336.604	11.43
336.817	189.61
337.029	-2.9
337.242	44.2
337.454	105.64
337.667	36.01
337.88	220.33
338.092	68.78
338.305	132.26
338.517	48.3
338.729	111.78
338.942	134.31
339.154	-93.01
339.367	-33.62
339.579	89.26
339.792	-76.63
340.004	113.83
340.217	46.25
340.429	115.88
340.641	-52.05
340.854	9.39
341.066	11.43
341.278	91.31
341.491	220.33
341.703	9.39
341.915	25.77
342.128	54.44
342.34	56.49
342.552	-33.62
342.764	132.26
342.977	33.96
343.189	33.96
343.401	97.45
343.613	-66.39
343.826	109.74
344.038	-54.1
344.25	54.44
344.462	7.34
344.674	64.68
344.886	29.87
345.099	81.07
345.311	89.26
345.523	13.48
345.735	-111.44
345.947	81.07
346.159	64.68
346.371	38.06
346.583	42.15
346.795	201.9
347.007	52.39
347.219	58.54
347.431	19.63
347.643	150.7
347.855	29.87
348.067	150.7
348.279	7.34
348.491	122.02
348.703	85.16
348.915	91.31
349.127	-7
349.339	64.68
349.551	50.35
349.763	134.31
349.975	-29.52
350.187	93.35
350.399	111.78
350.61	89.26
350.822	62.63
351.034	111.78
351.246	91.31
351.458	103.59
351.669	87.21
351.881	68.78
352.093	97.45
352.305	183.46
352.517	46.25
352.728	124.07
352.94	76.97
353.152	144.55
353.363	36.01
353.575	76.97
353.787	195.75
353.999	27.82
354.21	187.56
354.422	38.06
354.633	54.44
354.845	109.74
355.057	1.19
355.268	27.82
355.48	17.58
355.692	-43.86
355.903	66.73
356.115	-21.33
356.326	-45.91
356.538	152.74
356.749	144.55
356.961	222.38
357.172	93.35
357.384	19.63
357.595	136.36
357.807	5.29
358.018	11.43
358.23	70.83
358.441	126.12
358.653	175.27
358.864	36.01
359.075	-29.52
359.287	126.12
359.498	117.93
359.709	199.85
359.921	27.82
360.132	113.83
360.344	87.21
360.555	56.49
360.766	52.39
360.977	-2.9
361.189	199.85
361.4	36.01
361.611	138.41
361.823	136.36
362.034	62.63
362.245	-72.53
362.456	113.83
362.667	83.11
362.879	17.58
363.09	74.92
363.301	95.4
363.512	93.35
363.723	-13.14
363.935	99.5
364.146	99.5
364.357	70.83
364.568	128.17
364.779	-50
364.99	152.74
365.201	-0.85
365.412	119.98
365.623	-54.1
365.834	140.46
366.045	5.29
366.256	76.97
366.467	64.68
366.678	48.3
366.889	31.91
367.1	48.3
367.311	144.55
367.522	52.39
367.733	199.85
367.944	52.39
368.155	48.3
368.366	136.36
368.577	122.02
368.788	115.88
368.999	-2.9
369.209	89.26
369.42	255.14
369.631	285.86
369.842	91.31
370.053	44.2
370.264	158.89
370.474	-41.81
370.685	95.4
370.896	91.31
371.107	85.16
371.317	66.73
371.528	60.59
371.739	160.94
371.95	87.21
372.16	89.26
372.371	-4.95
372.582	13.48
372.792	44.2
373.003	119.98
373.214	38.06
373.424	183.46
373.635	-82.77
373.846	169.13
374.056	109.74
374.267	136.36
374.477	81.07
374.688	29.87
374.898	44.2
375.109	81.07
375.319	62.63
375.53	87.21
375.74	101.55
375.951	107.69
376.161	128.17
376.372	119.98
376.582	13.48
376.793	68.78
377.003	29.87
377.214	1.19
377.424	64.68
377.635	50.35
377.845	-23.38
378.055	197.8
378.266	-84.82
378.476	66.73
378.686	48.3
378.897	54.44
379.107	81.07
379.317	50.35
379.528	11.43
379.738	87.21
379.948	15.53
380.158	128.17
380.369	87.21
380.579	132.26
380.789	103.59
380.999	95.4
381.21	152.74
381.42	132.26
381.63	31.91
381.84	162.98
382.05	124.07
382.261	60.59
382.471	148.65
382.681	40.11
382.891	162.98
383.101	56.49
383.311	56.49
383.521	31.91
383.731	142.5
383.941	74.92
384.151	136.36
384.361	33.96
384.571	97.45
384.781	68.78
384.991	148.65
385.201	189.61
385.411	105.64
385.621	48.3
385.831	122.02
386.041	68.78
386.251	-31.57
386.461	195.75
386.671	25.77
386.881	136.36
387.091	13.48
387.301	189.61
387.511	60.59
387.72	81.07
387.93	132.26
388.14	-125.78
388.35	68.78
388.56	144.55
388.769	119.98
388.979	5.29
389.189	33.96
389.399	62.63
389.609	79.02
389.818	68.78
390.028	74.92
390.238	140.46
390.447	103.59
390.657	21.67
390.867	50.35
391.076	-58.2
391.286	101.55
391.496	-52.05
391.705	23.72
391.915	199.85
392.125	122.02
392.334	119.98
392.544	154.79
392.753	42.15
392.963	-15.19
393.172	44.2
393.382	-2.9
393.591	212.14
393.801	-41.81
394.01	162.98
394.22	11.43
394.429	103.59
394.639	23.72
394.848	33.96
395.058	54.44
395.267	25.77
395.477	130.22
395.686	17.58
395.895	203.94
396.105	222.38
396.314	99.5
396.524	52.39
396.733	-19.29
396.942	185.51
397.152	101.55
397.361	154.79
397.57	154.79
397.78	1.19
397.989	136.36
398.198	238.76
398.407	27.82
398.617	56.49
398.826	56.49
399.035	-25.43
399.244	132.26
399.453	89.26
399.663	85.16
399.872	124.07
400.081	11.43
400.29	195.75
400.499	-4.95
400.708	-0.85
400.917	15.53
401.127	62.63
401.336	15.53
401.545	242.85
401.754	134.31
401.963	64.68
402.172	89.26
402.381	-60.24
402.59	44.2
402.799	109.74
403.008	74.92
403.217	56.49
403.426	-0.85
403.635	-45.91
403.844	99.5
404.053	40.11
404.262	48.3
404.471	154.79
404.68	70.83
404.888	76.97
405.097	-21.33
405.306	68.78
405.515	50.35
405.724	-11.09
405.933	117.93
406.142	79.02
406.35	72.87
406.559	36.01
406.768	11.43
406.977	193.7
407.185	23.72
407.394	146.6
407.603	-111.44
407.812	72.87
408.02	173.22
408.229	19.63
408.438	31.91
408.646	-37.72
408.855	29.87
409.064	99.5
409.272	36.01
409.481	72.87
409.69	-29.52
409.898	17.58
410.107	60.59
410.315	66.73
410.524	-9.05
410.733	113.83
410.941	130.22
411.15	97.45
411.358	195.75
411.567	119.98
411.775	-13.14
411.984	89.26
412.192	158.89
412.401	-33.62
412.609	183.46
412.818	150.7
413.026	27.82
413.234	36.01
413.443	19.63
413.651	-11.09
413.86	70.83
414.068	128.17
414.276	146.6
414.485	48.3
414.693	152.74
414.901	193.7
415.11	126.12
415.318	19.63
415.526	91.31
415.734	128.17
415.943	50.35
416.151	148.65
416.359	93.35
416.567	119.98
416.776	134.31
416.984	56.49
417.192	162.98
417.4	17.58
417.608	62.63
417.817	29.87
418.025	68.78
418.233	267.43
418.441	46.25
418.649	36.01
418.857	171.18
419.065	122.02
419.273	5.29
419.481	58.54
419.689	64.68
419.897	17.58
420.105	-27.48
420.313	142.5
420.521	101.55
420.729	126.12
420.937	40.11
421.145	83.11
421.353	91.31
421.561	128.17
421.769	-29.52
421.977	11.43
422.185	142.5
422.393	46.25
422.601	117.93
422.809	136.36
423.017	25.77
423.224	76.97
423.432	56.49
423.64	46.25
423.848	113.83
424.056	31.91
424.263	91.31
424.471	79.02
424.679	175.27
424.887	-84.82
425.094	208.04
425.302	64.68
425.51	62.63
425.718	38.06
425.925	136.36
426.133	83.11
426.341	126.12
426.548	74.92
426.756	60.59
426.964	91.31
427.171	117.93
427.379	122.02
427.586	44.2
427.794	128.17
428.001	89.26
428.209	126.12
428.417	183.46
428.624	175.27
428.832	160.94
429.039	21.67
429.247	56.49
429.454	93.35
429.662	261.29
429.869	105.64
430.076	136.36
430.284	257.19
430.491	238.76
430.699	193.7
430.906	238.76
431.114	177.32
431.321	197.8
431.528	136.36
431.736	119.98
431.943	203.94
432.15	117.93
432.358	255.14
432.565	183.46
432.772	3.24
432.979	253.09
433.187	85.16
433.394	191.66
433.601	33.96
433.808	228.52
434.016	316.58
434.223	167.08
434.43	273.57
434.637	212.14
434.844	294.05
435.052	167.08
435.259	308.39
435.466	302.25
435.673	193.7
435.88	253.09
436.087	343.21
436.294	279.72
436.501	277.67
436.708	240.81
436.915	269.48
437.122	314.53
437.329	175.27
437.537	330.92
437.743	255.14
437.95	375.97
438.157	330.92
438.364	296.1
438.571	330.92
438.778	406.69
438.985	461.99
439.192	466.08
439.399	382.12
439.606	386.21
439.813	431.27
440.02	613.54
440.227	613.54
440.433	566.43
440.64	504.99
440.847	468.13
441.054	480.42
441.261	537.76
441.467	564.39
441.674	451.75
441.881	744.61
442.088	584.87
442.294	656.54
442.501	720.03
442.708	756.9
442.914	705.7
443.121	810.14
443.328	756.9
443.534	853.15
443.741	853.15
443.948	763.04
444.154	775.33
444.361	1068.19
444.568	853.15
444.774	1121.43
444.981	836.77
445.187	1094.81
445.394	1053.85
445.6	1043.61
445.807	1105.05
446.013	1107.1
446.22	1082.52
446.426	1266.84
446.633	1367.19
446.839	1537.17
447.046	1344.66
447.252	1569.94
447.459	1526.93
447.665	1461.4
447.871	1541.27
448.078	1723.54
448.284	1703.06
448.491	1803.41
448.697	1817.74
448.903	1983.63
449.11	1918.09
449.316	2014.35
449.522	2165.9
449.728	2256.01
449.935	2272.39
450.141	2282.63
450.347	2522.24
450.553	2469
450.76	2477.19
450.966	2634.88
451.172	2727.04
451.378	2915.45
451.584	2817.15
451.791	3124.35
451.997	3226.75
452.203	3159.16
452.409	3363.96
452.615	3452.02
452.821	3497.08
453.027	3366.01
453.233	3828.85
453.44	3761.27
453.646	3900.53
453.852	4158.57
454.058	4328.55
454.264	4385.9
454.47	4672.61
454.676	4568.16
454.882	5039.2
455.088	4928.61
455.294	5174.36
455.5	5581.91
455.705	5731.41
455.911	5710.93
456.117	5964.88
456.323	6126.67
456.529	6165.58
456.735	6745.16
456.941	6954.05
457.147	7154.75
457.352	7253.05
457.558	7681.08
457.764	8008.75
457.97	8332.33
458.176	8684.58
458.381	8879.14
458.587	9237.53
458.793	9712.66
458.999	9542.68
459.204	10624.01
459.41	11242.5
459.616	11101.19
459.821	11508.73
460.027	12307.44
460.233	12573.67
460.438	13001.7
460.644	13495.26
460.85	13683.67
461.055	14255.06
461.261	14910.41
461.466	14445.52
461.672	15014.85
461.878	16831.4
462.083	16233.39
462.289	16794.54
462.494	17400.74
462.7	17601.44
462.905	17826.71
463.111	19407.75
463.316	20118.39
463.522	20540.27
463.727	21066.6
463.932	21980
464.138	22950.73
464.343	23581.51
464.549	23880.51
464.754	25725.73
464.959	26200.86
465.165	26733.33
465.37	26680.08
465.575	26614.55
465.781	28117.76
465.986	28984.05
466.191	29039.34
466.397	28934.9
466.602	28183.29
466.807	29717.22
467.012	30554.84
467.218	31118.03
467.423	31091.41
467.628	32133.82
467.833	33559.21
468.038	32893.62
468.244	32074.43
468.449	33602.22
468.654	33372.85
468.859	33419.95
469.064	33733.29
469.269	32567.99
469.474	32854.71
469.679	34017.96
469.885	32942.77
470.09	33569.45
470.295	33561.26
470.5	32524.99
470.705	33176.24
470.91	32037.57
471.115	31838.92
471.32	32361.15
471.525	31986.37
471.73	31169.23
471.935	30892.76
472.139	29514.47
472.344	29895.39
472.549	29950.69
472.754	29125.36
472.959	28619.51
473.164	27454.22
473.369	27384.58
473.574	28117.76
473.778	27556.61
473.983	26768.15
474.188	26618.64
474.393	25029.42
474.598	25205.55
474.802	24642.35
475.007	24265.53
475.212	24091.45
475.417	23272.26
475.621	23176.01
475.826	22786.89
476.031	22018.91
476.235	21470.05
476.44	21740.38
476.645	20947.82
476.849	20775.79
477.054	20376.44
477.259	20020.09
477.463	19876.73
477.668	19483.52
477.872	19655.55
478.077	19016.58
478.282	18138.01
478.486	18033.56
478.691	17943.45
478.895	18006.94
479.1	17851.29
479.304	17681.31
479.509	17073.06
479.713	17372.07
479.918	16917.42
480.122	16552.88
480.326	16677.8
480.531	16591.79
480.735	16440.24
480.94	16063.41
481.144	16477.1
481.348	15647.68
481.553	15907.77
481.757	15360.96
481.961	15774.65
482.166	15686.59
482.37	15430.59
482.574	15244.23
482.778	15123.4
482.983	15457.21
483.187	15096.77
483.391	15170.5
483.595	14654.41
483.8	14701.51
484.004	14474.19
484.208	14474.19
484.412	14341.07
484.616	14207.95
484.821	14076.88
485.025	13433.82
485.229	13568.99
485.433	13532.12
485.637	13435.87
485.841	13302.75
486.045	12868.58
486.249	13022.18
486.453	12645.35
486.657	12358.64
486.861	12319.73
487.065	11881.46
487.269	11977.72
487.473	11695.1
487.677	11652.09
487.881	11770.87
488.085	11332.61
488.289	11252.73
488.493	10697.74
488.697	11101.19
488.901	10544.14
489.105	10189.84
489.309	10411.02
489.512	9978.9
489.716	10034.19
489.92	9681.94
490.124	9610.26
490.328	9557.02
490.531	9163.81
490.735	9108.51
490.939	8879.14
491.143	8729.64
491.346	8483.88
491.55	8619.05
491.754	8195.12
491.958	8246.32
492.161	7988.27
492.365	7900.21
492.569	7810.1
492.772	7646.26
492.976	7740.47
493.18	7668.79
493.383	7547.96
493.587	7504.95
493.79	7500.86
493.994	7046.21
494.197	7005.25
494.401	7169.09
494.605	6949.95
494.808	6913.09
495.012	6919.23
495.215	6847.55
495.419	6886.47
495.622	6665.28
495.825	6818.88
496.029	6837.31
496.232	6747.2
496.436	6612.04
496.639	6786.12
496.843	6679.62
497.046	6646.85
497.249	6755.4
497.453	6704.2
497.656	6542.41
497.859	6665.28
498.063	6724.68
498.266	6761.54
498.469	6650.95
498.673	6521.93
498.876	6784.07
499.079	6458.44
499.282	6683.72
499.485	7035.97
499.689	6814.79
499.892	7031.87
500.095	6855.75
500.298	7091.26
500.501	6898.75
500.705	6876.23
500.908	7291.96
501.111	7238.72
501.314	7175.23
501.517	7539.77
501.72	7625.78
501.923	7416.89
502.126	7535.67
502.329	7795.76
502.532	7801.91
502.735	7707.7
502.938	8000.56
503.141	8066.1
503.344	8254.51
503.547	8266.8
503.75	8186.93
503.953	8350.76
504.156	8537.13
504.359	8743.97
504.562	8772.64
504.765	8975.39
504.968	9194.53
505.17	9139.23
505.373	9284.64
505.576	9591.83
505.779	9722.9
505.982	9686.04
506.185	10003.47
506.387	10079.25
506.59	10294.29
506.793	10492.94
506.996	10308.62
507.198	11025.41
507.401	11269.12
507.604	11549.69
507.807	11717.62
508.009	11817.97
508.212	11987.96
508.415	12248.05
508.617	12385.26
508.82	12790.76
509.022	12841.96
509.225	13233.12
509.428	13611.99
509.63	13876.18
509.833	14019.54
510.035	15004.61
510.238	15018.95
510.44	14910.41
510.643	15651.77
510.845	16057.27
511.048	16157.62
511.25	16481.2
511.453	16528.3
511.655	17435.55
511.858	17404.83
512.06	18041.75
512.262	18353.04
512.465	18744.2
512.667	19377.03
512.87	19473.28
513.072	19979.13
513.274	20800.37
513.477	21076.84
513.679	21644.13
513.881	21977.95
514.084	22735.7
514.286	22815.57
514.488	23327.56
514.69	24195.9
514.893	24820.53
515.095	24789.81
515.297	25396.01
515.499	26157.85
515.701	26878.74
515.904	27380.49
516.106	28158.72
516.308	28535.54
516.51	28971.76
516.712	29520.62
516.914	30221.02
517.116	30708.44
517.318	31236.81
517.52	31554.25
517.722	32592.57
517.925	33295.02
518.127	34075.3
518.329	34583.19
518.531	34747.03
518.733	35830.41
518.935	36135.56
519.136	36559.48
519.338	37259.89
519.54	37913.19
519.742	38707.8
519.944	39047.77
520.146	40237.64
520.348	40319.56
520.55	40766.01
520.752	41538.1
520.954	41861.68
521.155	42207.78
521.357	43217.43
521.559	43799.05
521.761	44628.48
521.963	44521.99
522.164	44753.41
522.366	45468.15
522.568	45930.99
522.77	46166.51
522.971	46924.25
523.173	46580.2
523.375	47276.51
523.576	47321.56
523.778	47256.03
523.98	48593.35
524.181	48064.97
524.383	48464.33
524.584	49021.37
524.786	48677.32
524.988	48427.46
525.189	49140.16
525.391	49508.79
525.592	49359.29
525.794	49521.08
525.995	49488.31
526.197	49299.9
526.398	49705.4
526.6	49557.94
526.801	49230.27
527.003	49215.93
527.204	49394.1
527.406	49295.8
527.607	48579.01
527.808	49308.09
528.01	47745.49
528.211	48312.78
528.412	48818.63
528.614	48239.05
528.815	47761.87
529.016	48026.06
529.218	46694.88
529.419	46817.76
529.62	46455.27
529.822	45978.09
530.023	45474.29
530.224	44964.35
530.425	44370.44
530.626	44077.58
530.828	43708.94
531.029	43969.04
531.23	42770.97
531.431	42428.96
531.632	42373.67
531.833	41904.68
532.035	41308.72
532.236	40655.42
532.437	40487.49
532.638	39791.18
532.839	39645.77
533.04	39166.55
533.241	37962.34
533.442	38423.14
533.643	37646.96
533.844	37200.5
534.045	36625.02
534.246	35893.89
534.447	35758.73
534.648	35330.7
534.849	34886.29
535.05	33944.23
535.251	33958.56
535.451	33489.58
535.652	32993.97
535.853	32682.68
536.054	32099.01
536.255	31728.33
536.456	30946
536.657	31191.76
536.857	29995.74
537.058	29745.89
537.259	29756.13
537.46	29205.23
537.66	29068.02
537.861	28310.27
538.062	27980.54
538.263	27689.73
538.463	26946.32
538.664	27437.83
538.865	26872.59
539.065	26553.11
539.266	26315.55
539.466	25903.9
539.667	25236.27
539.868	25060.14
540.068	24818.48
540.269	24644.4
540.469	24408.89
540.67	23989.05
540.87	23741.25
541.071	23442.24
541.271	23434.05
541.472	22850.38
541.672	22704.98
541.873	22109.02
542.073	21730.14
542.274	21992.28
542.474	21805.92
542.675	21273.45
542.875	20976.49
543.075	20841.32
543.276	20599.66
543.476	20640.62
543.676	20300.66
543.877	20112.25
544.077	19948.41
544.277	19651.45
544.478	19487.62
544.678	19352.45
544.878	18740.11
545.078	18762.64
545.279	18332.56
545.479	18201.49
545.679	18086.81
545.879	17949.59
546.079	17793.95
546.28	17472.42
546.48	17255.33
546.68	17130.41
546.88	16774.06
547.08	16786.35
547.28	16569.26
547.48	16208.82
547.68	16010.17
547.88	15946.68
548.081	15727.55
548.281	15537.09
548.481	15223.75
548.681	15211.46
548.881	14787.53
549.081	14873.54
549.28	14416.85
549.48	14476.24
549.68	14193.62
549.88	14244.82
550.08	13700.06
550.28	13536.22
550.48	13532.12
550.68	13302.75
550.88	13183.97
551.08	12880.87
551.279	13034.47
551.479	12415.98
551.679	12393.45
551.879	11942.9
552.079	12196.85
552.278	11887.61
552.478	11942.9
552.678	11566.07
552.878	11568.12
553.077	11310.08
553.277	10740.74
553.477	10834.95
553.676	10716.17
553.876	10589.19
554.076	10187.79
554.275	10189.84
554.475	9987.09
554.674	9958.42
554.874	9681.94
555.074	9360.41
555.273	9110.56
555.473	9393.18
555.672	8862.76
555.872	8932.39
556.071	8848.42
556.271	8692.77
556.47	8610.86
556.67	8387.63
556.869	8344.62
557.068	8225.84
557.268	7924.79
557.467	7877.68
557.667	7830.58
557.866	7674.93
558.065	7345.21
558.265	7396.41
558.464	7089.21
558.663	7341.11
558.863	7011.39
559.062	7021.63
559.261	6630.47
559.461	6853.7
559.66	6677.57
559.859	6331.47
560.058	6292.55
560.258	6134.86
560.457	6042.7
560.656	6282.31
560.855	5831.76
561.054	5801.04
561.253	5831.76
561.453	5641.3
561.652	5698.64
561.851	5663.83
562.05	5465.18
562.249	5284.95
562.448	5295.19
562.647	5045.34
562.846	5141.6
563.045	5131.36
563.244	4889.7
563.443	4930.66
563.642	4744.29
563.841	4818.02
564.04	4768.87
564.239	4592.74
564.438	4576.36
564.637	4445.29
564.836	4330.6
565.035	4203.63
565.234	4213.87
565.432	4158.57
565.631	4164.72
565.83	4062.32
566.029	3921.01
566.228	3986.54
566.427	4060.27
566.625	3832.94
566.824	3855.47
567.023	3878
567.222	3579
567.42	3540.08
567.619	3601.52
567.818	3507.32
568.016	3650.67
568.215	3462.26
568.414	3409.01
568.612	3372.15
568.811	3198.07
569.01	3236.99
569.208	3155.07
569.407	3044.48
569.605	3079.29
569.804	3011.71
570.002	2997.37
570.201	2886.78
570.4	2780.29
570.598	2849.92
570.797	2655.36
570.995	2786.43
571.193	2706.56
571.392	2657.41
571.59	2573.44
571.789	2690.18
571.987	2677.89
572.186	2536.58
572.384	2514.05
572.582	2409.61
572.781	2452.61
572.979	2294.92
573.177	2389.13
573.376	2296.97
573.574	2325.64
573.772	2344.07
573.971	2196.62
574.169	2155.66
574.367	2182.28
574.565	2057.36
574.763	2129.03
574.962	1936.53
575.16	2000.01
575.358	1954.96
575.556	1963.15
575.754	1870.99
575.952	1918.09
576.151	1963.15
576.349	1870.99
576.547	1758.35
576.745	1748.11
576.943	1744.02
577.141	1692.82
577.339	1600.66
577.537	1662.1
577.735	1617.04
577.933	1617.04
578.131	1442.96
578.329	1705.1
578.527	1598.61
578.725	1447.06
578.923	1442.96
579.121	1508.5
579.319	1318.04
579.516	1436.82
579.714	1625.23
579.912	1356.95
580.11	1199.26
580.308	1332.37
580.506	1385.62
580.704	1125.53
580.901	1340.57
581.099	1258.65
581.297	1205.4
581.495	1201.3
581.692	1146.01
581.89	1352.85
582.088	1242.26
582.285	1242.26
582.483	1086.62
582.681	1094.81
582.878	976.03
583.076	1115.29
583.274	1096.86
583.471	1146.01
583.669	1062.04
583.866	1025.18
584.064	994.46
584.262	904.35
584.459	908.44
584.657	920.73
584.854	1156.25
585.052	1025.18
585.249	996.51
585.447	973.98
585.644	795.81
585.841	988.32
586.039	873.63
586.236	871.58
586.434	779.42
586.631	748.7
586.828	767.13
587.026	898.2
587.223	681.12
587.42	814.24
587.618	816.29
587.815	890.01
588.012	742.56
588.21	760.99
588.407	728.22
588.604	763.04
588.801	660.64
588.999	656.54
589.196	781.47
589.393	666.78
589.59	660.64
589.787	695.46
589.984	744.61
590.182	740.51
590.379	652.45
590.576	611.49
590.773	695.46
590.97	595.11
591.167	695.46
591.364	697.5
591.561	646.3
591.758	687.26
591.955	726.18
592.152	640.16
592.349	681.12
592.546	611.49
592.743	662.69
592.94	750.75
593.137	658.59
593.334	724.13
593.531	648.35
593.727	703.65
593.924	636.06
594.121	648.35
594.318	629.92
594.515	756.9
594.712	840.86
594.908	722.08
595.105	605.35
595.302	701.6
595.499	738.46
595.696	875.68
595.892	572.58
596.089	820.38
596.286	717.98
596.482	760.99
596.679	849.05
596.876	724.13
597.072	847.01
597.269	720.03
597.466	863.39
597.662	849.05
597.859	834.72
598.055	969.88
598.252	949.4
598.448	955.55
598.645	1047.71
598.841	1059.99
599.038	1201.3
599.234	1176.73
599.431	1129.63
599.627	1146.01
599.824	1215.64
600.02	1250.46
600.217	1299.61
600.413	1375.38
600.609	1440.92
600.806	1723.54
601.002	1508.5
601.198	1469.59
601.395	1688.72
601.591	1569.94
601.787	1780.88
601.984	1825.93
602.18	1918.09
602.376	1832.08
602.572	2016.4
602.769	2229.38
602.965	2104.46
603.161	2288.78
603.357	2354.31
603.553	2411.65
603.75	2389.13
603.946	2520.2
604.142	2651.27
604.338	2772.1
604.534	2751.62
604.73	2800.77
604.926	2923.65
605.122	3163.26
605.318	3007.61
605.514	3187.83
605.71	3376.25
605.906	3558.52
606.102	3570.8
606.298	3683.44
606.494	3714.16
606.69	3929.2
606.886	3957.87
607.082	4099.18
607.278	4197.48
607.474	4371.56
607.67	4590.69
607.866	4484.2
608.062	4689
608.257	4779.11
608.453	4916.32
608.649	5162.08
608.845	5065.82
609.041	5354.58
609.236	5643.35
609.432	5678.16
609.628	5798.99
609.824	5975.12
610.019	6073.42
610.215	6267.98
610.411	6552.65
610.606	6673.48
610.802	6818.88
610.998	6954.05
611.193	7025.73
611.389	7097.41
611.584	7433.27
611.78	7728.18
611.976	7941.17
612.171	8115.25
612.367	8266.8
612.562	8545.32
612.758	8639.53
612.953	8725.54
613.149	9301.02
613.344	9378.84
613.539	9835.54
613.735	10038.29
613.93	10236.94
614.126	10368.01
614.321	10753.03
614.517	11187.2
614.712	11240.45
614.907	11516.92
615.103	11992.05
615.298	12041.2
615.493	12424.17
615.688	12430.32
615.884	13163.49
616.079	12999.65
616.274	13763.54
616.47	13865.94
616.665	14343.12
616.86	14695.37
617.055	15172.55
617.25	15408.06
617.445	15813.56
617.641	15907.77
617.836	16645.04
618.031	16608.17
618.226	17466.27
618.421	17724.32
618.616	18457.49
618.811	18154.39
619.006	18879.37
619.201	19245.96
619.396	20024.19
619.591	20093.82
619.786	20507.51
619.981	21095.27
620.176	21803.87
620.371	21781.34
620.566	22506.32
620.761	23202.63
620.956	23573.31
621.151	23542.6
621.346	24572.72
621.541	24673.07
621.735	25705.25
621.93	25592.61
622.125	26098.46
622.32	26303.26
622.515	27456.26
622.709	27575.05
622.904	28189.44
623.099	28140.29
623.294	29168.37
623.488	28965.62
623.683	30059.23
623.878	30270.17
624.072	30921.43
624.267	31523.53
624.462	31924.93
624.656	31953.6
624.851	32783.03
625.046	33305.26
625.24	33866.41
625.435	34144.93
625.629	34452.12
625.824	35195.54
626.018	35814.02
626.213	35484.3
626.407	36121.22
626.602	36405.89
626.796	36897.4
626.991	37380.72
627.185	38095.46
627.38	37997.16
627.574	37952.1
627.768	38322.79
627.963	38439.52
628.157	38920.79
628.352	39121.49
628.546	38576.73
628.74	39422.55
628.935	39035.48
629.129	39524.94
629.323	38906.46
629.517	38421.09
629.712	38564.45
629.906	38605.41
630.1	37546.61
630.294	38048.36
630.489	36881.02
630.683	36831.86
630.877	35967.62
631.071	35680.91
631.265	35072.66
631.459	34720.41
631.653	33321.65
631.848	32983.73
632.042	32447.16
632.236	31947.46
632.43	30728.92
632.624	30499.55
632.818	28795.64
633.012	28070.65
633.206	27351.82
633.4	26948.37
633.594	25809.7
633.788	24810.29
633.982	24138.55
634.176	23513.92
634.369	22502.23
634.563	21633.89
634.757	20706.16
634.951	20032.38
635.145	19499.91
635.339	18547.6
635.533	18078.61
635.726	17410.98
635.92	16335.79
636.114	15528.89
636.308	15182.79
636.501	14638.03
636.695	14121.94
636.889	13120.48
637.083	12989.41
637.276	12123.12
637.47	11987.96
637.664	11486.2
637.857	10976.26
638.051	10300.43
638.244	10114.06
638.438	9612.31
638.632	9186.33
638.825	8956.96
639.019	8621.1
639.212	8043.57
639.406	7922.74
639.599	7582.77
639.793	7285.82
639.986	6779.97
640.18	6728.77
640.373	6581.32
640.567	6169.68
640.76	5940.3
640.954	5786.71
641.147	5512.28
641.34	5266.52
641.534	5123.16
641.727	4949.09
641.92	4736.1
642.114	4641.89
642.307	4371.56
642.5	4148.33
642.694	3994.73
642.887	3820.66
643.08	3978.35
643.273	3624.05
643.467	3552.37
643.66	3439.73
643.853	3193.98
644.046	3155.07
644.239	2987.13
644.432	2817.15
644.626	2632.83
644.819	2544.77
645.012	2522.24
645.205	2522.24
645.398	2419.85
645.591	2245.77
645.784	2088.07
645.977	2022.54
646.17	2028.68
646.363	1950.86
646.556	1885.33
646.749	1719.44
646.942	1852.56
647.135	1791.12
647.328	1655.95
647.521	1496.21
647.714	1475.73
647.907	1399.96
648.099	1334.42
648.292	1485.97
648.485	1350.81
648.678	1279.13
648.871	1242.26
649.064	1139.87
649.256	1064.09
649.449	1111.19
649.642	894.11
649.835	945.31
650.027	955.55
650.22	1031.32
650.413	771.23
650.605	978.08
650.798	758.94
650.991	834.72
651.183	717.98
651.376	826.53
651.568	695.46
651.761	672.93
651.954	756.9
652.146	660.64
652.339	705.7
652.531	668.83
652.724	582.82
652.916	556.19
653.109	472.23
653.301	658.59
653.494	582.82
653.686	576.67
653.879	543.91
654.071	550.05
654.263	445.6
654.456	449.7
654.648	545.95
654.84	504.99
655.033	437.41
655.225	674.98
655.417	308.39
655.61	578.72
655.802	459.94
655.994	527.52
656.186	355.49
656.379	386.21
656.571	347.3
656.763	330.92
656.955	355.49
657.148	281.77
657.34	390.31
657.532	324.77
657.724	244.9
657.916	335.01
658.108	365.73
658.3	308.39
658.492	326.82
658.684	292.01
658.876	335.01
659.068	193.7
659.26	136.36
659.452	312.49
659.644	304.29
659.836	375.97
660.028	304.29
660.22	216.23
660.412	197.8
660.604	214.18
660.796	232.62
660.988	339.11
661.18	277.67
661.372	316.58
661.563	251.05
661.755	205.99
661.947	46.25
662.139	177.32
662.331	257.19
662.522	177.32
662.714	154.79
662.906	189.61
663.097	244.9
663.289	193.7
663.481	142.5
663.673	232.62
663.864	238.76
664.056	226.47
664.247	87.21
664.439	287.91
664.631	169.13
664.822	234.66
665.014	173.22
665.205	212.14
665.397	238.76
665.588	230.57
665.78	136.36
665.971	242.85
666.163	162.98
666.354	124.07
666.546	136.36
666.737	140.46
666.929	165.03
667.12	60.59
667.311	128.17
667.503	101.55
667.694	205.99
667.885	169.13
668.077	226.47
668.268	36.01
668.459	171.18
668.651	167.08
668.842	173.22
669.033	117.93
669.224	128.17
669.416	281.77
669.607	101.55
669.798	91.31
669.989	185.51
670.18	109.74
670.371	222.38
670.563	154.79
670.754	281.77
670.945	130.22
671.136	193.7
671.327	83.11
671.518	162.98
671.709	316.58
671.9	210.09
672.091	269.48
672.282	103.59
672.473	218.28
672.664	103.59
672.855	205.99
673.046	292.01
673.237	306.34
673.428	156.84
673.619	226.47
673.809	136.36
674	255.14
674.191	283.81
674.382	210.09
674.573	99.5
674.764	228.52
674.954	212.14
675.145	230.57
675.336	103.59
675.527	193.7
675.717	158.89
675.908	105.64
676.099	150.7
676.289	226.47
676.48	119.98
676.671	263.33
676.861	126.12
677.052	265.38
677.243	103.59
677.433	173.22
677.624	283.81
677.814	240.81
678.005	150.7
678.195	382.12
678.386	173.22
678.576	242.85
678.767	208.04
678.957	195.75
679.148	337.06
679.338	410.79
679.529	353.45
679.719	156.84
679.909	302.25
680.1	330.92
680.29	189.61
680.481	103.59
680.671	289.96
680.861	230.57
681.052	300.2
681.242	167.08
681.432	396.45
681.622	353.45
681.813	183.46
682.003	232.62
682.193	197.8
682.383	324.77
682.573	265.38
682.764	287.91
682.954	261.29
683.144	335.01
683.334	337.06
683.524	267.43
683.714	328.87
683.904	375.97
684.094	343.21
684.284	269.48
684.474	345.25
684.664	343.21
684.854	326.82
685.044	265.38
685.234	314.53
685.424	367.78
685.614	277.67
685.804	480.42
685.994	328.87
686.184	205.99
686.374	271.53
686.564	351.4
686.753	296.1
686.943	218.28
687.133	285.86
687.323	253.09
687.513	326.82
687.702	339.11
687.892	318.63
688.082	339.11
688.272	359.59
688.461	341.16
688.651	400.55
688.841	361.64
689.03	285.86
689.22	234.66
689.41	328.87
689.599	292.01
689.789	249
689.979	441.51
690.168	298.15
690.358	287.91
690.547	300.2
690.737	267.43
690.926	302.25
691.116	337.06
691.305	324.77
691.495	306.34
691.684	224.42
691.874	279.72
692.063	314.53
692.252	357.54
692.442	406.69
692.631	201.9
692.82	263.33
693.01	314.53
693.199	187.56
693.388	302.25
693.578	246.95
693.767	310.44
693.956	335.01
694.146	269.48
694.335	335.01
694.524	273.57
694.713	339.11
694.902	175.27
695.092	273.57
695.281	345.25
695.47	310.44
695.659	292.01
695.848	326.82
696.037	189.61
696.226	281.77
696.415	324.77
696.604	365.73
696.793	312.49
696.982	191.66
697.171	443.56
697.36	210.09
697.549	240.81
697.738	183.46
697.927	259.24
698.116	154.79
698.305	318.63
698.494	257.19
698.683	132.26
698.872	373.92
699.061	212.14
699.25	214.18
699.438	210.09
699.627	218.28
699.816	347.3
700.005	318.63
700.193	246.95
700.382	310.44
700.571	320.68
700.76	308.39
700.948	341.16
701.137	269.48
701.326	287.91
701.514	220.33
701.703	312.49
701.892	255.14
702.08	484.52
702.269	279.72
702.457	308.39
702.646	257.19
702.834	304.29
703.023	220.33
703.212	324.77
703.4	238.76
703.589	175.27
703.777	246.95
703.965	263.33
704.154	328.87
704.342	232.62
704.531	261.29
704.719	279.72
704.907	277.67
705.096	152.74
705.284	203.94
705.472	285.86
705.661	298.15
705.849	369.83
706.037	328.87
706.226	210.09
706.414	224.42
706.602	130.22
706.79	310.44
706.979	261.29
707.167	320.68
707.355	109.74
707.543	294.05
707.731	261.29
707.919	265.38
708.107	298.15
708.296	146.6
708.484	232.62
708.672	326.82
708.86	261.29
709.048	363.69
709.236	203.94
709.424	283.81
709.612	363.69
709.8	187.56
709.988	275.62
710.176	353.45
710.364	367.78
710.551	292.01
710.739	226.47
710.927	294.05
711.115	244.9
711.303	349.35
711.491	339.11
711.679	218.28
711.866	298.15
712.054	197.8
712.242	216.23
712.43	369.83
712.617	267.43
712.805	220.33
712.993	195.75
713.181	173.22
713.368	308.39
713.556	244.9
713.744	259.24
713.931	439.46
714.119	330.92
714.306	267.43
714.494	224.42
714.682	216.23
714.869	187.56
715.057	240.81
715.244	183.46
715.432	357.54
715.619	275.62
715.807	212.14
715.994	218.28
716.182	259.24
716.369	359.59
716.556	289.96
716.744	181.42
716.931	167.08
717.119	322.73
717.306	232.62
717.493	320.68
717.681	232.62
717.868	238.76
718.055	285.86
718.242	218.28
718.43	277.67
718.617	490.66
718.804	230.57
718.991	335.01
719.179	365.73
719.366	324.77
719.553	339.11
719.74	232.62
719.927	261.29
720.114	322.73
720.301	208.04
720.488	236.71
720.676	269.48
720.863	466.08
721.05	396.45
721.237	363.69
721.424	388.26
721.611	349.35
721.798	222.38
721.985	292.01
722.172	242.85
722.358	355.49
722.545	386.21
722.732	316.58
722.919	453.8
723.106	324.77
723.293	304.29
723.48	308.39
723.667	339.11
723.853	382.12
724.04	345.25
724.227	335.01
724.414	373.92
724.6	359.59
724.787	461.99
724.974	363.69
725.161	324.77
725.347	349.35
725.534	292.01
725.72	380.07
725.907	322.73
726.094	369.83
726.28	318.63
726.467	263.33
726.653	205.99
726.84	378.02
727.027	457.89
727.213	361.64
727.4	406.69
727.586	400.55
727.773	388.26
727.959	384.16
728.145	349.35
728.332	365.73
728.518	427.17
728.705	339.11
728.891	367.78
729.077	380.07
729.264	275.62
729.45	253.09
729.636	455.84
729.823	355.49
730.009	494.76
730.195	351.4
730.382	388.26
730.568	302.25
730.754	335.01
730.94	326.82
731.126	308.39
731.313	412.84
731.499	431.27
731.685	398.5
731.871	351.4
732.057	414.88
732.243	443.56
732.429	371.88
732.615	453.8
732.801	343.21
732.987	351.4
733.173	433.32
733.359	261.29
733.545	410.79
733.731	371.88
733.917	550.05
734.103	449.7
734.289	359.59
734.475	263.33
734.661	566.43
734.847	435.36
735.033	273.57
735.219	394.4
735.404	312.49
735.59	308.39
735.776	298.15
735.962	457.89
736.148	482.47
736.333	443.56
736.519	435.36
736.705	410.79
736.89	396.45
737.076	461.99
737.262	449.7
737.447	339.11
737.633	337.06
737.819	525.47
738.004	392.36
738.19	314.53
738.375	355.49
738.561	431.27
738.747	404.64
738.932	412.84
739.118	525.47
739.303	359.59
739.489	447.65
739.674	324.77
739.859	294.05
740.045	412.84
740.23	375.97
740.416	242.85
740.601	398.5
740.786	365.73
740.972	355.49
741.157	351.4
741.342	269.48
741.528	289.96
741.713	414.88
741.898	359.59
742.084	371.88
742.269	330.92
742.454	464.04
742.639	398.5
742.824	447.65
743.01	439.46
743.195	593.06
743.38	404.64
743.565	400.55
743.75	392.36
743.935	474.28
744.12	507.04
744.305	224.42
744.49	400.55
744.675	341.16
744.86	355.49
745.045	461.99
745.23	425.12
745.415	371.88
745.6	509.09
745.785	332.97
745.97	439.46
746.155	451.75
746.34	486.56
746.525	367.78
746.71	455.84
746.895	302.25
747.079	236.71
747.264	289.96
747.449	392.36
747.634	396.45
747.819	394.4
748.003	312.49
748.188	257.19
748.373	390.31
748.557	468.13
748.742	361.64
748.927	339.11
749.111	302.25
749.296	326.82
749.481	294.05
749.665	373.92
749.85	322.73
750.034	392.36
750.219	332.97
750.404	337.06
750.588	406.69
750.773	199.85
750.957	261.29
751.141	349.35
751.326	337.06
751.51	205.99
751.695	271.53
751.879	318.63
752.064	439.46
752.248	255.14
752.432	455.84
752.617	378.02
752.801	351.4
752.985	267.43
753.17	416.93
753.354	283.81
753.538	244.9
753.722	189.61
753.907	279.72
754.091	191.66
754.275	287.91
754.459	160.94
754.643	296.1
754.828	386.21
755.012	228.52
755.196	255.14
755.38	259.24
755.564	148.65
755.748	255.14
755.932	351.4
756.116	320.68
756.3	261.29
756.484	210.09
756.668	287.91
756.852	203.94
757.036	183.46
757.22	271.53
757.404	208.04
757.588	257.19
757.772	179.37
757.956	220.33
758.14	357.54
758.323	226.47
758.507	298.15
758.691	265.38
758.875	281.77
759.059	378.02
759.242	165.03
759.426	251.05
759.61	195.75
759.794	179.37
759.977	302.25
760.161	466.08
760.345	306.34
760.528	339.11
760.712	214.18
760.895	285.86
761.079	251.05
761.263	74.92
761.446	203.94
761.63	242.85
761.813	296.1
761.997	195.75
762.18	167.08
762.364	314.53
762.547	95.4
762.731	177.32
762.914	283.81
763.098	226.47
763.281	267.43
763.464	115.88
763.648	220.33
763.831	175.27
764.015	99.5
764.198	232.62
764.381	210.09
764.564	197.8
764.748	226.47
764.931	177.32
765.114	150.7
765.297	216.23
765.481	142.5
765.664	148.65
765.847	216.23
766.03	212.14
766.213	162.98
766.397	134.31
766.58	89.26
766.763	138.41
766.946	89.26
767.129	173.22
767.312	126.12
767.495	134.31
767.678	64.68
767.861	185.51
768.044	175.27
768.227	175.27
768.41	132.26
768.593	115.88
768.776	201.9
768.959	199.85
769.142	179.37
769.324	101.55
769.507	134.31
769.69	122.02
769.873	195.75
770.056	310.44
770.239	117.93
770.421	285.86
770.604	195.75
770.787	175.27
770.97	189.61
771.152	46.25
771.335	240.81
771.518	44.2
771.7	267.43
771.883	263.33
772.066	85.16
772.248	177.32
772.431	183.46
772.613	162.98
772.796	27.82
772.978	236.71
773.161	181.42
773.343	169.13
773.526	9.39
773.708	13.48
773.891	5.29
774.073	64.68
774.256	144.55
774.438	263.33
774.621	83.11
774.803	152.74
774.985	109.74
775.168	146.6
775.35	99.5
775.532	181.42
775.715	117.93
775.897	195.75
776.079	113.83
776.261	87.21
776.444	132.26
776.626	72.87
776.808	138.41
776.99	31.91
777.173	191.66
777.355	103.59
777.537	119.98
777.719	132.26
777.901	72.87
778.083	42.15
778.265	3.24
778.447	54.44
778.629	62.63
778.811	89.26
778.993	148.65
779.175	218.28
779.357	130.22
779.539	58.54
779.721	124.07
779.903	253.09
780.085	103.59
780.267	40.11
780.449	126.12
780.631	128.17
780.812	210.09
780.994	122.02
781.176	134.31
781.358	62.63
781.54	9.39
781.721	136.36
781.903	175.27
782.085	40.11
782.267	117.93
782.448	-47.96
782.63	44.2
782.812	81.07
782.993	99.5
783.175	130.22
783.357	40.11
783.538	50.35
783.72	95.4
783.901	142.5
784.083	113.83
784.264	144.55
784.446	23.72
784.627	64.68
784.809	52.39
784.99	64.68
785.172	187.56
785.353	124.07
785.535	105.64
785.716	29.87
785.897	74.92
786.079	42.15
786.26	23.72
786.441	85.16
786.623	-140.12
786.804	52.39
786.985	83.11
787.167	138.41
787.348	11.43
787.529	72.87
787.71	220.33
787.891	29.87
788.073	33.96
788.254	3.24
788.435	216.23
788.616	119.98
788.797	-45.91
788.978	50.35
789.159	76.97
789.34	11.43
789.522	42.15
789.703	33.96
789.884	83.11
790.065	62.63
790.246	240.81
790.427	19.63
790.607	181.42
790.788	113.83
790.969	46.25
791.15	74.92
791.331	21.67
791.512	60.59
791.693	-60.24
791.874	-2.9
792.054	189.61
792.235	81.07
792.416	-35.67
792.597	-0.85
792.778	152.74
792.958	119.98
793.139	68.78
793.32	50.35
793.5	9.39
793.681	169.13
793.862	122.02
794.042	42.15
794.223	46.25
794.404	-19.29
794.584	5.29
794.765	52.39
794.945	25.77
795.126	81.07
795.306	136.36
795.487	79.02
795.667	40.11
795.848	44.2
796.028	5.29
796.209	48.3
796.389	126.12
796.57	38.06
796.75	-68.44
796.93	103.59
797.111	40.11
797.291	-2.9
797.471	89.26
797.652	64.68
797.832	-156.5
798.012	48.3
798.192	5.29
798.373	29.87
798.553	54.44
798.733	87.21
798.913	-29.52
799.093	-2.9
799.274	-19.29
799.454	126.12
799.634	117.93
799.814	72.87
799.994	66.73
800.174	60.59
800.354	38.06
800.534	-62.29
800.714	68.78
800.894	-4.95
801.074	-33.62
801.254	-17.24
801.434	124.07
801.614	31.91
801.794	-39.76
801.974	1778.83
802.154	-35.67
802.334	105.64
802.514	-64.34
802.693	-25.43
802.873	7.34
803.053	136.36
803.233	99.5
803.413	46.25
803.592	56.49
803.772	72.87
803.952	-7
804.131	-29.52
804.311	25.77
804.491	181.42
804.67	-35.67
804.85	-43.86
805.03	89.26
805.209	81.07
805.389	109.74
805.568	-64.34
805.748	25.77
805.928	-9.05
806.107	72.87
806.287	99.5
806.466	115.88
806.646	1.19
806.825	-15.19
807.004	3.24
807.184	74.92
807.363	128.17
807.543	68.78
807.722	-7
807.901	-2.9
808.081	152.74
808.26	-37.72
808.439	60.59
808.619	52.39
808.798	-25.43
808.977	91.31
809.156	162.98
809.336	-35.67
809.515	95.4
809.694	11.43
809.873	1.19
810.052	52.39
810.231	87.21
810.411	167.08
810.59	95.4
810.769	1.19
810.948	60.59
811.127	-45.91
811.306	-9.05
811.485	11.43
811.664	117.93
811.843	-31.57
812.022	74.92
812.201	31.91
812.38	64.68
812.559	19.63
812.737	62.63
812.916	-105.3
813.095	-62.29
813.274	134.31
813.453	-4.95
813.632	62.63
813.811	150.7
813.989	29.87
814.168	15.53
814.347	-43.86
814.526	40.11
814.704	113.83
814.883	109.74
815.062	-82.77
815.24	40.11
815.419	-31.57
815.598	91.31
815.776	-99.16
815.955	17.58
816.133	-138.07
816.312	9.39
816.49	-0.85
816.669	-4.95
816.847	5.29
817.026	21.67
817.204	38.06
817.383	40.11
817.561	-13.14
817.74	52.39
817.918	89.26
818.097	-70.48
818.275	-13.14
818.453	23.72
818.632	105.64
818.81	46.25
818.988	-58.2
819.167	23.72
819.345	-0.85
819.523	19.63
819.701	-9.05
819.879	7.34
820.058	17.58
820.236	11.43
820.414	1.19
820.592	13.48
820.77	44.2
820.948	-41.81
821.127	5.29
821.305	1.19
821.483	-27.48
821.661	81.07
821.839	58.54
822.017	-121.68
822.195	27.82
822.373	119.98
822.551	-23.38
822.729	81.07
822.907	-9.05
823.085	70.83
823.262	7.34
823.44	7.34
823.618	48.3
823.796	1.19
823.974	68.78
824.152	-33.62
824.329	-23.38
824.507	7.34
824.685	91.31
824.863	-35.67
825.04	70.83
825.218	91.31
825.396	31.91
825.574	111.78
825.751	21.67
825.929	95.4
826.107	-37.72
826.284	-27.48
826.462	23.72
826.639	-17.24
826.817	-68.44
826.994	-19.29
827.172	-64.34
827.349	130.22
827.527	-0.85
827.704	42.15
827.882	97.45
828.059	40.11
828.237	36.01
828.414	107.69
828.591	-78.68
828.769	79.02
828.946	-31.57
829.124	117.93
829.301	122.02
829.478	-31.57
829.655	-13.14
829.833	9.39
830.01	-138.07
830.187	97.45
830.364	31.91
830.542	101.55
830.719	60.59
830.896	15.53
831.073	93.35
831.25	3.24
831.427	38.06
831.604	19.63
831.782	56.49
831.959	29.87
832.136	-29.52
832.313	-21.33
832.49	-35.67
832.667	38.06
832.844	21.67
833.021	230.57
833.198	15.53
833.374	46.25
833.551	52.39
833.728	-19.29
833.905	27.82
834.082	-66.39
834.259	-52.05
834.436	74.92
834.612	-39.76
834.789	99.5
834.966	95.4
835.143	21.67
835.319	13.48
835.496	-11.09
835.673	74.92
835.85	54.44
836.026	21.67
836.203	124.07
836.38	-39.76
836.556	-90.96
836.733	-125.78
836.909	175.27
837.086	56.49
837.262	-45.91
837.439	27.82
837.616	-31.57
837.792	-19.29
837.968	62.63
838.145	-123.73
838.321	11.43
838.498	-0.85
838.674	9.39
838.851	-11.09
839.027	-0.85
839.203	54.44
839.38	17.58
839.556	-29.52
839.732	72.87
839.909	-33.62
840.085	60.59
840.261	-56.15
840.437	81.07
840.614	15.53
840.79	169.13
840.966	103.59
841.142	15.53
841.318	19.63
841.494	-9.05
841.671	105.64
841.847	-47.96
842.023	-43.86
842.199	29.87
842.375	89.26
842.551	-88.92
842.727	-39.76
842.903	160.94
843.079	-66.39
843.255	109.74
843.431	50.35
843.607	33.96
843.783	-131.92
843.959	81.07
844.134	9.39
844.31	70.83
844.486	-43.86
844.662	-25.43
844.838	21.67
845.013	68.78
845.189	101.55
845.365	25.77
845.541	-21.33
845.716	-45.91
845.892	5.29
846.068	-25.43
846.244	3.24
846.419	99.5
846.595	31.91
846.77	-70.48
846.946	148.65
847.122	-105.3
847.297	33.96
847.473	52.39
847.648	-15.19
847.824	31.91
847.999	-119.64
848.175	38.06
848.35	19.63
848.526	79.02
848.701	36.01
848.876	89.26
849.052	1.19
849.227	52.39
849.403	-43.86
849.578	-4.95
849.753	29.87
849.929	119.98
850.104	-31.57
850.279	-35.67
850.454	70.83
850.63	-7
850.805	36.01
850.98	-33.62
851.155	66.73
851.33	23.72
851.505	-52.05
851.681	126.12
851.856	-101.2
852.031	3.24
852.206	50.35
852.381	-54.1
852.556	-13.14
852.731	9.39
852.906	38.06
853.081	23.72
853.256	111.78
853.431	-17.24
853.606	-7
853.781	-13.14
853.956	-109.4
854.131	109.74
854.305	-50
854.48	9.39
854.655	-41.81
854.83	15.53
855.005	31.91
855.18	64.68
855.354	-23.38
855.529	15.53
855.704	-11.09
855.879	66.73
856.053	17.58
856.228	-0.85
856.403	-64.34
856.577	52.39
856.752	-54.1
856.926	81.07
857.101	38.06
857.276	-72.53
857.45	33.96
857.625	99.5
857.799	-25.43
857.974	-33.62
858.148	-99.16
858.323	62.63
858.497	-2.9
858.672	-35.67
858.846	-13.14
859.02	162.98
859.195	-74.58
859.369	52.39
859.543	-37.72
859.718	21.67
859.892	66.73
860.066	-33.62
860.241	-54.1
860.415	-43.86
860.589	29.87
860.763	97.45
860.938	-21.33
861.112	36.01
861.286	36.01
861.46	-66.39
861.634	-7
861.808	68.78
861.982	-43.86
862.157	-140.12
862.331	-4.95
862.505	-138.07
862.679	-95.06
862.853	-25.43
863.027	-25.43
863.201	115.88
863.375	-41.81
863.549	-17.24
863.722	17.58
863.896	93.35
864.07	-80.72
864.244	-13.14
864.418	29.87
864.592	-17.24
864.766	95.4
864.939	27.82
865.113	-103.25
865.287	91.31
865.461	-31.57
865.634	-9.05
865.808	13.48
865.982	9.39
866.156	-47.96
866.329	-21.33
866.503	-68.44
866.676	27.82
866.85	29.87
867.024	-50
867.197	126.12
867.371	54.44
867.544	25.77
867.718	21.67
867.891	111.78
868.065	17.58
868.238	-7
868.412	54.44
868.585	89.26
868.759	-23.38
868.932	-29.52
869.105	-74.58
869.279	50.35
869.452	-60.24
869.625	64.68
869.799	-64.34
869.972	-43.86
870.145	36.01
870.319	56.49
870.492	-25.43
870.665	-27.48
870.838	-45.91
871.011	-138.07
871.185	-45.91
871.358	3.24
871.531	27.82
871.704	-82.77
871.877	-21.33
872.05	-27.48
872.223	-68.44
872.396	103.59
872.569	29.87
872.742	-97.11
872.915	40.11
873.088	-21.33
873.261	-62.29
873.434	111.78
873.607	-54.1
873.78	31.91
873.953	-109.4
874.126	42.15
874.299	27.82
874.471	44.2
874.644	40.11
874.817	-11.09
874.99	216.23
875.163	-11.09
875.335	3.24
875.508	-45.91
875.681	89.26
875.853	-29.52
876.026	-31.57
876.199	126.12
876.371	-9.05
876.544	-19.29
876.717	11.43
876.889	15.53
877.062	70.83
877.234	-29.52
877.407	-7
877.579	-11.09
877.752	-45.91
877.924	46.25
878.097	60.59
878.269	54.44
878.442	21.67
878.614	40.11
878.786	17.58
878.959	19.63
879.131	27.82
879.303	-105.3
879.476	60.59
879.648	101.55
879.82	23.72
879.993	-45.91
880.165	-2.9
880.337	-78.68
880.509	-17.24
880.681	-62.29
880.854	-15.19
881.026	60.59
881.198	132.26
881.37	5.29
881.542	-21.33
881.714	13.48
881.886	-41.81
882.058	17.58
882.23	-9.05
882.402	-64.34
882.574	3.24
882.746	52.39
882.918	76.97
883.09	-19.29
883.262	-25.43
883.434	64.68
883.606	-99.16
883.778	-72.53
883.95	83.11
884.122	-37.72
884.293	109.74
884.465	-21.33
884.637	89.26
884.809	-4.95
884.98	38.06
885.152	152.74
885.324	109.74
885.496	-70.48
885.667	-0.85
885.839	-37.72
886.011	132.26
886.182	42.15
886.354	115.88
886.525	27.82
886.697	3.24
886.869	-2.9
887.04	-0.85
887.212	124.07
887.383	146.6
887.555	31.91
887.726	-88.92
887.897	15.53
888.069	46.25
888.24	85.16
888.412	-13.14
888.583	-64.34
888.754	5.29
888.926	-111.44
889.097	-68.44
889.268	3.24
889.44	9.39
889.611	-37.72
889.782	-35.67
889.953	-29.52
890.125	62.63
890.296	-45.91
890.467	17.58
890.638	-25.43
890.809	48.3
890.98	-47.96
891.151	48.3
891.323	36.01
891.494	31.91
891.665	-13.14
891.836	46.25
892.007	17.58
892.178	-37.72
892.349	-17.24
892.52	-45.91
892.691	17.58
892.862	-127.83
893.032	-58.2
893.203	-9.05
893.374	115.88
893.545	48.3
893.716	-45.91
893.887	36.01
894.057	-37.72
894.228	38.06
894.399	-33.62
894.57	89.26
894.74	40.11
894.911	13.48
895.082	-50
895.253	21.67
895.423	-2.9
895.594	138.41
895.764	70.83
895.935	-7
896.106	60.59
896.276	-47.96
896.447	-68.44
896.617	-43.86
896.788	-78.68
896.958	-84.82
897.129	-15.19
897.299	-76.63
897.47	60.59
897.64	111.78
897.81	72.87
897.981	40.11
898.151	-27.48
898.322	36.01
898.492	66.73
898.662	-31.57
898.832	-19.29
899.003	1.19
899.173	-7
899.343	-37.72
899.513	-111.44
