Data from USB4F104151__67__09-29-26-895.txt Node

Date: Wed Feb 26 09:29:26 EST 2025
User: louis
Spectrometer: USB4F10415
Trigger mode: 4
Integration Time (sec): 1.000000E-1
Scans to average: 1
Electric dark correction enabled: true
Nonlinearity correction enabled: false
Boxcar width: 0
XAxis mode: Wavelengths
Number of Pixels in Spectrum: 3648
>>>>>Begin Spectral Data<<<<<
178.204	-353.1
178.424	-353.1
178.644	-353.1
178.864	-346.96
179.084	-418.64
179.304	17.58
179.524	33.96
179.744	-15.19
179.964	-7
180.184	-56.15
180.404	103.59
180.624	33.96
180.844	-11.09
181.064	-90.96
181.283	-31.57
181.503	-43.86
181.723	66.73
181.943	-93.01
182.163	87.21
182.383	-64.34
182.602	15.53
182.822	99.5
183.042	23.72
183.262	-50
183.482	-23.38
183.701	-2.9
183.921	83.11
184.141	-76.63
184.361	19.63
184.58	50.35
184.8	44.2
185.02	-33.62
185.239	36.01
185.459	40.11
185.679	72.87
185.898	-78.68
186.118	15.53
186.338	-17.24
186.557	130.22
186.777	-88.92
186.997	-54.1
187.216	-52.05
187.436	201.9
187.655	17.58
187.875	81.07
188.095	3.24
188.314	74.92
188.534	89.26
188.753	-62.29
188.973	60.59
189.192	199.85
189.412	9.39
189.631	33.96
189.851	68.78
190.07	122.02
190.29	-60.24
190.509	58.54
190.729	-27.48
190.948	97.45
191.168	249
191.387	117.93
191.607	33.96
191.826	56.49
192.045	13.48
192.265	-50
192.484	9.39
192.704	13.48
192.923	-66.39
193.142	146.6
193.362	91.31
193.581	122.02
193.8	79.02
194.02	95.4
194.239	58.54
194.458	109.74
194.678	29.87
194.897	-47.96
195.116	23.72
195.335	29.87
195.555	70.83
195.774	-29.52
195.993	-45.91
196.212	-11.09
196.432	-47.96
196.651	-7
196.87	21.67
197.089	218.28
197.308	-0.85
197.528	68.78
197.747	-121.68
197.966	119.98
198.185	33.96
198.404	-17.24
198.623	97.45
198.842	70.83
199.062	91.31
199.281	48.3
199.5	-64.34
199.719	17.58
199.938	124.07
200.157	46.25
200.376	91.31
200.595	62.63
200.814	-27.48
201.033	-35.67
201.252	115.88
201.471	-4.95
201.69	93.35
201.909	56.49
202.128	46.25
202.347	50.35
202.566	-7
202.785	-76.63
203.004	33.96
203.223	269.48
203.442	111.78
203.661	-52.05
203.879	58.54
204.098	66.73
204.317	-37.72
204.536	83.11
204.755	9.39
204.974	38.06
205.193	-25.43
205.411	117.93
205.63	72.87
205.849	33.96
206.068	-29.52
206.287	-84.82
206.505	87.21
206.724	58.54
206.943	-47.96
207.162	-62.29
207.381	42.15
207.599	17.58
207.818	-19.29
208.037	-13.14
208.255	-72.53
208.474	50.35
208.693	58.54
208.911	-86.87
209.13	5.29
209.349	52.39
209.567	42.15
209.786	25.77
210.005	-17.24
210.223	-23.38
210.442	-154.45
210.661	5.29
210.879	-23.38
211.098	-11.09
211.316	89.26
211.535	15.53
211.753	-33.62
211.972	-13.14
212.191	13.48
212.409	-52.05
212.628	115.88
212.846	-54.1
213.065	33.96
213.283	54.44
213.502	-50
213.72	-2.9
213.938	-33.62
214.157	-31.57
214.375	95.4
214.594	-43.86
214.812	58.54
215.031	-88.92
215.249	17.58
215.467	-27.48
215.686	-35.67
215.904	56.49
216.122	-66.39
216.341	109.74
216.559	50.35
216.778	54.44
216.996	3.24
217.214	-19.29
217.432	-45.91
217.651	-78.68
217.869	25.77
218.087	-17.24
218.306	-99.16
218.524	31.91
218.742	-2.9
218.96	119.98
219.179	-25.43
219.397	42.15
219.615	195.75
219.833	29.87
220.051	-50
220.27	33.96
220.488	109.74
220.706	58.54
220.924	-41.81
221.142	-35.67
221.36	9.39
221.578	40.11
221.796	13.48
222.015	31.91
222.233	38.06
222.451	119.98
222.669	-25.43
222.887	66.73
223.105	-45.91
223.323	-58.2
223.541	-13.14
223.759	-19.29
223.977	5.29
224.195	89.26
224.413	27.82
224.631	44.2
224.849	52.39
225.067	177.32
225.285	-9.05
225.503	-72.53
225.721	-146.26
225.939	42.15
226.157	-7
226.375	195.75
226.592	-43.86
226.81	7.34
227.028	52.39
227.246	70.83
227.464	-17.24
227.682	132.26
227.9	17.58
228.117	38.06
228.335	38.06
228.553	-39.76
228.771	42.15
228.989	17.58
229.206	40.11
229.424	17.58
229.642	-62.29
229.86	-60.24
230.077	93.35
230.295	-60.24
230.513	136.36
230.731	68.78
230.948	160.94
231.166	103.59
231.384	-23.38
231.601	-50
231.819	54.44
232.037	-47.96
232.254	-13.14
232.472	48.3
232.689	-39.76
232.907	42.15
233.125	56.49
233.342	-58.2
233.56	11.43
233.777	-11.09
233.995	-27.48
234.213	74.92
234.43	-50
234.648	-31.57
234.865	5.29
235.083	54.44
235.3	58.54
235.518	42.15
235.735	99.5
235.953	27.82
236.17	-13.14
236.388	-7
236.605	38.06
236.822	79.02
237.04	81.07
237.257	52.39
237.475	-13.14
237.692	33.96
237.909	21.67
238.127	1.19
238.344	46.25
238.562	68.78
238.779	-107.35
238.996	-60.24
239.214	23.72
239.431	25.77
239.648	-29.52
239.865	1.19
240.083	56.49
240.3	3.24
240.517	-74.58
240.735	25.77
240.952	115.88
241.169	23.72
241.386	17.58
241.603	-29.52
241.821	-27.48
242.038	103.59
242.255	115.88
242.472	-136.02
242.689	38.06
242.907	54.44
243.124	-35.67
243.341	-43.86
243.558	-50
243.775	-72.53
243.992	-109.4
244.209	103.59
244.426	154.79
244.643	54.44
244.86	27.82
245.078	48.3
245.295	48.3
245.512	-33.62
245.729	-70.48
245.946	21.67
246.163	7.34
246.38	70.83
246.597	-17.24
246.814	31.91
247.031	25.77
247.248	-13.14
247.464	46.25
247.681	60.59
247.898	17.58
248.115	81.07
248.332	-31.57
248.549	152.74
248.766	169.13
248.983	83.11
249.2	-4.95
249.417	-39.76
249.633	-31.57
249.85	50.35
250.067	-31.57
250.284	27.82
250.501	50.35
250.717	1.19
250.934	-103.25
251.151	-17.24
251.368	31.91
251.585	-0.85
251.801	17.58
252.018	9.39
252.235	11.43
252.451	-105.3
252.668	-23.38
252.885	109.74
253.102	-7
253.318	-50
253.535	15.53
253.752	-47.96
253.968	64.68
254.185	-56.15
254.401	-33.62
254.618	-43.86
254.835	9.39
255.051	58.54
255.268	140.46
255.484	42.15
255.701	-2.9
255.917	13.48
256.134	-13.14
256.351	-39.76
256.567	-43.86
256.784	-27.48
257	-74.58
257.217	29.87
257.433	38.06
257.65	38.06
257.866	29.87
258.082	-15.19
258.299	-33.62
258.515	40.11
258.732	-52.05
258.948	21.67
259.165	64.68
259.381	-25.43
259.597	1.19
259.814	-2.9
260.03	11.43
260.246	-58.2
260.463	48.3
260.679	130.22
260.895	3.24
261.112	111.78
261.328	-17.24
261.544	-58.2
261.761	107.69
261.977	-37.72
262.193	-7
262.409	87.21
262.626	-7
262.842	-29.52
263.058	-4.95
263.274	79.02
263.49	3.24
263.707	46.25
263.923	58.54
264.139	-97.11
264.355	1.19
264.571	85.16
264.787	66.73
265.004	33.96
265.22	38.06
265.436	33.96
265.652	-25.43
265.868	31.91
266.084	-101.2
266.3	46.25
266.516	-23.38
266.732	-19.29
266.948	-74.58
267.164	-66.39
267.38	1.19
267.596	89.26
267.812	111.78
268.028	-21.33
268.244	-76.63
268.46	25.77
268.676	-56.15
268.892	-70.48
269.108	-76.63
269.324	-121.68
269.54	-125.78
269.756	87.21
269.972	-68.44
270.188	-47.96
270.403	-86.87
270.619	-31.57
270.835	38.06
271.051	-41.81
271.267	-72.53
271.483	21.67
271.698	17.58
271.914	-0.85
272.13	-11.09
272.346	48.3
272.562	54.44
272.777	119.98
272.993	-60.24
273.209	-68.44
273.425	3.24
273.64	-150.36
273.856	117.93
274.072	-52.05
274.287	-72.53
274.503	-52.05
274.719	-0.85
274.934	-7
275.15	-56.15
275.366	-2.9
275.581	-27.48
275.797	-70.48
276.012	81.07
276.228	-74.58
276.444	38.06
276.659	60.59
276.875	-7
277.09	-52.05
277.306	-52.05
277.521	-21.33
277.737	-11.09
277.952	70.83
278.168	36.01
278.383	27.82
278.599	-37.72
278.814	91.31
279.03	23.72
279.245	66.73
279.461	3.24
279.676	42.15
279.892	-64.34
280.107	-15.19
280.322	-109.4
280.538	-21.33
280.753	-47.96
280.969	58.54
281.184	-43.86
281.399	134.31
281.615	27.82
281.83	87.21
282.045	-72.53
282.26	-68.44
282.476	56.49
282.691	117.93
282.906	40.11
283.122	-62.29
283.337	-50
283.552	21.67
283.767	-37.72
283.983	79.02
284.198	-43.86
284.413	3.24
284.628	-33.62
284.843	68.78
285.058	38.06
285.274	-64.34
285.489	-70.48
285.704	66.73
285.919	-105.3
286.134	85.16
286.349	-86.87
286.564	13.48
286.779	42.15
286.995	19.63
287.21	-90.96
287.425	70.83
287.64	-9.05
287.855	58.54
288.07	-66.39
288.285	113.83
288.5	68.78
288.715	7.34
288.93	38.06
289.145	-33.62
289.36	50.35
289.575	-64.34
289.79	68.78
290.004	23.72
290.219	66.73
290.434	-11.09
290.649	-50
290.864	-2.9
291.079	-64.34
291.294	91.31
291.509	29.87
291.724	36.01
291.938	83.11
292.153	7.34
292.368	-70.48
292.583	-0.85
292.798	83.11
293.012	-39.76
293.227	13.48
293.442	-17.24
293.657	60.59
293.871	15.53
294.086	38.06
294.301	119.98
294.516	97.45
294.73	38.06
294.945	-23.38
295.16	-56.15
295.374	81.07
295.589	56.49
295.804	-64.34
296.018	33.96
296.233	103.59
296.447	-0.85
296.662	3.24
296.877	68.78
297.091	107.69
297.306	-11.09
297.52	-50
297.735	5.29
297.949	-9.05
298.164	19.63
298.378	-15.19
298.593	-72.53
298.807	-93.01
299.022	-47.96
299.236	36.01
299.451	-103.25
299.665	-39.76
299.88	5.29
300.094	-9.05
300.309	31.91
300.523	-39.76
300.737	-60.24
300.952	79.02
301.166	13.48
301.381	-93.01
301.595	-60.24
301.809	-54.1
302.024	1.19
302.238	-35.67
302.452	64.68
302.667	-43.86
302.881	36.01
303.095	56.49
303.309	1.19
303.524	25.77
303.738	17.58
303.952	-86.87
304.166	48.3
304.381	-74.58
304.595	93.35
304.809	17.58
305.023	62.63
305.237	-47.96
305.452	-58.2
305.666	85.16
305.88	64.68
306.094	119.98
306.308	50.35
306.522	68.78
306.736	60.59
306.95	17.58
307.164	-86.87
307.379	25.77
307.593	115.88
307.807	29.87
308.021	113.83
308.235	81.07
308.449	-31.57
308.663	25.77
308.877	142.5
309.091	21.67
309.305	25.77
309.519	-103.25
309.733	79.02
309.947	-101.2
310.161	44.2
310.374	-23.38
310.588	70.83
310.802	-64.34
311.016	-47.96
311.23	54.44
311.444	-9.05
311.658	70.83
311.872	72.87
312.085	79.02
312.299	130.22
312.513	136.36
312.727	50.35
312.941	-56.15
313.154	-23.38
313.368	9.39
313.582	-43.86
313.796	56.49
314.009	9.39
314.223	64.68
314.437	38.06
314.651	23.72
314.864	-4.95
315.078	-52.05
315.292	-148.31
315.505	1.19
315.719	62.63
315.933	-2.9
316.146	15.53
316.36	1.19
316.573	146.6
316.787	68.78
317.001	-9.05
317.214	-41.81
317.428	17.58
317.641	-23.38
317.855	-43.86
318.068	-17.24
318.282	-37.72
318.495	119.98
318.709	58.54
318.922	-68.44
319.136	81.07
319.349	79.02
319.563	-27.48
319.776	-66.39
319.99	-121.68
320.203	60.59
320.417	-35.67
320.63	50.35
320.843	132.26
321.057	11.43
321.27	-41.81
321.483	36.01
321.697	83.11
321.91	36.01
322.124	66.73
322.337	-0.85
322.55	-27.48
322.763	79.02
322.977	-31.57
323.19	-15.19
323.403	76.97
323.617	40.11
323.83	11.43
324.043	-4.95
324.256	13.48
324.469	50.35
324.683	64.68
324.896	11.43
325.109	7.34
325.322	-39.76
325.535	111.78
325.748	-2.9
325.962	1.19
326.175	9.39
326.388	46.25
326.601	70.83
326.814	-68.44
327.027	1.19
327.24	62.63
327.453	-125.78
327.666	36.01
327.879	29.87
328.092	72.87
328.305	5.29
328.518	9.39
328.731	-25.43
328.944	-27.48
329.157	-11.09
329.37	17.58
329.583	7.34
329.796	109.74
330.009	-99.16
330.222	99.5
330.435	91.31
330.648	66.73
330.861	-21.33
331.073	-31.57
331.286	83.11
331.499	-19.29
331.712	-31.57
331.925	48.3
332.138	1.19
332.35	62.63
332.563	9.39
332.776	89.26
332.989	-27.48
333.202	66.73
333.414	-31.57
333.627	-35.67
333.84	-37.72
334.053	-78.68
334.265	-0.85
334.478	-47.96
334.691	-13.14
334.903	-43.86
335.116	-47.96
335.329	-9.05
335.541	-7
335.754	72.87
335.966	-64.34
336.179	-9.05
336.392	9.39
336.604	-15.19
336.817	66.73
337.029	-23.38
337.242	19.63
337.454	105.64
337.667	31.91
337.88	9.39
338.092	46.25
338.305	38.06
338.517	-97.11
338.729	-4.95
338.942	62.63
339.154	-129.88
339.367	-23.38
339.579	52.39
339.792	-4.95
340.004	99.5
340.217	-64.34
340.429	17.58
340.641	-52.05
340.854	-15.19
341.066	-47.96
341.278	140.46
341.491	124.07
341.703	19.63
341.915	-11.09
342.128	76.97
342.34	13.48
342.552	-45.91
342.764	-25.43
342.977	-35.67
343.189	21.67
343.401	3.24
343.613	-50
343.826	11.43
344.038	-17.24
344.25	-17.24
344.462	-15.19
344.674	91.31
344.886	-25.43
345.099	93.35
345.311	62.63
345.523	-74.58
345.735	-80.72
345.947	25.77
346.159	19.63
346.371	3.24
346.583	-9.05
346.795	70.83
347.007	-17.24
347.219	109.74
347.431	29.87
347.643	99.5
347.855	-56.15
348.067	140.46
348.279	-74.58
348.491	-35.67
348.703	13.48
348.915	-7
349.127	-50
349.339	17.58
349.551	-80.72
349.763	9.39
349.975	15.53
350.187	-11.09
350.399	42.15
350.61	68.78
350.822	-25.43
351.034	85.16
351.246	25.77
351.458	-17.24
351.669	64.68
351.881	58.54
352.093	66.73
352.305	52.39
352.517	40.11
352.728	87.21
352.94	-52.05
353.152	58.54
353.363	-60.24
353.575	48.3
353.787	152.74
353.999	-31.57
354.21	109.74
354.422	-172.88
354.633	-15.19
354.845	17.58
355.057	19.63
355.268	-23.38
355.48	74.92
355.692	-66.39
355.903	42.15
356.115	-66.39
356.326	-19.29
356.538	138.41
356.749	17.58
356.961	107.69
357.172	23.72
357.384	-54.1
357.595	177.32
357.807	-64.34
358.018	58.54
358.23	-31.57
358.441	74.92
358.653	38.06
358.864	13.48
359.075	-105.3
359.287	42.15
359.498	95.4
359.709	46.25
359.921	17.58
360.132	5.29
360.344	74.92
360.555	13.48
360.766	7.34
360.977	25.77
361.189	48.3
361.4	-0.85
361.611	87.21
361.823	105.64
362.034	-11.09
362.245	-15.19
362.456	17.58
362.667	19.63
362.879	7.34
363.09	33.96
363.301	13.48
363.512	42.15
363.723	25.77
363.935	-47.96
364.146	56.49
364.357	-47.96
364.568	-21.33
364.779	1.19
364.99	68.78
365.201	-31.57
365.412	74.92
365.623	-88.92
365.834	25.77
366.045	25.77
366.256	54.44
366.467	33.96
366.678	1.19
366.889	-47.96
367.1	-31.57
367.311	33.96
367.522	-93.01
367.733	64.68
367.944	19.63
368.155	19.63
368.366	74.92
368.577	38.06
368.788	119.98
368.999	-7
369.209	-74.58
369.42	156.84
369.631	150.7
369.842	72.87
370.053	15.53
370.264	115.88
370.474	-47.96
370.685	50.35
370.896	-103.25
371.107	146.6
371.317	85.16
371.528	-0.85
371.739	109.74
371.95	15.53
372.16	11.43
372.371	1.19
372.582	-37.72
372.792	36.01
373.003	11.43
373.214	-11.09
373.424	56.49
373.635	-103.25
373.846	58.54
374.056	54.44
374.267	52.39
374.477	46.25
374.688	-47.96
374.898	58.54
375.109	19.63
375.319	17.58
375.53	107.69
375.74	136.36
375.951	17.58
376.161	40.11
376.372	103.59
376.582	-78.68
376.793	25.77
377.003	-47.96
377.214	-64.34
377.424	54.44
377.635	58.54
377.845	-47.96
378.055	152.74
378.266	-23.38
378.476	-9.05
378.686	29.87
378.897	50.35
379.107	50.35
379.317	33.96
379.528	-27.48
379.738	126.12
379.948	-101.2
380.158	15.53
380.369	40.11
380.579	95.4
380.789	-64.34
380.999	52.39
381.21	31.91
381.42	107.69
381.63	25.77
381.84	29.87
382.05	48.3
382.261	115.88
382.471	122.02
382.681	-125.78
382.891	91.31
383.101	1.19
383.311	-56.15
383.521	-54.1
383.731	42.15
383.941	101.55
384.151	-4.95
384.361	76.97
384.571	54.44
384.781	103.59
384.991	72.87
385.201	99.5
385.411	54.44
385.621	25.77
385.831	7.34
386.041	-41.81
386.251	40.11
386.461	58.54
386.671	-25.43
386.881	-25.43
387.091	33.96
387.301	101.55
387.511	42.15
387.72	23.72
387.93	68.78
388.14	-58.2
388.35	7.34
388.56	105.64
388.769	74.92
388.979	89.26
389.189	-17.24
389.399	-31.57
389.609	25.77
389.818	29.87
390.028	74.92
390.238	64.68
390.447	42.15
390.657	-27.48
390.867	-39.76
391.076	-62.29
391.286	-37.72
391.496	-7
391.705	-0.85
391.915	83.11
392.125	50.35
392.334	-13.14
392.544	99.5
392.753	31.91
392.963	-31.57
393.172	42.15
393.382	27.82
393.591	74.92
393.801	-54.1
394.01	87.21
394.22	74.92
394.429	-31.57
394.639	9.39
394.848	66.73
395.058	15.53
395.267	-80.72
395.477	42.15
395.686	3.24
395.895	115.88
396.105	138.41
396.314	-60.24
396.524	36.01
396.733	-17.24
396.942	146.6
397.152	76.97
397.361	107.69
397.57	-0.85
397.78	9.39
397.989	54.44
398.198	150.7
398.407	46.25
398.617	-7
398.826	33.96
399.035	-56.15
399.244	105.64
399.453	-31.57
399.663	-33.62
399.872	31.91
400.081	-23.38
400.29	70.83
400.499	-52.05
400.708	105.64
400.917	31.91
401.127	-23.38
401.336	-101.2
401.545	167.08
401.754	103.59
401.963	87.21
402.172	-4.95
402.381	25.77
402.59	-35.67
402.799	-78.68
403.008	81.07
403.217	54.44
403.426	103.59
403.635	-82.77
403.844	-35.67
404.053	-88.92
404.262	-80.72
404.471	87.21
404.68	50.35
404.888	38.06
405.097	-25.43
405.306	23.72
405.515	17.58
405.724	-41.81
405.933	97.45
406.142	31.91
406.35	5.29
406.559	-4.95
406.768	93.35
406.977	50.35
407.185	46.25
407.394	31.91
407.603	-138.07
407.812	25.77
408.02	25.77
408.229	17.58
408.438	7.34
408.646	-84.82
408.855	44.2
409.064	1.19
409.272	-13.14
409.481	42.15
409.69	-103.25
409.898	-56.15
410.107	38.06
410.315	99.5
410.524	-25.43
410.733	44.2
410.941	33.96
411.15	27.82
411.358	54.44
411.567	93.35
411.775	7.34
411.984	21.67
412.192	97.45
412.401	-9.05
412.609	107.69
412.818	66.73
413.026	42.15
413.234	64.68
413.443	13.48
413.651	-23.38
413.86	-29.52
414.068	130.22
414.276	165.03
414.485	-27.48
414.693	33.96
414.901	124.07
415.11	-35.67
415.318	66.73
415.526	56.49
415.734	50.35
415.943	19.63
416.151	97.45
416.359	33.96
416.567	-35.67
416.776	1.19
416.984	85.16
417.192	113.83
417.4	-39.76
417.608	-29.52
417.817	-45.91
418.025	70.83
418.233	140.46
418.441	-68.44
418.649	-35.67
418.857	42.15
419.065	140.46
419.273	-80.72
419.481	19.63
419.689	58.54
419.897	13.48
420.105	-105.3
420.313	66.73
420.521	99.5
420.729	58.54
420.937	58.54
421.145	-33.62
421.353	15.53
421.561	138.41
421.769	50.35
421.977	-54.1
422.185	70.83
422.393	-23.38
422.601	17.58
422.809	107.69
423.017	-2.9
423.224	81.07
423.432	-0.85
423.64	-93.01
423.848	48.3
424.056	-78.68
424.263	33.96
424.471	-33.62
424.679	64.68
424.887	-64.34
425.094	83.11
425.302	27.82
425.51	-27.48
425.718	150.7
425.925	169.13
426.133	-4.95
426.341	144.55
426.548	-39.76
426.756	42.15
426.964	52.39
427.171	-58.2
427.379	70.83
427.586	29.87
427.794	113.83
428.001	48.3
428.209	13.48
428.417	185.51
428.624	83.11
428.832	52.39
429.039	38.06
429.247	68.78
429.454	181.42
429.662	107.69
429.869	83.11
430.076	50.35
430.284	99.5
430.491	138.41
430.699	31.91
430.906	156.84
431.114	21.67
431.321	171.18
431.528	74.92
431.736	136.36
431.943	58.54
432.15	48.3
432.358	197.8
432.565	201.9
432.772	5.29
432.979	126.12
433.187	74.92
433.394	115.88
433.601	58.54
433.808	113.83
434.016	173.22
434.223	105.64
434.43	74.92
434.637	257.19
434.844	142.5
435.052	111.78
435.259	205.99
435.466	208.04
435.673	181.42
435.88	203.94
436.087	263.33
436.294	265.38
436.501	191.66
436.708	222.38
436.915	162.98
437.122	281.77
437.329	154.79
437.537	263.33
437.743	246.95
437.95	332.97
438.157	361.64
438.364	263.33
438.571	273.57
438.778	394.4
438.985	294.05
439.192	341.16
439.399	332.97
439.606	343.21
439.813	423.08
440.02	517.28
440.227	515.23
440.433	533.67
440.64	474.28
440.847	472.23
441.054	527.52
441.261	574.63
441.467	556.19
441.674	402.6
441.881	603.3
442.088	545.95
442.294	656.54
442.501	715.94
442.708	644.26
442.914	650.4
443.121	668.83
443.328	730.27
443.534	754.85
443.741	754.85
443.948	658.59
444.154	779.42
444.361	980.12
444.568	892.06
444.774	763.04
444.981	750.75
445.187	982.17
445.394	980.12
445.6	910.49
445.807	1158.3
446.013	1049.75
446.22	1025.18
446.426	1201.3
446.633	1242.26
446.839	1332.37
447.046	1264.79
447.252	1291.41
447.459	1307.8
447.665	1342.61
447.871	1547.41
448.078	1600.66
448.284	1590.42
448.491	1709.2
448.697	1746.06
448.903	1819.79
449.11	1850.51
449.316	1846.41
449.522	1940.62
449.728	2045.07
449.935	2141.32
450.141	2147.47
450.347	2299.02
450.553	2167.95
450.76	2401.41
450.966	2466.95
451.172	2550.92
451.378	2675.84
451.584	2659.46
451.791	2786.43
451.997	2860.16
452.203	3032.19
452.409	3114.11
452.615	3241.08
452.821	3368.06
453.027	3245.18
453.233	3677.3
453.44	3611.76
453.646	3732.59
453.852	3941.49
454.058	4037.74
454.264	4211.82
454.47	4414.57
454.676	4514.92
454.882	4858.98
455.088	4641.89
455.294	4932.7
455.5	5280.86
455.705	5395.54
455.911	5391.45
456.117	5635.16
456.323	5905.49
456.529	5739.6
456.735	6573.13
456.941	6597.7
457.147	6849.6
457.352	7001.15
457.558	7232.57
457.764	7523.38
457.97	7752.76
458.176	8188.97
458.381	8639.53
458.587	8907.81
458.793	9124.9
458.999	9118.75
459.204	10308.62
459.41	10642.44
459.616	10664.97
459.821	11047.94
460.027	11305.98
460.233	11981.81
460.438	12223.47
460.644	12831.72
460.85	13005.8
461.055	13448.16
461.261	14050.26
461.466	13738.97
461.672	14035.92
461.878	15836.09
462.083	15727.55
462.289	15973.3
462.494	16706.48
462.7	16722.86
462.905	16962.47
463.111	18244.5
463.316	19141.51
463.522	19217.29
463.727	19929.98
463.932	20867.95
464.138	21498.72
464.343	22164.31
464.549	22412.12
464.754	24042.3
464.959	24890.16
465.165	25156.39
465.37	25006.89
465.575	25248.55
465.781	26784.53
465.986	27435.78
466.191	27335.43
466.397	27095.82
466.602	26764.05
466.807	28154.62
467.012	28625.65
467.218	29121.26
467.423	29348.59
467.628	30196.45
467.833	31957.7
468.038	30849.75
468.244	30558.94
468.449	32103.1
468.654	31898.31
468.859	31193.81
469.064	31355.6
469.269	30724.82
469.474	31075.02
469.679	31972.03
469.885	31005.39
470.09	31693.51
470.295	31451.85
470.5	31156.94
470.705	31089.36
470.91	30405.34
471.115	30227.17
471.32	30419.67
471.525	30391
471.73	29446.89
471.935	28906.23
472.139	27996.93
472.344	28400.38
472.549	28035.84
472.754	27372.3
472.959	27003.66
473.164	26080.03
473.369	25604.9
473.574	26370.84
473.778	25525.03
473.983	25430.82
474.188	24902.45
474.393	23819.07
474.598	23499.59
474.802	23368.52
475.007	22854.48
475.212	22936.4
475.417	21818.21
475.621	21853.02
475.826	21357.41
476.031	20710.25
476.235	20218.74
476.44	20450.16
476.645	19825.53
476.849	19340.16
477.054	19299.2
477.259	18944.91
477.463	18910.09
477.668	18340.75
477.872	18228.12
478.077	17660.83
478.282	17501.09
478.486	17390.5
478.691	17032.1
478.895	16970.66
479.1	16724.91
479.304	16602.03
479.509	15971.25
479.713	16202.68
479.918	15748.03
480.122	15541.18
480.326	15725.5
480.531	15676.35
480.735	15377.34
480.94	15207.36
481.144	15532.99
481.348	14803.91
481.553	14943.17
481.757	14367.7
481.961	14492.62
482.166	14803.91
482.37	14537.68
482.574	14162.9
482.778	14060.5
482.983	14207.95
483.187	14121.94
483.391	13896.66
483.595	13794.26
483.8	13519.84
484.004	13419.49
484.208	13341.66
484.412	13269.98
484.616	13106.15
484.821	12932.07
485.025	12757.99
485.229	12805.1
485.433	12260.34
485.637	12448.75
485.841	11930.61
486.045	11893.75
486.249	12114.93
486.453	11504.64
486.657	11277.31
486.861	11283.45
487.065	10814.47
487.269	11144.19
487.473	10720.26
487.677	10716.17
487.881	10605.58
488.085	10402.83
488.289	10351.63
488.493	9944.08
488.697	9802.77
488.901	9606.17
489.105	9176.09
489.309	9348.12
489.512	9233.44
489.716	9004.07
489.92	8762.4
490.124	8645.67
490.328	8506.41
490.531	8242.22
490.735	8201.26
490.939	7980.08
491.143	7717.94
491.346	7654.45
491.55	7707.7
491.754	7535.67
491.958	7427.13
492.161	7316.54
492.365	6997.06
492.569	6939.71
492.772	6782.02
492.976	6806.59
493.18	6816.83
493.383	6702.15
493.587	6526.02
493.79	6435.91
493.994	6134.86
494.197	6306.89
494.401	6249.55
494.605	5897.3
494.808	5968.98
495.012	5870.67
495.215	5940.3
495.419	5858.39
495.622	5727.32
495.825	5815.38
496.029	5758.03
496.232	5764.18
496.436	5655.64
496.639	5733.46
496.843	5567.57
497.046	5430.36
497.249	5586.01
497.453	5538.9
497.656	5465.18
497.859	5375.06
498.063	5448.79
498.266	5545.05
498.469	5526.61
498.673	5428.31
498.876	5540.95
499.079	5448.79
499.282	5559.38
499.485	5743.7
499.689	5413.98
499.892	5682.26
500.095	5512.28
500.298	5561.43
500.501	5553.24
500.705	5651.54
500.908	5839.95
501.111	5629.01
501.314	5866.58
501.517	5626.96
501.72	5788.75
501.923	5700.69
502.126	5854.29
502.329	6104.14
502.532	6048.85
502.735	5948.5
502.938	6153.29
503.141	6149.2
503.344	6093.9
503.547	6306.89
503.75	6405.19
503.953	6288.46
504.156	6450.25
504.359	6399.05
504.562	6474.82
504.765	6726.72
504.968	6714.44
505.17	6945.86
505.373	6990.91
505.576	7042.11
505.779	7087.17
505.982	7169.09
506.185	7443.51
506.387	7519.29
506.59	7650.36
506.793	7683.13
506.996	7638.07
507.198	8059.95
507.401	8066.1
507.604	8332.33
507.807	8322.09
508.009	8608.81
508.212	8543.27
508.415	8770.6
508.617	8870.95
508.82	8940.58
509.022	9149.47
509.225	9477.15
509.428	9382.94
509.63	9778.2
509.833	10011.67
510.035	10351.63
510.238	10335.24
510.44	10798.09
510.643	10667.02
510.845	11174.91
511.048	11246.59
511.25	11449.34
511.453	11729.91
511.655	12264.43
511.858	12303.34
512.06	12557.29
512.262	12835.81
512.465	12817.38
512.667	13267.94
512.87	13661.15
513.072	13861.85
513.274	14355.41
513.477	14504.91
513.679	14549.96
513.881	15092.68
514.084	15811.51
514.286	15850.42
514.488	16020.41
514.69	16655.28
514.893	16847.79
515.095	17099.69
515.297	17662.88
515.499	17796
515.701	18013.08
515.904	18690.96
516.106	19317.64
516.308	19606.4
516.51	19901.31
516.712	20224.89
516.914	20800.37
517.116	21257.06
517.318	21185.38
517.52	21728.1
517.722	22164.31
517.925	22504.28
518.127	23042.89
518.329	23352.13
518.531	23532.36
518.733	24185.66
518.935	24650.55
519.136	24986.41
519.338	25531.17
519.54	25797.41
519.742	26675.99
519.944	26555.16
520.146	26905.36
520.348	27304.71
520.55	27726.6
520.752	28087.04
520.954	28707.57
521.155	28730.1
521.357	29086.45
521.559	29401.83
521.761	30182.11
521.963	30311.13
522.164	30628.57
522.366	30403.29
522.568	31171.28
522.77	31414.99
522.971	31705.8
523.173	31535.82
523.375	32289.47
523.576	32070.34
523.778	31929.03
523.98	32860.85
524.181	32697.02
524.383	33114.8
524.584	32907.96
524.786	33000.12
524.988	32940.72
525.189	33415.85
525.391	33495.72
525.592	33692.33
525.794	33594.03
525.995	33508.01
526.197	33354.41
526.398	33266.35
526.6	33612.46
526.801	33284.78
527.003	33168.05
527.204	33006.26
527.406	33542.83
527.607	32991.92
527.808	33395.37
528.01	32600.76
528.211	32871.09
528.412	32854.71
528.614	32385.72
528.815	32053.95
529.016	32070.34
529.218	31457.99
529.419	31709.89
529.62	31380.17
529.822	31175.37
530.023	30745.3
530.224	30460.63
530.425	30143.2
530.626	29704.93
530.828	29725.41
531.029	29459.18
531.23	29174.51
531.431	28834.55
531.632	28465.91
531.833	28416.76
532.035	27890.43
532.236	27415.3
532.437	27400.97
532.638	26755.86
532.839	26465.05
533.04	26450.71
533.241	25609
533.442	26192.67
533.643	25328.42
533.844	24896.3
534.045	24894.25
534.246	24142.65
534.447	24224.57
534.648	23612.23
534.849	23327.56
535.05	23038.8
535.251	22776.66
535.451	22559.57
535.652	22295.38
535.853	21943.13
536.054	21744.48
536.255	21400.42
536.456	20829.04
536.657	20628.34
536.857	20413.3
537.058	20210.55
537.259	20161.4
537.46	19712.89
537.66	19288.96
537.861	19399.55
538.062	18938.76
538.263	18498.45
538.463	18303.89
538.664	18330.51
538.865	18086.81
539.065	18045.85
539.266	17429.41
539.466	17337.25
539.667	16931.75
539.868	17009.58
540.068	16729
540.269	16450.48
540.469	16513.97
540.67	16004.02
540.87	16055.22
541.071	15764.41
541.271	15594.43
541.472	15545.28
541.672	15205.31
541.873	14980.04
542.073	14859.21
542.274	14734.28
542.474	14691.27
542.675	14341.07
542.875	14420.94
543.075	13976.53
543.276	13644.76
543.476	13849.56
543.676	13566.94
543.877	13431.77
544.077	13444.06
544.277	13216.74
544.478	13009.89
544.678	12887.01
544.878	12725.22
545.078	12397.55
545.279	12430.32
545.479	12202.99
545.679	12139.51
545.879	11893.75
546.079	11893.75
546.28	11686.9
546.48	11467.77
546.68	11633.66
546.88	11305.98
547.08	11336.7
547.28	11162.62
547.48	10691.59
547.68	10849.29
547.88	10716.17
548.081	10462.22
548.281	10208.27
548.481	10132.5
548.681	10060.82
548.881	10075.15
549.081	9954.32
549.28	9757.72
549.48	9614.36
549.68	9491.48
549.88	9427.99
550.08	9245.73
550.28	9022.5
550.48	9151.52
550.68	8934.43
550.88	8809.51
551.08	8660.01
551.279	8717.35
551.479	8182.83
551.679	8428.59
551.879	7992.37
552.079	7965.75
552.278	7799.86
552.478	8018.99
552.678	7803.96
552.878	7562.3
553.077	7447.61
553.277	7132.22
553.477	7296.06
553.676	7074.88
553.876	7128.13
554.076	6720.58
554.275	6730.82
554.475	6599.75
554.674	6753.35
554.874	6417.48
555.074	6233.16
555.273	6241.36
555.473	6241.36
555.672	5973.07
555.872	5944.4
556.071	5915.73
556.271	5964.88
556.47	5657.68
556.67	5602.39
556.869	5538.9
557.068	5434.46
557.268	5221.47
557.467	5354.58
557.667	5250.14
557.866	5125.21
558.065	4930.66
558.265	4846.69
558.464	4666.47
558.663	4787.3
558.863	4744.29
559.062	4703.33
559.261	4510.82
559.461	4553.83
559.66	4447.33
559.859	4191.34
560.058	4142.19
560.258	4119.66
560.457	4162.67
560.656	4088.94
560.855	3783.79
561.054	4082.8
561.253	3966.06
561.453	3884.14
561.652	3880.05
561.851	3687.54
562.05	3570.8
562.249	3398.77
562.448	3689.59
562.647	3366.01
562.846	3314.81
563.045	3282.04
563.244	3257.46
563.443	3353.72
563.642	3142.78
563.841	3095.68
564.04	3052.67
564.239	3081.34
564.438	3007.61
564.637	2913.41
564.836	2854.02
565.035	2778.24
565.234	2905.21
565.432	2704.51
565.631	2786.43
565.83	2790.53
566.029	2604.16
566.228	2569.35
566.427	2761.86
566.625	2346.12
566.824	2483.33
567.023	2544.77
567.222	2395.27
567.42	2333.83
567.619	2331.78
567.818	2337.93
568.016	2442.37
568.215	2323.59
568.414	2260.1
568.612	2174.09
568.811	2241.67
569.01	2053.26
569.208	2034.83
569.407	2073.74
569.605	2118.79
569.804	1914
570.002	1952.91
570.201	1938.57
570.4	1918.09
570.598	1823.89
570.797	1864.85
570.995	1848.46
571.193	1838.22
571.392	1768.59
571.59	1688.72
571.789	1774.74
571.987	1664.15
572.186	1737.87
572.384	1676.43
572.582	1563.79
572.781	1713.3
572.979	1449.11
573.177	1582.23
573.376	1504.4
573.574	1445.01
573.772	1467.54
573.971	1445.01
574.169	1328.28
574.367	1379.48
574.565	1375.38
574.763	1277.08
574.962	1250.46
575.16	1275.03
575.358	1248.41
575.556	1283.22
575.754	1236.12
575.952	1162.39
576.151	1197.21
576.349	1223.83
576.547	1049.75
576.745	1123.48
576.943	1103
577.141	1033.37
577.339	1025.18
577.537	1117.34
577.735	1059.99
577.933	1080.47
578.131	976.03
578.329	1129.63
578.527	1049.75
578.725	994.46
578.923	818.33
579.121	894.11
579.319	799.9
579.516	894.11
579.714	1176.73
579.912	828.57
580.11	775.33
580.308	785.57
580.506	820.38
580.704	730.27
580.901	810.14
581.099	851.1
581.297	763.04
581.495	720.03
581.692	746.66
581.89	763.04
582.088	679.07
582.285	689.31
582.483	754.85
582.681	724.13
582.878	668.83
583.076	660.64
583.274	693.41
583.471	738.46
583.669	580.77
583.866	603.3
584.064	595.11
584.262	513.19
584.459	662.69
584.657	541.86
584.854	613.54
585.052	603.3
585.249	656.54
585.447	662.69
585.644	507.04
585.841	552.1
586.039	564.39
586.236	636.06
586.434	464.04
586.631	486.56
586.828	427.17
587.026	443.56
587.223	449.7
587.42	484.52
587.618	554.15
587.815	591.01
588.012	533.67
588.21	361.64
588.407	525.47
588.604	539.81
588.801	439.46
588.999	400.55
589.196	533.67
589.393	418.98
589.59	478.37
589.787	453.8
589.984	423.08
590.182	464.04
590.379	361.64
590.576	414.88
590.773	470.18
590.97	484.52
591.167	455.84
591.364	502.95
591.561	328.87
591.758	447.65
591.955	486.56
592.152	318.63
592.349	396.45
592.546	429.22
592.743	289.96
592.94	427.17
593.137	459.94
593.334	355.49
593.531	449.7
593.727	476.32
593.924	447.65
594.121	418.98
594.318	378.02
594.515	386.21
594.712	480.42
594.908	472.23
595.105	302.25
595.302	480.42
595.499	443.56
595.696	601.25
595.892	427.17
596.089	478.37
596.286	421.03
596.482	580.77
596.679	537.76
596.876	468.13
597.072	607.39
597.269	566.43
597.466	623.78
597.662	541.86
597.859	517.28
598.055	513.19
598.252	548
598.448	652.45
598.645	758.94
598.841	736.42
599.038	810.14
599.234	851.1
599.431	826.53
599.627	783.52
599.824	797.85
600.02	822.43
600.217	902.3
600.413	971.93
600.609	935.07
600.806	1211.54
601.002	1047.71
601.198	986.27
601.395	1127.58
601.591	1070.23
601.787	1115.29
601.984	1307.8
602.18	1264.79
602.376	1260.7
602.572	1451.16
602.769	1537.17
602.965	1479.83
603.161	1701.01
603.357	1692.82
603.553	1760.4
603.75	1688.72
603.946	1746.06
604.142	1832.08
604.338	1973.39
604.534	1846.41
604.73	2040.97
604.926	2122.89
605.122	2208.9
605.318	2184.33
605.514	2321.54
605.71	2319.5
605.906	2507.91
606.102	2571.4
606.298	2653.31
606.494	2733.18
606.69	2901.12
606.886	2782.34
607.082	2854.02
607.278	3024
607.474	3187.83
607.67	3208.31
607.866	3171.45
608.062	3263.61
608.257	3333.24
608.453	3316.86
608.649	3564.66
608.845	3693.68
609.041	3742.83
609.236	3878
609.432	4047.98
609.628	4236.39
609.824	4330.6
610.019	4228.2
610.215	4492.39
610.411	4557.93
610.606	4758.63
610.802	4686.95
610.998	4803.68
611.193	5178.46
611.389	4920.42
611.584	5459.03
611.78	5413.98
611.976	5641.3
612.171	5790.8
612.367	5872.72
612.562	5995.6
612.758	6114.38
612.953	6200.4
613.149	6480.97
613.344	6622.28
613.539	6794.31
613.735	7177.28
613.93	7371.83
614.126	7441.47
614.321	7713.84
614.517	7812.15
614.712	7965.75
614.907	8107.05
615.103	8438.83
615.298	8602.66
615.493	8617
615.688	8875.04
615.884	9460.76
616.079	9288.73
616.274	9962.51
616.47	10077.2
616.665	10234.89
616.86	10402.83
617.055	10716.17
617.25	10814.47
617.445	11402.24
617.641	11355.13
617.836	11752.44
618.031	11994.1
618.226	12411.89
618.421	12698.6
618.616	13226.98
618.811	13077.48
619.006	13648.86
619.201	13945.81
619.396	14080.98
619.591	14283.73
619.786	14791.62
619.981	14824.39
620.176	15592.38
620.371	15406.02
620.566	15862.71
620.761	16321.46
620.956	16870.31
621.151	16665.52
621.346	17306.53
621.541	17281.95
621.735	17974.17
621.93	17902.49
622.125	18549.65
622.32	18631.57
622.515	19284.87
622.709	19624.83
622.904	20038.52
623.099	20206.45
623.294	20790.13
623.488	20618.1
623.683	21351.27
623.878	21517.15
624.072	22365.01
624.267	22346.58
624.462	22754.13
624.656	22666.06
624.851	23255.88
625.046	23702.34
625.24	24126.27
625.435	24206.14
625.629	24828.72
625.824	25097
626.018	25353
626.213	25127.72
626.407	25975.58
626.602	25887.52
626.796	26495.77
626.991	26977.04
627.185	26344.22
627.38	27243.27
627.574	27423.5
627.768	27425.54
627.963	27601.67
628.157	27493.13
628.352	28257.02
628.546	27716.36
628.74	28381.95
628.935	27456.26
629.129	28080.89
629.323	27718.4
629.517	27618.05
629.712	27720.45
629.906	27415.3
630.1	26911.5
630.294	27210.51
630.489	26520.34
630.683	26645.27
630.877	25862.94
631.071	25746.21
631.265	25379.62
631.459	24576.82
631.653	24384.31
631.848	23792.45
632.042	23247.69
632.236	23030.6
632.43	21918.56
632.624	21568.35
632.818	21050.22
633.012	20353.91
633.206	19792.76
633.4	19385.22
633.594	18408.34
633.788	17976.22
633.982	17410.98
634.176	16868.27
634.369	15963.06
634.563	15641.53
634.757	14719.95
634.951	14648.27
635.145	13829.08
635.339	13196.26
635.533	13028.32
635.726	12514.28
635.92	11869.17
636.114	11381.76
636.308	10814.47
636.501	10337.29
636.695	9944.08
636.889	9741.33
637.083	9262.11
637.276	8719.4
637.47	8272.94
637.664	8152.11
637.857	7855.15
638.051	7500.86
638.244	7246.91
638.438	7132.22
638.632	6784.07
638.825	6358.09
639.019	6237.26
639.212	5835.86
639.406	5739.6
639.599	5411.93
639.793	5153.88
639.986	5045.34
640.18	4951.14
640.373	4633.7
640.567	4424.81
640.76	4289.64
640.954	4211.82
641.147	3953.77
641.34	3865.71
641.534	3744.88
641.727	3501.17
641.92	3306.62
642.114	3343.48
642.307	3122.3
642.5	3185.79
642.694	2790.53
642.887	2815.1
643.08	2808.96
643.273	2702.47
643.467	2452.61
643.66	2477.19
643.853	2350.21
644.046	2325.64
644.239	2184.33
644.432	2002.06
644.626	1868.94
644.819	1930.38
645.012	1819.79
645.205	1758.35
645.398	1744.02
645.591	1639.57
645.784	1469.59
645.977	1383.57
646.17	1424.53
646.363	1338.52
646.556	1315.99
646.749	1262.74
646.942	1227.93
647.135	1268.89
647.328	1180.82
647.521	1115.29
647.714	1016.99
647.907	1098.91
648.099	961.69
648.292	1037.47
648.485	916.64
648.678	865.44
648.871	722.08
649.064	826.53
649.256	779.42
649.449	711.84
649.642	705.7
649.835	648.35
650.027	599.2
650.22	689.31
650.413	576.67
650.605	625.83
650.798	554.15
650.991	580.77
651.183	599.2
651.376	541.86
651.568	533.67
651.761	365.73
651.954	550.05
652.146	492.71
652.339	584.87
652.531	492.71
652.724	373.92
652.916	394.4
653.109	304.29
653.301	412.84
653.494	461.99
653.686	318.63
653.879	398.5
654.071	318.63
654.263	277.67
654.456	222.38
654.648	349.35
654.84	347.3
655.033	271.53
655.225	335.01
655.417	226.47
655.61	328.87
655.802	330.92
655.994	287.91
656.186	165.03
656.379	308.39
656.571	132.26
656.763	183.46
656.955	197.8
657.148	232.62
657.34	326.82
657.532	144.55
657.724	238.76
657.916	220.33
658.108	212.14
658.3	189.61
658.492	226.47
658.684	95.4
658.876	234.66
659.068	136.36
659.26	50.35
659.452	81.07
659.644	191.66
659.836	240.81
660.028	205.99
660.22	107.69
660.412	97.45
660.604	175.27
660.796	87.21
660.988	208.04
661.18	117.93
661.372	275.62
661.563	154.79
661.755	99.5
661.947	54.44
662.139	97.45
662.331	181.42
662.522	154.79
662.714	38.06
662.906	13.48
663.097	42.15
663.289	66.73
663.481	1.19
663.673	144.55
663.864	76.97
664.056	156.84
664.247	136.36
664.439	158.89
664.631	58.54
664.822	107.69
665.014	107.69
665.205	72.87
665.397	74.92
665.588	54.44
665.78	93.35
665.971	33.96
666.163	-7
666.354	68.78
666.546	56.49
666.737	99.5
666.929	83.11
667.12	107.69
667.311	74.92
667.503	111.78
667.694	89.26
667.885	83.11
668.077	126.12
668.268	72.87
668.459	148.65
668.651	83.11
668.842	134.31
669.033	31.91
669.224	-33.62
669.416	271.53
669.607	85.16
669.798	15.53
669.989	140.46
670.18	52.39
670.371	134.31
670.563	60.59
670.754	130.22
670.945	107.69
671.136	162.98
671.327	31.91
671.518	81.07
671.709	181.42
671.9	113.83
672.091	83.11
672.282	74.92
672.473	119.98
672.664	70.83
672.855	93.35
673.046	113.83
673.237	70.83
673.428	83.11
673.619	144.55
673.809	-29.52
674	222.38
674.191	156.84
674.382	111.78
674.573	81.07
674.764	81.07
674.954	128.17
675.145	17.58
675.336	5.29
675.527	40.11
675.717	134.31
675.908	9.39
676.099	72.87
676.289	109.74
676.48	38.06
676.671	95.4
676.861	33.96
677.052	97.45
677.243	160.94
677.433	64.68
677.624	130.22
677.814	60.59
678.005	23.72
678.195	156.84
678.386	91.31
678.576	81.07
678.767	7.34
678.957	56.49
679.148	148.65
679.338	246.95
679.529	195.75
679.719	128.17
679.909	130.22
680.1	175.27
680.29	181.42
680.481	42.15
680.671	126.12
680.861	171.18
681.052	105.64
681.242	144.55
681.432	83.11
681.622	83.11
681.813	25.77
682.003	146.6
682.193	42.15
682.383	130.22
682.573	50.35
682.764	113.83
682.954	134.31
683.144	214.18
683.334	29.87
683.524	111.78
683.714	144.55
683.904	181.42
684.094	81.07
684.284	99.5
684.474	218.28
684.664	195.75
684.854	109.74
685.044	74.92
685.234	195.75
685.424	205.99
685.614	99.5
685.804	218.28
685.994	226.47
686.184	181.42
686.374	132.26
686.564	130.22
686.753	140.46
686.943	140.46
687.133	187.56
687.323	160.94
687.513	183.46
687.702	115.88
687.892	179.37
688.082	242.85
688.272	195.75
688.461	203.94
688.651	273.57
688.841	203.94
689.03	132.26
689.22	89.26
689.41	117.93
689.599	177.32
689.789	165.03
689.979	210.09
690.168	103.59
690.358	242.85
690.547	150.7
690.737	140.46
690.926	142.5
691.116	117.93
691.305	156.84
691.495	152.74
691.684	42.15
691.874	91.31
692.063	62.63
692.252	251.05
692.442	138.41
692.631	64.68
692.82	97.45
693.01	79.02
693.199	54.44
693.388	128.17
693.578	140.46
693.767	187.56
693.956	185.51
694.146	142.5
694.335	154.79
694.524	154.79
694.713	224.42
694.902	113.83
695.092	107.69
695.281	132.26
695.47	83.11
695.659	107.69
695.848	169.13
696.037	130.22
696.226	255.14
696.415	144.55
696.604	240.81
696.793	148.65
696.982	107.69
697.171	238.76
697.36	109.74
697.549	115.88
697.738	17.58
697.927	97.45
698.116	89.26
698.305	177.32
698.494	146.6
698.683	128.17
698.872	275.62
699.061	105.64
699.25	74.92
699.438	74.92
699.627	62.63
699.816	205.99
700.005	40.11
700.193	142.5
700.382	128.17
700.571	124.07
700.76	99.5
700.948	183.46
701.137	212.14
701.326	203.94
701.514	76.97
701.703	148.65
701.892	99.5
702.08	224.42
702.269	62.63
702.457	68.78
702.646	210.09
702.834	150.7
703.023	113.83
703.212	154.79
703.4	95.4
703.589	126.12
703.777	50.35
703.965	76.97
704.154	93.35
704.342	111.78
704.531	83.11
704.719	167.08
704.907	271.53
705.096	23.72
705.284	81.07
705.472	124.07
705.661	107.69
705.849	119.98
706.037	179.37
706.226	124.07
706.414	5.29
706.602	97.45
706.79	154.79
706.979	81.07
707.167	146.6
707.355	21.67
707.543	152.74
707.731	103.59
707.919	109.74
708.107	103.59
708.296	83.11
708.484	-7
708.672	175.27
708.86	199.85
709.048	105.64
709.236	46.25
709.424	181.42
709.612	197.8
709.8	48.3
709.988	93.35
710.176	109.74
710.364	203.94
710.551	99.5
710.739	181.42
710.927	146.6
711.115	181.42
711.303	187.56
711.491	240.81
711.679	66.73
711.866	158.89
712.054	148.65
712.242	216.23
712.43	160.94
712.617	68.78
712.805	171.18
712.993	181.42
713.181	66.73
713.368	115.88
713.556	111.78
713.744	74.92
713.931	232.62
714.119	138.41
714.306	128.17
714.494	156.84
714.682	148.65
714.869	62.63
715.057	136.36
715.244	103.59
715.432	134.31
715.619	140.46
715.807	119.98
715.994	91.31
716.182	111.78
716.369	226.47
716.556	140.46
716.744	74.92
716.931	48.3
717.119	203.94
717.306	87.21
717.493	171.18
717.681	40.11
717.868	36.01
718.055	144.55
718.242	128.17
718.43	115.88
718.617	259.24
718.804	148.65
718.991	236.71
719.179	154.79
719.366	179.37
719.553	144.55
719.74	107.69
719.927	205.99
720.114	167.08
720.301	42.15
720.488	103.59
720.676	132.26
720.863	253.09
721.05	304.29
721.237	124.07
721.424	281.77
721.611	175.27
721.798	113.83
721.985	111.78
722.172	122.02
722.358	130.22
722.545	220.33
722.732	124.07
722.919	257.19
723.106	142.5
723.293	126.12
723.48	216.23
723.667	167.08
723.853	197.8
724.04	197.8
724.227	251.05
724.414	109.74
724.6	244.9
724.787	232.62
724.974	255.14
725.161	187.56
725.347	126.12
725.534	171.18
725.72	228.52
725.907	263.33
726.094	275.62
726.28	183.46
726.467	150.7
726.653	105.64
726.84	267.43
727.027	328.87
727.213	212.14
727.4	173.22
727.586	152.74
727.773	171.18
727.959	162.98
728.145	238.76
728.332	156.84
728.518	126.12
728.705	259.24
728.891	179.37
729.077	246.95
729.264	142.5
729.45	224.42
729.636	236.71
729.823	169.13
730.009	195.75
730.195	242.85
730.382	263.33
730.568	119.98
730.754	222.38
730.94	146.6
731.126	181.42
731.313	220.33
731.499	226.47
731.685	226.47
731.871	263.33
732.057	246.95
732.243	230.57
732.429	189.61
732.615	296.1
732.801	281.77
732.987	181.42
733.173	249
733.359	140.46
733.545	214.18
733.731	144.55
733.917	281.77
734.103	234.66
734.289	216.23
734.475	148.65
734.661	277.67
734.847	228.52
735.033	113.83
735.219	332.97
735.404	193.7
735.59	179.37
735.776	160.94
735.962	249
736.148	240.81
736.333	273.57
736.519	193.7
736.705	265.38
736.89	240.81
737.076	173.22
737.262	259.24
737.447	189.61
737.633	218.28
737.819	257.19
738.004	267.43
738.19	193.7
738.375	246.95
738.561	269.48
738.747	255.14
738.932	101.55
739.118	269.48
739.303	210.09
739.489	242.85
739.674	269.48
739.859	99.5
740.045	296.1
740.23	238.76
740.416	109.74
740.601	205.99
740.786	189.61
740.972	111.78
741.157	218.28
741.342	181.42
741.528	152.74
741.713	314.53
741.898	148.65
742.084	224.42
742.269	216.23
742.454	253.09
742.639	306.34
742.824	142.5
743.01	289.96
743.195	386.21
743.38	230.57
743.565	234.66
743.75	195.75
743.935	246.95
744.12	296.1
744.305	218.28
744.49	242.85
744.675	154.79
744.86	138.41
745.045	308.39
745.23	173.22
745.415	150.7
745.6	316.58
745.785	205.99
745.97	238.76
746.155	308.39
746.34	318.63
746.525	175.27
746.71	337.06
746.895	115.88
747.079	132.26
747.264	150.7
747.449	222.38
747.634	240.81
747.819	253.09
748.003	140.46
748.188	158.89
748.373	218.28
748.557	197.8
748.742	197.8
748.927	218.28
749.111	111.78
749.296	144.55
749.481	257.19
749.665	246.95
749.85	99.5
750.034	226.47
750.219	193.7
750.404	189.61
750.588	181.42
750.773	189.61
750.957	142.5
751.141	228.52
751.326	230.57
751.51	93.35
751.695	109.74
751.879	181.42
752.064	308.39
752.248	105.64
752.432	375.97
752.617	230.57
752.801	261.29
752.985	181.42
753.17	205.99
753.354	181.42
753.538	177.32
753.722	117.93
753.907	177.32
754.091	83.11
754.275	228.52
754.459	17.58
754.643	156.84
754.828	171.18
755.012	173.22
755.196	54.44
755.38	124.07
755.564	154.79
755.748	109.74
755.932	242.85
756.116	148.65
756.3	257.19
756.484	62.63
756.668	169.13
756.852	-41.81
757.036	113.83
757.22	203.94
757.404	15.53
757.588	138.41
757.772	132.26
757.956	146.6
758.14	189.61
758.323	58.54
758.507	160.94
758.691	177.32
758.875	165.03
759.059	158.89
759.242	31.91
759.426	160.94
759.61	132.26
759.794	140.46
759.977	91.31
760.161	269.48
760.345	273.57
760.528	148.65
760.712	152.74
760.895	105.64
761.079	146.6
761.263	62.63
761.446	85.16
761.63	103.59
761.813	191.66
761.997	62.63
762.18	93.35
762.364	203.94
762.547	-9.05
762.731	58.54
762.914	74.92
763.098	97.45
763.281	46.25
763.464	105.64
763.648	83.11
763.831	99.5
764.015	42.15
764.198	89.26
764.381	3.24
764.564	103.59
764.748	173.22
764.931	31.91
765.114	64.68
765.297	132.26
765.481	-29.52
765.664	117.93
765.847	87.21
766.03	111.78
766.213	-9.05
766.397	76.97
766.58	11.43
766.763	111.78
766.946	54.44
767.129	52.39
767.312	60.59
767.495	124.07
767.678	-4.95
767.861	89.26
768.044	91.31
768.227	19.63
768.41	54.44
768.593	48.3
768.776	11.43
768.959	-64.34
769.142	189.61
769.324	60.59
769.507	117.93
769.69	66.73
769.873	64.68
770.056	214.18
770.239	-0.85
770.421	152.74
770.604	134.31
770.787	17.58
770.97	60.59
771.152	93.35
771.335	134.31
771.518	-72.53
771.7	132.26
771.883	132.26
772.066	42.15
772.248	60.59
772.431	173.22
772.613	107.69
772.796	66.73
772.978	107.69
773.161	175.27
773.343	29.87
773.526	66.73
773.708	-52.05
773.891	-86.87
774.073	5.29
774.256	83.11
774.438	132.26
774.621	-29.52
774.803	134.31
774.985	66.73
775.168	81.07
775.35	-45.91
775.532	144.55
775.715	-13.14
775.897	38.06
776.079	9.39
776.261	33.96
776.444	31.91
776.626	60.59
776.808	124.07
776.99	-9.05
777.173	-2.9
777.355	83.11
777.537	52.39
777.719	52.39
777.901	-13.14
778.083	-15.19
778.265	-13.14
778.447	122.02
778.629	-27.48
778.811	9.39
778.993	113.83
779.175	115.88
779.357	-41.81
779.539	-88.92
779.721	-4.95
779.903	93.35
780.085	7.34
780.267	-15.19
780.449	27.82
780.631	81.07
780.812	124.07
780.994	1.19
781.176	105.64
781.358	29.87
781.54	50.35
781.721	48.3
781.903	42.15
782.085	-21.33
782.267	99.5
782.448	-11.09
782.63	27.82
782.812	42.15
782.993	48.3
783.175	11.43
783.357	7.34
783.538	42.15
783.72	-86.87
783.901	23.72
784.083	-0.85
784.264	99.5
784.446	-82.77
784.627	-11.09
784.809	74.92
784.99	-19.29
785.172	42.15
785.353	-47.96
785.535	7.34
785.716	-23.38
785.897	33.96
786.079	-17.24
786.26	42.15
786.441	74.92
786.623	-125.78
786.804	44.2
786.985	42.15
787.167	-4.95
787.348	17.58
787.529	29.87
787.71	115.88
787.891	-9.05
788.073	17.58
788.254	-25.43
788.435	144.55
788.616	17.58
788.797	-39.76
788.978	21.67
789.159	38.06
789.34	38.06
789.522	-17.24
789.703	46.25
789.884	50.35
790.065	48.3
790.246	62.63
790.427	50.35
790.607	91.31
790.788	70.83
790.969	-50
791.15	1.19
791.331	-21.33
791.512	-23.38
791.693	-101.2
791.874	-15.19
792.054	158.89
792.235	119.98
792.416	7.34
792.597	-66.39
792.778	66.73
792.958	-15.19
793.139	50.35
793.32	-39.76
793.5	-148.31
793.681	62.63
793.862	62.63
794.042	58.54
794.223	-127.83
794.404	11.43
794.584	-115.54
794.765	-39.76
794.945	-15.19
795.126	136.36
795.306	-9.05
795.487	36.01
795.667	-90.96
795.848	-15.19
796.028	95.4
796.209	-62.29
796.389	40.11
796.57	-27.48
796.75	-68.44
796.93	-9.05
797.111	-47.96
797.291	-39.76
797.471	-31.57
797.652	42.15
797.832	-105.3
798.012	50.35
798.192	-25.43
798.373	-19.29
798.553	-19.29
798.733	36.01
798.913	-64.34
799.093	-47.96
799.274	-17.24
799.454	33.96
799.634	-7
799.814	42.15
799.994	-15.19
800.174	-52.05
800.354	-33.62
800.534	-105.3
800.714	9.39
800.894	-80.72
801.074	-15.19
801.254	-31.57
801.434	23.72
801.614	-25.43
801.794	-56.15
801.974	1500.31
802.154	60.59
802.334	17.58
802.514	-88.92
802.693	25.77
802.873	-121.68
803.053	38.06
803.233	17.58
803.413	5.29
803.592	-47.96
803.772	-56.15
803.952	72.87
804.131	-146.26
804.311	56.49
804.491	74.92
804.67	-25.43
804.85	-9.05
805.03	1.19
805.209	52.39
805.389	38.06
805.568	-23.38
805.748	-80.72
805.928	-97.11
806.107	54.44
806.287	-80.72
806.466	9.39
806.646	-54.1
806.825	-47.96
807.004	-2.9
807.184	-29.52
807.363	-2.9
807.543	-50
807.722	-70.48
807.901	74.92
808.081	-15.19
808.26	-74.58
808.439	9.39
808.619	3.24
808.798	-37.72
808.977	9.39
809.156	79.02
809.336	99.5
809.515	7.34
809.694	-80.72
809.873	-56.15
810.052	-0.85
810.231	31.91
810.411	-19.29
810.59	15.53
810.769	15.53
810.948	58.54
811.127	-123.73
811.306	-37.72
811.485	-11.09
811.664	109.74
811.843	-23.38
812.022	33.96
812.201	-70.48
812.38	-60.24
812.559	-52.05
812.737	11.43
812.916	-101.2
813.095	31.91
813.274	36.01
813.453	-7
813.632	81.07
813.811	111.78
813.989	-15.19
814.168	-19.29
814.347	-17.24
814.526	-50
814.704	15.53
814.883	50.35
815.062	-47.96
815.24	50.35
815.419	-80.72
815.598	60.59
815.776	-121.68
815.955	-47.96
816.133	-86.87
816.312	-58.2
816.49	-29.52
816.669	-80.72
816.847	-64.34
817.026	-2.9
817.204	33.96
817.383	-29.52
817.561	-13.14
817.74	38.06
817.918	-9.05
818.097	-15.19
818.275	-58.2
818.453	3.24
818.632	-4.95
818.81	-60.24
818.988	-9.05
819.167	-41.81
819.345	-76.63
819.523	-80.72
819.701	17.58
819.879	54.44
820.058	70.83
820.236	-52.05
820.414	-11.09
820.592	-35.67
820.77	-39.76
820.948	-90.96
821.127	-78.68
821.305	-2.9
821.483	-41.81
821.661	25.77
821.839	-31.57
822.017	-54.1
822.195	11.43
822.373	66.73
822.551	-15.19
822.729	33.96
822.907	19.63
823.085	44.2
823.262	-21.33
823.44	-78.68
823.618	-82.77
823.796	60.59
823.974	-103.25
824.152	-17.24
824.329	-23.38
824.507	-4.95
824.685	1.19
824.863	-7
825.04	-58.2
825.218	52.39
825.396	48.3
825.574	19.63
825.751	-15.19
825.929	38.06
826.107	-80.72
826.284	-21.33
826.462	62.63
826.639	-119.64
826.817	-80.72
826.994	-58.2
827.172	-113.49
827.349	64.68
827.527	25.77
827.704	-0.85
827.882	23.72
828.059	-25.43
828.237	-72.53
828.414	-2.9
828.591	-162.64
828.769	-23.38
828.946	-43.86
829.124	-11.09
829.301	83.11
829.478	-43.86
829.655	-29.52
829.833	-82.77
830.01	-144.21
830.187	85.16
830.364	-27.48
830.542	-21.33
830.719	130.22
830.896	17.58
831.073	11.43
831.25	-50
831.427	-25.43
831.604	-72.53
831.782	-74.58
831.959	-35.67
832.136	-66.39
832.313	-37.72
832.49	-23.38
832.667	-111.44
832.844	-131.92
833.021	85.16
833.198	-58.2
833.374	-47.96
833.551	-15.19
833.728	-29.52
833.905	17.58
834.082	-232.27
834.259	5.29
834.436	-17.24
834.612	9.39
834.789	9.39
834.966	-0.85
835.143	38.06
835.319	-27.48
835.496	-35.67
835.673	-17.24
835.85	44.2
836.026	15.53
836.203	38.06
836.38	-47.96
836.556	-131.92
836.733	-78.68
836.909	101.55
837.086	-54.1
837.262	-58.2
837.439	-31.57
837.616	-64.34
837.792	-74.58
837.968	-43.86
838.145	-64.34
838.321	-17.24
838.498	-37.72
838.674	-25.43
838.851	-15.19
839.027	36.01
839.203	-90.96
839.38	-4.95
839.556	-58.2
839.732	-29.52
839.909	-82.77
840.085	-4.95
840.261	-99.16
840.437	-0.85
840.614	-31.57
840.79	17.58
840.966	46.25
841.142	7.34
841.318	-121.68
841.494	9.39
841.671	-27.48
841.847	-15.19
842.023	-107.35
842.199	21.67
842.375	83.11
842.551	-86.87
842.727	-95.06
842.903	91.31
843.079	-107.35
843.255	66.73
843.431	-58.2
843.607	-31.57
843.783	-162.64
843.959	-27.48
844.134	-136.02
844.31	56.49
844.486	48.3
844.662	13.48
844.838	-64.34
845.013	-23.38
845.189	25.77
845.365	-39.76
845.541	-43.86
845.716	-119.64
845.892	48.3
846.068	-115.54
846.244	-131.92
846.419	-99.16
846.595	-82.77
846.77	-105.3
846.946	-7
847.122	-117.59
847.297	-50
847.473	50.35
847.648	-23.38
847.824	-64.34
847.999	-138.07
848.175	-78.68
848.35	-11.09
848.526	29.87
848.701	-37.72
848.876	38.06
849.052	50.35
849.227	-45.91
849.403	-37.72
849.578	-25.43
849.753	3.24
849.929	62.63
850.104	-138.07
850.279	-41.81
850.454	1.19
850.63	54.44
850.805	-58.2
850.98	-54.1
851.155	-43.86
851.33	56.49
851.505	-47.96
851.681	42.15
851.856	-50
852.031	-33.62
852.206	-86.87
852.381	-70.48
852.556	-99.16
852.731	60.59
852.906	5.29
853.081	13.48
853.256	56.49
853.431	-97.11
853.606	-33.62
853.781	-164.69
853.956	-129.88
854.131	1.19
854.305	-80.72
854.48	-97.11
854.655	-74.58
854.83	-117.59
855.005	-13.14
855.18	-107.35
855.354	-66.39
855.529	-43.86
855.704	-37.72
855.879	33.96
856.053	-56.15
856.228	-7
856.403	-105.3
856.577	25.77
856.752	-33.62
856.926	-52.05
857.101	9.39
857.276	-105.3
857.45	64.68
857.625	19.63
857.799	-37.72
857.974	-64.34
858.148	-123.73
858.323	21.67
858.497	-74.58
858.672	-72.53
858.846	-72.53
859.02	58.54
859.195	-35.67
859.369	-56.15
859.543	-93.01
859.718	-7
859.892	-11.09
860.066	19.63
860.241	-97.11
860.415	-97.11
860.589	1.19
860.763	-33.62
860.938	-25.43
861.112	-0.85
861.286	-76.63
861.46	44.2
861.634	-7
861.808	31.91
861.982	-64.34
862.157	-74.58
862.331	-56.15
862.505	-150.36
862.679	-54.1
862.853	-56.15
863.027	-15.19
863.201	33.96
863.375	-129.88
863.549	-33.62
863.722	-68.44
863.896	-15.19
864.07	-62.29
864.244	-70.48
864.418	66.73
864.592	-4.95
864.766	-64.34
864.939	-93.01
865.113	-50
865.287	17.58
865.461	-129.88
865.634	-39.76
865.808	7.34
865.982	-60.24
866.156	-56.15
866.329	-70.48
866.503	-47.96
866.676	33.96
866.85	15.53
867.024	-29.52
867.197	-35.67
867.371	23.72
867.544	-41.81
867.718	-129.88
867.891	44.2
868.065	-131.92
868.238	-33.62
868.412	50.35
868.585	15.53
868.759	-37.72
868.932	-11.09
869.105	-121.68
869.279	-80.72
869.452	-64.34
869.625	50.35
869.799	-11.09
869.972	-105.3
870.145	-66.39
870.319	-39.76
870.492	25.77
870.665	-35.67
870.838	-95.06
871.011	-146.26
871.185	1.19
871.358	-101.2
871.531	-23.38
871.704	-64.34
871.877	-0.85
872.05	-82.77
872.223	-123.73
872.396	64.68
872.569	52.39
872.742	-70.48
872.915	-15.19
873.088	-25.43
873.261	-123.73
873.434	33.96
873.607	-50
873.78	56.49
873.953	-23.38
874.126	-7
874.299	-7
874.471	-56.15
874.644	-47.96
874.817	-2.9
874.99	97.45
875.163	-64.34
875.335	-39.76
875.508	9.39
875.681	81.07
875.853	-72.53
876.026	-0.85
876.199	9.39
876.371	-47.96
876.544	-47.96
876.717	-7
876.889	-33.62
877.062	-52.05
877.234	-113.49
877.407	-56.15
877.579	-41.81
877.752	-25.43
877.924	-68.44
878.097	-64.34
878.269	-31.57
878.442	31.91
878.614	29.87
878.786	-17.24
878.959	-64.34
879.131	15.53
879.303	-146.26
879.476	-23.38
879.648	38.06
879.82	-19.29
879.993	-86.87
880.165	-68.44
880.337	-52.05
880.509	-35.67
880.681	-84.82
880.854	-105.3
881.026	5.29
881.198	142.5
881.37	-72.53
881.542	-37.72
881.714	-90.96
881.886	-76.63
882.058	15.53
882.23	9.39
882.402	-117.59
882.574	-50
882.746	-19.29
882.918	46.25
883.09	-21.33
883.262	-66.39
883.434	-33.62
883.606	-90.96
883.778	50.35
883.95	46.25
884.122	23.72
884.293	81.07
884.465	-86.87
884.637	74.92
884.809	-105.3
884.98	27.82
885.152	-50
885.324	1.19
885.496	-82.77
885.667	-66.39
885.839	-84.82
886.011	93.35
886.182	-76.63
886.354	62.63
886.525	-19.29
886.697	-56.15
886.869	-78.68
887.04	-66.39
887.212	62.63
887.383	46.25
887.555	13.48
887.726	-76.63
887.897	-29.52
888.069	-0.85
888.24	66.73
888.412	-39.76
888.583	-129.88
888.754	-64.34
888.926	-115.54
889.097	-7
889.268	-113.49
889.44	-23.38
889.611	-78.68
889.782	-129.88
889.953	-142.16
890.125	109.74
890.296	-80.72
890.467	9.39
890.638	-84.82
890.809	-64.34
890.98	-66.39
891.151	-11.09
891.323	-23.38
891.494	21.67
891.665	-62.29
891.836	-27.48
892.007	-93.01
892.178	93.35
892.349	-7
892.52	-93.01
892.691	-21.33
892.862	-88.92
893.032	-113.49
893.203	-136.02
893.374	-80.72
893.545	103.59
893.716	-111.44
893.887	42.15
894.057	-99.16
894.228	-35.67
894.399	-64.34
894.57	13.48
894.74	-33.62
894.911	-4.95
895.082	-52.05
895.253	-97.11
895.423	-21.33
895.594	-39.76
895.764	-35.67
895.935	-105.3
896.106	-35.67
896.276	-56.15
896.447	-37.72
896.617	-37.72
896.788	-72.53
896.958	-50
897.129	-50
897.299	-101.2
897.47	11.43
897.64	-27.48
897.81	-60.24
897.981	17.58
898.151	-33.62
898.322	13.48
898.492	-19.29
898.662	-148.31
898.832	-45.91
899.003	-84.82
899.173	-33.62
899.343	-68.44
899.513	-109.4
