Data from USB4F104151__30__09-26-46-813.txt Node

Date: Wed Feb 26 09:26:46 EST 2025
User: louis
Spectrometer: USB4F10415
Trigger mode: 4
Integration Time (sec): 1.000000E-1
Scans to average: 1
Electric dark correction enabled: true
Nonlinearity correction enabled: false
Boxcar width: 0
XAxis mode: Wavelengths
Number of Pixels in Spectrum: 3648
>>>>>Begin Spectral Data<<<<<
178.204	-354.98
178.424	-354.98
178.644	-354.98
178.864	-318.12
179.084	-418.47
179.304	-17.07
179.524	-49.83
179.744	-17.07
179.964	66.9
180.184	7.51
180.404	-15.02
180.624	25.94
180.844	21.84
181.064	-88.75
181.283	42.32
181.503	-51.88
181.723	75.09
181.943	-82.6
182.163	81.24
182.383	17.75
182.602	23.89
182.822	87.38
183.042	38.23
183.262	-115.37
183.482	-0.68
183.701	-45.74
183.921	46.42
184.141	-23.21
184.361	122.2
184.58	21.84
184.8	7.51
185.02	-60.07
185.239	50.52
185.459	7.51
185.679	109.91
185.898	-158.38
186.118	40.28
186.338	-66.22
186.557	46.42
186.777	-64.17
186.997	17.75
187.216	17.75
187.436	79.19
187.655	38.23
187.875	122.2
188.095	5.46
188.314	48.47
188.534	109.91
188.753	-19.11
188.973	83.28
189.192	111.96
189.412	19.8
189.631	-84.65
189.851	-29.35
190.07	124.24
190.29	-144.04
190.509	-49.83
190.729	40.28
190.948	105.81
191.168	177.49
191.387	48.47
191.607	5.46
191.826	-27.31
192.045	46.42
192.265	3.41
192.484	34.13
192.704	-4.78
192.923	-55.98
193.142	130.39
193.362	23.89
193.581	105.81
193.8	17.75
194.02	136.53
194.239	-6.83
194.458	25.94
194.678	34.13
194.897	32.08
195.116	17.75
195.335	-23.21
195.555	44.37
195.774	-47.79
195.993	89.43
196.212	68.95
196.432	75.09
196.651	-25.26
196.87	9.56
197.089	193.87
197.308	85.33
197.528	7.51
197.747	-41.64
197.966	-25.26
198.185	48.47
198.404	-15.02
198.623	79.19
198.842	77.14
199.062	25.94
199.281	89.43
199.5	9.56
199.719	54.61
199.938	13.65
200.157	54.61
200.376	54.61
200.595	157.01
200.814	48.47
201.033	-51.88
201.252	122.2
201.471	-31.4
201.69	46.42
201.909	-15.02
202.128	60.76
202.347	52.56
202.566	9.56
202.785	-39.59
203.004	-35.5
203.223	132.44
203.442	9.56
203.661	-0.68
203.879	73.04
204.098	89.43
204.317	-70.31
204.536	97.62
204.755	34.13
204.974	95.57
205.193	-31.4
205.411	138.58
205.63	9.56
205.849	-8.87
206.068	-6.83
206.287	-10.92
206.505	44.37
206.724	17.75
206.943	-21.16
207.162	-68.27
207.381	107.86
207.599	-15.02
207.818	23.89
208.037	32.08
208.255	91.48
208.474	30.04
208.693	7.51
208.911	5.46
209.13	77.14
209.349	71
209.567	40.28
209.786	36.18
210.005	71
210.223	13.65
210.442	-92.84
210.661	-60.07
210.879	-45.74
211.098	54.61
211.316	-0.68
211.535	62.8
211.753	15.7
211.972	136.53
212.191	-27.31
212.409	-15.02
212.628	-4.78
212.846	-84.65
213.065	118.1
213.283	58.71
213.502	68.95
213.72	71
213.938	13.65
214.157	-21.16
214.375	87.38
214.594	-43.69
214.812	36.18
215.031	-51.88
215.249	-23.21
215.467	15.7
215.686	50.52
215.904	138.58
216.122	3.41
216.341	150.87
216.559	25.94
216.778	36.18
216.996	154.96
217.214	-35.5
217.432	-49.83
217.651	-80.55
217.869	-47.79
218.087	25.94
218.306	-109.23
218.524	-23.21
218.742	15.7
218.96	9.56
219.179	-27.31
219.397	66.9
219.615	230.74
219.833	136.53
220.051	-117.42
220.27	120.15
220.488	148.82
220.706	128.34
220.924	-41.64
221.142	48.47
221.36	50.52
221.578	34.13
221.796	-47.79
222.015	-8.87
222.233	34.13
222.451	99.67
222.669	-31.4
222.887	42.32
223.105	1.37
223.323	-6.83
223.541	-12.97
223.759	13.65
223.977	17.75
224.195	89.43
224.413	95.57
224.631	56.66
224.849	17.75
225.067	97.62
225.285	-68.27
225.503	-2.73
225.721	-68.27
225.939	30.04
226.157	79.19
226.375	165.2
226.592	-115.37
226.81	-15.02
227.028	19.8
227.246	62.8
227.464	64.85
227.682	25.94
227.9	114
228.117	48.47
228.335	5.46
228.553	-25.26
228.771	-55.98
228.989	66.9
229.206	1.37
229.424	-31.4
229.642	-53.93
229.86	5.46
230.077	157.01
230.295	-66.22
230.513	99.67
230.731	46.42
230.948	101.72
231.166	79.19
231.384	-37.55
231.601	-80.55
231.819	154.96
232.037	3.41
232.254	-80.55
232.472	-35.5
232.689	-68.27
232.907	15.7
233.125	-12.97
233.342	-84.65
233.56	-39.59
233.777	-80.55
233.995	-37.55
234.213	48.47
234.43	-15.02
234.648	7.51
234.865	-53.93
235.083	73.04
235.3	9.56
235.518	34.13
235.735	73.04
235.953	146.77
236.17	52.56
236.388	-23.21
236.605	75.09
236.822	48.47
237.04	-2.73
237.257	-39.59
237.475	-80.55
237.692	68.95
237.909	40.28
238.127	-55.98
238.344	21.84
238.562	17.75
238.779	-72.36
238.996	-105.13
239.214	9.56
239.431	34.13
239.648	11.61
239.865	1.37
240.083	107.86
240.3	-51.88
240.517	-10.92
240.735	32.08
240.952	103.76
241.169	-15.02
241.386	56.66
241.603	-58.03
241.821	-17.07
242.038	56.66
242.255	124.24
242.472	-66.22
242.689	64.85
242.907	-0.68
243.124	42.32
243.341	-33.45
243.558	-35.5
243.775	-107.18
243.992	-19.11
244.209	118.1
244.426	159.06
244.643	38.23
244.86	-55.98
245.078	21.84
245.295	-43.69
245.512	42.32
245.729	-78.51
245.946	36.18
246.163	87.38
246.38	42.32
246.597	-10.92
246.814	21.84
247.031	27.99
247.248	-23.21
247.464	-19.11
247.681	42.32
247.898	54.61
248.115	1.37
248.332	-66.22
248.549	79.19
248.766	95.57
248.983	101.72
249.2	15.7
249.417	87.38
249.633	21.84
249.85	5.46
250.067	7.51
250.284	-21.16
250.501	5.46
250.717	34.13
250.934	-88.75
251.151	-39.59
251.368	25.94
251.585	9.56
251.801	-15.02
252.018	1.37
252.235	62.8
252.451	-51.88
252.668	-6.83
252.885	-0.68
253.102	79.19
253.318	-27.31
253.535	5.46
253.752	9.56
253.968	-45.74
254.185	-6.83
254.401	-6.83
254.618	-49.83
254.835	-25.26
255.051	111.96
255.268	75.09
255.484	-35.5
255.701	25.94
255.917	54.61
256.134	-68.27
256.351	46.42
256.567	-119.46
256.784	-29.35
257	-4.78
257.217	40.28
257.433	52.56
257.65	56.66
257.866	111.96
258.082	-88.75
258.299	7.51
258.515	15.7
258.732	19.8
258.948	-39.59
259.165	87.38
259.381	-98.99
259.597	13.65
259.814	-15.02
260.03	-10.92
260.246	-27.31
260.463	-8.87
260.679	140.63
260.895	42.32
261.112	17.75
261.328	-33.45
261.544	-105.13
261.761	103.76
261.977	-31.4
262.193	-25.26
262.409	58.71
262.626	-39.59
262.842	25.94
263.058	-15.02
263.274	116.05
263.49	79.19
263.707	25.94
263.923	46.42
264.139	-96.94
264.355	13.65
264.571	-19.11
264.787	58.71
265.004	34.13
265.22	-31.4
265.436	-51.88
265.652	52.56
265.868	42.32
266.084	-64.17
266.3	13.65
266.516	-96.94
266.732	-10.92
266.948	-8.87
267.164	-17.07
267.38	46.42
267.596	64.85
267.812	97.62
268.028	17.75
268.244	-51.88
268.46	32.08
268.676	-33.45
268.892	-2.73
269.108	-80.55
269.324	-12.97
269.54	-15.02
269.756	44.37
269.972	-27.31
270.188	-45.74
270.403	17.75
270.619	21.84
270.835	79.19
271.051	5.46
271.267	-98.99
271.483	-47.79
271.698	79.19
271.914	66.9
272.13	1.37
272.346	-60.07
272.562	-39.59
272.777	124.24
272.993	-10.92
273.209	-41.64
273.425	1.37
273.64	-78.51
273.856	97.62
274.072	-19.11
274.287	-90.79
274.503	77.14
274.719	75.09
274.934	17.75
275.15	-207.53
275.366	1.37
275.581	-39.59
275.797	34.13
276.012	52.56
276.228	9.56
276.444	42.32
276.659	52.56
276.875	32.08
277.09	-12.97
277.306	48.47
277.521	56.66
277.737	-2.73
277.952	83.28
278.168	27.99
278.383	25.94
278.599	17.75
278.814	13.65
279.03	27.99
279.245	114
279.461	-31.4
279.676	40.28
279.892	-45.74
280.107	-55.98
280.322	-55.98
280.538	25.94
280.753	-2.73
280.969	-31.4
281.184	3.41
281.399	114
281.615	5.46
281.83	19.8
282.045	-58.03
282.26	-64.17
282.476	-21.16
282.691	-0.68
282.906	38.23
283.122	-6.83
283.337	25.94
283.552	-15.02
283.767	-15.02
283.983	85.33
284.198	-74.41
284.413	40.28
284.628	-121.51
284.843	48.47
285.058	64.85
285.274	-8.87
285.489	-72.36
285.704	30.04
285.919	-88.75
286.134	-35.5
286.349	1.37
286.564	-19.11
286.779	114
286.995	-51.88
287.21	-90.79
287.425	77.14
287.64	9.56
287.855	25.94
288.07	-43.69
288.285	30.04
288.5	62.8
288.715	-8.87
288.93	-27.31
289.145	73.04
289.36	58.71
289.575	-27.31
289.79	118.1
290.004	-76.46
290.219	44.37
290.434	15.7
290.649	13.65
290.864	-23.21
291.079	50.52
291.294	9.56
291.509	7.51
291.724	-47.79
291.938	-55.98
292.153	58.71
292.368	11.61
292.583	73.04
292.798	124.24
293.012	56.66
293.227	60.76
293.442	-88.75
293.657	58.71
293.871	79.19
294.086	66.9
294.301	179.54
294.516	71
294.73	-72.36
294.945	-23.21
295.16	54.61
295.374	75.09
295.589	101.72
295.804	-53.93
296.018	25.94
296.233	114
296.447	-39.59
296.662	5.46
296.877	71
297.091	87.38
297.306	-51.88
297.52	7.51
297.735	-68.27
297.949	9.56
298.164	54.61
298.378	30.04
298.593	-66.22
298.807	-35.5
299.022	-0.68
299.236	85.33
299.451	15.7
299.665	75.09
299.88	1.37
300.094	7.51
300.309	-8.87
300.523	-2.73
300.737	-113.32
300.952	9.56
301.166	-29.35
301.381	-72.36
301.595	25.94
301.809	62.8
302.024	5.46
302.238	-41.64
302.452	21.84
302.667	-39.59
302.881	116.05
303.095	21.84
303.309	5.46
303.524	-35.5
303.738	-33.45
303.952	-82.6
304.166	62.8
304.381	-53.93
304.595	52.56
304.809	-25.26
305.023	-37.55
305.237	-66.22
305.452	-51.88
305.666	48.47
305.88	68.95
306.094	91.48
306.308	1.37
306.522	75.09
306.736	-51.88
306.95	44.37
307.164	50.52
307.379	11.61
307.593	64.85
307.807	154.96
308.021	95.57
308.235	30.04
308.449	-39.59
308.663	-23.21
308.877	218.45
309.091	-60.07
309.305	58.71
309.519	-150.18
309.733	107.86
309.947	-60.07
310.161	42.32
310.374	89.43
310.588	44.37
310.802	-0.68
311.016	-70.31
311.23	-19.11
311.444	-51.88
311.658	-43.69
311.872	81.24
312.085	71
312.299	126.29
312.513	62.8
312.727	66.9
312.941	-76.46
313.154	30.04
313.368	73.04
313.582	15.7
313.796	32.08
314.009	-0.68
314.223	97.62
314.437	42.32
314.651	38.23
314.864	-98.99
315.078	9.56
315.292	-119.46
315.505	-60.07
315.719	25.94
315.933	62.8
316.146	-21.16
316.36	-51.88
316.573	48.47
316.787	-6.83
317.001	-51.88
317.214	-0.68
317.428	-2.73
317.641	11.61
317.855	1.37
318.068	-33.45
318.282	-21.16
318.495	111.96
318.709	87.38
318.922	-17.07
319.136	87.38
319.349	128.34
319.563	3.41
319.776	1.37
319.99	-113.32
320.203	62.8
320.417	-47.79
320.63	38.23
320.843	124.24
321.057	68.95
321.27	56.66
321.483	62.8
321.697	75.09
321.91	34.13
322.124	-31.4
322.337	-25.26
322.55	-53.93
322.763	23.89
322.977	21.84
323.19	-35.5
323.403	-4.78
323.617	46.42
323.83	83.28
324.043	-17.07
324.256	23.89
324.469	-70.31
324.683	95.57
324.896	7.51
325.109	54.61
325.322	-21.16
325.535	13.65
325.748	68.95
325.962	34.13
326.175	66.9
326.388	-23.21
326.601	152.91
326.814	-23.21
327.027	-92.84
327.24	66.9
327.453	-127.66
327.666	62.8
327.879	77.14
328.092	3.41
328.305	87.38
328.518	-37.55
328.731	-45.74
328.944	-68.27
329.157	52.56
329.37	-115.37
329.583	136.53
329.796	64.85
330.009	-82.6
330.222	30.04
330.435	95.57
330.648	17.75
330.861	32.08
331.073	38.23
331.286	21.84
331.499	3.41
331.712	-66.22
331.925	-2.73
332.138	9.56
332.35	107.86
332.563	-41.64
332.776	66.9
332.989	-101.03
333.202	9.56
333.414	32.08
333.627	-6.83
333.84	-19.11
334.053	-39.59
334.265	-94.89
334.478	5.46
334.691	-23.21
334.903	64.85
335.116	-66.22
335.329	-4.78
335.541	99.67
335.754	58.71
335.966	-51.88
336.179	77.14
336.392	5.46
336.604	60.76
336.817	46.42
337.029	19.8
337.242	-66.22
337.454	44.37
337.667	-10.92
337.88	77.14
338.092	-15.02
338.305	1.37
338.517	-55.98
338.729	73.04
338.942	91.48
339.154	-17.07
339.367	-74.41
339.579	34.13
339.792	-51.88
340.004	-29.35
340.217	-70.31
340.429	27.99
340.641	-88.75
340.854	-64.17
341.066	-33.45
341.278	122.2
341.491	58.71
341.703	13.65
341.915	-4.78
342.128	62.8
342.34	40.28
342.552	-62.12
342.764	-39.59
342.977	21.84
343.189	-17.07
343.401	42.32
343.613	-72.36
343.826	40.28
344.038	-21.16
344.25	38.23
344.462	-23.21
344.674	-19.11
344.886	-96.94
345.099	-10.92
345.311	7.51
345.523	-49.83
345.735	-64.17
345.947	-37.55
346.159	-74.41
346.371	-27.31
346.583	-0.68
346.795	126.29
347.007	1.37
347.219	17.75
347.431	30.04
347.643	91.48
347.855	19.8
348.067	103.76
348.279	-125.61
348.491	-33.45
348.703	-33.45
348.915	-60.07
349.127	-39.59
349.339	-29.35
349.551	-2.73
349.763	-23.21
349.975	50.52
350.187	30.04
350.399	146.77
350.61	-25.26
350.822	-41.64
351.034	9.56
351.246	-6.83
351.458	13.65
351.669	17.75
351.881	64.85
352.093	85.33
352.305	17.75
352.517	34.13
352.728	68.95
352.94	77.14
353.152	-12.97
353.363	-58.03
353.575	9.56
353.787	25.94
353.999	-2.73
354.21	79.19
354.422	-21.16
354.633	-12.97
354.845	-0.68
355.057	-60.07
355.268	-31.4
355.48	21.84
355.692	13.65
355.903	-21.16
356.115	-58.03
356.326	-96.94
356.538	122.2
356.749	-2.73
356.961	159.06
357.172	-64.17
357.384	-49.83
357.595	185.68
357.807	9.56
358.018	-15.02
358.23	-2.73
358.441	42.32
358.653	75.09
358.864	-76.46
359.075	-0.68
359.287	25.94
359.498	30.04
359.709	30.04
359.921	-53.93
360.132	85.33
360.344	-51.88
360.555	1.37
360.766	62.8
360.977	-39.59
361.189	-19.11
361.4	-21.16
361.611	44.37
361.823	73.04
362.034	19.8
362.245	-80.55
362.456	-15.02
362.667	75.09
362.879	-66.22
363.09	50.52
363.301	32.08
363.512	95.57
363.723	-15.02
363.935	-70.31
364.146	79.19
364.357	27.99
364.568	50.52
364.779	-53.93
364.99	56.66
365.201	-31.4
365.412	89.43
365.623	-72.36
365.834	27.99
366.045	17.75
366.256	111.96
366.467	73.04
366.678	-25.26
366.889	5.46
367.1	-33.45
367.311	50.52
367.522	-47.79
367.733	32.08
367.944	58.71
368.155	85.33
368.366	71
368.577	89.43
368.788	109.91
368.999	-53.93
369.209	-49.83
369.42	152.91
369.631	161.11
369.842	-6.83
370.053	-62.12
370.264	116.05
370.474	-39.59
370.685	38.23
370.896	19.8
371.107	91.48
371.317	15.7
371.528	-10.92
371.739	103.76
371.95	56.66
372.16	21.84
372.371	-88.75
372.582	-68.27
372.792	48.47
373.003	38.23
373.214	17.75
373.424	75.09
373.635	-90.79
373.846	48.47
374.056	3.41
374.267	23.89
374.477	32.08
374.688	-43.69
374.898	13.65
375.109	-17.07
375.319	73.04
375.53	85.33
375.74	9.56
375.951	9.56
376.161	52.56
376.372	54.61
376.582	-68.27
376.793	-39.59
377.003	-25.26
377.214	-23.21
377.424	46.42
377.635	-10.92
377.845	-19.11
378.055	58.71
378.266	-139.94
378.476	-68.27
378.686	42.32
378.897	34.13
379.107	71
379.317	-17.07
379.528	-47.79
379.738	40.28
379.948	-58.03
380.158	114
380.369	-10.92
380.579	79.19
380.789	-0.68
380.999	11.61
381.21	48.47
381.42	140.63
381.63	-10.92
381.84	81.24
382.05	25.94
382.261	11.61
382.471	116.05
382.681	-35.5
382.891	114
383.101	38.23
383.311	-31.4
383.521	-43.69
383.731	138.58
383.941	62.8
384.151	58.71
384.361	-62.12
384.571	23.89
384.781	-17.07
384.991	208.21
385.201	191.83
385.411	19.8
385.621	-23.21
385.831	75.09
386.041	25.94
386.251	-4.78
386.461	118.1
386.671	-103.08
386.881	68.95
387.091	-109.23
387.301	79.19
387.511	-10.92
387.72	58.71
387.93	46.42
388.14	-107.18
388.35	64.85
388.56	23.89
388.769	40.28
388.979	75.09
389.189	-47.79
389.399	-0.68
389.609	-27.31
389.818	32.08
390.028	9.56
390.238	-2.73
390.447	9.56
390.657	11.61
390.867	-60.07
391.076	-90.79
391.286	46.42
391.496	21.84
391.705	-23.21
391.915	75.09
392.125	81.24
392.334	-15.02
392.544	120.15
392.753	13.65
392.963	-35.5
393.172	23.89
393.382	-92.84
393.591	128.34
393.801	-55.98
394.01	157.01
394.22	1.37
394.429	-15.02
394.639	-2.73
394.848	40.28
395.058	-15.02
395.267	-53.93
395.477	-80.55
395.686	56.66
395.895	202.07
396.105	134.48
396.314	52.56
396.524	-90.79
396.733	-29.35
396.942	71
397.152	5.46
397.361	81.24
397.57	-15.02
397.78	-86.7
397.989	58.71
398.198	173.39
398.407	17.75
398.617	-19.11
398.826	-10.92
399.035	7.51
399.244	77.14
399.453	1.37
399.663	17.75
399.872	17.75
400.081	-101.03
400.29	17.75
400.499	-35.5
400.708	101.72
400.917	-12.97
401.127	-51.88
401.336	-0.68
401.545	152.91
401.754	89.43
401.963	107.86
402.172	-25.26
402.381	1.37
402.59	-6.83
402.799	1.37
403.008	32.08
403.217	-39.59
403.426	64.85
403.635	-68.27
403.844	-43.69
404.053	-17.07
404.262	-21.16
404.471	79.19
404.68	-2.73
404.888	42.32
405.097	-2.73
405.306	17.75
405.515	64.85
405.724	56.66
405.933	58.71
406.142	-6.83
406.35	44.37
406.559	-17.07
406.768	23.89
406.977	118.1
407.185	5.46
407.394	50.52
407.603	-64.17
407.812	44.37
408.02	75.09
408.229	-27.31
408.438	-8.87
408.646	-23.21
408.855	-17.07
409.064	30.04
409.272	34.13
409.481	-21.16
409.69	-39.59
409.898	-92.84
410.107	23.89
410.315	52.56
410.524	-6.83
410.733	-6.83
410.941	40.28
411.15	38.23
411.358	42.32
411.567	118.1
411.775	-43.69
411.984	-8.87
412.192	58.71
412.401	-51.88
412.609	64.85
412.818	93.52
413.026	-6.83
413.234	-43.69
413.443	-15.02
413.651	-51.88
413.86	25.94
414.068	46.42
414.276	95.57
414.485	40.28
414.693	109.91
414.901	87.38
415.11	9.56
415.318	9.56
415.526	-2.73
415.734	30.04
415.943	9.56
416.151	-12.97
416.359	25.94
416.567	44.37
416.776	48.47
416.984	38.23
417.192	103.76
417.4	-105.13
417.608	42.32
417.817	-60.07
418.025	32.08
418.233	99.67
418.441	-64.17
418.649	-76.46
418.857	23.89
419.065	19.8
419.273	-23.21
419.481	56.66
419.689	-39.59
419.897	36.18
420.105	23.89
420.313	56.66
420.521	191.83
420.729	89.43
420.937	-62.12
421.145	-17.07
421.353	75.09
421.561	142.68
421.769	9.56
421.977	-12.97
422.185	99.67
422.393	42.32
422.601	66.9
422.809	36.18
423.017	-88.75
423.224	71
423.432	17.75
423.64	36.18
423.848	114
424.056	56.66
424.263	116.05
424.471	1.37
424.679	54.61
424.887	-113.32
425.094	138.58
425.302	21.84
425.51	-53.93
425.718	7.51
425.925	-25.26
426.133	-21.16
426.341	99.67
426.548	-8.87
426.756	-78.51
426.964	34.13
427.171	-113.32
427.379	-0.68
427.586	-33.45
427.794	44.37
428.001	44.37
428.209	40.28
428.417	38.23
428.624	-12.97
428.832	66.9
429.039	97.62
429.247	38.23
429.454	40.28
429.662	130.39
429.869	56.66
430.076	50.52
430.284	44.37
430.491	132.44
430.699	122.2
430.906	83.28
431.114	42.32
431.321	71
431.528	95.57
431.736	124.24
431.943	50.52
432.15	23.89
432.358	60.76
432.565	132.44
432.772	-62.12
432.979	165.2
433.187	91.48
433.394	95.57
433.601	17.75
433.808	154.96
434.016	226.64
434.223	181.59
434.43	56.66
434.637	109.91
434.844	179.54
435.052	85.33
435.259	187.73
435.466	73.04
435.673	130.39
435.88	107.86
436.087	114
436.294	200.02
436.501	169.3
436.708	111.96
436.915	204.11
437.122	240.98
437.329	99.67
437.537	144.72
437.743	128.34
437.95	236.88
438.157	206.16
438.364	132.44
438.571	177.49
438.778	214.35
438.985	189.78
439.192	234.83
439.399	181.59
439.606	238.93
439.813	312.66
440.02	335.18
440.227	341.33
440.433	314.7
440.64	249.17
440.847	236.88
441.054	331.09
441.261	435.53
441.467	351.57
441.674	247.12
441.881	394.58
442.088	247.12
442.294	361.81
442.501	413.01
442.708	449.87
442.914	466.25
443.121	386.38
443.328	488.78
443.534	544.08
443.741	542.03
443.948	466.25
444.154	443.73
444.361	673.1
444.568	570.7
444.774	529.74
444.981	496.97
445.187	642.38
445.394	603.47
445.6	574.8
445.807	750.92
446.013	628.04
446.22	623.95
446.426	795.98
446.633	951.62
446.839	914.76
447.046	697.67
447.252	996.68
447.459	912.71
447.665	916.81
447.871	992.58
448.078	1054.02
448.284	1127.75
448.491	1080.64
448.697	1273.15
448.903	1113.41
449.11	1230.15
449.316	1310.02
449.522	1398.08
449.728	1389.89
449.935	1406.27
450.141	1396.03
450.347	1563.97
450.553	1566.01
450.76	1527.1
450.966	1709.37
451.172	1735.99
451.378	1770.81
451.584	1776.95
451.791	2102.58
451.997	1955.13
452.203	1998.13
452.409	2237.75
452.615	2303.28
452.821	2096.44
453.027	2164.02
453.233	2573.61
453.44	2456.88
453.646	2454.83
453.852	2553.13
454.058	2678.06
454.264	2739.5
454.47	3013.93
454.676	2788.65
454.882	3347.75
455.088	3056.93
455.294	3298.59
455.5	3556.64
455.705	3755.29
455.911	3906.84
456.117	3783.96
456.323	3892.51
456.529	3999
456.735	4398.35
456.941	4441.36
457.147	4498.7
457.352	4699.41
457.558	4846.86
457.764	5207.3
457.97	5295.36
458.176	5348.61
458.381	5674.24
458.587	5852.41
458.793	6221.05
458.999	6145.27
459.204	7050.47
459.41	7202.02
459.616	7091.43
459.821	7486.69
460.027	7611.62
460.233	8187.1
460.438	8166.62
460.644	8819.92
460.85	8619.22
461.055	8946.89
461.261	9391.3
461.466	9303.24
461.672	9491.65
461.878	10699.95
462.083	10509.49
462.289	10818.74
462.494	11240.62
462.7	11252.91
462.905	11453.61
463.111	12233.88
463.316	12872.85
463.522	13014.16
463.727	13610.12
463.932	14025.86
464.138	14543.99
464.343	15371.37
464.549	15144.05
464.754	16516.19
464.959	16958.55
465.165	16831.57
465.37	16890.96
465.575	17040.47
465.781	18134.08
465.986	18736.18
466.191	18363.45
466.397	18652.22
466.602	17890.37
466.807	19407.92
467.012	19475.5
467.218	19821.61
467.423	19807.27
467.628	20458.53
467.833	21335.06
468.038	21046.29
468.244	20565.02
468.449	21783.56
468.654	21445.65
468.859	21330.96
469.064	21351.44
469.269	20882.45
469.474	20997.14
469.679	21871.62
469.885	20978.71
470.09	21715.98
470.295	21492.75
470.5	20802.58
470.705	21187.6
470.91	20773.91
471.115	20270.11
471.32	20745.24
471.525	20462.62
471.73	19856.42
471.935	20057.12
472.139	19274.8
472.344	19010.61
472.549	19063.86
472.754	18465.85
472.959	18232.38
473.164	17783.88
473.369	17527.88
473.574	17859.65
473.778	17478.73
473.983	17605.7
474.188	17038.42
474.393	16006.24
474.598	15983.71
474.802	15617.13
475.007	15484.01
475.212	15367.27
475.417	14781.56
475.621	14679.16
475.826	14595.19
476.031	14269.56
476.235	13902.98
476.44	13720.71
476.645	13671.56
476.849	13452.42
477.054	13274.25
477.259	12835.99
477.463	12932.24
477.668	12555.41
477.872	12506.26
478.077	12309.66
478.282	11728.03
478.486	11807.91
478.691	11650.21
478.895	11494.57
479.1	11443.37
479.304	11283.63
479.509	10648.75
479.713	10955.95
479.918	10583.22
480.122	10665.14
480.326	10636.47
480.531	10558.64
480.735	10230.97
480.94	10130.62
481.144	10650.8
481.348	9946.3
481.553	10198.2
481.757	9675.97
481.961	9833.66
482.166	10028.22
482.37	9794.75
482.574	9481.41
482.778	9655.49
482.983	9741.5
483.187	9440.45
483.391	9442.5
483.595	9395.4
483.8	9182.41
484.004	9258.18
484.208	9309.38
484.412	9084.11
484.616	8905.93
484.821	8811.73
485.025	8723.66
485.229	8723.66
485.433	8506.58
485.637	8416.47
485.841	8408.28
486.045	8201.43
486.249	8035.55
486.453	8051.93
486.657	7720.16
486.861	7816.41
487.065	7396.58
487.269	7693.54
487.473	7255.27
487.677	7283.94
487.881	7220.46
488.085	7052.52
488.289	7038.19
488.493	6659.31
488.697	6913.26
488.901	6626.54
489.105	6417.65
489.309	6386.93
489.512	6331.64
489.716	6124.79
489.92	5965.05
490.124	6030.59
490.328	5936.38
490.531	5774.59
490.735	5883.13
490.939	5498.11
491.143	5448.96
491.346	5340.42
491.55	5303.56
491.754	5145.86
491.958	5149.96
492.161	4840.72
492.365	5039.37
492.569	4758.8
492.772	4814.09
492.976	4801.8
493.18	4605.2
493.383	4621.58
493.587	4549.9
493.79	4556.05
493.994	4377.87
494.197	4332.82
494.401	4187.41
494.605	4111.64
494.808	4234.52
495.012	4164.89
495.215	4220.18
495.419	4166.93
495.622	4031.77
495.825	3921.18
496.029	4027.67
496.232	3951.9
496.436	3964.18
496.639	4011.29
496.843	3955.99
497.046	3882.27
497.249	3982.62
497.453	3929.37
497.656	3880.22
497.859	3999
498.063	4031.77
498.266	3978.52
498.469	3851.55
498.673	3939.61
498.876	3767.58
499.079	4019.48
499.282	3978.52
499.485	4132.12
499.689	4015.38
499.892	4025.62
500.095	3859.74
500.298	4111.64
500.501	3900.7
500.705	4263.19
500.908	4216.09
501.111	4136.21
501.314	4361.49
501.517	4318.48
501.72	4293.91
501.923	4281.62
502.126	4328.72
502.329	4431.12
502.532	4521.23
502.735	4488.46
502.938	4629.77
503.141	4597.01
503.344	4549.9
503.547	4754.7
503.75	4617.49
503.953	4744.46
504.156	4875.53
504.359	4740.36
504.562	4918.54
504.765	4926.73
504.968	5170.44
505.17	5281.03
505.373	5305.6
505.576	5500.16
505.779	5383.43
505.982	5387.52
506.185	5541.12
506.387	5612.8
506.59	5879.04
506.793	5842.17
506.996	6071.54
507.198	6173.94
507.401	6223.09
507.604	6438.13
507.807	6624.5
508.009	6528.24
508.212	6821.1
508.415	6874.35
508.617	7050.47
508.82	7083.24
509.022	7089.39
509.225	7453.92
509.428	7578.85
509.63	7648.48
509.833	7884
510.035	8170.71
510.238	8131.8
510.44	8168.66
510.643	8723.66
510.845	8836.3
511.048	8899.79
511.25	9161.93
511.453	9211.08
511.655	9518.28
511.858	9809.09
512.06	9977.02
512.262	10341.56
512.465	10224.83
512.667	10802.35
512.87	10828.98
513.072	11138.22
513.274	11584.68
513.477	11758.75
513.679	12029.09
513.881	12446.87
514.084	12575.89
514.286	12977.3
514.488	13051.02
514.69	13458.57
514.893	13786.24
515.095	13872.26
515.297	14447.74
515.499	14578.81
515.701	14828.66
515.904	15332.46
516.106	15563.88
516.308	16030.82
516.51	16409.69
516.712	16540.76
516.914	17013.84
517.116	17509.45
517.318	17595.46
517.52	18000.96
517.722	18177.09
517.925	18646.07
518.127	19287.09
518.329	19448.88
518.531	19586.09
518.733	20200.48
518.935	20677.66
519.136	21091.35
519.338	21330.96
519.54	21629.96
519.742	22340.61
519.944	22445.05
520.146	22754.3
520.348	23043.06
520.55	23487.47
520.752	23884.78
520.954	24316.9
521.155	24486.88
521.357	24867.8
521.559	25256.92
521.761	25787.34
521.963	25715.66
522.164	26014.66
522.366	26391.49
522.568	26627.01
522.77	27061.18
522.971	27415.47
523.173	27124.66
523.375	27501.49
523.576	28025.77
523.778	28072.87
523.98	28216.23
524.181	28523.43
524.383	28326.82
524.584	28943.26
524.786	28859.29
524.988	28316.58
525.189	29027.23
525.391	29451.16
525.592	28859.29
525.794	29430.68
525.995	29305.75
526.197	29438.87
526.398	29371.29
526.6	29651.86
526.801	29404.05
527.003	29209.5
527.204	29354.9
527.406	29545.36
527.607	29332.37
527.808	29201.3
528.01	28681.12
528.211	28529.57
528.412	29016.99
528.614	28515.23
528.815	28754.85
529.016	28957.6
529.218	28042.15
529.419	28038.06
529.62	27747.25
529.822	27315.12
530.023	27270.07
530.224	27245.49
530.425	26627.01
530.626	26358.72
530.828	25832.4
531.029	26274.76
531.23	25957.32
531.431	25603.02
531.632	25631.69
531.833	25328.59
532.035	24775.64
532.236	24675.29
532.437	24300.51
532.638	23911.4
532.839	23784.43
533.04	23512.05
533.241	23032.82
533.442	23288.82
533.643	22785.02
533.844	22356.99
534.045	22275.07
534.246	21562.38
534.447	21752.84
534.648	21056.53
534.849	20980.76
535.05	20659.23
535.251	20380.7
535.451	20071.46
535.652	19917.86
535.853	19756.07
536.054	19594.28
536.255	19274.8
536.456	18910.26
536.657	18924.6
536.857	18332.73
537.058	18115.65
537.259	18113.6
537.46	17781.83
537.66	17706.06
537.861	17259.6
538.062	17179.73
538.263	16647.26
538.463	16694.36
538.664	16438.36
538.865	16344.16
539.065	16168.03
539.266	15764.58
539.466	15733.86
539.667	15369.32
539.868	15432.81
540.068	15369.32
540.269	14890.1
540.469	14828.66
540.67	14689.4
540.87	14445.69
541.071	13968.51
541.271	14023.81
541.472	13933.7
541.672	13794.43
541.873	13761.67
542.073	13350.03
542.274	13390.98
542.474	13098.13
542.675	13069.45
542.875	12940.43
543.075	12672.15
543.276	12559.51
543.476	12481.69
543.676	12453.02
543.877	12233.88
544.077	12029.09
544.277	12000.41
544.478	11803.81
544.678	11807.91
544.878	11719.84
545.078	11322.54
545.279	10970.29
545.479	10939.57
545.679	11009.2
545.879	10892.46
546.079	10835.12
546.28	10536.12
546.48	10568.88
546.68	10470.58
546.88	10378.42
547.08	10175.67
547.28	10001.6
547.48	9493.7
547.68	9981.12
547.88	9635.01
548.081	9559.24
548.281	9340.1
548.481	9313.48
548.681	9133.26
548.881	9125.07
549.081	9084.11
549.28	8971.47
549.48	8799.44
549.68	8807.63
549.88	8781.01
550.08	8279.25
550.28	8234.2
550.48	8201.43
550.68	8217.82
550.88	8051.93
551.08	7836.89
551.279	7787.74
551.479	7630.05
551.679	7638.24
551.879	7322.85
552.079	7335.14
552.278	6974.7
552.478	7326.95
552.678	7058.67
552.878	6937.84
553.077	6528.24
553.277	6628.59
553.477	6642.93
553.676	6450.42
553.876	6386.93
554.076	6274.29
554.275	6102.26
554.475	6106.36
554.674	6030.59
554.874	5879.04
555.074	5756.16
555.273	5616.9
555.473	5575.94
555.672	5512.45
555.872	5577.98
556.071	5403.91
556.271	5424.39
556.47	5285.12
556.67	4965.64
556.869	5020.94
557.068	4830.48
557.268	4744.46
557.467	4740.36
557.667	4740.36
557.866	4576.53
558.065	4523.28
558.265	4244.76
558.464	4330.77
558.663	4449.55
558.863	4144.41
559.062	4259.09
559.261	3886.36
559.461	4187.41
559.66	4085.01
559.859	3804.44
560.058	3753.24
560.258	3718.43
560.457	3597.6
560.656	3749.15
560.855	3548.45
561.054	3558.69
561.253	3454.24
561.453	3450.14
561.652	3333.41
561.851	3413.28
562.05	3403.04
562.249	3087.65
562.448	3167.52
562.647	3028.26
562.846	3007.78
563.045	2989.35
563.244	2884.91
563.443	2950.44
563.642	2858.28
563.841	2694.44
564.04	2673.96
564.239	2624.81
564.438	2639.15
564.637	2651.44
564.836	2524.46
565.035	2475.31
565.234	2409.78
565.432	2432.3
565.631	2503.98
565.83	2489.65
566.029	2303.28
566.228	2317.62
566.427	2383.15
566.625	2112.82
566.824	2299.19
567.023	2276.66
567.222	2268.47
567.42	2057.53
567.619	2061.62
567.818	2010.42
568.016	2186.55
568.215	1926.46
568.414	2065.72
568.612	1975.61
568.811	1828.15
569.01	1967.42
569.208	1791.29
569.407	1881.4
569.605	1844.54
569.804	1635.64
570.002	1772.86
570.201	1633.6
570.4	1656.12
570.598	1598.78
570.797	1746.23
570.995	1539.39
571.193	1494.33
571.392	1588.54
571.59	1539.39
571.789	1590.59
571.987	1467.71
572.186	1504.57
572.384	1465.66
572.582	1471.81
572.781	1402.18
572.979	1312.07
573.177	1340.74
573.376	1318.21
573.574	1406.27
573.772	1271.11
573.971	1226.05
574.169	1213.76
574.367	1254.72
574.565	1105.22
574.763	1094.98
574.962	1094.98
575.16	1088.84
575.358	1056.07
575.556	1105.22
575.754	1154.37
575.952	1117.51
576.151	1041.73
576.349	1047.88
576.547	976.2
576.745	1029.45
576.943	996.68
577.141	972.1
577.339	976.2
577.537	865.61
577.735	900.42
577.933	968.01
578.131	773.45
578.329	965.96
578.527	851.27
578.725	820.55
578.923	775.5
579.121	861.51
579.319	673.1
579.516	652.62
579.714	937.29
579.912	816.46
580.11	593.23
580.308	638.28
580.506	687.43
580.704	664.91
580.901	648.52
581.099	769.35
581.297	669
581.495	693.58
581.692	619.85
581.89	834.89
582.088	634.19
582.285	607.56
582.483	582.99
582.681	582.99
582.878	587.08
583.076	660.81
583.274	691.53
583.471	654.67
583.669	542.03
583.866	435.53
584.064	484.69
584.262	523.6
584.459	486.73
584.657	578.89
584.854	599.37
585.052	501.07
585.249	419.15
585.447	568.65
585.644	456.01
585.841	523.6
586.039	488.78
586.236	539.98
586.434	437.58
586.631	396.62
586.828	451.92
587.026	372.05
587.223	410.96
587.42	427.34
587.618	419.15
587.815	443.73
588.012	347.47
588.21	370
588.407	408.91
588.604	466.25
588.801	222.55
588.999	341.33
589.196	451.92
589.393	363.86
589.59	347.47
589.787	413.01
589.984	326.99
590.182	382.29
590.379	312.66
590.576	345.42
590.773	384.34
590.97	312.66
591.167	320.85
591.364	386.38
591.561	240.98
591.758	445.77
591.955	410.96
592.152	361.81
592.349	324.94
592.546	314.7
592.743	271.7
592.94	255.31
593.137	294.22
593.334	333.14
593.531	351.57
593.727	370
593.924	359.76
594.121	310.61
594.318	316.75
594.515	341.33
594.712	435.53
594.908	423.25
595.105	238.93
595.302	413.01
595.499	329.04
595.696	509.26
595.892	279.89
596.089	480.59
596.286	365.9
596.482	451.92
596.679	456.01
596.876	374.1
597.072	398.67
597.269	460.11
597.466	415.05
597.662	439.63
597.859	572.75
598.055	443.73
598.252	490.83
598.448	615.76
598.645	582.99
598.841	523.6
599.038	677.19
599.234	705.87
599.431	656.72
599.627	591.18
599.824	695.63
600.02	613.71
600.217	654.67
600.413	771.4
600.609	738.63
600.806	1076.55
601.002	865.61
601.198	785.74
601.395	931.14
601.591	906.57
601.787	902.47
601.984	1064.26
602.18	1076.55
602.376	1066.31
602.572	1148.23
602.769	1178.95
602.965	1262.91
603.161	1287.49
603.357	1275.2
603.553	1377.6
603.75	1340.74
603.946	1430.85
604.142	1475.9
604.338	1686.84
604.534	1498.43
604.73	1613.12
604.926	1678.65
605.122	1764.67
605.318	1758.52
605.514	1795.39
605.71	1930.55
605.906	1971.51
606.102	1961.27
606.298	2073.91
606.494	2219.32
606.69	2192.69
606.886	2118.96
607.082	2211.12
607.278	2305.33
607.474	2540.85
607.67	2676.01
607.866	2434.35
608.062	2651.44
608.257	2731.31
608.453	2721.07
608.649	2991.4
608.845	2942.25
609.041	2932.01
609.236	3034.41
609.432	3185.96
609.628	3409.19
609.824	3380.51
610.019	3407.14
610.215	3587.36
610.411	3718.43
610.606	3812.64
610.802	3798.3
610.998	3900.7
611.193	3949.85
611.389	4066.58
611.584	4351.25
611.78	4308.24
611.976	4375.83
612.171	4699.41
612.367	4773.13
612.562	4881.67
612.758	4848.91
612.953	5029.13
613.149	5149.96
613.344	5235.97
613.539	5553.41
613.735	5455.11
613.93	5782.78
614.126	5889.28
614.321	6055.16
614.517	6221.05
614.712	6462.71
614.907	6520.05
615.103	6464.75
615.298	6661.36
615.493	6986.99
615.688	7169.26
615.884	7466.21
616.079	7308.52
616.274	7691.49
616.47	7732.45
616.665	8006.88
616.86	8326.36
617.055	8475.86
617.25	8623.31
617.445	8910.03
617.641	9086.15
617.836	9374.92
618.031	9288.9
618.226	9821.38
618.421	9970.88
618.616	10239.16
618.811	10079.42
619.006	10724.53
619.201	10847.41
619.396	11113.64
619.591	11213.99
619.786	11748.51
619.981	11883.68
620.176	12141.72
620.371	12231.83
620.566	12450.97
620.761	12897.42
620.956	13188.24
621.151	13268.11
621.346	13980.8
621.541	13642.89
621.735	14361.72
621.93	14265.47
622.125	14484.6
622.32	14740.6
622.515	15121.52
622.709	15434.86
622.904	15768.68
623.099	16071.78
623.294	16157.79
623.488	16354.4
623.683	16772.18
623.878	16712.79
624.072	17421.39
624.267	17521.74
624.462	17706.06
624.656	18216
624.851	18340.93
625.046	18568.25
625.24	19033.14
625.435	19002.42
625.629	19680.3
625.824	19661.87
626.018	20028.45
626.213	20016.16
626.407	20229.15
626.602	20515.87
626.796	20861.97
626.991	21171.22
627.185	21468.17
627.38	21603.34
627.574	21543.95
627.768	21449.74
627.963	21750.79
628.157	21955.59
628.352	21842.95
628.546	21605.39
628.74	21982.21
628.935	21666.83
629.129	21963.78
629.323	21900.3
629.517	21681.16
629.712	21777.42
629.906	21740.55
630.1	21279.76
630.294	21443.6
630.489	20794.39
630.683	20575.26
630.877	20124.71
631.071	20001.83
631.265	19837.99
631.459	19131.44
631.653	18924.6
631.848	18682.94
632.042	18334.78
632.236	17945.67
632.43	17282.13
632.624	17015.89
632.818	16362.59
633.012	15930.47
633.206	15580.26
633.4	15174.77
633.594	14417.02
633.788	14300.28
633.982	13581.45
634.176	13259.91
634.369	12797.07
634.563	12254.36
634.757	11809.95
634.951	11402.41
635.145	10974.38
635.339	10529.97
635.533	10198.2
635.726	9698.5
635.92	9118.92
636.114	8856.78
636.308	8494.29
636.501	8178.9
636.695	7720.16
636.889	7550.18
637.083	7269.61
637.276	6878.44
637.47	6515.95
637.664	6204.66
637.857	6219
638.051	5940.47
638.244	5719.29
638.438	5321.99
638.632	5266.69
638.825	4871.43
639.019	4850.96
639.212	4556.05
639.406	4504.85
639.599	4177.17
639.793	4156.69
639.986	3863.83
640.18	3802.4
640.373	3581.21
640.567	3415.33
640.76	3392.8
640.954	3167.52
641.147	3011.88
641.34	2864.43
641.534	2839.85
641.727	2827.56
641.92	2704.68
642.114	2534.7
642.307	2374.96
642.5	2483.5
642.694	2233.65
642.887	2164.02
643.08	2186.55
643.273	2073.91
643.467	2016.57
643.66	1815.87
643.853	1779
644.046	1686.84
644.239	1637.69
644.432	1523.01
644.626	1561.92
644.819	1486.14
645.012	1326.4
645.205	1303.87
645.398	1459.52
645.591	1228.1
645.784	1094.98
645.977	1144.13
646.17	1119.56
646.363	1017.16
646.556	943.43
646.749	1004.87
646.942	992.58
647.135	943.43
647.328	824.65
647.521	865.61
647.714	752.97
647.907	769.35
648.099	677.19
648.292	841.03
648.485	730.44
648.678	648.52
648.871	605.52
649.064	626
649.256	601.42
649.449	527.69
649.642	460.11
649.835	462.16
650.027	388.43
650.22	488.78
650.413	365.9
650.605	511.31
650.798	441.68
650.991	429.39
651.183	394.58
651.376	370
651.568	333.14
651.761	400.72
651.954	365.9
652.146	388.43
652.339	402.77
652.531	331.09
652.724	238.93
652.916	279.89
653.109	236.88
653.301	304.46
653.494	310.61
653.686	275.79
653.879	304.46
654.071	275.79
654.263	251.22
654.456	116.05
654.648	279.89
654.84	236.88
655.033	165.2
655.225	259.41
655.417	146.77
655.61	243.03
655.802	245.07
655.994	236.88
656.186	193.87
656.379	230.74
656.571	136.53
656.763	126.29
656.955	107.86
657.148	173.39
657.34	222.55
657.532	154.96
657.724	138.58
657.916	111.96
658.108	212.31
658.3	148.82
658.492	163.15
658.684	93.52
658.876	154.96
659.068	40.28
659.26	50.52
659.452	89.43
659.644	107.86
659.836	173.39
660.028	122.2
660.22	-0.68
660.412	-2.73
660.604	68.95
660.796	89.43
660.988	136.53
661.18	19.8
661.372	167.25
661.563	34.13
661.755	79.19
661.947	44.37
662.139	64.85
662.331	30.04
662.522	103.76
662.714	23.89
662.906	46.42
663.097	68.95
663.289	30.04
663.481	-12.97
663.673	71
663.864	13.65
664.056	42.32
664.247	1.37
664.439	75.09
664.631	99.67
664.822	71
665.014	116.05
665.205	23.89
665.397	1.37
665.588	128.34
665.78	93.52
665.971	50.52
666.163	38.23
666.354	105.81
666.546	1.37
666.737	-51.88
666.929	-51.88
667.12	42.32
667.311	116.05
667.503	71
667.694	128.34
667.885	15.7
668.077	75.09
668.268	48.47
668.459	116.05
668.651	-15.02
668.842	56.66
669.033	54.61
669.224	34.13
669.416	165.2
669.607	99.67
669.798	30.04
669.989	179.54
670.18	48.47
670.371	97.62
670.563	-31.4
670.754	111.96
670.945	93.52
671.136	191.83
671.327	71
671.518	167.25
671.709	148.82
671.9	171.35
672.091	157.01
672.282	42.32
672.473	97.62
672.664	-23.21
672.855	30.04
673.046	101.72
673.237	126.29
673.428	42.32
673.619	140.63
673.809	1.37
674	136.53
674.191	99.67
674.382	-12.97
674.573	89.43
674.764	83.28
674.954	124.24
675.145	64.85
675.336	40.28
675.527	23.89
675.717	50.52
675.908	-27.31
676.099	50.52
676.289	109.91
676.48	9.56
676.671	34.13
676.861	66.9
677.052	140.63
677.243	126.29
677.433	19.8
677.624	116.05
677.814	81.24
678.005	-15.02
678.195	214.35
678.386	32.08
678.576	25.94
678.767	122.2
678.957	99.67
679.148	173.39
679.338	179.54
679.529	122.2
679.719	50.52
679.909	171.35
680.1	99.67
680.29	132.44
680.481	64.85
680.671	114
680.861	120.15
681.052	101.72
681.242	75.09
681.432	159.06
681.622	202.07
681.813	40.28
682.003	193.87
682.193	48.47
682.383	111.96
682.573	152.91
682.764	81.24
682.954	195.92
683.144	126.29
683.334	91.48
683.524	122.2
683.714	87.38
683.904	130.39
684.094	128.34
684.284	142.68
684.474	218.45
684.664	152.91
684.854	136.53
685.044	165.2
685.234	144.72
685.424	111.96
685.614	71
685.804	236.88
685.994	169.3
686.184	95.57
686.374	124.24
686.564	130.39
686.753	58.71
686.943	99.67
687.133	116.05
687.323	122.2
687.513	132.44
687.702	144.72
687.892	93.52
688.082	202.07
688.272	210.26
688.461	114
688.651	214.35
688.841	140.63
689.03	44.37
689.22	144.72
689.41	197.97
689.599	187.73
689.789	64.85
689.979	157.01
690.168	134.48
690.358	150.87
690.547	91.48
690.737	236.88
690.926	193.87
691.116	171.35
691.305	202.07
691.495	146.77
691.684	54.61
691.874	118.1
692.063	154.96
692.252	247.12
692.442	214.35
692.631	83.28
692.82	62.8
693.01	114
693.199	146.77
693.388	212.31
693.578	107.86
693.767	118.1
693.956	169.3
694.146	138.58
694.335	216.4
694.524	46.42
694.713	66.9
694.902	132.44
695.092	71
695.281	204.11
695.47	144.72
695.659	56.66
695.848	89.43
696.037	120.15
696.226	175.44
696.415	177.49
696.604	173.39
696.793	142.68
696.982	101.72
697.171	200.02
697.36	77.14
697.549	107.86
697.738	23.89
697.927	165.2
698.116	42.32
698.305	185.68
698.494	93.52
698.683	111.96
698.872	230.74
699.061	136.53
699.25	132.44
699.438	173.39
699.627	120.15
699.816	263.51
700.005	56.66
700.193	134.48
700.382	175.44
700.571	122.2
700.76	136.53
700.948	157.01
701.137	146.77
701.326	148.82
701.514	89.43
701.703	130.39
701.892	54.61
702.08	302.42
702.269	52.56
702.457	62.8
702.646	171.35
702.834	75.09
703.023	134.48
703.212	114
703.4	97.62
703.589	83.28
703.777	159.06
703.965	169.3
704.154	73.04
704.342	44.37
704.531	25.94
704.719	146.77
704.907	240.98
705.096	48.47
705.284	73.04
705.472	97.62
705.661	91.48
705.849	161.11
706.037	234.83
706.226	187.73
706.414	126.29
706.602	83.28
706.79	122.2
706.979	105.81
707.167	91.48
707.355	56.66
707.543	165.2
707.731	114
707.919	95.57
708.107	91.48
708.296	144.72
708.484	-2.73
708.672	48.47
708.86	181.59
709.048	122.2
709.236	73.04
709.424	179.54
709.612	114
709.8	79.19
709.988	99.67
710.176	187.73
710.364	163.15
710.551	152.91
710.739	128.34
710.927	66.9
711.115	165.2
711.303	152.91
711.491	181.59
711.679	30.04
711.866	226.64
712.054	105.81
712.242	171.35
712.43	161.11
712.617	40.28
712.805	165.2
712.993	105.81
713.181	25.94
713.368	173.39
713.556	118.1
713.744	71
713.931	247.12
714.119	193.87
714.306	54.61
714.494	19.8
714.682	40.28
714.869	126.29
715.057	97.62
715.244	54.61
715.432	122.2
715.619	87.38
715.807	77.14
715.994	81.24
716.182	130.39
716.369	273.75
716.556	175.44
716.744	-2.73
716.931	54.61
717.119	165.2
717.306	93.52
717.493	138.58
717.681	97.62
717.868	46.42
718.055	161.11
718.242	87.38
718.43	132.44
718.617	148.82
718.804	93.52
718.991	195.92
719.179	120.15
719.366	165.2
719.553	189.78
719.74	157.01
719.927	146.77
720.114	107.86
720.301	75.09
720.488	175.44
720.676	52.56
720.863	249.17
721.05	228.69
721.237	234.83
721.424	146.77
721.611	73.04
721.798	77.14
721.985	107.86
722.172	165.2
722.358	124.24
722.545	214.35
722.732	95.57
722.919	206.16
723.106	243.03
723.293	154.96
723.48	140.63
723.667	109.91
723.853	261.46
724.04	197.97
724.227	247.12
724.414	103.76
724.6	177.49
724.787	257.36
724.974	275.79
725.161	173.39
725.347	54.61
725.534	185.68
725.72	238.93
725.907	173.39
726.094	189.78
726.28	187.73
726.467	122.2
726.653	173.39
726.84	316.75
727.027	259.41
727.213	146.77
727.4	214.35
727.586	206.16
727.773	103.76
727.959	165.2
728.145	136.53
728.332	109.91
728.518	148.82
728.705	107.86
728.891	234.83
729.077	210.26
729.264	161.11
729.45	85.33
729.636	257.36
729.823	157.01
730.009	257.36
730.195	171.35
730.382	193.87
730.568	89.43
730.754	197.97
730.94	210.26
731.126	152.91
731.313	187.73
731.499	255.31
731.685	208.21
731.871	288.08
732.057	243.03
732.243	288.08
732.429	222.55
732.615	288.08
732.801	189.78
732.987	111.96
733.173	152.91
733.359	181.59
733.545	189.78
733.731	165.2
733.917	218.45
734.103	185.68
734.289	189.78
734.475	122.2
734.661	181.59
734.847	197.97
735.033	161.11
735.219	181.59
735.404	105.81
735.59	161.11
735.776	142.68
735.962	286.03
736.148	294.22
736.333	216.4
736.519	197.97
736.705	202.07
736.89	226.64
737.076	136.53
737.262	136.53
737.447	124.24
737.633	105.81
737.819	240.98
738.004	234.83
738.19	171.35
738.375	200.02
738.561	232.79
738.747	204.11
738.932	165.2
739.118	300.37
739.303	302.42
739.489	230.74
739.674	175.44
739.859	118.1
740.045	163.15
740.23	333.14
740.416	62.8
740.601	134.48
740.786	165.2
740.972	171.35
741.157	187.73
741.342	189.78
741.528	105.81
741.713	331.09
741.898	179.54
742.084	175.44
742.269	157.01
742.454	234.83
742.639	220.5
742.824	181.59
743.01	288.08
743.195	304.46
743.38	240.98
743.565	163.15
743.75	255.31
743.935	218.45
744.12	329.04
744.305	128.34
744.49	206.16
744.675	142.68
744.86	77.14
745.045	226.64
745.23	130.39
745.415	134.48
745.6	206.16
745.785	189.78
745.97	159.06
746.155	247.12
746.34	329.04
746.525	206.16
746.71	277.84
746.895	114
747.079	146.77
747.264	163.15
747.449	230.74
747.634	236.88
747.819	206.16
748.003	197.97
748.188	171.35
748.373	159.06
748.557	200.02
748.742	179.54
748.927	103.76
749.111	152.91
749.296	87.38
749.481	185.68
749.665	169.3
749.85	136.53
750.034	234.83
750.219	204.11
750.404	152.91
750.588	165.2
750.773	157.01
750.957	175.44
751.141	99.67
751.326	249.17
751.51	124.24
751.695	81.24
751.879	128.34
752.064	146.77
752.248	175.44
752.432	230.74
752.617	220.5
752.801	197.97
752.985	52.56
753.17	263.51
753.354	171.35
753.538	138.58
753.722	116.05
753.907	79.19
754.091	21.84
754.275	140.63
754.459	19.8
754.643	177.49
754.828	118.1
755.012	169.3
755.196	42.32
755.38	134.48
755.564	77.14
755.748	56.66
755.932	116.05
756.116	136.53
756.3	236.88
756.484	97.62
756.668	136.53
756.852	36.18
757.036	152.91
757.22	146.77
757.404	111.96
757.588	23.89
757.772	50.52
757.956	118.1
758.14	146.77
758.323	169.3
758.507	226.64
758.691	142.68
758.875	218.45
759.059	175.44
759.242	148.82
759.426	181.59
759.61	116.05
759.794	79.19
759.977	173.39
760.161	206.16
760.345	220.5
760.528	208.21
760.712	157.01
760.895	89.43
761.079	40.28
761.263	15.7
761.446	13.65
761.63	42.32
761.813	183.63
761.997	-51.88
762.18	27.99
762.364	111.96
762.547	5.46
762.731	34.13
762.914	48.47
763.098	50.52
763.281	50.52
763.464	-17.07
763.648	85.33
763.831	40.28
764.015	9.56
764.198	91.48
764.381	9.56
764.564	75.09
764.748	48.47
764.931	83.28
765.114	5.46
765.297	109.91
765.481	21.84
765.664	122.2
765.847	62.8
766.03	140.63
766.213	58.71
766.397	48.47
766.58	-23.21
766.763	124.24
766.946	52.56
767.129	148.82
767.312	19.8
767.495	-31.4
767.678	1.37
767.861	9.56
768.044	64.85
768.227	-53.93
768.41	23.89
768.593	124.24
768.776	32.08
768.959	1.37
769.142	157.01
769.324	99.67
769.507	71
769.69	23.89
769.873	-43.69
770.056	202.07
770.239	95.57
770.421	152.91
770.604	124.24
770.787	30.04
770.97	116.05
771.152	-37.55
771.335	116.05
771.518	-29.35
771.7	124.24
771.883	195.92
772.066	38.23
772.248	50.52
772.431	60.76
772.613	79.19
772.796	40.28
772.978	15.7
773.161	142.68
773.343	11.61
773.526	-4.78
773.708	15.7
773.891	-15.02
774.073	15.7
774.256	25.94
774.438	140.63
774.621	23.89
774.803	62.8
774.985	15.7
775.168	66.9
775.35	-49.83
775.532	109.91
775.715	89.43
775.897	105.81
776.079	-31.4
776.261	71
776.444	79.19
776.626	-19.11
776.808	-31.4
776.99	-45.74
777.173	23.89
777.355	81.24
777.537	-2.73
777.719	64.85
777.901	40.28
778.083	-29.35
778.265	-0.68
778.447	91.48
778.629	58.71
778.811	66.9
778.993	50.52
779.175	68.95
779.357	81.24
779.539	-76.46
779.721	-2.73
779.903	21.84
780.085	-8.87
780.267	62.8
780.449	-25.26
780.631	87.38
780.812	116.05
780.994	50.52
781.176	38.23
781.358	-8.87
781.54	-47.79
781.721	17.75
781.903	25.94
782.085	91.48
782.267	58.71
782.448	-23.21
782.63	-2.73
782.812	23.89
782.993	109.91
783.175	9.56
783.357	-39.59
783.538	17.75
783.72	-39.59
783.901	50.52
784.083	99.67
784.264	19.8
784.446	-84.65
784.627	-53.93
784.809	58.71
784.99	-86.7
785.172	107.86
785.353	46.42
785.535	17.75
785.716	13.65
785.897	-43.69
786.079	32.08
786.26	97.62
786.441	77.14
786.623	-55.98
786.804	-60.07
786.985	-25.26
787.167	89.43
787.348	-37.55
787.529	1.37
787.71	138.58
787.891	34.13
788.073	-15.02
788.254	-66.22
788.435	40.28
788.616	-74.41
788.797	-31.4
788.978	-70.31
789.159	-23.21
789.34	52.56
789.522	30.04
789.703	-35.5
789.884	62.8
790.065	13.65
790.246	116.05
790.427	-43.69
790.607	87.38
790.788	111.96
790.969	-88.75
791.15	-21.16
791.331	25.94
791.512	9.56
791.693	-39.59
791.874	7.51
792.054	136.53
792.235	107.86
792.416	-33.45
792.597	-8.87
792.778	-15.02
792.958	-8.87
793.139	81.24
793.32	-29.35
793.5	-64.17
793.681	95.57
793.862	11.61
794.042	-17.07
794.223	-58.03
794.404	-33.45
794.584	-135.85
794.765	34.13
794.945	-10.92
795.126	19.8
795.306	36.18
795.487	7.51
795.667	-49.83
795.848	17.75
796.028	-21.16
796.209	-15.02
796.389	58.71
796.57	-62.12
796.75	-8.87
796.93	-6.83
797.111	7.51
797.291	-74.41
797.471	9.56
797.652	34.13
797.832	-62.12
798.012	42.32
798.192	25.94
798.373	-121.51
798.553	66.9
798.733	-6.83
798.913	-60.07
799.093	-53.93
799.274	1.37
799.454	-19.11
799.634	116.05
799.814	44.37
799.994	1.37
800.174	101.72
800.354	25.94
800.534	-203.43
800.714	7.51
800.894	-64.17
801.074	-41.64
801.254	-92.84
801.434	103.76
801.614	25.94
801.794	-88.75
801.974	1566.01
802.154	-64.17
802.334	54.61
802.514	-39.59
802.693	-39.59
802.873	-0.68
803.053	79.19
803.233	58.71
803.413	-53.93
803.592	-51.88
803.772	-62.12
803.952	-55.98
804.131	-31.4
804.311	36.18
804.491	124.24
804.67	-80.55
804.85	-103.08
805.03	48.47
805.209	54.61
805.389	-78.51
805.568	-74.41
805.748	-37.55
805.928	-25.26
806.107	7.51
806.287	-15.02
806.466	17.75
806.646	-25.26
806.825	-23.21
807.004	-2.73
807.184	-4.78
807.363	77.14
807.543	-21.16
807.722	-43.69
807.901	77.14
808.081	27.99
808.26	-115.37
808.439	30.04
808.619	-33.45
808.798	-19.11
808.977	-35.5
809.156	-12.97
809.336	25.94
809.515	85.33
809.694	-82.6
809.873	-2.73
810.052	52.56
810.231	79.19
810.411	-64.17
810.59	5.46
810.769	-76.46
810.948	32.08
811.127	-115.37
811.306	-133.8
811.485	-19.11
811.664	114
811.843	9.56
812.022	-25.26
812.201	-101.03
812.38	-0.68
812.559	-94.89
812.737	-60.07
812.916	-98.99
813.095	-64.17
813.274	-72.36
813.453	-64.17
813.632	-8.87
813.811	3.41
813.989	-10.92
814.168	5.46
814.347	-123.56
814.526	-19.11
814.704	62.8
814.883	15.7
815.062	-25.26
815.24	34.13
815.419	-39.59
815.598	30.04
815.776	-88.75
815.955	-88.75
816.133	-238.25
816.312	-2.73
816.49	23.89
816.669	-23.21
816.847	-76.46
817.026	50.52
817.204	-6.83
817.383	-29.35
817.561	-68.27
817.74	71
817.918	17.75
818.097	-64.17
818.275	-121.51
818.453	42.32
818.632	23.89
818.81	-74.41
818.988	-101.03
819.167	-72.36
819.345	-31.4
819.523	-86.7
819.701	75.09
819.879	75.09
820.058	-2.73
820.236	-6.83
820.414	-60.07
820.592	-62.12
820.77	-0.68
820.948	-47.79
821.127	-64.17
821.305	-31.4
821.483	-109.23
821.661	81.24
821.839	-8.87
822.017	-60.07
822.195	-80.55
822.373	23.89
822.551	-29.35
822.729	71
822.907	-47.79
823.085	60.76
823.262	-15.02
823.44	-72.36
823.618	1.37
823.796	1.37
823.974	-17.07
824.152	-58.03
824.329	-2.73
824.507	-0.68
824.685	19.8
824.863	-4.78
825.04	-51.88
825.218	38.23
825.396	-47.79
825.574	-60.07
825.751	-74.41
825.929	11.61
826.107	-121.51
826.284	11.61
826.462	25.94
826.639	-78.51
826.817	-98.99
826.994	-31.4
827.172	-68.27
827.349	138.58
827.527	50.52
827.704	-64.17
827.882	-6.83
828.059	-98.99
828.237	-115.37
828.414	17.75
828.591	-170.66
828.769	52.56
828.946	-66.22
829.124	23.89
829.301	83.28
829.478	-39.59
829.655	-23.21
829.833	-49.83
830.01	-129.7
830.187	48.47
830.364	-2.73
830.542	-37.55
830.719	91.48
830.896	11.61
831.073	-29.35
831.25	1.37
831.427	-37.55
831.604	-51.88
831.782	-47.79
831.959	36.18
832.136	42.32
832.313	38.23
832.49	-21.16
832.667	5.46
832.844	27.99
833.021	-23.21
833.198	-8.87
833.374	1.37
833.551	1.37
833.728	-8.87
833.905	7.51
834.082	-144.04
834.259	15.7
834.436	25.94
834.612	-96.94
834.789	13.65
834.966	30.04
835.143	-21.16
835.319	-105.13
835.496	27.99
835.673	32.08
835.85	-17.07
836.026	9.56
836.203	30.04
836.38	38.23
836.556	-60.07
836.733	-25.26
836.909	44.37
837.086	-23.21
837.262	-84.65
837.439	-82.6
837.616	9.56
837.792	-29.35
837.968	-27.31
838.145	-88.75
838.321	-31.4
838.498	-8.87
838.674	-19.11
838.851	-64.17
839.027	-80.55
839.203	-41.64
839.38	87.38
839.556	-55.98
839.732	17.75
839.909	-12.97
840.085	3.41
840.261	-82.6
840.437	1.37
840.614	-31.4
840.79	-43.69
840.966	-8.87
841.142	-39.59
841.318	-27.31
841.494	27.99
841.671	-66.22
841.847	-66.22
842.023	5.46
842.199	62.8
842.375	99.67
842.551	-94.89
842.727	-82.6
842.903	128.34
843.079	-133.8
843.255	25.94
843.431	-6.83
843.607	15.7
843.783	-76.46
843.959	-12.97
844.134	-60.07
844.31	52.56
844.486	-90.79
844.662	-31.4
844.838	-6.83
845.013	5.46
845.189	97.62
845.365	9.56
845.541	-51.88
845.716	-64.17
845.892	32.08
846.068	-8.87
846.244	-84.65
846.419	13.65
846.595	-90.79
846.77	-101.03
846.946	105.81
847.122	-84.65
847.297	-39.59
847.473	36.18
847.648	-101.03
847.824	-15.02
847.999	-146.09
848.175	-39.59
848.35	21.84
848.526	34.13
848.701	11.61
848.876	-78.51
849.052	34.13
849.227	-90.79
849.403	-31.4
849.578	-15.02
849.753	-8.87
849.929	56.66
850.104	-49.83
850.279	-72.36
850.454	19.8
850.63	-0.68
850.805	3.41
850.98	19.8
851.155	-107.18
851.33	5.46
851.505	-58.03
851.681	48.47
851.856	-117.42
852.031	5.46
852.206	-72.36
852.381	-98.99
852.556	-37.55
852.731	-29.35
852.906	15.7
853.081	-19.11
853.256	85.33
853.431	-62.12
853.606	-39.59
853.781	-64.17
853.956	-148.14
854.131	-19.11
854.305	-96.94
854.48	-51.88
854.655	-53.93
854.83	-31.4
855.005	-107.18
855.18	-17.07
855.354	62.8
855.529	-80.55
855.704	-64.17
855.879	66.9
856.053	-105.13
856.228	7.51
856.403	-121.51
856.577	13.65
856.752	-121.51
856.926	-88.75
857.101	-45.74
857.276	-105.13
857.45	-6.83
857.625	-6.83
857.799	-39.59
857.974	-23.21
858.148	-129.7
858.323	-23.21
858.497	-43.69
858.672	-70.31
858.846	-58.03
859.02	25.94
859.195	-68.27
859.369	-31.4
859.543	-15.02
859.718	-45.74
859.892	-39.59
860.066	42.32
860.241	-101.03
860.415	17.75
860.589	-33.45
860.763	-49.83
860.938	-86.7
861.112	17.75
861.286	-2.73
861.46	-23.21
861.634	-39.59
861.808	52.56
861.982	-96.94
862.157	-78.51
862.331	-49.83
862.505	-92.84
862.679	-129.7
862.853	-82.6
863.027	-33.45
863.201	25.94
863.375	-33.45
863.549	17.75
863.722	-72.36
863.896	-6.83
864.07	-68.27
864.244	5.46
864.418	36.18
864.592	-25.26
864.766	1.37
864.939	-41.64
865.113	-27.31
865.287	101.72
865.461	-72.36
865.634	-39.59
865.808	7.51
865.982	-0.68
866.156	-80.55
866.329	-41.64
866.503	-4.78
866.676	-23.21
866.85	-17.07
867.024	11.61
867.197	15.7
867.371	-31.4
867.544	-19.11
867.718	-133.8
867.891	7.51
868.065	-139.94
868.238	-88.75
868.412	42.32
868.585	-31.4
868.759	-51.88
868.932	-19.11
869.105	-53.93
869.279	-68.27
869.452	-64.17
869.625	5.46
869.799	-80.55
869.972	-113.32
870.145	-12.97
870.319	23.89
870.492	-58.03
870.665	-2.73
870.838	-70.31
871.011	-131.75
871.185	-113.32
871.358	-90.79
871.531	15.7
871.704	-74.41
871.877	-6.83
872.05	-37.55
872.223	-166.57
872.396	-19.11
872.569	9.56
872.742	-168.62
872.915	17.75
873.088	23.89
873.261	-125.61
873.434	25.94
873.607	21.84
873.78	3.41
873.953	-158.38
874.126	5.46
874.299	11.61
874.471	-82.6
874.644	-64.17
874.817	-0.68
874.99	23.89
875.163	-39.59
875.335	-6.83
875.508	-17.07
875.681	-33.45
875.853	-64.17
876.026	-2.73
876.199	27.99
876.371	-31.4
876.544	-68.27
876.717	46.42
876.889	-23.21
877.062	34.13
877.234	-137.9
877.407	-58.03
877.579	-70.31
877.752	1.37
877.924	42.32
878.097	58.71
878.269	-47.79
878.442	-10.92
878.614	-6.83
878.786	-8.87
878.959	-0.68
879.131	-27.31
879.303	-88.75
879.476	-17.07
879.648	27.99
879.82	-72.36
879.993	13.65
880.165	-82.6
880.337	-74.41
880.509	-35.5
880.681	-152.23
880.854	-109.23
881.026	-39.59
881.198	62.8
881.37	-35.5
881.542	9.56
881.714	27.99
881.886	-17.07
882.058	-58.03
882.23	-113.32
882.402	-82.6
882.574	-8.87
882.746	-31.4
882.918	-39.59
883.09	-51.88
883.262	-21.16
883.434	56.66
883.606	-135.85
883.778	52.56
883.95	62.8
884.122	-115.37
884.293	21.84
884.465	-0.68
884.637	124.24
884.809	-53.93
884.98	73.04
885.152	-51.88
885.324	60.76
885.496	-139.94
885.667	-15.02
885.839	-103.08
886.011	34.13
886.182	-10.92
886.354	13.65
886.525	-0.68
886.697	-27.31
886.869	-55.98
887.04	-39.59
887.212	32.08
887.383	91.48
887.555	23.89
887.726	-78.51
887.897	17.75
888.069	-49.83
888.24	56.66
888.412	-76.46
888.583	-25.26
888.754	-62.12
888.926	-115.37
889.097	-33.45
889.268	-68.27
889.44	-23.21
889.611	-80.55
889.782	-29.35
889.953	-47.79
890.125	54.61
890.296	-121.51
890.467	-64.17
890.638	-51.88
890.809	-12.97
890.98	-88.75
891.151	-82.6
891.323	83.28
891.494	-49.83
891.665	5.46
891.836	-49.83
892.007	-21.16
892.178	-35.5
892.349	34.13
892.52	-60.07
892.691	-101.03
892.862	17.75
893.032	-103.08
893.203	-17.07
893.374	9.56
893.545	46.42
893.716	-178.86
893.887	-8.87
894.057	-72.36
894.228	-2.73
894.399	34.13
894.57	32.08
894.74	-2.73
894.911	17.75
895.082	-0.68
895.253	-107.18
895.423	-53.93
895.594	56.66
895.764	66.9
895.935	-103.08
896.106	75.09
896.276	-43.69
896.447	-19.11
896.617	-68.27
896.788	-123.56
896.958	-92.84
897.129	-66.22
897.299	-21.16
897.47	38.23
897.64	9.56
897.81	-49.83
897.981	-23.21
898.151	-49.83
898.322	-27.31
898.492	7.51
898.662	-43.69
898.832	-66.22
899.003	-21.16
899.173	7.51
899.343	-12.97
899.513	-96.94
