Data from USB4F104151__118__10-39-42-401.txt Node

Date: Wed Feb 26 10:39:42 EST 2025
User: louis
Spectrometer: USB4F10415
Trigger mode: 4
Integration Time (sec): 1.000000E-1
Scans to average: 1
Electric dark correction enabled: true
Nonlinearity correction enabled: false
Boxcar width: 0
XAxis mode: Wavelengths
Number of Pixels in Spectrum: 3648
>>>>>Begin Spectral Data<<<<<
178.204	-383.48
178.424	-383.48
178.644	-383.48
178.864	-461.3
179.084	-344.57
179.304	34.3
179.524	-25.09
179.744	-35.33
179.964	11.78
180.184	13.82
180.404	42.5
180.624	-12.8
180.844	9.73
181.064	5.63
181.283	-53.76
181.503	-14.85
181.723	24.06
181.943	-27.14
182.163	230.91
182.383	-53.76
182.602	67.07
182.822	194.05
183.042	142.85
183.262	-51.71
183.482	-33.28
183.701	15.87
183.921	83.45
184.141	42.5
184.361	77.31
184.58	52.74
184.8	85.5
185.02	-35.33
185.239	148.99
185.459	101.89
185.679	138.75
185.898	-23.04
186.118	91.65
186.338	34.3
186.557	157.18
186.777	15.87
186.997	-12.8
187.216	15.87
187.436	165.37
187.655	34.3
187.875	19.97
188.095	-14.85
188.314	183.81
188.534	58.88
188.753	-37.38
188.973	99.84
189.192	194.05
189.412	105.98
189.631	77.31
189.851	130.56
190.07	116.22
190.29	-107.01
190.509	11.78
190.729	124.41
190.948	202.24
191.168	220.67
191.387	71.17
191.607	-2.56
191.826	91.65
192.045	28.16
192.265	-39.42
192.484	52.74
192.704	46.59
192.923	-6.66
193.142	142.85
193.362	99.84
193.581	56.83
193.8	-23.04
194.02	110.08
194.239	103.93
194.458	134.65
194.678	85.5
194.897	44.54
195.116	1.54
195.335	62.98
195.555	93.69
195.774	13.82
195.993	198.14
196.212	44.54
196.432	99.84
196.651	-37.38
196.87	13.82
197.089	232.96
197.308	36.35
197.528	108.03
197.747	1.54
197.966	65.02
198.185	185.85
198.404	-51.71
198.623	7.68
198.842	132.61
199.062	56.83
199.281	148.99
199.5	54.78
199.719	89.6
199.938	46.59
200.157	128.51
200.376	148.99
200.595	126.46
200.814	83.45
201.033	-23.04
201.252	91.65
201.471	71.17
201.69	56.83
201.909	52.74
202.128	189.95
202.347	189.95
202.566	15.87
202.785	-113.15
203.004	50.69
203.223	185.85
203.442	19.97
203.661	-74.24
203.879	3.58
204.098	222.72
204.317	34.3
204.536	108.03
204.755	38.4
204.974	128.51
205.193	24.06
205.411	151.04
205.63	122.37
205.849	73.21
206.068	-43.52
206.287	-10.75
206.505	103.93
206.724	38.4
206.943	-23.04
207.162	1.54
207.381	77.31
207.599	9.73
207.818	73.21
208.037	79.36
208.255	54.78
208.474	44.54
208.693	65.02
208.911	26.11
209.13	128.51
209.349	112.13
209.567	114.17
209.786	67.07
210.005	116.22
210.223	122.37
210.442	-92.67
210.661	19.97
210.879	30.21
211.098	-12.8
211.316	56.83
211.535	46.59
211.753	34.3
211.972	85.5
212.191	60.93
212.409	42.5
212.628	105.98
212.846	-10.75
213.065	77.31
213.283	73.21
213.502	77.31
213.72	95.74
213.938	15.87
214.157	46.59
214.375	99.84
214.594	65.02
214.812	79.36
215.031	-41.47
215.249	-49.66
215.467	52.74
215.686	79.36
215.904	85.5
216.122	87.55
216.341	200.19
216.559	71.17
216.778	105.98
216.996	89.6
217.214	3.58
217.432	13.82
217.651	-64
217.869	69.12
218.087	91.65
218.306	87.55
218.524	-0.51
218.742	36.35
218.96	108.03
219.179	87.55
219.397	-23.04
219.615	259.58
219.833	79.36
220.051	-23.04
220.27	87.55
220.488	101.89
220.706	124.41
220.924	-43.52
221.142	-55.81
221.36	132.61
221.578	52.74
221.796	-8.7
222.015	46.59
222.233	52.74
222.451	138.75
222.669	-98.81
222.887	112.13
223.105	-45.57
223.323	56.83
223.541	-39.42
223.759	58.88
223.977	-0.51
224.195	194.05
224.413	83.45
224.631	50.69
224.849	24.06
225.067	210.43
225.285	73.21
225.503	120.32
225.721	1.54
225.939	85.5
226.157	54.78
226.375	228.86
226.592	-12.8
226.81	-29.18
227.028	114.17
227.246	81.41
227.464	34.3
227.682	101.89
227.9	60.93
228.117	19.97
228.335	62.98
228.553	50.69
228.771	24.06
228.989	122.37
229.206	67.07
229.424	24.06
229.642	-10.75
229.86	-45.57
230.077	77.31
230.295	46.59
230.513	132.61
230.731	103.93
230.948	101.89
231.166	241.15
231.384	97.79
231.601	30.21
231.819	169.47
232.037	-2.56
232.254	3.58
232.472	19.97
232.689	54.78
232.907	95.74
233.125	-12.8
233.342	58.88
233.56	11.78
233.777	24.06
233.995	60.93
234.213	112.13
234.43	42.5
234.648	95.74
234.865	3.58
235.083	85.5
235.3	38.4
235.518	65.02
235.735	126.46
235.953	103.93
236.17	75.26
236.388	40.45
236.605	-18.94
236.822	42.5
237.04	132.61
237.257	-31.23
237.475	-23.04
237.692	44.54
237.909	91.65
238.127	103.93
238.344	24.06
238.562	87.55
238.779	-20.99
238.996	-29.18
239.214	5.63
239.431	118.27
239.648	77.31
239.865	62.98
240.083	110.08
240.3	36.35
240.517	9.73
240.735	58.88
240.952	105.98
241.169	124.41
241.386	134.65
241.603	73.21
241.821	-41.47
242.038	67.07
242.255	148.99
242.472	-59.9
242.689	83.45
242.907	83.45
243.124	87.55
243.341	28.16
243.558	-72.19
243.775	-2.56
243.992	-16.9
244.209	130.56
244.426	173.57
244.643	54.78
244.86	5.63
245.078	95.74
245.295	56.83
245.512	112.13
245.729	-35.33
245.946	161.28
246.163	65.02
246.38	93.69
246.597	58.88
246.814	54.78
247.031	75.26
247.248	67.07
247.464	26.11
247.681	24.06
247.898	50.69
248.115	83.45
248.332	-53.76
248.549	198.14
248.766	91.65
248.983	19.97
249.2	36.35
249.417	54.78
249.633	15.87
249.85	22.02
250.067	-12.8
250.284	124.41
250.501	46.59
250.717	54.78
250.934	36.35
251.151	-74.24
251.368	-8.7
251.585	30.21
251.801	87.55
252.018	7.68
252.235	114.17
252.451	-37.38
252.668	26.11
252.885	62.98
253.102	81.41
253.318	36.35
253.535	-33.28
253.752	-33.28
253.968	-45.57
254.185	-111.1
254.401	-25.09
254.618	79.36
254.835	52.74
255.051	91.65
255.268	99.84
255.484	-23.04
255.701	62.98
255.917	5.63
256.134	81.41
256.351	15.87
256.567	-29.18
256.784	7.68
257	-72.19
257.217	124.41
257.433	118.27
257.65	89.6
257.866	144.89
258.082	-104.96
258.299	-0.51
258.515	93.69
258.732	75.26
258.948	-20.99
259.165	26.11
259.381	22.02
259.597	108.03
259.814	13.82
260.03	58.88
260.246	32.26
260.463	128.51
260.679	155.13
260.895	1.54
261.112	91.65
261.328	99.84
261.544	1.54
261.761	97.79
261.977	32.26
262.193	-16.9
262.409	105.98
262.626	73.21
262.842	67.07
263.058	54.78
263.274	79.36
263.49	62.98
263.707	75.26
263.923	65.02
264.139	-115.2
264.355	67.07
264.571	161.28
264.787	73.21
265.004	144.89
265.22	17.92
265.436	-2.56
265.652	17.92
265.868	46.59
266.084	30.21
266.3	81.41
266.516	-6.66
266.732	71.17
266.948	7.68
267.164	-37.38
267.38	91.65
267.596	126.46
267.812	196.09
268.028	36.35
268.244	15.87
268.46	19.97
268.676	-23.04
268.892	-10.75
269.108	50.69
269.324	-78.33
269.54	32.26
269.756	99.84
269.972	-61.95
270.188	58.88
270.403	-2.56
270.619	5.63
270.835	38.4
271.051	15.87
271.267	-18.94
271.483	3.58
271.698	95.74
271.914	22.02
272.13	58.88
272.346	13.82
272.562	69.12
272.777	128.51
272.993	26.11
273.209	-61.95
273.425	110.08
273.64	-125.44
273.856	116.22
274.072	15.87
274.287	-55.81
274.503	124.41
274.719	26.11
274.934	-45.57
275.15	-45.57
275.366	7.68
275.581	-35.33
275.797	36.35
276.012	48.64
276.228	67.07
276.444	110.08
276.659	120.32
276.875	-16.9
277.09	-72.19
277.306	28.16
277.521	144.89
277.737	36.35
277.952	69.12
278.168	-27.14
278.383	50.69
278.599	87.55
278.814	116.22
279.03	87.55
279.245	151.04
279.461	36.35
279.676	56.83
279.892	-16.9
280.107	-14.85
280.322	3.58
280.538	83.45
280.753	58.88
280.969	73.21
281.184	105.98
281.399	120.32
281.615	62.98
281.83	91.65
282.045	-74.24
282.26	-37.38
282.476	87.55
282.691	108.03
282.906	120.32
283.122	32.26
283.337	-55.81
283.552	52.74
283.767	38.4
283.983	110.08
284.198	-59.9
284.413	122.37
284.628	19.97
284.843	5.63
285.058	48.64
285.274	5.63
285.489	11.78
285.704	71.17
285.919	-37.38
286.134	15.87
286.349	77.31
286.564	81.41
286.779	212.48
286.995	52.74
287.21	-47.62
287.425	1.54
287.64	48.64
287.855	52.74
288.07	-14.85
288.285	142.85
288.5	181.76
288.715	148.99
288.93	75.26
289.145	13.82
289.36	75.26
289.575	56.83
289.79	85.5
290.004	-37.38
290.219	118.27
290.434	38.4
290.649	7.68
290.864	40.45
291.079	-70.14
291.294	38.4
291.509	38.4
291.724	-20.99
291.938	17.92
292.153	-25.09
292.368	46.59
292.583	58.88
292.798	65.02
293.012	73.21
293.227	73.21
293.442	58.88
293.657	118.27
293.871	173.57
294.086	42.5
294.301	196.09
294.516	118.27
294.73	24.06
294.945	-18.94
295.16	30.21
295.374	142.85
295.589	194.05
295.804	54.78
296.018	85.5
296.233	52.74
296.447	24.06
296.662	-14.85
296.877	122.37
297.091	30.21
297.306	-18.94
297.52	30.21
297.735	48.64
297.949	-14.85
298.164	-41.47
298.378	60.93
298.593	-20.99
298.807	-51.71
299.022	58.88
299.236	120.32
299.451	1.54
299.665	46.59
299.88	71.17
300.094	130.56
300.309	9.73
300.523	99.84
300.737	17.92
300.952	85.5
301.166	128.51
301.381	-0.51
301.595	-25.09
301.809	62.98
302.024	-6.66
302.238	-14.85
302.452	167.42
302.667	26.11
302.881	159.23
303.095	148.99
303.309	28.16
303.524	-43.52
303.738	-0.51
303.952	22.02
304.166	56.83
304.381	-49.66
304.595	116.22
304.809	-10.75
305.023	-78.33
305.237	-14.85
305.452	-68.09
305.666	95.74
305.88	58.88
306.094	73.21
306.308	19.97
306.522	60.93
306.736	32.26
306.95	138.75
307.164	116.22
307.379	56.83
307.593	151.04
307.807	81.41
308.021	173.57
308.235	46.59
308.449	-43.52
308.663	-0.51
308.877	230.91
309.091	-12.8
309.305	36.35
309.519	-43.52
309.733	159.23
309.947	-53.76
310.161	108.03
310.374	110.08
310.588	110.08
310.802	-8.7
311.016	28.16
311.23	118.27
311.444	-61.95
311.658	-12.8
311.872	108.03
312.085	136.7
312.299	163.33
312.513	157.18
312.727	81.41
312.941	-8.7
313.154	95.74
313.368	11.78
313.582	48.64
313.796	54.78
314.009	65.02
314.223	144.89
314.437	75.26
314.651	79.36
314.864	48.64
315.078	-31.23
315.292	-31.23
315.505	11.78
315.719	87.55
315.933	60.93
316.146	-14.85
316.36	-39.42
316.573	163.33
316.787	85.5
317.001	56.83
317.214	-4.61
317.428	153.09
317.641	-35.33
317.855	58.88
318.068	128.51
318.282	130.56
318.495	216.57
318.709	30.21
318.922	11.78
319.136	97.79
319.349	108.03
319.563	69.12
319.776	108.03
319.99	-86.53
320.203	91.65
320.417	-10.75
320.63	103.93
320.843	161.28
321.057	105.98
321.27	17.92
321.483	95.74
321.697	77.31
321.91	50.69
322.124	91.65
322.337	67.07
322.55	44.54
322.763	73.21
322.977	22.02
323.19	-16.9
323.403	36.35
323.617	67.07
323.83	69.12
324.043	54.78
324.256	7.68
324.469	-27.14
324.683	208.38
324.896	26.11
325.109	52.74
325.322	-23.04
325.535	77.31
325.748	99.84
325.962	83.45
326.175	-39.42
326.388	62.98
326.601	159.23
326.814	5.63
327.027	46.59
327.24	159.23
327.453	1.54
327.666	97.79
327.879	181.76
328.092	71.17
328.305	13.82
328.518	56.83
328.731	-8.7
328.944	50.69
329.157	97.79
329.37	-59.9
329.583	83.45
329.796	110.08
330.009	-199.16
330.222	40.45
330.435	185.85
330.648	-4.61
330.861	79.36
331.073	67.07
331.286	97.79
331.499	30.21
331.712	-45.57
331.925	40.45
332.138	52.74
332.35	62.98
332.563	-0.51
332.776	167.42
332.989	-49.66
333.202	24.06
333.414	75.26
333.627	-10.75
333.84	-39.42
334.053	46.59
334.265	15.87
334.478	3.58
334.691	1.54
334.903	71.17
335.116	17.92
335.329	36.35
335.541	116.22
335.754	212.48
335.966	-66.05
336.179	44.54
336.392	15.87
336.604	77.31
336.817	128.51
337.029	83.45
337.242	-27.14
337.454	157.18
337.667	34.3
337.88	177.66
338.092	56.83
338.305	46.59
338.517	9.73
338.729	116.22
338.942	128.51
339.154	-51.71
339.367	-0.51
339.579	67.07
339.792	9.73
340.004	19.97
340.217	34.3
340.429	30.21
340.641	-43.52
340.854	22.02
341.066	-14.85
341.278	177.66
341.491	194.05
341.703	95.74
341.915	-45.57
342.128	163.33
342.34	103.93
342.552	-6.66
342.764	77.31
342.977	60.93
343.189	22.02
343.401	110.08
343.613	-35.33
343.826	-0.51
344.038	9.73
344.25	-8.7
344.462	-29.18
344.674	42.5
344.886	46.59
345.099	75.26
345.311	128.51
345.523	30.21
345.735	-45.57
345.947	-12.8
346.159	116.22
346.371	30.21
346.583	17.92
346.795	196.09
347.007	-14.85
347.219	75.26
347.431	-8.7
347.643	116.22
347.855	-45.57
348.067	99.84
348.279	-20.99
348.491	36.35
348.703	89.6
348.915	19.97
349.127	-14.85
349.339	46.59
349.551	-4.61
349.763	73.21
349.975	87.55
350.187	56.83
350.399	134.65
350.61	212.48
350.822	-16.9
351.034	108.03
351.246	28.16
351.458	93.69
351.669	97.79
351.881	5.63
352.093	148.99
352.305	142.85
352.517	75.26
352.728	69.12
352.94	101.89
353.152	-0.51
353.363	-0.51
353.575	62.98
353.787	153.09
353.999	28.16
354.21	171.52
354.422	-10.75
354.633	5.63
354.845	-6.66
355.057	60.93
355.268	40.45
355.48	134.65
355.692	-23.04
355.903	93.69
356.115	-53.76
356.326	-68.09
356.538	134.65
356.749	120.32
356.961	126.46
357.172	89.6
357.384	-64
357.595	222.72
357.807	22.02
358.018	3.58
358.23	30.21
358.441	165.37
358.653	138.75
358.864	13.82
359.075	28.16
359.287	26.11
359.498	85.5
359.709	42.5
359.921	67.07
360.132	56.83
360.344	69.12
360.555	19.97
360.766	15.87
360.977	52.74
361.189	79.36
361.4	67.07
361.611	110.08
361.823	118.27
362.034	42.5
362.245	-90.62
362.456	52.74
362.667	54.78
362.879	13.82
363.09	-14.85
363.301	46.59
363.512	-37.38
363.723	-10.75
363.935	17.92
364.146	144.89
364.357	7.68
364.568	108.03
364.779	-55.81
364.99	85.5
365.201	-27.14
365.412	118.27
365.623	-127.49
365.834	71.17
366.045	19.97
366.256	103.93
366.467	163.33
366.678	105.98
366.889	1.54
367.1	5.63
367.311	85.5
367.522	3.58
367.733	99.84
367.944	77.31
368.155	36.35
368.366	71.17
368.577	214.52
368.788	138.75
368.999	26.11
369.209	95.74
369.42	146.94
369.631	261.63
369.842	89.6
370.053	-10.75
370.264	97.79
370.474	62.98
370.685	19.97
370.896	19.97
371.107	120.32
371.317	62.98
371.528	56.83
371.739	183.81
371.95	44.54
372.16	118.27
372.371	-78.33
372.582	-10.75
372.792	83.45
373.003	28.16
373.214	1.54
373.424	110.08
373.635	36.35
373.846	173.57
374.056	9.73
374.267	42.5
374.477	34.3
374.688	1.54
374.898	30.21
375.109	24.06
375.319	67.07
375.53	56.83
375.74	32.26
375.951	44.54
376.161	67.07
376.372	75.26
376.582	-72.19
376.793	83.45
377.003	-31.23
377.214	-68.09
377.424	1.54
377.635	140.8
377.845	-29.18
378.055	153.09
378.266	-23.04
378.476	73.21
378.686	54.78
378.897	69.12
379.107	56.83
379.317	77.31
379.528	-10.75
379.738	28.16
379.948	-33.28
380.158	87.55
380.369	5.63
380.579	124.41
380.789	11.78
380.999	95.74
381.21	144.89
381.42	210.43
381.63	24.06
381.84	69.12
382.05	79.36
382.261	177.66
382.471	138.75
382.681	71.17
382.891	157.18
383.101	42.5
383.311	-41.47
383.521	22.02
383.731	85.5
383.941	81.41
384.151	5.63
384.361	-51.71
384.571	44.54
384.781	108.03
384.991	230.91
385.201	161.28
385.411	87.55
385.621	110.08
385.831	97.79
386.041	40.45
386.251	69.12
386.461	116.22
386.671	75.26
386.881	36.35
387.091	42.5
387.301	183.81
387.511	73.21
387.72	73.21
387.93	120.32
388.14	-86.53
388.35	15.87
388.56	67.07
388.769	87.55
388.979	34.3
389.189	3.58
389.399	71.17
389.609	120.32
389.818	132.61
390.028	132.61
390.238	24.06
390.447	87.55
390.657	1.54
390.867	26.11
391.076	7.68
391.286	40.45
391.496	11.78
391.705	95.74
391.915	81.41
392.125	112.13
392.334	17.92
392.544	153.09
392.753	19.97
392.963	-23.04
393.172	44.54
393.382	48.64
393.591	202.24
393.801	9.73
394.01	138.75
394.22	54.78
394.429	7.68
394.639	36.35
394.848	28.16
395.058	112.13
395.267	58.88
395.477	46.59
395.686	83.45
395.895	241.15
396.105	232.96
396.314	54.78
396.524	24.06
396.733	83.45
396.942	120.32
397.152	97.79
397.361	136.7
397.57	81.41
397.78	28.16
397.989	42.5
398.198	189.95
398.407	87.55
398.617	-18.94
398.826	42.5
399.035	52.74
399.244	81.41
399.453	19.97
399.663	56.83
399.872	128.51
400.081	-0.51
400.29	187.9
400.499	-84.48
400.708	105.98
400.917	-16.9
401.127	-53.76
401.336	-27.14
401.545	128.51
401.754	175.61
401.963	144.89
402.172	30.21
402.381	22.02
402.59	65.02
402.799	34.3
403.008	83.45
403.217	60.93
403.426	116.22
403.635	-53.76
403.844	-43.52
404.053	40.45
404.262	22.02
404.471	175.61
404.68	56.83
404.888	46.59
405.097	-10.75
405.306	79.36
405.515	138.75
405.724	15.87
405.933	112.13
406.142	22.02
406.35	105.98
406.559	40.45
406.768	97.79
406.977	224.76
407.185	11.78
407.394	48.64
407.603	-6.66
407.812	38.4
408.02	153.09
408.229	26.11
408.438	155.13
408.646	-23.04
408.855	46.59
409.064	108.03
409.272	11.78
409.481	48.64
409.69	34.3
409.898	-12.8
410.107	189.95
410.315	67.07
410.524	-14.85
410.733	-18.94
410.941	1.54
411.15	128.51
411.358	105.98
411.567	114.17
411.775	56.83
411.984	99.84
412.192	81.41
412.401	60.93
412.609	148.99
412.818	108.03
413.026	103.93
413.234	-16.9
413.443	58.88
413.651	62.98
413.86	77.31
414.068	116.22
414.276	169.47
414.485	69.12
414.693	183.81
414.901	122.37
415.11	97.79
415.318	91.65
415.526	54.78
415.734	112.13
415.943	40.45
416.151	151.04
416.359	48.64
416.567	142.85
416.776	95.74
416.984	83.45
417.192	173.57
417.4	-0.51
417.608	79.36
417.817	-37.38
418.025	97.79
418.233	157.18
418.441	60.93
418.649	-33.28
418.857	114.17
419.065	126.46
419.273	15.87
419.481	85.5
419.689	97.79
419.897	3.58
420.105	-18.94
420.313	97.79
420.521	120.32
420.729	56.83
420.937	30.21
421.145	-27.14
421.353	73.21
421.561	120.32
421.769	26.11
421.977	26.11
422.185	122.37
422.393	15.87
422.601	87.55
422.809	62.98
423.017	26.11
423.224	81.41
423.432	85.5
423.64	52.74
423.848	157.18
424.056	-53.76
424.263	157.18
424.471	71.17
424.679	69.12
424.887	-37.38
425.094	48.64
425.302	134.65
425.51	93.69
425.718	208.38
425.925	30.21
426.133	-35.33
426.341	210.43
426.548	42.5
426.756	44.54
426.964	120.32
427.171	9.73
427.379	17.92
427.586	48.64
427.794	93.69
428.001	153.09
428.209	97.79
428.417	103.93
428.624	163.33
428.832	196.09
429.039	95.74
429.247	32.26
429.454	108.03
429.662	187.9
429.869	103.93
430.076	138.75
430.284	148.99
430.491	110.08
430.699	130.56
430.906	249.34
431.114	87.55
431.321	157.18
431.528	169.47
431.736	169.47
431.943	136.7
432.15	95.74
432.358	159.23
432.565	214.52
432.772	-68.09
432.979	183.81
433.187	112.13
433.394	210.43
433.601	105.98
433.808	171.52
434.016	183.81
434.223	224.76
434.43	224.76
434.637	296.44
434.844	243.2
435.052	179.71
435.259	208.38
435.466	263.68
435.673	214.52
435.88	296.44
436.087	343.55
436.294	288.25
436.501	261.63
436.708	257.53
436.915	280.06
437.122	306.68
437.329	171.52
437.537	255.48
437.743	275.96
437.95	376.31
438.157	288.25
438.364	290.3
438.571	407.03
438.778	452.09
438.985	396.79
439.192	482.81
439.399	357.88
439.606	316.92
439.813	454.14
440.02	544.25
440.227	386.55
440.433	437.75
440.64	460.28
440.847	335.35
441.054	472.57
441.261	538.1
441.467	615.93
441.674	333.31
441.881	579.06
442.088	534.01
442.294	587.26
442.501	615.93
442.708	677.37
442.914	525.82
443.121	708.09
443.328	710.13
443.534	749.04
443.741	751.09
443.948	640.5
444.154	755.19
444.361	953.84
444.568	763.38
444.774	933.36
444.981	755.19
445.187	986.61
445.394	855.54
445.6	843.25
445.807	996.85
446.013	925.17
446.22	1025.52
446.426	1093.1
446.633	1181.17
446.839	1256.94
447.046	1144.3
447.252	1314.28
447.459	1287.66
447.665	1322.48
447.871	1385.96
448.078	1533.42
448.284	1617.38
448.491	1701.35
448.697	1725.93
448.903	1725.93
449.11	1857
449.316	1617.38
449.522	1979.87
449.728	1990.11
449.935	2072.03
450.141	2043.36
450.347	2229.73
450.553	2117.09
450.76	2160.1
450.966	2381.28
451.172	2405.85
451.378	2491.87
451.584	2498.01
451.791	2790.87
451.997	2774.49
452.203	2901.46
452.409	2926.04
452.615	3163.6
452.821	2921.94
453.027	3050.96
453.233	3483.08
453.44	3294.67
453.646	3335.63
453.852	3702.22
454.058	3909.06
454.264	3861.96
454.47	4259.26
454.676	4160.96
454.882	4459.96
455.088	4494.78
455.294	4656.57
455.5	4971.96
455.705	5107.12
455.911	5178.8
456.117	5367.21
456.323	5662.12
456.529	5486
456.735	6063.52
456.941	6172.07
457.147	6364.57
457.352	6813.08
457.558	6845.85
457.764	7194
457.97	7421.33
458.176	7718.28
458.381	8052.1
458.587	8334.72
458.793	8752.51
458.999	8799.61
459.204	9788.78
459.41	10014.06
459.616	9950.57
459.821	10632.54
460.027	11005.27
460.233	11433.3
460.438	11429.2
460.644	12232.01
460.85	12219.72
461.055	12805.44
461.261	13260.09
461.466	12965.18
461.672	13268.28
461.878	14779.68
462.083	14701.86
462.289	14822.69
462.494	15629.59
462.7	15705.36
462.905	15858.96
463.111	17083.64
463.316	18105.58
463.522	18431.21
463.727	18773.22
463.932	19578.07
464.138	20317.39
464.343	21249.21
464.549	21511.35
464.754	22934.69
464.959	23563.42
465.165	23698.58
465.37	23692.44
465.575	23938.19
465.781	25410.68
465.986	25861.24
466.191	25732.22
466.397	25859.19
466.602	25279.61
466.807	26600.55
467.012	27194.47
467.218	27518.04
467.423	27978.84
467.628	28417.1
467.833	30055.48
468.038	29486.14
468.244	28814.41
468.449	30293.04
468.654	29764.67
468.859	29502.53
469.064	29801.53
469.269	28896.33
469.474	29445.18
469.679	29957.17
469.885	29189.19
470.09	29570.11
470.295	29750.33
470.5	28808.26
470.705	29475.9
470.91	28582.99
471.115	28752.97
471.32	28965.96
471.525	28304.46
471.73	27710.55
471.935	27274.34
472.139	26457.2
472.344	26627.18
472.549	26350.7
472.754	25844.85
472.959	25142.4
473.164	24321.16
473.369	24196.24
473.574	24573.07
473.778	24517.77
473.983	23653.53
474.188	23192.73
474.393	22125.74
474.598	22238.38
474.802	21769.4
475.007	21183.68
475.212	21101.76
475.417	20436.17
475.621	20262.09
475.826	19983.57
476.031	19328.22
476.235	19195.1
476.44	19209.43
476.645	18539.75
476.849	18212.07
477.054	18197.74
477.259	17638.64
477.463	17622.26
477.668	17106.17
477.872	17112.31
478.077	16909.57
478.282	16270.6
478.486	16035.08
478.691	15635.73
478.895	15957.26
479.1	15473.94
479.304	15701.26
479.509	14980.38
479.713	15232.28
479.918	14843.17
480.122	14585.12
480.326	14593.31
480.531	14697.76
480.735	14271.78
480.94	14230.82
481.144	14486.82
481.348	13970.73
481.553	14134.57
481.757	13665.58
481.961	13954.35
482.166	13989.16
482.37	13462.83
482.574	13309.24
482.778	13452.59
482.983	13454.64
483.187	13284.66
483.391	13026.62
483.595	12920.12
483.8	12801.34
484.004	12782.91
484.208	12825.92
484.412	12635.46
484.616	12416.32
484.821	12490.05
485.025	12033.35
485.229	11781.45
485.433	11814.22
485.637	11986.25
485.841	11459.92
486.045	11498.83
486.249	11511.12
486.453	11007.32
486.657	11042.14
486.861	10894.68
487.065	10601.82
487.269	10702.17
487.473	10102.12
487.677	10247.52
487.881	10218.85
488.085	9805.16
488.289	9753.96
488.493	9366.9
488.697	9440.62
488.901	9215.35
489.105	9123.19
489.309	8899.96
489.512	8746.36
489.716	8777.08
489.92	8463.74
490.124	8316.29
490.328	8361.34
490.531	7904.65
490.735	8000.9
490.939	7943.56
491.143	7714.19
491.346	7419.28
491.55	7556.49
491.754	7333.26
491.958	7138.71
492.161	7218.58
492.365	6983.06
492.569	6819.22
492.772	6790.55
492.976	6606.24
493.18	6505.88
493.383	6532.51
493.587	6395.29
493.79	6475.17
493.994	6092.2
494.197	6077.86
494.401	6290.85
494.605	6188.45
494.808	6301.09
495.012	6110.63
495.215	5940.65
495.419	5977.51
495.622	5725.61
495.825	5916.07
496.029	5729.7
496.232	5959.08
496.436	5713.32
496.639	5883.3
496.843	5780.9
497.046	5684.65
497.249	5895.59
497.453	5774.76
497.656	5797.29
497.859	5623.21
498.063	5795.24
498.266	5842.34
498.469	5651.88
498.673	5737.9
498.876	5928.36
499.079	5772.71
499.282	5658.03
499.485	6213.03
499.689	5911.97
499.892	6206.88
500.095	6010.28
500.298	6167.97
500.501	5993.89
500.705	6100.39
500.908	6139.3
501.111	6084
501.314	6235.55
501.517	6442.4
501.72	6393.25
501.923	6378.91
502.126	6469.02
502.329	6632.86
502.532	6702.49
502.735	6768.02
502.938	7005.59
503.141	6829.46
503.344	6958.49
503.547	7157.14
503.75	7095.7
503.953	7318.93
504.156	7398.8
504.359	7314.83
504.562	7398.8
504.765	7732.62
504.968	7970.18
505.17	7863.69
505.373	7800.2
505.576	8273.28
505.779	8334.72
505.982	8387.97
506.185	8666.49
506.387	8660.35
506.59	8766.84
506.793	9135.48
506.996	8996.21
507.198	9303.41
507.401	9420.14
507.604	9643.37
507.807	9973.1
508.009	9659.76
508.212	10306.91
508.415	10415.46
508.617	10736.99
508.82	10614.11
509.022	10966.36
509.225	11447.63
509.428	11552.08
509.63	11744.59
509.833	11873.61
510.035	12401.99
510.238	12373.32
510.44	12766.53
510.643	13149.5
510.845	13382.96
511.048	13563.19
511.25	13808.94
511.453	14259.49
511.655	14828.83
511.858	15062.3
512.06	15512.85
512.262	15320.34
512.465	15764.75
512.667	16420.1
512.87	16649.47
513.072	17108.22
513.274	17382.65
513.477	17833.2
513.679	18134.25
513.881	18748.64
514.084	18932.96
514.286	19317.98
514.488	19662.04
514.69	20159.69
514.893	20712.64
515.095	21019.84
515.297	21628.09
515.499	21986.48
515.701	22578.34
515.904	23088.29
516.106	23327.9
516.308	23762.07
516.51	24429.71
516.712	24851.59
516.914	25443.45
517.116	26322.03
517.318	26494.06
517.52	26729.58
517.722	27157.6
517.925	27909.21
518.127	28693.58
518.329	29113.41
518.531	28974.15
518.733	29953.08
518.935	30790.7
519.136	30577.71
519.338	31427.62
519.54	31689.76
519.742	32678.93
519.944	32955.4
520.146	33254.4
520.348	33864.7
520.55	33969.15
520.752	34348.02
520.954	35417.06
521.155	35070.95
521.357	36148.18
521.559	36369.37
521.761	37227.46
521.963	37151.69
522.164	37653.44
522.366	37641.15
522.568	38464.44
522.77	38589.36
522.971	39009.2
523.173	38919.09
523.375	39431.08
523.576	39373.74
523.778	39488.42
523.98	40209.31
524.181	40780.69
524.383	40102.81
524.584	41028.49
524.786	40735.63
524.988	40504.21
525.189	41188.24
525.391	41157.52
525.592	41266.06
525.794	41411.46
525.995	41139.08
526.197	41081.74
526.398	41020.3
526.6	40942.48
526.801	41065.36
527.003	40801.17
527.204	40737.68
527.406	41010.06
527.607	40395.67
527.808	40659.86
528.01	39848.86
528.211	39725.99
528.412	40367
528.614	39918.49
528.815	39312.3
529.016	39486.37
529.218	38564.79
529.419	38931.37
529.62	38501.3
529.822	38075.32
530.023	37440.45
530.224	37288.9
530.425	37104.59
530.626	36733.9
530.828	36060.12
531.029	36322.26
531.23	35560.42
531.431	35005.42
531.632	34872.3
531.833	34337.78
532.035	33874.94
532.236	33715.2
532.437	33686.53
532.638	32631.82
532.839	32367.63
533.04	32279.57
533.241	31267.87
533.442	31747.1
533.643	31026.21
533.844	30878.76
534.045	30037.05
534.246	29676.6
534.447	29830.2
534.648	28992.58
534.849	28574.8
535.05	28429.39
535.251	27612.25
535.451	27417.69
535.652	26905.7
535.853	26727.53
536.054	26616.94
536.255	26489.96
536.456	25549.95
536.657	25396.35
536.857	24999.04
537.058	24487.05
537.259	24386.7
537.46	24018.07
537.66	23452.83
537.861	23573.66
538.062	22914.21
538.263	22838.44
538.463	22510.76
538.664	22205.61
538.865	21961.9
539.065	22021.3
539.266	21394.62
539.466	21367.99
539.667	20645.06
539.868	21290.17
540.068	20468.94
540.269	20405.45
540.469	20112.59
540.67	19973.33
540.87	19725.52
541.071	19309.79
541.271	19414.23
541.472	19068.13
541.672	18666.72
541.873	18259.18
542.073	18085.1
542.274	17935.6
542.474	18033.9
542.675	17583.35
542.875	17460.47
543.075	17380.6
543.276	16934.14
543.476	17206.52
543.676	16522.5
543.877	16209.16
544.077	16516.36
544.277	16289.03
544.478	15852.81
544.678	15824.14
544.878	15457.56
545.078	15478.04
545.279	15277.33
545.479	14912.8
545.679	14822.69
545.879	14650.66
546.079	14621.98
546.28	14259.49
546.48	13976.87
546.68	14052.65
546.88	13833.52
547.08	13993.26
547.28	13563.19
547.48	13339.96
547.68	13339.96
547.88	12895.55
548.081	13065.53
548.281	12827.96
548.481	12633.41
548.681	12680.51
548.881	12385.6
549.081	12315.97
549.28	11887.95
549.48	12016.97
549.68	11889.99
549.88	11642.19
550.08	11144.53
550.28	11216.21
550.48	11216.21
550.68	10988.89
550.88	10638.69
551.08	10577.25
551.279	10487.14
551.479	10161.51
551.679	10235.24
551.879	9889.13
552.079	9829.74
552.278	9704.81
552.478	9639.28
552.678	9514.35
552.878	9346.42
553.077	9028.98
553.277	8912.25
553.477	9086.33
553.676	8934.78
553.876	8662.4
554.076	8433.02
554.275	8349.06
554.475	8052.1
554.674	8045.96
554.874	7841.16
555.074	7753.1
555.273	7650.7
555.473	7685.51
555.672	7503.25
555.872	7255.44
556.071	7214.48
556.271	7146.9
556.47	6878.62
556.67	6788.5
556.869	6743.45
557.068	6722.97
557.268	6438.3
557.467	6499.74
557.667	6227.36
557.866	6481.31
558.065	5948.84
558.265	5965.22
558.464	5918.12
558.663	5961.13
558.863	5746.09
559.062	5848.49
559.261	5457.32
559.461	5612.97
559.66	5473.71
559.859	5178.8
560.058	5062.07
560.258	4996.53
560.457	4961.72
560.656	5238.19
560.855	4756.92
561.054	4896.18
561.253	4808.12
561.453	4662.71
561.652	4548.03
561.851	4615.61
562.05	4314.56
562.249	4261.31
562.448	4263.36
562.647	4122.05
562.846	4279.74
563.045	4148.67
563.244	3872.2
563.443	4021.7
563.642	3790.28
563.841	3954.12
564.04	3798.47
564.239	3634.63
564.438	3608.01
564.637	3429.84
564.836	3653.06
565.035	3544.52
565.234	3435.98
565.432	3474.89
565.631	3501.51
565.83	3313.1
566.029	3306.96
566.228	3245.52
566.427	3319.25
566.625	3081.68
566.824	3061.2
567.023	3028.43
567.222	2930.13
567.42	2915.8
567.619	3036.63
567.818	2827.73
568.016	3096.02
568.215	2909.65
568.414	2788.82
568.612	2770.39
568.811	2741.72
569.01	2631.13
569.208	2647.51
569.407	2715.09
569.605	2600.41
569.804	2457.05
570.002	2489.82
570.201	2373.08
570.4	2438.62
570.598	2432.47
570.797	2323.93
570.995	2223.58
571.193	2346.46
571.392	2184.67
571.59	2029.03
571.789	2199.01
571.987	2205.15
572.186	2166.24
572.384	2211.29
572.582	2072.03
572.781	2010.59
572.979	1875.43
573.177	1912.29
573.376	1822.18
573.574	1934.82
573.772	1822.18
573.971	1662.44
574.169	1738.21
574.367	1789.41
574.565	1805.8
574.763	1631.72
574.962	1625.58
575.16	1664.49
575.358	1721.83
575.556	1590.76
575.754	1607.14
575.952	1627.62
576.151	1557.99
576.349	1598.95
576.547	1443.31
576.745	1529.32
576.943	1508.84
577.141	1435.11
577.339	1285.61
577.537	1306.09
577.735	1426.92
577.933	1322.48
578.131	1318.38
578.329	1381.87
578.527	1306.09
578.725	1398.25
578.923	1107.44
579.121	1263.08
579.319	1117.68
579.516	1142.25
579.714	1353.2
579.912	1156.59
580.11	976.37
580.308	1125.87
580.506	1074.67
580.704	931.31
580.901	980.47
581.099	1181.17
581.297	992.75
581.495	1078.77
581.692	990.7
581.89	1082.86
582.088	1052.14
582.285	974.32
582.483	986.61
582.681	894.45
582.878	894.45
583.076	992.75
583.274	931.31
583.471	1013.23
583.669	867.83
583.866	769.52
584.064	740.85
584.262	763.38
584.459	804.34
584.657	845.3
584.854	865.78
585.052	839.16
585.249	771.57
585.447	771.57
585.644	654.84
585.841	728.56
586.039	763.38
586.236	804.34
586.434	722.42
586.631	650.74
586.828	611.83
587.026	644.6
587.223	572.92
587.42	620.02
587.618	626.17
587.815	734.71
588.012	671.22
588.21	542.2
588.407	718.33
588.604	693.75
588.801	644.6
588.999	671.22
589.196	675.32
589.393	566.78
589.59	550.39
589.787	714.23
589.984	589.3
590.182	587.26
590.379	554.49
590.576	593.4
590.773	556.54
590.97	517.62
591.167	562.68
591.364	589.3
591.561	538.1
591.758	685.56
591.955	630.26
592.152	554.49
592.349	511.48
592.546	462.33
592.743	589.3
592.94	513.53
593.137	617.97
593.334	593.4
593.531	577.02
593.727	577.02
593.924	585.21
594.121	548.34
594.318	529.91
594.515	638.45
594.712	734.71
594.908	654.84
595.105	439.8
595.302	622.07
595.499	624.12
595.696	747
595.892	583.16
596.089	601.59
596.286	546.3
596.482	685.56
596.679	728.56
596.876	671.22
597.072	757.24
597.269	650.74
597.466	761.33
597.662	724.47
597.859	785.91
598.055	783.86
598.252	812.53
598.448	810.48
598.645	873.97
598.841	894.45
599.038	935.41
599.234	957.94
599.431	988.66
599.627	1107.44
599.824	1056.24
600.02	1082.86
600.217	1074.67
600.413	1136.11
600.609	1312.24
600.806	1514.98
601.002	1412.59
601.198	1256.94
601.395	1465.83
601.591	1512.94
601.787	1551.85
601.984	1523.18
602.18	1689.06
602.376	1644.01
602.572	1699.3
602.769	1883.62
602.965	1832.42
603.161	2016.74
603.357	2090.46
603.553	2117.09
603.75	2024.93
603.946	2151.9
604.142	2317.79
604.338	2430.43
604.534	2239.97
604.73	2536.92
604.926	2563.54
605.122	2708.95
605.318	2768.34
605.514	2960.85
605.71	2799.06
605.906	2987.47
606.102	2981.33
606.298	3266
606.494	3378.64
606.69	3493.32
606.886	3376.59
607.082	3589.58
607.278	3532.23
607.474	3685.83
607.67	3898.82
607.866	3876.29
608.062	4050.37
608.257	4208.06
608.453	4189.63
608.649	4421.05
608.845	4478.4
609.041	4548.03
609.236	4873.65
609.432	4789.69
609.628	5004.72
609.824	5293.49
610.019	5303.73
610.215	5436.85
610.411	5619.11
610.606	5877.16
610.802	5873.06
610.998	6024.61
611.193	6284.7
611.389	6280.61
611.584	6532.51
611.78	6571.42
611.976	6745.5
612.171	7064.98
612.367	7226.77
612.562	7263.63
612.758	7560.59
612.953	7628.17
613.149	8117.64
613.344	8238.47
613.539	8392.06
613.735	8547.71
613.93	8815.99
614.126	8842.62
614.321	9293.17
614.517	9645.42
614.712	9772.39
614.907	10059.11
615.103	10339.68
615.298	10413.41
615.493	10814.81
615.688	11005.27
615.884	11371.86
616.079	11265.36
616.274	11896.14
616.47	11953.48
616.665	12354.88
616.86	12754.24
617.055	13038.91
617.25	13221.17
617.445	13808.94
617.641	13931.82
617.836	14400.8
618.031	14591.27
618.226	15277.33
618.421	15160.6
618.616	15766.8
618.811	15987.98
619.006	16598.27
619.201	16696.58
619.396	17210.62
619.591	17376.5
619.786	17812.72
619.981	18308.33
620.176	18676.96
620.371	18818.27
620.566	19416.28
620.761	19758.29
620.956	20464.84
621.151	20538.57
621.346	21146.81
621.541	20825.28
621.735	21826.74
621.93	21753.01
622.125	23006.37
622.32	22856.87
622.515	23379.1
622.709	23798.93
622.904	24343.69
623.099	24468.62
623.294	25396.35
623.488	25447.55
623.683	26125.43
623.878	26305.65
624.072	27012.2
624.267	27018.34
624.462	27522.14
624.656	27864.15
624.851	28218.45
625.046	28488.78
625.24	29023.3
625.435	29664.32
625.629	30237.75
625.824	30192.69
626.018	30911.53
626.213	30264.37
626.407	31312.93
626.602	31374.37
626.796	31794.2
626.991	32683.02
627.185	32554
627.38	32934.92
627.574	32461.84
627.768	32918.54
627.963	33311.75
628.157	33057.8
628.352	33461.25
628.546	33250.31
628.74	33776.64
628.935	33098.76
629.129	33530.88
629.323	33074.18
629.517	32816.14
629.712	32457.74
629.906	32097.3
630.1	31796.25
630.294	32332.82
630.489	31173.67
630.683	30788.65
630.877	30381.1
631.071	29977.65
631.265	29455.42
631.459	28978.25
631.653	27851.86
631.848	27802.71
632.042	26813.54
632.236	26393.71
632.43	25441.4
632.624	24786.05
632.818	23944.34
633.012	23463.07
633.206	22797.48
633.4	21986.48
633.594	21263.55
633.788	20432.07
633.982	19872.98
634.176	19350.74
634.369	18349.29
634.563	17659.12
634.757	16925.95
634.951	16596.23
635.145	15852.81
635.339	15346.97
635.533	14470.44
635.726	14048.55
635.92	13444.4
636.114	12635.46
636.308	12250.44
636.501	11937.1
636.695	11341.14
636.889	10909.02
637.083	10343.78
637.276	9903.46
637.47	9545.07
637.664	9139.57
637.857	8787.32
638.051	8521.09
638.244	8263.04
638.438	7703.95
638.632	7396.75
638.825	7110.04
639.019	6993.3
639.212	6532.51
639.406	6520.22
639.599	6243.74
639.793	5881.25
639.986	5619.11
640.18	5674.41
640.373	5377.45
640.567	4969.91
640.76	4924.85
640.954	4773.3
641.147	4353.47
641.34	4267.45
641.534	4017.6
641.727	4113.86
641.92	3993.03
642.114	3661.26
642.307	3655.11
642.5	3485.13
642.694	3382.73
642.887	3083.73
643.08	3118.54
643.273	2938.32
643.467	2823.64
643.66	2606.55
643.853	2495.96
644.046	2500.06
644.239	2274.78
644.432	2338.27
644.626	2158.05
644.819	2153.95
645.012	2020.83
645.205	2004.45
645.398	1973.73
645.591	1828.32
645.784	1705.45
645.977	1639.91
646.17	1654.25
646.363	1533.42
646.556	1445.35
646.749	1492.46
646.942	1431.02
647.135	1396.2
647.328	1222.13
647.521	1291.76
647.714	1209.84
647.907	1179.12
648.099	1064.43
648.292	1160.69
648.485	1103.34
648.678	1013.23
648.871	916.98
649.064	933.36
649.256	892.4
649.449	847.35
649.642	660.98
649.835	837.11
650.027	679.41
650.22	818.68
650.413	724.47
650.605	722.42
650.798	632.31
650.991	738.8
651.183	634.36
651.376	646.65
651.568	677.37
651.761	542.2
651.954	574.97
652.146	597.49
652.339	595.45
652.531	675.32
652.724	468.47
652.916	390.65
653.109	329.21
653.301	564.73
653.494	536.06
653.686	501.24
653.879	579.06
654.071	536.06
654.263	441.85
654.456	278.01
654.648	478.71
654.84	488.95
655.033	265.72
655.225	493.05
655.417	259.58
655.61	441.85
655.802	447.99
655.994	464.38
656.186	321.02
656.379	343.55
656.571	284.16
656.763	263.68
656.955	267.77
657.148	345.59
657.34	337.4
657.532	275.96
657.724	280.06
657.916	314.88
658.108	286.2
658.3	263.68
658.492	335.35
658.684	185.85
658.876	329.21
659.068	110.08
659.26	155.13
659.452	251.39
659.644	251.39
659.836	347.64
660.028	271.87
660.22	151.04
660.412	196.09
660.604	163.33
660.796	216.57
660.988	343.55
661.18	235
661.372	308.73
661.563	226.81
661.755	241.15
661.947	183.81
662.139	161.28
662.331	212.48
662.522	132.61
662.714	148.99
662.906	124.41
663.097	185.85
663.289	132.61
663.481	73.21
663.673	241.15
663.864	202.24
664.056	290.3
664.247	204.28
664.439	337.4
664.631	157.18
664.822	335.35
665.014	157.18
665.205	142.85
665.397	163.33
665.588	196.09
665.78	159.23
665.971	194.05
666.163	228.86
666.354	163.33
666.546	194.05
666.737	146.94
666.929	155.13
667.12	226.81
667.311	204.28
667.503	218.62
667.694	284.16
667.885	161.28
668.077	208.38
668.268	75.26
668.459	189.95
668.651	220.67
668.842	198.14
669.033	87.55
669.224	224.76
669.416	288.25
669.607	294.4
669.798	81.41
669.989	366.07
670.18	282.11
670.371	310.78
670.563	144.89
670.754	261.63
670.945	257.53
671.136	325.12
671.327	146.94
671.518	308.73
671.709	318.97
671.9	222.72
672.091	353.79
672.282	243.2
672.473	216.57
672.664	189.95
672.855	202.24
673.046	370.17
673.237	273.92
673.428	259.58
673.619	318.97
673.809	226.81
674	323.07
674.191	306.68
674.382	192
674.573	179.71
674.764	210.43
674.954	337.4
675.145	128.51
675.336	169.47
675.527	267.77
675.717	245.24
675.908	325.12
676.099	189.95
676.289	269.82
676.48	132.61
676.671	284.16
676.861	241.15
677.052	263.68
677.243	271.87
677.433	261.63
677.624	370.17
677.814	339.45
678.005	316.92
678.195	384.51
678.386	230.91
678.576	280.06
678.767	224.76
678.957	325.12
679.148	372.22
679.338	433.66
679.529	329.21
679.719	300.54
679.909	337.4
680.1	314.88
680.29	415.23
680.481	284.16
680.671	423.42
680.861	454.14
681.052	439.8
681.242	232.96
681.432	400.89
681.622	482.81
681.813	230.91
682.003	353.79
682.193	325.12
682.383	386.55
682.573	402.94
682.764	384.51
682.954	368.12
683.144	495.1
683.334	323.07
683.524	384.51
683.714	411.13
683.904	417.27
684.094	484.86
684.284	411.13
684.474	435.71
684.664	366.07
684.854	421.37
685.044	407.03
685.234	382.46
685.424	368.12
685.614	331.26
685.804	517.62
685.994	439.8
686.184	366.07
686.374	441.85
686.564	413.18
686.753	435.71
686.943	353.79
687.133	392.7
687.323	456.19
687.513	431.61
687.702	491
687.892	388.6
688.082	488.95
688.272	425.47
688.461	462.33
688.651	564.73
688.841	404.99
689.03	427.51
689.22	484.86
689.41	493.05
689.599	431.61
689.789	441.85
689.979	480.76
690.168	359.93
690.358	423.42
690.547	452.09
690.737	486.9
690.926	443.9
691.116	409.08
691.305	388.6
691.495	523.77
691.684	353.79
691.874	290.3
692.063	368.12
692.252	472.57
692.442	433.66
692.631	341.5
692.82	255.48
693.01	378.36
693.199	407.03
693.388	435.71
693.578	353.79
693.767	404.99
693.956	343.55
694.146	374.27
694.335	374.27
694.524	282.11
694.713	464.38
694.902	376.31
695.092	386.55
695.281	404.99
695.47	423.42
695.659	312.83
695.848	345.59
696.037	286.2
696.226	271.87
696.415	382.46
696.604	433.66
696.793	466.42
696.982	359.93
697.171	437.75
697.36	294.4
697.549	310.78
697.738	220.67
697.927	343.55
698.116	327.16
698.305	380.41
698.494	400.89
698.683	357.88
698.872	497.14
699.061	355.83
699.25	361.98
699.438	349.69
699.627	361.98
699.816	398.84
700.005	263.68
700.193	304.64
700.382	398.84
700.571	351.74
700.76	312.83
700.948	425.47
701.137	384.51
701.326	466.42
701.514	302.59
701.703	290.3
701.892	382.46
702.08	507.38
702.269	364.03
702.457	253.44
702.646	353.79
702.834	333.31
703.023	370.17
703.212	329.21
703.4	308.73
703.589	333.31
703.777	339.45
703.965	335.35
704.154	249.34
704.342	212.48
704.531	230.91
704.719	300.54
704.907	435.71
705.096	294.4
705.284	304.64
705.472	368.12
705.661	325.12
705.849	302.59
706.037	460.28
706.226	400.89
706.414	294.4
706.602	290.3
706.79	368.12
706.979	300.54
707.167	417.27
707.355	280.06
707.543	419.32
707.731	380.41
707.919	312.83
708.107	278.01
708.296	341.5
708.484	310.78
708.672	359.93
708.86	372.22
709.048	364.03
709.236	257.53
709.424	390.65
709.612	351.74
709.8	286.2
709.988	282.11
710.176	368.12
710.364	454.14
710.551	269.82
710.739	306.68
710.927	333.31
711.115	357.88
711.303	445.95
711.491	382.46
711.679	189.95
711.866	402.94
712.054	349.69
712.242	398.84
712.43	421.37
712.617	271.87
712.805	404.99
712.993	306.68
713.181	241.15
713.368	357.88
713.556	384.51
713.744	247.29
713.931	568.82
714.119	370.17
714.306	388.6
714.494	337.4
714.682	368.12
714.869	263.68
715.057	407.03
715.244	241.15
715.432	427.51
715.619	288.25
715.807	411.13
715.994	351.74
716.182	447.99
716.369	427.51
716.556	445.95
716.744	284.16
716.931	278.01
717.119	415.23
717.306	361.98
717.493	466.42
717.681	327.16
717.868	374.27
718.055	443.9
718.242	388.6
718.43	470.52
718.617	466.42
718.804	386.55
718.991	519.67
719.179	425.47
719.366	495.1
719.553	435.71
719.74	425.47
719.927	294.4
720.114	415.23
720.301	374.27
720.488	341.5
720.676	347.64
720.863	388.6
721.05	433.66
721.237	413.18
721.424	411.13
721.611	386.55
721.798	398.84
721.985	349.69
722.172	409.08
722.358	402.94
722.545	499.19
722.732	531.96
722.919	505.34
723.106	413.18
723.293	372.22
723.48	441.85
723.667	347.64
723.853	486.9
724.04	558.58
724.227	511.48
724.414	437.75
724.6	478.71
724.787	517.62
724.974	493.05
725.161	368.12
725.347	407.03
725.534	419.32
725.72	450.04
725.907	515.58
726.094	497.14
726.28	374.27
726.467	337.4
726.653	398.84
726.84	554.49
727.027	501.24
727.213	355.83
727.4	480.76
727.586	505.34
727.773	478.71
727.959	409.08
728.145	507.38
728.332	462.33
728.518	460.28
728.705	454.14
728.891	478.71
729.077	454.14
729.264	368.12
729.45	423.42
729.636	534.01
729.823	497.14
730.009	466.42
730.195	531.96
730.382	534.01
730.568	359.93
730.754	493.05
730.94	394.75
731.126	460.28
731.313	548.34
731.499	419.32
731.685	552.44
731.871	478.71
732.057	505.34
732.243	521.72
732.429	587.26
732.615	591.35
732.801	536.06
732.987	491
733.173	497.14
733.359	450.04
733.545	439.8
733.731	491
733.917	531.96
734.103	550.39
734.289	411.13
734.475	445.95
734.661	628.21
734.847	474.62
735.033	437.75
735.219	554.49
735.404	419.32
735.59	462.33
735.776	478.71
735.962	464.38
736.148	486.9
736.333	630.26
736.519	536.06
736.705	484.86
736.89	462.33
737.076	501.24
737.262	407.03
737.447	419.32
737.633	474.62
737.819	513.53
738.004	517.62
738.19	480.76
738.375	538.1
738.561	603.64
738.747	511.48
738.932	361.98
739.118	654.84
739.303	583.16
739.489	513.53
739.674	495.1
739.859	450.04
740.045	534.01
740.23	570.87
740.416	323.07
740.601	564.73
740.786	527.86
740.972	497.14
741.157	534.01
741.342	460.28
741.528	411.13
741.713	525.82
741.898	544.25
742.084	466.42
742.269	482.81
742.454	497.14
742.639	554.49
742.824	517.62
743.01	552.44
743.195	603.64
743.38	419.32
743.565	554.49
743.75	452.09
743.935	538.1
744.12	554.49
744.305	458.23
744.49	478.71
744.675	433.66
744.86	437.75
745.045	407.03
745.23	488.95
745.415	450.04
745.6	507.38
745.785	452.09
745.97	531.96
746.155	515.58
746.34	517.62
746.525	429.56
746.71	534.01
746.895	378.36
747.079	411.13
747.264	411.13
747.449	509.43
747.634	464.38
747.819	417.27
748.003	404.99
748.188	325.12
748.373	495.1
748.557	400.89
748.742	417.27
748.927	353.79
749.111	474.62
749.296	386.55
749.481	466.42
749.665	431.61
749.85	431.61
750.034	513.53
750.219	491
750.404	364.03
750.588	376.31
750.773	355.83
750.957	394.75
751.141	380.41
751.326	372.22
751.51	235
751.695	372.22
751.879	329.21
752.064	523.77
752.248	237.05
752.432	427.51
752.617	407.03
752.801	433.66
752.985	353.79
753.17	419.32
753.354	384.51
753.538	333.31
753.722	333.31
753.907	341.5
754.091	280.06
754.275	378.36
754.459	296.44
754.643	286.2
754.828	374.27
755.012	339.45
755.196	157.18
755.38	341.5
755.564	286.2
755.748	255.48
755.932	349.69
756.116	353.79
756.3	361.98
756.484	249.34
756.668	345.59
756.852	165.37
757.036	280.06
757.22	292.35
757.404	171.52
757.588	257.53
757.772	366.07
757.956	228.86
758.14	382.46
758.323	161.28
758.507	392.7
758.691	218.62
758.875	337.4
759.059	273.92
759.242	253.44
759.426	202.24
759.61	265.72
759.794	216.57
759.977	288.25
760.161	536.06
760.345	296.44
760.528	318.97
760.712	200.19
760.895	318.97
761.079	308.73
761.263	185.85
761.446	173.57
761.63	208.38
761.813	294.4
761.997	185.85
762.18	161.28
762.364	273.92
762.547	173.57
762.731	181.76
762.914	220.67
763.098	177.66
763.281	198.14
763.464	181.76
763.648	177.66
763.831	171.52
764.015	124.41
764.198	282.11
764.381	218.62
764.564	194.05
764.748	175.61
764.931	271.87
765.114	118.27
765.297	222.72
765.481	153.09
765.664	163.33
765.847	157.18
766.03	263.68
766.213	257.53
766.397	200.19
766.58	142.85
766.763	181.76
766.946	194.05
767.129	187.9
767.312	161.28
767.495	132.61
767.678	73.21
767.861	208.38
768.044	114.17
768.227	181.76
768.41	165.37
768.593	210.43
768.776	173.57
768.959	153.09
769.142	228.86
769.324	65.02
769.507	167.42
769.69	112.13
769.873	124.41
770.056	364.03
770.239	167.42
770.421	267.77
770.604	163.33
770.787	200.19
770.97	173.57
771.152	67.07
771.335	278.01
771.518	110.08
771.7	220.67
771.883	189.95
772.066	124.41
772.248	196.09
772.431	241.15
772.613	179.71
772.796	112.13
772.978	142.85
773.161	300.54
773.343	218.62
773.526	103.93
773.708	-10.75
773.891	-8.7
774.073	132.61
774.256	36.35
774.438	187.9
774.621	85.5
774.803	132.61
774.985	138.75
775.168	155.13
775.35	93.69
775.532	155.13
775.715	71.17
775.897	97.79
776.079	155.13
776.261	134.65
776.444	85.5
776.626	65.02
776.808	105.98
776.99	44.54
777.173	71.17
777.355	50.69
777.537	99.84
777.719	148.99
777.901	169.47
778.083	56.83
778.265	40.45
778.447	91.65
778.629	71.17
778.811	130.56
778.993	167.42
779.175	165.37
779.357	62.98
779.539	-31.23
779.721	91.65
779.903	105.98
780.085	126.46
780.267	81.41
780.449	65.02
780.631	169.47
780.812	185.85
780.994	36.35
781.176	62.98
781.358	128.51
781.54	87.55
781.721	198.14
781.903	142.85
782.085	36.35
782.267	124.41
782.448	62.98
782.63	26.11
782.812	146.94
782.993	97.79
783.175	179.71
783.357	38.4
783.538	148.99
783.72	120.32
783.901	103.93
784.083	134.65
784.264	91.65
784.446	11.78
784.627	-0.51
784.809	134.65
784.99	56.83
785.172	79.36
785.353	89.6
785.535	97.79
785.716	30.21
785.897	69.12
786.079	-4.61
786.26	146.94
786.441	128.51
786.623	-66.05
786.804	-8.7
786.985	46.59
787.167	71.17
787.348	75.26
787.529	151.04
787.71	185.85
787.891	124.41
788.073	38.4
788.254	15.87
788.435	187.9
788.616	95.74
788.797	-39.42
788.978	60.93
789.159	26.11
789.34	77.31
789.522	11.78
789.703	52.74
789.884	105.98
790.065	97.79
790.246	171.52
790.427	24.06
790.607	214.52
790.788	91.65
790.969	-31.23
791.15	179.71
791.331	26.11
791.512	22.02
791.693	-41.47
791.874	38.4
792.054	226.81
792.235	105.98
792.416	54.78
792.597	30.21
792.778	173.57
792.958	118.27
793.139	44.54
793.32	118.27
793.5	-59.9
793.681	122.37
793.862	128.51
794.042	62.98
794.223	-2.56
794.404	3.58
794.584	-25.09
794.765	-6.66
794.945	56.83
795.126	1.54
795.306	89.6
795.487	56.83
795.667	87.55
795.848	97.79
796.028	105.98
796.209	-14.85
796.389	126.46
796.57	28.16
796.75	5.63
796.93	75.26
797.111	-64
797.291	32.26
797.471	83.45
797.652	30.21
797.832	-64
798.012	114.17
798.192	-14.85
798.373	-4.61
798.553	44.54
798.733	30.21
798.913	-55.81
799.093	28.16
799.274	-18.94
799.454	79.36
799.634	81.41
799.814	93.69
799.994	108.03
800.174	73.21
800.354	42.5
800.534	-10.75
800.714	118.27
800.894	-31.23
801.074	-39.42
801.254	46.59
801.434	54.78
801.614	1.54
801.794	-27.14
801.974	1588.71
802.154	-72.19
802.334	118.27
802.514	-29.18
802.693	40.45
802.873	-35.33
803.053	151.04
803.233	36.35
803.413	15.87
803.592	-14.85
803.772	24.06
803.952	81.41
804.131	36.35
804.311	93.69
804.491	122.37
804.67	9.73
804.85	-25.09
805.03	56.83
805.209	103.93
805.389	-18.94
805.568	-35.33
805.748	-18.94
805.928	3.58
806.107	60.93
806.287	58.88
806.466	54.78
806.646	17.92
806.825	9.73
807.004	30.21
807.184	52.74
807.363	62.98
807.543	54.78
807.722	-100.86
807.901	136.7
808.081	122.37
808.26	-111.1
808.439	56.83
808.619	-10.75
808.798	-6.66
808.977	54.78
809.156	101.89
809.336	40.45
809.515	17.92
809.694	-61.95
809.873	32.26
810.052	95.74
810.231	71.17
810.411	85.5
810.59	122.37
810.769	5.63
810.948	101.89
811.127	-45.57
811.306	11.78
811.485	-29.18
811.664	153.09
811.843	26.11
812.022	30.21
812.201	-4.61
812.38	93.69
812.559	-16.9
812.737	97.79
812.916	-98.81
813.095	-35.33
813.274	36.35
813.453	58.88
813.632	52.74
813.811	126.46
813.989	-78.33
814.168	65.02
814.347	-43.52
814.526	62.98
814.704	132.61
814.883	85.5
815.062	-107.01
815.24	48.64
815.419	-18.94
815.598	67.07
815.776	-57.86
815.955	71.17
816.133	-109.05
816.312	26.11
816.49	-43.52
816.669	-12.8
816.847	-25.09
817.026	52.74
817.204	-25.09
817.383	44.54
817.561	11.78
817.74	56.83
817.918	71.17
818.097	-16.9
818.275	-27.14
818.453	7.68
818.632	1.54
818.81	32.26
818.988	65.02
819.167	24.06
819.345	60.93
819.523	-66.05
819.701	-14.85
819.879	52.74
820.058	77.31
820.236	138.75
820.414	-0.51
820.592	85.5
820.77	-12.8
820.948	-47.62
821.127	-64
821.305	38.4
821.483	-70.14
821.661	105.98
821.839	69.12
822.017	28.16
822.195	-51.71
822.373	81.41
822.551	28.16
822.729	73.21
822.907	71.17
823.085	132.61
823.262	62.98
823.44	62.98
823.618	-51.71
823.796	-31.23
823.974	-84.48
824.152	-49.66
824.329	3.58
824.507	81.41
824.685	65.02
824.863	-37.38
825.04	83.45
825.218	73.21
825.396	40.45
825.574	65.02
825.751	-2.56
825.929	75.26
826.107	-10.75
826.284	40.45
826.462	56.83
826.639	-86.53
826.817	-78.33
826.994	-27.14
827.172	-45.57
827.349	206.33
827.527	-6.66
827.704	22.02
827.882	112.13
828.059	24.06
828.237	17.92
828.414	22.02
828.591	-158.21
828.769	42.5
828.946	-27.14
829.124	24.06
829.301	67.07
829.478	-16.9
829.655	50.69
829.833	71.17
830.01	-104.96
830.187	60.93
830.364	-27.14
830.542	73.21
830.719	99.84
830.896	114.17
831.073	93.69
831.25	24.06
831.427	122.37
831.604	69.12
831.782	17.92
831.959	54.78
832.136	5.63
832.313	28.16
832.49	-35.33
832.667	93.69
832.844	-66.05
833.021	40.45
833.198	42.5
833.374	38.4
833.551	26.11
833.728	24.06
833.905	56.83
834.082	-84.48
834.259	75.26
834.436	54.78
834.612	-41.47
834.789	42.5
834.966	26.11
835.143	-6.66
835.319	-49.66
835.496	56.83
835.673	50.69
835.85	71.17
836.026	38.4
836.203	122.37
836.38	-72.19
836.556	67.07
836.733	22.02
836.909	99.84
837.086	-8.7
837.262	-115.2
837.439	65.02
837.616	-18.94
837.792	30.21
837.968	-61.95
838.145	-133.63
838.321	15.87
838.498	48.64
838.674	79.36
838.851	-18.94
839.027	-35.33
839.203	103.93
839.38	62.98
839.556	-55.81
839.732	126.46
839.909	-16.9
840.085	46.59
840.261	67.07
840.437	-55.81
840.614	-39.42
840.79	101.89
840.966	183.81
841.142	34.3
841.318	-4.61
841.494	28.16
841.671	99.84
841.847	-6.66
842.023	-84.48
842.199	73.21
842.375	173.57
842.551	-107.01
842.727	-129.53
842.903	81.41
843.079	-154.11
843.255	38.4
843.431	34.3
843.607	103.93
843.783	-125.44
843.959	-41.47
844.134	-57.86
844.31	118.27
844.486	-74.24
844.662	-61.95
844.838	11.78
845.013	-4.61
845.189	81.41
845.365	32.26
845.541	34.3
845.716	48.64
845.892	148.99
846.068	-39.42
846.244	-27.14
846.419	44.54
846.595	-45.57
846.77	-27.14
846.946	153.09
847.122	-14.85
847.297	34.3
847.473	114.17
847.648	-74.24
847.824	91.65
847.999	-123.39
848.175	-20.99
848.35	15.87
848.526	19.97
848.701	13.82
848.876	169.47
849.052	67.07
849.227	-2.56
849.403	1.54
849.578	3.58
849.753	112.13
849.929	28.16
850.104	-74.24
850.279	-6.66
850.454	-49.66
850.63	85.5
850.805	-18.94
850.98	5.63
851.155	42.5
851.33	146.94
851.505	-14.85
851.681	101.89
851.856	-27.14
852.031	38.4
852.206	46.59
852.381	-72.19
852.556	48.64
852.731	38.4
852.906	126.46
853.081	73.21
853.256	200.19
853.431	-23.04
853.606	-20.99
853.781	-12.8
853.956	-127.49
854.131	9.73
854.305	-39.42
854.48	11.78
854.655	-104.96
854.83	-33.28
855.005	30.21
855.18	13.82
855.354	-57.86
855.529	-39.42
855.704	17.92
855.879	87.55
856.053	58.88
856.228	-2.56
856.403	-27.14
856.577	17.92
856.752	-80.38
856.926	54.78
857.101	9.73
857.276	-45.57
857.45	44.54
857.625	116.22
857.799	34.3
857.974	-59.9
858.148	-119.29
858.323	28.16
858.497	34.3
858.672	-18.94
858.846	-76.29
859.02	101.89
859.195	-33.28
859.369	9.73
859.543	-10.75
859.718	62.98
859.892	67.07
860.066	11.78
860.241	-2.56
860.415	-74.24
860.589	105.98
860.763	44.54
860.938	-35.33
861.112	-23.04
861.286	-113.15
861.46	46.59
861.634	17.92
861.808	79.36
861.982	-59.9
862.157	-35.33
862.331	-25.09
862.505	-68.09
862.679	-92.67
862.853	30.21
863.027	38.4
863.201	144.89
863.375	7.68
863.549	26.11
863.722	26.11
863.896	144.89
864.07	-84.48
864.244	-8.7
864.418	56.83
864.592	19.97
864.766	-12.8
864.939	-39.42
865.113	-45.57
865.287	116.22
865.461	-47.62
865.634	-29.18
865.808	-72.19
865.982	26.11
866.156	26.11
866.329	-92.67
866.503	-4.61
866.676	3.58
866.85	13.82
867.024	-70.14
867.197	40.45
867.371	13.82
867.544	-18.94
867.718	-107.01
867.891	38.4
868.065	-121.34
868.238	-8.7
868.412	44.54
868.585	73.21
868.759	-14.85
868.932	-18.94
869.105	-4.61
869.279	30.21
869.452	-43.52
869.625	48.64
869.799	15.87
869.972	-61.95
870.145	-35.33
870.319	17.92
870.492	-61.95
870.665	-29.18
870.838	-70.14
871.011	-96.77
871.185	-14.85
871.358	-23.04
871.531	28.16
871.704	-59.9
871.877	-25.09
872.05	19.97
872.223	-119.29
872.396	52.74
872.569	36.35
872.742	-74.24
872.915	79.36
873.088	73.21
873.261	-80.38
873.434	42.5
873.607	-4.61
873.78	69.12
873.953	-90.62
874.126	50.69
874.299	-41.47
874.471	-55.81
874.644	-39.42
874.817	83.45
874.99	65.02
875.163	-47.62
875.335	42.5
875.508	22.02
875.681	34.3
875.853	-39.42
876.026	3.58
876.199	58.88
876.371	38.4
876.544	-6.66
876.717	1.54
876.889	-45.57
877.062	46.59
877.234	-66.05
877.407	13.82
877.579	17.92
877.752	34.3
877.924	9.73
878.097	99.84
878.269	-47.62
878.442	17.92
878.614	-0.51
878.786	56.83
878.959	-2.56
879.131	26.11
879.303	-162.3
879.476	17.92
879.648	46.59
879.82	30.21
879.993	-33.28
880.165	7.68
880.337	-68.09
880.509	1.54
880.681	-88.57
880.854	-94.72
881.026	54.78
881.198	189.95
881.37	-57.86
881.542	50.69
881.714	83.45
881.886	-16.9
882.058	36.35
882.23	40.45
882.402	30.21
882.574	69.12
882.746	118.27
882.918	130.56
883.09	44.54
883.262	-37.38
883.434	58.88
883.606	-88.57
883.778	67.07
883.95	118.27
884.122	-23.04
884.293	87.55
884.465	-2.56
884.637	120.32
884.809	-6.66
884.98	19.97
885.152	3.58
885.324	124.41
885.496	-2.56
885.667	-10.75
885.839	9.73
886.011	124.41
886.182	15.87
886.354	163.33
886.525	46.59
886.697	91.65
886.869	-43.52
887.04	-45.57
887.212	103.93
887.383	171.52
887.555	50.69
887.726	-47.62
887.897	48.64
888.069	22.02
888.24	69.12
888.412	-29.18
888.583	24.06
888.754	-64
888.926	-113.15
889.097	-143.87
889.268	-14.85
889.44	-18.94
889.611	-90.62
889.782	-53.76
889.953	-129.53
890.125	87.55
890.296	-47.62
890.467	-10.75
890.638	-18.94
890.809	3.58
890.98	40.45
891.151	48.64
891.323	103.93
891.494	50.69
891.665	-27.14
891.836	-68.09
892.007	-10.75
892.178	-6.66
892.349	46.59
892.52	-53.76
892.691	-53.76
892.862	-59.9
893.032	-152.06
893.203	-51.71
893.374	34.3
893.545	71.17
893.716	-86.53
893.887	34.3
894.057	-0.51
894.228	-45.57
894.399	5.63
894.57	79.36
894.74	69.12
894.911	52.74
895.082	5.63
895.253	-45.57
895.423	-33.28
895.594	85.5
895.764	42.5
895.935	-43.52
896.106	1.54
896.276	-100.86
896.447	-10.75
896.617	-43.52
896.788	-39.42
896.958	-14.85
897.129	-2.56
897.299	24.06
897.47	67.07
897.64	48.64
897.81	26.11
897.981	75.26
898.151	-35.33
898.322	142.85
898.492	44.54
898.662	-55.81
898.832	-59.9
899.003	19.97
899.173	34.3
899.343	-39.42
899.513	-66.05
