Data from USB4F104151__3__09-24-20-729.txt Node

Date: Wed Feb 26 09:24:20 EST 2025
User: louis
Spectrometer: USB4F10415
Trigger mode: 4
Integration Time (sec): 1.000000E-1
Scans to average: 1
Electric dark correction enabled: true
Nonlinearity correction enabled: false
Boxcar width: 0
XAxis mode: Wavelengths
Number of Pixels in Spectrum: 3648
>>>>>Begin Spectral Data<<<<<
178.204	-335.35
178.424	-335.35
178.644	-335.35
178.864	-302.59
179.084	-361.98
179.304	-5.63
179.524	51.71
179.744	-15.87
179.964	-15.87
180.184	14.85
180.404	14.85
180.624	-34.3
180.844	0.51
181.064	18.94
181.283	-5.63
181.503	-17.92
181.723	-5.63
181.943	-65.02
182.163	158.21
182.383	-19.97
182.602	66.05
182.822	123.39
183.042	45.57
183.262	-34.3
183.482	64
183.701	6.66
183.921	80.38
184.141	-17.92
184.361	86.53
184.58	-7.68
184.8	2.56
185.02	-5.63
185.239	39.42
185.459	4.61
185.679	102.91
185.898	-42.5
186.118	29.18
186.338	4.61
186.557	113.15
186.777	-30.21
186.997	-1.54
187.216	45.57
187.436	129.53
187.655	6.66
187.875	88.57
188.095	68.09
188.314	123.39
188.534	74.24
188.753	39.42
188.973	31.23
189.192	217.6
189.412	39.42
189.631	-19.97
189.851	92.67
190.07	64
190.29	-13.82
190.509	-1.54
190.729	-28.16
190.948	80.38
191.168	238.08
191.387	68.09
191.607	66.05
191.826	82.43
192.045	-26.11
192.265	-46.59
192.484	16.9
192.704	14.85
192.923	-32.26
193.142	141.82
193.362	80.38
193.581	78.33
193.8	133.63
194.02	80.38
194.239	18.94
194.458	39.42
194.678	-44.54
194.897	23.04
195.116	-30.21
195.335	147.97
195.555	72.19
195.774	-17.92
195.993	64
196.212	31.23
196.432	-3.58
196.651	-7.68
196.87	-60.93
197.089	162.3
197.308	96.77
197.528	-1.54
197.747	-60.93
197.966	86.53
198.185	104.96
198.404	-62.98
198.623	68.09
198.842	55.81
199.062	51.71
199.281	121.34
199.5	47.62
199.719	64
199.938	125.44
200.157	92.67
200.376	166.4
200.595	100.86
200.814	14.85
201.033	-22.02
201.252	102.91
201.471	12.8
201.69	35.33
201.909	-3.58
202.128	59.9
202.347	68.09
202.566	43.52
202.785	43.52
203.004	45.57
203.223	96.77
203.442	72.19
203.661	2.56
203.879	27.14
204.098	131.58
204.317	-9.73
204.536	176.64
204.755	53.76
204.974	43.52
205.193	57.86
205.411	160.25
205.63	2.56
205.849	16.9
206.068	12.8
206.287	33.28
206.505	129.53
206.724	-24.06
206.943	-1.54
207.162	2.56
207.381	33.28
207.599	-62.98
207.818	-13.82
208.037	59.9
208.255	45.57
208.474	51.71
208.693	14.85
208.911	47.62
209.13	72.19
209.349	-5.63
209.567	104.96
209.786	55.81
210.005	39.42
210.223	92.67
210.442	-50.69
210.661	18.94
210.879	61.95
211.098	55.81
211.316	37.38
211.535	31.23
211.753	70.14
211.972	10.75
212.191	-9.73
212.409	16.9
212.628	51.71
212.846	-44.54
213.065	16.9
213.283	76.29
213.502	55.81
213.72	31.23
213.938	27.14
214.157	27.14
214.375	90.62
214.594	-46.59
214.812	61.95
215.031	18.94
215.249	35.33
215.467	45.57
215.686	70.14
215.904	64
216.122	100.86
216.341	76.29
216.559	14.85
216.778	80.38
216.996	72.19
217.214	31.23
217.432	-28.16
217.651	-36.35
217.869	-42.5
218.087	-50.69
218.306	-22.02
218.524	2.56
218.742	-15.87
218.96	92.67
219.179	45.57
219.397	-38.4
219.615	193.02
219.833	104.96
220.051	-52.74
220.27	57.86
220.488	162.3
220.706	-11.78
220.924	-48.64
221.142	-36.35
221.36	-7.68
221.578	43.52
221.796	6.66
222.015	10.75
222.233	45.57
222.451	137.73
222.669	-112.13
222.887	64
223.105	23.04
223.323	41.47
223.541	-67.07
223.759	47.62
223.977	64
224.195	195.07
224.413	27.14
224.631	53.76
224.849	6.66
225.067	186.88
225.285	-58.88
225.503	-50.69
225.721	-11.78
225.939	27.14
226.157	6.66
226.375	285.18
226.592	4.61
226.81	84.48
227.028	104.96
227.246	129.53
227.464	78.33
227.682	133.63
227.9	78.33
228.117	96.77
228.335	57.86
228.553	6.66
228.771	47.62
228.989	154.11
229.206	59.9
229.424	4.61
229.642	-38.4
229.86	-48.64
230.077	92.67
230.295	47.62
230.513	156.16
230.731	61.95
230.948	147.97
231.166	53.76
231.384	10.75
231.601	-13.82
231.819	88.57
232.037	41.47
232.254	-50.69
232.472	107.01
232.689	31.23
232.907	119.29
233.125	-42.5
233.342	-1.54
233.56	70.14
233.777	-54.78
233.995	59.9
234.213	90.62
234.43	25.09
234.648	107.01
234.865	64
235.083	-22.02
235.3	59.9
235.518	66.05
235.735	96.77
235.953	113.15
236.17	-5.63
236.388	-38.4
236.605	2.56
236.822	96.77
237.04	20.99
237.257	102.91
237.475	-32.26
237.692	76.29
237.909	27.14
238.127	-3.58
238.344	33.28
238.562	70.14
238.779	-19.97
238.996	-44.54
239.214	68.09
239.431	39.42
239.648	20.99
239.865	43.52
240.083	88.57
240.3	20.99
240.517	4.61
240.735	-17.92
240.952	143.87
241.169	104.96
241.386	94.72
241.603	-1.54
241.821	-36.35
242.038	88.57
242.255	117.25
242.472	-5.63
242.689	84.48
242.907	33.28
243.124	47.62
243.341	35.33
243.558	-34.3
243.775	31.23
243.992	-91.65
244.209	74.24
244.426	152.06
244.643	78.33
244.86	-15.87
245.078	47.62
245.295	72.19
245.512	20.99
245.729	-89.6
245.946	109.05
246.163	12.8
246.38	-17.92
246.597	-38.4
246.814	-7.68
247.031	68.09
247.248	20.99
247.464	92.67
247.681	64
247.898	29.18
248.115	-30.21
248.332	-30.21
248.549	90.62
248.766	104.96
248.983	96.77
249.2	53.76
249.417	27.14
249.633	25.09
249.85	10.75
250.067	55.81
250.284	66.05
250.501	-11.78
250.717	27.14
250.934	-99.84
251.151	37.38
251.368	100.86
251.585	70.14
251.801	-22.02
252.018	-30.21
252.235	55.81
252.451	-54.78
252.668	-40.45
252.885	100.86
253.102	10.75
253.318	-26.11
253.535	2.56
253.752	-30.21
253.968	18.94
254.185	-11.78
254.401	-9.73
254.618	-9.73
254.835	-50.69
255.051	37.38
255.268	104.96
255.484	2.56
255.701	31.23
255.917	80.38
256.134	-65.02
256.351	18.94
256.567	12.8
256.784	-26.11
257	-99.84
257.217	45.57
257.433	125.44
257.65	41.47
257.866	154.11
258.082	-3.58
258.299	-1.54
258.515	68.09
258.732	37.38
258.948	-50.69
259.165	27.14
259.381	-75.26
259.597	49.66
259.814	-26.11
260.03	-58.88
260.246	14.85
260.463	12.8
260.679	59.9
260.895	23.04
261.112	37.38
261.328	-48.64
261.544	-17.92
261.761	184.83
261.977	-32.26
262.193	-11.78
262.409	100.86
262.626	25.09
262.842	27.14
263.058	-17.92
263.274	-9.73
263.49	23.04
263.707	143.87
263.923	66.05
264.139	-75.26
264.355	41.47
264.571	45.57
264.787	4.61
265.004	64
265.22	55.81
265.436	-22.02
265.652	-38.4
265.868	72.19
266.084	-15.87
266.3	20.99
266.516	-71.17
266.732	37.38
266.948	104.96
267.164	4.61
267.38	59.9
267.596	39.42
267.812	129.53
268.028	74.24
268.244	14.85
268.46	-17.92
268.676	80.38
268.892	-5.63
269.108	27.14
269.324	12.8
269.54	-44.54
269.756	92.67
269.972	-38.4
270.188	-17.92
270.403	-44.54
270.619	-58.88
270.835	129.53
271.051	37.38
271.267	12.8
271.483	-9.73
271.698	86.53
271.914	66.05
272.13	31.23
272.346	14.85
272.562	25.09
272.777	127.49
272.993	45.57
273.209	-79.36
273.425	145.92
273.64	-67.07
273.856	27.14
274.072	-3.58
274.287	14.85
274.503	57.86
274.719	102.91
274.934	100.86
275.15	12.8
275.366	18.94
275.581	-52.74
275.797	86.53
276.012	68.09
276.228	-30.21
276.444	37.38
276.659	141.82
276.875	-19.97
277.09	51.71
277.306	-28.16
277.521	84.48
277.737	-58.88
277.952	-13.82
278.168	31.23
278.383	0.51
278.599	53.76
278.814	111.1
279.03	53.76
279.245	137.73
279.461	64
279.676	29.18
279.892	31.23
280.107	-15.87
280.322	-34.3
280.538	51.71
280.753	-19.97
280.969	59.9
281.184	37.38
281.399	135.68
281.615	55.81
281.83	47.62
282.045	-1.54
282.26	-50.69
282.476	123.39
282.691	20.99
282.906	-28.16
283.122	23.04
283.337	14.85
283.552	2.56
283.767	37.38
283.983	29.18
284.198	-19.97
284.413	18.94
284.628	-50.69
284.843	74.24
285.058	39.42
285.274	76.29
285.489	12.8
285.704	76.29
285.919	12.8
286.134	12.8
286.349	47.62
286.564	12.8
286.779	111.1
286.995	111.1
287.21	-34.3
287.425	76.29
287.64	-69.12
287.855	72.19
288.07	4.61
288.285	100.86
288.5	102.91
288.715	-11.78
288.93	-36.35
289.145	2.56
289.36	102.91
289.575	16.9
289.79	43.52
290.004	-22.02
290.219	57.86
290.434	0.51
290.649	-3.58
290.864	64
291.079	-48.64
291.294	37.38
291.509	55.81
291.724	-1.54
291.938	-15.87
292.153	125.44
292.368	68.09
292.583	64
292.798	68.09
293.012	47.62
293.227	70.14
293.442	-24.06
293.657	57.86
293.871	111.1
294.086	23.04
294.301	127.49
294.516	94.72
294.73	23.04
294.945	-101.89
295.16	-60.93
295.374	76.29
295.589	86.53
295.804	-9.73
296.018	-1.54
296.233	45.57
296.447	45.57
296.662	-79.36
296.877	74.24
297.091	20.99
297.306	8.7
297.52	23.04
297.735	-11.78
297.949	39.42
298.164	45.57
298.378	61.95
298.593	-1.54
298.807	0.51
299.022	64
299.236	145.92
299.451	-62.98
299.665	10.75
299.88	-60.93
300.094	35.33
300.309	14.85
300.523	45.57
300.737	16.9
300.952	41.47
301.166	31.23
301.381	-48.64
301.595	53.76
301.809	80.38
302.024	92.67
302.238	-32.26
302.452	152.06
302.667	41.47
302.881	158.21
303.095	39.42
303.309	82.43
303.524	39.42
303.738	-3.58
303.952	4.61
304.166	72.19
304.381	-81.41
304.595	156.16
304.809	-103.93
305.023	64
305.237	10.75
305.452	-28.16
305.666	16.9
305.88	10.75
306.094	102.91
306.308	23.04
306.522	68.09
306.736	53.76
306.95	76.29
307.164	53.76
307.379	55.81
307.593	117.25
307.807	78.33
308.021	16.9
308.235	31.23
308.449	2.56
308.663	18.94
308.877	176.64
309.091	14.85
309.305	59.9
309.519	-75.26
309.733	107.01
309.947	-89.6
310.161	102.91
310.374	35.33
310.588	84.48
310.802	-62.98
311.016	-9.73
311.23	68.09
311.444	-26.11
311.658	43.52
311.872	68.09
312.085	35.33
312.299	172.54
312.513	113.15
312.727	61.95
312.941	80.38
313.154	10.75
313.368	14.85
313.582	45.57
313.796	82.43
314.009	-22.02
314.223	158.21
314.437	78.33
314.651	111.1
314.864	2.56
315.078	25.09
315.292	-34.3
315.505	-69.12
315.719	55.81
315.933	-9.73
316.146	-9.73
316.36	14.85
316.573	92.67
316.787	111.1
317.001	111.1
317.214	-42.5
317.428	64
317.641	18.94
317.855	72.19
318.068	39.42
318.282	33.28
318.495	133.63
318.709	86.53
318.922	68.09
319.136	113.15
319.349	68.09
319.563	-9.73
319.776	55.81
319.99	-67.07
320.203	43.52
320.417	-11.78
320.63	35.33
320.843	125.44
321.057	27.14
321.27	27.14
321.483	53.76
321.697	190.97
321.91	104.96
322.124	23.04
322.337	172.54
322.55	29.18
322.763	55.81
322.977	37.38
323.19	37.38
323.403	-30.21
323.617	141.82
323.83	61.95
324.043	47.62
324.256	-17.92
324.469	-34.3
324.683	66.05
324.896	31.23
325.109	-26.11
325.322	-28.16
325.535	109.05
325.748	145.92
325.962	92.67
326.175	49.66
326.388	51.71
326.601	14.85
326.814	0.51
327.027	10.75
327.24	104.96
327.453	-60.93
327.666	4.61
327.879	98.81
328.092	53.76
328.305	2.56
328.518	31.23
328.731	27.14
328.944	61.95
329.157	2.56
329.37	-34.3
329.583	143.87
329.796	76.29
330.009	-30.21
330.222	147.97
330.435	111.1
330.648	88.57
330.861	2.56
331.073	35.33
331.286	145.92
331.499	59.9
331.712	-50.69
331.925	37.38
332.138	8.7
332.35	117.25
332.563	-38.4
332.776	129.53
332.989	-13.82
333.202	29.18
333.414	39.42
333.627	45.57
333.84	6.66
334.053	-3.58
334.265	-19.97
334.478	14.85
334.691	96.77
334.903	104.96
335.116	-30.21
335.329	68.09
335.541	104.96
335.754	162.3
335.966	-22.02
336.179	92.67
336.392	55.81
336.604	-44.54
336.817	121.34
337.029	100.86
337.242	78.33
337.454	-1.54
337.667	53.76
337.88	94.72
338.092	37.38
338.305	64
338.517	88.57
338.729	133.63
338.942	57.86
339.154	-48.64
339.367	-26.11
339.579	20.99
339.792	-34.3
340.004	96.77
340.217	-5.63
340.429	47.62
340.641	23.04
340.854	-93.69
341.066	-1.54
341.278	107.01
341.491	51.71
341.703	2.56
341.915	0.51
342.128	78.33
342.34	55.81
342.552	80.38
342.764	14.85
342.977	2.56
343.189	80.38
343.401	-17.92
343.613	-26.11
343.826	14.85
344.038	-19.97
344.25	61.95
344.462	-38.4
344.674	14.85
344.886	12.8
345.099	51.71
345.311	76.29
345.523	-54.78
345.735	-87.55
345.947	6.66
346.159	117.25
346.371	29.18
346.583	35.33
346.795	211.45
347.007	27.14
347.219	64
347.431	39.42
347.643	176.64
347.855	8.7
348.067	66.05
348.279	-67.07
348.491	8.7
348.703	-9.73
348.915	-9.73
349.127	-62.98
349.339	70.14
349.551	29.18
349.763	14.85
349.975	-34.3
350.187	51.71
350.399	119.29
350.61	127.49
350.822	-17.92
351.034	113.15
351.246	-38.4
351.458	49.66
351.669	55.81
351.881	111.1
352.093	78.33
352.305	86.53
352.517	113.15
352.728	152.06
352.94	-9.73
353.152	88.57
353.363	-75.26
353.575	64
353.787	137.73
353.999	31.23
354.21	137.73
354.422	-34.3
354.633	25.09
354.845	72.19
355.057	53.76
355.268	76.29
355.48	43.52
355.692	-40.45
355.903	29.18
356.115	27.14
356.326	-87.55
356.538	88.57
356.749	64
356.961	96.77
357.172	68.09
357.384	-42.5
357.595	88.57
357.807	-32.26
358.018	6.66
358.23	-11.78
358.441	143.87
358.653	96.77
358.864	53.76
359.075	-54.78
359.287	66.05
359.498	172.54
359.709	12.8
359.921	88.57
360.132	100.86
360.344	86.53
360.555	43.52
360.766	111.1
360.977	18.94
361.189	100.86
361.4	6.66
361.611	49.66
361.823	61.95
362.034	68.09
362.245	-52.74
362.456	68.09
362.667	35.33
362.879	-5.63
363.09	-9.73
363.301	84.48
363.512	31.23
363.723	-15.87
363.935	4.61
364.146	70.14
364.357	-54.78
364.568	-7.68
364.779	-69.12
364.99	113.15
365.201	14.85
365.412	107.01
365.623	-28.16
365.834	35.33
366.045	-13.82
366.256	47.62
366.467	43.52
366.678	16.9
366.889	25.09
367.1	-13.82
367.311	174.59
367.522	-52.74
367.733	125.44
367.944	59.9
368.155	14.85
368.366	119.29
368.577	168.45
368.788	12.8
368.999	-42.5
369.209	92.67
369.42	186.88
369.631	182.78
369.842	125.44
370.053	49.66
370.264	86.53
370.474	55.81
370.685	37.38
370.896	76.29
371.107	178.69
371.317	66.05
371.528	117.25
371.739	184.83
371.95	35.33
372.16	111.1
372.371	-26.11
372.582	-1.54
372.792	86.53
373.003	45.57
373.214	129.53
373.424	53.76
373.635	-38.4
373.846	131.58
374.056	-5.63
374.267	100.86
374.477	55.81
374.688	-108.03
374.898	-1.54
375.109	64
375.319	-9.73
375.53	111.1
375.74	168.45
375.951	-1.54
376.161	70.14
376.372	88.57
376.582	18.94
376.793	14.85
377.003	92.67
377.214	-11.78
377.424	68.09
377.635	-48.64
377.845	8.7
378.055	102.91
378.266	31.23
378.476	27.14
378.686	45.57
378.897	49.66
379.107	119.29
379.317	35.33
379.528	96.77
379.738	51.71
379.948	-26.11
380.158	92.67
380.369	-9.73
380.579	154.11
380.789	33.28
380.999	66.05
381.21	160.25
381.42	180.73
381.63	41.47
381.84	137.73
382.05	150.01
382.261	76.29
382.471	174.59
382.681	-108.03
382.891	154.11
383.101	80.38
383.311	-3.58
383.521	-26.11
383.731	119.29
383.941	64
384.151	57.86
384.361	4.61
384.571	86.53
384.781	96.77
384.991	86.53
385.201	164.35
385.411	68.09
385.621	145.92
385.831	33.28
386.041	127.49
386.251	-26.11
386.461	88.57
386.671	6.66
386.881	64
387.091	92.67
387.301	27.14
387.511	-9.73
387.72	27.14
387.93	100.86
388.14	-67.07
388.35	55.81
388.56	31.23
388.769	102.91
388.979	12.8
389.189	6.66
389.399	-1.54
389.609	102.91
389.818	150.01
390.028	31.23
390.238	6.66
390.447	23.04
390.657	86.53
390.867	55.81
391.076	-54.78
391.286	45.57
391.496	-28.16
391.705	18.94
391.915	84.48
392.125	178.69
392.334	80.38
392.544	193.02
392.753	-24.06
392.963	-62.98
393.172	96.77
393.382	-17.92
393.591	225.79
393.801	45.57
394.01	170.49
394.22	72.19
394.429	-1.54
394.639	72.19
394.848	14.85
395.058	86.53
395.267	6.66
395.477	90.62
395.686	-17.92
395.895	162.3
396.105	238.08
396.314	139.77
396.524	4.61
396.733	78.33
396.942	147.97
397.152	74.24
397.361	64
397.57	14.85
397.78	12.8
397.989	88.57
398.198	102.91
398.407	82.43
398.617	31.23
398.826	47.62
399.035	8.7
399.244	115.2
399.453	14.85
399.663	-7.68
399.872	6.66
400.081	23.04
400.29	98.81
400.499	23.04
400.708	96.77
400.917	41.47
401.127	31.23
401.336	-17.92
401.545	213.5
401.754	94.72
401.963	96.77
402.172	57.86
402.381	-11.78
402.59	66.05
402.799	82.43
403.008	104.96
403.217	55.81
403.426	31.23
403.635	45.57
403.844	8.7
404.053	-34.3
404.262	39.42
404.471	180.73
404.68	10.75
404.888	29.18
405.097	47.62
405.306	53.76
405.515	104.96
405.724	14.85
405.933	121.34
406.142	102.91
406.35	117.25
406.559	49.66
406.768	84.48
406.977	143.87
407.185	92.67
407.394	104.96
407.603	-58.88
407.812	104.96
408.02	119.29
408.229	35.33
408.438	143.87
408.646	-42.5
408.855	-5.63
409.064	78.33
409.272	88.57
409.481	70.14
409.69	-54.78
409.898	-65.02
410.107	29.18
410.315	82.43
410.524	-28.16
410.733	113.15
410.941	-13.82
411.15	64
411.358	92.67
411.567	154.11
411.775	-1.54
411.984	18.94
412.192	61.95
412.401	88.57
412.609	131.58
412.818	121.34
413.026	41.47
413.234	6.66
413.443	90.62
413.651	-62.98
413.86	-26.11
414.068	90.62
414.276	119.29
414.485	14.85
414.693	178.69
414.901	150.01
415.11	137.73
415.318	10.75
415.526	31.23
415.734	84.48
415.943	78.33
416.151	160.25
416.359	92.67
416.567	121.34
416.776	84.48
416.984	72.19
417.192	170.49
417.4	6.66
417.608	23.04
417.817	2.56
418.025	80.38
418.233	131.58
418.441	-52.74
418.649	-34.3
418.857	80.38
419.065	154.11
419.273	51.71
419.481	86.53
419.689	25.09
419.897	55.81
420.105	-5.63
420.313	137.73
420.521	133.63
420.729	135.68
420.937	43.52
421.145	25.09
421.353	129.53
421.561	143.87
421.769	2.56
421.977	-34.3
422.185	96.77
422.393	18.94
422.601	98.81
422.809	23.04
423.017	-17.92
423.224	100.86
423.432	111.1
423.64	64
423.848	96.77
424.056	8.7
424.263	154.11
424.471	59.9
424.679	164.35
424.887	-24.06
425.094	96.77
425.302	180.73
425.51	-19.97
425.718	127.49
425.925	76.29
426.133	59.9
426.341	211.45
426.548	61.95
426.756	55.81
426.964	72.19
427.171	64
427.379	139.77
427.586	121.34
427.794	45.57
428.001	137.73
428.209	96.77
428.417	135.68
428.624	164.35
428.832	127.49
429.039	113.15
429.247	111.1
429.454	139.77
429.662	219.64
429.869	227.84
430.076	186.88
430.284	178.69
430.491	162.3
430.699	190.97
430.906	203.26
431.114	152.06
431.321	203.26
431.528	195.07
431.736	168.45
431.943	233.98
432.15	227.84
432.358	166.4
432.565	276.99
432.772	57.86
432.979	248.32
433.187	162.3
433.394	256.51
433.601	160.25
433.808	272.89
434.016	289.28
434.223	246.27
434.43	244.22
434.637	264.7
434.844	322.04
435.052	307.71
435.259	424.44
435.466	342.52
435.673	293.37
435.88	395.77
436.087	299.52
436.294	317.95
436.501	393.72
436.708	408.06
436.915	358.91
437.122	467.45
437.329	299.52
437.537	367.1
437.743	442.87
437.95	549.37
438.157	403.96
438.364	436.73
438.571	457.21
438.778	428.54
438.985	612.85
439.192	575.99
439.399	539.13
439.606	512.5
439.813	616.95
440.02	778.74
440.227	743.92
440.433	672.25
440.64	625.14
440.847	598.52
441.054	662.01
441.261	840.18
441.467	639.48
441.674	776.69
441.881	801.27
442.088	829.94
442.294	897.52
442.501	918
442.708	940.53
442.914	1014.26
443.121	1104.37
443.328	1073.65
443.534	1268.2
443.741	1169.9
443.948	989.68
444.154	1239.53
444.361	1407.47
444.568	1325.55
444.774	1300.97
444.981	1245.68
445.187	1489.39
445.394	1489.39
445.6	1458.67
445.807	1634.79
446.013	1628.65
446.22	1694.18
446.426	1685.99
446.633	1825.25
446.839	2091.49
447.046	1898.98
447.252	2167.26
447.459	1997.28
447.665	2044.38
447.871	2181.6
448.078	2419.16
448.284	2478.55
448.491	2388.44
448.697	2558.42
448.903	2705.88
449.11	2755.03
449.316	2660.82
449.522	2968.02
449.728	3013.07
449.935	3138
450.141	3217.87
450.347	3508.68
450.553	3162.58
450.76	3590.6
450.966	3717.58
451.172	3871.17
451.378	3963.33
451.584	4116.93
451.791	4276.67
451.997	4526.52
452.203	4471.23
452.409	4852.15
452.615	4831.67
452.821	4798.9
453.027	5124.53
453.233	5593.51
453.44	5433.77
453.646	5646.76
453.852	5937.57
454.058	5994.92
454.264	6222.24
454.47	6515.1
454.676	6959.51
454.882	7436.69
455.088	6803.86
455.294	7414.16
455.5	7985.54
455.705	8432
455.911	8522.11
456.117	8413.57
456.323	8980.85
456.529	8935.8
456.735	9595.25
456.941	9896.3
457.147	10381.67
457.352	10684.76
457.558	10975.58
457.764	11563.34
457.97	11895.11
458.176	12380.48
458.381	13224.25
458.587	13257.01
458.793	13895.98
458.999	13525.3
459.204	15644.95
459.41	16212.23
459.616	16163.08
459.821	16900.35
460.027	17742.07
460.233	18622.69
460.438	18428.13
460.644	19685.59
460.85	19812.56
461.055	20504.78
461.261	21418.17
461.466	21303.48
461.672	21498.04
461.878	24189.07
462.083	23636.12
462.289	24361.1
462.494	25251.97
462.7	25342.08
462.905	25899.12
463.111	28043.35
463.316	28889.16
463.522	29827.13
463.727	30756.91
463.932	32120.85
464.138	33138.69
464.343	34113.53
464.549	34271.22
464.754	36751.31
464.959	37849.02
465.165	38410.17
465.37	37996.48
465.575	38131.64
465.781	40693.65
465.986	41953.15
466.191	41185.16
466.397	41641.86
466.602	40871.82
466.807	42923.89
467.012	43525.99
467.218	44304.22
467.423	44334.94
467.628	45684.55
467.833	47798.05
468.038	47169.33
468.244	46239.55
468.449	48703.26
468.654	47443.76
468.859	47085.36
469.064	47302.45
469.269	46210.88
469.474	46704.44
469.679	48037.67
469.885	46538.55
470.09	47492.91
470.295	47566.63
470.5	46311.23
470.705	46645.05
470.91	45489.99
471.115	45154.13
471.32	45659.98
471.525	45711.17
471.73	44019.55
471.935	44105.57
472.139	42024.83
472.344	42229.63
472.549	41893.76
472.754	41011.09
472.959	40898.45
473.164	38965.17
473.369	38043.58
473.574	39509.93
473.778	38649.78
473.983	38555.57
474.188	37371.85
474.393	35756
474.598	35514.34
474.802	34420.72
475.007	34174.97
475.212	34140.15
475.417	32772.11
475.621	32362.51
475.826	32407.57
476.031	31275.04
476.235	30810.15
476.44	30869.54
476.645	29958.2
476.849	29786.17
477.054	28993.61
477.259	28147.79
477.463	28475.47
477.668	27433.05
477.872	27828.31
478.077	26861.67
478.282	26159.22
478.486	25931.89
478.691	25901.17
478.895	25614.46
479.1	25297.02
479.304	25098.37
479.509	24262.8
479.713	24885.38
479.918	24025.23
480.122	23355.55
480.326	24045.71
480.531	23769.24
480.735	23513.24
480.94	22923.43
481.144	23568.54
481.348	22552.74
481.553	22747.3
481.757	22091.95
481.961	22421.67
482.166	22401.19
482.37	21962.93
482.574	21504.18
482.778	21534.9
482.983	21827.76
483.187	21512.38
483.391	21444.79
483.595	20889.79
483.8	20617.41
484.004	20656.32
484.208	20586.69
484.412	20248.78
484.616	20246.73
484.821	20068.56
485.025	19232.99
485.229	19482.84
485.433	19106.01
485.637	19241.18
485.841	18614.5
486.045	18407.66
486.249	18217.19
486.453	17854.7
486.657	17445.11
486.861	17436.92
487.065	16793.86
487.269	16810.24
487.473	16349.45
487.677	16754.94
487.881	16501
488.085	15931.66
488.289	15614.23
488.493	15296.79
488.697	15141.14
488.901	14854.43
489.105	14696.74
489.309	14432.55
489.512	14160.17
489.716	13867.31
489.92	13785.39
490.124	13304.12
490.328	13265.21
490.531	12843.32
490.735	12929.34
490.939	12642.62
491.143	12435.78
491.346	12128.58
491.55	11936.07
491.754	11731.28
491.958	11495.76
492.161	11465.04
492.365	11200.85
492.569	10932.57
492.772	10666.33
492.976	10824.03
493.18	10590.56
493.383	10510.69
493.587	10459.49
493.79	10334.56
493.994	10146.15
494.197	9967.98
494.401	10004.84
494.605	9685.36
494.808	9797.99
495.012	9480.56
495.215	9597.29
495.419	9740.65
495.622	9283.95
495.825	9312.63
496.029	9232.76
496.232	9498.99
496.436	9208.18
496.639	9472.37
496.843	9161.08
497.046	9177.46
497.249	9417.07
497.453	9329.01
497.656	9316.72
497.859	9214.32
498.063	9212.28
498.266	9525.61
498.469	9173.36
498.673	9171.32
498.876	9193.84
499.079	9263.47
499.282	9384.3
499.485	9935.21
499.689	9400.69
499.892	9724.27
500.095	9630.06
500.298	10010.98
500.501	9496.94
500.705	9931.11
500.908	9935.21
501.111	9886.06
501.314	10193.25
501.517	10088.81
501.72	10111.33
501.923	10205.54
502.126	10383.71
502.329	10565.98
502.532	10615.13
502.735	10783.07
502.938	11151.7
503.141	10975.58
503.344	11118.93
503.547	11260.24
503.75	11354.45
503.953	11524.43
504.156	11862.35
504.359	11858.25
504.562	12099.91
504.765	12370.24
504.968	12345.67
505.17	12450.11
505.373	12679.49
505.576	13070.65
505.779	13230.39
505.982	13457.71
506.185	13979.95
506.387	13861.16
506.59	14084.39
506.793	14455.08
506.996	14473.51
507.198	14885.15
507.401	15053.08
507.604	15378.71
507.807	15690
508.009	16095.5
508.212	16312.58
508.415	16746.75
508.617	16697.6
508.82	17459.45
509.022	17561.84
509.225	18219.24
509.428	18440.42
509.63	18735.33
509.833	18862.3
510.035	19630.29
510.238	19476.69
510.44	20441.29
510.643	20820.16
510.845	21614.77
511.048	21407.93
511.25	22286.51
511.453	22907.04
511.655	23560.34
511.858	23634.07
512.06	24322.19
512.262	24815.75
512.465	25161.86
512.667	25946.23
512.87	26411.12
513.072	26751.08
513.274	27500.64
513.477	27906.13
513.679	28940.36
513.881	29274.18
514.084	30220.34
514.286	30220.34
514.488	31244.32
514.69	32309.27
514.893	32866.31
515.095	33576.96
515.297	34152.44
515.499	34385.91
515.701	35381.22
515.904	36237.27
516.106	37248.97
516.308	37754.82
516.51	38719.41
516.712	38768.56
516.914	39493.54
517.116	40705.94
517.318	41338.76
517.52	42162.04
517.722	42516.34
517.925	43476.84
518.127	44588.89
518.329	44910.42
518.531	45059.92
518.733	46171.97
518.935	47056.69
519.136	47681.32
519.338	48987.92
519.54	49237.78
519.742	49639.18
519.944	50106.12
520.146	51535.6
520.348	51982.05
520.55	52618.97
520.752	52944.6
520.954	54144.71
521.155	54173.38
521.357	55385.78
521.559	55901.87
521.761	56852.12
521.963	56575.65
522.164	57220.76
522.366	57271.96
522.568	58328.71
522.77	58470.02
522.971	59088.51
523.173	59129.47
523.375	59737.71
523.576	59426.42
523.778	59561.59
523.98	60415.59
524.181	60907.1
524.383	60755.55
524.584	61517.4
524.786	61005.41
524.988	61079.13
525.189	61144.67
525.391	61746.77
525.592	61771.35
525.794	62006.86
525.995	61709.91
526.197	61455.96
526.398	61472.34
526.6	61181.53
526.801	60980.83
527.003	61013.6
527.204	60890.72
527.406	61038.17
527.607	60268.14
527.808	60874.34
528.01	59244.15
528.211	59432.57
528.412	59866.73
528.614	59465.33
528.815	58580.61
529.016	58551.94
529.218	57933.45
529.419	57458.32
529.62	57474.71
529.822	56938.14
530.023	55828.14
530.224	55795.37
530.425	55133.88
530.626	54163.14
530.828	53661.39
531.029	53968.58
531.23	53034.71
531.431	52440.8
531.632	52170.47
531.833	51740.39
532.035	51205.87
532.236	50151.17
532.437	50069.25
532.638	49184.53
532.839	48889.62
533.04	48219.94
533.241	46974.77
533.442	47296.3
533.643	46411.58
533.844	45483.85
534.045	45229.9
534.246	44042.08
534.447	44242.78
534.648	43540.33
534.849	43143.02
535.05	42293.11
535.251	42004.35
535.451	41125.77
535.652	40632.21
535.853	40249.24
536.054	39620.52
536.255	39428.01
536.456	38668.21
536.657	38387.64
536.857	37765.06
537.058	36665.3
537.259	36878.29
537.46	36229.08
537.66	35565.54
537.861	35373.03
538.062	34850.8
538.263	34568.18
538.463	33761.28
538.664	33800.19
538.865	33425.41
539.065	32774.16
539.266	31852.57
539.466	32251.92
539.667	31203.36
539.868	31287.33
540.068	30754.86
540.269	30724.14
540.469	30076.98
540.67	29765.69
540.87	29325.38
541.071	29093.96
541.271	28860.49
541.472	28362.83
541.672	27928.66
541.873	27703.39
542.073	27119.71
542.274	27635.8
542.474	26867.81
542.675	26167.41
542.875	26249.33
543.075	25987.19
543.276	25569.4
543.476	25413.76
543.676	24625.29
543.877	24795.27
544.077	24688.78
544.277	24340.62
544.478	24174.74
544.678	23730.33
544.878	23339.16
545.078	23224.48
545.279	23062.69
545.479	22982.82
545.679	22806.69
545.879	22390.95
546.079	21799.09
546.28	21504.18
546.48	21262.52
546.68	21450.94
546.88	21176.51
547.08	20738.24
547.28	20486.34
547.48	20113.61
547.68	20021.45
547.88	19706.07
548.081	19491.03
548.281	19249.37
548.481	19161.31
548.681	18727.14
548.881	18610.4
549.081	18522.34
549.28	18145.52
549.48	17866.99
549.68	17561.84
549.88	17498.36
550.08	17129.72
550.28	16797.95
550.48	16711.94
550.68	16587.01
550.88	16064.78
551.08	16079.11
551.279	15673.62
551.479	15239.45
551.679	15290.65
551.879	15024.41
552.079	14926.11
552.278	14551.33
552.478	14313.77
552.678	14311.72
552.878	13945.13
553.077	13721.9
553.277	13480.24
553.477	13558.07
553.676	13177.14
553.876	13127.99
554.076	12761.41
554.275	12572.99
554.475	12114.25
554.674	12181.83
554.874	12003.66
555.074	11948.36
555.273	11831.63
555.473	11532.62
555.672	11073.88
555.872	11053.4
556.071	10987.86
556.271	10758.49
556.47	10746.2
556.67	10377.57
556.869	10299.75
557.068	9914.73
557.268	9935.21
557.467	9849.19
557.667	9644.4
557.866	9365.87
558.065	9320.82
558.265	9058.68
558.464	8798.59
558.663	8829.31
558.863	8778.11
559.062	8663.42
559.261	8282.5
559.461	8434.05
559.66	8135.04
559.859	7981.45
560.058	7973.25
560.258	7819.66
560.457	7582.09
560.656	7569.8
560.855	7405.97
561.054	7356.82
561.253	7209.36
561.453	7039.38
561.652	6814.1
561.851	6977.94
562.05	6672.79
562.249	6568.35
562.448	6459.81
562.647	6238.62
562.846	6255.01
563.045	6527.39
563.244	6285.73
563.443	6230.43
563.642	5990.82
563.841	5986.72
564.04	5765.54
564.239	5919.14
564.438	5618.09
564.637	5530.03
564.836	5437.87
565.035	5417.39
565.234	5351.85
565.432	5349.81
565.631	5208.5
565.83	5056.95
566.029	4889.01
566.228	4950.45
566.427	4991.41
566.625	4784.57
566.824	4667.83
567.023	4759.99
567.222	4618.68
567.42	4610.49
567.619	4547
567.818	4516.28
568.016	4450.75
568.215	4426.17
568.414	4243.9
568.612	4241.86
568.811	4180.42
569.01	4157.89
569.208	3969.48
569.407	4004.29
569.605	3979.72
569.804	3762.63
570.002	3865.03
570.201	3719.62
570.4	3764.68
570.598	3641.8
570.797	3662.28
570.995	3488.2
571.193	3414.48
571.392	3344.84
571.59	3164.62
571.789	3414.48
571.987	3303.89
572.186	3357.13
572.384	3144.14
572.582	3146.19
572.781	3160.53
572.979	2939.35
573.177	2937.3
573.376	2961.87
573.574	2929.11
573.772	2941.4
573.971	2783.7
574.169	2759.13
574.367	2669.02
574.565	2644.44
574.763	2578.9
574.962	2621.91
575.16	2560.47
575.358	2546.14
575.556	2525.66
575.754	2492.89
575.952	2335.2
576.151	2341.34
576.349	2341.34
576.547	2193.89
576.745	2284
576.943	2329.05
577.141	2185.69
577.339	2034.14
577.537	2087.39
577.735	2177.5
577.933	2071.01
578.131	1989.09
578.329	2075.1
578.527	1890.79
578.725	1956.32
578.923	1710.57
579.121	1923.55
579.319	1661.41
579.516	1853.92
579.714	1866.21
579.912	1772
580.11	1704.42
580.308	1671.65
580.506	1720.81
580.704	1466.86
580.901	1524.2
581.099	1657.32
581.297	1649.13
581.495	1706.47
581.692	1587.69
581.89	1509.86
582.088	1487.34
582.285	1460.71
582.483	1415.66
582.681	1341.93
582.878	1415.66
583.076	1425.9
583.274	1440.23
583.471	1444.33
583.669	1300.97
583.866	1305.07
584.064	1356.27
584.262	1217.01
584.459	1196.53
584.657	1260.01
584.854	1389.03
585.052	1217.01
585.249	1284.59
585.447	1217.01
585.644	1071.6
585.841	1163.76
586.039	1126.89
586.236	1079.79
586.434	1057.26
586.631	991.73
586.828	1071.6
587.026	1077.74
587.223	879.09
587.42	1055.22
587.618	1036.78
587.815	1108.46
588.012	1026.54
588.21	903.67
588.407	1014.26
588.604	1014.26
588.801	881.14
588.999	930.29
589.196	1001.97
589.393	924.15
589.59	911.86
589.787	883.19
589.984	979.44
590.182	915.95
590.379	866.8
590.576	823.8
590.773	815.6
590.97	930.29
591.167	891.38
591.364	858.61
591.561	834.04
591.758	858.61
591.955	866.8
592.152	823.8
592.349	852.47
592.546	788.98
592.743	795.12
592.94	817.65
593.137	874.99
593.334	911.86
593.531	905.71
593.727	805.36
593.924	868.85
594.121	881.14
594.318	866.8
594.515	874.99
594.712	915.95
594.908	999.92
595.105	881.14
595.302	989.68
595.499	1036.78
595.696	1040.88
595.892	866.8
596.089	1106.42
596.286	934.39
596.482	1038.83
596.679	1051.12
596.876	1001.97
597.072	1204.72
597.269	1096.18
597.466	1096.18
597.662	1176.05
597.859	1178.09
598.055	1241.58
598.252	1239.53
598.448	1415.66
598.645	1438.19
598.841	1522.15
599.038	1636.84
599.234	1513.96
599.431	1726.95
599.627	1776.1
599.824	1784.29
600.02	1808.87
600.217	1837.54
600.413	1960.42
600.609	2060.77
600.806	2200.03
601.002	2152.93
601.198	2200.03
601.395	2456.03
601.591	2486.75
601.787	2486.75
601.984	2683.35
602.18	2677.21
602.376	2779.61
602.572	2894.29
602.769	3074.51
602.965	3054.03
603.161	3287.5
603.357	3482.06
603.553	3566.03
603.75	3635.66
603.946	3768.77
604.142	3914.18
604.338	4102.59
604.534	4073.92
604.73	4114.88
604.926	4534.71
605.122	4692.41
605.318	4624.83
605.514	4897.21
605.71	5052.85
605.906	5145.01
606.102	5253.55
606.298	5497.26
606.494	5730.73
606.69	5900.71
606.886	6195.62
607.082	6105.51
607.278	6177.19
607.474	6298.02
607.67	6664.6
607.866	6801.82
608.062	7250.32
608.257	7238.03
608.453	7444.88
608.649	7571.85
608.845	7854.47
609.041	8102.28
609.236	8321.41
609.432	8638.84
609.628	8778.11
609.824	8974.71
610.019	9152.88
610.215	9310.58
610.411	9824.62
610.606	9752.94
610.802	10004.84
610.998	10432.86
611.193	10856.79
611.389	10848.6
611.584	11456.85
611.78	11565.39
611.976	12069.19
612.171	12628.29
612.367	12575.04
612.562	13007.16
612.758	13240.63
612.953	13463.86
613.149	13926.7
613.344	14289.19
613.539	14993.69
613.735	15085.85
613.93	15524.12
614.126	16009.48
614.321	16316.68
614.517	16974.08
614.712	17074.43
614.907	17750.26
615.103	18329.83
615.298	18768.1
615.493	18944.22
615.688	19308.76
615.884	20385.99
616.079	20183.24
616.274	21315.77
616.47	21778.61
616.665	22182.06
616.86	22810.79
617.055	23109.79
617.25	23793.81
617.445	24682.63
617.641	24664.2
617.836	25583.74
618.031	25645.18
618.226	26628.2
618.421	27195.49
618.616	28205.14
618.811	28467.28
619.006	29417.54
619.201	29716.54
619.396	30904.36
619.591	30879.78
619.786	32135.19
619.981	32550.93
620.176	33482.75
620.371	33871.87
620.566	34648.05
620.761	35377.12
620.956	36149.21
621.151	36325.33
621.346	37566.4
621.541	38016.96
621.735	39274.41
621.93	39438.25
622.125	40136.6
622.32	40304.54
622.515	41740.16
622.709	42276.73
622.904	43032.43
623.099	43831.14
623.294	45199.18
623.488	45082.45
623.683	46331.71
623.878	46313.28
624.072	47378.22
624.267	48185.12
624.462	49071.89
624.656	49411.85
624.851	50657.02
625.046	50513.66
625.24	51961.58
625.435	52332.26
625.629	53208.79
625.824	53534.42
626.018	54611.65
626.213	53898.95
626.407	55281.33
626.602	55377.59
626.796	56614.56
626.991	57220.76
627.185	57441.94
627.38	57452.18
627.574	57970.32
627.768	57933.45
627.963	58203.78
628.157	58400.39
628.352	59127.42
628.546	58113.67
628.74	58932.86
628.935	58719.87
629.129	58900.09
629.323	58341
629.517	58066.57
629.712	58031.75
629.906	57493.14
630.1	56764.06
630.294	56327.84
630.489	55611.06
630.683	55287.48
630.877	53944.01
631.071	53149.4
631.265	52715.23
631.459	51805.93
631.653	50755.32
631.848	49514.25
632.042	48480.03
632.236	47654.7
632.43	45401.93
632.624	44715.86
632.818	43403.11
633.012	42237.82
633.206	40820.63
633.4	39919.52
633.594	37842.88
633.788	37083.08
633.982	35993.56
634.176	34611.18
634.369	33095.69
634.563	32563.22
634.757	30976.04
634.951	29945.91
635.145	28727.37
635.339	27603.03
635.533	26230.9
635.726	25524.35
635.92	24064.14
636.114	23382.17
636.308	22640.81
636.501	21485.75
636.695	20883.65
636.889	19816.66
637.083	18647.27
637.276	18190.57
637.47	17496.31
637.664	16580.87
637.857	16199.94
638.051	15474.96
638.244	14711.07
638.438	14072.11
638.632	13607.22
638.825	12990.78
639.019	12681.53
639.212	12147.01
639.406	11514.19
639.599	11237.72
639.793	10877.27
639.986	10271.08
640.18	10140.01
640.373	9632.11
640.567	8919.42
640.76	8786.3
640.954	8415.62
641.147	8206.72
641.34	7897.48
641.534	7588.24
641.727	7496.08
641.92	7096.72
642.114	6830.49
642.307	6437.28
642.5	6418.85
642.694	5921.19
642.887	5738.92
643.08	5751.21
643.273	5382.57
643.467	5192.11
643.66	4882.87
643.853	4751.8
644.046	4475.32
644.239	4438.46
644.432	4159.94
644.626	3998.15
644.819	3922.37
645.012	3912.13
645.205	3719.62
645.398	3410.38
645.591	3414.48
645.784	3162.58
645.977	3119.57
646.17	3000.79
646.363	2763.22
646.556	2705.88
646.749	2607.58
646.942	2480.6
647.135	2507.23
647.328	2355.68
647.521	2269.66
647.714	2273.76
647.907	2191.84
648.099	2040.29
648.292	2083.3
648.485	1929.7
648.678	1790.44
648.871	1735.14
649.064	1722.85
649.256	1563.11
649.449	1624.55
649.642	1380.84
649.835	1479.15
650.027	1260.01
650.22	1395.18
650.413	1348.08
650.605	1358.32
650.798	1243.63
650.991	1255.92
651.183	1157.61
651.376	1227.25
651.568	1020.4
651.761	999.92
651.954	1063.41
652.146	938.48
652.339	948.72
652.531	1038.83
652.724	840.18
652.916	807.41
653.109	807.41
653.301	895.47
653.494	840.18
653.686	727.54
653.879	866.8
654.071	797.17
654.263	571.9
654.456	633.33
654.648	729.59
654.84	686.58
655.033	608.76
655.225	727.54
655.417	438.78
655.61	651.77
655.802	604.66
655.994	619
656.186	565.75
656.379	563.7
656.571	508.41
656.763	502.26
656.955	426.49
657.148	469.5
657.34	514.55
657.532	469.5
657.724	440.83
657.916	508.41
658.108	516.6
658.3	377.34
658.492	455.16
658.684	338.43
658.876	457.21
659.068	350.71
659.26	358.91
659.452	297.47
659.644	393.72
659.836	420.35
660.028	324.09
660.22	354.81
660.412	281.08
660.604	324.09
660.796	301.56
660.988	408.06
661.18	338.43
661.372	379.39
661.563	199.16
661.755	311.8
661.947	260.6
662.139	301.56
662.331	258.56
662.522	309.76
662.714	127.49
662.906	182.78
663.097	195.07
663.289	231.93
663.481	188.93
663.673	238.08
663.864	184.83
664.056	326.14
664.247	168.45
664.439	276.99
664.631	213.5
664.822	334.33
665.014	199.16
665.205	231.93
665.397	258.56
665.588	281.08
665.78	182.78
665.971	215.55
666.163	141.82
666.354	240.12
666.546	217.6
666.737	219.64
666.929	211.45
667.12	180.73
667.311	236.03
667.503	199.16
667.694	223.74
667.885	178.69
668.077	201.21
668.268	53.76
668.459	150.01
668.651	236.03
668.842	154.11
669.033	92.67
669.224	137.73
669.416	336.38
669.607	135.68
669.798	221.69
669.989	276.99
670.18	137.73
670.371	209.4
670.563	88.57
670.754	215.55
670.945	246.27
671.136	190.97
671.327	137.73
671.518	250.36
671.709	281.08
671.9	250.36
672.091	233.98
672.282	145.92
672.473	131.58
672.664	168.45
672.855	231.93
673.046	268.8
673.237	336.38
673.428	213.5
673.619	182.78
673.809	152.06
674	219.64
674.191	233.98
674.382	135.68
674.573	205.31
674.764	203.26
674.954	272.89
675.145	92.67
675.336	211.45
675.527	88.57
675.717	137.73
675.908	162.3
676.099	147.97
676.289	324.09
676.48	98.81
676.671	229.88
676.861	238.08
677.052	221.69
677.243	190.97
677.433	252.41
677.624	248.32
677.814	270.84
678.005	215.55
678.195	356.86
678.386	236.03
678.576	121.34
678.767	160.25
678.957	203.26
679.148	281.08
679.338	340.47
679.529	233.98
679.719	260.6
679.909	307.71
680.1	315.9
680.29	233.98
680.481	176.64
680.671	289.28
680.861	365.05
681.052	258.56
681.242	180.73
681.432	367.1
681.622	328.19
681.813	260.6
682.003	221.69
682.193	119.29
682.383	281.08
682.573	276.99
682.764	233.98
682.954	242.17
683.144	449.02
683.334	324.09
683.524	326.14
683.714	358.91
683.904	315.9
684.094	340.47
684.284	291.32
684.474	391.67
684.664	360.95
684.854	242.17
685.044	334.33
685.234	246.27
685.424	289.28
685.614	223.74
685.804	391.67
685.994	322.04
686.184	203.26
686.374	358.91
686.564	352.76
686.753	385.53
686.943	203.26
687.133	322.04
687.323	283.13
687.513	395.77
687.702	256.51
687.892	317.95
688.082	397.82
688.272	381.43
688.461	326.14
688.651	416.25
688.841	360.95
689.03	285.18
689.22	332.28
689.41	352.76
689.599	248.32
689.789	266.75
689.979	379.39
690.168	360.95
690.358	356.86
690.547	391.67
690.737	317.95
690.926	363
691.116	311.8
691.305	373.24
691.495	328.19
691.684	207.36
691.874	391.67
692.063	244.22
692.252	393.72
692.442	336.38
692.631	320
692.82	219.64
693.01	334.33
693.199	303.61
693.388	332.28
693.578	330.23
693.767	348.67
693.956	299.52
694.146	260.6
694.335	270.84
694.524	340.47
694.713	412.15
694.902	295.42
695.092	307.71
695.281	313.85
695.47	240.12
695.659	281.08
695.848	238.08
696.037	272.89
696.226	242.17
696.415	324.09
696.604	391.67
696.793	385.53
696.982	281.08
697.171	365.05
697.36	328.19
697.549	297.47
697.738	223.74
697.927	283.13
698.116	244.22
698.305	328.19
698.494	334.33
698.683	297.47
698.872	375.29
699.061	324.09
699.25	233.98
699.438	274.94
699.627	268.8
699.816	389.63
700.005	264.7
700.193	285.18
700.382	338.43
700.571	322.04
700.76	348.67
700.948	352.76
701.137	315.9
701.326	326.14
701.514	248.32
701.703	340.47
701.892	363
702.08	422.39
702.269	223.74
702.457	287.23
702.646	354.81
702.834	356.86
703.023	356.86
703.212	313.85
703.4	326.14
703.589	160.25
703.777	297.47
703.965	246.27
704.154	264.7
704.342	248.32
704.531	223.74
704.719	272.89
704.907	317.95
705.096	215.55
705.284	274.94
705.472	334.33
705.661	297.47
705.849	358.91
706.037	356.86
706.226	317.95
706.414	283.13
706.602	174.59
706.79	317.95
706.979	244.22
707.167	305.66
707.355	231.93
707.543	313.85
707.731	332.28
707.919	324.09
708.107	242.17
708.296	252.41
708.484	223.74
708.672	293.37
708.86	326.14
709.048	266.75
709.236	203.26
709.424	397.82
709.612	285.18
709.8	238.08
709.988	272.89
710.176	317.95
710.364	301.56
710.551	258.56
710.739	287.23
710.927	217.6
711.115	342.52
711.303	346.62
711.491	434.68
711.679	227.84
711.866	340.47
712.054	252.41
712.242	274.94
712.43	371.19
712.617	289.28
712.805	342.52
712.993	260.6
713.181	211.45
713.368	338.43
713.556	297.47
713.744	297.47
713.931	408.06
714.119	346.62
714.306	283.13
714.494	260.6
714.682	297.47
714.869	231.93
715.057	252.41
715.244	215.55
715.432	330.23
715.619	242.17
715.807	262.65
715.994	285.18
716.182	256.51
716.369	299.52
716.556	340.47
716.744	219.64
716.931	242.17
717.119	317.95
717.306	342.52
717.493	295.42
717.681	317.95
717.868	297.47
718.055	324.09
718.242	252.41
718.43	289.28
718.617	365.05
718.804	252.41
718.991	406.01
719.179	317.95
719.366	363
719.553	336.38
719.74	406.01
719.927	238.08
720.114	346.62
720.301	281.08
720.488	227.84
720.676	279.04
720.863	387.58
721.05	424.44
721.237	352.76
721.424	403.96
721.611	379.39
721.798	233.98
721.985	217.6
722.172	293.37
722.358	354.81
722.545	381.43
722.732	309.76
722.919	399.87
723.106	350.71
723.293	317.95
723.48	348.67
723.667	406.01
723.853	338.43
724.04	416.25
724.227	350.71
724.414	365.05
724.6	334.33
724.787	389.63
724.974	483.83
725.161	352.76
725.347	264.7
725.534	395.77
725.72	354.81
725.907	467.45
726.094	367.1
726.28	324.09
726.467	356.86
726.653	279.04
726.84	428.54
727.027	471.54
727.213	379.39
727.4	301.56
727.586	436.73
727.773	383.48
727.959	311.8
728.145	387.58
728.332	334.33
728.518	342.52
728.705	387.58
728.891	502.26
729.077	346.62
729.264	266.75
729.45	350.71
729.636	444.92
729.823	379.39
730.009	317.95
730.195	406.01
730.382	477.69
730.568	311.8
730.754	416.25
730.94	387.58
731.126	383.48
731.313	461.3
731.499	430.59
731.685	446.97
731.871	383.48
732.057	330.23
732.243	412.15
732.429	293.37
732.615	453.11
732.801	375.29
732.987	375.29
733.173	340.47
733.359	389.63
733.545	375.29
733.731	350.71
733.917	453.11
734.103	422.39
734.289	403.96
734.475	371.19
734.661	637.43
734.847	430.59
735.033	436.73
735.219	457.21
735.404	320
735.59	365.05
735.776	408.06
735.962	463.35
736.148	434.68
736.333	432.63
736.519	469.5
736.705	412.15
736.89	430.59
737.076	473.59
737.262	383.48
737.447	399.87
737.633	410.11
737.819	397.82
738.004	481.78
738.19	399.87
738.375	426.49
738.561	483.83
738.747	338.43
738.932	346.62
739.118	504.31
739.303	453.11
739.489	418.3
739.674	313.85
739.859	324.09
740.045	418.3
740.23	428.54
740.416	266.75
740.601	463.35
740.786	430.59
740.972	334.33
741.157	432.63
741.342	340.47
741.528	293.37
741.713	385.53
741.898	354.81
742.084	354.81
742.269	358.91
742.454	416.25
742.639	444.92
742.824	356.86
743.01	563.7
743.195	547.32
743.38	412.15
743.565	416.25
743.75	367.1
743.935	479.74
744.12	518.65
744.305	324.09
744.49	387.58
744.675	350.71
744.86	369.15
745.045	303.61
745.23	406.01
745.415	395.77
745.6	463.35
745.785	446.97
745.97	436.73
746.155	403.96
746.34	477.69
746.525	389.63
746.71	420.35
746.895	358.91
747.079	195.07
747.264	309.76
747.449	322.04
747.634	420.35
747.819	317.95
748.003	363
748.188	324.09
748.373	399.87
748.557	354.81
748.742	363
748.927	283.13
749.111	307.71
749.296	408.06
749.481	301.56
749.665	408.06
749.85	360.95
750.034	313.85
750.219	354.81
750.404	326.14
750.588	322.04
750.773	260.6
750.957	281.08
751.141	301.56
751.326	348.67
751.51	272.89
751.695	317.95
751.879	266.75
752.064	350.71
752.248	350.71
752.432	383.48
752.617	350.71
752.801	268.8
752.985	268.8
753.17	375.29
753.354	285.18
753.538	281.08
753.722	231.93
753.907	211.45
754.091	233.98
754.275	350.71
754.459	297.47
754.643	219.64
754.828	291.32
755.012	299.52
755.196	164.35
755.38	289.28
755.564	236.03
755.748	322.04
755.932	332.28
756.116	279.04
756.3	369.15
756.484	260.6
756.668	281.08
756.852	270.84
757.036	240.12
757.22	291.32
757.404	266.75
757.588	219.64
757.772	285.18
757.956	276.99
758.14	309.76
758.323	147.97
758.507	346.62
758.691	215.55
758.875	238.08
759.059	340.47
759.242	180.73
759.426	201.21
759.61	242.17
759.794	178.69
759.977	266.75
760.161	317.95
760.345	338.43
760.528	305.66
760.712	195.07
760.895	188.93
761.079	184.83
761.263	168.45
761.446	176.64
761.63	133.63
761.813	285.18
761.997	70.14
762.18	170.49
762.364	256.51
762.547	59.9
762.731	143.87
762.914	158.21
763.098	127.49
763.281	211.45
763.464	92.67
763.648	233.98
763.831	137.73
764.015	102.91
764.198	238.08
764.381	207.36
764.564	145.92
764.748	215.55
764.931	141.82
765.114	156.16
765.297	291.32
765.481	72.19
765.664	107.01
765.847	193.02
766.03	215.55
766.213	113.15
766.397	195.07
766.58	127.49
766.763	260.6
766.946	195.07
767.129	109.05
767.312	154.11
767.495	158.21
767.678	121.34
767.861	160.25
768.044	158.21
768.227	107.01
768.41	162.3
768.593	143.87
768.776	193.02
768.959	113.15
769.142	276.99
769.324	96.77
769.507	166.4
769.69	154.11
769.873	92.67
770.056	213.5
770.239	129.53
770.421	217.6
770.604	78.33
770.787	268.8
770.97	68.09
771.152	139.77
771.335	236.03
771.518	55.81
771.7	242.17
771.883	203.26
772.066	152.06
772.248	180.73
772.431	182.78
772.613	113.15
772.796	121.34
772.978	96.77
773.161	238.08
773.343	154.11
773.526	92.67
773.708	-13.82
773.891	33.28
774.073	86.53
774.256	109.05
774.438	227.84
774.621	162.3
774.803	156.16
774.985	88.57
775.168	129.53
775.35	72.19
775.532	39.42
775.715	143.87
775.897	150.01
776.079	109.05
776.261	74.24
776.444	125.44
776.626	72.19
776.808	107.01
776.99	10.75
777.173	129.53
777.355	125.44
777.537	76.29
777.719	80.38
777.901	27.14
778.083	61.95
778.265	18.94
778.447	203.26
778.629	-7.68
778.811	86.53
778.993	94.72
779.175	143.87
779.357	107.01
779.539	84.48
779.721	109.05
779.903	195.07
780.085	94.72
780.267	39.42
780.449	96.77
780.631	121.34
780.812	121.34
780.994	92.67
781.176	98.81
781.358	100.86
781.54	76.29
781.721	102.91
781.903	125.44
782.085	-7.68
782.267	117.25
782.448	61.95
782.63	61.95
782.812	61.95
782.993	121.34
783.175	33.28
783.357	23.04
783.538	74.24
783.72	2.56
783.901	78.33
784.083	123.39
784.264	98.81
784.446	-28.16
784.627	39.42
784.809	104.96
784.99	76.29
785.172	107.01
785.353	117.25
785.535	98.81
785.716	2.56
785.897	70.14
786.079	-46.59
786.26	51.71
786.441	84.48
786.623	14.85
786.804	59.9
786.985	-9.73
787.167	166.4
787.348	121.34
787.529	18.94
787.71	190.97
787.891	78.33
788.073	92.67
788.254	18.94
788.435	215.55
788.616	64
788.797	-62.98
788.978	43.52
789.159	-34.3
789.34	109.05
789.522	61.95
789.703	143.87
789.884	51.71
790.065	20.99
790.246	231.93
790.427	41.47
790.607	115.2
790.788	92.67
790.969	53.76
791.15	-11.78
791.331	-1.54
791.512	51.71
791.693	-17.92
791.874	47.62
792.054	113.15
792.235	117.25
792.416	-26.11
792.597	-32.26
792.778	66.05
792.958	70.14
793.139	102.91
793.32	92.67
793.5	-34.3
793.681	141.82
793.862	127.49
794.042	47.62
794.223	-56.83
794.404	20.99
794.584	4.61
794.765	-9.73
794.945	-24.06
795.126	123.39
795.306	39.42
795.487	4.61
795.667	45.57
795.848	35.33
796.028	2.56
796.209	8.7
796.389	86.53
796.57	10.75
796.75	-5.63
796.93	76.29
797.111	-67.07
797.291	72.19
797.471	45.57
797.652	37.38
797.832	-1.54
798.012	55.81
798.192	6.66
798.373	-28.16
798.553	-13.82
798.733	-28.16
798.913	23.04
799.093	23.04
799.274	80.38
799.454	59.9
799.634	64
799.814	74.24
799.994	145.92
800.174	121.34
800.354	0.51
800.534	-71.17
800.714	27.14
800.894	-77.31
801.074	-60.93
801.254	16.9
801.434	94.72
801.614	-11.78
801.794	-103.93
801.974	1370.6
802.154	-9.73
802.334	16.9
802.514	-83.45
802.693	-1.54
802.873	35.33
803.053	131.58
803.233	-3.58
803.413	27.14
803.592	-28.16
803.772	-38.4
803.952	72.19
804.131	-9.73
804.311	53.76
804.491	47.62
804.67	-22.02
804.85	18.94
805.03	96.77
805.209	127.49
805.389	41.47
805.568	-30.21
805.748	20.99
805.928	37.38
806.107	10.75
806.287	84.48
806.466	29.18
806.646	-5.63
806.825	-42.5
807.004	-26.11
807.184	66.05
807.363	80.38
807.543	31.23
807.722	47.62
807.901	70.14
808.081	104.96
808.26	-116.22
808.439	27.14
808.619	18.94
808.798	6.66
808.977	-1.54
809.156	111.1
809.336	14.85
809.515	55.81
809.694	-13.82
809.873	-126.46
810.052	55.81
810.231	166.4
810.411	2.56
810.59	23.04
810.769	-28.16
810.948	98.81
811.127	18.94
811.306	-32.26
811.485	-50.69
811.664	176.64
811.843	45.57
812.022	6.66
812.201	-30.21
812.38	37.38
812.559	-60.93
812.737	43.52
812.916	-75.26
813.095	2.56
813.274	47.62
813.453	-38.4
813.632	-26.11
813.811	145.92
813.989	-71.17
814.168	43.52
814.347	-71.17
814.526	2.56
814.704	47.62
814.883	31.23
815.062	-9.73
815.24	45.57
815.419	27.14
815.598	59.9
815.776	-73.21
815.955	-91.65
816.133	-58.88
816.312	-54.78
816.49	-15.87
816.669	80.38
816.847	14.85
817.026	-17.92
817.204	6.66
817.383	59.9
817.561	23.04
817.74	16.9
817.918	20.99
818.097	-32.26
818.275	76.29
818.453	113.15
818.632	31.23
818.81	-22.02
818.988	-32.26
819.167	-40.45
819.345	-52.74
819.523	12.8
819.701	39.42
819.879	-34.3
820.058	18.94
820.236	84.48
820.414	10.75
820.592	8.7
820.77	14.85
820.948	-67.07
821.127	-9.73
821.305	55.81
821.483	-36.35
821.661	57.86
821.839	-93.69
822.017	-15.87
822.195	20.99
822.373	55.81
822.551	-7.68
822.729	-9.73
822.907	6.66
823.085	49.66
823.262	29.18
823.44	-17.92
823.618	-3.58
823.796	-34.3
823.974	-54.78
824.152	-38.4
824.329	35.33
824.507	10.75
824.685	72.19
824.863	-26.11
825.04	-40.45
825.218	6.66
825.396	35.33
825.574	47.62
825.751	-17.92
825.929	76.29
826.107	-9.73
826.284	6.66
826.462	-5.63
826.639	31.23
826.817	-130.56
826.994	78.33
827.172	-30.21
827.349	113.15
827.527	20.99
827.704	70.14
827.882	16.9
828.059	35.33
828.237	-17.92
828.414	27.14
828.591	-28.16
828.769	14.85
828.946	-42.5
829.124	0.51
829.301	-1.54
829.478	-15.87
829.655	33.28
829.833	14.85
830.01	-108.03
830.187	23.04
830.364	-3.58
830.542	-13.82
830.719	113.15
830.896	-1.54
831.073	-1.54
831.25	92.67
831.427	23.04
831.604	-54.78
831.782	-44.54
831.959	43.52
832.136	2.56
832.313	92.67
832.49	14.85
832.667	27.14
832.844	-48.64
833.021	31.23
833.198	29.18
833.374	-28.16
833.551	55.81
833.728	-17.92
833.905	27.14
834.082	-91.65
834.259	-38.4
834.436	104.96
834.612	-44.54
834.789	55.81
834.966	-3.58
835.143	53.76
835.319	-60.93
835.496	72.19
835.673	39.42
835.85	76.29
836.026	113.15
836.203	55.81
836.38	-13.82
836.556	-54.78
836.733	-17.92
836.909	137.73
837.086	-28.16
837.262	-50.69
837.439	-1.54
837.616	-62.98
837.792	-17.92
837.968	-42.5
838.145	-69.12
838.321	8.7
838.498	-5.63
838.674	43.52
838.851	49.66
839.027	-28.16
839.203	-36.35
839.38	10.75
839.556	-19.97
839.732	94.72
839.909	23.04
840.085	16.9
840.261	-9.73
840.437	29.18
840.614	-5.63
840.79	47.62
840.966	72.19
841.142	-44.54
841.318	-75.26
841.494	53.76
841.671	72.19
841.847	-9.73
842.023	-5.63
842.199	135.68
842.375	102.91
842.551	-161.28
842.727	-62.98
842.903	129.53
843.079	-52.74
843.255	23.04
843.431	-52.74
843.607	49.66
843.783	-124.41
843.959	20.99
844.134	-19.97
844.31	51.71
844.486	-91.65
844.662	8.7
844.838	-71.17
845.013	10.75
845.189	37.38
845.365	61.95
845.541	12.8
845.716	66.05
845.892	10.75
846.068	0.51
846.244	-17.92
846.419	-28.16
846.595	-110.08
846.77	-42.5
846.946	123.39
847.122	-42.5
847.297	-30.21
847.473	117.25
847.648	-116.22
847.824	14.85
847.999	-32.26
848.175	-26.11
848.35	27.14
848.526	121.34
848.701	25.09
848.876	55.81
849.052	113.15
849.227	-3.58
849.403	-36.35
849.578	-79.36
849.753	-17.92
849.929	80.38
850.104	-60.93
850.279	107.01
850.454	61.95
850.63	23.04
850.805	-40.45
850.98	23.04
851.155	-56.83
851.33	0.51
851.505	-30.21
851.681	92.67
851.856	-50.69
852.031	29.18
852.206	55.81
852.381	-67.07
852.556	-42.5
852.731	-32.26
852.906	86.53
853.081	-50.69
853.256	100.86
853.431	-60.93
853.606	29.18
853.781	-95.74
853.956	-108.03
854.131	-69.12
854.305	-7.68
854.48	-19.97
854.655	-34.3
854.83	-40.45
855.005	-42.5
855.18	117.25
855.354	-42.5
855.529	12.8
855.704	-3.58
855.879	12.8
856.053	-67.07
856.228	-17.92
856.403	-69.12
856.577	-15.87
856.752	-40.45
856.926	-34.3
857.101	68.09
857.276	-79.36
857.45	29.18
857.625	104.96
857.799	25.09
857.974	-17.92
858.148	-120.32
858.323	-17.92
858.497	-9.73
858.672	-42.5
858.846	-42.5
859.02	25.09
859.195	-60.93
859.369	6.66
859.543	74.24
859.718	-48.64
859.892	25.09
860.066	-11.78
860.241	-17.92
860.415	33.28
860.589	14.85
860.763	14.85
860.938	-75.26
861.112	31.23
861.286	-69.12
861.46	80.38
861.634	-1.54
861.808	18.94
861.982	-93.69
862.157	-36.35
862.331	-87.55
862.505	-56.83
862.679	-62.98
862.853	-122.37
863.027	-46.59
863.201	88.57
863.375	-91.65
863.549	-34.3
863.722	45.57
863.896	37.38
864.07	-83.45
864.244	-54.78
864.418	6.66
864.592	-3.58
864.766	55.81
864.939	14.85
865.113	-30.21
865.287	-38.4
865.461	-58.88
865.634	-65.02
865.808	-52.74
865.982	-24.06
866.156	-128.51
866.329	-77.31
866.503	-62.98
866.676	70.14
866.85	2.56
867.024	2.56
867.197	16.9
867.371	-42.5
867.544	31.23
867.718	-69.12
867.891	115.2
868.065	-87.55
868.238	-9.73
868.412	16.9
868.585	-7.68
868.759	-3.58
868.932	-34.3
869.105	-83.45
869.279	55.81
869.452	-79.36
869.625	45.57
869.799	-44.54
869.972	-85.5
870.145	-58.88
870.319	55.81
870.492	-99.84
870.665	35.33
870.838	-44.54
871.011	-85.5
871.185	-56.83
871.358	-34.3
871.531	78.33
871.704	-110.08
871.877	61.95
872.05	-19.97
872.223	-140.8
872.396	61.95
872.569	-50.69
872.742	-103.93
872.915	2.56
873.088	-38.4
873.261	-7.68
873.434	80.38
873.607	-5.63
873.78	55.81
873.953	-79.36
874.126	23.04
874.299	10.75
874.471	-71.17
874.644	27.14
874.817	14.85
874.99	121.34
875.163	41.47
875.335	-42.5
875.508	-30.21
875.681	72.19
875.853	25.09
876.026	-95.74
876.199	47.62
876.371	-19.97
876.544	-87.55
876.717	-67.07
876.889	-34.3
877.062	6.66
877.234	-56.83
877.407	-22.02
877.579	-56.83
877.752	66.05
877.924	14.85
878.097	-69.12
878.269	-69.12
878.442	12.8
878.614	64
878.786	-26.11
878.959	-11.78
879.131	31.23
879.303	-69.12
879.476	-81.41
879.648	-67.07
879.82	74.24
879.993	-5.63
880.165	-62.98
880.337	-52.74
880.509	45.57
880.681	-50.69
880.854	-36.35
881.026	12.8
881.198	104.96
881.37	-26.11
881.542	8.7
881.714	-60.93
881.886	6.66
882.058	16.9
882.23	-11.78
882.402	-52.74
882.574	-46.59
882.746	-17.92
882.918	96.77
883.09	-38.4
883.262	-46.59
883.434	-19.97
883.606	-87.55
883.778	-1.54
883.95	55.81
884.122	23.04
884.293	14.85
884.465	-9.73
884.637	14.85
884.809	-69.12
884.98	-30.21
885.152	27.14
885.324	35.33
885.496	-1.54
885.667	-75.26
885.839	33.28
886.011	45.57
886.182	18.94
886.354	-32.26
886.525	-26.11
886.697	-26.11
886.869	-46.59
887.04	-1.54
887.212	109.05
887.383	125.44
887.555	29.18
887.726	-60.93
887.897	-65.02
888.069	-17.92
888.24	55.81
888.412	14.85
888.583	12.8
888.754	-75.26
888.926	-157.18
889.097	-110.08
889.268	-69.12
889.44	4.61
889.611	-105.98
889.782	-24.06
889.953	-5.63
890.125	31.23
890.296	-58.88
890.467	-58.88
890.638	-77.31
890.809	-36.35
890.98	-3.58
891.151	16.9
891.323	96.77
891.494	-73.21
891.665	12.8
891.836	-1.54
892.007	-69.12
892.178	18.94
892.349	14.85
892.52	-140.8
892.691	-7.68
892.862	4.61
893.032	-60.93
893.203	-50.69
893.374	25.09
893.545	84.48
893.716	-73.21
893.887	92.67
894.057	-85.5
894.228	-52.74
894.399	-3.58
894.57	88.57
894.74	-136.7
894.911	-1.54
895.082	-52.74
895.253	-56.83
895.423	-34.3
895.594	115.2
895.764	53.76
895.935	-87.55
896.106	-48.64
896.276	-26.11
896.447	20.99
896.617	-50.69
896.788	-83.45
896.958	-83.45
897.129	-58.88
897.299	-110.08
897.47	8.7
897.64	-3.58
897.81	-91.65
897.981	-22.02
898.151	0.51
898.322	-67.07
898.492	43.52
898.662	-110.08
898.832	-17.92
899.003	-69.12
899.173	29.18
899.343	-56.83
899.513	-83.45
