Data from USB4F104151__111__10-36-20-623.txt Node

Date: Wed Feb 26 10:36:20 EST 2025
User: louis
Spectrometer: USB4F10415
Trigger mode: 4
Integration Time (sec): 1.000000E-1
Scans to average: 1
Electric dark correction enabled: true
Nonlinearity correction enabled: false
Boxcar width: 0
XAxis mode: Wavelengths
Number of Pixels in Spectrum: 3648
>>>>>Begin Spectral Data<<<<<
178.204	-392.02
178.424	-392.02
178.644	-392.02
178.864	-392.02
179.084	-410.45
179.304	-90.96
179.524	-19.29
179.744	36.01
179.964	60.59
180.184	91.31
180.404	56.49
180.624	-88.92
180.844	-43.86
181.064	-4.95
181.283	54.44
181.503	-80.72
181.723	29.87
181.943	-45.91
182.163	234.66
182.383	-17.24
182.602	7.34
182.822	226.47
183.042	52.39
183.262	-2.9
183.482	-41.81
183.701	46.25
183.921	103.59
184.141	-13.14
184.361	58.54
184.58	52.39
184.8	136.36
185.02	13.48
185.239	74.92
185.459	117.93
185.679	160.94
185.898	-84.82
186.118	15.53
186.338	-47.96
186.557	103.59
186.777	-78.68
186.997	-0.85
187.216	42.15
187.436	185.51
187.655	87.21
187.875	146.6
188.095	29.87
188.314	169.13
188.534	154.79
188.753	-82.77
188.973	154.79
189.192	119.98
189.412	42.15
189.631	-39.76
189.851	9.39
190.07	191.66
190.29	-80.72
190.509	-41.81
190.729	89.26
190.948	173.22
191.168	234.66
191.387	126.12
191.607	42.15
191.826	107.69
192.045	50.35
192.265	21.67
192.484	83.11
192.704	91.31
192.923	-64.34
193.142	152.74
193.362	42.15
193.581	136.36
193.8	128.17
194.02	156.84
194.239	64.68
194.458	38.06
194.678	126.12
194.897	-11.09
195.116	42.15
195.335	19.63
195.555	76.97
195.774	-15.19
195.993	171.18
196.212	79.02
196.432	38.06
196.651	72.87
196.87	68.78
197.089	197.8
197.308	31.91
197.528	42.15
197.747	5.29
197.966	81.07
198.185	150.7
198.404	-31.57
198.623	25.77
198.842	87.21
199.062	105.64
199.281	134.31
199.5	-19.29
199.719	46.25
199.938	64.68
200.157	95.4
200.376	105.64
200.595	64.68
200.814	7.34
201.033	-11.09
201.252	185.51
201.471	93.35
201.69	23.72
201.909	13.48
202.128	62.63
202.347	19.63
202.566	7.34
202.785	-113.49
203.004	23.72
203.223	267.43
203.442	15.53
203.661	-27.48
203.879	52.39
204.098	109.74
204.317	11.43
204.536	87.21
204.755	158.89
204.974	81.07
205.193	-9.05
205.411	132.26
205.63	54.44
205.849	23.72
206.068	-7
206.287	-21.33
206.505	85.16
206.724	44.2
206.943	-7
207.162	-4.95
207.381	115.88
207.599	40.11
207.818	1.19
208.037	15.53
208.255	50.35
208.474	38.06
208.693	25.77
208.911	40.11
209.13	76.97
209.349	1.19
209.567	74.92
209.786	29.87
210.005	87.21
210.223	33.96
210.442	-113.49
210.661	-2.9
210.879	72.87
211.098	31.91
211.316	1.19
211.535	44.2
211.753	58.54
211.972	36.01
212.191	54.44
212.409	-74.58
212.628	52.39
212.846	-25.43
213.065	72.87
213.283	109.74
213.502	-7
213.72	68.78
213.938	74.92
214.157	3.24
214.375	91.31
214.594	25.77
214.812	101.55
215.031	-50
215.249	48.3
215.467	46.25
215.686	72.87
215.904	60.59
216.122	11.43
216.341	185.51
216.559	64.68
216.778	60.59
216.996	132.26
217.214	44.2
217.432	-13.14
217.651	-54.1
217.869	81.07
218.087	76.97
218.306	-33.62
218.524	115.88
218.742	36.01
218.96	179.37
219.179	-29.52
219.397	11.43
219.615	273.57
219.833	132.26
220.051	-90.96
220.27	70.83
220.488	187.56
220.706	42.15
220.924	-78.68
221.142	42.15
221.36	70.83
221.578	74.92
221.796	-4.95
222.015	91.31
222.233	31.91
222.451	189.61
222.669	23.72
222.887	128.17
223.105	48.3
223.323	70.83
223.541	-35.67
223.759	42.15
223.977	46.25
224.195	158.89
224.413	85.16
224.631	23.72
224.849	52.39
225.067	238.76
225.285	25.77
225.503	81.07
225.721	-158.55
225.939	46.25
226.157	130.22
226.375	195.75
226.592	17.58
226.81	46.25
227.028	79.02
227.246	158.89
227.464	50.35
227.682	62.63
227.9	1.19
228.117	87.21
228.335	46.25
228.553	74.92
228.771	11.43
228.989	1.19
229.206	52.39
229.424	-17.24
229.642	-31.57
229.86	38.06
230.077	142.5
230.295	33.96
230.513	103.59
230.731	89.26
230.948	267.43
231.166	140.46
231.384	-11.09
231.601	42.15
231.819	162.98
232.037	25.77
232.254	-88.92
232.472	48.3
232.689	5.29
232.907	105.64
233.125	52.39
233.342	29.87
233.56	5.29
233.777	25.77
233.995	66.73
234.213	76.97
234.43	76.97
234.648	-0.85
234.865	36.01
235.083	66.73
235.3	81.07
235.518	97.45
235.735	66.73
235.953	89.26
236.17	113.83
236.388	15.53
236.605	15.53
236.822	74.92
237.04	70.83
237.257	27.82
237.475	-82.77
237.692	36.01
237.909	56.49
238.127	58.54
238.344	122.02
238.562	66.73
238.779	11.43
238.996	-11.09
239.214	70.83
239.431	93.35
239.648	-23.38
239.865	60.59
240.083	162.98
240.3	-41.81
240.517	54.44
240.735	-0.85
240.952	195.75
241.169	-7
241.386	66.73
241.603	19.63
241.821	-80.72
242.038	66.73
242.255	138.41
242.472	-70.48
242.689	93.35
242.907	62.63
243.124	48.3
243.341	-11.09
243.558	-45.91
243.775	-50
243.992	-58.2
244.209	115.88
244.426	95.4
244.643	79.02
244.86	-9.05
245.078	76.97
245.295	83.11
245.512	44.2
245.729	-23.38
245.946	124.07
246.163	33.96
246.38	33.96
246.597	13.48
246.814	17.58
247.031	85.16
247.248	72.87
247.464	93.35
247.681	21.67
247.898	64.68
248.115	33.96
248.332	5.29
248.549	132.26
248.766	189.61
248.983	79.02
249.2	72.87
249.417	36.01
249.633	33.96
249.85	140.46
250.067	1.19
250.284	70.83
250.501	134.31
250.717	109.74
250.934	-31.57
251.151	42.15
251.368	9.39
251.585	74.92
251.801	23.72
252.018	-29.52
252.235	52.39
252.451	-103.25
252.668	-64.34
252.885	122.02
253.102	25.77
253.318	-80.72
253.535	38.06
253.752	11.43
253.968	-78.68
254.185	-62.29
254.401	152.74
254.618	76.97
254.835	1.19
255.051	177.32
255.268	83.11
255.484	40.11
255.701	79.02
255.917	62.63
256.134	54.44
256.351	7.34
256.567	-66.39
256.784	-17.24
257	-39.76
257.217	140.46
257.433	134.31
257.65	52.39
257.866	181.42
258.082	11.43
258.299	-15.19
258.515	-21.33
258.732	99.5
258.948	1.19
259.165	52.39
259.381	-64.34
259.597	99.5
259.814	5.29
260.03	-45.91
260.246	89.26
260.463	58.54
260.679	113.83
260.895	46.25
261.112	62.63
261.328	52.39
261.544	-7
261.761	142.5
261.977	1.19
262.193	36.01
262.409	74.92
262.626	17.58
262.842	29.87
263.058	15.53
263.274	107.69
263.49	79.02
263.707	50.35
263.923	52.39
264.139	-31.57
264.355	79.02
264.571	136.36
264.787	72.87
265.004	160.94
265.22	25.77
265.436	17.58
265.652	42.15
265.868	107.69
266.084	-82.77
266.3	42.15
266.516	-23.38
266.732	81.07
266.948	83.11
267.164	36.01
267.38	87.21
267.596	115.88
267.812	162.98
268.028	40.11
268.244	85.16
268.46	64.68
268.676	-37.72
268.892	11.43
269.108	13.48
269.324	-9.05
269.54	27.82
269.756	48.3
269.972	-25.43
270.188	19.63
270.403	-7
270.619	-29.52
270.835	33.96
271.051	76.97
271.267	25.77
271.483	33.96
271.698	128.17
271.914	107.69
272.13	79.02
272.346	-0.85
272.562	60.59
272.777	130.22
272.993	83.11
273.209	-43.86
273.425	115.88
273.64	-21.33
273.856	83.11
274.072	-43.86
274.287	19.63
274.503	162.98
274.719	109.74
274.934	-37.72
275.15	-50
275.366	19.63
275.581	-27.48
275.797	40.11
276.012	79.02
276.228	40.11
276.444	29.87
276.659	128.17
276.875	17.58
277.09	-2.9
277.306	68.78
277.521	19.63
277.737	-15.19
277.952	62.63
278.168	101.55
278.383	1.19
278.599	38.06
278.814	140.46
279.03	68.78
279.245	138.41
279.461	-23.38
279.676	97.45
279.892	-86.87
280.107	-74.58
280.322	21.67
280.538	79.02
280.753	-25.43
280.969	70.83
281.184	40.11
281.399	44.2
281.615	27.82
281.83	-41.81
282.045	-33.62
282.26	-78.68
282.476	25.77
282.691	111.78
282.906	148.65
283.122	85.16
283.337	-50
283.552	60.59
283.767	7.34
283.983	38.06
284.198	1.19
284.413	97.45
284.628	-41.81
284.843	52.39
285.058	7.34
285.274	-21.33
285.489	-58.2
285.704	50.35
285.919	17.58
286.134	99.5
286.349	70.83
286.564	9.39
286.779	117.93
286.995	21.67
287.21	-11.09
287.425	89.26
287.64	-17.24
287.855	1.19
288.07	-13.14
288.285	136.36
288.5	122.02
288.715	105.64
288.93	29.87
289.145	9.39
289.36	126.12
289.575	33.96
289.79	134.31
290.004	13.48
290.219	52.39
290.434	21.67
290.649	-23.38
290.864	-15.19
291.079	38.06
291.294	38.06
291.509	44.2
291.724	-54.1
291.938	-15.19
292.153	17.58
292.368	56.49
292.583	70.83
292.798	175.27
293.012	62.63
293.227	62.63
293.442	-11.09
293.657	79.02
293.871	85.16
294.086	62.63
294.301	138.41
294.516	119.98
294.73	7.34
294.945	5.29
295.16	21.67
295.374	128.17
295.589	76.97
295.804	-19.29
296.018	62.63
296.233	115.88
296.447	66.73
296.662	13.48
296.877	167.08
297.091	-19.29
297.306	29.87
297.52	36.01
297.735	70.83
297.949	48.3
298.164	68.78
298.378	23.72
298.593	3.24
298.807	3.24
299.022	83.11
299.236	214.18
299.451	13.48
299.665	64.68
299.88	25.77
300.094	74.92
300.309	-31.57
300.523	93.35
300.737	81.07
300.952	48.3
301.166	29.87
301.381	-56.15
301.595	7.34
301.809	87.21
302.024	3.24
302.238	9.39
302.452	160.94
302.667	23.72
302.881	156.84
303.095	42.15
303.309	21.67
303.524	46.25
303.738	74.92
303.952	7.34
304.166	87.21
304.381	-19.29
304.595	128.17
304.809	-31.57
305.023	64.68
305.237	5.29
305.452	3.24
305.666	87.21
305.88	97.45
306.094	87.21
306.308	83.11
306.522	115.88
306.736	124.07
306.95	40.11
307.164	99.5
307.379	13.48
307.593	152.74
307.807	191.66
308.021	99.5
308.235	70.83
308.449	-66.39
308.663	-31.57
308.877	177.32
309.091	36.01
309.305	70.83
309.519	-142.16
309.733	107.69
309.947	3.24
310.161	113.83
310.374	81.07
310.588	126.12
310.802	-70.48
311.016	23.72
311.23	136.36
311.444	-76.63
311.658	70.83
311.872	179.37
312.085	66.73
312.299	185.51
312.513	54.44
312.727	29.87
312.941	-80.72
313.154	87.21
313.368	56.49
313.582	21.67
313.796	99.5
314.009	-45.91
314.223	111.78
314.437	15.53
314.651	173.22
314.864	79.02
315.078	54.44
315.292	-62.29
315.505	-52.05
315.719	107.69
315.933	66.73
316.146	-19.29
316.36	-25.43
316.573	109.74
316.787	128.17
317.001	103.59
317.214	11.43
317.428	21.67
317.641	-25.43
317.855	-13.14
318.068	93.35
318.282	40.11
318.495	132.26
318.709	52.39
318.922	15.53
319.136	126.12
319.349	-27.48
319.563	-43.86
319.776	42.15
319.99	-27.48
320.203	97.45
320.417	70.83
320.63	144.55
320.843	70.83
321.057	15.53
321.27	23.72
321.483	160.94
321.697	113.83
321.91	95.4
322.124	19.63
322.337	52.39
322.55	3.24
322.763	64.68
322.977	38.06
323.19	-13.14
323.403	68.78
323.617	40.11
323.83	81.07
324.043	95.4
324.256	23.72
324.469	-0.85
324.683	44.2
324.896	-19.29
325.109	23.72
325.322	-74.58
325.535	99.5
325.748	15.53
325.962	-23.38
326.175	44.2
326.388	11.43
326.601	148.65
326.814	99.5
327.027	132.26
327.24	126.12
327.453	-35.67
327.666	79.02
327.879	140.46
328.092	76.97
328.305	72.87
328.518	21.67
328.731	48.3
328.944	21.67
329.157	31.91
329.37	33.96
329.583	105.64
329.796	62.63
330.009	-15.19
330.222	117.93
330.435	128.17
330.648	36.01
330.861	76.97
331.073	85.16
331.286	79.02
331.499	91.31
331.712	-54.1
331.925	74.92
332.138	19.63
332.35	19.63
332.563	-82.77
332.776	119.98
332.989	-29.52
333.202	36.01
333.414	13.48
333.627	48.3
333.84	52.39
334.053	33.96
334.265	-2.9
334.478	17.58
334.691	11.43
334.903	93.35
335.116	-68.44
335.329	33.96
335.541	58.54
335.754	205.99
335.966	-37.72
336.179	31.91
336.392	27.82
336.604	23.72
336.817	60.59
337.029	40.11
337.242	5.29
337.454	134.31
337.667	31.91
337.88	128.17
338.092	-23.38
338.305	64.68
338.517	46.25
338.729	173.22
338.942	111.78
339.154	-25.43
339.367	-35.67
339.579	64.68
339.792	-15.19
340.004	9.39
340.217	40.11
340.429	13.48
340.641	-2.9
340.854	27.82
341.066	74.92
341.278	148.65
341.491	230.57
341.703	21.67
341.915	56.49
342.128	142.5
342.34	-2.9
342.552	-4.95
342.764	70.83
342.977	83.11
343.189	87.21
343.401	29.87
343.613	-45.91
343.826	-7
344.038	-33.62
344.25	52.39
344.462	-29.52
344.674	31.91
344.886	87.21
345.099	23.72
345.311	52.39
345.523	62.63
345.735	-17.24
345.947	31.91
346.159	-4.95
346.371	27.82
346.583	48.3
346.795	160.94
347.007	-62.29
347.219	62.63
347.431	5.29
347.643	158.89
347.855	23.72
348.067	81.07
348.279	-76.63
348.491	93.35
348.703	27.82
348.915	46.25
349.127	-56.15
349.339	33.96
349.551	38.06
349.763	103.59
349.975	48.3
350.187	70.83
350.399	107.69
350.61	109.74
350.822	-33.62
351.034	27.82
351.246	97.45
351.458	66.73
351.669	52.39
351.881	62.63
352.093	72.87
352.305	128.17
352.517	15.53
352.728	144.55
352.94	25.77
353.152	119.98
353.363	-101.2
353.575	5.29
353.787	156.84
353.999	130.22
354.21	89.26
354.422	-72.53
354.633	54.44
354.845	62.63
355.057	17.58
355.268	60.59
355.48	38.06
355.692	46.25
355.903	58.54
356.115	-35.67
356.326	15.53
356.538	99.5
356.749	54.44
356.961	128.17
357.172	40.11
357.384	23.72
357.595	273.57
357.807	-21.33
358.018	-33.62
358.23	27.82
358.441	173.22
358.653	38.06
358.864	70.83
359.075	-9.05
359.287	31.91
359.498	97.45
359.709	-19.29
359.921	25.77
360.132	115.88
360.344	19.63
360.555	66.73
360.766	44.2
360.977	87.21
361.189	138.41
361.4	-4.95
361.611	72.87
361.823	212.14
362.034	134.31
362.245	-88.92
362.456	56.49
362.667	27.82
362.879	-84.82
363.09	64.68
363.301	113.83
363.512	36.01
363.723	-35.67
363.935	21.67
364.146	99.5
364.357	38.06
364.568	103.59
364.779	-70.48
364.99	193.7
365.201	48.3
365.412	122.02
365.623	-54.1
365.834	44.2
366.045	117.93
366.256	91.31
366.467	48.3
366.678	7.34
366.889	93.35
367.1	-0.85
367.311	134.31
367.522	-50
367.733	3.24
367.944	89.26
368.155	89.26
368.366	93.35
368.577	87.21
368.788	74.92
368.999	27.82
369.209	79.02
369.42	236.71
369.631	281.77
369.842	62.63
370.053	42.15
370.264	169.13
370.474	-37.72
370.685	97.45
370.896	-19.29
371.107	193.7
371.317	33.96
371.528	-17.24
371.739	85.16
371.95	76.97
372.16	85.16
372.371	-54.1
372.582	7.34
372.792	9.39
373.003	109.74
373.214	-15.19
373.424	62.63
373.635	-72.53
373.846	109.74
374.056	74.92
374.267	11.43
374.477	83.11
374.688	-23.38
374.898	101.55
375.109	68.78
375.319	46.25
375.53	85.16
375.74	130.22
375.951	-62.29
376.161	72.87
376.372	119.98
376.582	-17.24
376.793	107.69
377.003	46.25
377.214	-50
377.424	162.98
377.635	5.29
377.845	-113.49
378.055	36.01
378.266	-47.96
378.476	7.34
378.686	54.44
378.897	44.2
379.107	122.02
379.317	83.11
379.528	38.06
379.738	91.31
379.948	-80.72
380.158	130.22
380.369	72.87
380.579	89.26
380.789	132.26
380.999	105.64
381.21	85.16
381.42	189.61
381.63	-4.95
381.84	154.79
382.05	154.79
382.261	193.7
382.471	113.83
382.681	-17.24
382.891	126.12
383.101	103.59
383.311	-93.01
383.521	29.87
383.731	130.22
383.941	93.35
384.151	38.06
384.361	38.06
384.571	107.69
384.781	95.4
384.991	183.46
385.201	185.51
385.411	140.46
385.621	81.07
385.831	33.96
386.041	25.77
386.251	52.39
386.461	173.22
386.671	38.06
386.881	54.44
387.091	-2.9
387.301	165.03
387.511	46.25
387.72	38.06
387.93	138.41
388.14	19.63
388.35	-4.95
388.56	105.64
388.769	79.02
388.979	103.59
389.189	93.35
389.399	-4.95
389.609	60.59
389.818	72.87
390.028	64.68
390.238	101.55
390.447	44.2
390.657	160.94
390.867	27.82
391.076	-60.24
391.286	93.35
391.496	46.25
391.705	83.11
391.915	148.65
392.125	58.54
392.334	-41.81
392.544	99.5
392.753	160.94
392.963	-37.72
393.172	95.4
393.382	79.02
393.591	171.18
393.801	17.58
394.01	197.8
394.22	83.11
394.429	33.96
394.639	136.36
394.848	36.01
395.058	56.49
395.267	-7
395.477	83.11
395.686	40.11
395.895	165.03
396.105	148.65
396.314	113.83
396.524	13.48
396.733	19.63
396.942	60.59
397.152	117.93
397.361	119.98
397.57	130.22
397.78	27.82
397.989	99.5
398.198	244.9
398.407	52.39
398.617	15.53
398.826	-9.05
399.035	58.54
399.244	124.07
399.453	85.16
399.663	29.87
399.872	74.92
400.081	-35.67
400.29	154.79
400.499	13.48
400.708	140.46
400.917	54.44
401.127	60.59
401.336	21.67
401.545	144.55
401.754	113.83
401.963	130.22
402.172	15.53
402.381	-35.67
402.59	42.15
402.799	19.63
403.008	1.19
403.217	97.45
403.426	122.02
403.635	-23.38
403.844	48.3
404.053	21.67
404.262	13.48
404.471	117.93
404.68	93.35
404.888	25.77
405.097	40.11
405.306	48.3
405.515	105.64
405.724	21.67
405.933	95.4
406.142	76.97
406.35	87.21
406.559	64.68
406.768	13.48
406.977	115.88
407.185	25.77
407.394	124.07
407.603	-52.05
407.812	87.21
408.02	146.6
408.229	117.93
408.438	101.55
408.646	87.21
408.855	50.35
409.064	42.15
409.272	38.06
409.481	25.77
409.69	68.78
409.898	-35.67
410.107	132.26
410.315	68.78
410.524	40.11
410.733	162.98
410.941	7.34
411.15	87.21
411.358	79.02
411.567	107.69
411.775	-13.14
411.984	50.35
412.192	79.02
412.401	42.15
412.609	124.07
412.818	83.11
413.026	54.44
413.234	-17.24
413.443	66.73
413.651	17.58
413.86	44.2
414.068	99.5
414.276	162.98
414.485	3.24
414.693	175.27
414.901	138.41
415.11	89.26
415.318	76.97
415.526	115.88
415.734	81.07
415.943	40.11
416.151	132.26
416.359	52.39
416.567	31.91
416.776	156.84
416.984	107.69
417.192	105.64
417.4	-13.14
417.608	42.15
417.817	23.72
418.025	85.16
418.233	128.17
418.441	-43.86
418.649	9.39
418.857	54.44
419.065	183.46
419.273	-66.39
419.481	79.02
419.689	27.82
419.897	23.72
420.105	-56.15
420.313	138.41
420.521	171.18
420.729	107.69
420.937	40.11
421.145	-11.09
421.353	187.56
421.561	160.94
421.769	54.44
421.977	7.34
422.185	97.45
422.393	36.01
422.601	95.4
422.809	99.5
423.017	58.54
423.224	-19.29
423.432	134.31
423.64	68.78
423.848	169.13
424.056	-11.09
424.263	132.26
424.471	36.01
424.679	113.83
424.887	-25.43
425.094	124.07
425.302	74.92
425.51	111.78
425.718	124.07
425.925	126.12
426.133	23.72
426.341	152.74
426.548	15.53
426.756	-52.05
426.964	81.07
427.171	31.91
427.379	105.64
427.586	83.11
427.794	9.39
428.001	158.89
428.209	62.63
428.417	122.02
428.624	101.55
428.832	193.7
429.039	105.64
429.247	40.11
429.454	128.17
429.662	181.42
429.869	117.93
430.076	165.03
430.284	109.74
430.491	242.85
430.699	113.83
430.906	169.13
431.114	76.97
431.321	48.3
431.528	109.74
431.736	156.84
431.943	134.31
432.15	148.65
432.358	205.99
432.565	232.62
432.772	-13.14
432.979	257.19
433.187	85.16
433.394	160.94
433.601	117.93
433.808	263.33
434.016	314.53
434.223	218.28
434.43	234.66
434.637	158.89
434.844	287.91
435.052	152.74
435.259	208.04
435.466	216.23
435.673	197.8
435.88	226.47
436.087	363.69
436.294	283.81
436.501	287.91
436.708	177.32
436.915	330.92
437.122	326.82
437.329	283.81
437.537	365.73
437.743	341.16
437.95	425.12
438.157	326.82
438.364	316.58
438.571	339.11
438.778	392.36
438.985	373.92
439.192	427.17
439.399	449.7
439.606	548
439.813	447.65
440.02	521.38
440.227	705.7
440.433	543.91
440.64	543.91
440.847	386.21
441.054	476.32
441.261	689.31
441.467	490.66
441.674	486.56
441.881	601.25
442.088	521.38
442.294	681.12
442.501	730.27
442.708	795.81
442.914	736.42
443.121	773.28
443.328	732.32
443.534	873.63
443.741	859.29
443.948	779.42
444.154	818.33
444.361	986.27
444.568	1016.99
444.774	986.27
444.981	789.66
445.187	1057.95
445.394	1021.08
445.6	1031.32
445.807	1176.73
446.013	1219.74
446.22	1094.81
446.426	1299.61
446.633	1416.34
446.839	1440.92
447.046	1295.51
447.252	1459.35
447.459	1324.18
447.665	1516.69
447.871	1582.23
448.078	1787.02
448.284	1754.26
448.491	1856.65
448.697	1819.79
448.903	1821.84
449.11	2034.83
449.316	1959.05
449.522	2178.19
449.728	2169.99
449.935	2266.25
450.141	2321.54
450.347	2438.28
450.553	2419.85
450.76	2397.32
450.966	2671.75
451.172	2647.17
451.378	2958.46
451.584	2864.25
451.791	3073.15
451.997	3120.25
452.203	3165.31
452.409	3400.82
452.615	3558.52
452.821	3329.14
453.027	3388.53
453.233	3918.96
453.44	3828.85
453.646	3824.75
453.852	4097.13
454.058	4111.47
454.264	4373.61
454.47	4793.44
454.676	4785.25
454.882	5186.65
455.088	4850.78
455.294	5272.67
455.5	5530.71
455.705	5882.96
455.911	5856.34
456.117	6184.01
456.323	6009.93
456.529	6231.12
456.735	6767.68
456.941	6974.53
457.147	7095.36
457.352	7363.64
457.558	7648.31
457.764	8057.9
457.97	8293.42
458.176	8696.87
458.381	8805.41
458.587	9212.96
458.793	9714.71
458.999	9544.73
459.204	10920.96
459.41	11461.63
459.616	11224.06
459.821	11887.61
460.027	12375.02
460.233	12674.03
460.438	12880.87
460.644	13399.01
460.85	13724.63
461.055	14326.74
461.261	14914.5
461.466	14558.16
461.672	14984.13
461.878	16774.06
462.083	16448.43
462.289	16995.24
462.494	17396.64
462.7	17673.12
462.905	18185.11
463.111	19209.09
463.316	20169.59
463.522	20632.43
463.727	21214.05
463.932	21984.09
464.138	23073.61
464.343	23780.16
464.549	24052.54
464.754	25813.79
464.959	26213.15
465.165	26655.51
465.37	26536.73
465.575	26360.6
465.781	28365.56
465.986	28949.23
466.191	28582.65
466.397	29268.72
466.602	28449.53
466.807	29805.28
467.012	30520.02
467.218	30483.16
467.423	30782.16
467.628	32017.09
467.833	33551.02
468.038	33202.86
468.244	32264.89
468.449	33974.95
468.654	33450.67
468.859	33163.95
469.064	33239.73
469.269	32778.93
469.474	32481.98
469.679	33942.18
469.885	32598.71
470.09	33630.89
470.295	33735.34
470.5	32637.62
470.705	32848.57
470.91	32268.99
471.115	31814.34
471.32	32502.46
471.525	32291.52
471.73	30898.9
471.935	30870.23
472.139	29715.17
472.344	29606.63
472.549	29674.21
472.754	28979.95
472.959	28703.48
473.164	27566.85
473.369	27208.46
473.574	27693.83
473.778	26944.27
473.983	26678.04
474.188	26573.59
474.393	25377.58
474.598	25111.34
474.802	24394.55
475.007	24019.77
475.212	24034.11
475.417	22889.29
475.621	22823.76
475.826	22668.11
476.031	21719.9
476.235	21427.04
476.44	21599.07
476.645	20999.02
476.849	20802.41
477.054	20460.4
477.259	20089.72
477.463	19854.2
477.668	19399.55
477.872	19389.31
478.077	18889.61
478.282	18426.77
478.486	18152.34
478.691	17961.88
478.895	17689.5
479.1	17718.17
479.304	17523.62
479.509	17066.92
479.713	17357.73
479.918	16919.46
480.122	16589.74
480.326	16679.85
480.531	16829.35
480.735	16288.69
480.94	16098.23
481.144	16663.47
481.348	15786.94
481.553	15965.11
481.757	15307.71
481.961	15729.59
482.166	15848.38
482.37	15477.69
482.574	15127.49
482.778	15236.03
482.983	15403.97
483.187	15094.72
483.391	14984.13
483.595	14887.88
483.8	14396.37
484.004	14431.18
484.208	14310.35
484.412	14234.58
484.616	14150.61
484.821	14111.7
485.025	13655
485.229	13751.26
485.433	13255.65
485.637	13386.72
485.841	13308.9
486.045	12975.08
486.249	12887.01
486.453	12600.3
486.657	12409.84
486.861	12291.06
487.065	12014.58
487.269	12147.7
487.473	11486.2
487.677	11686.9
487.881	11500.54
488.085	11205.63
488.289	11009.03
488.493	10923.01
488.697	10705.93
488.901	10527.75
489.105	10341.39
489.309	10191.89
489.512	10128.4
489.716	9710.61
489.92	9694.23
490.124	9298.97
490.328	9458.71
490.531	9176.09
490.735	9147.42
490.939	9006.11
491.143	8676.39
491.346	8514.6
491.55	8547.37
491.754	8442.92
491.958	8252.46
492.161	8035.38
492.365	8035.38
492.569	7750.71
492.772	7740.47
492.976	7586.87
493.18	7429.18
493.383	7507
493.587	7535.67
493.79	7361.59
493.994	7158.85
494.197	7115.84
494.401	7142.46
494.605	6759.49
494.808	6777.92
495.012	6853.7
495.215	7019.58
495.419	6786.12
495.622	6911.04
495.825	6607.94
496.029	6573.13
496.232	6755.4
496.436	6614.09
496.639	6626.37
496.843	6657.09
497.046	6566.98
497.249	6870.08
497.453	6759.49
497.656	6663.24
497.859	6808.64
498.063	6894.66
498.266	6822.98
498.469	6630.47
498.673	6630.47
498.876	6900.8
499.079	6825.03
499.282	6687.81
499.485	7134.27
499.689	6988.86
499.892	7138.37
500.095	6970.43
500.298	7052.35
500.501	7048.26
500.705	7222.33
500.908	7156.8
501.111	7343.16
501.314	7511.1
501.517	7609.4
501.72	7627.83
501.923	7547.96
502.126	7724.08
502.329	7752.76
502.532	7801.91
502.735	8086.58
502.938	8186.93
503.141	8217.65
503.344	8084.53
503.547	8338.48
503.75	8391.72
503.953	8557.61
504.156	8617
504.359	8875.04
504.562	8928.29
504.765	8993.83
504.968	9180.19
505.17	9446.43
505.373	9511.96
505.576	9714.71
505.779	9874.45
505.982	9980.95
506.185	10148.88
506.387	10040.34
506.59	10638.34
506.793	10793.99
506.996	10820.61
507.198	11408.38
507.401	11189.25
507.604	11543.55
507.807	11568.12
508.009	12057.59
508.212	12151.79
508.415	12393.45
508.617	12624.87
508.82	12829.67
509.022	12940.26
509.225	13611.99
509.428	13886.42
509.63	13919.19
509.833	14332.88
510.035	14691.27
510.238	14832.58
510.44	15231.94
510.643	15586.24
510.845	15977.4
511.048	16053.17
511.25	16642.99
511.453	16673.71
511.655	17875.87
511.858	17853.34
512.06	17935.26
512.262	18322.32
512.465	18721.68
512.667	19149.7
512.87	19458.95
513.072	20024.19
513.274	20683.63
513.477	20767.6
513.679	21138.28
513.881	21996.38
514.084	22211.42
514.286	22743.89
514.488	23221.06
514.69	23919.42
514.893	24394.55
515.095	24668.98
515.297	25518.89
515.499	25725.73
515.701	26346.26
515.904	27104.01
516.106	27284.23
516.308	28093.18
516.51	29029.1
516.712	28908.27
516.914	29506.28
517.116	30321.37
517.318	30790.36
517.52	31419.08
517.722	31564.49
517.925	32778.93
518.127	33041.07
518.329	33643.18
518.531	33630.89
518.733	34445.98
518.935	35023.51
519.136	35416.72
519.338	36141.7
519.54	36698.75
519.742	37333.62
519.944	37431.92
520.146	38597.21
520.348	38650.46
520.55	39098.97
520.752	39545.42
520.954	40198.73
521.155	40331.84
521.357	41048.63
521.559	41454.13
521.761	42345
521.963	42674.72
522.164	42836.51
522.366	42682.91
522.568	43821.58
522.77	43600.4
522.971	44444.16
523.173	43723.28
523.375	44194.31
523.576	44245.51
523.778	44370.44
523.98	45435.38
524.181	45617.65
524.383	45529.59
524.584	45763.06
524.786	45617.65
524.988	45595.12
525.189	46123.5
525.391	46402.02
525.592	46250.47
525.794	46053.87
525.995	45763.06
526.197	46211.56
526.398	46107.12
526.6	45677.04
526.801	45615.6
527.003	45607.41
527.204	45625.84
527.406	45568.5
527.607	45431.29
527.808	45033.98
528.01	44263.94
528.211	44151.3
528.412	44792.32
528.614	44251.66
528.815	44067.34
529.016	44186.12
529.218	42811.93
529.419	42977.82
529.62	42213.93
529.822	41765.42
530.023	41521.71
530.224	41361.97
530.425	41108.02
530.626	39973.45
530.828	39866.95
531.029	39981.64
531.23	39232.08
531.431	38679.13
531.632	37986.92
531.833	38111.85
532.035	37591.66
532.236	37034.61
532.437	36934.26
532.638	35938.95
532.839	36006.53
533.04	35541.64
533.241	34552.48
533.442	34742.94
533.643	34048.68
533.844	33436.33
534.045	33331.89
534.246	32447.16
534.447	32588.47
534.648	31855.3
534.849	31718.09
535.05	30946
535.251	30376.67
535.451	30188.25
535.652	29833.96
535.853	29502.18
536.054	29072.11
536.255	28914.42
536.456	27767.55
536.657	28257.02
536.857	27622.15
537.058	27212.56
537.259	26968.85
537.46	26686.23
537.66	25903.9
537.861	26080.03
538.062	25449.25
538.263	24824.62
538.463	24890.16
538.664	24279.86
538.865	24011.58
539.065	23911.23
539.266	23495.49
539.466	23472.96
539.667	22610.77
539.868	22774.61
540.068	22301.53
540.269	22106.97
540.469	22078.3
540.67	21719.9
540.87	21279.59
541.071	21072.75
541.271	20816.75
541.472	20794.22
541.672	20532.08
541.873	20210.55
542.073	19690.37
542.274	20011.9
542.474	19520.38
542.675	19338.12
542.875	19250.05
543.075	18856.84
543.276	18770.83
543.476	18449.3
543.676	18197.4
543.877	17984.41
544.077	17920.92
544.277	17763.23
544.478	17515.42
544.678	17245.09
544.878	17165.22
545.078	16849.83
545.279	16530.35
545.479	16262.07
545.679	16155.57
545.879	16266.16
546.079	15975.35
546.28	15586.24
546.48	15621.05
546.68	15475.65
546.88	15092.68
547.08	15041.48
547.28	14859.21
547.48	14482.38
547.68	14638.03
547.88	14246.87
548.081	14300.11
548.281	13835.22
548.481	13753.3
548.681	13687.77
548.881	13480.92
549.081	13433.82
549.28	12948.45
549.48	12868.58
549.68	12721.13
549.88	12846.05
550.08	12370.93
550.28	12502
550.48	12166.13
550.68	12002.29
550.88	11531.26
551.08	11553.79
551.279	11734.01
551.479	10994.69
551.679	11260.93
551.879	10857.48
552.079	10867.72
552.278	10701.83
552.478	10556.43
552.678	10462.22
552.878	10318.86
553.077	10224.65
553.277	9786.39
553.477	9911.32
553.676	9690.13
553.876	9419.8
554.076	9212.96
554.275	9227.29
554.475	8875.04
554.674	9135.14
554.874	8723.49
555.074	8559.66
555.273	8348.72
555.473	8494.12
555.672	8143.92
555.872	8041.52
556.071	7793.72
556.271	7986.22
556.47	7783.48
556.67	7582.77
556.869	7500.86
557.068	7324.73
557.268	7197.76
557.467	7027.78
557.667	7019.58
557.866	6788.16
558.065	6794.31
558.265	6655.05
558.464	6607.94
558.663	6437.96
558.863	6253.64
559.062	6263.88
559.261	5985.36
559.461	6141
559.66	5862.48
559.859	5844.05
560.058	5669.97
560.258	5831.76
560.457	5676.12
560.656	5598.29
560.855	5413.98
561.054	5465.18
561.253	5303.39
561.453	5311.58
561.652	5215.32
561.851	5143.64
562.05	4967.52
562.249	4717.67
562.448	4961.37
562.647	4705.38
562.846	4705.38
563.045	4566.12
563.244	4535.4
563.443	4529.25
563.642	4342.89
563.841	4330.6
564.04	4387.94
564.239	4123.76
564.438	4250.73
564.637	4011.12
564.836	4084.84
565.035	4004.97
565.234	3847.28
565.432	3822.7
565.631	3800.18
565.83	3925.1
566.029	3660.91
566.228	3581.04
566.427	3744.88
566.625	3519.6
566.824	3480.69
567.023	3542.13
567.222	3282.04
567.42	3462.26
567.619	3345.53
567.818	3282.04
568.016	3353.72
568.215	3132.54
568.414	3331.19
568.612	3064.96
568.811	3136.63
569.01	2937.98
569.208	3024
569.407	2798.72
569.605	2792.58
569.804	2665.6
570.002	2811.01
570.201	2800.77
570.4	2679.94
570.598	2624.64
570.797	2548.87
570.995	2571.4
571.193	2602.11
571.392	2542.72
571.59	2481.28
571.789	2471.04
571.987	2512
572.186	2522.24
572.384	2210.95
572.582	2333.83
572.781	2385.03
572.979	2165.9
573.177	2213
573.376	2262.15
573.574	2247.82
573.772	2112.65
573.971	1993.87
574.169	1963.15
574.367	2108.55
574.565	1881.23
574.763	2024.59
574.962	1877.13
575.16	1897.61
575.358	1846.41
575.556	1893.52
575.754	1868.94
575.952	1909.9
576.151	1830.03
576.349	1778.83
576.547	1664.15
576.745	1719.44
576.943	1668.24
577.141	1627.28
577.339	1561.75
577.537	1629.33
577.735	1594.51
577.933	1612.95
578.131	1440.92
578.329	1629.33
578.527	1469.59
578.725	1442.96
578.923	1363.09
579.121	1363.09
579.319	1285.27
579.516	1377.43
579.714	1465.49
579.912	1330.33
580.11	1197.21
580.308	1127.58
580.506	1287.32
580.704	1090.71
580.901	1156.25
581.099	1272.98
581.297	1141.91
581.495	1275.03
581.692	1029.27
581.89	1305.75
582.088	1193.11
582.285	1143.96
582.483	1146.01
582.681	1057.95
582.878	1072.28
583.076	1092.76
583.274	1031.32
583.471	1135.77
583.669	1025.18
583.866	928.92
584.064	808.09
584.262	865.44
584.459	879.77
584.657	949.4
584.854	951.45
585.052	918.68
585.249	976.03
585.447	955.55
585.644	810.14
585.841	898.2
586.039	912.54
586.236	890.01
586.434	767.13
586.631	769.18
586.828	756.9
587.026	832.67
587.223	746.66
587.42	683.17
587.618	849.05
587.815	808.09
588.012	711.84
588.21	722.08
588.407	722.08
588.604	758.94
588.801	636.06
588.999	701.6
589.196	830.62
589.393	709.79
589.59	634.02
589.787	674.98
589.984	732.32
590.182	638.11
590.379	683.17
590.576	699.55
590.773	617.63
590.97	593.06
591.167	662.69
591.364	640.16
591.561	500.9
591.758	748.7
591.955	779.42
592.152	654.5
592.349	566.43
592.546	576.67
592.743	578.72
592.94	595.11
593.137	648.35
593.334	707.74
593.531	713.89
593.727	754.85
593.924	554.15
594.121	652.45
594.318	640.16
594.515	588.96
594.712	726.18
594.908	814.24
595.105	570.53
595.302	668.83
595.499	672.93
595.696	771.23
595.892	623.78
596.089	746.66
596.286	644.26
596.482	853.15
596.679	736.42
596.876	646.3
597.072	896.16
597.269	713.89
597.466	867.49
597.662	806.05
597.859	857.25
598.055	840.86
598.252	902.3
598.448	1021.08
598.645	1086.62
598.841	1053.85
599.038	1111.19
599.234	1203.35
599.431	1021.08
599.627	1131.67
599.824	1232.02
600.02	1232.02
600.217	1219.74
600.413	1297.56
600.609	1371.29
600.806	1701.01
601.002	1359
601.198	1469.59
601.395	1580.18
601.591	1627.28
601.787	1725.58
601.984	1803.41
602.18	1848.46
602.376	1965.2
602.572	2000.01
602.769	2143.37
602.965	2071.69
603.161	2290.82
603.357	2294.92
603.553	2442.37
603.75	2368.65
603.946	2526.34
604.142	2602.11
604.338	2751.62
604.534	2690.18
604.73	2798.72
604.926	2860.16
605.122	3167.35
605.318	3032.19
605.514	3189.88
605.71	3349.62
605.906	3503.22
606.102	3351.67
606.298	3740.79
606.494	3703.92
606.69	3779.7
606.886	3986.54
607.082	4029.55
607.278	4201.58
607.474	4238.44
607.67	4379.75
607.866	4303.98
608.062	4709.47
608.257	4664.42
608.453	4725.86
608.649	5168.22
608.845	5172.32
609.041	5276.76
609.236	5477.46
609.432	5530.71
609.628	5784.66
609.824	5813.33
610.019	5946.45
610.215	6186.06
610.411	6454.34
610.606	6591.56
610.802	6693.96
610.998	6898.75
611.193	7017.54
611.389	6945.86
611.584	7365.69
611.78	7449.66
611.976	7668.79
612.171	8172.59
612.367	8100.91
612.562	8438.83
612.758	8561.7
612.953	8678.44
613.149	9124.9
613.344	9221.15
613.539	9399.32
613.735	9856.02
613.93	9915.41
614.126	10167.31
614.321	10671.11
614.517	10986.5
614.712	11133.95
614.907	11627.51
615.103	11635.71
615.298	12071.92
615.493	12319.73
615.688	12565.48
615.884	13011.94
616.079	13059.04
616.274	13642.71
616.47	13781.98
616.665	14212.05
616.86	14480.33
617.055	15027.14
617.25	15264.71
617.445	15950.78
617.641	15797.18
617.836	16245.68
618.031	16575.41
618.226	17251.24
618.421	17544.09
618.616	18135.96
618.811	18107.29
619.006	18963.34
619.201	19243.91
619.396	19952.51
619.591	19841.92
619.786	20775.79
619.981	20953.96
620.176	21531.49
620.371	21746.53
620.566	22164.31
620.761	22684.5
620.956	23673.67
621.151	23417.67
621.346	24462.13
621.541	24165.18
621.735	25555.75
621.93	25402.15
622.125	26215.19
622.32	26241.82
622.515	27003.66
622.709	27589.38
622.904	27861.76
623.099	28250.88
623.294	29229.8
623.488	29514.47
623.683	29897.44
623.878	30118.62
624.072	30722.77
624.267	31222.48
624.462	31722.18
624.656	32035.52
624.851	32934.58
625.046	32869.05
625.24	33530.54
625.435	33952.42
625.629	34669.21
625.824	34685.59
626.018	35390.09
626.213	35388.05
626.407	36328.06
626.602	36399.74
626.796	37067.38
626.991	37350
627.185	37675.63
627.38	37730.92
627.574	37872.23
627.768	38169.19
627.963	38316.64
628.157	38087.27
628.352	38971.99
628.546	38431.33
628.74	38865.5
628.935	37982.82
629.129	39027.29
629.323	38115.94
629.517	38048.36
629.712	37849.71
629.906	37888.62
630.1	37007.99
630.294	37040.76
630.489	36881.02
630.683	36514.43
630.877	35803.78
631.071	35043.99
631.265	34419.36
631.459	34048.68
631.653	33028.79
631.848	32799.41
632.042	31765.19
632.236	31138.51
632.43	29899.49
632.624	29840.1
632.818	28453.62
633.012	27532.04
633.206	26651.41
633.4	26301.21
633.594	25195.31
633.788	24435.51
633.982	23634.75
634.176	22981.45
634.369	21951.32
634.563	20806.51
634.757	20358
634.951	19628.93
635.145	18881.42
635.339	17951.64
635.533	17324.96
635.726	16821.16
635.92	16065.46
636.114	15330.24
636.308	14734.28
636.501	14410.7
636.695	13683.67
636.889	12653.55
637.083	12348.4
637.276	11987.96
637.47	11447.29
637.664	10748.93
637.857	10609.67
638.051	10183.7
638.244	9718.81
638.438	9247.77
638.632	9092.13
638.825	8586.28
639.019	8406.06
639.212	8021.04
639.406	7771.19
639.599	7472.18
639.793	7029.82
639.986	6636.61
640.18	6501.45
640.373	6272.07
640.567	6270.03
640.76	5821.52
640.954	5411.93
641.147	5268.57
641.34	5223.51
641.534	4988
641.727	4850.78
641.92	4594.79
642.114	4418.66
642.307	4301.93
642.5	4074.6
642.694	3882.1
642.887	3738.74
643.08	3832.94
643.273	3685.49
643.467	3427.45
643.66	3325.05
643.853	3114.11
644.046	3163.26
644.239	2858.11
644.432	2745.47
644.626	2688.13
644.819	2612.35
645.012	2561.16
645.205	2477.19
645.398	2397.32
645.591	2305.16
645.784	2151.56
645.977	2018.44
646.17	2063.5
646.363	1942.67
646.556	1819.79
646.749	1723.54
646.942	1717.39
647.135	1641.62
647.328	1518.74
647.521	1594.51
647.714	1606.8
647.907	1612.95
648.099	1373.33
648.292	1375.38
648.485	1426.58
648.678	1164.44
648.871	1209.5
649.064	1109.15
649.256	1002.65
649.449	900.25
649.642	896.16
649.835	1016.99
650.027	910.49
650.22	957.6
650.413	959.64
650.605	922.78
650.798	812.19
650.991	834.72
651.183	654.5
651.376	767.13
651.568	785.57
651.761	713.89
651.954	775.33
652.146	687.26
652.339	629.92
652.531	695.46
652.724	574.63
652.916	548
653.109	472.23
653.301	703.65
653.494	631.97
653.686	601.25
653.879	631.97
654.071	568.48
654.263	474.28
654.456	515.23
654.648	507.04
654.84	511.14
655.033	449.7
655.225	574.63
655.417	236.71
655.61	447.65
655.802	500.9
655.994	464.04
656.186	298.15
656.379	441.51
656.571	263.33
656.763	357.54
656.955	277.67
657.148	412.84
657.34	435.36
657.532	390.31
657.724	228.52
657.916	296.1
658.108	412.84
658.3	259.24
658.492	355.49
658.684	144.55
658.876	312.49
659.068	214.18
659.26	85.16
659.452	238.76
659.644	281.77
659.836	404.64
660.028	279.72
660.22	189.61
660.412	212.14
660.604	146.6
660.796	249
660.988	418.98
661.18	191.66
661.372	230.57
661.563	187.56
661.755	193.7
661.947	156.84
662.139	236.71
662.331	154.79
662.522	251.05
662.714	142.5
662.906	140.46
663.097	138.41
663.289	95.4
663.481	128.17
663.673	193.7
663.864	222.38
664.056	216.23
664.247	46.25
664.439	216.23
664.631	185.51
664.822	228.52
665.014	244.9
665.205	175.27
665.397	115.88
665.588	165.03
665.78	169.13
665.971	138.41
666.163	150.7
666.354	169.13
666.546	91.31
666.737	175.27
666.929	156.84
667.12	171.18
667.311	193.7
667.503	197.8
667.694	111.78
667.885	154.79
668.077	185.51
668.268	83.11
668.459	142.5
668.651	134.31
668.842	156.84
669.033	15.53
669.224	66.73
669.416	257.19
669.607	119.98
669.798	128.17
669.989	255.14
670.18	15.53
670.371	304.29
670.563	140.46
670.754	203.94
670.945	124.07
671.136	205.99
671.327	128.17
671.518	216.23
671.709	193.7
671.9	220.33
672.091	199.85
672.282	130.22
672.473	136.36
672.664	76.97
672.855	242.85
673.046	189.61
673.237	199.85
673.428	89.26
673.619	218.28
673.809	119.98
674	232.62
674.191	142.5
674.382	134.31
674.573	187.56
674.764	160.94
674.954	238.76
675.145	95.4
675.336	134.31
675.527	107.69
675.717	173.22
675.908	142.5
676.099	169.13
676.289	64.68
676.48	68.78
676.671	195.75
676.861	156.84
677.052	205.99
677.243	128.17
677.433	72.87
677.624	205.99
677.814	183.46
678.005	140.46
678.195	263.33
678.386	83.11
678.576	130.22
678.767	89.26
678.957	117.93
679.148	199.85
679.338	279.72
679.529	169.13
679.719	222.38
679.909	308.39
680.1	265.38
680.29	218.28
680.481	95.4
680.671	283.81
680.861	275.62
681.052	238.76
681.242	81.07
681.432	181.42
681.622	156.84
681.813	128.17
682.003	218.28
682.193	95.4
682.383	197.8
682.573	222.38
682.764	181.42
682.954	289.96
683.144	273.57
683.334	238.76
683.524	136.36
683.714	259.24
683.904	271.53
684.094	232.62
684.284	191.66
684.474	359.59
684.664	228.52
684.854	261.29
685.044	281.77
685.234	201.9
685.424	222.38
685.614	191.66
685.804	367.78
685.994	380.07
686.184	201.9
686.374	218.28
686.564	257.19
686.753	177.32
686.943	140.46
687.133	222.38
687.323	185.51
687.513	253.09
687.702	226.47
687.892	224.42
688.082	287.91
688.272	353.45
688.461	187.56
688.651	402.6
688.841	230.57
689.03	193.7
689.22	275.62
689.41	224.42
689.599	316.58
689.789	222.38
689.979	320.68
690.168	216.23
690.358	244.9
690.547	238.76
690.737	234.66
690.926	208.04
691.116	269.48
691.305	308.39
691.495	318.63
691.684	193.7
691.874	234.66
692.063	269.48
692.252	263.33
692.442	244.9
692.631	171.18
692.82	167.08
693.01	267.43
693.199	165.03
693.388	212.14
693.578	283.81
693.767	187.56
693.956	281.77
694.146	130.22
694.335	222.38
694.524	150.7
694.713	244.9
694.902	310.44
695.092	185.51
695.281	242.85
695.47	193.7
695.659	150.7
695.848	171.18
696.037	203.94
696.226	289.96
696.415	232.62
696.604	337.06
696.793	160.94
696.982	232.62
697.171	371.88
697.36	220.33
697.549	183.46
697.738	66.73
697.927	132.26
698.116	173.22
698.305	251.05
698.494	249
698.683	162.98
698.872	349.35
699.061	193.7
699.25	181.42
699.438	177.32
699.627	177.32
699.816	292.01
700.005	124.07
700.193	261.29
700.382	312.49
700.571	173.22
700.76	345.25
700.948	347.3
701.137	253.09
701.326	308.39
701.514	44.2
701.703	226.47
701.892	220.33
702.08	369.83
702.269	185.51
702.457	218.28
702.646	195.75
702.834	255.14
703.023	318.63
703.212	240.81
703.4	222.38
703.589	224.42
703.777	187.56
703.965	130.22
704.154	146.6
704.342	124.07
704.531	240.81
704.719	244.9
704.907	343.21
705.096	122.02
705.284	136.36
705.472	226.47
705.661	218.28
705.849	353.45
706.037	304.29
706.226	244.9
706.414	183.46
706.602	154.79
706.79	271.53
706.979	138.41
707.167	165.03
707.355	148.65
707.543	242.85
707.731	259.24
707.919	195.75
708.107	246.95
708.296	156.84
708.484	154.79
708.672	234.66
708.86	246.95
709.048	214.18
709.236	189.61
709.424	214.18
709.612	210.09
709.8	138.41
709.988	197.8
710.176	275.62
710.364	218.28
710.551	177.32
710.739	201.9
710.927	138.41
711.115	236.71
711.303	232.62
711.491	375.97
711.679	181.42
711.866	255.14
712.054	144.55
712.242	222.38
712.43	261.29
712.617	230.57
712.805	300.2
712.993	212.14
713.181	109.74
713.368	222.38
713.556	294.05
713.744	79.02
713.931	357.54
714.119	208.04
714.306	220.33
714.494	187.56
714.682	296.1
714.869	124.07
715.057	140.46
715.244	33.96
715.432	210.09
715.619	158.89
715.807	130.22
715.994	183.46
716.182	253.09
716.369	251.05
716.556	322.73
716.744	162.98
716.931	226.47
717.119	349.35
717.306	275.62
717.493	230.57
717.681	197.8
717.868	175.27
718.055	285.86
718.242	232.62
718.43	279.72
718.617	298.15
718.804	195.75
718.991	269.48
719.179	263.33
719.366	279.72
719.553	277.67
719.74	232.62
719.927	140.46
720.114	242.85
720.301	152.74
720.488	169.13
720.676	228.52
720.863	353.45
721.05	382.12
721.237	249
721.424	292.01
721.611	154.79
721.798	171.18
721.985	249
722.172	193.7
722.358	328.87
722.545	332.97
722.732	324.77
722.919	314.53
723.106	308.39
723.293	269.48
723.48	304.29
723.667	185.51
723.853	339.11
724.04	255.14
724.227	324.77
724.414	195.75
724.6	357.54
724.787	335.01
724.974	470.18
725.161	287.91
725.347	197.8
725.534	294.05
725.72	314.53
725.907	390.31
726.094	363.69
726.28	236.71
726.467	302.25
726.653	193.7
726.84	423.08
727.027	373.92
727.213	275.62
727.4	267.43
727.586	316.58
727.773	269.48
727.959	232.62
728.145	353.45
728.332	236.71
728.518	269.48
728.705	390.31
728.891	257.19
729.077	357.54
729.264	230.57
729.45	298.15
729.636	382.12
729.823	316.58
730.009	418.98
730.195	304.29
730.382	390.31
730.568	259.24
730.754	345.25
730.94	283.81
731.126	386.21
731.313	330.92
731.499	324.77
731.685	425.12
731.871	306.34
732.057	310.44
732.243	373.92
732.429	361.64
732.615	494.76
732.801	337.06
732.987	330.92
733.173	271.53
733.359	265.38
733.545	361.64
733.731	363.69
733.917	484.52
734.103	347.3
734.289	400.55
734.475	287.91
734.661	361.64
734.847	345.25
735.033	357.54
735.219	453.8
735.404	363.69
735.59	402.6
735.776	275.62
735.962	361.64
736.148	392.36
736.333	416.93
736.519	341.16
736.705	390.31
736.89	384.16
737.076	332.97
737.262	382.12
737.447	353.45
737.633	398.5
737.819	404.64
738.004	386.21
738.19	318.63
738.375	441.51
738.561	330.92
738.747	353.45
738.932	287.91
739.118	474.28
739.303	410.79
739.489	421.03
739.674	322.73
739.859	349.35
740.045	441.51
740.23	349.35
740.416	226.47
740.601	392.36
740.786	408.74
740.972	349.35
741.157	375.97
741.342	316.58
741.528	234.66
741.713	431.27
741.898	339.11
742.084	365.73
742.269	349.35
742.454	357.54
742.639	496.8
742.824	263.33
743.01	410.79
743.195	535.71
743.38	349.35
743.565	332.97
743.75	394.4
743.935	353.45
744.12	384.16
744.305	347.3
744.49	332.97
744.675	396.45
744.86	273.57
745.045	400.55
745.23	357.54
745.415	357.54
745.6	423.08
745.785	384.16
745.97	437.41
746.155	355.49
746.34	433.32
746.525	335.01
746.71	402.6
746.895	271.53
747.079	267.43
747.264	386.21
747.449	384.16
747.634	435.36
747.819	292.01
748.003	355.49
748.188	218.28
748.373	339.11
748.557	367.78
748.742	396.45
748.927	380.07
749.111	324.77
749.296	367.78
749.481	324.77
749.665	345.25
749.85	261.29
750.034	320.68
750.219	328.87
750.404	308.39
750.588	330.92
750.773	238.76
750.957	287.91
751.141	298.15
751.326	281.77
751.51	218.28
751.695	265.38
751.879	328.87
752.064	416.93
752.248	230.57
752.432	418.98
752.617	351.4
752.801	398.5
752.985	210.09
753.17	394.4
753.354	322.73
753.538	205.99
753.722	281.77
753.907	320.68
754.091	228.52
754.275	349.35
754.459	214.18
754.643	236.71
754.828	408.74
755.012	283.81
755.196	136.36
755.38	267.43
755.564	281.77
755.748	308.39
755.932	261.29
756.116	337.06
756.3	341.16
756.484	220.33
756.668	292.01
756.852	72.87
757.036	326.82
757.22	218.28
757.404	140.46
757.588	273.57
757.772	232.62
757.956	251.05
758.14	343.21
758.323	173.22
758.507	259.24
758.691	208.04
758.875	191.66
759.059	298.15
759.242	150.7
759.426	253.09
759.61	232.62
759.794	142.5
759.977	267.43
760.161	490.66
760.345	292.01
760.528	212.14
760.712	304.29
760.895	285.86
761.079	203.94
761.263	136.36
761.446	85.16
761.63	210.09
761.813	277.67
761.997	126.12
762.18	210.09
762.364	259.24
762.547	66.73
762.731	193.7
762.914	171.18
763.098	167.08
763.281	183.46
763.464	150.7
763.648	181.42
763.831	185.51
764.015	111.78
764.198	263.33
764.381	191.66
764.564	187.56
764.748	128.17
764.931	216.23
765.114	146.6
765.297	259.24
765.481	50.35
765.664	105.64
765.847	81.07
766.03	255.14
766.213	115.88
766.397	140.46
766.58	107.69
766.763	273.57
766.946	158.89
767.129	117.93
767.312	105.64
767.495	160.94
767.678	109.74
767.861	165.03
768.044	158.89
768.227	117.93
768.41	208.04
768.593	193.7
768.776	144.55
768.959	150.7
769.142	335.01
769.324	117.93
769.507	144.55
769.69	40.11
769.873	85.16
770.056	277.67
770.239	203.94
770.421	158.89
770.604	214.18
770.787	193.7
770.97	134.31
771.152	97.45
771.335	222.38
771.518	87.21
771.7	197.8
771.883	253.09
772.066	81.07
772.248	162.98
772.431	251.05
772.613	177.32
772.796	72.87
772.978	179.37
773.161	246.95
773.343	76.97
773.526	76.97
773.708	72.87
773.891	95.4
774.073	99.5
774.256	27.82
774.438	214.18
774.621	124.07
774.803	189.61
774.985	72.87
775.168	111.78
775.35	76.97
775.532	165.03
775.715	101.55
775.897	185.51
776.079	117.93
776.261	97.45
776.444	181.42
776.626	132.26
776.808	74.92
776.99	-35.67
777.173	95.4
777.355	167.08
777.537	72.87
777.719	191.66
777.901	68.78
778.083	76.97
778.265	97.45
778.447	179.37
778.629	21.67
778.811	42.15
778.993	179.37
779.175	183.46
779.357	152.74
779.539	13.48
779.721	81.07
779.903	119.98
780.085	95.4
780.267	113.83
780.449	122.02
780.631	167.08
780.812	197.8
780.994	99.5
781.176	-4.95
781.358	72.87
781.54	46.25
781.721	64.68
781.903	238.76
782.085	27.82
782.267	115.88
782.448	33.96
782.63	17.58
782.812	130.22
782.993	195.75
783.175	130.22
783.357	79.02
783.538	119.98
783.72	11.43
783.901	177.32
784.083	66.73
784.264	91.31
784.446	-0.85
784.627	23.72
784.809	132.26
784.99	128.17
785.172	111.78
785.353	79.02
785.535	70.83
785.716	54.44
785.897	23.72
786.079	23.72
786.26	40.11
786.441	42.15
786.623	33.96
786.804	91.31
786.985	83.11
787.167	93.35
787.348	46.25
787.529	60.59
787.71	240.81
787.891	74.92
788.073	72.87
788.254	-27.48
788.435	240.81
788.616	25.77
788.797	-90.96
788.978	13.48
789.159	11.43
789.34	152.74
789.522	64.68
789.703	83.11
789.884	95.4
790.065	81.07
790.246	62.63
790.427	99.5
790.607	216.23
790.788	103.59
790.969	15.53
791.15	68.78
791.331	15.53
791.512	29.87
791.693	-15.19
791.874	-4.95
792.054	177.32
792.235	138.41
792.416	13.48
792.597	-27.48
792.778	126.12
792.958	105.64
793.139	33.96
793.32	40.11
793.5	7.34
793.681	175.27
793.862	54.44
794.042	76.97
794.223	-31.57
794.404	21.67
794.584	-54.1
794.765	160.94
794.945	-35.67
795.126	115.88
795.306	117.93
795.487	60.59
795.667	58.54
795.848	50.35
796.028	15.53
796.209	107.69
796.389	60.59
796.57	3.24
796.75	-19.29
796.93	54.44
797.111	-13.14
797.291	33.96
797.471	72.87
797.652	31.91
797.832	17.58
798.012	33.96
798.192	25.77
798.373	-72.53
798.553	40.11
798.733	99.5
798.913	11.43
799.093	38.06
799.274	-21.33
799.454	31.91
799.634	156.84
799.814	91.31
799.994	70.83
800.174	27.82
800.354	95.4
800.534	-17.24
800.714	99.5
800.894	-103.25
801.074	17.58
801.254	-47.96
801.434	97.45
801.614	-33.62
801.794	50.35
801.974	1883.28
802.154	9.39
802.334	122.02
802.514	-58.2
802.693	40.11
802.873	15.53
803.053	183.46
803.233	101.55
803.413	56.49
803.592	15.53
803.772	-54.1
803.952	40.11
804.131	-54.1
804.311	17.58
804.491	126.12
804.67	-25.43
804.85	-70.48
805.03	97.45
805.209	122.02
805.389	-0.85
805.568	23.72
805.748	23.72
805.928	25.77
806.107	93.35
806.287	62.63
806.466	52.39
806.646	66.73
806.825	68.78
807.004	1.19
807.184	25.77
807.363	70.83
807.543	-0.85
807.722	-33.62
807.901	93.35
808.081	87.21
808.26	-84.82
808.439	36.01
808.619	27.82
808.798	9.39
808.977	29.87
809.156	70.83
809.336	40.11
809.515	87.21
809.694	-25.43
809.873	-45.91
810.052	42.15
810.231	109.74
810.411	109.74
810.59	162.98
810.769	5.29
810.948	107.69
811.127	-21.33
811.306	-15.19
811.485	-19.29
811.664	148.65
811.843	9.39
812.022	103.59
812.201	-19.29
812.38	-17.24
812.559	1.19
812.737	66.73
812.916	-90.96
813.095	-17.24
813.274	58.54
813.453	38.06
813.632	31.91
813.811	52.39
813.989	-31.57
814.168	31.91
814.347	-50
814.526	48.3
814.704	95.4
814.883	81.07
815.062	-17.24
815.24	91.31
815.419	-43.86
815.598	54.44
815.776	-97.11
815.955	-41.81
816.133	-76.63
816.312	70.83
816.49	-27.48
816.669	-25.43
816.847	5.29
817.026	56.49
817.204	52.39
817.383	5.29
817.561	-68.44
817.74	-11.09
817.918	111.78
818.097	15.53
818.275	-43.86
818.453	38.06
818.632	62.63
818.81	-35.67
818.988	-52.05
819.167	-72.53
819.345	-31.57
819.523	-62.29
819.701	68.78
819.879	160.94
820.058	9.39
820.236	33.96
820.414	23.72
820.592	58.54
820.77	-58.2
820.948	-27.48
821.127	-35.67
821.305	15.53
821.483	-31.57
821.661	115.88
821.839	74.92
822.017	-33.62
822.195	-41.81
822.373	99.5
822.551	19.63
822.729	70.83
822.907	-35.67
823.085	50.35
823.262	25.77
823.44	-74.58
823.618	-35.67
823.796	13.48
823.974	-13.14
824.152	-58.2
824.329	54.44
824.507	66.73
824.685	27.82
824.863	5.29
825.04	-11.09
825.218	38.06
825.396	-52.05
825.574	-11.09
825.751	29.87
825.929	19.63
826.107	-21.33
826.284	40.11
826.462	66.73
826.639	7.34
826.817	-45.91
826.994	-19.29
827.172	5.29
827.349	138.41
827.527	31.91
827.704	27.82
827.882	54.44
828.059	1.19
828.237	-52.05
828.414	119.98
828.591	-97.11
828.769	23.72
828.946	-43.86
829.124	81.07
829.301	91.31
829.478	-43.86
829.655	-23.38
829.833	-15.19
830.01	-43.86
830.187	42.15
830.364	23.72
830.542	-35.67
830.719	181.42
830.896	19.63
831.073	103.59
831.25	62.63
831.427	60.59
831.604	36.01
831.782	23.72
831.959	52.39
832.136	25.77
832.313	52.39
832.49	-31.57
832.667	25.77
832.844	-105.3
833.021	140.46
833.198	9.39
833.374	1.19
833.551	1.19
833.728	-17.24
833.905	107.69
834.082	-70.48
834.259	-19.29
834.436	146.6
834.612	-66.39
834.789	52.39
834.966	44.2
835.143	-41.81
835.319	-27.48
835.496	48.3
835.673	140.46
835.85	101.55
836.026	70.83
836.203	99.5
836.38	-52.05
836.556	-21.33
836.733	-90.96
836.909	171.18
837.086	-15.19
837.262	-56.15
837.439	-23.38
837.616	15.53
837.792	17.58
837.968	17.58
838.145	-129.88
838.321	76.97
838.498	111.78
838.674	85.16
838.851	50.35
839.027	27.82
839.203	-52.05
839.38	66.73
839.556	21.67
839.732	60.59
839.909	72.87
840.085	99.5
840.261	-39.76
840.437	95.4
840.614	-19.29
840.79	15.53
840.966	113.83
841.142	56.49
841.318	-64.34
841.494	11.43
841.671	175.27
841.847	23.72
842.023	-70.48
842.199	58.54
842.375	165.03
842.551	-109.4
842.727	-52.05
842.903	134.31
843.079	-70.48
843.255	31.91
843.431	-80.72
843.607	95.4
843.783	-93.01
843.959	97.45
844.134	-136.02
844.31	124.07
844.486	-111.44
844.662	-19.29
844.838	19.63
845.013	64.68
845.189	74.92
845.365	44.2
845.541	-66.39
845.716	-27.48
845.892	85.16
846.068	7.34
846.244	-47.96
846.419	-11.09
846.595	-52.05
846.77	3.24
846.946	50.35
847.122	-60.24
847.297	19.63
847.473	142.5
847.648	-33.62
847.824	50.35
847.999	-76.63
848.175	-15.19
848.35	52.39
848.526	15.53
848.701	23.72
848.876	93.35
849.052	27.82
849.227	29.87
849.403	-2.9
849.578	11.43
849.753	5.29
849.929	48.3
850.104	-39.76
850.279	-33.62
850.454	13.48
850.63	85.16
850.805	-31.57
850.98	46.25
851.155	1.19
851.33	19.63
851.505	-27.48
851.681	205.99
851.856	-17.24
852.031	27.82
852.206	25.77
852.381	3.24
852.556	38.06
852.731	19.63
852.906	33.96
853.081	-25.43
853.256	113.83
853.431	-47.96
853.606	-39.76
853.781	-113.49
853.956	-113.49
854.131	111.78
854.305	-33.62
854.48	-62.29
854.655	-37.72
854.83	-95.06
855.005	-7
855.18	-11.09
855.354	-43.86
855.529	183.46
855.704	-21.33
855.879	111.78
856.053	-99.16
856.228	44.2
856.403	-80.72
856.577	27.82
856.752	-82.77
856.926	23.72
857.101	-0.85
857.276	11.43
857.45	-0.85
857.625	97.45
857.799	-29.52
857.974	54.44
858.148	-2.9
858.323	17.58
858.497	-33.62
858.672	-31.57
858.846	-64.34
859.02	-47.96
859.195	-80.72
859.369	-7
859.543	9.39
859.718	27.82
859.892	-2.9
860.066	85.16
860.241	-47.96
860.415	-2.9
860.589	-39.76
860.763	-29.52
860.938	70.83
861.112	-13.14
861.286	-41.81
861.46	23.72
861.634	44.2
861.808	21.67
861.982	-90.96
862.157	-111.44
862.331	-13.14
862.505	-82.77
862.679	-56.15
862.853	-68.44
863.027	-84.82
863.201	167.08
863.375	-33.62
863.549	76.97
863.722	58.54
863.896	54.44
864.07	-7
864.244	-19.29
864.418	23.72
864.592	-17.24
864.766	-2.9
864.939	7.34
865.113	-39.76
865.287	76.97
865.461	-52.05
865.634	-17.24
865.808	-21.33
865.982	-9.05
866.156	-52.05
866.329	-84.82
866.503	3.24
866.676	9.39
866.85	66.73
867.024	-13.14
867.197	56.49
867.371	11.43
867.544	70.83
867.718	-95.06
867.891	81.07
868.065	-117.59
868.238	40.11
868.412	-4.95
868.585	-15.19
868.759	-64.34
868.932	-39.76
869.105	-115.54
869.279	50.35
869.452	-13.14
869.625	42.15
869.799	-31.57
869.972	3.24
870.145	-13.14
870.319	91.31
870.492	-72.53
870.665	17.58
870.838	-111.44
871.011	-189.27
871.185	-33.62
871.358	-52.05
871.531	91.31
871.704	-27.48
871.877	42.15
872.05	-60.24
872.223	-84.82
872.396	9.39
872.569	5.29
872.742	-138.07
872.915	-2.9
873.088	-7
873.261	-19.29
873.434	70.83
873.607	3.24
873.78	109.74
873.953	-45.91
874.126	3.24
874.299	48.3
874.471	-60.24
874.644	-17.24
874.817	-13.14
874.99	136.36
875.163	-56.15
875.335	58.54
875.508	42.15
875.681	74.92
875.853	-47.96
876.026	-115.54
876.199	-31.57
876.371	70.83
876.544	-31.57
876.717	15.53
876.889	5.29
877.062	23.72
877.234	-39.76
877.407	-29.52
877.579	23.72
877.752	58.54
877.924	60.59
878.097	33.96
878.269	-45.91
878.442	-7
878.614	48.3
878.786	-29.52
878.959	-58.2
879.131	31.91
879.303	-123.73
879.476	23.72
879.648	109.74
879.82	-62.29
879.993	-17.24
880.165	19.63
880.337	-95.06
880.509	-31.57
880.681	-95.06
880.854	-109.4
881.026	58.54
881.198	113.83
881.37	-31.57
881.542	-47.96
881.714	13.48
881.886	-86.87
882.058	-54.1
882.23	79.02
882.402	-45.91
882.574	-0.85
882.746	27.82
882.918	62.63
883.09	13.48
883.262	-0.85
883.434	27.82
883.606	-115.54
883.778	9.39
883.95	87.21
884.122	-33.62
884.293	79.02
884.465	5.29
884.637	111.78
884.809	-54.1
884.98	17.58
885.152	33.96
885.324	91.31
885.496	-50
885.667	-72.53
885.839	-33.62
886.011	107.69
886.182	25.77
886.354	15.53
886.525	27.82
886.697	-54.1
886.869	-64.34
887.04	21.67
887.212	76.97
887.383	44.2
887.555	-0.85
887.726	-80.72
887.897	-39.76
888.069	27.82
888.24	58.54
888.412	29.87
888.583	31.91
888.754	7.34
888.926	-142.16
889.097	-82.77
889.268	-97.11
889.44	-47.96
889.611	-86.87
889.782	-21.33
889.953	-101.2
890.125	60.59
890.296	1.19
890.467	13.48
890.638	-19.29
890.809	48.3
890.98	-88.92
891.151	140.46
891.323	89.26
891.494	31.91
891.665	1.19
891.836	-33.62
892.007	3.24
892.178	58.54
892.349	38.06
892.52	-136.02
892.691	27.82
892.862	-52.05
893.032	-99.16
893.203	-7
893.374	54.44
893.545	107.69
893.716	-70.48
893.887	68.78
894.057	-21.33
894.228	-60.24
894.399	52.39
894.57	140.46
894.74	-47.96
894.911	-0.85
895.082	-13.14
895.253	-84.82
895.423	-0.85
895.594	-2.9
895.764	29.87
895.935	-13.14
896.106	140.46
896.276	-43.86
896.447	68.78
896.617	-43.86
896.788	21.67
896.958	-70.48
897.129	-45.91
897.299	-4.95
897.47	119.98
897.64	76.97
897.81	-60.24
897.981	-21.33
898.151	-129.88
898.322	-29.52
898.492	56.49
898.662	17.58
898.832	-31.57
899.003	-47.96
899.173	46.25
899.343	3.24
899.513	-90.96
