Data from USB4F104151__55__11-30-46-065.txt Node

Date: Wed Feb 26 11:30:46 EST 2025
User: louis
Spectrometer: USB4F10415
Trigger mode: 4
Integration Time (sec): 1.000000E-1
Scans to average: 1
Electric dark correction enabled: true
Nonlinearity correction enabled: false
Boxcar width: 0
XAxis mode: Wavelengths
Number of Pixels in Spectrum: 3648
>>>>>Begin Spectral Data<<<<<
178.204	-424.78
178.424	-424.78
178.644	-424.78
178.864	-412.5
179.084	-385.87
179.304	-15.19
179.524	-25.43
179.744	-84.82
179.964	85.16
180.184	-19.29
180.404	60.59
180.624	36.01
180.844	5.29
181.064	-109.4
181.283	62.63
181.503	-39.76
181.723	44.2
181.943	-80.72
182.163	132.26
182.383	54.44
182.602	97.45
182.822	167.08
183.042	85.16
183.262	29.87
183.482	-7
183.701	50.35
183.921	19.63
184.141	13.48
184.361	130.22
184.58	76.97
184.8	87.21
185.02	-23.38
185.239	62.63
185.459	33.96
185.679	124.07
185.898	-97.11
186.118	48.3
186.338	44.2
186.557	144.55
186.777	-33.62
186.997	56.49
187.216	-2.9
187.436	134.31
187.655	23.72
187.875	124.07
188.095	-4.95
188.314	126.12
188.534	56.49
188.753	25.77
188.973	132.26
189.192	189.61
189.412	29.87
189.631	-9.05
189.851	48.3
190.07	113.83
190.29	-19.29
190.509	-58.2
190.729	-2.9
190.948	173.22
191.168	257.19
191.387	111.78
191.607	19.63
191.826	50.35
192.045	66.73
192.265	83.11
192.484	81.07
192.704	9.39
192.923	21.67
193.142	205.99
193.362	183.46
193.581	134.31
193.8	91.31
194.02	177.32
194.239	25.77
194.458	74.92
194.678	38.06
194.897	38.06
195.116	-45.91
195.335	-2.9
195.555	105.64
195.774	42.15
195.993	146.6
196.212	5.29
196.432	58.54
196.651	3.24
196.87	81.07
197.089	197.8
197.308	85.16
197.528	103.59
197.747	-11.09
197.966	68.78
198.185	181.42
198.404	-78.68
198.623	191.66
198.842	165.03
199.062	117.93
199.281	124.07
199.5	13.48
199.719	52.39
199.938	60.59
200.157	46.25
200.376	95.4
200.595	52.39
200.814	113.83
201.033	42.15
201.252	152.74
201.471	58.54
201.69	95.4
201.909	15.53
202.128	111.78
202.347	62.63
202.566	52.39
202.785	-74.58
203.004	-52.05
203.223	275.62
203.442	42.15
203.661	23.72
203.879	62.63
204.098	68.78
204.317	11.43
204.536	101.55
204.755	85.16
204.974	74.92
205.193	21.67
205.411	122.02
205.63	95.4
205.849	70.83
206.068	89.26
206.287	-45.91
206.505	124.07
206.724	89.26
206.943	-39.76
207.162	25.77
207.381	113.83
207.599	62.63
207.818	87.21
208.037	3.24
208.255	33.96
208.474	42.15
208.693	62.63
208.911	1.19
209.13	115.88
209.349	144.55
209.567	76.97
209.786	93.35
210.005	150.7
210.223	54.44
210.442	-68.44
210.661	40.11
210.879	50.35
211.098	-21.33
211.316	130.22
211.535	66.73
211.753	-23.38
211.972	56.49
212.191	-17.24
212.409	23.72
212.628	48.3
212.846	-97.11
213.065	97.45
213.283	138.41
213.502	9.39
213.72	72.87
213.938	31.91
214.157	-7
214.375	140.46
214.594	-17.24
214.812	115.88
215.031	52.39
215.249	46.25
215.467	56.49
215.686	122.02
215.904	74.92
216.122	109.74
216.341	167.08
216.559	-0.85
216.778	115.88
216.996	91.31
217.214	-58.2
217.432	-60.24
217.651	-9.05
217.869	56.49
218.087	83.11
218.306	15.53
218.524	38.06
218.742	-7
218.96	76.97
219.179	60.59
219.397	72.87
219.615	244.9
219.833	130.22
220.051	-21.33
220.27	152.74
220.488	113.83
220.706	113.83
220.924	-68.44
221.142	33.96
221.36	29.87
221.578	140.46
221.796	-11.09
222.015	62.63
222.233	62.63
222.451	160.94
222.669	1.19
222.887	62.63
223.105	42.15
223.323	19.63
223.541	36.01
223.759	115.88
223.977	-9.05
224.195	132.26
224.413	119.98
224.631	38.06
224.849	101.55
225.067	187.56
225.285	27.82
225.503	-2.9
225.721	-43.86
225.939	46.25
226.157	-0.85
226.375	152.74
226.592	27.82
226.81	40.11
227.028	117.93
227.246	146.6
227.464	95.4
227.682	56.49
227.9	126.12
228.117	56.49
228.335	70.83
228.553	31.91
228.771	-47.96
228.989	38.06
229.206	19.63
229.424	-115.54
229.642	48.3
229.86	-52.05
230.077	191.66
230.295	81.07
230.513	132.26
230.731	74.92
230.948	126.12
231.166	208.04
231.384	58.54
231.601	11.43
231.819	224.42
232.037	29.87
232.254	29.87
232.472	93.35
232.689	-62.29
232.907	138.41
233.125	31.91
233.342	56.49
233.56	17.58
233.777	54.44
233.995	-56.15
234.213	152.74
234.43	113.83
234.648	38.06
234.865	38.06
235.083	122.02
235.3	83.11
235.518	115.88
235.735	124.07
235.953	76.97
236.17	-47.96
236.388	21.67
236.605	81.07
236.822	165.03
237.04	140.46
237.257	85.16
237.475	-29.52
237.692	25.77
237.909	66.73
238.127	36.01
238.344	48.3
238.562	31.91
238.779	-27.48
238.996	-47.96
239.214	70.83
239.431	72.87
239.648	11.43
239.865	50.35
240.083	81.07
240.3	83.11
240.517	-13.14
240.735	33.96
240.952	187.56
241.169	68.78
241.386	119.98
241.603	62.63
241.821	-52.05
242.038	70.83
242.255	148.65
242.472	-29.52
242.689	70.83
242.907	81.07
243.124	83.11
243.341	-0.85
243.558	-13.14
243.775	9.39
243.992	-52.05
244.209	87.21
244.426	214.18
244.643	29.87
244.86	-25.43
245.078	152.74
245.295	167.08
245.512	72.87
245.729	-29.52
245.946	189.61
246.163	50.35
246.38	1.19
246.597	85.16
246.814	50.35
247.031	-15.19
247.248	-43.86
247.464	38.06
247.681	44.2
247.898	87.21
248.115	101.55
248.332	-7
248.549	124.07
248.766	152.74
248.983	42.15
249.2	87.21
249.417	107.69
249.633	72.87
249.85	23.72
250.067	89.26
250.284	17.58
250.501	148.65
250.717	91.31
250.934	5.29
251.151	91.31
251.368	-27.48
251.585	83.11
251.801	105.64
252.018	19.63
252.235	160.94
252.451	-21.33
252.668	-4.95
252.885	140.46
253.102	-0.85
253.318	-64.34
253.535	27.82
253.752	23.72
253.968	60.59
254.185	-23.38
254.401	89.26
254.618	109.74
254.835	3.24
255.051	111.78
255.268	99.5
255.484	152.74
255.701	-37.72
255.917	31.91
256.134	17.58
256.351	62.63
256.567	-27.48
256.784	33.96
257	-43.86
257.217	183.46
257.433	148.65
257.65	50.35
257.866	191.66
258.082	-41.81
258.299	7.34
258.515	60.59
258.732	33.96
258.948	-11.09
259.165	38.06
259.381	-41.81
259.597	126.12
259.814	83.11
260.03	42.15
260.246	7.34
260.463	66.73
260.679	138.41
260.895	79.02
261.112	140.46
261.328	93.35
261.544	-107.35
261.761	156.84
261.977	-31.57
262.193	-19.29
262.409	126.12
262.626	103.59
262.842	38.06
263.058	54.44
263.274	44.2
263.49	33.96
263.707	97.45
263.923	205.99
264.139	-21.33
264.355	46.25
264.571	152.74
264.787	74.92
265.004	134.31
265.22	-45.91
265.436	-27.48
265.652	-2.9
265.868	5.29
266.084	-45.91
266.3	-4.95
266.516	48.3
266.732	40.11
266.948	74.92
267.164	-17.24
267.38	111.78
267.596	103.59
267.812	158.89
268.028	29.87
268.244	46.25
268.46	103.59
268.676	11.43
268.892	40.11
269.108	38.06
269.324	42.15
269.54	-25.43
269.756	144.55
269.972	-47.96
270.188	25.77
270.403	-31.57
270.619	50.35
270.835	72.87
271.051	-23.38
271.267	-4.95
271.483	15.53
271.698	130.22
271.914	93.35
272.13	15.53
272.346	7.34
272.562	85.16
272.777	154.79
272.993	42.15
273.209	-7
273.425	124.07
273.64	-74.58
273.856	165.03
274.072	-50
274.287	-11.09
274.503	5.29
274.719	91.31
274.934	54.44
275.15	-78.68
275.366	103.59
275.581	-84.82
275.797	-13.14
276.012	58.54
276.228	-17.24
276.444	-0.85
276.659	160.94
276.875	-9.05
277.09	-23.38
277.306	27.82
277.521	87.21
277.737	52.39
277.952	181.42
278.168	83.11
278.383	-13.14
278.599	79.02
278.814	99.5
279.03	58.54
279.245	70.83
279.461	50.35
279.676	158.89
279.892	-109.4
280.107	-82.77
280.322	-64.34
280.538	146.6
280.753	-70.48
280.969	89.26
281.184	93.35
281.399	175.27
281.615	44.2
281.83	58.54
282.045	-60.24
282.26	-4.95
282.476	-4.95
282.691	58.54
282.906	99.5
283.122	-15.19
283.337	-9.05
283.552	122.02
283.767	40.11
283.983	171.18
284.198	97.45
284.413	50.35
284.628	-23.38
284.843	58.54
285.058	105.64
285.274	48.3
285.489	-29.52
285.704	48.3
285.919	-66.39
286.134	89.26
286.349	72.87
286.564	7.34
286.779	160.94
286.995	31.91
287.21	-27.48
287.425	91.31
287.64	23.72
287.855	21.67
288.07	-33.62
288.285	103.59
288.5	197.8
288.715	87.21
288.93	36.01
289.145	21.67
289.36	173.22
289.575	-13.14
289.79	115.88
290.004	58.54
290.219	179.37
290.434	-0.85
290.649	23.72
290.864	54.44
291.079	-74.58
291.294	21.67
291.509	44.2
291.724	-15.19
291.938	-45.91
292.153	119.98
292.368	9.39
292.583	64.68
292.798	130.22
293.012	103.59
293.227	38.06
293.442	-41.81
293.657	201.9
293.871	83.11
294.086	119.98
294.301	154.79
294.516	126.12
294.73	66.73
294.945	66.73
295.16	64.68
295.374	74.92
295.589	62.63
295.804	-58.2
296.018	21.67
296.233	111.78
296.447	3.24
296.662	-43.86
296.877	124.07
297.091	7.34
297.306	-17.24
297.52	29.87
297.735	122.02
297.949	46.25
298.164	36.01
298.378	40.11
298.593	-17.24
298.807	-15.19
299.022	95.4
299.236	193.7
299.451	11.43
299.665	25.77
299.88	70.83
300.094	31.91
300.309	-47.96
300.523	74.92
300.737	-9.05
300.952	150.7
301.166	48.3
301.381	-4.95
301.595	-60.24
301.809	83.11
302.024	-7
302.238	-45.91
302.452	128.17
302.667	105.64
302.881	126.12
303.095	48.3
303.309	33.96
303.524	-74.58
303.738	46.25
303.952	52.39
304.166	46.25
304.381	-86.87
304.595	263.33
304.809	-17.24
305.023	44.2
305.237	-15.19
305.452	105.64
305.666	17.58
305.88	115.88
306.094	83.11
306.308	124.07
306.522	138.41
306.736	79.02
306.95	124.07
307.164	-7
307.379	48.3
307.593	62.63
307.807	105.64
308.021	46.25
308.235	152.74
308.449	-72.53
308.663	33.96
308.877	257.19
309.091	-7
309.305	19.63
309.519	-7
309.733	130.22
309.947	23.72
310.161	52.39
310.374	95.4
310.588	165.03
310.802	54.44
311.016	40.11
311.23	148.65
311.444	-4.95
311.658	9.39
311.872	111.78
312.085	79.02
312.299	165.03
312.513	52.39
312.727	93.35
312.941	-45.91
313.154	72.87
313.368	76.97
313.582	11.43
313.796	113.83
314.009	38.06
314.223	85.16
314.437	103.59
314.651	62.63
314.864	38.06
315.078	42.15
315.292	19.63
315.505	103.59
315.719	83.11
315.933	142.5
316.146	70.83
316.36	-2.9
316.573	160.94
316.787	142.5
317.001	56.49
317.214	-11.09
317.428	38.06
317.641	-27.48
317.855	-74.58
318.068	23.72
318.282	7.34
318.495	234.66
318.709	165.03
318.922	113.83
319.136	111.78
319.349	85.16
319.563	54.44
319.776	31.91
319.99	-60.24
320.203	64.68
320.417	91.31
320.63	175.27
320.843	234.66
321.057	15.53
321.27	-9.05
321.483	60.59
321.697	99.5
321.91	60.59
322.124	160.94
322.337	3.24
322.55	-0.85
322.763	58.54
322.977	64.68
323.19	3.24
323.403	11.43
323.617	97.45
323.83	113.83
324.043	-33.62
324.256	19.63
324.469	-37.72
324.683	113.83
324.896	56.49
325.109	60.59
325.322	40.11
325.535	89.26
325.748	79.02
325.962	11.43
326.175	91.31
326.388	99.5
326.601	115.88
326.814	50.35
327.027	42.15
327.24	134.31
327.453	-56.15
327.666	95.4
327.879	199.85
328.092	165.03
328.305	107.69
328.518	-29.52
328.731	3.24
328.944	103.59
329.157	66.73
329.37	13.48
329.583	169.13
329.796	160.94
330.009	-37.72
330.222	83.11
330.435	99.5
330.648	115.88
330.861	89.26
331.073	-13.14
331.286	17.58
331.499	-0.85
331.712	-90.96
331.925	70.83
332.138	17.58
332.35	103.59
332.563	29.87
332.776	93.35
332.989	-23.38
333.202	23.72
333.414	42.15
333.627	109.74
333.84	58.54
334.053	97.45
334.265	1.19
334.478	-86.87
334.691	31.91
334.903	17.58
335.116	-21.33
335.329	27.82
335.541	72.87
335.754	218.28
335.966	-37.72
336.179	46.25
336.392	74.92
336.604	-70.48
336.817	109.74
337.029	72.87
337.242	40.11
337.454	103.59
337.667	27.82
337.88	115.88
338.092	68.78
338.305	111.78
338.517	-47.96
338.729	70.83
338.942	201.9
339.154	-33.62
339.367	-35.67
339.579	146.6
339.792	-43.86
340.004	95.4
340.217	56.49
340.429	70.83
340.641	-15.19
340.854	56.49
341.066	56.49
341.278	79.02
341.491	165.03
341.703	79.02
341.915	-93.01
342.128	83.11
342.34	95.4
342.552	-41.81
342.764	48.3
342.977	128.17
343.189	93.35
343.401	-15.19
343.613	-7
343.826	85.16
344.038	-25.43
344.25	7.34
344.462	58.54
344.674	42.15
344.886	72.87
345.099	115.88
345.311	113.83
345.523	-9.05
345.735	-37.72
345.947	40.11
346.159	33.96
346.371	60.59
346.583	-25.43
346.795	240.81
347.007	5.29
347.219	38.06
347.431	-2.9
347.643	128.17
347.855	-41.81
348.067	103.59
348.279	-37.72
348.491	13.48
348.703	74.92
348.915	33.96
349.127	-0.85
349.339	154.79
349.551	29.87
349.763	103.59
349.975	62.63
350.187	115.88
350.399	181.42
350.61	89.26
350.822	60.59
351.034	85.16
351.246	27.82
351.458	72.87
351.669	50.35
351.881	103.59
352.093	181.42
352.305	136.36
352.517	56.49
352.728	115.88
352.94	91.31
353.152	85.16
353.363	-60.24
353.575	44.2
353.787	195.75
353.999	89.26
354.21	150.7
354.422	-11.09
354.633	72.87
354.845	124.07
355.057	97.45
355.268	60.59
355.48	72.87
355.692	11.43
355.903	31.91
356.115	79.02
356.326	-66.39
356.538	140.46
356.749	50.35
356.961	95.4
357.172	68.78
357.384	-43.86
357.595	187.56
357.807	36.01
358.018	-27.48
358.23	-21.33
358.441	195.75
358.653	74.92
358.864	44.2
359.075	-17.24
359.287	152.74
359.498	132.26
359.709	52.39
359.921	54.44
360.132	160.94
360.344	3.24
360.555	1.19
360.766	79.02
360.977	21.67
361.189	171.18
361.4	-41.81
361.611	48.3
361.823	167.08
362.034	54.44
362.245	-107.35
362.456	-15.19
362.667	66.73
362.879	38.06
363.09	99.5
363.301	122.02
363.512	79.02
363.723	-88.92
363.935	-41.81
364.146	117.93
364.357	25.77
364.568	27.82
364.779	-50
364.99	144.55
365.201	-37.72
365.412	122.02
365.623	-17.24
365.834	117.93
366.045	74.92
366.256	124.07
366.467	74.92
366.678	31.91
366.889	33.96
367.1	-13.14
367.311	105.64
367.522	-23.38
367.733	79.02
367.944	70.83
368.155	87.21
368.366	173.22
368.577	146.6
368.788	189.61
368.999	25.77
369.209	25.77
369.42	210.09
369.631	246.95
369.842	105.64
370.053	66.73
370.264	144.55
370.474	-64.34
370.685	126.12
370.896	7.34
371.107	216.23
371.317	105.64
371.528	23.72
371.739	169.13
371.95	132.26
372.16	148.65
372.371	-50
372.582	-17.24
372.792	91.31
373.003	70.83
373.214	97.45
373.424	140.46
373.635	38.06
373.846	122.02
374.056	-4.95
374.267	46.25
374.477	81.07
374.688	-9.05
374.898	99.5
375.109	11.43
375.319	101.55
375.53	23.72
375.74	85.16
375.951	-58.2
376.161	93.35
376.372	111.78
376.582	-58.2
376.793	122.02
377.003	1.19
377.214	-19.29
377.424	89.26
377.635	21.67
377.845	19.63
378.055	199.85
378.266	11.43
378.476	101.55
378.686	83.11
378.897	101.55
379.107	38.06
379.317	46.25
379.528	-19.29
379.738	56.49
379.948	-2.9
380.158	113.83
380.369	48.3
380.579	136.36
380.789	81.07
380.999	25.77
381.21	150.7
381.42	165.03
381.63	62.63
381.84	138.41
382.05	138.41
382.261	210.09
382.471	220.33
382.681	62.63
382.891	203.94
383.101	29.87
383.311	-31.57
383.521	29.87
383.731	70.83
383.941	107.69
384.151	54.44
384.361	42.15
384.571	64.68
384.781	54.44
384.991	179.37
385.201	165.03
385.411	99.5
385.621	115.88
385.831	7.34
386.041	11.43
386.251	-43.86
386.461	85.16
386.671	-11.09
386.881	132.26
387.091	33.96
387.301	25.77
387.511	-4.95
387.72	76.97
387.93	189.61
388.14	-47.96
388.35	48.3
388.56	142.5
388.769	126.12
388.979	13.48
389.189	50.35
389.399	48.3
389.609	70.83
389.818	62.63
390.028	128.17
390.238	93.35
390.447	7.34
390.657	117.93
390.867	62.63
391.076	-68.44
391.286	56.49
391.496	23.72
391.705	-15.19
391.915	152.74
392.125	101.55
392.334	40.11
392.544	179.37
392.753	1.19
392.963	33.96
393.172	52.39
393.382	-11.09
393.591	193.7
393.801	-2.9
394.01	142.5
394.22	11.43
394.429	-58.2
394.639	54.44
394.848	42.15
395.058	103.59
395.267	-11.09
395.477	60.59
395.686	138.41
395.895	214.18
396.105	183.46
396.314	117.93
396.524	19.63
396.733	-41.81
396.942	162.98
397.152	99.5
397.361	76.97
397.57	-37.72
397.78	56.49
397.989	124.07
398.198	197.8
398.407	50.35
398.617	56.49
398.826	40.11
399.035	33.96
399.244	156.84
399.453	13.48
399.663	58.54
399.872	111.78
400.081	58.54
400.29	158.89
400.499	13.48
400.708	124.07
400.917	42.15
401.127	36.01
401.336	-2.9
401.545	177.32
401.754	107.69
401.963	64.68
402.172	-80.72
402.381	-7
402.59	25.77
402.799	60.59
403.008	52.39
403.217	27.82
403.426	60.59
403.635	31.91
403.844	31.91
404.053	21.67
404.262	83.11
404.471	183.46
404.68	-21.33
404.888	74.92
405.097	99.5
405.306	62.63
405.515	119.98
405.724	48.3
405.933	58.54
406.142	105.64
406.35	130.22
406.559	117.93
406.768	97.45
406.977	195.75
407.185	33.96
407.394	48.3
407.603	-88.92
407.812	72.87
408.02	146.6
408.229	52.39
408.438	150.7
408.646	-111.44
408.855	62.63
409.064	144.55
409.272	21.67
409.481	50.35
409.69	-15.19
409.898	-31.57
410.107	175.27
410.315	140.46
410.524	58.54
410.733	48.3
410.941	52.39
411.15	130.22
411.358	117.93
411.567	144.55
411.775	62.63
411.984	40.11
412.192	74.92
412.401	85.16
412.609	201.9
412.818	83.11
413.026	146.6
413.234	64.68
413.443	-9.05
413.651	-50
413.86	-19.29
414.068	162.98
414.276	240.81
414.485	9.39
414.693	85.16
414.901	134.31
415.11	142.5
415.318	46.25
415.526	46.25
415.734	124.07
415.943	74.92
416.151	27.82
416.359	89.26
416.567	58.54
416.776	142.5
416.984	150.7
417.192	144.55
417.4	134.31
417.608	36.01
417.817	15.53
418.025	138.41
418.233	205.99
418.441	38.06
418.649	3.24
418.857	124.07
419.065	140.46
419.273	1.19
419.481	93.35
419.689	83.11
419.897	56.49
420.105	50.35
420.313	79.02
420.521	205.99
420.729	95.4
420.937	-43.86
421.145	-19.29
421.353	177.32
421.561	212.14
421.769	87.21
421.977	29.87
422.185	195.75
422.393	-35.67
422.601	189.61
422.809	119.98
423.017	105.64
423.224	87.21
423.432	113.83
423.64	117.93
423.848	195.75
424.056	52.39
424.263	140.46
424.471	62.63
424.679	187.56
424.887	-50
425.094	95.4
425.302	126.12
425.51	99.5
425.718	203.94
425.925	40.11
426.133	50.35
426.341	285.86
426.548	87.21
426.756	62.63
426.964	64.68
427.171	9.39
427.379	171.18
427.586	29.87
427.794	158.89
428.001	169.13
428.209	54.44
428.417	203.94
428.624	101.55
428.832	117.93
429.039	66.73
429.247	42.15
429.454	99.5
429.662	261.29
429.869	117.93
430.076	83.11
430.284	148.65
430.491	208.04
430.699	152.74
430.906	246.95
431.114	165.03
431.321	142.5
431.528	236.71
431.736	160.94
431.943	175.27
432.15	175.27
432.358	128.17
432.565	296.1
432.772	44.2
432.979	244.9
433.187	146.6
433.394	226.47
433.601	179.37
433.808	279.72
434.016	257.19
434.223	242.85
434.43	171.18
434.637	302.25
434.844	285.86
435.052	201.9
435.259	337.06
435.466	330.92
435.673	222.38
435.88	253.09
436.087	292.01
436.294	285.86
436.501	390.31
436.708	308.39
436.915	367.78
437.122	242.85
437.329	351.4
437.537	367.78
437.743	335.01
437.95	437.41
438.157	394.4
438.364	386.21
438.571	384.16
438.778	472.23
438.985	435.36
439.192	386.21
439.399	443.56
439.606	443.56
439.813	560.29
440.02	576.67
440.227	621.73
440.433	595.11
440.64	568.48
440.847	521.38
441.054	550.05
441.261	693.41
441.467	582.82
441.674	550.05
441.881	685.22
442.088	652.45
442.294	687.26
442.501	738.46
442.708	955.55
442.914	758.94
443.121	771.23
443.328	877.73
443.534	906.4
443.741	849.05
443.948	832.67
444.154	906.4
444.361	1078.43
444.568	908.44
444.774	1012.89
444.981	943.26
445.187	1227.93
445.394	1172.63
445.6	1148.06
445.807	1236.12
446.013	1209.5
446.22	1203.35
446.426	1453.2
446.633	1414.29
446.839	1604.75
447.046	1440.92
447.252	1614.99
447.459	1557.65
447.665	1522.84
447.871	1787.02
448.078	1848.46
448.284	1807.5
448.491	1901.71
448.697	1973.39
448.903	2145.42
449.11	2143.37
449.316	2213
449.522	2364.55
449.728	2423.94
449.935	2446.47
450.141	2452.61
450.347	2741.38
450.553	2563.2
450.76	2686.08
450.966	2813.06
451.172	2901.12
451.378	3007.61
451.584	3230.84
451.791	3290.23
451.997	3370.1
452.203	3331.19
452.409	3634.29
452.615	3781.74
452.821	3746.93
453.027	3783.79
453.233	4291.69
453.44	3953.77
453.646	4324.46
453.852	4508.77
454.058	4658.28
454.264	4682.85
454.47	5106.78
454.676	5100.64
454.882	5569.62
455.088	5440.6
455.294	5674.07
455.5	6181.96
455.705	6368.33
455.911	6349.9
456.117	6755.4
456.323	6954.05
456.529	6757.44
456.735	7531.58
456.941	7535.67
457.147	7875.63
457.352	8041.52
457.558	8318
457.764	8793.12
457.97	9114.66
458.176	9554.97
458.381	10023.95
458.587	10208.27
458.793	10558.47
458.999	10742.79
459.204	11869.17
459.41	12602.35
459.616	12360.69
459.821	13057
460.027	13501.4
460.233	14375.89
460.438	14330.83
460.644	15086.53
460.85	15182.79
461.055	15680.44
461.261	16382.9
461.466	16128.95
461.672	16778.15
461.878	18312.08
462.083	18287.51
462.289	18750.35
462.494	19417.99
462.7	19452.8
462.905	20185.97
463.111	21232.49
463.316	22545.23
463.522	22932.3
463.727	23599.94
463.932	24554.29
464.138	25144.11
464.343	26434.33
464.549	26354.46
464.754	28513.02
464.959	29272.81
465.165	29491.94
465.37	29418.22
465.575	29354.73
465.781	31218.38
465.986	31978.18
466.191	31490.76
466.397	32420.54
466.602	31294.16
466.807	33102.51
467.012	33643.18
467.218	34388.64
467.423	34577.05
467.628	35297.94
467.833	36807.29
468.038	36145.8
468.244	35580.56
468.449	37663.34
468.654	36827.77
468.859	36432.51
469.064	36719.23
469.269	36227.71
469.474	35981.96
469.679	37356.14
469.885	35703.43
470.09	36584.06
470.295	36833.91
470.5	36055.68
470.705	36029.06
470.91	35189.39
471.115	35000.98
471.32	35488.4
471.525	35375.76
471.73	33925.8
471.935	34212.51
472.139	32598.71
472.344	32463.55
472.549	32365.24
472.754	31791.81
472.959	30935.76
473.164	29942.5
473.369	29604.58
473.574	30581.46
473.778	29657.83
473.983	28947.18
474.188	28945.14
474.393	27519.75
474.598	27323.15
474.802	26673.94
475.007	26286.87
475.212	25940.77
475.417	25101.1
475.621	24875.82
475.826	24587.06
476.031	24099.64
476.235	23352.13
476.44	23362.37
476.645	22637.39
476.849	22838.09
477.054	22408.02
477.259	21689.18
477.463	21594.98
477.668	21392.23
477.872	20769.65
478.077	20478.83
478.282	19751.81
478.486	19794.81
478.691	19561.34
478.895	19305.35
479.1	19264.39
479.304	19100.55
479.509	18441.11
479.713	18979.72
479.918	18449.3
480.122	17961.88
480.326	18105.24
480.531	18011.03
480.735	17777.56
480.94	17517.47
481.144	18154.39
481.348	17292.19
481.553	17460.13
481.757	16612.27
481.961	16919.46
482.166	17093.54
482.37	16892.84
482.574	16415.66
482.778	16319.41
482.983	16649.13
483.187	16352.18
483.391	16243.63
483.595	16153.52
483.8	15840.18
484.004	15827.9
484.208	15870.9
484.412	15610.81
484.616	15465.41
484.821	15027.14
485.025	14535.63
485.229	15092.68
485.433	14597.07
485.637	14752.71
485.841	14179.28
486.045	14177.23
486.249	14035.92
486.453	13726.68
486.657	13689.82
486.861	13419.49
487.065	13145.06
487.269	13134.82
487.473	12585.96
487.677	12790.76
487.881	12682.22
488.085	11875.32
488.289	11998.2
488.493	11713.53
488.697	11625.47
488.901	11512.83
489.105	11058.18
489.309	11035.65
489.512	10837
489.716	10707.98
489.92	10525.71
490.124	10122.26
490.328	10232.85
490.531	9911.32
490.735	9978.9
490.939	9464.86
491.143	9307.16
491.346	9311.26
491.55	9176.09
491.754	8860.71
491.958	9008.16
492.161	8862.76
492.365	8311.85
492.569	8520.74
492.772	8328.24
492.976	8076.34
493.18	8076.34
493.383	8059.95
493.587	7810.1
493.79	7836.72
493.994	7547.96
494.197	7570.49
494.401	7570.49
494.605	7457.85
494.808	7480.38
495.012	7599.16
495.215	7435.32
495.419	7330.87
495.622	7115.84
495.825	7183.42
496.029	7191.61
496.232	7306.3
496.436	6960.19
496.639	7242.81
496.843	7074.88
497.046	6984.77
497.249	7242.81
497.453	7089.21
497.656	7117.89
497.859	7087.17
498.063	7210.04
498.266	7253.05
498.469	7066.69
498.673	7115.84
498.876	7281.72
499.079	7238.72
499.282	7187.52
499.485	7523.38
499.689	7349.31
499.892	7496.76
500.095	7425.08
500.298	7498.81
500.501	7314.49
500.705	7715.89
500.908	7504.95
501.111	7629.88
501.314	7883.83
501.517	7930.93
501.72	8070.19
501.923	7955.51
502.126	8184.88
502.329	8469.55
502.532	8371.24
502.735	8451.11
502.938	8606.76
503.141	8805.41
503.344	8723.49
503.547	8938.53
503.75	8748.07
503.953	9008.16
504.156	9358.36
504.359	9409.56
504.562	9536.54
504.765	9640.98
504.968	9718.81
505.17	9774.1
505.373	10011.67
505.576	10179.6
505.779	10472.46
505.982	10607.62
506.185	10933.25
506.387	10875.91
506.59	11138.05
506.793	11195.39
506.996	11351.04
507.198	12016.63
507.401	11959.28
507.604	12289.01
507.807	12522.48
508.009	12844.01
508.212	13054.95
508.415	13388.77
508.617	13544.41
508.82	13732.83
509.022	13765.59
509.225	14535.63
509.428	14494.67
509.63	15051.72
509.833	15115.2
510.035	15760.31
510.238	16096.18
510.44	16262.07
510.643	16743.34
510.845	17322.91
511.048	17195.94
511.25	17589.15
511.453	17931.16
511.655	18953.1
511.858	19063.69
512.06	19403.65
512.262	19919.74
512.465	20159.35
512.667	20624.24
512.87	21414.76
513.072	21590.88
513.274	22412.12
513.477	22747.98
513.679	23083.85
513.881	23960.38
514.084	24380.21
514.286	25205.55
514.488	25342.76
514.69	25963.29
514.893	26436.38
515.095	26919.7
515.297	27788.03
515.499	28525.3
515.701	28916.47
515.904	29563.62
516.106	30413.53
516.308	30794.45
516.51	31607.5
516.712	31615.69
516.914	32748.21
517.116	33137.33
517.318	33741.48
517.52	34648.73
517.722	35060.37
517.925	36051.59
518.127	36723.32
518.329	37737.07
518.531	37362.29
518.733	38662.75
518.935	39139.93
519.136	39488.08
519.338	40774.2
519.54	40708.67
519.742	41294.39
519.944	42449.44
520.146	43110.94
520.348	43432.47
520.55	43825.68
520.752	44169.74
520.954	45148.67
521.155	45412.85
521.357	45824.5
521.559	47069.66
521.761	47589.84
521.963	47653.33
522.164	48210.38
522.366	48503.24
522.568	49189.31
522.77	49404.34
522.971	50186.67
523.173	49942.96
523.375	50700.71
523.576	50489.77
523.778	50880.93
523.98	51521.94
524.181	51511.7
524.383	51270.04
524.584	52251.02
524.786	52035.98
524.988	51861.91
525.189	52756.87
525.391	52380.04
525.592	52388.24
525.794	52652.42
525.995	52584.84
526.197	52584.84
526.398	52494.73
526.6	52615.56
526.801	52269.45
527.003	52576.65
527.204	52214.16
527.406	52351.37
527.607	52140.43
527.808	52447.63
528.01	50891.17
528.211	50586.02
528.412	51382.68
528.614	51091.87
528.815	50248.11
529.016	50764.2
529.218	49582.52
529.419	49412.54
529.62	49220.03
529.822	48921.02
530.023	48241.1
530.224	47806.93
530.425	47501.78
530.626	46862.82
530.828	46346.73
531.029	46518.76
531.23	45539.83
531.431	44796.42
531.632	44624.39
531.833	44427.78
532.035	43751.95
532.236	43268.63
532.437	42689.06
532.638	42326.56
532.839	41765.42
533.04	41335.35
533.241	40284.74
533.442	40913.47
533.643	40071.75
533.844	39178.84
534.045	38904.41
534.246	38027.88
534.447	37569.13
534.648	37239.41
534.849	37145.2
535.05	36424.32
535.251	35932.81
535.451	35371.66
535.652	35050.13
535.853	34536.09
536.054	34282.14
536.255	33589.93
536.456	32864.95
536.657	33264.3
536.857	31904.45
537.058	31670.98
537.259	31705.8
537.46	31009.49
537.66	30706.39
537.861	30356.19
538.062	30026.46
538.263	29514.47
538.463	29053.68
538.664	28572.41
538.865	28087.04
539.065	28343.03
539.266	27271.95
539.466	27640.58
539.667	26688.28
539.868	27173.64
540.068	26479.38
540.269	26170.14
540.469	26037.02
540.67	25471.78
540.87	25492.26
541.071	24904.49
541.271	24843.06
541.472	24404.79
541.672	24095.55
541.873	23610.18
542.073	23362.37
542.274	23552.84
542.474	23075.66
542.675	22860.62
542.875	22666.06
543.075	22352.73
543.276	21594.98
543.476	22057.82
543.676	21572.45
543.877	21420.9
544.077	21214.05
544.277	20833.13
544.478	20886.38
544.678	20568.94
544.878	20204.41
545.078	19975.03
545.279	19706.75
545.479	19489.67
545.679	19325.83
545.879	19340.16
546.079	18731.92
546.28	18410.39
546.48	18344.85
546.68	18295.7
546.88	18181.01
547.08	18160.53
547.28	17886.11
547.48	17154.98
547.68	17533.86
547.88	17204.13
548.081	16929.7
548.281	16487.34
548.481	16358.32
548.681	16362.42
548.881	15965.11
549.081	15893.43
549.28	15489.98
549.48	15600.57
549.68	15135.68
549.88	15242.18
550.08	14724.04
550.28	14646.22
550.48	14674.89
550.68	14320.59
550.88	14013.4
551.08	13855.7
551.279	13855.7
551.479	13495.26
551.679	13386.72
551.879	13022.18
552.079	12973.03
552.278	12719.08
552.478	12573.67
552.678	12528.62
552.878	12205.04
553.077	11918.32
553.277	11695.1
553.477	11760.63
553.676	11664.38
553.876	11172.86
554.076	10873.86
554.275	10845.19
554.475	10576.91
554.674	10724.36
554.874	10372.11
555.074	10224.65
555.273	10026
555.473	10021.91
555.672	9692.18
555.872	9686.04
556.071	9503.77
556.271	9593.88
556.47	9251.87
556.67	8909.86
556.869	8883.24
557.068	8860.71
557.268	8563.75
557.467	8281.13
557.667	8463.4
557.866	8094.77
558.065	7889.97
558.265	7844.91
558.464	7857.2
558.663	7801.91
558.863	7412.79
559.062	7640.12
559.261	7255.1
559.461	7312.44
559.66	7076.93
559.859	7015.49
560.058	6730.82
560.258	6747.2
560.457	6618.18
560.656	6614.09
560.855	6227.02
561.054	6282.31
561.253	6036.56
561.453	6028.37
561.652	6130.77
561.851	6138.96
562.05	5848.15
562.249	5745.75
562.448	5862.48
562.647	5424.22
562.846	5413.98
563.045	5452.89
563.244	5370.97
563.443	5383.26
563.642	5033.05
563.841	5174.36
564.04	5067.87
564.239	5026.91
564.438	4734.05
564.637	4828.26
564.836	4779.11
565.035	4463.72
565.234	4447.33
565.432	4496.49
565.631	4447.33
565.83	4359.27
566.029	4301.93
566.228	4363.37
566.427	4379.75
566.625	4025.45
566.824	4035.69
567.023	4045.93
567.222	4121.71
567.42	3851.38
567.619	3892.34
567.818	3781.74
568.016	3923.05
568.215	3767.41
568.414	3673.2
568.612	3525.75
568.811	3533.94
569.01	3656.82
569.208	3447.93
569.407	3474.55
569.605	3372.15
569.804	3320.95
570.002	3196.03
570.201	3134.59
570.4	3284.09
570.598	3146.87
570.797	3038.33
570.995	2966.65
571.193	3038.33
571.392	2935.93
571.59	2856.06
571.789	2843.78
571.987	2925.69
572.186	2864.25
572.384	2681.99
572.582	2813.06
572.781	2628.74
572.979	2651.27
573.177	2563.2
573.376	2544.77
573.574	2526.34
573.772	2374.79
573.971	2356.36
574.169	2311.3
574.367	2362.5
574.565	2245.77
574.763	2303.11
574.962	2163.85
575.16	2299.02
575.358	2124.94
575.556	2184.33
575.754	2110.6
575.952	2122.89
576.151	2135.18
576.349	2024.59
576.547	1961.1
576.745	2098.31
576.943	1959.05
577.141	1866.89
577.339	1778.83
577.537	1830.03
577.735	1916.05
577.933	1858.7
578.131	1594.51
578.329	1850.51
578.527	1508.5
578.725	1754.26
578.923	1535.12
579.121	1641.62
579.319	1483.92
579.516	1588.37
579.714	1725.58
579.912	1524.88
580.11	1404.05
580.308	1406.1
580.506	1424.53
580.704	1309.85
580.901	1526.93
581.099	1502.36
581.297	1430.68
581.495	1385.62
581.692	1221.78
581.89	1315.99
582.088	1334.42
582.285	1168.54
582.483	1227.93
582.681	1164.44
582.878	1156.25
583.076	1176.73
583.274	1189.02
583.471	1461.4
583.669	1105.05
583.866	953.5
584.064	1057.95
584.262	1057.95
584.459	996.51
584.657	1119.39
584.854	1064.09
585.052	1123.48
585.249	1016.99
585.447	1045.66
585.644	861.34
585.841	1051.8
586.039	986.27
586.236	1096.86
586.434	978.08
586.631	959.64
586.828	799.9
587.026	859.29
587.223	810.14
587.42	836.77
587.618	912.54
587.815	939.16
588.012	830.62
588.21	771.23
588.407	941.21
588.604	830.62
588.801	693.41
588.999	832.67
589.196	867.49
589.393	728.22
589.59	679.07
589.787	830.62
589.984	781.47
590.182	847.01
590.379	711.84
590.576	820.38
590.773	644.26
590.97	791.71
591.167	783.52
591.364	740.51
591.561	711.84
591.758	842.91
591.955	736.42
592.152	709.79
592.349	746.66
592.546	763.04
592.743	689.31
592.94	656.54
593.137	717.98
593.334	871.58
593.531	806.05
593.727	826.53
593.924	754.85
594.121	691.36
594.318	765.09
594.515	681.12
594.712	795.81
594.908	904.35
595.105	636.06
595.302	818.33
595.499	775.33
595.696	847.01
595.892	769.18
596.089	892.06
596.286	818.33
596.482	992.41
596.679	885.92
596.876	869.53
597.072	1008.8
597.269	902.3
597.466	902.3
597.662	1029.27
597.859	1006.75
598.055	1070.23
598.252	1150.11
598.448	1174.68
598.645	1109.15
598.841	1189.02
599.038	1391.77
599.234	1258.65
599.431	1277.08
599.627	1449.11
599.824	1496.21
600.02	1414.29
600.217	1391.77
600.413	1627.28
600.609	1666.19
600.806	2008.2
601.002	1893.52
601.198	1645.71
601.395	1866.89
601.591	1969.29
601.787	2030.73
601.984	2067.6
602.18	2282.63
602.376	2227.34
602.572	2372.74
602.769	2423.94
602.965	2401.41
603.161	2733.18
603.357	2667.65
603.553	3019.9
603.75	2954.37
603.946	2999.42
604.142	3044.48
604.338	3245.18
604.534	3204.22
604.73	3284.09
604.926	3406.97
605.122	3693.68
605.318	3642.48
605.514	3794.03
605.71	3875.95
605.906	3914.86
606.102	4113.52
606.298	4322.41
606.494	4480.1
606.69	4426.86
606.886	4602.98
607.082	4738.15
607.278	4901.98
607.474	5117.02
607.67	5078.11
607.866	5358.68
608.062	5497.94
608.257	5737.56
608.453	5602.39
608.649	5911.63
608.845	5903.44
609.041	6083.66
609.236	6224.97
609.432	6556.74
609.628	6810.69
609.824	6929.47
610.019	7048.26
610.215	7275.58
610.411	7500.86
610.606	7705.65
610.802	7814.2
610.998	7947.31
611.193	8221.74
611.389	8459.31
611.584	8715.3
611.78	8651.81
611.976	8987.68
612.171	9448.47
612.367	9593.88
612.562	9813.01
612.758	10116.11
612.953	10185.74
613.149	10750.98
613.344	10755.08
613.539	10968.07
613.735	11461.63
613.93	11881.46
614.126	11924.47
614.321	12284.91
614.517	12887.01
614.712	12596.2
614.907	13253.6
615.103	13704.15
615.298	13687.77
615.493	14463.95
615.688	14631.88
615.884	15289.28
616.079	15197.12
616.274	15875
616.47	16044.98
616.665	16575.41
616.86	17218.47
617.055	17367.97
617.25	17648.54
617.445	18453.39
617.641	18768.78
617.836	19430.27
618.031	19217.29
618.226	20220.79
618.421	20382.58
618.616	21240.68
618.811	21267.3
619.006	22448.98
619.201	22096.73
619.396	23008.08
619.591	22975.31
619.786	24019.77
619.981	24261.43
620.176	25127.72
620.371	25389.86
620.566	26073.88
620.761	26442.52
620.956	27249.42
621.151	27253.51
621.346	28068.61
621.541	28173.05
621.735	29438.7
621.93	29340.39
622.125	30466.78
622.32	30401.24
622.515	31066.83
622.709	31861.44
622.904	32387.77
623.099	33000.12
623.294	33639.08
623.488	33661.61
623.683	34548.38
623.878	34632.35
624.072	35875.46
624.267	35990.15
624.462	36833.91
624.656	37059.19
624.851	37767.79
625.046	38201.96
625.24	38636.13
625.435	39174.74
625.629	39907.91
625.824	40077.9
626.018	40964.67
626.213	40393.28
626.407	41488.95
626.602	41665.07
626.796	42664.48
626.991	43125.27
627.185	42932.76
627.38	43272.73
627.574	43047.45
627.768	43477.52
627.963	43622.93
628.157	43643.41
628.352	43837.97
628.546	43303.45
628.74	44384.77
628.935	43524.63
629.129	43917.84
629.323	42912.28
629.517	42816.03
629.712	42764.83
629.906	42431.01
630.1	41564.72
630.294	41611.82
630.489	40405.57
630.683	40251.97
630.877	39137.88
631.071	38769.24
631.265	38507.1
631.459	37286.51
631.653	36559.48
631.848	35246.74
632.042	34511.52
632.236	33946.28
632.43	32658.1
632.624	31836.87
632.818	31083.22
633.012	29518.57
633.206	28801.78
633.4	28361.47
633.594	26686.23
633.788	25985.82
633.982	25522.98
634.176	24689.46
634.369	23329.61
634.563	22543.19
634.757	21562.21
634.951	21156.71
635.145	20145.02
635.339	19205
635.533	18396.05
635.726	17796
635.92	16776.11
636.114	16333.75
636.308	15479.74
636.501	14957.51
636.695	14494.67
636.889	13493.21
637.083	12940.26
637.276	12309.49
637.47	11957.24
637.664	11547.64
637.857	11244.54
638.051	10746.89
638.244	10435.6
638.438	9856.02
638.632	9579.54
638.825	8979.49
639.019	9006.11
639.212	8281.13
639.406	7896.11
639.599	7494.71
639.793	7390.27
639.986	7171.13
640.18	7001.15
640.373	6413.38
640.567	6505.54
640.76	6155.34
640.954	5891.15
641.147	5688.4
641.34	5579.86
641.534	5278.81
641.727	5162.08
641.92	4949.09
642.114	4736.1
642.307	4465.77
642.5	4308.07
642.694	4195.43
642.887	3990.64
643.08	3906.67
643.273	3624.05
643.467	3556.47
643.66	3372.15
643.853	3363.96
644.046	3087.48
644.239	2960.51
644.432	2909.31
644.626	2698.37
644.819	2606.21
645.012	2641.03
645.205	2608.26
645.398	2540.68
645.591	2249.86
645.784	2167.95
645.977	2096.27
646.17	2018.44
646.363	1922.19
646.556	1860.75
646.749	1846.41
646.942	1793.17
647.135	1821.84
647.328	1590.42
647.521	1584.27
647.714	1490.07
647.907	1459.35
648.099	1315.99
648.292	1436.82
648.485	1223.83
648.678	1266.84
648.871	1172.63
649.064	1123.48
649.256	1129.63
649.449	1033.37
649.642	980.12
649.835	967.84
650.027	890.01
650.22	1008.8
650.413	904.35
650.605	879.77
650.798	799.9
650.991	808.09
651.183	720.03
651.376	724.13
651.568	748.7
651.761	713.89
651.954	709.79
652.146	623.78
652.339	689.31
652.531	668.83
652.724	634.02
652.916	584.87
653.109	543.91
653.301	613.54
653.494	601.25
653.686	511.14
653.879	636.06
654.071	580.77
654.263	382.12
654.456	418.98
654.648	453.8
654.84	435.36
655.033	410.79
655.225	519.33
655.417	359.59
655.61	521.38
655.802	470.18
655.994	531.62
656.186	357.54
656.379	482.47
656.571	337.06
656.763	335.01
656.955	281.77
657.148	275.62
657.34	382.12
657.532	302.25
657.724	292.01
657.916	271.53
658.108	418.98
658.3	386.21
658.492	388.26
658.684	140.46
658.876	396.45
659.068	216.23
659.26	167.08
659.452	156.84
659.644	267.43
659.836	351.4
660.028	259.24
660.22	249
660.412	314.53
660.604	187.56
660.796	277.67
660.988	251.05
661.18	253.09
661.372	320.68
661.563	199.85
661.755	197.8
661.947	72.87
662.139	177.32
662.331	230.57
662.522	228.52
662.714	156.84
662.906	81.07
663.097	249
663.289	130.22
663.481	-13.14
663.673	230.57
663.864	201.9
664.056	154.79
664.247	165.03
664.439	230.57
664.631	160.94
664.822	279.72
665.014	87.21
665.205	44.2
665.397	117.93
665.588	175.27
665.78	119.98
665.971	253.09
666.163	130.22
666.354	146.6
666.546	140.46
666.737	111.78
666.929	105.64
667.12	146.6
667.311	181.42
667.503	146.6
667.694	136.36
667.885	132.26
668.077	226.47
668.268	36.01
668.459	134.31
668.651	140.46
668.842	212.14
669.033	93.35
669.224	99.5
669.416	294.05
669.607	130.22
669.798	56.49
669.989	283.81
670.18	162.98
670.371	138.41
670.563	85.16
670.754	230.57
670.945	132.26
671.136	189.61
671.327	38.06
671.518	197.8
671.709	283.81
671.9	224.42
672.091	193.7
672.282	83.11
672.473	101.55
672.664	1.19
672.855	66.73
673.046	228.52
673.237	162.98
673.428	136.36
673.619	185.51
673.809	42.15
674	232.62
674.191	246.95
674.382	148.65
674.573	126.12
674.764	79.02
674.954	222.38
675.145	138.41
675.336	162.98
675.527	85.16
675.717	105.64
675.908	160.94
676.099	167.08
676.289	103.59
676.48	-7
676.671	107.69
676.861	173.22
677.052	216.23
677.243	144.55
677.433	64.68
677.624	220.33
677.814	130.22
678.005	91.31
678.195	281.77
678.386	152.74
678.576	134.31
678.767	60.59
678.957	169.13
679.148	189.61
679.338	277.67
679.529	216.23
679.719	119.98
679.909	208.04
680.1	269.48
680.29	156.84
680.481	113.83
680.671	224.42
680.861	208.04
681.052	158.89
681.242	144.55
681.432	142.5
681.622	249
681.813	83.11
682.003	171.18
682.193	111.78
682.383	191.66
682.573	205.99
682.764	203.94
682.954	230.57
683.144	330.92
683.334	189.61
683.524	142.5
683.714	181.42
683.904	183.46
684.094	183.46
684.284	224.42
684.474	257.19
684.664	275.62
684.854	242.85
685.044	109.74
685.234	214.18
685.424	222.38
685.614	109.74
685.804	263.33
685.994	289.96
686.184	140.46
686.374	240.81
686.564	224.42
686.753	107.69
686.943	140.46
687.133	205.99
687.323	193.7
687.513	210.09
687.702	183.46
687.892	162.98
688.082	273.57
688.272	302.25
688.461	257.19
688.651	257.19
688.841	283.81
689.03	117.93
689.22	179.37
689.41	242.85
689.599	246.95
689.789	210.09
689.979	232.62
690.168	146.6
690.358	283.81
690.547	179.37
690.737	300.2
690.926	230.57
691.116	255.14
691.305	298.15
691.495	226.47
691.684	156.84
691.874	117.93
692.063	181.42
692.252	267.43
692.442	298.15
692.631	261.29
692.82	165.03
693.01	193.7
693.199	236.71
693.388	259.24
693.578	179.37
693.767	197.8
693.956	265.38
694.146	124.07
694.335	244.9
694.524	199.85
694.713	298.15
694.902	175.27
695.092	122.02
695.281	314.53
695.47	132.26
695.659	189.61
695.848	210.09
696.037	158.89
696.226	310.44
696.415	171.18
696.604	390.31
696.793	310.44
696.982	181.42
697.171	359.59
697.36	136.36
697.549	197.8
697.738	152.74
697.927	140.46
698.116	148.65
698.305	283.81
698.494	285.86
698.683	177.32
698.872	398.5
699.061	246.95
699.25	222.38
699.438	216.23
699.627	232.62
699.816	343.21
700.005	126.12
700.193	197.8
700.382	296.1
700.571	162.98
700.76	275.62
700.948	238.76
701.137	195.75
701.326	222.38
701.514	156.84
701.703	265.38
701.892	220.33
702.08	394.4
702.269	261.29
702.457	173.22
702.646	208.04
702.834	183.46
703.023	201.9
703.212	271.53
703.4	244.9
703.589	72.87
703.777	111.78
703.965	193.7
704.154	218.28
704.342	177.32
704.531	224.42
704.719	279.72
704.907	289.96
705.096	181.42
705.284	175.27
705.472	212.14
705.661	197.8
705.849	279.72
706.037	339.11
706.226	234.66
706.414	210.09
706.602	171.18
706.79	306.34
706.979	214.18
707.167	246.95
707.355	126.12
707.543	287.91
707.731	156.84
707.919	255.14
708.107	214.18
708.296	195.75
708.484	199.85
708.672	222.38
708.86	177.32
709.048	224.42
709.236	181.42
709.424	341.16
709.612	242.85
709.8	95.4
709.988	199.85
710.176	257.19
710.364	382.12
710.551	158.89
710.739	232.62
710.927	162.98
711.115	220.33
711.303	189.61
711.491	246.95
711.679	165.03
711.866	271.53
712.054	181.42
712.242	277.67
712.43	320.68
712.617	232.62
712.805	384.16
712.993	226.47
713.181	150.7
713.368	263.33
713.556	212.14
713.744	162.98
713.931	345.25
714.119	265.38
714.306	136.36
714.494	187.56
714.682	210.09
714.869	165.03
715.057	279.72
715.244	142.5
715.432	222.38
715.619	279.72
715.807	242.85
715.994	134.31
716.182	162.98
716.369	359.59
716.556	226.47
716.744	126.12
716.931	195.75
717.119	322.73
717.306	263.33
717.493	277.67
717.681	197.8
717.868	169.13
718.055	251.05
718.242	269.48
718.43	228.52
718.617	287.91
718.804	169.13
718.991	312.49
719.179	371.88
719.366	275.62
719.553	271.53
719.74	267.43
719.927	230.57
720.114	203.94
720.301	140.46
720.488	220.33
720.676	167.08
720.863	414.88
721.05	378.02
721.237	208.04
721.424	408.74
721.611	289.96
721.798	212.14
721.985	117.93
722.172	273.57
722.358	210.09
722.545	316.58
722.732	220.33
722.919	269.48
723.106	324.77
723.293	259.24
723.48	283.81
723.667	189.61
723.853	328.87
724.04	332.97
724.227	306.34
724.414	212.14
724.6	316.58
724.787	390.31
724.974	328.87
725.161	330.92
725.347	148.65
725.534	238.76
725.72	273.57
725.907	355.49
726.094	275.62
726.28	136.36
726.467	179.37
726.653	224.42
726.84	326.82
727.027	416.93
727.213	339.11
727.4	341.16
727.586	203.94
727.773	271.53
727.959	257.19
728.145	308.39
728.332	242.85
728.518	226.47
728.705	320.68
728.891	343.21
729.077	289.96
729.264	205.99
729.45	281.77
729.636	375.97
729.823	289.96
730.009	369.83
730.195	304.29
730.382	263.33
730.568	175.27
730.754	249
730.94	232.62
731.126	218.28
731.313	234.66
731.499	199.85
731.685	306.34
731.871	269.48
732.057	285.86
732.243	371.88
732.429	339.11
732.615	384.16
732.801	335.01
732.987	246.95
733.173	279.72
733.359	224.42
733.545	261.29
733.731	179.37
733.917	408.74
734.103	314.53
734.289	314.53
734.475	181.42
734.661	425.12
734.847	375.97
735.033	277.67
735.219	408.74
735.404	361.64
735.59	347.3
735.776	244.9
735.962	265.38
736.148	353.45
736.333	394.4
736.519	283.81
736.705	246.95
736.89	296.1
737.076	347.3
737.262	195.75
737.447	316.58
737.633	226.47
737.819	349.35
738.004	277.67
738.19	236.71
738.375	355.49
738.561	347.3
738.747	306.34
738.932	263.33
739.118	484.52
739.303	308.39
739.489	246.95
739.674	226.47
739.859	234.66
740.045	298.15
740.23	277.67
740.416	189.61
740.601	263.33
740.786	210.09
740.972	240.81
741.157	191.66
741.342	263.33
741.528	181.42
741.713	365.73
741.898	218.28
742.084	279.72
742.269	212.14
742.454	378.02
742.639	310.44
742.824	220.33
743.01	361.64
743.195	277.67
743.38	189.61
743.565	279.72
743.75	228.52
743.935	279.72
744.12	324.77
744.305	210.09
744.49	240.81
744.675	220.33
744.86	203.94
745.045	365.73
745.23	337.06
745.415	257.19
745.6	384.16
745.785	201.9
745.97	347.3
746.155	353.45
746.34	324.77
746.525	236.71
746.71	378.02
746.895	240.81
747.079	240.81
747.264	232.62
747.449	320.68
747.634	320.68
747.819	320.68
748.003	285.86
748.188	199.85
748.373	412.84
748.557	214.18
748.742	281.77
748.927	283.81
749.111	242.85
749.296	183.46
749.481	273.57
749.665	263.33
749.85	175.27
750.034	236.71
750.219	263.33
750.404	230.57
750.588	230.57
750.773	275.62
750.957	275.62
751.141	306.34
751.326	296.1
751.51	185.51
751.695	218.28
751.879	261.29
752.064	318.63
752.248	244.9
752.432	406.69
752.617	289.96
752.801	320.68
752.985	203.94
753.17	394.4
753.354	318.63
753.538	214.18
753.722	158.89
753.907	175.27
754.091	140.46
754.275	261.29
754.459	107.69
754.643	199.85
754.828	347.3
755.012	244.9
755.196	140.46
755.38	181.42
755.564	183.46
755.748	177.32
755.932	273.57
756.116	191.66
756.3	257.19
756.484	255.14
756.668	193.7
756.852	56.49
757.036	142.5
757.22	292.01
757.404	136.36
757.588	156.84
757.772	249
757.956	195.75
758.14	275.62
758.323	115.88
758.507	124.07
758.691	148.65
758.875	236.71
759.059	269.48
759.242	113.83
759.426	91.31
759.61	152.74
759.794	156.84
759.977	201.9
760.161	324.77
760.345	246.95
760.528	236.71
760.712	230.57
760.895	240.81
761.079	128.17
761.263	165.03
761.446	130.22
761.63	103.59
761.813	222.38
761.997	132.26
762.18	115.88
762.364	216.23
762.547	56.49
762.731	93.35
762.914	89.26
763.098	152.74
763.281	165.03
763.464	81.07
763.648	156.84
763.831	91.31
764.015	107.69
764.198	216.23
764.381	83.11
764.564	128.17
764.748	132.26
764.931	162.98
765.114	72.87
765.297	195.75
765.481	21.67
765.664	83.11
765.847	150.7
766.03	257.19
766.213	81.07
766.397	171.18
766.58	89.26
766.763	150.7
766.946	185.51
767.129	173.22
767.312	11.43
767.495	156.84
767.678	81.07
767.861	130.22
768.044	113.83
768.227	158.89
768.41	85.16
768.593	85.16
768.776	99.5
768.959	31.91
769.142	195.75
769.324	105.64
769.507	85.16
769.69	93.35
769.873	126.12
770.056	316.58
770.239	95.4
770.421	253.09
770.604	117.93
770.787	210.09
770.97	154.79
771.152	101.55
771.335	218.28
771.518	66.73
771.7	156.84
771.883	132.26
772.066	134.31
772.248	89.26
772.431	177.32
772.613	158.89
772.796	132.26
772.978	95.4
773.161	185.51
773.343	25.77
773.526	87.21
773.708	58.54
773.891	21.67
774.073	54.44
774.256	60.59
774.438	175.27
774.621	117.93
774.803	85.16
774.985	40.11
775.168	130.22
775.35	105.64
775.532	138.41
775.715	27.82
775.897	140.46
776.079	156.84
776.261	33.96
776.444	58.54
776.626	103.59
776.808	-9.05
776.99	-4.95
777.173	54.44
777.355	99.5
777.537	105.64
777.719	99.5
777.901	169.13
778.083	46.25
778.265	19.63
778.447	56.49
778.629	154.79
778.811	95.4
778.993	142.5
779.175	132.26
779.357	85.16
779.539	13.48
779.721	167.08
779.903	89.26
780.085	36.01
780.267	68.78
780.449	66.73
780.631	119.98
780.812	167.08
780.994	107.69
781.176	70.83
781.358	31.91
781.54	72.87
781.721	62.63
781.903	199.85
782.085	46.25
782.267	126.12
782.448	50.35
782.63	146.6
782.812	111.78
782.993	97.45
783.175	113.83
783.357	29.87
783.538	85.16
783.72	-21.33
783.901	126.12
784.083	156.84
784.264	79.02
784.446	-41.81
784.627	79.02
784.809	117.93
784.99	54.44
785.172	91.31
785.353	89.26
785.535	33.96
785.716	27.82
785.897	52.39
786.079	-17.24
786.26	107.69
786.441	103.59
786.623	-76.63
786.804	13.48
786.985	85.16
787.167	29.87
787.348	50.35
787.529	7.34
787.71	150.7
787.891	31.91
788.073	42.15
788.254	17.58
788.435	158.89
788.616	142.5
788.797	46.25
788.978	33.96
789.159	1.19
789.34	79.02
789.522	72.87
789.703	70.83
789.884	103.59
790.065	87.21
790.246	152.74
790.427	74.92
790.607	146.6
790.788	58.54
790.969	-7
791.15	138.41
791.331	11.43
791.512	31.91
791.693	54.44
791.874	9.39
792.054	289.96
792.235	74.92
792.416	-115.54
792.597	-45.91
792.778	97.45
792.958	68.78
793.139	93.35
793.32	81.07
793.5	-15.19
793.681	189.61
793.862	33.96
794.042	64.68
794.223	-101.2
794.404	-43.86
794.584	-72.53
794.765	-47.96
794.945	31.91
795.126	81.07
795.306	76.97
795.487	5.29
795.667	40.11
795.848	85.16
796.028	-15.19
796.209	46.25
796.389	199.85
796.57	83.11
796.75	11.43
796.93	95.4
797.111	25.77
797.291	-15.19
797.471	64.68
797.652	7.34
797.832	23.72
798.012	97.45
798.192	15.53
798.373	-13.14
798.553	38.06
798.733	38.06
798.913	-25.43
799.093	60.59
799.274	25.77
799.454	134.31
799.634	148.65
799.814	54.44
799.994	42.15
800.174	95.4
800.354	44.2
800.534	-56.15
800.714	54.44
800.894	72.87
801.074	9.39
801.254	-15.19
801.434	136.36
801.614	31.91
801.794	13.48
801.974	1952.91
802.154	-66.39
802.334	83.11
802.514	-64.34
802.693	27.82
802.873	-27.48
803.053	124.07
803.233	-2.9
803.413	-17.24
803.592	-9.05
803.772	-9.05
803.952	122.02
804.131	-9.05
804.311	66.73
804.491	195.75
804.67	9.39
804.85	-62.29
805.03	-7
805.209	31.91
805.389	44.2
805.568	-56.15
805.748	21.67
805.928	54.44
806.107	150.7
806.287	27.82
806.466	66.73
806.646	1.19
806.825	-4.95
807.004	21.67
807.184	48.3
807.363	138.41
807.543	40.11
807.722	-31.57
807.901	122.02
808.081	31.91
808.26	-95.06
808.439	48.3
808.619	33.96
808.798	-11.09
808.977	93.35
809.156	111.78
809.336	50.35
809.515	44.2
809.694	66.73
809.873	44.2
810.052	58.54
810.231	17.58
810.411	44.2
810.59	107.69
810.769	-11.09
810.948	83.11
811.127	-58.2
811.306	-17.24
811.485	44.2
811.664	183.46
811.843	87.21
812.022	50.35
812.201	11.43
812.38	-11.09
812.559	-68.44
812.737	21.67
812.916	-45.91
813.095	-70.48
813.274	70.83
813.453	23.72
813.632	40.11
813.811	93.35
813.989	-52.05
814.168	81.07
814.347	-45.91
814.526	9.39
814.704	68.78
814.883	144.55
815.062	23.72
815.24	38.06
815.419	-66.39
815.598	66.73
815.776	-115.54
815.955	-7
816.133	-131.92
816.312	91.31
816.49	-35.67
816.669	9.39
816.847	-52.05
817.026	-37.72
817.204	42.15
817.383	-62.29
817.561	-58.2
817.74	23.72
817.918	-13.14
818.097	38.06
818.275	-23.38
818.453	60.59
818.632	72.87
818.81	7.34
818.988	-11.09
819.167	-21.33
819.345	33.96
819.523	13.48
819.701	72.87
819.879	-9.05
820.058	-78.68
820.236	36.01
820.414	40.11
820.592	-56.15
820.77	23.72
820.948	-13.14
821.127	99.5
821.305	58.54
821.483	-7
821.661	66.73
821.839	17.58
822.017	-68.44
822.195	-37.72
822.373	7.34
822.551	-45.91
822.729	95.4
822.907	11.43
823.085	107.69
823.262	-9.05
823.44	83.11
823.618	-31.57
823.796	33.96
823.974	-31.57
824.152	5.29
824.329	-68.44
824.507	9.39
824.685	36.01
824.863	1.19
825.04	-37.72
825.218	40.11
825.396	-37.72
825.574	74.92
825.751	48.3
825.929	33.96
826.107	-123.73
826.284	-23.38
826.462	33.96
826.639	46.25
826.817	38.06
826.994	60.59
827.172	-19.29
827.349	95.4
827.527	9.39
827.704	-60.24
827.882	109.74
828.059	-23.38
828.237	-45.91
828.414	160.94
828.591	-111.44
828.769	31.91
828.946	-115.54
829.124	134.31
829.301	46.25
829.478	15.53
829.655	3.24
829.833	25.77
830.01	-111.44
830.187	13.48
830.364	-4.95
830.542	-15.19
830.719	93.35
830.896	29.87
831.073	-23.38
831.25	50.35
831.427	46.25
831.604	-25.43
831.782	-25.43
831.959	36.01
832.136	46.25
832.313	89.26
832.49	-72.53
832.667	13.48
832.844	-80.72
833.021	134.31
833.198	-27.48
833.374	9.39
833.551	36.01
833.728	50.35
833.905	56.49
834.082	-148.31
834.259	89.26
834.436	119.98
834.612	-25.43
834.789	81.07
834.966	13.48
835.143	-9.05
835.319	-68.44
835.496	119.98
835.673	46.25
835.85	99.5
836.026	64.68
836.203	117.93
836.38	-56.15
836.556	-21.33
836.733	-125.78
836.909	130.22
837.086	7.34
837.262	-84.82
837.439	-27.48
837.616	-35.67
837.792	40.11
837.968	3.24
838.145	-103.25
838.321	19.63
838.498	21.67
838.674	119.98
838.851	109.74
839.027	-54.1
839.203	-27.48
839.38	21.67
839.556	27.82
839.732	-2.9
839.909	-25.43
840.085	29.87
840.261	-39.76
840.437	-43.86
840.614	-54.1
840.79	-52.05
840.966	99.5
841.142	95.4
841.318	-60.24
841.494	25.77
841.671	70.83
841.847	7.34
842.023	70.83
842.199	25.77
842.375	74.92
842.551	-105.3
842.727	-90.96
842.903	183.46
843.079	-78.68
843.255	40.11
843.431	-11.09
843.607	74.92
843.783	-111.44
843.959	-13.14
844.134	-31.57
844.31	81.07
844.486	-93.01
844.662	7.34
844.838	13.48
845.013	-19.29
845.189	140.46
845.365	36.01
845.541	-37.72
845.716	-11.09
845.892	44.2
846.068	5.29
846.244	-21.33
846.419	56.49
846.595	-90.96
846.77	-60.24
846.946	33.96
847.122	-70.48
847.297	-23.38
847.473	111.78
847.648	-41.81
847.824	19.63
847.999	-136.02
848.175	44.2
848.35	31.91
848.526	132.26
848.701	144.55
848.876	83.11
849.052	126.12
849.227	-7
849.403	27.82
849.578	33.96
849.753	56.49
849.929	7.34
850.104	-54.1
850.279	-17.24
850.454	5.29
850.63	15.53
850.805	-37.72
850.98	-9.05
851.155	-19.29
851.33	-11.09
851.505	-52.05
851.681	60.59
851.856	-62.29
852.031	7.34
852.206	62.63
852.381	-37.72
852.556	-25.43
852.731	74.92
852.906	54.44
853.081	-19.29
853.256	29.87
853.431	-17.24
853.606	3.24
853.781	-66.39
853.956	-68.44
854.131	50.35
854.305	-68.44
854.48	-9.05
854.655	-43.86
854.83	5.29
855.005	40.11
855.18	17.58
855.354	-25.43
855.529	60.59
855.704	9.39
855.879	99.5
856.053	-62.29
856.228	70.83
856.403	-74.58
856.577	83.11
856.752	-52.05
856.926	9.39
857.101	11.43
857.276	-78.68
857.45	7.34
857.625	72.87
857.799	15.53
857.974	-11.09
858.148	-97.11
858.323	-0.85
858.497	-15.19
858.672	31.91
858.846	-37.72
859.02	48.3
859.195	-76.63
859.369	-54.1
859.543	-43.86
859.718	3.24
859.892	-0.85
860.066	58.54
860.241	-56.15
860.415	-35.67
860.589	-29.52
860.763	-15.19
860.938	-31.57
861.112	76.97
861.286	-33.62
861.46	89.26
861.634	-29.52
861.808	-64.34
861.982	-27.48
862.157	-109.4
862.331	-43.86
862.505	-131.92
862.679	-103.25
862.853	-66.39
863.027	-47.96
863.201	95.4
863.375	-93.01
863.549	130.22
863.722	93.35
863.896	140.46
864.07	-21.33
864.244	44.2
864.418	50.35
864.592	-7
864.766	-4.95
864.939	33.96
865.113	-99.16
865.287	40.11
865.461	-62.29
865.634	13.48
865.808	-4.95
865.982	-60.24
866.156	46.25
866.329	-80.72
866.503	19.63
866.676	-2.9
866.85	-0.85
867.024	-60.24
867.197	15.53
867.371	58.54
867.544	33.96
867.718	-160.59
867.891	148.65
868.065	-125.78
868.238	-2.9
868.412	74.92
868.585	42.15
868.759	-31.57
868.932	-7
869.105	-90.96
869.279	38.06
869.452	-78.68
869.625	97.45
869.799	7.34
869.972	-66.39
870.145	17.58
870.319	46.25
870.492	-56.15
870.665	11.43
870.838	-99.16
871.011	-162.64
871.185	-43.86
871.358	-35.67
871.531	29.87
871.704	-35.67
871.877	-43.86
872.05	33.96
872.223	-115.54
872.396	89.26
872.569	40.11
872.742	-125.78
872.915	72.87
873.088	-52.05
873.261	17.58
873.434	38.06
873.607	23.72
873.78	87.21
873.953	-64.34
874.126	58.54
874.299	25.77
874.471	-50
874.644	-11.09
874.817	19.63
874.99	76.97
875.163	33.96
875.335	50.35
875.508	-13.14
875.681	9.39
875.853	-72.53
876.026	11.43
876.199	107.69
876.371	-9.05
876.544	-15.19
876.717	31.91
876.889	21.67
877.062	111.78
877.234	-152.4
877.407	-23.38
877.579	-4.95
877.752	46.25
877.924	66.73
878.097	40.11
878.269	-21.33
878.442	46.25
878.614	9.39
878.786	25.77
878.959	33.96
879.131	42.15
879.303	-74.58
879.476	-19.29
879.648	79.02
879.82	44.2
879.993	-50
880.165	-7
880.337	-76.63
880.509	33.96
880.681	-52.05
880.854	-58.2
881.026	105.64
881.198	140.46
881.37	58.54
881.542	-13.14
881.714	-88.92
881.886	-86.87
882.058	3.24
882.23	13.48
882.402	3.24
882.574	19.63
882.746	48.3
882.918	160.94
883.09	113.83
883.262	-33.62
883.434	-11.09
883.606	-95.06
883.778	44.2
883.95	95.4
884.122	-31.57
884.293	70.83
884.465	-27.48
884.637	33.96
884.809	3.24
884.98	52.39
885.152	23.72
885.324	70.83
885.496	-66.39
885.667	-25.43
885.839	-60.24
886.011	105.64
886.182	7.34
886.354	109.74
886.525	136.36
886.697	50.35
886.869	-33.62
887.04	-17.24
887.212	144.55
887.383	105.64
887.555	46.25
887.726	-54.1
887.897	50.35
888.069	1.19
888.24	54.44
888.412	11.43
888.583	-54.1
888.754	21.67
888.926	-74.58
889.097	-15.19
889.268	-95.06
889.44	-4.95
889.611	-131.92
889.782	-33.62
889.953	-146.26
890.125	95.4
890.296	-37.72
890.467	-47.96
890.638	25.77
890.809	-56.15
890.98	-58.2
891.151	81.07
891.323	91.31
891.494	-4.95
891.665	9.39
891.836	-82.77
892.007	-64.34
892.178	52.39
892.349	60.59
892.52	-0.85
892.691	-45.91
892.862	54.44
893.032	-50
893.203	-123.73
893.374	-68.44
893.545	70.83
893.716	-70.48
893.887	72.87
894.057	23.72
894.228	3.24
894.399	-23.38
894.57	144.55
894.74	-21.33
894.911	109.74
895.082	5.29
895.253	-72.53
895.423	46.25
895.594	15.53
895.764	17.58
895.935	-125.78
896.106	64.68
896.276	11.43
896.447	52.39
896.617	-33.62
896.788	-29.52
896.958	-58.2
897.129	17.58
897.299	5.29
897.47	87.21
897.64	64.68
897.81	-70.48
897.981	15.53
898.151	-17.24
898.322	-9.05
898.492	11.43
898.662	-88.92
898.832	-90.96
899.003	15.53
899.173	50.35
899.343	-74.58
899.513	-68.44
