Data from USB4F104151__10__11-24-21-408.txt Node

Date: Wed Feb 26 11:24:21 EST 2025
User: louis
Spectrometer: USB4F10415
Trigger mode: 4
Integration Time (sec): 1.000000E-1
Scans to average: 1
Electric dark correction enabled: true
Nonlinearity correction enabled: false
Boxcar width: 0
XAxis mode: Wavelengths
Number of Pixels in Spectrum: 3648
>>>>>Begin Spectral Data<<<<<
178.204	-351.57
178.424	-351.57
178.644	-351.57
178.864	-396.62
179.084	-404.82
179.304	-1.37
179.524	-71
179.744	0.68
179.964	-23.89
180.184	51.88
180.404	35.5
180.624	-19.8
180.844	101.03
181.064	-93.52
181.283	68.27
181.503	-91.48
181.723	43.69
181.943	-93.52
182.163	135.85
182.383	49.83
182.602	55.98
182.822	82.6
183.042	98.99
183.262	-87.38
183.482	33.45
183.701	29.35
183.921	41.64
184.141	0.68
184.361	6.83
184.58	-36.18
184.8	111.27
185.02	-66.9
185.239	166.57
185.459	90.79
185.679	119.46
185.898	-60.76
186.118	80.55
186.338	47.79
186.557	164.52
186.777	-81.24
186.997	29.35
187.216	19.11
187.436	219.82
187.655	62.12
187.875	166.57
188.095	55.98
188.314	43.69
188.534	90.79
188.753	-1.37
188.973	121.51
189.192	217.77
189.412	-1.37
189.631	33.45
189.851	6.83
190.07	121.51
190.29	-66.9
190.509	12.97
190.729	6.83
190.948	60.07
191.168	217.77
191.387	47.79
191.607	-11.61
191.826	45.74
192.045	21.16
192.265	-15.7
192.484	107.18
192.704	51.88
192.923	-3.41
193.142	185
193.362	86.7
193.581	158.38
193.8	45.74
194.02	74.41
194.239	107.18
194.458	115.37
194.678	8.87
194.897	4.78
195.116	64.17
195.335	45.74
195.555	60.07
195.774	15.02
195.993	111.27
196.212	39.59
196.432	10.92
196.651	21.16
196.87	35.5
197.089	176.81
197.308	-11.61
197.528	29.35
197.747	-36.18
197.966	49.83
198.185	148.14
198.404	-19.8
198.623	150.18
198.842	92.84
199.062	45.74
199.281	86.7
199.5	0.68
199.719	58.03
199.938	80.55
200.157	37.55
200.376	156.33
200.595	68.27
200.814	15.02
201.033	33.45
201.252	158.38
201.471	41.64
201.69	88.75
201.909	4.78
202.128	156.33
202.347	121.51
202.566	70.31
202.785	-52.56
203.004	37.55
203.223	264.87
203.442	6.83
203.661	-95.57
203.879	-7.51
204.098	127.66
204.317	-3.41
204.536	31.4
204.755	141.99
204.974	121.51
205.193	21.16
205.411	137.9
205.63	62.12
205.849	-87.38
206.068	31.4
206.287	-40.28
206.505	82.6
206.724	12.97
206.943	-60.76
207.162	-21.85
207.381	55.98
207.599	-1.37
207.818	-7.51
208.037	-3.41
208.255	58.03
208.474	68.27
208.693	29.35
208.911	68.27
209.13	41.64
209.349	96.94
209.567	70.31
209.786	103.08
210.005	47.79
210.223	72.36
210.442	-58.71
210.661	17.07
210.879	96.94
211.098	31.4
211.316	45.74
211.535	43.69
211.753	76.46
211.972	70.31
212.191	-52.56
212.409	-34.13
212.628	66.22
212.846	-38.23
213.065	47.79
213.283	109.22
213.502	62.12
213.72	35.5
213.938	98.99
214.157	15.02
214.375	131.75
214.594	-27.99
214.812	86.7
215.031	-19.8
215.249	25.26
215.467	-13.65
215.686	8.87
215.904	17.07
216.122	43.69
216.341	92.84
216.559	111.27
216.778	82.6
216.996	180.9
217.214	27.31
217.432	-1.37
217.651	-25.94
217.869	101.03
218.087	74.41
218.306	60.07
218.524	10.92
218.742	53.93
218.96	94.89
219.179	51.88
219.397	8.87
219.615	205.48
219.833	90.79
220.051	-56.66
220.27	127.66
220.488	76.46
220.706	47.79
220.924	-17.75
221.142	-11.61
221.36	47.79
221.578	53.93
221.796	31.4
222.015	119.46
222.233	12.97
222.451	111.27
222.669	-38.23
222.887	92.84
223.105	-25.94
223.323	29.35
223.541	-27.99
223.759	45.74
223.977	101.03
224.195	123.56
224.413	101.03
224.631	-5.46
224.849	90.79
225.067	234.15
225.285	4.78
225.503	-9.56
225.721	-30.04
225.939	41.64
226.157	41.64
226.375	256.68
226.592	15.02
226.81	53.93
227.028	82.6
227.246	96.94
227.464	66.22
227.682	172.71
227.9	113.32
228.117	64.17
228.335	86.7
228.553	43.69
228.771	60.07
228.989	84.65
229.206	76.46
229.424	35.5
229.642	-48.47
229.86	-5.46
230.077	141.99
230.295	10.92
230.513	172.71
230.731	119.46
230.948	168.62
231.166	174.76
231.384	-103.76
231.601	27.31
231.819	197.29
232.037	-36.18
232.254	-7.51
232.472	2.73
232.689	35.5
232.907	121.51
233.125	-1.37
233.342	-5.46
233.56	-60.76
233.777	90.79
233.995	41.64
234.213	82.6
234.43	117.42
234.648	90.79
234.865	2.73
235.083	45.74
235.3	53.93
235.518	94.89
235.735	90.79
235.953	98.99
236.17	49.83
236.388	74.41
236.605	90.79
236.822	111.27
237.04	105.13
237.257	12.97
237.475	-13.65
237.692	72.36
237.909	43.69
238.127	-21.85
238.344	68.27
238.562	-38.23
238.779	-11.61
238.996	-75.09
239.214	94.89
239.431	111.27
239.648	23.21
239.865	98.99
240.083	129.7
240.3	37.55
240.517	39.59
240.735	-5.46
240.952	109.22
241.169	60.07
241.386	64.17
241.603	21.16
241.821	15.02
242.038	88.75
242.255	133.8
242.472	-23.89
242.689	119.46
242.907	76.46
243.124	123.56
243.341	0.68
243.558	33.45
243.775	-77.14
243.992	-79.19
244.209	125.61
244.426	180.9
244.643	74.41
244.86	-7.51
245.078	139.94
245.295	-1.37
245.512	19.11
245.729	21.16
245.946	74.41
246.163	39.59
246.38	25.26
246.597	23.21
246.814	72.36
247.031	60.07
247.248	58.03
247.464	127.66
247.681	27.31
247.898	15.02
248.115	148.14
248.332	-15.7
248.549	98.99
248.766	86.7
248.983	29.35
249.2	150.18
249.417	55.98
249.633	19.11
249.85	90.79
250.067	76.46
250.284	10.92
250.501	94.89
250.717	60.07
250.934	-64.85
251.151	12.97
251.368	-3.41
251.585	90.79
251.801	96.94
252.018	23.21
252.235	111.27
252.451	-56.66
252.668	-23.89
252.885	41.64
253.102	72.36
253.318	43.69
253.535	-7.51
253.752	-27.99
253.968	-32.08
254.185	-52.56
254.401	127.66
254.618	37.55
254.835	-40.28
255.051	107.18
255.268	43.69
255.484	135.85
255.701	49.83
255.917	23.21
256.134	33.45
256.351	-1.37
256.567	27.31
256.784	8.87
257	-21.85
257.217	146.09
257.433	101.03
257.65	49.83
257.866	148.14
258.082	-111.96
258.299	-11.61
258.515	76.46
258.732	33.45
258.948	-46.42
259.165	31.4
259.381	-36.18
259.597	43.69
259.814	58.03
260.03	45.74
260.246	35.5
260.463	170.66
260.679	121.51
260.895	10.92
261.112	6.83
261.328	4.78
261.544	49.83
261.761	166.57
261.977	-3.41
262.193	-27.99
262.409	98.99
262.626	45.74
262.842	25.26
263.058	-50.52
263.274	125.61
263.49	94.89
263.707	103.08
263.923	41.64
264.139	-68.95
264.355	88.75
264.571	74.41
264.787	49.83
265.004	119.46
265.22	68.27
265.436	-13.65
265.652	17.07
265.868	92.84
266.084	-60.76
266.3	25.26
266.516	-85.33
266.732	43.69
266.948	-3.41
267.164	-42.32
267.38	84.65
267.596	64.17
267.812	119.46
268.028	88.75
268.244	64.17
268.46	-27.99
268.676	-27.99
268.892	98.99
269.108	45.74
269.324	-11.61
269.54	-81.24
269.756	78.51
269.972	-85.33
270.188	23.21
270.403	4.78
270.619	45.74
270.835	137.9
271.051	80.55
271.267	17.07
271.483	-36.18
271.698	125.61
271.914	43.69
272.13	37.55
272.346	-19.8
272.562	19.11
272.777	96.94
272.993	19.11
273.209	-5.46
273.425	17.07
273.64	-60.76
273.856	88.75
274.072	-60.76
274.287	0.68
274.503	58.03
274.719	90.79
274.934	35.5
275.15	-73.04
275.366	86.7
275.581	-68.95
275.797	-36.18
276.012	111.27
276.228	-34.13
276.444	37.55
276.659	94.89
276.875	15.02
277.09	-48.47
277.306	80.55
277.521	84.65
277.737	29.35
277.952	51.88
278.168	15.02
278.383	12.97
278.599	33.45
278.814	125.61
279.03	15.02
279.245	55.98
279.461	25.26
279.676	154.28
279.892	-111.96
280.107	-40.28
280.322	15.02
280.538	109.22
280.753	0.68
280.969	-46.42
281.184	55.98
281.399	55.98
281.615	-36.18
281.83	-9.56
282.045	39.59
282.26	21.16
282.476	-17.75
282.691	105.13
282.906	62.12
283.122	62.12
283.337	-46.42
283.552	107.18
283.767	-7.51
283.983	119.46
284.198	60.07
284.413	45.74
284.628	2.73
284.843	37.55
285.058	113.32
285.274	41.64
285.489	-50.52
285.704	152.23
285.919	-3.41
286.134	82.6
286.349	-13.65
286.564	-40.28
286.779	166.57
286.995	68.27
287.21	6.83
287.425	135.85
287.64	-66.9
287.855	55.98
288.07	-62.8
288.285	144.04
288.5	123.56
288.715	68.27
288.93	10.92
289.145	-5.46
289.36	35.5
289.575	-3.41
289.79	144.04
290.004	19.11
290.219	107.18
290.434	-68.95
290.649	23.21
290.864	-50.52
291.079	23.21
291.294	15.02
291.509	-68.95
291.724	68.27
291.938	45.74
292.153	78.51
292.368	66.22
292.583	17.07
292.798	31.4
293.012	12.97
293.227	47.79
293.442	58.03
293.657	94.89
293.871	84.65
294.086	29.35
294.301	199.34
294.516	82.6
294.73	10.92
294.945	-62.8
295.16	19.11
295.374	133.8
295.589	152.23
295.804	12.97
296.018	12.97
296.233	150.18
296.447	45.74
296.662	-13.65
296.877	187.05
297.091	53.93
297.306	2.73
297.52	101.03
297.735	21.16
297.949	39.59
298.164	33.45
298.378	25.26
298.593	-34.13
298.807	-7.51
299.022	10.92
299.236	158.38
299.451	-21.85
299.665	62.12
299.88	70.31
300.094	70.31
300.309	29.35
300.523	25.26
300.737	84.65
300.952	31.4
301.166	41.64
301.381	58.03
301.595	-56.66
301.809	33.45
302.024	0.68
302.238	-107.86
302.452	96.94
302.667	74.41
302.881	90.79
303.095	37.55
303.309	19.11
303.524	-44.37
303.738	53.93
303.952	8.87
304.166	98.99
304.381	-79.19
304.595	127.66
304.809	-83.28
305.023	64.17
305.237	15.02
305.452	64.17
305.666	60.07
305.88	86.7
306.094	133.8
306.308	29.35
306.522	90.79
306.736	68.27
306.95	105.13
307.164	-15.7
307.379	55.98
307.593	27.31
307.807	90.79
308.021	62.12
308.235	82.6
308.449	-95.57
308.663	19.11
308.877	211.62
309.091	58.03
309.305	70.31
309.519	-103.76
309.733	17.07
309.947	27.31
310.161	60.07
310.374	111.27
310.588	141.99
310.802	-23.89
311.016	-68.95
311.23	37.55
311.444	-62.8
311.658	39.59
311.872	170.66
312.085	105.13
312.299	55.98
312.513	92.84
312.727	41.64
312.941	-42.32
313.154	37.55
313.368	8.87
313.582	31.4
313.796	78.51
314.009	51.88
314.223	156.33
314.437	84.65
314.651	-7.51
314.864	58.03
315.078	41.64
315.292	-48.47
315.505	-30.04
315.719	76.46
315.933	55.98
316.146	10.92
316.36	-64.85
316.573	131.75
316.787	72.36
317.001	19.11
317.214	-111.96
317.428	109.22
317.641	4.78
317.855	-5.46
318.068	82.6
318.282	-9.56
318.495	125.61
318.709	86.7
318.922	8.87
319.136	162.47
319.349	119.46
319.563	8.87
319.776	111.27
319.99	-167.25
320.203	131.75
320.417	98.99
320.63	109.22
320.843	168.62
321.057	4.78
321.27	86.7
321.483	49.83
321.697	150.18
321.91	109.22
322.124	105.13
322.337	78.51
322.55	-13.65
322.763	51.88
322.977	10.92
323.19	53.93
323.403	-36.18
323.617	62.12
323.83	82.6
324.043	6.83
324.256	33.45
324.469	-64.85
324.683	109.22
324.896	94.89
325.109	33.45
325.322	-71
325.535	58.03
325.748	41.64
325.962	29.35
326.175	64.17
326.388	94.89
326.601	152.23
326.814	-17.75
327.027	8.87
327.24	135.85
327.453	-87.38
327.666	55.98
327.879	154.28
328.092	19.11
328.305	96.94
328.518	-42.32
328.731	-5.46
328.944	55.98
329.157	66.22
329.37	12.97
329.583	170.66
329.796	141.99
330.009	0.68
330.222	23.21
330.435	66.22
330.648	68.27
330.861	64.17
331.073	76.46
331.286	129.7
331.499	27.31
331.712	21.16
331.925	62.12
332.138	12.97
332.35	113.32
332.563	-54.61
332.776	176.81
332.989	17.07
333.202	-3.41
333.414	39.59
333.627	41.64
333.84	45.74
334.053	29.35
334.265	-3.41
334.478	0.68
334.691	86.7
334.903	-1.37
335.116	-34.13
335.329	-5.46
335.541	88.75
335.754	119.46
335.966	-3.41
336.179	12.97
336.392	103.08
336.604	-15.7
336.817	148.14
337.029	62.12
337.242	82.6
337.454	101.03
337.667	43.69
337.88	193.19
338.092	19.11
338.305	137.9
338.517	25.26
338.729	41.64
338.942	203.43
339.154	-27.99
339.367	-60.76
339.579	88.75
339.792	-27.99
340.004	135.85
340.217	-54.61
340.429	39.59
340.641	6.83
340.854	-52.56
341.066	-21.85
341.278	86.7
341.491	144.04
341.703	37.55
341.915	-60.76
342.128	51.88
342.34	41.64
342.552	-87.38
342.764	64.17
342.977	-11.61
343.189	6.83
343.401	-7.51
343.613	-56.66
343.826	37.55
344.038	-7.51
344.25	-1.37
344.462	29.35
344.674	29.35
344.886	10.92
345.099	66.22
345.311	90.79
345.523	-23.89
345.735	-48.47
345.947	58.03
346.159	55.98
346.371	70.31
346.583	15.02
346.795	135.85
347.007	17.07
347.219	8.87
347.431	19.11
347.643	146.09
347.855	6.83
348.067	160.42
348.279	-50.52
348.491	23.21
348.703	58.03
348.915	23.21
349.127	62.12
349.339	62.12
349.551	-32.08
349.763	17.07
349.975	-9.56
350.187	64.17
350.399	119.46
350.61	62.12
350.822	23.21
351.034	27.31
351.246	25.26
351.458	51.88
351.669	86.7
351.881	12.97
352.093	21.16
352.305	129.7
352.517	82.6
352.728	98.99
352.94	6.83
353.152	113.32
353.363	-48.47
353.575	146.09
353.787	162.47
353.999	43.69
354.21	199.34
354.422	12.97
354.633	17.07
354.845	-15.7
355.057	33.45
355.268	-11.61
355.48	117.42
355.692	-75.09
355.903	45.74
356.115	-46.42
356.326	-68.95
356.538	119.46
356.749	45.74
356.961	182.95
357.172	78.51
357.384	-89.43
357.595	211.62
357.807	23.21
358.018	0.68
358.23	76.46
358.441	152.23
358.653	139.94
358.864	107.18
359.075	-34.13
359.287	41.64
359.498	84.65
359.709	53.93
359.921	27.31
360.132	144.04
360.344	23.21
360.555	0.68
360.766	111.27
360.977	27.31
361.189	101.03
361.4	51.88
361.611	90.79
361.823	164.52
362.034	49.83
362.245	-23.89
362.456	80.55
362.667	127.66
362.879	-81.24
363.09	31.4
363.301	49.83
363.512	70.31
363.723	15.02
363.935	-7.51
364.146	86.7
364.357	45.74
364.568	51.88
364.779	-34.13
364.99	98.99
365.201	-52.56
365.412	76.46
365.623	-103.76
365.834	80.55
366.045	135.85
366.256	148.14
366.467	98.99
366.678	-91.48
366.889	29.35
367.1	58.03
367.311	37.55
367.522	45.74
367.733	68.27
367.944	84.65
368.155	8.87
368.366	127.66
368.577	33.45
368.788	35.5
368.999	21.16
369.209	53.93
369.42	258.73
369.631	182.95
369.842	82.6
370.053	37.55
370.264	29.35
370.474	-9.56
370.685	68.27
370.896	58.03
371.107	127.66
371.317	62.12
371.528	17.07
371.739	127.66
371.95	68.27
372.16	37.55
372.371	-42.32
372.582	19.11
372.792	45.74
373.003	60.07
373.214	39.59
373.424	107.18
373.635	-54.61
373.846	158.38
374.056	-9.56
374.267	62.12
374.477	98.99
374.688	66.22
374.898	115.37
375.109	-36.18
375.319	-42.32
375.53	43.69
375.74	58.03
375.951	90.79
376.161	103.08
376.372	129.7
376.582	25.26
376.793	152.23
377.003	-17.75
377.214	-60.76
377.424	70.31
377.635	-17.75
377.845	64.17
378.055	125.61
378.266	-42.32
378.476	62.12
378.686	76.46
378.897	35.5
379.107	86.7
379.317	101.03
379.528	-56.66
379.738	29.35
379.948	-95.57
380.158	101.03
380.369	80.55
380.579	78.51
380.789	60.07
380.999	137.9
381.21	47.79
381.42	152.23
381.63	55.98
381.84	137.9
382.05	47.79
382.261	148.14
382.471	86.7
382.681	12.97
382.891	125.61
383.101	109.22
383.311	-52.56
383.521	-46.42
383.731	101.03
383.941	58.03
384.151	8.87
384.361	-30.04
384.571	-11.61
384.781	123.56
384.991	189.1
385.201	185
385.411	45.74
385.621	101.03
385.831	21.16
386.041	4.78
386.251	101.03
386.461	92.84
386.671	12.97
386.881	62.12
387.091	41.64
387.301	119.46
387.511	105.13
387.72	88.75
387.93	160.42
388.14	-32.08
388.35	72.36
388.56	123.56
388.769	123.56
388.979	80.55
389.189	8.87
389.399	84.65
389.609	66.22
389.818	39.59
390.028	68.27
390.238	141.99
390.447	4.78
390.657	29.35
390.867	-1.37
391.076	-105.81
391.286	51.88
391.496	37.55
391.705	10.92
391.915	127.66
392.125	55.98
392.334	17.07
392.544	174.76
392.753	-1.37
392.963	-34.13
393.172	31.4
393.382	23.21
393.591	168.62
393.801	12.97
394.01	141.99
394.22	6.83
394.429	-38.23
394.639	80.55
394.848	53.93
395.058	109.22
395.267	10.92
395.477	146.09
395.686	-1.37
395.895	103.08
396.105	84.65
396.314	127.66
396.524	47.79
396.733	-1.37
396.942	137.9
397.152	17.07
397.361	74.41
397.57	60.07
397.78	58.03
397.989	58.03
398.198	164.52
398.407	96.94
398.617	-27.99
398.826	0.68
399.035	72.36
399.244	-9.56
399.453	33.45
399.663	15.02
399.872	25.26
400.081	-9.56
400.29	127.66
400.499	8.87
400.708	82.6
400.917	47.79
401.127	43.69
401.336	-30.04
401.545	148.14
401.754	78.51
401.963	121.51
402.172	2.73
402.381	-44.37
402.59	12.97
402.799	41.64
403.008	111.27
403.217	70.31
403.426	133.8
403.635	-25.94
403.844	84.65
404.053	37.55
404.262	-56.66
404.471	199.34
404.68	58.03
404.888	-23.89
405.097	-3.41
405.306	68.27
405.515	94.89
405.724	92.84
405.933	121.51
406.142	51.88
406.35	144.04
406.559	-52.56
406.768	51.88
406.977	146.09
407.185	96.94
407.394	88.75
407.603	15.02
407.812	19.11
408.02	207.53
408.229	19.11
408.438	47.79
408.646	-46.42
408.855	53.93
409.064	47.79
409.272	-17.75
409.481	121.51
409.69	-1.37
409.898	-11.61
410.107	41.64
410.315	49.83
410.524	-3.41
410.733	88.75
410.941	21.16
411.15	19.11
411.358	178.86
411.567	98.99
411.775	-1.37
411.984	-19.8
412.192	121.51
412.401	-13.65
412.609	185
412.818	123.56
413.026	-1.37
413.234	19.11
413.443	113.32
413.651	-46.42
413.86	-23.89
414.068	55.98
414.276	160.42
414.485	8.87
414.693	146.09
414.901	273.06
415.11	117.42
415.318	-5.46
415.526	-5.46
415.734	62.12
415.943	0.68
416.151	185
416.359	107.18
416.567	119.46
416.776	144.04
416.984	80.55
417.192	189.1
417.4	53.93
417.608	-44.37
417.817	29.35
418.025	84.65
418.233	203.43
418.441	-64.85
418.649	-15.7
418.857	66.22
419.065	150.18
419.273	-60.76
419.481	96.94
419.689	84.65
419.897	49.83
420.105	-19.8
420.313	92.84
420.521	139.94
420.729	92.84
420.937	29.35
421.145	-50.52
421.353	62.12
421.561	160.42
421.769	31.4
421.977	-15.7
422.185	49.83
422.393	12.97
422.601	88.75
422.809	39.59
423.017	21.16
423.224	49.83
423.432	133.8
423.64	-21.85
423.848	115.37
424.056	55.98
424.263	66.22
424.471	15.02
424.679	121.51
424.887	29.35
425.094	133.8
425.302	90.79
425.51	64.17
425.718	119.46
425.925	25.26
426.133	-5.46
426.341	127.66
426.548	27.31
426.756	37.55
426.964	80.55
427.171	31.4
427.379	62.12
427.586	62.12
427.794	144.04
428.001	174.76
428.209	74.41
428.417	156.33
428.624	125.61
428.832	90.79
429.039	64.17
429.247	133.8
429.454	113.32
429.662	185
429.869	127.66
430.076	25.26
430.284	146.09
430.491	131.75
430.699	168.62
430.906	125.61
431.114	111.27
431.321	33.45
431.528	141.99
431.736	166.57
431.943	141.99
432.15	137.9
432.358	180.9
432.565	217.77
432.772	21.16
432.979	168.62
433.187	182.95
433.394	178.86
433.601	84.65
433.808	123.56
434.016	215.72
434.223	223.91
434.43	166.57
434.637	205.48
434.844	150.18
435.052	187.05
435.259	236.2
435.466	225.96
435.673	199.34
435.88	283.3
436.087	254.63
436.294	266.92
436.501	314.02
436.708	148.14
436.915	252.58
437.122	256.68
437.329	156.33
437.537	199.34
437.743	309.93
437.95	441
438.157	309.93
438.364	299.69
438.571	326.31
438.778	279.21
438.985	414.37
439.192	447.14
439.399	367.27
439.606	385.7
439.813	373.41
440.02	494.24
440.227	453.28
440.433	481.96
440.64	432.8
440.847	357.03
441.054	479.91
441.261	678.56
441.467	473.76
441.674	465.57
441.881	535.2
442.088	469.67
442.294	551.59
442.501	635.55
442.708	651.94
442.914	580.26
443.121	664.22
443.328	680.61
443.534	772.77
443.741	694.94
443.948	615.07
444.154	780.96
444.361	1010.33
444.568	895.64
444.774	813.73
444.981	787.1
445.187	1008.28
445.394	873.12
445.6	950.94
445.807	1018.52
446.013	1098.39
446.22	930.46
446.426	1073.82
446.633	1180.31
446.839	1262.23
447.046	1139.35
447.252	1321.62
447.459	1272.47
447.665	1313.43
447.871	1430.16
448.078	1518.23
448.284	1534.61
448.491	1594
448.697	1655.44
448.903	1794.7
449.11	1725.07
449.316	1802.9
449.522	1985.16
449.728	2001.55
449.935	1958.54
450.141	2040.46
450.347	2101.9
450.553	2142.86
450.76	2118.28
450.966	2316.94
451.172	2452.1
451.378	2450.05
451.584	2394.76
451.791	2845.31
451.997	2962.05
452.203	2814.59
452.409	3076.73
452.615	3123.84
452.821	2892.41
453.027	3166.84
453.233	3547.76
453.44	3318.39
453.646	3525.24
453.852	3664.5
454.058	3842.67
454.264	3861.1
454.47	4233.83
454.676	4065.9
454.882	4524.65
455.088	4377.19
455.294	4684.39
455.5	5016.16
455.705	5364.31
455.911	5136.99
456.117	5255.77
456.323	5538.39
456.529	5560.92
456.735	6126.16
456.941	6343.24
457.147	6490.7
457.352	6691.4
457.558	6863.43
457.764	7422.52
457.97	7488.06
458.176	7688.76
458.381	8000.05
458.587	8417.83
458.793	8583.72
458.999	8509.99
459.204	9589.27
459.41	9865.75
459.616	9974.29
459.821	10646.02
460.027	10775.05
460.233	11508.22
460.438	11469.31
460.644	12032.5
460.85	12372.46
461.055	12974.56
461.261	13445.6
461.466	12978.66
461.672	13328.86
461.878	15118.79
462.083	14553.55
462.289	15020.49
462.494	15827.39
462.7	15733.18
462.905	15856.06
463.111	17224.1
463.316	18145.69
463.522	18170.26
463.727	18911.63
463.932	19579.26
464.138	20619.63
464.343	21174.63
464.549	21211.49
464.754	23017.8
464.959	23511.36
465.165	23468.36
465.37	23746.88
465.575	23736.64
465.781	25207.08
465.986	25887.01
466.191	25936.16
466.397	25817.38
466.602	25295.14
466.807	26728.72
467.012	27113.74
467.218	27740.42
467.423	27783.43
467.628	28387.58
467.833	29954.27
468.038	29391.08
468.244	28614.9
468.449	30415.07
468.654	29530.34
468.859	29769.96
469.064	29716.71
469.269	28606.71
469.474	29290.73
469.679	29892.83
469.885	28928.24
470.09	29970.66
470.295	29749.48
470.5	28915.95
470.705	29180.14
470.91	28328.19
471.115	28430.58
471.32	28678.39
471.525	28543.22
471.73	27545.86
471.935	27699.46
472.139	26165.53
472.344	26458.39
472.549	26558.74
472.754	25987.36
472.959	25358.63
473.164	24443.19
473.369	24054.08
473.574	24793.39
473.778	24254.78
473.983	23810.37
474.188	23363.91
474.393	21989.72
474.598	22450.52
474.802	21660
475.007	21418.34
475.212	21336.42
475.417	20277.62
475.621	20236.66
475.826	19935.61
476.031	19429.76
476.235	18979.21
476.44	19028.36
476.645	18626.96
476.849	18319.76
477.054	17891.74
477.259	17500.58
477.463	17572.25
477.668	17177
477.872	17113.51
478.077	16644.52
478.282	16255.41
478.486	16169.4
478.691	16011.7
478.895	15804.86
479.1	15620.54
479.304	15692.22
479.509	15055.3
479.713	15258.05
479.918	14762.44
480.122	14426.57
480.326	14563.79
480.531	14463.44
480.735	14430.67
480.94	14172.63
481.144	14533.07
481.348	13969.88
481.553	14090.71
481.757	13449.69
481.961	13691.35
482.166	13576.67
482.37	13482.46
482.574	13447.65
482.778	13246.94
482.983	13386.21
483.187	13199.84
483.391	13119.97
483.595	12835.3
483.8	12769.77
484.004	12710.38
484.208	12739.05
484.412	12620.27
484.616	12454.38
484.821	12249.58
485.025	11710.97
485.229	11833.85
485.433	11756.02
485.637	11633.15
485.841	11350.53
486.045	11444.73
486.249	11272.7
486.453	10924.55
486.657	10889.73
486.861	10760.71
487.065	10232.33
487.269	10338.83
487.473	9998.87
487.677	10187.28
487.881	10050.07
488.085	9552.41
488.289	9533.98
488.493	9118.24
488.697	9445.91
488.901	8968.74
489.105	8862.24
489.309	8768.04
489.512	8886.82
489.716	8540.71
489.92	8219.18
490.124	8256.04
490.328	8264.24
490.531	7850.55
490.735	7801.4
490.939	7655.99
491.143	7526.97
491.346	7352.89
491.55	7223.87
491.754	7027.26
491.958	7084.61
492.161	6931.01
492.365	6881.86
492.569	6605.38
492.772	6472.26
492.976	6509.13
493.18	6498.89
493.383	6564.42
493.587	6386.25
493.79	6224.46
493.994	5999.18
494.197	5954.13
494.401	5964.37
494.605	5851.73
494.808	5818.96
495.012	5718.61
495.215	5798.48
495.419	5911.12
495.622	5548.63
495.825	5538.39
496.029	5493.33
496.232	5558.87
496.436	5505.62
496.639	5497.43
496.843	5433.94
497.046	5419.61
497.249	5517.91
497.453	5479
497.656	5362.26
497.859	5386.84
498.063	5503.57
498.266	5395.03
498.469	5304.92
498.673	5384.79
498.876	5419.61
499.079	5550.68
499.282	5411.42
499.485	5497.43
499.689	5468.76
499.892	5593.69
500.095	5618.26
500.298	5597.78
500.501	5452.38
500.705	5538.39
500.908	5648.98
501.111	5593.69
501.314	5876.31
501.517	6036.05
501.72	5894.74
501.923	5888.59
502.126	5878.35
502.329	6160.97
502.532	6029.9
502.735	6052.43
502.938	6441.54
503.141	6378.06
503.344	6353.48
503.547	6451.78
503.75	6433.35
503.953	6515.27
504.156	6808.13
504.359	6758.98
504.562	6656.58
504.765	6888
504.968	6976.06
505.17	7115.33
505.373	7215.68
505.576	7209.53
505.779	7342.65
505.982	7379.51
506.185	7670.33
506.387	7725.62
506.59	7754.29
506.793	8022.58
506.996	8198.7
507.198	8380.97
507.401	8561.19
507.604	8667.69
507.807	8735.27
508.009	8993.31
508.212	9120.29
508.415	9214.49
508.617	9314.84
508.82	9536.03
509.022	9755.16
509.225	9859.6
509.428	10160.66
509.63	10486.28
509.833	10551.82
510.035	10983.94
510.238	11039.23
510.44	11168.26
510.643	11633.15
510.845	11864.57
511.048	12040.69
511.25	12220.91
511.453	12618.22
511.655	13142.5
511.858	13173.22
512.06	13507.04
512.262	13578.72
512.465	13703.64
512.667	14645.71
512.87	14610.89
513.072	14997.96
513.274	15325.63
513.477	15747.51
513.679	16062.9
513.881	16376.24
514.084	16740.78
514.286	17047.97
514.488	17336.74
514.69	18305.43
514.893	18377.11
515.095	18780.56
515.297	19034.5
515.499	19521.92
515.701	19964.28
515.904	20463.99
516.106	21047.66
516.308	21299.56
516.51	21563.75
516.712	22079.83
516.914	22645.07
517.116	23163.21
517.318	23503.17
517.52	23867.71
517.722	24308.02
517.925	24748.34
518.127	25526.57
518.329	25846.05
518.531	25532.71
518.733	26847.51
518.935	27154.7
519.136	27484.42
519.338	28305.66
519.54	28567.8
519.742	29292.78
519.944	29372.65
520.146	29745.38
520.348	30202.08
520.55	30703.83
520.752	30877.91
520.954	31828.17
521.155	31561.93
521.357	32309.44
521.559	33032.37
521.761	33480.88
521.963	33341.61
522.164	34048.16
522.366	34502.81
522.568	34539.68
522.77	35090.58
522.971	35342.48
523.173	35457.17
523.375	35702.92
523.576	35954.82
523.778	35688.59
523.98	36581.5
524.181	36475.01
524.383	36497.53
524.584	36976.76
524.786	37314.67
524.988	36581.5
525.189	37111.92
525.391	37638.25
525.592	37300.34
525.794	37509.23
525.995	37521.52
526.197	37339.25
526.398	37644.4
526.6	37425.26
526.801	37664.88
527.003	37750.89
527.204	36978.81
527.406	37820.52
527.607	36898.94
527.808	37038.2
528.01	36610.17
528.211	36595.84
528.412	36864.12
528.614	36042.88
528.815	36012.17
529.016	35905.67
529.218	35465.36
529.419	35379.34
529.62	35004.56
529.822	34715.8
530.023	34420.89
530.224	34089.12
530.425	33984.68
530.626	33476.78
530.828	32739.51
531.029	33237.17
531.23	32422.08
531.431	32121.02
531.632	32082.11
531.833	31664.33
532.035	31119.57
532.236	30857.43
532.437	30679.25
532.638	30130.4
532.839	29960.42
533.04	29835.49
533.241	28705.01
533.442	29163.76
533.643	28367.1
533.844	27668.74
534.045	27736.32
534.246	27312.39
534.447	27132.17
534.648	26601.75
534.849	26255.64
535.05	25831.71
535.251	25723.17
535.451	25405.74
535.652	24906.03
535.853	24690.99
536.054	24279.35
536.255	24340.79
536.456	23480.64
536.657	23691.59
536.857	23007.56
537.058	22526.29
537.259	22724.94
537.46	22147.42
537.66	21877.08
537.861	21756.25
538.062	21584.23
538.263	21297.51
538.463	20642.16
538.664	20404.6
538.865	20234.61
539.065	20175.22
539.266	19751.29
539.466	19628.42
539.667	19220.87
539.868	19329.41
540.068	18948.49
540.269	18368.91
540.469	18598.29
540.67	18231.7
540.87	18213.27
541.071	17639.84
541.271	17910.17
541.472	17377.7
541.672	17418.66
541.873	17082.79
542.073	16726.44
542.274	16452.02
542.474	16388.53
542.675	15968.69
542.875	16277.94
543.075	15858.1
543.276	15505.85
543.476	15774.14
543.676	15512
543.877	15227.33
544.077	14959.05
544.277	14969.29
544.478	14647.76
544.678	14688.71
544.878	14416.33
545.078	14324.18
545.279	13853.14
545.479	13861.34
545.679	13822.42
545.879	13629.91
546.079	13560.28
546.28	13406.69
546.48	13058.53
546.68	13101.54
546.88	12919.27
547.08	12640.75
547.28	12583.4
547.48	12132.85
547.68	12261.87
547.88	12012.02
548.081	12075.51
548.281	11563.51
548.481	11557.37
548.681	11590.14
548.881	11201.02
549.081	11176.45
549.28	10928.64
549.48	11057.67
549.68	10732.04
549.88	10836.49
550.08	10406.41
550.28	10430.99
550.48	10476.04
550.68	10129.94
550.88	9867.8
551.08	9845.27
551.279	9769.49
551.479	9382.43
551.679	9554.46
551.879	9157.15
552.079	9050.66
552.278	9056.8
552.478	9122.34
552.678	8784.42
552.878	8716.84
553.077	8491.56
553.277	8389.16
553.477	8282.67
553.676	8317.48
553.876	7957.04
554.076	7696.95
554.275	7791.16
554.475	7547.45
554.674	7547.45
554.874	7348.79
555.074	7090.75
555.273	7225.92
555.473	6994.5
555.672	6906.43
555.872	6953.54
556.071	6648.39
556.271	6875.71
556.47	6523.46
556.67	6396.49
556.869	6308.43
557.068	6304.33
557.268	5952.08
557.467	5833.3
557.667	5980.75
557.866	5712.47
558.065	5614.16
558.265	5528.15
558.464	5431.9
558.663	5509.72
558.863	5085.79
559.062	5175.9
559.261	4977.25
559.461	5190.24
559.66	4846.18
559.859	4983.39
560.058	4862.56
560.258	4700.77
560.457	4616.8
560.656	4618.85
560.855	4520.55
561.054	4661.86
561.253	4526.69
561.453	4211.31
561.652	4233.83
561.851	4188.78
562.05	4106.86
562.249	4004.46
562.448	4035.18
562.647	3916.4
562.846	3732.08
563.045	3781.23
563.244	3828.34
563.443	3809.9
563.642	3670.64
563.841	3609.2
564.04	3558
564.239	3541.62
564.438	3375.74
564.637	3285.62
564.836	3349.11
565.035	3261.05
565.234	3226.23
565.432	3207.8
565.631	3175.03
565.83	3103.36
566.029	3017.34
566.228	2898.56
566.427	3011.2
566.625	2837.12
566.824	2923.13
567.023	2845.31
567.222	2706.05
567.42	2749.06
567.619	2644.61
567.818	2658.95
568.016	2753.15
568.215	2630.27
568.414	2628.23
568.612	2482.82
568.811	2505.35
569.01	2423.43
569.208	2450.05
569.407	2482.82
569.605	2261.64
569.804	2361.99
570.002	2235.02
570.201	2073.23
570.4	2134.67
570.598	2136.71
570.797	2144.91
570.995	2052.75
571.193	1991.31
571.392	2206.35
571.59	1843.85
571.789	2015.88
571.987	1876.62
572.186	1909.39
572.384	1675.92
572.582	1880.72
572.781	1901.2
572.979	1696.4
573.177	1794.7
573.376	1745.55
573.574	1761.94
573.772	1614.48
573.971	1534.61
574.169	1542.8
574.367	1688.21
574.565	1516.18
574.763	1438.36
574.962	1512.08
575.16	1389.21
575.358	1542.8
575.556	1440.4
575.754	1434.26
575.952	1389.21
576.151	1432.21
576.349	1389.21
576.547	1254.04
576.745	1354.39
576.943	1385.11
577.141	1237.66
577.339	1219.22
577.537	1251.99
577.735	1208.98
577.933	1204.89
578.131	1067.67
578.329	1180.31
578.527	1172.12
578.725	1088.15
578.923	1026.71
579.121	1198.74
579.319	918.17
579.516	989.85
579.714	1262.23
579.912	1024.67
580.11	952.99
580.308	944.8
580.506	1016.48
580.704	826.01
580.901	930.46
581.099	946.84
581.297	832.16
581.495	869.02
581.692	866.97
581.89	952.99
582.088	842.4
582.285	922.27
582.483	737.95
582.681	709.28
582.878	834.21
583.076	885.41
583.274	842.4
583.471	860.83
583.669	682.66
583.866	600.74
584.064	780.96
584.262	705.18
584.459	682.66
584.657	758.43
584.854	791.2
585.052	709.28
585.249	768.67
585.447	613.03
585.644	600.74
585.841	727.71
586.039	733.86
586.236	737.95
586.434	660.13
586.631	651.94
586.828	580.26
587.026	547.49
587.223	520.87
587.42	553.63
587.618	608.93
587.815	615.07
588.012	633.5
588.21	535.2
588.407	531.11
588.604	496.29
588.801	477.86
588.999	516.77
589.196	653.98
589.393	434.85
589.59	502.43
589.787	522.91
589.984	570.02
590.182	508.58
590.379	443.04
590.576	539.3
590.773	481.96
590.97	424.61
591.167	555.68
591.364	619.17
591.561	477.86
591.758	557.73
591.955	527.01
592.152	514.72
592.349	457.38
592.546	479.91
592.743	459.43
592.94	445.09
593.137	453.28
593.334	627.36
593.531	492.2
593.727	586.4
593.924	527.01
594.121	492.2
594.318	475.81
594.515	547.49
594.712	576.16
594.908	621.22
595.105	326.31
595.302	580.26
595.499	531.11
595.696	660.13
595.892	502.43
596.089	637.6
596.286	496.29
596.482	680.61
596.679	555.68
596.876	639.65
597.072	668.32
597.269	682.66
597.466	711.33
597.662	649.89
597.859	690.85
598.055	672.42
598.252	694.94
598.448	783.01
598.645	854.69
598.841	776.86
599.038	887.45
599.234	965.28
599.431	952.99
599.627	971.42
599.824	1055.39
600.02	985.76
600.217	1084.06
600.413	1155.74
600.609	1145.5
600.806	1409.69
601.002	1159.83
601.198	1153.69
601.395	1374.87
601.591	1399.45
601.787	1407.64
601.984	1622.67
602.18	1520.28
602.376	1524.37
602.572	1649.3
602.769	1655.44
602.965	1731.22
603.161	1874.57
603.357	1960.59
603.553	1893.01
603.75	1763.98
603.946	2054.8
604.142	2022.03
604.338	2329.22
604.534	2183.82
604.73	2247.3
604.926	2359.94
605.122	2609.79
605.318	2495.11
605.514	2763.39
605.71	2601.6
605.906	2863.74
606.102	2916.99
606.298	3046.01
606.494	3193.47
606.69	3132.03
606.886	3281.53
607.082	3168.89
607.278	3441.27
607.474	3461.75
607.67	3699.31
607.866	3607.16
608.062	3816.05
608.257	3908.21
608.453	4004.46
608.649	4176.49
608.845	4338.28
609.041	4287.08
609.236	4608.61
609.432	4534.89
609.628	4690.53
609.824	4934.24
610.019	4788.83
610.215	5085.79
610.411	5309.02
610.606	5507.67
610.802	5401.18
610.998	5675.6
611.193	5831.25
611.389	5788.24
611.584	6144.59
611.78	6083.15
611.976	6267.47
612.171	6654.53
612.367	6709.83
612.562	6935.1
612.758	7017.02
612.953	7113.28
613.149	7518.78
613.344	7443
613.539	7969.33
613.735	8026.67
613.93	8182.32
614.126	8335.92
614.321	8788.52
614.517	8847.91
614.712	9019.94
614.907	9153.05
615.103	9482.78
615.298	9929.24
615.493	10064.4
615.688	10142.22
615.884	10717.7
616.079	10564.11
616.274	11295.23
616.47	11088.39
616.665	11688.44
616.86	12061.17
617.055	12321.26
617.25	12247.54
617.445	12997.09
617.641	12886.5
617.836	13447.65
618.031	13529.56
618.226	13898.2
618.421	14438.86
618.616	14703.05
618.811	14920.14
619.006	15501.76
619.201	15536.57
619.396	16046.52
619.591	16193.97
619.786	16701.87
619.981	16877.99
620.176	17760.67
620.371	17697.18
620.566	18323.86
620.761	18704.78
620.956	18932.11
621.151	19147.14
621.346	19706.24
621.541	19720.57
621.735	20713.84
621.93	20648.3
622.125	21211.49
622.32	20951.4
622.515	22026.59
622.709	22120.79
622.904	22683.98
623.099	22759.76
623.294	23488.84
623.488	23822.66
623.683	24236.34
623.878	24285.5
624.072	24973.61
624.267	25387.3
624.462	25663.78
624.656	25903.39
624.851	26564.89
625.046	26630.42
625.24	27351.31
625.435	27320.59
625.629	27969.79
625.824	28598.52
626.018	28469.5
626.213	28793.08
626.407	29174
626.602	29337.83
626.796	29673.7
626.991	30251.23
627.185	30431.45
627.38	30501.08
627.574	30777.56
627.768	30941.39
627.963	30992.59
628.157	31193.29
628.352	31422.67
628.546	30988.5
628.74	31807.69
628.935	31174.86
629.129	31555.79
629.323	30916.82
629.517	31045.84
629.712	30798.04
629.906	30537.94
630.1	30214.37
630.294	29972.71
630.489	29651.17
630.683	29683.94
630.877	28676.34
631.071	28258.56
631.265	27945.22
631.459	27590.92
631.653	26894.61
631.848	25964.83
632.042	25542.95
632.236	25299.24
632.43	24164.67
632.624	23714.11
632.818	22835.53
633.012	22137.18
633.206	21578.08
633.4	21025.13
633.594	20332.92
633.788	19655.04
633.982	18891.15
634.176	18074.01
634.369	17486.24
634.563	16968.1
634.757	16083.38
634.951	15741.37
635.145	14911.94
635.339	14561.74
635.533	14062.04
635.726	13552.09
635.92	12820.97
636.114	12276.21
636.308	11553.27
636.501	11497.98
636.695	10795.53
636.889	10275.34
637.083	9853.46
637.276	9493.02
637.47	9146.91
637.664	8755.75
637.857	8667.69
638.051	8016.43
638.244	7684.66
638.438	7283.26
638.632	7234.11
638.825	6982.21
639.019	6586.95
639.212	6437.45
639.406	6070.86
639.599	5966.42
639.793	5735
639.986	5438.04
640.18	5401.18
640.373	5048.93
640.567	4799.07
640.76	4727.39
640.954	4672.1
641.147	4448.87
641.34	4100.72
641.534	4053.61
641.727	3877.49
641.92	3588.72
642.114	3578.48
642.307	3373.69
642.5	3361.4
642.694	3119.74
642.887	3156.6
643.08	3066.49
643.273	2867.84
643.467	2570.88
643.66	2583.17
643.853	2407.05
644.046	2601.6
644.239	2224.78
644.432	2120.33
644.626	2089.61
644.819	2093.71
645.012	1925.77
645.205	1993.36
645.398	1882.77
645.591	1680.02
645.784	1634.96
645.977	1596.05
646.17	1499.8
646.363	1489.56
646.556	1467.03
646.749	1260.18
646.942	1366.68
647.135	1344.15
647.328	1196.7
647.521	1284.76
647.714	1180.31
647.907	1004.19
648.099	959.13
648.292	1075.87
648.485	1006.24
648.678	996
648.871	909.98
649.064	924.32
649.256	793.25
649.449	819.87
649.642	684.7
649.835	737.95
650.027	754.34
650.22	715.42
650.413	631.46
650.605	723.62
650.798	600.74
650.991	615.07
651.183	625.31
651.376	619.17
651.568	604.83
651.761	592.55
651.954	514.72
652.146	500.39
652.339	580.26
652.531	635.55
652.724	381.6
652.916	416.42
653.109	248.49
653.301	537.25
653.494	533.15
653.686	332.45
653.879	508.58
654.071	369.32
654.263	328.36
654.456	309.93
654.648	443.04
654.84	371.37
655.033	340.65
655.225	527.01
655.417	187.05
655.61	383.65
655.802	383.65
655.994	389.8
656.186	180.9
656.379	314.02
656.571	205.48
656.763	215.72
656.955	174.76
657.148	311.97
657.34	348.84
657.532	256.68
657.724	266.92
657.916	228.01
658.108	412.32
658.3	252.58
658.492	238.25
658.684	178.86
658.876	295.59
659.068	131.75
659.26	43.69
659.452	115.37
659.644	203.43
659.836	271.01
660.028	240.29
660.22	221.86
660.412	146.09
660.604	115.37
660.796	230.06
660.988	207.53
661.18	203.43
661.372	228.01
661.563	164.52
661.755	189.1
661.947	58.03
662.139	127.66
662.331	162.47
662.522	223.91
662.714	49.83
662.906	86.7
663.097	168.62
663.289	62.12
663.481	72.36
663.673	144.04
663.864	164.52
664.056	182.95
664.247	94.89
664.439	191.14
664.631	125.61
664.822	225.96
665.014	180.9
665.205	66.22
665.397	8.87
665.588	68.27
665.78	131.75
665.971	197.29
666.163	74.41
666.354	164.52
666.546	98.99
666.737	137.9
666.929	170.66
667.12	72.36
667.311	209.58
667.503	119.46
667.694	113.32
667.885	166.57
668.077	135.85
668.268	-27.99
668.459	156.33
668.651	98.99
668.842	125.61
669.033	-11.61
669.224	43.69
669.416	311.97
669.607	35.5
669.798	82.6
669.989	258.73
670.18	164.52
670.371	197.29
670.563	33.45
670.754	76.46
670.945	107.18
671.136	178.86
671.327	90.79
671.518	213.67
671.709	277.16
671.9	217.77
672.091	195.24
672.282	219.82
672.473	172.71
672.664	45.74
672.855	150.18
673.046	154.28
673.237	264.87
673.428	92.84
673.619	127.66
673.809	58.03
674	182.95
674.191	176.81
674.382	139.94
674.573	98.99
674.764	156.33
674.954	131.75
675.145	-11.61
675.336	64.17
675.527	127.66
675.717	119.46
675.908	72.36
676.099	41.64
676.289	199.34
676.48	139.94
676.671	185
676.861	47.79
677.052	156.33
677.243	146.09
677.433	103.08
677.624	180.9
677.814	82.6
678.005	168.62
678.195	305.83
678.386	90.79
678.576	127.66
678.767	117.42
678.957	125.61
679.148	254.63
679.338	303.78
679.529	86.7
679.719	150.18
679.909	170.66
680.1	219.82
680.29	234.15
680.481	125.61
680.671	246.44
680.861	197.29
681.052	209.58
681.242	174.76
681.432	213.67
681.622	193.19
681.813	101.03
682.003	223.91
682.193	154.28
682.383	150.18
682.573	168.62
682.764	131.75
682.954	121.51
683.144	281.25
683.334	105.13
683.524	228.01
683.714	168.62
683.904	283.3
684.094	92.84
684.284	156.33
684.474	285.35
684.664	266.92
684.854	260.77
685.044	182.95
685.234	195.24
685.424	289.45
685.614	182.95
685.804	311.97
685.994	152.23
686.184	174.76
686.374	254.63
686.564	193.19
686.753	178.86
686.943	80.55
687.133	164.52
687.323	199.34
687.513	303.78
687.702	170.66
687.892	164.52
688.082	211.62
688.272	256.68
688.461	162.47
688.651	365.22
688.841	254.63
689.03	78.51
689.22	228.01
689.41	228.01
689.599	211.62
689.789	117.42
689.979	273.06
690.168	172.71
690.358	268.97
690.547	199.34
690.737	160.42
690.926	232.1
691.116	277.16
691.305	217.77
691.495	139.94
691.684	76.46
691.874	115.37
692.063	166.57
692.252	367.27
692.442	287.4
692.631	162.47
692.82	135.85
693.01	139.94
693.199	78.51
693.388	279.21
693.578	189.1
693.767	242.34
693.956	303.78
694.146	195.24
694.335	164.52
694.524	201.38
694.713	328.36
694.902	205.48
695.092	107.18
695.281	141.99
695.47	78.51
695.659	170.66
695.848	197.29
696.037	148.14
696.226	234.15
696.415	207.53
696.604	301.73
696.793	232.1
696.982	168.62
697.171	256.68
697.36	103.08
697.549	191.14
697.738	31.4
697.927	187.05
698.116	121.51
698.305	275.11
698.494	225.96
698.683	141.99
698.872	248.49
699.061	178.86
699.25	172.71
699.438	234.15
699.627	152.23
699.816	320.17
700.005	111.27
700.193	164.52
700.382	203.43
700.571	203.43
700.76	219.82
700.948	295.59
701.137	236.2
701.326	256.68
701.514	68.27
701.703	250.53
701.892	252.58
702.08	328.36
702.269	111.27
702.457	162.47
702.646	221.86
702.834	264.87
703.023	254.63
703.212	176.81
703.4	189.1
703.589	135.85
703.777	156.33
703.965	119.46
704.154	103.08
704.342	115.37
704.531	154.28
704.719	207.53
704.907	305.83
705.096	105.13
705.284	80.55
705.472	209.58
705.661	205.48
705.849	215.72
706.037	303.78
706.226	221.86
706.414	232.1
706.602	156.33
706.79	127.66
706.979	131.75
707.167	164.52
707.355	125.61
707.543	164.52
707.731	215.72
707.919	123.56
708.107	150.18
708.296	144.04
708.484	223.91
708.672	199.34
708.86	219.82
709.048	193.19
709.236	90.79
709.424	168.62
709.612	119.46
709.8	45.74
709.988	152.23
710.176	246.44
710.364	260.77
710.551	195.24
710.739	178.86
710.927	170.66
711.115	205.48
711.303	289.45
711.491	238.25
711.679	166.57
711.866	283.3
712.054	168.62
712.242	228.01
712.43	326.31
712.617	174.76
712.805	191.14
712.993	195.24
713.181	21.16
713.368	215.72
713.556	207.53
713.744	189.1
713.931	434.85
714.119	201.38
714.306	187.05
714.494	131.75
714.682	242.34
714.869	180.9
715.057	205.48
715.244	76.46
715.432	236.2
715.619	117.42
715.807	189.1
715.994	92.84
716.182	266.92
716.369	228.01
716.556	258.73
716.744	58.03
716.931	103.08
717.119	240.29
717.306	92.84
717.493	301.73
717.681	176.81
717.868	162.47
718.055	230.06
718.242	117.42
718.43	246.44
718.617	328.36
718.804	182.95
718.991	268.97
719.179	287.4
719.366	225.96
719.553	262.82
719.74	191.14
719.927	168.62
720.114	150.18
720.301	156.33
720.488	185
720.676	111.27
720.863	330.41
721.05	291.49
721.237	264.87
721.424	287.4
721.611	240.29
721.798	162.47
721.985	146.09
722.172	228.01
722.358	219.82
722.545	262.82
722.732	213.67
722.919	318.12
723.106	213.67
723.293	203.43
723.48	250.53
723.667	96.94
723.853	268.97
724.04	209.58
724.227	254.63
724.414	244.39
724.6	228.01
724.787	354.98
724.974	389.8
725.161	156.33
725.347	185
725.534	256.68
725.72	219.82
725.907	336.55
726.094	291.49
726.28	225.96
726.467	180.9
726.653	180.9
726.84	307.88
727.027	381.6
727.213	225.96
727.4	291.49
727.586	254.63
727.773	248.49
727.959	221.86
728.145	215.72
728.332	213.67
728.518	176.81
728.705	303.78
728.891	146.09
729.077	295.59
729.264	185
729.45	174.76
729.636	293.54
729.823	242.34
730.009	318.12
730.195	291.49
730.382	232.1
730.568	141.99
730.754	316.07
730.94	262.82
731.126	197.29
731.313	268.97
731.499	215.72
731.685	363.17
731.871	230.06
732.057	205.48
732.243	350.89
732.429	252.58
732.615	383.65
732.801	273.06
732.987	252.58
733.173	309.93
733.359	207.53
733.545	287.4
733.731	256.68
733.917	387.75
734.103	336.55
734.289	250.53
734.475	240.29
734.661	340.65
734.847	242.34
735.033	289.45
735.219	242.34
735.404	197.29
735.59	215.72
735.776	217.77
735.962	309.93
736.148	289.45
736.333	367.27
736.519	303.78
736.705	230.06
736.89	256.68
737.076	264.87
737.262	195.24
737.447	244.39
737.633	236.2
737.819	287.4
738.004	336.55
738.19	305.83
738.375	289.45
738.561	314.02
738.747	303.78
738.932	195.24
739.118	428.71
739.303	316.07
739.489	311.97
739.674	264.87
739.859	146.09
740.045	295.59
740.23	305.83
740.416	135.85
740.601	256.68
740.786	285.35
740.972	324.26
741.157	240.29
741.342	156.33
741.528	129.7
741.713	305.83
741.898	219.82
742.084	301.73
742.269	256.68
742.454	277.16
742.639	338.6
742.824	254.63
743.01	422.56
743.195	426.66
743.38	311.97
743.565	238.25
743.75	271.01
743.935	273.06
744.12	391.84
744.305	156.33
744.49	228.01
744.675	271.01
744.86	197.29
745.045	297.64
745.23	193.19
745.415	152.23
745.6	400.04
745.785	260.77
745.97	354.98
746.155	381.6
746.34	307.88
746.525	275.11
746.71	385.7
746.895	170.66
747.079	217.77
747.264	232.1
747.449	283.3
747.634	215.72
747.819	205.48
748.003	260.77
748.188	180.9
748.373	242.34
748.557	287.4
748.742	254.63
748.927	266.92
749.111	193.19
749.296	254.63
749.481	314.02
749.665	193.19
749.85	246.44
750.034	254.63
750.219	217.77
750.404	172.71
750.588	232.1
750.773	193.19
750.957	197.29
751.141	209.58
751.326	201.38
751.51	185
751.695	199.34
751.879	232.1
752.064	336.55
752.248	262.82
752.432	330.41
752.617	363.17
752.801	209.58
752.985	203.43
753.17	266.92
753.354	158.38
753.538	209.58
753.722	217.77
753.907	162.47
754.091	154.28
754.275	213.67
754.459	70.31
754.643	90.79
754.828	248.49
755.012	215.72
755.196	113.32
755.38	221.86
755.564	236.2
755.748	144.04
755.932	303.78
756.116	271.01
756.3	242.34
756.484	107.18
756.668	283.3
756.852	123.56
757.036	49.83
757.22	225.96
757.404	123.56
757.588	162.47
757.772	219.82
757.956	113.32
758.14	277.16
758.323	152.23
758.507	141.99
758.691	103.08
758.875	291.49
759.059	299.69
759.242	68.27
759.426	141.99
759.61	199.34
759.794	66.22
759.977	230.06
760.161	285.35
760.345	287.4
760.528	330.41
760.712	185
760.895	213.67
761.079	123.56
761.263	70.31
761.446	94.89
761.63	72.36
761.813	197.29
761.997	78.51
762.18	111.27
762.364	191.14
762.547	39.59
762.731	123.56
762.914	82.6
763.098	127.66
763.281	84.65
763.464	78.51
763.648	107.18
763.831	103.08
764.015	66.22
764.198	201.38
764.381	168.62
764.564	78.51
764.748	238.25
764.931	176.81
765.114	39.59
765.297	250.53
765.481	39.59
765.664	148.14
765.847	72.36
766.03	162.47
766.213	152.23
766.397	141.99
766.58	60.07
766.763	213.67
766.946	64.17
767.129	90.79
767.312	-32.08
767.495	72.36
767.678	-19.8
767.861	156.33
768.044	135.85
768.227	70.31
768.41	131.75
768.593	139.94
768.776	98.99
768.959	21.16
769.142	154.28
769.324	41.64
769.507	72.36
769.69	29.35
769.873	76.46
770.056	174.76
770.239	101.03
770.421	195.24
770.604	84.65
770.787	86.7
770.97	119.46
771.152	23.21
771.335	178.86
771.518	-58.71
771.7	107.18
771.883	238.25
772.066	58.03
772.248	88.75
772.431	193.19
772.613	170.66
772.796	103.08
772.978	152.23
773.161	133.8
773.343	55.98
773.526	125.61
773.708	39.59
773.891	15.02
774.073	78.51
774.256	49.83
774.438	178.86
774.621	-25.94
774.803	37.55
774.985	115.37
775.168	107.18
775.35	-62.8
775.532	45.74
775.715	29.35
775.897	86.7
776.079	8.87
776.261	131.75
776.444	31.4
776.626	131.75
776.808	88.75
776.99	23.21
777.173	31.4
777.355	84.65
777.537	88.75
777.719	125.61
777.901	60.07
778.083	58.03
778.265	-38.23
778.447	162.47
778.629	8.87
778.811	94.89
778.993	154.28
779.175	98.99
779.357	37.55
779.539	29.35
779.721	90.79
779.903	168.62
780.085	29.35
780.267	19.11
780.449	10.92
780.631	96.94
780.812	232.1
780.994	45.74
781.176	29.35
781.358	23.21
781.54	4.78
781.721	121.51
781.903	141.99
782.085	88.75
782.267	121.51
782.448	17.07
782.63	23.21
782.812	98.99
782.993	164.52
783.175	31.4
783.357	2.73
783.538	60.07
783.72	-56.66
783.901	47.79
784.083	78.51
784.264	72.36
784.446	-13.65
784.627	27.31
784.809	154.28
784.99	4.78
785.172	185
785.353	70.31
785.535	107.18
785.716	25.26
785.897	-52.56
786.079	8.87
786.26	68.27
786.441	35.5
786.623	-58.71
786.804	-19.8
786.985	4.78
787.167	78.51
787.348	29.35
787.529	37.55
787.71	170.66
787.891	111.27
788.073	15.02
788.254	-71
788.435	182.95
788.616	109.22
788.797	-11.61
788.978	105.13
789.159	2.73
789.34	111.27
789.522	27.31
789.703	-19.8
789.884	66.22
790.065	31.4
790.246	121.51
790.427	15.02
790.607	148.14
790.788	123.56
790.969	-3.41
791.15	-23.89
791.331	21.16
791.512	4.78
791.693	-48.47
791.874	78.51
792.054	154.28
792.235	92.84
792.416	-68.95
792.597	-25.94
792.778	117.42
792.958	72.36
793.139	-48.47
793.32	12.97
793.5	21.16
793.681	92.84
793.862	150.18
794.042	-7.51
794.223	-79.19
794.404	51.88
794.584	-48.47
794.765	37.55
794.945	37.55
795.126	74.41
795.306	74.41
795.487	-38.23
795.667	-3.41
795.848	29.35
796.028	10.92
796.209	29.35
796.389	113.32
796.57	21.16
796.75	-42.32
796.93	47.79
797.111	8.87
797.291	-34.13
797.471	86.7
797.652	37.55
797.832	-46.42
798.012	33.45
798.192	-30.04
798.373	-81.24
798.553	-66.9
798.733	113.32
798.913	-50.52
799.093	0.68
799.274	41.64
799.454	49.83
799.634	45.74
799.814	76.46
799.994	33.45
800.174	64.17
800.354	45.74
800.534	-46.42
800.714	94.89
800.894	10.92
801.074	-40.28
801.254	37.55
801.434	76.46
801.614	-17.75
801.794	-42.32
801.974	1725.07
802.154	-30.04
802.334	148.14
802.514	-71
802.693	-27.99
802.873	-50.52
803.053	119.46
803.233	41.64
803.413	43.69
803.592	-85.33
803.772	-27.99
803.952	17.07
804.131	-77.14
804.311	74.41
804.491	96.94
804.67	-46.42
804.85	-27.99
805.03	58.03
805.209	12.97
805.389	-9.56
805.568	-46.42
805.748	-11.61
805.928	25.26
806.107	131.75
806.287	39.59
806.466	15.02
806.646	-25.94
806.825	-64.85
807.004	-42.32
807.184	137.9
807.363	29.35
807.543	8.87
807.722	-95.57
807.901	70.31
808.081	29.35
808.26	-81.24
808.439	25.26
808.619	35.5
808.798	27.31
808.977	60.07
809.156	55.98
809.336	-23.89
809.515	117.42
809.694	-77.14
809.873	-93.52
810.052	86.7
810.231	103.08
810.411	-3.41
810.59	2.73
810.769	-17.75
810.948	96.94
811.127	-124.24
811.306	-42.32
811.485	-17.75
811.664	232.1
811.843	51.88
812.022	29.35
812.201	-68.95
812.38	-9.56
812.559	-52.56
812.737	82.6
812.916	-79.19
813.095	-48.47
813.274	23.21
813.453	51.88
813.632	51.88
813.811	58.03
813.989	-75.09
814.168	117.42
814.347	25.26
814.526	-77.14
814.704	82.6
814.883	131.75
815.062	-95.57
815.24	74.41
815.419	2.73
815.598	-5.46
815.776	-146.77
815.955	-5.46
816.133	-62.8
816.312	15.02
816.49	-73.04
816.669	49.83
816.847	-7.51
817.026	49.83
817.204	68.27
817.383	41.64
817.561	-36.18
817.74	74.41
817.918	88.75
818.097	-71
818.275	4.78
818.453	29.35
818.632	-7.51
818.81	-25.94
818.988	-15.7
819.167	-34.13
819.345	68.27
819.523	-114
819.701	-11.61
819.879	86.7
820.058	15.02
820.236	72.36
820.414	-40.28
820.592	-25.94
820.77	-17.75
820.948	-21.85
821.127	-19.8
821.305	-15.7
821.483	-52.56
821.661	55.98
821.839	53.93
822.017	-7.51
822.195	-3.41
822.373	47.79
822.551	19.11
822.729	15.02
822.907	64.17
823.085	80.55
823.262	17.07
823.44	-30.04
823.618	15.02
823.796	19.11
823.974	-9.56
824.152	-21.85
824.329	-38.23
824.507	17.07
824.685	115.37
824.863	64.17
825.04	70.31
825.218	45.74
825.396	-9.56
825.574	25.26
825.751	76.46
825.929	49.83
826.107	-40.28
826.284	33.45
826.462	37.55
826.639	-64.85
826.817	-136.53
826.994	-15.7
827.172	-15.7
827.349	131.75
827.527	47.79
827.704	-36.18
827.882	-25.94
828.059	-17.75
828.237	15.02
828.414	94.89
828.591	-111.96
828.769	51.88
828.946	-52.56
829.124	66.22
829.301	41.64
829.478	-71
829.655	62.12
829.833	21.16
830.01	-101.72
830.187	-13.65
830.364	-58.71
830.542	45.74
830.719	160.42
830.896	41.64
831.073	68.27
831.25	35.5
831.427	105.13
831.604	21.16
831.782	6.83
831.959	49.83
832.136	-3.41
832.313	68.27
832.49	37.55
832.667	37.55
832.844	-32.08
833.021	66.22
833.198	-34.13
833.374	-36.18
833.551	86.7
833.728	-58.71
833.905	62.12
834.082	-85.33
834.259	66.22
834.436	68.27
834.612	-93.52
834.789	55.98
834.966	47.79
835.143	84.65
835.319	-62.8
835.496	49.83
835.673	74.41
835.85	55.98
836.026	-5.46
836.203	74.41
836.38	-101.72
836.556	27.31
836.733	-1.37
836.909	129.7
837.086	17.07
837.262	-75.09
837.439	51.88
837.616	-34.13
837.792	58.03
837.968	-23.89
838.145	-122.2
838.321	31.4
838.498	86.7
838.674	39.59
838.851	-13.65
839.027	-109.91
839.203	15.02
839.38	45.74
839.556	-89.43
839.732	94.89
839.909	-11.61
840.085	0.68
840.261	-23.89
840.437	-17.75
840.614	-15.7
840.79	49.83
840.966	68.27
841.142	-19.8
841.318	-32.08
841.494	94.89
841.671	2.73
841.847	-116.05
842.023	-32.08
842.199	74.41
842.375	66.22
842.551	-122.2
842.727	-95.57
842.903	53.93
843.079	-109.91
843.255	170.66
843.431	-54.61
843.607	41.64
843.783	-146.77
843.959	-21.85
844.134	-40.28
844.31	88.75
844.486	-54.61
844.662	10.92
844.838	-71
845.013	6.83
845.189	115.37
845.365	-1.37
845.541	-52.56
845.716	47.79
845.892	74.41
846.068	-71
846.244	-13.65
846.419	58.03
846.595	-124.24
846.77	-93.52
846.946	168.62
847.122	-40.28
847.297	-42.32
847.473	182.95
847.648	-56.66
847.824	6.83
847.999	-58.71
848.175	10.92
848.35	-60.76
848.526	109.22
848.701	39.59
848.876	55.98
849.052	-25.94
849.227	29.35
849.403	43.69
849.578	6.83
849.753	4.78
849.929	-32.08
850.104	-30.04
850.279	-38.23
850.454	23.21
850.63	-13.65
850.805	-15.7
850.98	-21.85
851.155	12.97
851.33	2.73
851.505	-48.47
851.681	117.42
851.856	-44.37
852.031	41.64
852.206	-75.09
852.381	-64.85
852.556	-85.33
852.731	-32.08
852.906	72.36
853.081	35.5
853.256	88.75
853.431	-101.72
853.606	-21.85
853.781	-62.8
853.956	-116.05
854.131	-58.71
854.305	-25.94
854.48	-66.9
854.655	-3.41
854.83	-44.37
855.005	70.31
855.18	-5.46
855.354	-36.18
855.529	-17.75
855.704	0.68
855.879	31.4
856.053	-62.8
856.228	49.83
856.403	-107.86
856.577	-15.7
856.752	-93.52
856.926	-75.09
857.101	4.78
857.276	-38.23
857.45	55.98
857.625	41.64
857.799	-3.41
857.974	37.55
858.148	-130.39
858.323	-7.51
858.497	-27.99
858.672	-83.28
858.846	-128.34
859.02	29.35
859.195	-109.91
859.369	-5.46
859.543	-21.85
859.718	-7.51
859.892	-52.56
860.066	23.21
860.241	-71
860.415	-19.8
860.589	-13.65
860.763	-64.85
860.938	-95.57
861.112	37.55
861.286	4.78
861.46	88.75
861.634	74.41
861.808	80.55
861.982	-17.75
862.157	-79.19
862.331	-60.76
862.505	-97.62
862.679	-130.39
862.853	-50.52
863.027	-36.18
863.201	152.23
863.375	-77.14
863.549	-81.24
863.722	58.03
863.896	150.18
864.07	-87.38
864.244	6.83
864.418	-25.94
864.592	78.51
864.766	4.78
864.939	-15.7
865.113	-62.8
865.287	33.45
865.461	-42.32
865.634	6.83
865.808	19.11
865.982	-99.67
866.156	21.16
866.329	-77.14
866.503	45.74
866.676	51.88
866.85	21.16
867.024	-30.04
867.197	70.31
867.371	70.31
867.544	-17.75
867.718	-103.76
867.891	174.76
868.065	-105.81
868.238	6.83
868.412	70.31
868.585	-34.13
868.759	-97.62
868.932	-66.9
869.105	-42.32
869.279	2.73
869.452	-54.61
869.625	94.89
869.799	-7.51
869.972	-140.63
870.145	-25.94
870.319	64.17
870.492	-36.18
870.665	-83.28
870.838	-64.85
871.011	-177.49
871.185	-15.7
871.358	-32.08
871.531	27.31
871.704	-38.23
871.877	-21.85
872.05	-87.38
872.223	-68.95
872.396	35.5
872.569	58.03
872.742	-87.38
872.915	33.45
873.088	-5.46
873.261	8.87
873.434	-15.7
873.607	-13.65
873.78	111.27
873.953	-114
874.126	35.5
874.299	-17.75
874.471	23.21
874.644	-15.7
874.817	49.83
874.99	117.42
875.163	-19.8
875.335	92.84
875.508	-13.65
875.681	68.27
875.853	-7.51
876.026	-30.04
876.199	35.5
876.371	0.68
876.544	-34.13
876.717	72.36
876.889	-21.85
877.062	84.65
877.234	4.78
877.407	-75.09
877.579	-36.18
877.752	-15.7
877.924	-42.32
878.097	12.97
878.269	43.69
878.442	47.79
878.614	21.16
878.786	-3.41
878.959	19.11
879.131	6.83
879.303	-148.82
879.476	-27.99
879.648	-13.65
879.82	29.35
879.993	-25.94
880.165	6.83
880.337	-93.52
880.509	21.16
880.681	-114
880.854	-32.08
881.026	101.03
881.198	150.18
881.37	-17.75
881.542	-58.71
881.714	-27.99
881.886	2.73
882.058	-75.09
882.23	-9.56
882.402	-42.32
882.574	2.73
882.746	25.26
882.918	33.45
883.09	92.84
883.262	-91.48
883.434	-36.18
883.606	-77.14
883.778	49.83
883.95	115.37
884.122	2.73
884.293	37.55
884.465	-17.75
884.637	43.69
884.809	-52.56
884.98	29.35
885.152	35.5
885.324	12.97
885.496	-42.32
885.667	-60.76
885.839	-50.52
886.011	141.99
886.182	17.07
886.354	31.4
886.525	33.45
886.697	0.68
886.869	-75.09
887.04	-46.42
887.212	101.03
887.383	146.09
887.555	6.83
887.726	21.16
887.897	-73.04
888.069	-13.65
888.24	88.75
888.412	-38.23
888.583	-75.09
888.754	23.21
888.926	-159.06
889.097	10.92
889.268	-89.43
889.44	-3.41
889.611	-93.52
889.782	-68.95
889.953	-144.72
890.125	105.13
890.296	-52.56
890.467	-21.85
890.638	-81.24
890.809	4.78
890.98	-21.85
891.151	21.16
891.323	74.41
891.494	-7.51
891.665	19.11
891.836	43.69
892.007	-21.85
892.178	-32.08
892.349	33.45
892.52	-42.32
892.691	-77.14
892.862	-48.47
893.032	-183.63
893.203	-27.99
893.374	-7.51
893.545	60.07
893.716	-48.47
893.887	41.64
894.057	-75.09
894.228	37.55
894.399	-32.08
894.57	80.55
894.74	19.11
894.911	2.73
895.082	-79.19
895.253	-42.32
895.423	-40.28
895.594	-30.04
895.764	-17.75
895.935	-62.8
896.106	45.74
896.276	-34.13
896.447	-48.47
896.617	-42.32
896.788	-140.63
896.958	-32.08
897.129	-52.56
897.299	-42.32
897.47	115.37
897.64	37.55
897.81	-7.51
897.981	-21.85
898.151	-46.42
898.322	-5.46
898.492	29.35
898.662	-95.57
898.832	-58.71
899.003	-25.94
899.173	37.55
899.343	-58.71
899.513	-122.2
