Data from USB4F104151__39__09-27-30-109.txt Node

Date: Wed Feb 26 09:27:30 EST 2025
User: louis
Spectrometer: USB4F10415
Trigger mode: 4
Integration Time (sec): 1.000000E-1
Scans to average: 1
Electric dark correction enabled: true
Nonlinearity correction enabled: false
Boxcar width: 0
XAxis mode: Wavelengths
Number of Pixels in Spectrum: 3648
>>>>>Begin Spectral Data<<<<<
178.204	-343.89
178.424	-343.89
178.644	-343.89
178.864	-309.07
179.084	-358.22
179.304	-1.88
179.524	-5.97
179.744	37.03
179.964	49.32
180.184	-12.12
180.404	10.41
180.624	-73.56
180.844	-34.64
181.064	-75.6
181.283	84.14
181.503	-36.69
181.723	59.56
181.943	-96.08
182.163	231.59
182.383	20.65
182.602	75.95
182.822	151.72
183.042	51.37
183.262	18.6
183.482	-5.97
183.701	59.56
183.921	49.32
184.141	-16.21
184.361	123.05
184.58	-38.74
184.8	73.9
185.02	-42.84
185.239	67.75
185.459	41.13
185.679	149.67
185.898	-106.32
186.118	-38.74
186.338	63.66
186.557	69.8
186.777	-57.17
186.997	6.31
187.216	90.28
187.436	129.19
187.655	170.15
187.875	73.9
188.095	77.99
188.314	250.02
188.534	125.1
188.753	59.56
188.973	100.52
189.192	98.47
189.412	16.55
189.631	51.37
189.851	65.71
190.07	108.71
190.29	-55.12
190.509	-12.12
190.729	22.7
190.948	159.91
191.168	223.4
191.387	112.81
191.607	88.23
191.826	65.71
192.045	2.22
192.265	-38.74
192.484	88.23
192.704	57.51
192.923	-63.32
193.142	278.69
193.362	63.66
193.581	149.67
193.8	59.56
194.02	112.81
194.239	63.66
194.458	123.05
194.678	59.56
194.897	-16.21
195.116	37.03
195.335	92.33
195.555	80.04
195.774	55.47
195.993	94.38
196.212	37.03
196.432	26.79
196.651	10.41
196.87	30.89
197.089	227.5
197.308	51.37
197.528	112.81
197.747	-12.12
197.966	90.28
198.185	71.85
198.404	-5.97
198.623	51.37
198.842	67.75
199.062	125.1
199.281	114.86
199.5	8.36
199.719	75.95
199.938	55.47
200.157	106.67
200.376	147.62
200.595	125.1
200.814	88.23
201.033	26.79
201.252	61.61
201.471	37.03
201.69	43.18
201.909	92.33
202.128	67.75
202.347	28.84
202.566	59.56
202.785	-10.07
203.004	-65.36
203.223	184.49
203.442	10.41
203.661	18.6
203.879	73.9
204.098	53.42
204.317	-5.97
204.536	63.66
204.755	34.99
204.974	57.51
205.193	10.41
205.411	116.9
205.63	8.36
205.849	135.34
206.068	16.55
206.287	43.18
206.505	67.75
206.724	-14.17
206.943	-10.07
207.162	-14.17
207.381	24.75
207.599	10.41
207.818	30.89
208.037	2.22
208.255	18.6
208.474	43.18
208.693	39.08
208.911	-1.88
209.13	59.56
209.349	90.28
209.567	90.28
209.786	84.14
210.005	129.19
210.223	43.18
210.442	-83.8
210.661	116.9
210.879	71.85
211.098	32.94
211.316	45.23
211.535	49.32
211.753	51.37
211.972	57.51
212.191	24.75
212.409	2.22
212.628	98.47
212.846	-24.4
213.065	67.75
213.283	141.48
213.502	57.51
213.72	-32.6
213.938	43.18
214.157	75.95
214.375	108.71
214.594	28.84
214.812	104.62
215.031	-1.88
215.249	49.32
215.467	41.13
215.686	57.51
215.904	86.19
216.122	49.32
216.341	133.29
216.559	8.36
216.778	47.27
216.996	100.52
217.214	18.6
217.432	-32.6
217.651	-5.97
217.869	71.85
218.087	16.55
218.306	16.55
218.524	106.67
218.742	90.28
218.96	100.52
219.179	-3.93
219.397	41.13
219.615	284.84
219.833	71.85
220.051	26.79
220.27	155.82
220.488	102.57
220.706	34.99
220.924	-10.07
221.142	-22.36
221.36	30.89
221.578	88.23
221.796	86.19
222.015	47.27
222.233	2.22
222.451	77.99
222.669	-1.88
222.887	18.6
223.105	65.71
223.323	-8.02
223.541	-30.55
223.759	73.9
223.977	34.99
224.195	139.43
224.413	96.43
224.631	131.24
224.849	63.66
225.067	207.02
225.285	-65.36
225.503	-8.02
225.721	-71.51
225.939	57.51
226.157	34.99
226.375	252.07
226.592	-67.41
226.81	82.09
227.028	65.71
227.246	174.25
227.464	73.9
227.682	49.32
227.9	182.44
228.117	-38.74
228.335	69.8
228.553	34.99
228.771	-12.12
228.989	10.41
229.206	112.81
229.424	-5.97
229.642	37.03
229.86	-1.88
230.077	77.99
230.295	-28.5
230.513	161.96
230.731	104.62
230.948	123.05
231.166	182.44
231.384	10.41
231.601	47.27
231.819	172.2
232.037	65.71
232.254	0.17
232.472	22.7
232.689	63.66
232.907	88.23
233.125	14.51
233.342	18.6
233.56	16.55
233.777	123.05
233.995	49.32
234.213	75.95
234.43	147.62
234.648	22.7
234.865	43.18
235.083	96.43
235.3	39.08
235.518	84.14
235.735	88.23
235.953	57.51
236.17	88.23
236.388	30.89
236.605	90.28
236.822	116.9
237.04	84.14
237.257	41.13
237.475	-14.17
237.692	123.05
237.909	57.51
238.127	43.18
238.344	108.71
238.562	37.03
238.779	-16.21
238.996	-5.97
239.214	22.7
239.431	98.47
239.648	20.65
239.865	104.62
240.083	108.71
240.3	47.27
240.517	12.46
240.735	-24.4
240.952	108.71
241.169	75.95
241.386	125.1
241.603	-24.4
241.821	-18.26
242.038	96.43
242.255	92.33
242.472	22.7
242.689	114.86
242.907	47.27
243.124	12.46
243.341	-1.88
243.558	30.89
243.775	-26.45
243.992	4.27
244.209	110.76
244.426	204.97
244.643	84.14
244.86	16.55
245.078	45.23
245.295	100.52
245.512	16.55
245.729	2.22
245.946	80.04
246.163	98.47
246.38	26.79
246.597	71.85
246.814	53.42
247.031	67.75
247.248	102.57
247.464	51.37
247.681	34.99
247.898	110.76
248.115	110.76
248.332	-53.08
248.549	59.56
248.766	118.95
248.983	137.38
249.2	65.71
249.417	196.78
249.633	12.46
249.85	28.84
250.067	39.08
250.284	80.04
250.501	114.86
250.717	92.33
250.934	-51.03
251.151	16.55
251.368	28.84
251.585	24.75
251.801	28.84
252.018	12.46
252.235	104.62
252.451	-42.84
252.668	24.75
252.885	100.52
253.102	51.37
253.318	18.6
253.535	32.94
253.752	88.23
253.968	-16.21
254.185	-51.03
254.401	51.37
254.618	73.9
254.835	-18.26
255.051	153.77
255.268	80.04
255.484	92.33
255.701	47.27
255.917	90.28
256.134	-30.55
256.351	47.27
256.567	-30.55
256.784	114.86
257	-73.56
257.217	135.34
257.433	145.58
257.65	90.28
257.866	172.2
258.082	-57.17
258.299	2.22
258.515	16.55
258.732	37.03
258.948	20.65
259.165	32.94
259.381	34.99
259.597	84.14
259.814	16.55
260.03	59.56
260.246	10.41
260.463	75.95
260.679	118.95
260.895	47.27
261.112	69.8
261.328	43.18
261.544	-28.5
261.761	225.45
261.977	6.31
262.193	-98.13
262.409	71.85
262.626	141.48
262.842	34.99
263.058	-46.93
263.274	86.19
263.49	30.89
263.707	116.9
263.923	75.95
264.139	-89.94
264.355	84.14
264.571	63.66
264.787	71.85
265.004	153.77
265.22	39.08
265.436	8.36
265.652	-20.31
265.868	12.46
266.084	8.36
266.3	26.79
266.516	-63.32
266.732	12.46
266.948	-5.97
267.164	4.27
267.38	86.19
267.596	30.89
267.812	100.52
268.028	39.08
268.244	-1.88
268.46	104.62
268.676	34.99
268.892	86.19
269.108	-5.97
269.324	-63.32
269.54	-71.51
269.756	73.9
269.972	39.08
270.188	18.6
270.403	-79.7
270.619	57.51
270.835	67.75
271.051	59.56
271.267	14.51
271.483	57.51
271.698	98.47
271.914	57.51
272.13	49.32
272.346	53.42
272.562	77.99
272.777	108.71
272.993	4.27
273.209	-30.55
273.425	92.33
273.64	12.46
273.856	71.85
274.072	-34.64
274.287	-71.51
274.503	116.9
274.719	108.71
274.934	2.22
275.15	-63.32
275.366	63.66
275.581	-32.6
275.797	-51.03
276.012	30.89
276.228	-8.02
276.444	57.51
276.659	121
276.875	20.65
277.09	-26.45
277.306	98.47
277.521	34.99
277.737	14.51
277.952	125.1
278.168	-14.17
278.383	80.04
278.599	69.8
278.814	43.18
279.03	0.17
279.245	65.71
279.461	30.89
279.676	59.56
279.892	-40.79
280.107	-38.74
280.322	-10.07
280.538	127.14
280.753	-46.93
280.969	39.08
281.184	-10.07
281.399	182.44
281.615	10.41
281.83	114.86
282.045	-8.02
282.26	-20.31
282.476	84.14
282.691	129.19
282.906	30.89
283.122	2.22
283.337	92.33
283.552	116.9
283.767	6.31
283.983	149.67
284.198	100.52
284.413	114.86
284.628	-44.88
284.843	8.36
285.058	77.99
285.274	49.32
285.489	-46.93
285.704	125.1
285.919	-42.84
286.134	20.65
286.349	-22.36
286.564	0.17
286.779	123.05
286.995	34.99
287.21	-59.22
287.425	88.23
287.64	-8.02
287.855	49.32
288.07	-42.84
288.285	106.67
288.5	129.19
288.715	104.62
288.93	6.31
289.145	37.03
289.36	84.14
289.575	16.55
289.79	69.8
290.004	-59.22
290.219	116.9
290.434	-1.88
290.649	49.32
290.864	-16.21
291.079	57.51
291.294	82.09
291.509	-8.02
291.724	32.94
291.938	24.75
292.153	41.13
292.368	57.51
292.583	71.85
292.798	59.56
293.012	104.62
293.227	57.51
293.442	10.41
293.657	77.99
293.871	164.01
294.086	-1.88
294.301	129.19
294.516	188.58
294.73	39.08
294.945	0.17
295.16	51.37
295.374	75.95
295.589	75.95
295.804	14.51
296.018	26.79
296.233	108.71
296.447	41.13
296.662	-46.93
296.877	168.1
297.091	139.43
297.306	139.43
297.52	-40.79
297.735	-16.21
297.949	43.18
298.164	-1.88
298.378	43.18
298.593	-14.17
298.807	8.36
299.022	84.14
299.236	149.67
299.451	-8.02
299.665	-18.26
299.88	12.46
300.094	67.75
300.309	-28.5
300.523	20.65
300.737	51.37
300.952	116.9
301.166	84.14
301.381	55.47
301.595	-38.74
301.809	0.17
302.024	-36.69
302.238	4.27
302.452	135.34
302.667	-18.26
302.881	170.15
303.095	139.43
303.309	61.61
303.524	-69.46
303.738	-53.08
303.952	-40.79
304.166	26.79
304.381	-67.41
304.595	155.82
304.809	41.13
305.023	75.95
305.237	-26.45
305.452	18.6
305.666	65.71
305.88	24.75
306.094	67.75
306.308	84.14
306.522	135.34
306.736	51.37
306.95	43.18
307.164	2.22
307.379	51.37
307.593	131.24
307.807	51.37
308.021	102.57
308.235	139.43
308.449	-5.97
308.663	45.23
308.877	184.49
309.091	75.95
309.305	43.18
309.519	-38.74
309.733	90.28
309.947	-67.41
310.161	43.18
310.374	57.51
310.588	161.96
310.802	55.47
311.016	-5.97
311.23	71.85
311.444	12.46
311.658	0.17
311.872	112.81
312.085	106.67
312.299	141.48
312.513	139.43
312.727	92.33
312.941	-63.32
313.154	45.23
313.368	10.41
313.582	67.75
313.796	-8.02
314.009	57.51
314.223	166.06
314.437	127.14
314.651	104.62
314.864	18.6
315.078	32.94
315.292	-91.99
315.505	8.36
315.719	112.81
315.933	37.03
316.146	-32.6
316.36	-100.18
316.573	82.09
316.787	86.19
317.001	16.55
317.214	-16.21
317.428	92.33
317.641	-61.27
317.855	18.6
318.068	92.33
318.282	116.9
318.495	215.21
318.709	106.67
318.922	77.99
319.136	137.38
319.349	73.9
319.563	-3.93
319.776	88.23
319.99	-112.47
320.203	153.77
320.417	-12.12
320.63	71.85
320.843	121
321.057	2.22
321.27	12.46
321.483	45.23
321.697	176.3
321.91	114.86
322.124	32.94
322.337	116.9
322.55	-36.69
322.763	84.14
322.977	8.36
323.19	20.65
323.403	114.86
323.617	32.94
323.83	166.06
324.043	45.23
324.256	71.85
324.469	-46.93
324.683	110.76
324.896	30.89
325.109	92.33
325.322	-38.74
325.535	114.86
325.748	92.33
325.962	34.99
326.175	92.33
326.388	108.71
326.601	133.29
326.814	34.99
327.027	14.51
327.24	151.72
327.453	2.22
327.666	82.09
327.879	16.55
328.092	129.19
328.305	41.13
328.518	34.99
328.731	-30.55
328.944	-3.93
329.157	41.13
329.37	10.41
329.583	94.38
329.796	186.54
330.009	-67.41
330.222	0.17
330.435	100.52
330.648	137.38
330.861	47.27
331.073	127.14
331.286	84.14
331.499	55.47
331.712	-83.8
331.925	45.23
332.138	26.79
332.35	125.1
332.563	26.79
332.776	75.95
332.989	-5.97
333.202	0.17
333.414	-14.17
333.627	82.09
333.84	41.13
334.053	73.9
334.265	-20.31
334.478	14.51
334.691	32.94
334.903	-3.93
335.116	-16.21
335.329	-5.97
335.541	73.9
335.754	182.44
335.966	6.31
336.179	30.89
336.392	43.18
336.604	-18.26
336.817	108.71
337.029	55.47
337.242	-1.88
337.454	61.61
337.667	88.23
337.88	16.55
338.092	37.03
338.305	63.66
338.517	28.84
338.729	39.08
338.942	135.34
339.154	-63.32
339.367	0.17
339.579	84.14
339.792	-34.64
340.004	-12.12
340.217	88.23
340.429	82.09
340.641	-24.4
340.854	-36.69
341.066	39.08
341.278	67.75
341.491	166.06
341.703	92.33
341.915	-24.4
342.128	39.08
342.34	59.56
342.552	-14.17
342.764	26.79
342.977	45.23
343.189	100.52
343.401	47.27
343.613	-26.45
343.826	8.36
344.038	-46.93
344.25	71.85
344.462	-16.21
344.674	22.7
344.886	61.61
345.099	8.36
345.311	90.28
345.523	0.17
345.735	-71.51
345.947	18.6
346.159	32.94
346.371	65.71
346.583	34.99
346.795	262.31
347.007	-46.93
347.219	98.47
347.431	51.37
347.643	123.05
347.855	-73.56
348.067	65.71
348.279	6.31
348.491	75.95
348.703	51.37
348.915	-8.02
349.127	47.27
349.339	98.47
349.551	-16.21
349.763	106.67
349.975	6.31
350.187	157.86
350.399	108.71
350.61	30.89
350.822	16.55
351.034	39.08
351.246	-28.5
351.458	51.37
351.669	164.01
351.881	84.14
352.093	149.67
352.305	80.04
352.517	71.85
352.728	116.9
352.94	28.84
353.152	59.56
353.363	63.66
353.575	63.66
353.787	147.62
353.999	88.23
354.21	121
354.422	-77.65
354.633	51.37
354.845	47.27
355.057	55.47
355.268	49.32
355.48	110.76
355.692	-67.41
355.903	73.9
356.115	-46.93
356.326	-81.75
356.538	108.71
356.749	88.23
356.961	100.52
357.172	6.31
357.384	-10.07
357.595	133.29
357.807	16.55
358.018	10.41
358.23	34.99
358.441	153.77
358.653	92.33
358.864	24.75
359.075	10.41
359.287	2.22
359.498	145.58
359.709	-3.93
359.921	26.79
360.132	24.75
360.344	10.41
360.555	6.31
360.766	80.04
360.977	-10.07
361.189	127.14
361.4	-65.36
361.611	125.1
361.823	32.94
362.034	2.22
362.245	10.41
362.456	57.51
362.667	73.9
362.879	-14.17
363.09	47.27
363.301	20.65
363.512	26.79
363.723	69.8
363.935	34.99
364.146	90.28
364.357	-5.97
364.568	92.33
364.779	-26.45
364.99	69.8
365.201	0.17
365.412	80.04
365.623	-59.22
365.834	65.71
366.045	-8.02
366.256	149.67
366.467	90.28
366.678	16.55
366.889	16.55
367.1	10.41
367.311	43.18
367.522	65.71
367.733	8.36
367.944	61.61
368.155	100.52
368.366	90.28
368.577	57.51
368.788	123.05
368.999	0.17
369.209	6.31
369.42	207.02
369.631	219.3
369.842	22.7
370.053	41.13
370.264	108.71
370.474	-30.55
370.685	88.23
370.896	14.51
371.107	94.38
371.317	49.32
371.528	12.46
371.739	106.67
371.95	41.13
372.16	102.57
372.371	4.27
372.582	-18.26
372.792	92.33
373.003	39.08
373.214	112.81
373.424	104.62
373.635	-1.88
373.846	73.9
374.056	2.22
374.267	61.61
374.477	41.13
374.688	20.65
374.898	73.9
375.109	43.18
375.319	65.71
375.53	63.66
375.74	75.95
375.951	-30.55
376.161	67.75
376.372	77.99
376.582	-28.5
376.793	75.95
377.003	-46.93
377.214	-34.64
377.424	102.57
377.635	51.37
377.845	10.41
378.055	65.71
378.266	-3.93
378.476	-10.07
378.686	16.55
378.897	104.62
379.107	6.31
379.317	28.84
379.528	4.27
379.738	57.51
379.948	-38.74
380.158	49.32
380.369	-5.97
380.579	123.05
380.789	53.42
380.999	121
381.21	96.43
381.42	125.1
381.63	16.55
381.84	127.14
382.05	65.71
382.261	135.34
382.471	116.9
382.681	-22.36
382.891	174.25
383.101	80.04
383.311	-79.7
383.521	30.89
383.731	92.33
383.941	90.28
384.151	-8.02
384.361	-5.97
384.571	51.37
384.781	47.27
384.991	157.86
385.201	129.19
385.411	94.38
385.621	43.18
385.831	16.55
386.041	28.84
386.251	65.71
386.461	137.38
386.671	10.41
386.881	125.1
387.091	-10.07
387.301	131.24
387.511	26.79
387.72	90.28
387.93	88.23
388.14	-77.65
388.35	63.66
388.56	82.09
388.769	82.09
388.979	43.18
389.189	-38.74
389.399	32.94
389.609	26.79
389.818	82.09
390.028	34.99
390.238	94.38
390.447	39.08
390.657	59.56
390.867	39.08
391.076	-55.12
391.286	73.9
391.496	65.71
391.705	24.75
391.915	106.67
392.125	108.71
392.334	-38.74
392.544	106.67
392.753	-1.88
392.963	63.66
393.172	26.79
393.382	34.99
393.591	170.15
393.801	18.6
394.01	149.67
394.22	57.51
394.429	26.79
394.639	49.32
394.848	166.06
395.058	6.31
395.267	45.23
395.477	75.95
395.686	14.51
395.895	170.15
396.105	121
396.314	145.58
396.524	114.86
396.733	-8.02
396.942	125.1
397.152	63.66
397.361	82.09
397.57	10.41
397.78	-30.55
397.989	141.48
398.198	143.53
398.407	-46.93
398.617	18.6
398.826	71.85
399.035	92.33
399.244	137.38
399.453	-18.26
399.663	18.6
399.872	34.99
400.081	77.99
400.29	145.58
400.499	-53.08
400.708	43.18
400.917	59.56
401.127	55.47
401.336	-20.31
401.545	174.25
401.754	98.47
401.963	47.27
402.172	6.31
402.381	-59.22
402.59	43.18
402.799	0.17
403.008	92.33
403.217	18.6
403.426	104.62
403.635	-59.22
403.844	-30.55
404.053	65.71
404.262	22.7
404.471	178.34
404.68	22.7
404.888	-24.4
405.097	73.9
405.306	4.27
405.515	63.66
405.724	-18.26
405.933	43.18
406.142	166.06
406.35	80.04
406.559	104.62
406.768	22.7
406.977	139.43
407.185	55.47
407.394	63.66
407.603	-67.41
407.812	84.14
408.02	145.58
408.229	84.14
408.438	92.33
408.646	-73.56
408.855	-20.31
409.064	22.7
409.272	18.6
409.481	-8.02
409.69	32.94
409.898	18.6
410.107	43.18
410.315	125.1
410.524	-8.02
410.733	28.84
410.941	65.71
411.15	61.61
411.358	80.04
411.567	125.1
411.775	8.36
411.984	-1.88
412.192	30.89
412.401	47.27
412.609	114.86
412.818	63.66
413.026	18.6
413.234	94.38
413.443	-14.17
413.651	-53.08
413.86	2.22
414.068	67.75
414.276	65.71
414.485	84.14
414.693	159.91
414.901	174.25
415.11	110.76
415.318	-1.88
415.526	-18.26
415.734	123.05
415.943	84.14
416.151	90.28
416.359	34.99
416.567	55.47
416.776	59.56
416.984	86.19
417.192	143.53
417.4	-55.12
417.608	16.55
417.817	77.99
418.025	157.86
418.233	104.62
418.441	-5.97
418.649	8.36
418.857	90.28
419.065	149.67
419.273	-65.36
419.481	129.19
419.689	-38.74
419.897	-55.12
420.105	-5.97
420.313	100.52
420.521	129.19
420.729	75.95
420.937	-8.02
421.145	-20.31
421.353	88.23
421.561	211.11
421.769	34.99
421.977	-69.46
422.185	80.04
422.393	57.51
422.601	133.29
422.809	92.33
423.017	106.67
423.224	-30.55
423.432	71.85
423.64	39.08
423.848	84.14
424.056	2.22
424.263	98.47
424.471	63.66
424.679	194.73
424.887	24.75
425.094	84.14
425.302	137.38
425.51	71.85
425.718	84.14
425.925	69.8
426.133	-32.6
426.341	180.39
426.548	41.13
426.756	-1.88
426.964	118.95
427.171	-42.84
427.379	67.75
427.586	92.33
427.794	96.43
428.001	108.71
428.209	88.23
428.417	121
428.624	104.62
428.832	108.71
429.039	51.37
429.247	69.8
429.454	102.57
429.662	149.67
429.869	77.99
430.076	49.32
430.284	147.62
430.491	157.86
430.699	57.51
430.906	153.77
431.114	0.17
431.321	73.9
431.528	92.33
431.736	116.9
431.943	82.09
432.15	178.34
432.358	100.52
432.565	151.72
432.772	12.46
432.979	94.38
433.187	137.38
433.394	123.05
433.601	32.94
433.808	182.44
434.016	170.15
434.223	104.62
434.43	135.34
434.637	149.67
434.844	135.34
435.052	196.78
435.259	190.63
435.466	243.88
435.673	166.06
435.88	211.11
436.087	176.3
436.294	278.69
436.501	274.6
436.708	164.01
436.915	153.77
437.122	182.44
437.329	137.38
437.537	180.39
437.743	166.06
437.95	338.09
438.157	256.17
438.364	235.69
438.571	290.98
438.778	278.69
438.985	313.51
439.192	303.27
439.399	192.68
439.606	217.26
439.813	325.8
440.02	366.76
440.227	520.35
440.433	420
440.64	278.69
440.847	272.55
441.054	372.9
441.261	495.78
441.467	403.62
441.674	340.13
441.881	438.44
442.088	352.42
442.294	454.82
442.501	522.4
442.708	415.91
442.914	383.14
443.121	391.33
443.328	481.44
443.534	520.35
443.741	493.73
443.948	473.25
444.154	567.46
444.361	780.45
444.568	622.75
444.774	587.94
444.981	458.92
445.187	663.71
445.394	741.54
445.6	632.99
445.807	721.06
446.013	708.77
446.22	571.55
446.426	823.45
446.633	841.89
446.839	919.71
447.046	624.8
447.252	956.57
447.459	817.31
447.665	917.66
447.871	954.52
448.078	1083.55
448.284	1083.55
448.491	1144.99
448.697	1245.34
448.903	1198.23
449.11	1263.77
449.316	1214.62
449.522	1341.59
449.728	1257.62
449.935	1423.51
450.141	1419.41
450.347	1568.91
450.553	1505.43
450.76	1544.34
450.966	1618.07
451.172	1730.7
451.378	1673.36
451.584	1812.62
451.791	1960.08
451.997	1998.99
452.203	1849.49
452.409	2074.76
452.615	2203.79
452.821	2115.72
453.027	2048.14
453.233	2488.45
453.44	2306.18
453.646	2492.55
453.852	2619.52
454.058	2728.07
454.264	2762.88
454.47	2916.48
454.676	2785.41
454.882	3098.75
455.088	3033.21
455.294	3129.47
455.5	3565.68
455.705	3633.27
455.911	3491.96
456.117	3756.15
456.323	3829.87
456.529	3680.37
456.735	4061.29
456.941	4323.43
457.147	4468.84
457.352	4599.91
457.558	4706.4
457.764	5097.56
457.97	5015.65
458.176	5300.31
458.381	5435.48
458.587	5558.36
458.793	5980.24
458.999	5898.32
459.204	6684.74
459.41	6832.19
459.616	6656.07
459.821	7309.37
460.027	7465.02
460.233	8013.87
460.438	7907.38
460.644	8431.66
460.85	8314.92
461.055	8708.13
461.261	9246.75
461.466	8939.55
461.672	9056.29
461.878	10168.34
462.083	9996.31
462.289	10381.32
462.494	10704.9
462.7	10737.67
462.905	10874.88
463.111	12001.27
463.316	12417.01
463.522	12765.16
463.727	12994.53
463.932	13617.11
464.138	13991.89
464.343	14340.05
464.549	14649.29
464.754	15579.07
464.959	15880.12
465.165	16215.99
465.37	16258.99
465.575	16080.82
465.781	17115.05
465.986	17528.74
466.191	17672.09
466.397	18061.21
466.602	17610.65
466.807	18446.23
467.012	18898.83
467.218	19097.48
467.423	18902.92
467.628	19570.56
467.833	20406.13
468.038	20111.22
468.244	19969.91
468.449	21008.23
468.654	20520.82
468.859	20492.15
469.064	20705.13
469.269	20072.31
469.474	20277.11
469.679	21061.48
469.885	20227.96
470.09	20483.95
470.295	20316.02
470.5	20119.42
470.705	20598.64
470.91	19851.13
471.115	19611.52
471.32	19769.21
471.525	20072.31
471.73	19320.71
471.935	19277.7
472.139	18562.96
472.344	18405.27
472.549	18319.25
472.754	17899.42
472.959	17596.32
473.164	17084.33
473.369	16791.47
473.574	17203.11
473.778	16723.88
473.983	16504.75
474.188	16207.8
474.393	15417.28
474.598	15224.77
474.802	14942.15
475.007	14897.1
475.212	14901.19
475.417	14176.21
475.621	14036.95
475.826	13881.3
476.031	13639.64
476.235	13346.78
476.44	13344.74
476.645	12890.09
476.849	12675.05
477.054	12593.13
477.259	12265.46
477.463	12269.55
477.668	12007.41
477.872	12183.54
478.077	11421.69
478.282	11278.33
478.486	11218.94
478.691	11042.82
478.895	10805.25
479.1	10977.28
479.304	10846.21
479.509	10465.29
479.713	10625.03
479.918	10444.81
480.122	9961.49
480.326	10154
480.531	10375.18
480.735	10092.56
480.94	9650.2
481.144	10178.58
481.348	9687.06
481.553	9672.73
481.757	9179.17
481.961	9619.48
482.166	9484.31
482.37	9517.08
482.574	9308.19
482.778	9275.42
482.983	9267.23
483.187	8980.51
483.391	9017.38
483.595	9050.14
483.8	8755.24
484.004	8951.84
484.208	8964.13
484.412	8603.69
484.616	8630.31
484.821	8501.29
485.025	8339.5
485.229	8175.66
485.433	8177.71
485.637	8001.58
485.841	7974.96
486.045	7755.83
486.249	7874.61
486.453	7643.19
486.657	7624.76
486.861	7393.34
487.065	7217.21
487.269	7219.26
487.473	6912.07
487.677	7112.77
487.881	6918.21
488.085	6748.23
488.289	6875.2
488.493	6338.63
488.697	6506.57
488.901	6416.46
489.105	6281.29
489.309	5959.76
489.512	6080.59
489.716	6029.39
489.92	5714
490.124	5810.26
490.328	5797.97
490.531	5486.68
490.735	5455.96
490.939	5220.44
491.143	4995.17
491.346	5238.87
491.55	5204.06
491.754	5046.37
491.958	4784.23
492.161	4786.27
492.365	4728.93
492.569	4630.63
492.772	4628.58
492.976	4511.85
493.18	4509.8
493.383	4456.55
493.587	4454.5
493.79	4300.91
493.994	4120.68
494.197	4116.59
494.401	4210.79
494.605	4069.48
494.808	4120.68
495.012	3893.36
495.215	4147.31
495.419	4153.45
495.622	3807.34
495.825	3829.87
496.029	3946.61
496.232	3942.51
496.436	3688.56
496.639	3858.54
496.843	3735.67
497.046	3782.77
497.249	3874.93
497.453	3917.93
497.656	3711.09
497.859	3750
498.063	3805.3
498.266	3889.26
498.469	3631.22
498.673	3663.99
498.876	3745.91
499.079	3782.77
499.282	3774.58
499.485	3962.99
499.689	3815.54
499.892	3999.85
500.095	3811.44
500.298	3793.01
500.501	3729.52
500.705	3940.46
500.908	3924.08
501.111	3895.41
501.314	3971.18
501.517	4169.84
501.72	4118.64
501.923	4122.73
502.126	4153.45
502.329	4399.21
502.532	4259.95
502.735	4167.79
502.938	4374.63
503.141	4317.29
503.344	4434.02
503.547	4509.8
503.75	4491.37
503.953	4472.93
504.156	4696.16
504.359	4694.12
504.562	4685.92
504.765	4771.94
504.968	5048.41
505.17	4894.82
505.373	5021.79
505.576	5052.51
505.779	5238.87
505.982	5218.4
506.185	5339.23
506.387	5458.01
506.59	5447.77
506.793	5648.47
506.996	5584.98
507.198	5881.94
507.401	5998.67
507.604	5937.23
507.807	6193.23
508.009	6174.8
508.212	6373.45
508.415	6365.26
508.617	6604.87
508.82	6596.68
509.022	6852.67
509.225	7006.27
509.428	7055.42
509.63	7075.9
509.833	7200.83
510.035	7753.78
510.238	7571.51
510.44	7843.89
510.643	8179.76
510.845	8065.07
511.048	8284.2
511.25	8380.46
511.453	8781.86
511.655	9021.47
511.858	9242.65
512.06	9394.2
512.262	9300
512.465	9631.77
512.667	9867.28
512.87	9891.86
513.072	10328.08
513.274	10792.97
513.477	10897.41
513.679	11145.22
513.881	11319.29
514.084	11646.97
514.286	11726.84
514.488	12050.42
514.69	12500.97
514.893	12634.09
515.095	12924.9
515.297	13371.36
515.499	13334.5
515.701	13731.8
515.904	14186.45
516.106	14268.37
516.308	14677.96
516.51	14792.65
516.712	15097.8
516.914	15407.04
517.116	15830.97
517.318	15972.28
517.52	16291.76
517.722	17035.17
517.925	17039.27
518.127	17887.13
518.329	17758.11
518.531	17813.4
518.733	18311.06
518.935	18419.6
519.136	18872.2
519.338	19416.96
519.54	19455.87
519.742	19951.48
519.944	20297.59
520.146	20354.93
520.348	20909.93
520.55	21260.13
520.752	21297
520.954	21782.37
521.155	21864.29
521.357	22097.75
521.559	22474.58
521.761	23127.88
521.963	23371.59
522.164	23271.24
522.366	23637.83
522.568	23867.2
522.77	23951.17
522.971	24313.66
523.173	24254.26
523.375	24729.39
523.576	24540.98
523.778	24784.69
523.98	25376.55
524.181	25431.85
524.383	24895.28
524.584	25775.91
524.786	25507.62
524.988	25513.77
525.189	25925.41
525.391	26066.72
525.592	26025.76
525.794	25982.75
525.995	25892.64
526.197	25870.11
526.398	25894.69
526.6	25872.16
526.801	25345.83
527.003	25784.1
527.204	25743.14
527.406	25481
527.607	25835.3
527.808	25646.88
528.01	25163.56
528.211	25433.89
528.412	25714.47
528.614	25126.7
528.815	25390.89
529.016	25157.42
529.218	24813.36
529.419	24444.73
529.62	24131.39
529.822	24270.65
530.023	23965.5
530.224	23686.98
530.425	23447.36
530.626	23121.74
530.828	22970.19
531.029	23316.29
531.23	22560.59
531.431	22130.52
531.632	22288.21
531.833	22232.92
532.035	21751.65
532.236	21485.41
532.437	21284.71
532.638	20811.63
532.839	20686.7
533.04	20694.89
533.241	20176.76
533.442	20283.25
533.643	20014.97
533.844	19527.55
534.045	19310.47
534.246	19105.67
534.447	18923.4
534.648	18597.77
534.849	18515.86
535.05	18100.12
535.251	18073.49
535.451	17622.94
535.652	17293.22
535.853	17129.38
536.054	16863.15
536.255	16930.73
536.456	16467.89
536.657	16498.61
536.857	16140.21
537.058	15689.66
537.259	15642.56
537.46	15288.26
537.66	15161.28
537.861	14933.96
538.062	14702.54
538.263	14567.37
538.463	14235.6
538.664	14415.82
538.865	14075.86
539.065	14026.71
539.266	13656.03
539.466	13623.26
539.667	13223.9
539.868	13391.84
540.068	13199.33
540.269	13039.59
540.469	13068.26
540.67	12627.95
540.87	12519.4
541.071	12312.56
541.271	12355.57
541.472	12169.2
541.672	11964.4
541.873	11739.13
542.073	11528.19
542.274	11620.35
542.474	11460.6
542.675	11243.52
542.875	11485.18
543.075	11087.87
543.276	10975.24
543.476	10893.32
543.676	10684.42
543.877	10573.83
544.077	10479.63
544.277	10481.67
544.478	10369.04
544.678	10170.38
544.878	10037.27
545.078	9996.31
545.279	9771.03
545.479	9488.41
545.679	9529.37
545.879	9437.21
546.079	9201.69
546.28	9005.09
546.48	9158.69
546.68	9058.34
546.88	9037.86
547.08	8933.41
547.28	8742.95
547.48	8628.26
547.68	8507.43
547.88	8540.2
548.081	8251.44
548.281	8083.5
548.481	7913.52
548.681	8040.5
548.881	7776.31
549.081	7852.08
549.28	7714.87
549.48	7538.74
549.68	7497.78
549.88	7299.13
550.08	7174.21
550.28	7264.32
550.48	7110.72
550.68	6961.22
550.88	6903.87
551.08	6932.54
551.279	6899.78
551.479	6473.8
551.679	6625.35
551.879	6473.8
552.079	6344.78
552.278	6189.13
552.478	6352.97
552.678	6119.5
552.878	6021.2
553.077	5867.6
553.277	5564.5
553.477	5802.07
553.676	5781.59
553.876	5650.52
554.076	5240.92
554.275	5478.49
554.475	5269.59
554.674	5130.33
554.874	5181.53
555.074	4950.11
555.273	5056.61
555.473	4837.47
555.672	4618.34
555.872	4784.23
556.071	4696.16
556.271	4505.7
556.47	4321.38
556.67	4407.4
556.869	4438.12
557.068	4298.86
557.268	4163.69
557.467	4206.7
557.667	4077.68
557.866	4044.91
558.065	3881.07
558.265	3934.32
558.464	3768.43
558.663	3852.4
558.863	3750
559.062	3661.94
559.261	3479.67
559.461	3475.57
559.66	3348.6
559.859	3324.02
560.058	3258.49
560.258	3156.09
560.457	3227.77
560.656	3272.82
560.855	3053.69
561.054	3033.21
561.253	3018.88
561.453	3053.69
561.652	2928.77
561.851	2957.44
562.05	2867.33
562.249	2709.63
562.448	2928.77
562.647	2785.41
562.846	2723.97
563.045	2678.91
563.244	2537.6
563.443	2570.37
563.642	2490.5
563.841	2496.64
564.04	2467.97
564.239	2441.35
564.438	2402.44
564.637	2261.13
564.836	2250.89
565.035	2254.98
565.234	2148.49
565.432	2164.87
565.631	2197.64
565.83	2195.59
566.029	2113.67
566.228	2099.34
566.427	2037.9
566.625	1843.34
566.824	1929.36
567.023	1878.16
567.222	1910.93
567.42	1829.01
567.619	1808.53
567.818	1796.24
568.016	1996.94
568.215	1759.38
568.414	1755.28
568.612	1730.7
568.811	1689.74
569.01	1597.59
569.208	1681.55
569.407	1704.08
569.605	1583.25
569.804	1581.2
570.002	1552.53
570.201	1505.43
570.4	1505.43
570.598	1403.03
570.797	1396.89
570.995	1378.45
571.193	1331.35
571.392	1382.55
571.59	1306.77
571.789	1425.56
571.987	1329.3
572.186	1386.65
572.384	1218.71
572.582	1220.76
572.781	1173.66
572.979	1161.37
573.177	1058.97
573.376	1226.9
573.574	1187.99
573.772	1122.46
573.971	1054.87
574.169	1071.26
574.367	1065.11
574.565	1032.35
574.763	1018.01
574.962	983.2
575.16	952.48
575.358	981.15
575.556	886.94
575.754	1024.16
575.952	919.71
576.151	966.81
576.349	907.42
576.547	766.11
576.745	925.85
576.943	845.98
577.141	862.37
577.339	784.54
577.537	987.29
577.735	950.43
577.933	868.51
578.131	692.38
578.329	927.9
578.527	731.3
578.725	827.55
578.923	639.14
579.121	714.91
579.319	624.8
579.516	635.04
579.714	899.23
579.912	782.49
580.11	583.84
580.308	524.45
580.506	671.9
580.704	577.7
580.901	534.69
581.099	696.48
581.297	630.95
581.495	614.56
581.692	546.98
581.89	716.96
582.088	610.47
582.285	594.08
582.483	512.16
582.681	546.98
582.878	542.88
583.076	557.22
583.274	452.77
583.471	542.88
583.669	501.92
583.866	460.96
584.064	436.39
584.262	436.39
584.459	426.15
584.657	495.78
584.854	510.11
585.052	477.35
585.249	518.31
585.447	460.96
585.644	309.41
585.841	542.88
586.039	510.11
586.236	532.64
586.434	434.34
586.631	370.85
586.828	407.72
587.026	405.67
587.223	313.51
587.42	379.04
587.618	327.85
587.815	399.52
588.012	276.65
588.21	368.81
588.407	483.49
588.604	385.19
588.801	305.32
588.999	422.05
589.196	362.66
589.393	280.74
589.59	374.95
589.787	420
589.984	399.52
590.182	370.85
590.379	264.36
590.576	327.85
590.773	295.08
590.97	254.12
591.167	430.24
591.364	360.61
591.561	297.13
591.758	393.38
591.955	360.61
592.152	303.27
592.349	274.6
592.546	305.32
592.743	360.61
592.94	297.13
593.137	311.46
593.334	333.99
593.531	344.23
593.727	350.37
593.924	346.28
594.121	288.93
594.318	333.99
594.515	276.65
594.712	411.81
594.908	485.54
595.105	145.58
595.302	344.23
595.499	368.81
595.696	481.44
595.892	305.32
596.089	409.76
596.286	323.75
596.482	393.38
596.679	448.68
596.876	305.32
597.072	401.57
597.269	333.99
597.466	379.04
597.662	497.83
597.859	465.06
598.055	424.1
598.252	489.64
598.448	497.83
598.645	540.83
598.841	542.88
599.038	620.71
599.234	620.71
599.431	585.89
599.627	592.03
599.824	614.56
600.02	639.14
600.217	647.33
600.413	725.15
600.609	796.83
600.806	880.8
601.002	782.49
601.198	784.54
601.395	872.61
601.591	878.75
601.787	901.28
601.984	966.81
602.18	964.76
602.376	905.37
602.572	1048.73
602.769	1157.27
602.965	1018.01
603.161	1206.42
603.357	1210.52
603.553	1231
603.75	1249.43
603.946	1261.72
604.142	1321.11
604.338	1507.48
604.534	1323.16
604.73	1530
604.926	1472.66
605.122	1613.97
605.318	1702.03
605.514	1779.86
605.71	1712.27
605.906	1818.77
606.102	1806.48
606.298	1968.27
606.494	1902.73
606.69	2109.58
606.886	2039.95
607.082	2101.39
607.278	2117.77
607.474	2209.93
607.67	2326.66
607.866	2316.42
608.062	2410.63
608.257	2486.4
608.453	2500.74
608.649	2627.71
608.845	2672.77
609.041	2691.2
609.236	2922.62
609.432	2838.66
609.628	2982.01
609.824	3111.04
610.019	3045.5
610.215	3192.95
610.411	3332.22
610.606	3356.79
610.802	3442.81
610.998	3483.77
611.193	3696.75
611.389	3702.9
611.584	3995.76
611.78	3795.06
611.976	3962.99
612.171	4348.01
612.367	4149.36
612.562	4218.99
612.758	4327.53
612.953	4370.54
613.149	4669.54
613.344	4761.7
613.539	4876.38
613.735	5095.52
613.93	5253.21
614.126	5191.77
614.321	5429.34
614.517	5664.85
614.712	5652.56
614.907	5683.28
615.103	5953.62
615.298	6201.42
615.493	6289.48
615.688	6477.9
615.884	6774.85
616.079	6629.45
616.274	6809.67
616.47	7118.91
616.665	7161.92
616.86	7364.67
617.055	7815.22
617.25	7645.24
617.445	8202.29
617.641	8065.07
617.836	8472.62
618.031	8476.71
618.226	8939.55
618.421	9009.19
618.616	9265.18
618.811	9357.34
619.006	9572.38
619.201	9762.84
619.396	10080.27
619.591	10199.06
619.786	10436.62
619.981	10491.91
620.176	10981.38
620.371	11169.79
620.566	11343.87
620.761	11483.13
620.956	12003.32
621.151	11757.56
621.346	12292.08
621.541	12290.03
621.735	12922.85
621.93	12976.1
622.125	13139.94
622.32	13121.51
622.515	13570.01
622.709	13795.29
622.904	14489.55
623.099	14165.97
623.294	14725.07
623.488	14727.11
623.683	15296.45
623.878	15108.04
624.072	15525.82
624.267	15941.56
624.462	16252.85
624.656	16121.78
624.851	16621.49
625.046	16963.5
625.24	16867.24
625.435	17463.2
625.629	17536.93
625.824	17956.76
626.018	18206.61
626.213	17977.24
626.407	18524.05
626.602	18417.55
626.796	18667.41
626.991	18716.56
627.185	18923.4
627.38	18980.75
627.574	19359.62
627.768	19193.73
627.963	19257.22
628.157	19472.26
628.352	20002.68
628.546	19724.16
628.74	20023.16
628.935	19525.5
629.129	19824.51
629.323	19582.85
629.517	19591.04
629.712	19451.78
629.906	19371.91
630.1	19060.62
630.294	19107.72
630.489	18866.06
630.683	18800.52
630.877	18220.95
631.071	18118.55
631.265	18012.06
631.459	17305.51
631.653	17199.01
631.848	16906.15
632.042	16547.76
632.236	16021.43
632.43	15794.11
632.624	15507.39
632.818	14868.42
633.012	14270.42
633.206	13846.49
633.4	13701.08
633.594	12949.48
633.788	12728.3
633.982	12281.84
634.176	12093.43
634.369	11536.38
634.563	10926.08
634.757	10514.44
634.951	10323.98
635.145	9777.17
635.339	9646.1
635.533	9123.87
635.726	8849.44
635.92	8278.06
636.114	8036.4
636.308	7680.05
636.501	7419.96
636.695	7170.11
636.889	6690.88
637.083	6342.73
637.276	6346.83
637.47	5943.38
637.664	5724.24
637.857	5441.62
638.051	5421.14
638.244	5195.87
638.438	4876.38
638.632	4909.15
638.825	4393.06
639.019	4296.81
639.212	4108.4
639.406	4139.12
639.599	3862.64
639.793	3731.57
639.986	3528.82
640.18	3414.13
640.373	3246.2
640.567	3209.34
640.76	3014.78
640.954	3070.08
641.147	2766.98
641.34	2703.49
641.534	2586.76
641.727	2568.32
641.92	2502.79
642.114	2400.39
642.307	2162.83
642.5	2214.02
642.694	2097.29
642.887	2062.48
643.08	1919.12
643.273	1964.17
643.467	1679.51
643.66	1587.35
643.853	1622.16
644.046	1673.36
644.239	1523.86
644.432	1417.37
644.626	1378.45
644.819	1372.31
645.012	1284.25
645.205	1400.98
645.398	1228.95
645.591	1179.8
645.784	1153.18
645.977	1022.11
646.17	1013.92
646.363	1046.68
646.556	972.96
646.749	850.08
646.942	905.37
647.135	866.46
647.328	788.64
647.521	813.21
647.714	805.02
647.907	680.1
648.099	745.63
648.292	768.16
648.485	592.03
648.678	673.95
648.871	565.41
649.064	700.58
649.256	508.07
649.449	520.35
649.642	458.92
649.835	551.07
650.027	442.53
650.22	524.45
650.413	473.25
650.605	508.07
650.798	432.29
650.991	344.23
651.183	489.64
651.376	434.34
651.568	348.33
651.761	321.7
651.954	424.1
652.146	333.99
652.339	395.43
652.531	415.91
652.724	219.3
652.916	264.36
653.109	198.82
653.301	395.43
653.494	387.24
653.686	329.89
653.879	305.32
654.071	276.65
654.263	252.07
654.456	180.39
654.648	223.4
654.84	295.08
655.033	268.45
655.225	327.85
655.417	84.14
655.61	321.7
655.802	243.88
655.994	247.97
656.186	180.39
656.379	284.84
656.571	182.44
656.763	213.16
656.955	127.14
657.148	223.4
657.34	290.98
657.532	149.67
657.724	118.95
657.916	235.69
658.108	178.34
658.3	131.24
658.492	166.06
658.684	141.48
658.876	192.68
659.068	178.34
659.26	37.03
659.452	104.62
659.644	155.82
659.836	301.22
660.028	164.01
660.22	108.71
660.412	164.01
660.604	102.57
660.796	159.91
660.988	231.59
661.18	100.52
661.372	145.58
661.563	129.19
661.755	98.47
661.947	43.18
662.139	114.86
662.331	168.1
662.522	139.43
662.714	67.75
662.906	82.09
663.097	55.47
663.289	98.47
663.481	92.33
663.673	55.47
663.864	116.9
664.056	151.72
664.247	22.7
664.439	202.92
664.631	102.57
664.822	207.02
665.014	96.43
665.205	92.33
665.397	88.23
665.588	98.47
665.78	118.95
665.971	123.05
666.163	53.42
666.354	211.11
666.546	102.57
666.737	112.81
666.929	43.18
667.12	69.8
667.311	90.28
667.503	100.52
667.694	123.05
667.885	139.43
668.077	80.04
668.268	10.41
668.459	90.28
668.651	16.55
668.842	106.67
669.033	12.46
669.224	84.14
669.416	286.89
669.607	90.28
669.798	57.51
669.989	157.86
670.18	131.24
670.371	149.67
670.563	116.9
670.754	157.86
670.945	217.26
671.136	178.34
671.327	41.13
671.518	133.29
671.709	227.5
671.9	174.25
672.091	196.78
672.282	47.27
672.473	133.29
672.664	18.6
672.855	149.67
673.046	63.66
673.237	174.25
673.428	-3.93
673.619	127.14
673.809	20.65
674	223.4
674.191	139.43
674.382	102.57
674.573	123.05
674.764	77.99
674.954	168.1
675.145	24.75
675.336	92.33
675.527	73.9
675.717	116.9
675.908	75.95
676.099	147.62
676.289	112.81
676.48	41.13
676.671	184.49
676.861	51.37
677.052	157.86
677.243	196.78
677.433	57.51
677.624	125.1
677.814	141.48
678.005	112.81
678.195	161.96
678.386	75.95
678.576	170.15
678.767	26.79
678.957	114.86
679.148	104.62
679.338	202.92
679.529	104.62
679.719	133.29
679.909	202.92
680.1	209.06
680.29	149.67
680.481	37.03
680.671	157.86
680.861	145.58
681.052	166.06
681.242	77.99
681.432	155.82
681.622	135.34
681.813	71.85
682.003	194.73
682.193	188.58
682.383	121
682.573	123.05
682.764	133.29
682.954	141.48
683.144	174.25
683.334	90.28
683.524	186.54
683.714	170.15
683.904	194.73
684.094	176.3
684.284	57.51
684.474	247.97
684.664	211.11
684.854	180.39
685.044	221.35
685.234	112.81
685.424	145.58
685.614	198.82
685.804	256.17
685.994	209.06
686.184	198.82
686.374	198.82
686.564	125.1
686.753	174.25
686.943	104.62
687.133	178.34
687.323	198.82
687.513	239.78
687.702	153.77
687.892	125.1
688.082	196.78
688.272	176.3
688.461	204.97
688.651	286.89
688.841	219.3
689.03	149.67
689.22	196.78
689.41	280.74
689.599	180.39
689.789	131.24
689.979	286.89
690.168	151.72
690.358	213.16
690.547	82.09
690.737	137.38
690.926	207.02
691.116	188.58
691.305	178.34
691.495	202.92
691.684	153.77
691.874	121
692.063	137.38
692.252	170.15
692.442	188.58
692.631	157.86
692.82	164.01
693.01	204.97
693.199	164.01
693.388	151.72
693.578	145.58
693.767	213.16
693.956	170.15
694.146	149.67
694.335	207.02
694.524	151.72
694.713	211.11
694.902	88.23
695.092	141.48
695.281	166.06
695.47	223.4
695.659	82.09
695.848	166.06
696.037	59.56
696.226	155.82
696.415	151.72
696.604	303.27
696.793	256.17
696.982	110.76
697.171	276.65
697.36	125.1
697.549	194.73
697.738	77.99
697.927	112.81
698.116	129.19
698.305	260.26
698.494	102.57
698.683	82.09
698.872	278.69
699.061	178.34
699.25	174.25
699.438	149.67
699.627	131.24
699.816	231.59
700.005	61.61
700.193	123.05
700.382	207.02
700.571	221.35
700.76	135.34
700.948	161.96
701.137	180.39
701.326	141.48
701.514	55.47
701.703	161.96
701.892	250.02
702.08	284.84
702.269	178.34
702.457	141.48
702.646	196.78
702.834	221.35
703.023	186.54
703.212	178.34
703.4	123.05
703.589	147.62
703.777	141.48
703.965	149.67
704.154	71.85
704.342	82.09
704.531	125.1
704.719	112.81
704.907	151.72
705.096	77.99
705.284	53.42
705.472	133.29
705.661	178.34
705.849	286.89
706.037	243.88
706.226	186.54
706.414	121
706.602	131.24
706.79	170.15
706.979	202.92
707.167	196.78
707.355	37.03
707.543	129.19
707.731	147.62
707.919	200.87
708.107	100.52
708.296	47.27
708.484	80.04
708.672	204.97
708.86	145.58
709.048	98.47
709.236	59.56
709.424	174.25
709.612	186.54
709.8	51.37
709.988	110.76
710.176	176.3
710.364	260.26
710.551	170.15
710.739	213.16
710.927	65.71
711.115	116.9
711.303	149.67
711.491	223.4
711.679	125.1
711.866	229.54
712.054	141.48
712.242	174.25
712.43	237.74
712.617	141.48
712.805	223.4
712.993	159.91
713.181	49.32
713.368	196.78
713.556	86.19
713.744	137.38
713.931	272.55
714.119	311.46
714.306	141.48
714.494	153.77
714.682	125.1
714.869	166.06
715.057	209.06
715.244	131.24
715.432	180.39
715.619	133.29
715.807	151.72
715.994	141.48
716.182	114.86
716.369	204.97
716.556	207.02
716.744	112.81
716.931	139.43
717.119	223.4
717.306	108.71
717.493	186.54
717.681	121
717.868	147.62
718.055	182.44
718.242	141.48
718.43	196.78
718.617	290.98
718.804	155.82
718.991	233.64
719.179	198.82
719.366	190.63
719.553	172.2
719.74	198.82
719.927	147.62
720.114	135.34
720.301	67.75
720.488	176.3
720.676	153.77
720.863	213.16
721.05	317.61
721.237	188.58
721.424	252.07
721.611	198.82
721.798	90.28
721.985	153.77
722.172	190.63
722.358	147.62
722.545	192.68
722.732	254.12
722.919	372.9
723.106	217.26
723.293	159.91
723.48	135.34
723.667	207.02
723.853	299.17
724.04	215.21
724.227	204.97
724.414	145.58
724.6	274.6
724.787	333.99
724.974	278.69
725.161	194.73
725.347	209.06
725.534	223.4
725.72	239.78
725.907	243.88
726.094	217.26
726.28	202.92
726.467	204.97
726.653	86.19
726.84	348.33
727.027	280.74
727.213	233.64
727.4	309.41
727.586	247.97
727.773	229.54
727.959	139.43
728.145	270.5
728.332	223.4
728.518	151.72
728.705	262.31
728.891	258.21
729.077	215.21
729.264	215.21
729.45	209.06
729.636	264.36
729.823	276.65
730.009	272.55
730.195	223.4
730.382	247.97
730.568	121
730.754	200.87
730.94	186.54
731.126	219.3
731.313	301.22
731.499	272.55
731.685	305.32
731.871	379.04
732.057	245.93
732.243	260.26
732.429	231.59
732.615	293.03
732.801	305.32
732.987	204.97
733.173	268.45
733.359	147.62
733.545	211.11
733.731	198.82
733.917	262.31
734.103	295.08
734.289	276.65
734.475	200.87
734.661	247.97
734.847	262.31
735.033	317.61
735.219	252.07
735.404	219.3
735.59	264.36
735.776	190.63
735.962	235.69
736.148	264.36
736.333	297.13
736.519	338.09
736.705	186.54
736.89	217.26
737.076	225.45
737.262	250.02
737.447	182.44
737.633	209.06
737.819	346.28
738.004	297.13
738.19	276.65
738.375	307.37
738.561	321.7
738.747	288.93
738.932	225.45
739.118	399.52
739.303	321.7
739.489	293.03
739.674	182.44
739.859	125.1
740.045	268.45
740.23	325.8
740.416	94.38
740.601	239.78
740.786	196.78
740.972	190.63
741.157	247.97
741.342	108.71
741.528	204.97
741.713	268.45
741.898	196.78
742.084	260.26
742.269	202.92
742.454	264.36
742.639	311.46
742.824	194.73
743.01	354.47
743.195	243.88
743.38	231.59
743.565	172.2
743.75	245.93
743.935	258.21
744.12	336.04
744.305	227.5
744.49	260.26
744.675	223.4
744.86	186.54
745.045	288.93
745.23	284.84
745.415	204.97
745.6	354.47
745.785	198.82
745.97	278.69
746.155	225.45
746.34	372.9
746.525	256.17
746.71	301.22
746.895	176.3
747.079	209.06
747.264	237.74
747.449	319.65
747.634	274.6
747.819	321.7
748.003	194.73
748.188	157.86
748.373	264.36
748.557	256.17
748.742	231.59
748.927	217.26
749.111	215.21
749.296	256.17
749.481	309.41
749.665	198.82
749.85	164.01
750.034	215.21
750.219	266.41
750.404	211.11
750.588	231.59
750.773	137.38
750.957	219.3
751.141	149.67
751.326	247.97
751.51	100.52
751.695	139.43
751.879	217.26
752.064	256.17
752.248	112.81
752.432	198.82
752.617	288.93
752.801	239.78
752.985	116.9
753.17	227.5
753.354	194.73
753.538	297.13
753.722	159.91
753.907	174.25
754.091	153.77
754.275	293.03
754.459	118.95
754.643	131.24
754.828	139.43
755.012	196.78
755.196	123.05
755.38	90.28
755.564	202.92
755.748	180.39
755.932	239.78
756.116	127.14
756.3	141.48
756.484	176.3
756.668	141.48
756.852	75.95
757.036	145.58
757.22	155.82
757.404	102.57
757.588	184.49
757.772	217.26
757.956	157.86
758.14	225.45
758.323	84.14
758.507	166.06
758.691	121
758.875	211.11
759.059	237.74
759.242	157.86
759.426	106.67
759.61	192.68
759.794	90.28
759.977	239.78
760.161	415.91
760.345	225.45
760.528	166.06
760.712	145.58
760.895	143.53
761.079	182.44
761.263	32.94
761.446	106.67
761.63	131.24
761.813	264.36
761.997	94.38
762.18	96.43
762.364	118.95
762.547	73.9
762.731	98.47
762.914	102.57
763.098	69.8
763.281	139.43
763.464	82.09
763.648	168.1
763.831	92.33
764.015	43.18
764.198	112.81
764.381	123.05
764.564	131.24
764.748	202.92
764.931	145.58
765.114	108.71
765.297	194.73
765.481	34.99
765.664	77.99
765.847	65.71
766.03	225.45
766.213	67.75
766.397	92.33
766.58	80.04
766.763	170.15
766.946	51.37
767.129	137.38
767.312	67.75
767.495	92.33
767.678	65.71
767.861	178.34
768.044	24.75
768.227	149.67
768.41	16.55
768.593	92.33
768.776	149.67
768.959	94.38
769.142	112.81
769.324	39.08
769.507	84.14
769.69	22.7
769.873	69.8
770.056	270.5
770.239	133.29
770.421	137.38
770.604	149.67
770.787	116.9
770.97	129.19
771.152	49.32
771.335	121
771.518	51.37
771.7	88.23
771.883	182.44
772.066	14.51
772.248	157.86
772.431	164.01
772.613	174.25
772.796	137.38
772.978	129.19
773.161	149.67
773.343	139.43
773.526	43.18
773.708	51.37
773.891	84.14
774.073	90.28
774.256	63.66
774.438	198.82
774.621	116.9
774.803	114.86
774.985	4.27
775.168	131.24
775.35	63.66
775.532	157.86
775.715	51.37
775.897	98.47
776.079	69.8
776.261	49.32
776.444	149.67
776.626	59.56
776.808	106.67
776.99	12.46
777.173	100.52
777.355	-10.07
777.537	190.63
777.719	82.09
777.901	67.75
778.083	32.94
778.265	41.13
778.447	123.05
778.629	4.27
778.811	34.99
778.993	112.81
779.175	157.86
779.357	37.03
779.539	34.99
779.721	106.67
779.903	80.04
780.085	37.03
780.267	67.75
780.449	86.19
780.631	141.48
780.812	178.34
780.994	80.04
781.176	-16.21
781.358	92.33
781.54	24.75
781.721	100.52
781.903	98.47
782.085	53.42
782.267	149.67
782.448	-36.69
782.63	63.66
782.812	123.05
782.993	49.32
783.175	139.43
783.357	8.36
783.538	55.47
783.72	-10.07
783.901	80.04
784.083	71.85
784.264	135.34
784.446	-18.26
784.627	-30.55
784.809	112.81
784.99	-8.02
785.172	49.32
785.353	16.55
785.535	28.84
785.716	20.65
785.897	14.51
786.079	104.62
786.26	53.42
786.441	37.03
786.623	-5.97
786.804	-14.17
786.985	96.43
787.167	51.37
787.348	73.9
787.529	16.55
787.71	129.19
787.891	112.81
788.073	-34.64
788.254	75.95
788.435	172.2
788.616	63.66
788.797	-75.6
788.978	14.51
789.159	-5.97
789.34	59.56
789.522	71.85
789.703	14.51
789.884	16.55
790.065	100.52
790.246	123.05
790.427	-10.07
790.607	43.18
790.788	168.1
790.969	61.61
791.15	14.51
791.331	65.71
791.512	39.08
791.693	14.51
791.874	-77.65
792.054	190.63
792.235	92.33
792.416	51.37
792.597	-61.27
792.778	-5.97
792.958	39.08
793.139	47.27
793.32	18.6
793.5	-8.02
793.681	121
793.862	22.7
794.042	-34.64
794.223	-20.31
794.404	16.55
794.584	-10.07
794.765	-22.36
794.945	24.75
795.126	26.79
795.306	100.52
795.487	-12.12
795.667	-38.74
795.848	43.18
796.028	63.66
796.209	104.62
796.389	63.66
796.57	61.61
796.75	-14.17
796.93	47.27
797.111	0.17
797.291	-34.64
797.471	26.79
797.652	47.27
797.832	16.55
798.012	41.13
798.192	-10.07
798.373	-16.21
798.553	-3.93
798.733	129.19
798.913	-46.93
799.093	26.79
799.274	59.56
799.454	84.14
799.634	118.95
799.814	80.04
799.994	59.56
800.174	98.47
800.354	39.08
800.534	-32.6
800.714	55.47
800.894	-28.5
801.074	-22.36
801.254	6.31
801.434	84.14
801.614	18.6
801.794	-57.17
801.974	1712.27
802.154	65.71
802.334	55.47
802.514	32.94
802.693	34.99
802.873	106.67
803.053	149.67
803.233	61.61
803.413	59.56
803.592	-18.26
803.772	-16.21
803.952	20.65
804.131	-38.74
804.311	73.9
804.491	106.67
804.67	-16.21
804.85	-65.36
805.03	82.09
805.209	110.76
805.389	65.71
805.568	18.6
805.748	14.51
805.928	-1.88
806.107	22.7
806.287	18.6
806.466	59.56
806.646	-5.97
806.825	-26.45
807.004	-20.31
807.184	108.71
807.363	12.46
807.543	43.18
807.722	51.37
807.901	135.34
808.081	141.48
808.26	-67.41
808.439	90.28
808.619	-14.17
808.798	18.6
808.977	75.95
809.156	114.86
809.336	39.08
809.515	96.43
809.694	-30.55
809.873	59.56
810.052	73.9
810.231	90.28
810.411	116.9
810.59	100.52
810.769	0.17
810.948	6.31
811.127	-73.56
811.306	0.17
811.485	-34.64
811.664	125.1
811.843	2.22
812.022	18.6
812.201	14.51
812.38	-63.32
812.559	-12.12
812.737	57.51
812.916	-85.84
813.095	65.71
813.274	71.85
813.453	110.76
813.632	22.7
813.811	37.03
813.989	-91.99
814.168	67.75
814.347	-51.03
814.526	-18.26
814.704	53.42
814.883	104.62
815.062	-8.02
815.24	43.18
815.419	22.7
815.598	-3.93
815.776	-1.88
815.955	63.66
816.133	-128.85
816.312	2.22
816.49	-14.17
816.669	24.75
816.847	26.79
817.026	73.9
817.204	69.8
817.383	22.7
817.561	-5.97
817.74	10.41
817.918	86.19
818.097	-44.88
818.275	34.99
818.453	32.94
818.632	18.6
818.81	10.41
818.988	-14.17
819.167	-8.02
819.345	0.17
819.523	2.22
819.701	-48.98
819.879	45.23
820.058	6.31
820.236	2.22
820.414	67.75
820.592	6.31
820.77	30.89
820.948	-16.21
821.127	10.41
821.305	-1.88
821.483	-30.55
821.661	22.7
821.839	-87.89
822.017	-1.88
822.195	-18.26
822.373	43.18
822.551	2.22
822.729	63.66
822.907	-5.97
823.085	-5.97
823.262	49.32
823.44	-46.93
823.618	63.66
823.796	18.6
823.974	22.7
824.152	67.75
824.329	-24.4
824.507	-40.79
824.685	84.14
824.863	-75.6
825.04	67.75
825.218	102.57
825.396	92.33
825.574	123.05
825.751	-36.69
825.929	47.27
826.107	-22.36
826.284	49.32
826.462	129.19
826.639	-18.26
826.817	-79.7
826.994	2.22
827.172	-153.43
827.349	73.9
827.527	-22.36
827.704	49.32
827.882	92.33
828.059	12.46
828.237	-3.93
828.414	129.19
828.591	-110.42
828.769	37.03
828.946	-71.51
829.124	96.43
829.301	96.43
829.478	-10.07
829.655	47.27
829.833	10.41
830.01	-69.46
830.187	43.18
830.364	57.51
830.542	67.75
830.719	135.34
830.896	71.85
831.073	77.99
831.25	32.94
831.427	59.56
831.604	26.79
831.782	-5.97
831.959	-36.69
832.136	-46.93
832.313	26.79
832.49	-26.45
832.667	10.41
832.844	-34.64
833.021	106.67
833.198	0.17
833.374	61.61
833.551	-24.4
833.728	-14.17
833.905	84.14
834.082	-46.93
834.259	30.89
834.436	73.9
834.612	-26.45
834.789	57.51
834.966	-53.08
835.143	-10.07
835.319	-71.51
835.496	32.94
835.673	6.31
835.85	63.66
836.026	65.71
836.203	51.37
836.38	-83.8
836.556	28.84
836.733	-28.5
836.909	151.72
837.086	-61.27
837.262	-94.04
837.439	55.47
837.616	30.89
837.792	6.31
837.968	-1.88
838.145	-161.62
838.321	-30.55
838.498	88.23
838.674	49.32
838.851	39.08
839.027	-26.45
839.203	-26.45
839.38	59.56
839.556	-67.41
839.732	90.28
839.909	53.42
840.085	59.56
840.261	-104.28
840.437	49.32
840.614	34.99
840.79	82.09
840.966	71.85
841.142	-14.17
841.318	55.47
841.494	98.47
841.671	34.99
841.847	-32.6
842.023	-12.12
842.199	57.51
842.375	18.6
842.551	-128.85
842.727	-71.51
842.903	96.43
843.079	-100.18
843.255	12.46
843.431	-40.79
843.607	49.32
843.783	-55.12
843.959	63.66
844.134	-122.71
844.31	59.56
844.486	-77.65
844.662	-81.75
844.838	-1.88
845.013	43.18
845.189	94.38
845.365	0.17
845.541	2.22
845.716	51.37
845.892	110.76
846.068	-51.03
846.244	-10.07
846.419	51.37
846.595	-132.95
846.77	-14.17
846.946	125.1
847.122	-67.41
847.297	-57.17
847.473	170.15
847.648	-75.6
847.824	80.04
847.999	-42.84
848.175	-22.36
848.35	10.41
848.526	143.53
848.701	80.04
848.876	18.6
849.052	34.99
849.227	32.94
849.403	10.41
849.578	22.7
849.753	-5.97
849.929	26.79
850.104	-71.51
850.279	18.6
850.454	-22.36
850.63	34.99
850.805	34.99
850.98	26.79
851.155	-75.6
851.33	63.66
851.505	-91.99
851.681	61.61
851.856	-14.17
852.031	-26.45
852.206	2.22
852.381	-79.7
852.556	20.65
852.731	-1.88
852.906	98.47
853.081	51.37
853.256	161.96
853.431	10.41
853.606	-24.4
853.781	-3.93
853.956	-77.65
854.131	49.32
854.305	-63.32
854.48	20.65
854.655	32.94
854.83	-12.12
855.005	37.03
855.18	34.99
855.354	-73.56
855.529	45.23
855.704	-34.64
855.879	61.61
856.053	43.18
856.228	10.41
856.403	-116.56
856.577	-10.07
856.752	-30.55
856.926	-55.12
857.101	28.84
857.276	-91.99
857.45	20.65
857.625	12.46
857.799	18.6
857.974	57.51
858.148	-71.51
858.323	41.13
858.497	10.41
858.672	-26.45
858.846	-32.6
859.02	47.27
859.195	-63.32
859.369	-46.93
859.543	22.7
859.718	77.99
859.892	116.9
860.066	45.23
860.241	-8.02
860.415	-3.93
860.589	-63.32
860.763	-1.88
860.938	63.66
861.112	-5.97
861.286	-12.12
861.46	18.6
861.634	-44.88
861.808	133.29
861.982	-5.97
862.157	0.17
862.331	71.85
862.505	-30.55
862.679	-112.47
862.853	-28.5
863.027	8.36
863.201	149.67
863.375	-14.17
863.549	39.08
863.722	10.41
863.896	98.47
864.07	-32.6
864.244	24.75
864.418	102.57
864.592	-8.02
864.766	57.51
864.939	10.41
865.113	34.99
865.287	59.56
865.461	-18.26
865.634	0.17
865.808	73.9
865.982	0.17
866.156	-36.69
866.329	-83.8
866.503	-18.26
866.676	80.04
866.85	10.41
867.024	-14.17
867.197	71.85
867.371	75.95
867.544	2.22
867.718	-108.37
867.891	69.8
868.065	-89.94
868.238	8.36
868.412	63.66
868.585	-8.02
868.759	43.18
868.932	-38.74
869.105	-51.03
869.279	34.99
869.452	-145.24
869.625	-5.97
869.799	92.33
869.972	-137.04
870.145	-77.65
870.319	82.09
870.492	20.65
870.665	-79.7
870.838	-38.74
871.011	-112.47
871.185	26.79
871.358	67.75
871.531	16.55
871.704	-55.12
871.877	20.65
872.05	30.89
872.223	-32.6
872.396	57.51
872.569	77.99
872.742	0.17
872.915	100.52
873.088	-44.88
873.261	30.89
873.434	84.14
873.607	-5.97
873.78	51.37
873.953	-61.27
874.126	-8.02
874.299	63.66
874.471	-30.55
874.644	4.27
874.817	71.85
874.99	51.37
875.163	-61.27
875.335	-5.97
875.508	-48.98
875.681	59.56
875.853	18.6
876.026	-18.26
876.199	51.37
876.371	-28.5
876.544	-18.26
876.717	80.04
876.889	-14.17
877.062	59.56
877.234	-34.64
877.407	-67.41
877.579	-55.12
877.752	-32.6
877.924	43.18
878.097	51.37
878.269	-28.5
878.442	-10.07
878.614	-22.36
878.786	26.79
878.959	92.33
879.131	0.17
879.303	-128.85
879.476	-3.93
879.648	149.67
879.82	82.09
879.993	10.41
880.165	-10.07
880.337	-79.7
880.509	88.23
880.681	-51.03
880.854	-89.94
881.026	28.84
881.198	80.04
881.37	-98.13
881.542	-91.99
881.714	24.75
881.886	-14.17
882.058	-10.07
882.23	16.55
882.402	92.33
882.574	80.04
882.746	65.71
882.918	67.75
883.09	-46.93
883.262	-81.75
883.434	-26.45
883.606	-67.41
883.778	-55.12
883.95	161.96
884.122	-22.36
884.293	73.9
884.465	-16.21
884.637	-42.84
884.809	-46.93
884.98	34.99
885.152	22.7
885.324	12.46
885.496	-42.84
885.667	47.27
885.839	-3.93
886.011	88.23
886.182	22.7
886.354	88.23
886.525	43.18
886.697	41.13
886.869	-14.17
887.04	-53.08
887.212	22.7
887.383	118.95
887.555	59.56
887.726	-26.45
887.897	-73.56
888.069	-22.36
888.24	-1.88
888.412	51.37
888.583	-16.21
888.754	4.27
888.926	-61.27
889.097	-77.65
889.268	26.79
889.44	39.08
889.611	-116.56
889.782	20.65
889.953	-38.74
890.125	114.86
890.296	18.6
890.467	22.7
890.638	-26.45
890.809	26.79
890.98	18.6
891.151	51.37
891.323	30.89
891.494	-42.84
891.665	73.9
891.836	-77.65
892.007	8.36
892.178	43.18
892.349	53.42
892.52	-14.17
892.691	-44.88
892.862	-26.45
893.032	-112.47
893.203	-83.8
893.374	43.18
893.545	59.56
893.716	-59.22
893.887	67.75
894.057	30.89
894.228	-12.12
894.399	-32.6
894.57	30.89
894.74	-28.5
894.911	-18.26
895.082	-81.75
895.253	-36.69
895.423	-1.88
895.594	133.29
895.764	-22.36
895.935	-124.76
896.106	75.95
896.276	-112.47
896.447	34.99
896.617	-67.41
896.788	-116.56
896.958	2.22
897.129	14.51
897.299	8.36
897.47	112.81
897.64	22.7
897.81	-71.51
897.981	0.17
898.151	-12.12
898.322	-10.07
898.492	49.32
898.662	-85.84
898.832	43.18
899.003	-12.12
899.173	75.95
899.343	-18.26
899.513	24.75
