Data from USB4F104151__43__10-25-05-836.txt Node

Date: Wed Feb 26 10:25:05 EST 2025
User: louis
Spectrometer: USB4F10415
Trigger mode: 4
Integration Time (sec): 1.000000E-1
Scans to average: 1
Electric dark correction enabled: true
Nonlinearity correction enabled: false
Boxcar width: 0
XAxis mode: Wavelengths
Number of Pixels in Spectrum: 3648
>>>>>Begin Spectral Data<<<<<
178.204	-415.57
178.424	-415.57
178.644	-415.57
178.864	-450.38
179.084	-442.19
179.304	30.89
179.524	-26.45
179.744	-51.03
179.964	-10.07
180.184	112.81
180.404	12.46
180.624	-83.8
180.844	-36.69
181.064	-83.8
181.283	63.66
181.503	-46.93
181.723	118.95
181.943	-126.8
182.163	90.28
182.383	-73.56
182.602	57.51
182.822	114.86
183.042	8.36
183.262	-87.89
183.482	-26.45
183.701	63.66
183.921	43.18
184.141	-53.08
184.361	73.9
184.58	90.28
184.8	30.89
185.02	-48.98
185.239	43.18
185.459	53.42
185.679	61.61
185.898	-85.84
186.118	-1.88
186.338	34.99
186.557	32.94
186.777	-42.84
186.997	-14.17
187.216	-46.93
187.436	207.02
187.655	-22.36
187.875	28.84
188.095	-12.12
188.314	98.47
188.534	172.2
188.753	-77.65
188.973	53.42
189.192	149.67
189.412	-46.93
189.631	-10.07
189.851	39.08
190.07	141.48
190.29	-59.22
190.509	-32.6
190.729	73.9
190.948	84.14
191.168	198.82
191.387	6.31
191.607	-46.93
191.826	-30.55
192.045	129.19
192.265	18.6
192.484	65.71
192.704	39.08
192.923	-87.89
193.142	174.25
193.362	49.32
193.581	139.43
193.8	-10.07
194.02	90.28
194.239	49.32
194.458	90.28
194.678	4.27
194.897	-12.12
195.116	12.46
195.335	26.79
195.555	-28.5
195.774	-18.26
195.993	121
196.212	94.38
196.432	-28.5
196.651	-36.69
196.87	-24.4
197.089	153.77
197.308	61.61
197.528	26.79
197.747	-40.79
197.966	14.51
198.185	82.09
198.404	-59.22
198.623	121
198.842	98.47
199.062	75.95
199.281	88.23
199.5	-12.12
199.719	20.65
199.938	75.95
200.157	45.23
200.376	129.19
200.595	159.91
200.814	55.47
201.033	-18.26
201.252	166.06
201.471	53.42
201.69	49.32
201.909	-12.12
202.128	80.04
202.347	73.9
202.566	-40.79
202.785	-87.89
203.004	-51.03
203.223	280.74
203.442	2.22
203.661	-46.93
203.879	41.13
204.098	159.91
204.317	-5.97
204.536	67.75
204.755	45.23
204.974	67.75
205.193	26.79
205.411	80.04
205.63	77.99
205.849	63.66
206.068	-3.93
206.287	-5.97
206.505	80.04
206.724	10.41
206.943	12.46
207.162	-1.88
207.381	34.99
207.599	-38.74
207.818	-18.26
208.037	-63.32
208.255	-16.21
208.474	90.28
208.693	92.33
208.911	-32.6
209.13	41.13
209.349	118.95
209.567	106.67
209.786	129.19
210.005	110.76
210.223	49.32
210.442	-120.66
210.661	12.46
210.879	47.27
211.098	28.84
211.316	10.41
211.535	69.8
211.753	73.9
211.972	49.32
212.191	-42.84
212.409	26.79
212.628	51.37
212.846	-59.22
213.065	49.32
213.283	84.14
213.502	-38.74
213.72	12.46
213.938	4.27
214.157	-63.32
214.375	22.7
214.594	-20.31
214.812	84.14
215.031	69.8
215.249	49.32
215.467	80.04
215.686	-44.88
215.904	45.23
216.122	47.27
216.341	139.43
216.559	34.99
216.778	123.05
216.996	45.23
217.214	10.41
217.432	43.18
217.651	-59.22
217.869	-1.88
218.087	41.13
218.306	41.13
218.524	-12.12
218.742	4.27
218.96	88.23
219.179	-26.45
219.397	18.6
219.615	223.4
219.833	106.67
220.051	-53.08
220.27	41.13
220.488	51.37
220.706	45.23
220.924	-24.4
221.142	-46.93
221.36	43.18
221.578	102.57
221.796	84.14
222.015	22.7
222.233	-20.31
222.451	88.23
222.669	-83.8
222.887	69.8
223.105	-44.88
223.323	30.89
223.541	-28.5
223.759	32.94
223.977	53.42
224.195	129.19
224.413	47.27
224.631	88.23
224.849	-3.93
225.067	221.35
225.285	-42.84
225.503	-34.64
225.721	-106.32
225.939	65.71
226.157	43.18
226.375	131.24
226.592	-55.12
226.81	77.99
227.028	55.47
227.246	55.47
227.464	-28.5
227.682	71.85
227.9	26.79
228.117	63.66
228.335	61.61
228.553	65.71
228.771	41.13
228.989	61.61
229.206	151.72
229.424	-22.36
229.642	22.7
229.86	-42.84
230.077	108.71
230.295	71.85
230.513	43.18
230.731	57.51
230.948	39.08
231.166	102.57
231.384	59.56
231.601	4.27
231.819	268.45
232.037	-46.93
232.254	-20.31
232.472	47.27
232.689	-20.31
232.907	100.52
233.125	-40.79
233.342	-104.28
233.56	-65.36
233.777	-8.02
233.995	20.65
234.213	112.81
234.43	153.77
234.648	8.36
234.865	-1.88
235.083	0.17
235.3	-38.74
235.518	16.55
235.735	96.43
235.953	39.08
236.17	24.75
236.388	-20.31
236.605	-14.17
236.822	80.04
237.04	69.8
237.257	63.66
237.475	-59.22
237.692	112.81
237.909	43.18
238.127	-44.88
238.344	67.75
238.562	45.23
238.779	-112.47
238.996	-94.04
239.214	75.95
239.431	61.61
239.648	61.61
239.865	80.04
240.083	73.9
240.3	75.95
240.517	-149.33
240.735	-16.21
240.952	49.32
241.169	96.43
241.386	16.55
241.603	-46.93
241.821	-122.71
242.038	12.46
242.255	123.05
242.472	-75.6
242.689	39.08
242.907	96.43
243.124	96.43
243.341	-16.21
243.558	55.47
243.775	20.65
243.992	-57.17
244.209	98.47
244.426	121
244.643	94.38
244.86	-10.07
245.078	86.19
245.295	-34.64
245.512	4.27
245.729	37.03
245.946	-57.17
246.163	10.41
246.38	-73.56
246.597	88.23
246.814	26.79
247.031	-104.28
247.248	43.18
247.464	32.94
247.681	10.41
247.898	-24.4
248.115	-12.12
248.332	-40.79
248.549	96.43
248.766	121
248.983	161.96
249.2	30.89
249.417	39.08
249.633	-22.36
249.85	88.23
250.067	-5.97
250.284	59.56
250.501	39.08
250.717	32.94
250.934	-128.85
251.151	-8.02
251.368	-36.69
251.585	59.56
251.801	2.22
252.018	-53.08
252.235	39.08
252.451	-71.51
252.668	-40.79
252.885	61.61
253.102	43.18
253.318	0.17
253.535	28.84
253.752	12.46
253.968	92.33
254.185	-106.32
254.401	-28.5
254.618	30.89
254.835	-32.6
255.051	90.28
255.268	-5.97
255.484	32.94
255.701	16.55
255.917	51.37
256.134	-10.07
256.351	22.7
256.567	-48.98
256.784	-22.36
257	-73.56
257.217	32.94
257.433	90.28
257.65	-3.93
257.866	196.78
258.082	-8.02
258.299	-38.74
258.515	10.41
258.732	-75.6
258.948	-81.75
259.165	32.94
259.381	-67.41
259.597	24.75
259.814	67.75
260.03	133.29
260.246	-69.46
260.463	131.24
260.679	137.38
260.895	24.75
261.112	161.96
261.328	24.75
261.544	-42.84
261.761	161.96
261.977	26.79
262.193	-59.22
262.409	34.99
262.626	-10.07
262.842	37.03
263.058	-20.31
263.274	77.99
263.49	75.95
263.707	32.94
263.923	92.33
264.139	-65.36
264.355	129.19
264.571	63.66
264.787	-5.97
265.004	133.29
265.22	-28.5
265.436	-57.17
265.652	49.32
265.868	98.47
266.084	-57.17
266.3	37.03
266.516	-65.36
266.732	34.99
266.948	41.13
267.164	-63.32
267.38	30.89
267.596	10.41
267.812	118.95
268.028	98.47
268.244	-28.5
268.46	-8.02
268.676	49.32
268.892	39.08
269.108	-8.02
269.324	-20.31
269.54	-34.64
269.756	129.19
269.972	-38.74
270.188	4.27
270.403	-116.56
270.619	-8.02
270.835	55.47
271.051	47.27
271.267	-51.03
271.483	-34.64
271.698	41.13
271.914	28.84
272.13	-1.88
272.346	2.22
272.562	-16.21
272.777	53.42
272.993	-81.75
273.209	-16.21
273.425	53.42
273.64	-75.6
273.856	59.56
274.072	-48.98
274.287	-122.71
274.503	45.23
274.719	47.27
274.934	26.79
275.15	-130.9
275.366	26.79
275.581	-55.12
275.797	84.14
276.012	-3.93
276.228	51.37
276.444	-5.97
276.659	129.19
276.875	-44.88
277.09	45.23
277.306	-51.03
277.521	43.18
277.737	-3.93
277.952	26.79
278.168	24.75
278.383	80.04
278.599	86.19
278.814	118.95
279.03	-1.88
279.245	108.71
279.461	-51.03
279.676	100.52
279.892	-40.79
280.107	-108.37
280.322	-14.17
280.538	28.84
280.753	55.47
280.969	6.31
281.184	28.84
281.399	61.61
281.615	41.13
281.83	47.27
282.045	-57.17
282.26	-55.12
282.476	26.79
282.691	-26.45
282.906	63.66
283.122	-26.45
283.337	8.36
283.552	53.42
283.767	39.08
283.983	108.71
284.198	-46.93
284.413	28.84
284.628	-63.32
284.843	18.6
285.058	47.27
285.274	8.36
285.489	-57.17
285.704	32.94
285.919	-59.22
286.134	-94.04
286.349	77.99
286.564	-18.26
286.779	71.85
286.995	4.27
287.21	-212.82
287.425	24.75
287.64	-53.08
287.855	0.17
288.07	-26.45
288.285	69.8
288.5	98.47
288.715	-3.93
288.93	-75.6
289.145	-61.27
289.36	55.47
289.575	-8.02
289.79	141.48
290.004	-40.79
290.219	129.19
290.434	-59.22
290.649	39.08
290.864	-5.97
291.079	-55.12
291.294	69.8
291.509	28.84
291.724	84.14
291.938	12.46
292.153	-1.88
292.368	-65.36
292.583	-14.17
292.798	53.42
293.012	63.66
293.227	26.79
293.442	8.36
293.657	65.71
293.871	20.65
294.086	69.8
294.301	161.96
294.516	108.71
294.73	-8.02
294.945	-42.84
295.16	57.51
295.374	92.33
295.589	139.43
295.804	41.13
296.018	-10.07
296.233	121
296.447	45.23
296.662	-16.21
296.877	69.8
297.091	92.33
297.306	73.9
297.52	-46.93
297.735	53.42
297.949	-1.88
298.164	37.03
298.378	24.75
298.593	-40.79
298.807	-8.02
299.022	55.47
299.236	174.25
299.451	6.31
299.665	-81.75
299.88	47.27
300.094	73.9
300.309	-55.12
300.523	4.27
300.737	26.79
300.952	75.95
301.166	94.38
301.381	-38.74
301.595	-34.64
301.809	-30.55
302.024	-59.22
302.238	-42.84
302.452	106.67
302.667	10.41
302.881	114.86
303.095	82.09
303.309	98.47
303.524	-18.26
303.738	-22.36
303.952	-46.93
304.166	86.19
304.381	-120.66
304.595	69.8
304.809	-36.69
305.023	8.36
305.237	-5.97
305.452	4.27
305.666	94.38
305.88	67.75
306.094	104.62
306.308	-20.31
306.522	43.18
306.736	61.61
306.95	20.65
307.164	-14.17
307.379	-79.7
307.593	57.51
307.807	73.9
308.021	73.9
308.235	34.99
308.449	-171.86
308.663	37.03
308.877	192.68
309.091	-5.97
309.305	37.03
309.519	-104.28
309.733	49.32
309.947	8.36
310.161	2.22
310.374	75.95
310.588	86.19
310.802	-10.07
311.016	26.79
311.23	-12.12
311.444	-28.5
311.658	57.51
311.872	112.81
312.085	133.29
312.299	139.43
312.513	125.1
312.727	45.23
312.941	-34.64
313.154	49.32
313.368	2.22
313.582	34.99
313.796	57.51
314.009	22.7
314.223	168.1
314.437	80.04
314.651	28.84
314.864	28.84
315.078	-36.69
315.292	-106.32
315.505	-5.97
315.719	-14.17
315.933	-38.74
316.146	-1.88
316.36	-77.65
316.573	108.71
316.787	24.75
317.001	174.25
317.214	-67.41
317.428	-12.12
317.641	-5.97
317.855	-16.21
318.068	82.09
318.282	-10.07
318.495	118.95
318.709	51.37
318.922	-8.02
319.136	110.76
319.349	10.41
319.563	-40.79
319.776	116.9
319.99	-106.32
320.203	24.75
320.417	116.9
320.63	141.48
320.843	155.82
321.057	32.94
321.27	6.31
321.483	22.7
321.697	88.23
321.91	8.36
322.124	55.47
322.337	-42.84
322.55	-32.6
322.763	108.71
322.977	4.27
323.19	-63.32
323.403	-30.55
323.617	24.75
323.83	112.81
324.043	88.23
324.256	43.18
324.469	-69.46
324.683	98.47
324.896	26.79
325.109	2.22
325.322	-79.7
325.535	39.08
325.748	116.9
325.962	-67.41
326.175	26.79
326.388	37.03
326.601	10.41
326.814	-40.79
327.027	61.61
327.24	112.81
327.453	-57.17
327.666	73.9
327.879	161.96
328.092	75.95
328.305	10.41
328.518	28.84
328.731	12.46
328.944	16.55
329.157	22.7
329.37	22.7
329.583	143.53
329.796	121
330.009	-71.51
330.222	84.14
330.435	100.52
330.648	65.71
330.861	86.19
331.073	6.31
331.286	14.51
331.499	6.31
331.712	-42.84
331.925	53.42
332.138	-1.88
332.35	47.27
332.563	-57.17
332.776	16.55
332.989	-12.12
333.202	28.84
333.414	57.51
333.627	0.17
333.84	-5.97
334.053	24.75
334.265	-18.26
334.478	-67.41
334.691	20.65
334.903	28.84
335.116	-28.5
335.329	0.17
335.541	116.9
335.754	137.38
335.966	-3.93
336.179	20.65
336.392	6.31
336.604	-18.26
336.817	84.14
337.029	69.8
337.242	10.41
337.454	2.22
337.667	4.27
337.88	114.86
338.092	57.51
338.305	65.71
338.517	-3.93
338.729	129.19
338.942	198.82
339.154	-100.18
339.367	-28.5
339.579	108.71
339.792	-10.07
340.004	28.84
340.217	-20.31
340.429	18.6
340.641	-24.4
340.854	-42.84
341.066	-28.5
341.278	45.23
341.491	131.24
341.703	51.37
341.915	18.6
342.128	116.9
342.34	61.61
342.552	10.41
342.764	34.99
342.977	20.65
343.189	131.24
343.401	34.99
343.613	-53.08
343.826	20.65
344.038	-46.93
344.25	67.75
344.462	-77.65
344.674	37.03
344.886	-38.74
345.099	49.32
345.311	41.13
345.523	34.99
345.735	-122.71
345.947	-1.88
346.159	-10.07
346.371	-3.93
346.583	-38.74
346.795	131.24
347.007	-32.6
347.219	-3.93
347.431	-36.69
347.643	166.06
347.855	-20.31
348.067	172.2
348.279	-100.18
348.491	-18.26
348.703	145.58
348.915	-40.79
349.127	-63.32
349.339	123.05
349.551	41.13
349.763	73.9
349.975	-26.45
350.187	57.51
350.399	116.9
350.61	24.75
350.822	-69.46
351.034	71.85
351.246	-5.97
351.458	98.47
351.669	88.23
351.881	71.85
352.093	129.19
352.305	100.52
352.517	98.47
352.728	82.09
352.94	49.32
353.152	53.42
353.363	-5.97
353.575	14.51
353.787	174.25
353.999	69.8
354.21	84.14
354.422	-71.51
354.633	73.9
354.845	39.08
355.057	127.14
355.268	49.32
355.48	102.57
355.692	-106.32
355.903	-5.97
356.115	-40.79
356.326	-85.84
356.538	96.43
356.749	102.57
356.961	110.76
357.172	-81.75
357.384	-30.55
357.595	266.41
357.807	-42.84
358.018	-1.88
358.23	4.27
358.441	39.08
358.653	34.99
358.864	-22.36
359.075	-59.22
359.287	18.6
359.498	75.95
359.709	47.27
359.921	-1.88
360.132	41.13
360.344	45.23
360.555	-3.93
360.766	37.03
360.977	34.99
361.189	213.16
361.4	-24.4
361.611	84.14
361.823	57.51
362.034	45.23
362.245	-26.45
362.456	-32.6
362.667	145.58
362.879	-51.03
363.09	63.66
363.301	41.13
363.512	75.95
363.723	-12.12
363.935	8.36
364.146	51.37
364.357	24.75
364.568	-16.21
364.779	-96.08
364.99	143.53
365.201	-10.07
365.412	82.09
365.623	-124.76
365.834	69.8
366.045	104.62
366.256	55.47
366.467	18.6
366.678	37.03
366.889	-46.93
367.1	-51.03
367.311	71.85
367.522	-55.12
367.733	77.99
367.944	82.09
368.155	-38.74
368.366	84.14
368.577	125.1
368.788	94.38
368.999	4.27
369.209	18.6
369.42	186.54
369.631	155.82
369.842	51.37
370.053	12.46
370.264	118.95
370.474	-10.07
370.685	-8.02
370.896	61.61
371.107	71.85
371.317	49.32
371.528	84.14
371.739	106.67
371.95	30.89
372.16	80.04
372.371	-59.22
372.582	14.51
372.792	51.37
373.003	69.8
373.214	4.27
373.424	63.66
373.635	-22.36
373.846	104.62
374.056	6.31
374.267	51.37
374.477	43.18
374.688	-24.4
374.898	28.84
375.109	-16.21
375.319	12.46
375.53	172.2
375.74	82.09
375.951	30.89
376.161	-40.79
376.372	67.75
376.582	24.75
376.793	67.75
377.003	16.55
377.214	4.27
377.424	77.99
377.635	45.23
377.845	-73.56
378.055	10.41
378.266	-1.88
378.476	77.99
378.686	24.75
378.897	-10.07
379.107	129.19
379.317	80.04
379.528	-63.32
379.738	92.33
379.948	-32.6
380.158	114.86
380.369	51.37
380.579	59.56
380.789	-34.64
380.999	-85.84
381.21	96.43
381.42	159.91
381.63	16.55
381.84	147.62
382.05	6.31
382.261	110.76
382.471	166.06
382.681	-73.56
382.891	139.43
383.101	8.36
383.311	-46.93
383.521	-44.88
383.731	39.08
383.941	32.94
384.151	37.03
384.361	-18.26
384.571	59.56
384.781	51.37
384.991	194.73
385.201	209.06
385.411	102.57
385.621	41.13
385.831	63.66
386.041	112.81
386.251	-34.64
386.461	73.9
386.671	63.66
386.881	41.13
387.091	39.08
387.301	80.04
387.511	57.51
387.72	45.23
387.93	92.33
388.14	-91.99
388.35	-10.07
388.56	90.28
388.769	67.75
388.979	32.94
389.189	-91.99
389.399	51.37
389.609	121
389.818	30.89
390.028	-3.93
390.238	92.33
390.447	-42.84
390.657	77.99
390.867	-14.17
391.076	-53.08
391.286	-8.02
391.496	-55.12
391.705	-1.88
391.915	90.28
392.125	96.43
392.334	12.46
392.544	147.62
392.753	45.23
392.963	-40.79
393.172	-1.88
393.382	-16.21
393.591	176.3
393.801	0.17
394.01	176.3
394.22	51.37
394.429	-3.93
394.639	-30.55
394.848	80.04
395.058	37.03
395.267	-34.64
395.477	151.72
395.686	30.89
395.895	188.58
396.105	211.11
396.314	20.65
396.524	41.13
396.733	-8.02
396.942	49.32
397.152	24.75
397.361	168.1
397.57	-3.93
397.78	-8.02
397.989	92.33
398.198	202.92
398.407	20.65
398.617	73.9
398.826	65.71
399.035	6.31
399.244	180.39
399.453	61.61
399.663	41.13
399.872	12.46
400.081	-14.17
400.29	82.09
400.499	32.94
400.708	94.38
400.917	32.94
401.127	39.08
401.336	45.23
401.545	176.3
401.754	121
401.963	18.6
402.172	-8.02
402.381	6.31
402.59	-10.07
402.799	-30.55
403.008	104.62
403.217	12.46
403.426	86.19
403.635	-87.89
403.844	84.14
404.053	34.99
404.262	59.56
404.471	182.44
404.68	39.08
404.888	-57.17
405.097	10.41
405.306	37.03
405.515	112.81
405.724	-51.03
405.933	127.14
406.142	112.81
406.35	86.19
406.559	12.46
406.768	45.23
406.977	151.72
407.185	34.99
407.394	135.34
407.603	-12.12
407.812	63.66
408.02	137.38
408.229	-69.46
408.438	88.23
408.646	-114.52
408.855	98.47
409.064	-5.97
409.272	53.42
409.481	96.43
409.69	-24.4
409.898	-38.74
410.107	84.14
410.315	141.48
410.524	16.55
410.733	49.32
410.941	-3.93
411.15	61.61
411.358	104.62
411.567	84.14
411.775	-48.98
411.984	82.09
412.192	45.23
412.401	26.79
412.609	127.14
412.818	118.95
413.026	86.19
413.234	92.33
413.443	49.32
413.651	-20.31
413.86	34.99
414.068	141.48
414.276	164.01
414.485	-1.88
414.693	92.33
414.901	151.72
415.11	59.56
415.318	45.23
415.526	-1.88
415.734	63.66
415.943	26.79
416.151	147.62
416.359	26.79
416.567	47.27
416.776	137.38
416.984	159.91
417.192	143.53
417.4	14.51
417.608	-24.4
417.817	-44.88
418.025	106.67
418.233	196.78
418.441	-26.45
418.649	-30.55
418.857	69.8
419.065	110.76
419.273	59.56
419.481	10.41
419.689	16.55
419.897	20.65
420.105	12.46
420.313	20.65
420.521	143.53
420.729	215.21
420.937	-5.97
421.145	45.23
421.353	116.9
421.561	131.24
421.769	24.75
421.977	-40.79
422.185	49.32
422.393	-10.07
422.601	61.61
422.809	16.55
423.017	96.43
423.224	149.67
423.432	67.75
423.64	24.75
423.848	92.33
424.056	-32.6
424.263	65.71
424.471	14.51
424.679	96.43
424.887	-30.55
425.094	82.09
425.302	53.42
425.51	16.55
425.718	90.28
425.925	100.52
426.133	34.99
426.341	172.2
426.548	100.52
426.756	-1.88
426.964	59.56
427.171	57.51
427.379	63.66
427.586	98.47
427.794	139.43
428.001	84.14
428.209	37.03
428.417	121
428.624	178.34
428.832	2.22
429.039	100.52
429.247	55.47
429.454	155.82
429.662	200.87
429.869	57.51
430.076	164.01
430.284	174.25
430.491	153.77
430.699	176.3
430.906	159.91
431.114	159.91
431.321	168.1
431.528	110.76
431.736	131.24
431.943	176.3
432.15	112.81
432.358	192.68
432.565	260.26
432.772	94.38
432.979	196.78
433.187	112.81
433.394	307.37
433.601	172.2
433.808	233.64
434.016	278.69
434.223	295.08
434.43	239.78
434.637	213.16
434.844	338.09
435.052	270.5
435.259	264.36
435.466	280.74
435.673	331.94
435.88	340.13
436.087	411.81
436.294	344.23
436.501	319.65
436.708	352.42
436.915	338.09
437.122	420
437.329	295.08
437.537	309.41
437.743	422.05
437.95	450.72
438.157	333.99
438.364	381.09
438.571	436.39
438.778	469.16
438.985	495.78
439.192	524.45
439.399	477.35
439.606	569.51
439.813	602.27
440.02	686.24
440.227	747.68
440.433	655.52
440.64	532.64
440.847	589.99
441.054	690.34
441.261	721.06
441.467	737.44
441.674	700.58
441.881	936.09
442.088	729.25
442.294	864.41
442.501	950.43
442.708	903.32
442.914	927.9
443.121	954.52
443.328	987.29
443.534	1067.16
443.741	1144.99
443.948	979.1
444.154	1181.85
444.361	1300.63
444.568	1237.14
444.774	1132.7
444.981	1181.85
445.187	1427.6
445.394	1333.4
445.6	1437.84
445.807	1538.2
446.013	1511.57
446.22	1466.52
446.426	1667.22
446.633	1888.4
446.839	1972.36
447.046	1673.36
447.252	1906.83
447.459	1853.58
447.665	1863.82
447.871	2171.02
448.078	2267.27
448.284	2222.22
448.491	2396.29
448.697	2535.56
448.903	2590.85
449.11	2582.66
449.316	2670.72
449.522	2777.22
449.728	3020.92
449.935	3117.18
450.141	3035.26
450.347	3453.05
450.553	3313.78
450.76	3405.94
450.966	3629.17
451.172	3606.64
451.378	3764.34
451.584	3887.22
451.791	4190.31
451.997	4368.49
452.203	4415.59
452.409	4636.77
452.615	4647.01
452.821	4612.2
453.027	4708.45
453.233	5216.35
453.44	5163.1
453.646	5304.41
453.852	5638.23
454.058	5869.65
454.264	6021.2
454.47	6557.77
454.676	6563.91
454.882	7145.53
455.088	6676.55
455.294	6977.6
455.5	7579.7
455.705	8028.21
455.911	7921.71
456.117	8243.24
456.323	8540.2
456.529	8587.3
456.735	9322.52
456.941	9439.26
457.147	9885.72
457.352	10170.38
457.558	10567.69
457.764	11163.65
457.97	11509.76
458.176	11831.29
458.381	12529.64
458.587	12642.28
458.793	13293.54
458.999	13236.19
459.204	15042.5
459.41	15706.04
459.616	15345.6
459.821	16218.04
460.027	16629.68
460.233	17684.38
460.438	17457.06
460.644	18534.29
460.85	18861.96
461.055	19591.04
461.261	20600.69
461.466	20223.86
461.672	20647.79
461.878	22978.38
462.083	22830.93
462.289	23162.7
462.494	24141.63
462.7	24225.59
462.905	24543.03
463.111	26509.08
463.316	27713.28
463.522	28313.34
463.727	29423.34
463.932	30469.85
464.138	30846.68
464.343	32507.58
464.549	32800.44
464.754	35528.33
464.959	35870.34
465.165	36619.9
465.37	36261.51
465.575	36669.05
465.781	38551.13
465.986	39966.28
466.191	39302.74
466.397	39833.16
466.602	38858.33
466.807	41180.73
467.012	41948.71
467.218	42206.76
467.423	42077.74
467.628	43496.98
467.833	45600.24
468.038	44811.77
468.244	43996.68
468.449	46233.07
468.654	45274.62
468.859	45512.18
469.064	45524.47
469.269	44021.26
469.474	44555.78
469.679	45878.77
469.885	44664.32
470.09	45178.36
470.295	45260.28
470.5	44236.3
470.705	44385.8
470.91	43445.78
471.115	43345.43
471.32	43832.85
471.525	43095.58
471.73	42233.38
471.935	41766.45
472.139	40627.77
472.344	40617.53
472.549	40207.94
472.754	39278.16
472.959	38588
473.164	37035.64
473.369	36939.38
473.574	37617.26
473.778	36898.42
473.983	36615.8
474.188	35753.61
474.393	33955.49
474.598	33918.63
474.802	32986.8
475.007	32730.81
475.212	32749.24
475.417	30961.36
475.621	31006.42
475.826	30494.43
476.031	30082.78
476.235	29585.13
476.44	29210.35
476.645	28831.47
476.849	28389.11
477.054	27905.79
477.259	27383.56
477.463	27049.74
477.668	26234.65
477.872	26494.74
478.077	25888.54
478.282	24885.04
478.486	24674.1
478.691	24614.71
478.895	24344.38
479.1	24033.08
479.304	23703.36
479.509	23439.17
479.713	23347.01
479.918	22921.04
480.122	22290.26
480.326	22777.68
480.531	22701.9
480.735	22419.28
480.94	21802.85
481.144	22660.94
481.348	21313.38
481.553	21577.57
481.757	21038.95
481.961	21208.94
482.166	21313.38
482.37	20903.79
482.574	20586.35
482.778	20625.26
482.983	20762.48
483.187	20205.43
483.391	20135.8
483.595	19935.1
483.8	19834.75
484.004	19699.58
484.208	19433.35
484.412	19339.14
484.616	19040.14
484.821	19255.17
485.025	18450.32
485.229	18356.11
485.433	18220.95
485.637	18247.57
485.841	17473.44
486.045	17444.77
486.249	17180.58
486.453	16768.94
486.657	16857
486.861	16699.31
487.065	16121.78
487.269	16080.82
487.473	15724.47
487.677	15660.99
487.881	15390.66
488.085	14720.97
488.289	14731.21
488.493	14186.45
488.697	14458.83
488.901	14030.8
489.105	13883.35
489.309	13418.46
489.512	13365.21
489.716	13236.19
489.92	12920.81
490.124	12621.8
490.328	12476.4
490.531	12173.3
490.735	11898.87
490.939	11726.84
491.143	11403.26
491.346	11298.81
491.55	11384.83
491.754	10921.99
491.958	10819.59
492.161	10739.72
492.365	10469.39
492.569	10143.76
492.772	10043.41
492.976	9965.59
493.18	9721.88
493.383	9826.32
493.587	9855
493.79	9502.75
493.994	9355.29
494.197	9111.58
494.401	9203.74
494.605	8701.99
494.808	9054.24
495.012	8906.79
495.215	8677.41
495.419	8824.87
495.622	8706.09
495.825	8558.63
496.029	8589.35
496.232	8747.05
496.436	8220.72
496.639	8538.15
496.843	8396.84
497.046	8310.83
497.249	8538.15
497.453	8407.08
497.656	8316.97
497.859	8228.91
498.063	8321.07
498.266	8550.44
498.469	8302.64
498.673	8243.24
498.876	8321.07
499.079	8411.18
499.282	8316.97
499.485	8607.78
499.689	8368.17
499.892	8714.28
500.095	8466.47
500.298	8493.1
500.501	8433.71
500.705	8794.15
500.908	8650.79
501.111	8947.75
501.314	9007.14
501.517	9062.43
501.72	9183.26
501.923	9041.95
502.126	9062.43
502.329	9297.95
502.532	9338.91
502.735	9457.69
502.938	9656.34
503.141	9682.97
503.344	9732.12
503.547	9801.75
503.75	9879.57
503.953	9832.47
504.156	10248.21
504.359	10463.24
504.562	10285.07
504.765	10786.82
504.968	10698.76
505.17	10838.02
505.373	10954.76
505.576	11053.06
505.779	11282.43
505.982	11427.84
506.185	11915.25
506.387	11685.88
506.59	12038.13
506.793	12290.03
506.996	12294.13
507.198	12736.49
507.401	12875.75
507.604	13115.36
507.807	13529.05
508.009	13576.16
508.212	13760.47
508.415	14221.27
508.617	14401.49
508.82	14436.3
509.022	14383.06
509.225	15210.43
509.428	15437.76
509.63	15787.96
509.833	15755.19
510.035	16744.36
510.238	16551.85
510.44	16740.27
510.643	17360.8
510.845	17713.05
511.048	17975.19
511.25	18507.66
511.453	19042.18
511.655	19726.21
511.858	19529.6
512.06	19879.8
512.262	20268.92
512.465	20965.23
512.667	21135.21
512.87	21944.16
513.072	22341.46
513.274	22818.64
513.477	23129.93
513.679	23680.83
513.881	24289.08
514.084	24725.3
514.286	24985.39
514.488	25560.87
514.69	26457.88
514.893	26803.99
515.095	27541.25
515.297	27956.99
515.499	28172.03
515.701	29046.51
515.904	29832.93
516.106	30267.1
516.308	30564.06
516.51	31684.3
516.712	32120.51
516.914	32720.57
517.116	33248.94
517.318	33181.36
517.52	34143.91
517.722	34580.12
517.925	35442.32
518.127	36044.42
518.329	36847.22
518.531	36894.33
518.733	37883.5
518.935	38475.36
519.136	38633.05
519.338	39437.9
519.54	39777.87
519.742	40572.48
519.944	40724.03
520.146	41766.45
520.348	42071.59
520.55	42188.33
520.752	43083.29
520.954	43789.84
521.155	43851.28
521.357	44344.84
521.559	44908.03
521.761	45700.59
521.963	45479.41
522.164	45833.71
522.366	46353.9
522.568	47017.44
522.77	47021.53
522.971	47805.91
523.173	47588.82
523.375	48211.4
523.576	48088.52
523.778	48041.42
523.98	49030.59
524.181	48750.02
524.383	48729.54
524.584	49468.86
524.786	49163.71
524.988	49233.34
525.189	49036.73
525.391	49728.95
525.592	49757.62
525.794	49561.01
525.995	49305.02
526.197	49544.63
526.398	49249.72
526.6	49358.27
526.801	49393.08
527.003	49188.28
527.204	48696.77
527.406	49341.88
527.607	48174.54
527.808	48491.97
528.01	47144.41
528.211	47521.24
528.412	47631.83
528.614	47003.1
528.815	46624.23
529.016	46929.37
529.218	45919.73
529.419	45506.04
529.62	45039.1
529.822	44467.72
530.023	44183.05
530.224	44119.56
530.425	43693.58
530.626	42640.93
530.828	42534.43
531.029	42282.53
531.23	41344.56
531.431	41319.99
531.632	40990.27
531.833	40635.97
532.035	39814.73
532.236	39276.12
532.437	39312.98
532.638	38256.23
532.839	38366.82
533.04	37787.24
533.241	36667
533.442	37092.98
533.643	36077.19
533.844	35540.62
534.045	35294.86
534.246	34238.11
534.447	34383.52
534.648	33636.01
534.849	33322.67
535.05	32413.37
535.251	32116.42
535.451	32063.17
535.652	31735.49
535.853	30983.89
536.054	30760.66
536.255	30494.43
536.456	29855.46
536.657	29607.65
536.857	28813.04
537.058	28241.66
537.259	28497.66
537.46	27846.4
537.66	27557.64
537.861	27373.32
538.062	26674.96
538.263	26695.44
538.463	26181.4
538.664	26007.33
538.865	25458.47
539.065	25315.11
539.266	24825.65
539.466	24702.77
539.667	23840.57
539.868	24125.24
540.068	23697.22
540.269	23363.4
540.469	23211.85
540.67	22931.28
540.87	22732.62
541.071	22185.82
541.271	21935.96
541.472	21915.48
541.672	21454.69
541.873	21337.96
542.073	20774.77
542.274	20969.32
542.474	20629.36
542.675	20471.67
542.875	20670.32
543.075	19875.71
543.276	19568.51
543.476	19697.53
543.676	19197.83
543.877	18927.5
544.077	18999.18
544.277	18823.05
544.478	18651.02
544.678	18376.59
544.878	18139.03
545.078	17975.19
545.279	17481.63
545.479	17194.92
545.679	17307.55
545.879	16793.51
546.079	16770.99
546.28	16512.94
546.48	16232.37
546.68	16527.28
546.88	16291.76
547.08	16023.48
547.28	15593.4
547.48	15169.48
547.68	15243.2
547.88	15101.89
548.081	15062.98
548.281	14510.03
548.481	14532.56
548.681	14372.82
548.881	14317.52
549.081	13924.31
549.28	13641.69
549.48	13430.75
549.68	13254.62
549.88	13475.81
550.08	12842.98
550.28	13000.68
550.48	12668.91
550.68	12681.19
550.88	12421.1
551.08	12181.49
551.279	12091.38
551.479	11872.25
551.679	11835.38
551.879	11558.91
552.079	11481.08
552.278	11253.76
552.478	11067.39
552.678	10948.61
552.878	10862.6
553.077	10549.26
553.277	10432.52
553.477	10328.08
553.676	10078.22
553.876	10117.14
554.076	9981.97
554.275	9689.11
554.475	9435.16
554.674	9279.52
554.874	9162.78
555.074	8876.07
555.273	8962.08
555.473	8788
555.672	8650.79
555.872	8523.82
556.071	8351.79
556.271	8327.21
556.47	8095.79
556.67	7923.76
556.869	7899.19
557.068	7757.88
557.268	7688.25
557.467	7526.46
557.667	7499.83
557.866	7268.41
558.065	6916.16
558.265	6946.88
558.464	6881.35
558.663	6867.01
558.863	6647.88
559.062	6711.36
559.261	6395.98
559.461	6475.85
559.66	6389.83
559.859	6277.19
560.058	6078.54
560.258	6010.96
560.457	5902.42
560.656	5988.43
560.855	5687.38
561.054	5648.47
561.253	5548.12
561.453	5544.02
561.652	5357.66
561.851	5599.32
562.05	5144.67
562.249	5009.5
562.448	5171.29
562.647	4771.94
562.846	4868.19
563.045	4896.86
563.244	4921.44
563.443	4829.28
563.642	4569.19
563.841	4479.08
564.04	4507.75
564.239	4352.1
564.438	4362.34
564.637	4173.93
564.836	4192.36
565.035	4139.12
565.234	3993.71
565.432	4124.78
565.631	4092.01
565.83	4065.39
566.029	3928.17
566.228	3870.83
566.427	3799.15
566.625	3717.23
566.824	3475.57
567.023	3717.23
567.222	3557.49
567.42	3494.01
567.619	3465.33
567.818	3469.43
568.016	3498.1
568.215	3440.76
568.414	3223.67
568.612	3168.38
568.811	3315.83
569.01	3025.02
569.208	3192.95
569.407	3082.36
569.605	3117.18
569.804	3049.6
570.002	3057.79
570.201	2676.87
570.4	2924.67
570.598	2756.74
570.797	2812.03
570.995	2574.47
571.193	2635.91
571.392	2660.48
571.59	2572.42
571.789	2553.99
571.987	2558.08
572.186	2578.56
572.384	2390.15
572.582	2410.63
572.781	2408.58
572.979	2302.09
573.177	2230.41
573.376	2320.52
573.574	2312.33
573.772	2207.88
573.971	2062.48
574.169	1966.22
574.367	2226.31
574.565	2150.54
574.763	2068.62
574.962	1972.36
575.16	2099.34
575.358	2054.28
575.556	1861.77
575.754	1890.45
575.952	1878.16
576.151	1904.78
576.349	1921.17
576.547	1626.26
576.745	1790.1
576.943	1646.74
577.141	1765.52
577.339	1493.14
577.537	1722.51
577.735	1747.09
577.933	1589.39
578.131	1532.05
578.329	1673.36
578.527	1523.86
578.725	1433.75
578.923	1474.71
579.121	1636.5
579.319	1353.88
579.516	1364.12
579.714	1654.93
579.912	1347.73
580.11	1304.73
580.308	1439.89
580.506	1386.65
580.704	1177.75
580.901	1155.23
581.099	1333.4
581.297	1222.81
581.495	1210.52
581.692	1220.76
581.89	1384.6
582.088	1243.29
582.285	1081.5
582.483	1151.13
582.681	1110.17
582.878	1040.54
583.076	1128.6
583.274	1099.93
583.471	1171.61
583.669	1075.35
583.866	1009.82
584.064	921.76
584.262	938.14
584.459	913.56
584.657	983.2
584.854	1015.96
585.052	942.24
585.249	995.48
585.447	917.66
585.644	845.98
585.841	888.99
586.039	1050.78
586.236	952.48
586.434	891.04
586.631	809.12
586.828	823.45
587.026	788.64
587.223	739.49
587.42	788.64
587.618	829.6
587.815	874.65
588.012	776.35
588.21	800.93
588.407	794.78
588.604	772.25
588.801	712.86
588.999	698.53
589.196	796.83
589.393	563.36
589.59	618.66
589.787	727.2
589.984	667.81
590.182	784.54
590.379	659.62
590.576	610.47
590.773	702.62
590.97	686.24
591.167	663.71
591.364	729.25
591.561	598.18
591.758	755.87
591.955	649.38
592.152	628.9
592.349	647.33
592.546	610.47
592.743	618.66
592.94	669.86
593.137	692.38
593.334	686.24
593.531	729.25
593.727	710.82
593.924	702.62
594.121	583.84
594.318	700.58
594.515	694.43
594.712	827.55
594.908	798.88
595.105	542.88
595.302	745.63
595.499	778.4
595.696	858.27
595.892	704.67
596.089	854.17
596.286	620.71
596.482	952.48
596.679	768.16
596.876	817.31
597.072	854.17
597.269	843.93
597.466	985.24
597.662	932
597.859	915.61
598.055	927.9
598.252	1001.63
598.448	1030.3
598.645	1075.35
598.841	1175.7
599.038	1353.88
599.234	1314.97
599.431	1319.06
599.627	1286.3
599.824	1362.07
600.02	1417.37
600.217	1415.32
600.413	1530
600.609	1523.86
600.806	1818.77
601.002	1679.51
601.198	1583.25
601.395	1876.11
601.591	1919.12
601.787	1933.45
601.984	1982.6
602.18	2154.63
602.376	2113.67
602.572	2257.03
602.769	2394.25
602.965	2400.39
603.161	2672.77
603.357	2750.59
603.553	2830.46
603.75	2730.11
603.946	2857.09
604.142	2930.81
604.338	3074.17
604.534	3180.67
604.73	3100.8
604.926	3217.53
605.122	3657.84
605.318	3569.78
605.514	3795.06
605.71	3848.3
605.906	4016.24
606.102	4135.02
606.298	4468.84
606.494	4413.54
606.69	4558.95
606.886	4616.29
607.082	4610.15
607.278	5027.93
607.474	5015.65
607.67	5234.78
607.866	5142.62
608.062	5466.2
608.257	5800.02
608.453	5615.7
608.649	5963.86
608.845	5967.95
609.041	6316.11
609.236	6481.99
609.432	6680.64
609.628	6737.99
609.824	6977.6
610.019	7141.44
610.215	7465.02
610.411	7784.5
610.606	7878.71
610.802	7962.67
610.998	8097.84
611.193	8466.47
611.389	8448.04
611.584	8642.6
611.78	8839.2
611.976	9295.9
612.171	9576.47
612.367	9756.69
612.562	10074.13
612.758	10110.99
612.953	10403.85
613.149	10743.81
613.344	11014.15
613.539	11290.62
613.735	11814.9
613.93	11798.52
614.126	12097.52
614.321	12847.08
614.517	13041.64
614.712	13289.44
614.907	13826.01
615.103	14233.55
615.298	14268.37
615.493	14757.83
615.688	15005.64
615.884	15865.78
616.079	15654.84
616.274	16410.54
616.47	16531.37
616.665	16949.16
616.86	17446.82
617.055	17917.85
617.25	18173.85
617.445	19105.67
617.641	18880.39
617.836	19836.8
618.031	19799.93
618.226	20946.8
618.421	21198.7
618.616	21847.9
618.811	21944.16
619.006	23025.48
619.201	23025.48
619.396	23539.52
619.591	24047.42
619.786	24776.5
619.981	24991.53
620.176	25757.47
620.371	26523.41
620.566	26959.63
620.761	27471.62
620.956	28167.93
621.151	28258.04
621.346	29255.4
621.541	29380.33
621.735	30490.33
621.93	30383.84
622.125	31194.83
622.32	31538.89
622.515	32487.1
622.709	32796.34
622.904	33603.24
623.099	34074.27
623.294	34717.34
623.488	34977.43
623.683	35911.3
623.878	35597.96
624.072	36890.23
624.267	37396.08
624.462	37711.47
624.656	38397.54
624.851	39284.31
625.046	39562.83
625.24	40185.41
625.435	40519.23
625.629	41455.15
625.824	41575.98
626.018	42663.46
626.213	42221.09
626.407	43427.35
626.602	43345.43
626.796	44402.18
626.991	44445.19
627.185	44459.52
627.38	44975.61
627.574	45495.8
627.768	45301.24
627.963	46265.83
628.157	45755.89
628.352	46153.19
628.546	45905.39
628.74	46527.97
628.935	46095.85
629.129	46202.35
629.323	45835.76
629.517	45858.29
629.712	45620.72
629.906	45088.25
630.1	44555.78
630.294	44496.39
630.489	43867.66
630.683	43683.34
630.877	42399.27
631.071	41954.86
631.265	41594.42
631.459	40257.09
631.653	39505.49
631.848	39054.93
632.042	37942.89
632.236	37115.51
632.43	36081.28
632.624	35448.46
632.818	34410.14
633.012	32741.05
633.206	32337.6
633.4	31561.42
633.594	29710.05
633.788	29333.23
633.982	28425.98
634.176	27387.66
634.369	25937.69
634.563	25141.04
634.757	24457.01
634.951	23572.29
635.145	22769.49
635.339	21876.57
635.533	20905.84
635.726	20100.98
635.92	19158.92
636.114	18405.27
636.308	17559.45
636.501	17012.65
636.695	16349.11
636.889	15402.94
637.083	14909.38
637.276	14235.6
637.47	13529.05
637.664	13146.08
637.857	12578.79
638.051	12269.55
638.244	11784.18
638.438	11249.66
638.632	10924.04
638.825	10305.55
639.019	10145.81
639.212	9590.81
639.406	9302.04
639.599	8785.96
639.793	8482.86
639.986	8120.37
640.18	8122.41
640.373	7417.91
640.567	7213.12
640.76	6977.6
640.954	6760.52
641.147	6488.14
641.34	6355.02
641.534	5988.43
641.727	5810.26
641.92	5584.98
642.114	5369.94
642.307	5210.2
642.5	5036.13
642.694	4624.48
642.887	4599.91
643.08	4622.44
643.273	4399.21
643.467	4069.48
643.66	3911.79
643.853	3649.65
644.046	3659.89
644.239	3557.49
644.432	3246.2
644.626	3088.51
644.819	3084.41
645.012	3012.73
645.205	2875.52
645.398	2846.85
645.591	2662.53
645.784	2642.05
645.977	2422.92
646.17	2390.15
646.363	2398.34
646.556	2209.93
646.749	1984.65
646.942	2070.67
647.135	2046.09
647.328	1876.11
647.521	1808.53
647.714	1599.63
647.907	1581.2
648.099	1564.82
648.292	1628.31
648.485	1530
648.678	1360.02
648.871	1380.5
649.064	1382.55
649.256	1165.46
649.449	1124.51
649.642	1118.36
649.835	1126.55
650.027	993.44
650.22	1147.03
650.413	981.15
650.605	1104.03
650.798	993.44
650.991	864.41
651.183	852.13
651.376	966.81
651.568	815.26
651.761	925.85
651.954	833.69
652.146	813.21
652.339	784.54
652.531	809.12
652.724	571.55
652.916	600.23
653.109	581.79
653.301	594.08
653.494	669.86
653.686	579.75
653.879	635.04
654.071	632.99
654.263	485.54
654.456	424.1
654.648	649.38
654.84	575.65
655.033	442.53
655.225	620.71
655.417	325.8
655.61	587.94
655.802	510.11
655.994	516.26
656.186	297.13
656.379	444.58
656.571	352.42
656.763	346.28
656.955	299.17
657.148	338.09
657.34	389.28
657.532	313.51
657.724	360.61
657.916	389.28
658.108	372.9
658.3	354.47
658.492	401.57
658.684	243.88
658.876	342.18
659.068	290.98
659.26	211.11
659.452	184.49
659.644	295.08
659.836	411.81
660.028	293.03
660.22	239.78
660.412	176.3
660.604	213.16
660.796	221.35
660.988	323.75
661.18	256.17
661.372	395.43
661.563	164.01
661.755	290.98
661.947	196.78
662.139	90.28
662.331	213.16
662.522	225.45
662.714	225.45
662.906	94.38
663.097	166.06
663.289	125.1
663.481	71.85
663.673	221.35
663.864	102.57
664.056	258.21
664.247	116.9
664.439	217.26
664.631	194.73
664.822	180.39
665.014	182.44
665.205	41.13
665.397	135.34
665.588	217.26
665.78	133.29
665.971	305.32
666.163	192.68
666.354	149.67
666.546	30.89
666.737	61.61
666.929	178.34
667.12	53.42
667.311	141.48
667.503	106.67
667.694	104.62
667.885	161.96
668.077	151.72
668.268	18.6
668.459	59.56
668.651	139.43
668.842	166.06
669.033	53.42
669.224	18.6
669.416	258.21
669.607	96.43
669.798	55.47
669.989	215.21
670.18	149.67
670.371	174.25
670.563	30.89
670.754	198.82
670.945	184.49
671.136	204.97
671.327	26.79
671.518	204.97
671.709	202.92
671.9	174.25
672.091	237.74
672.282	125.1
672.473	71.85
672.664	-5.97
672.855	137.38
673.046	133.29
673.237	137.38
673.428	65.71
673.619	180.39
673.809	135.34
674	135.34
674.191	166.06
674.382	96.43
674.573	143.53
674.764	188.58
674.954	202.92
675.145	57.51
675.336	32.94
675.527	114.86
675.717	114.86
675.908	63.66
676.099	39.08
676.289	75.95
676.48	32.94
676.671	112.81
676.861	118.95
677.052	116.9
677.243	47.27
677.433	96.43
677.624	135.34
677.814	190.63
678.005	96.43
678.195	211.11
678.386	143.53
678.576	110.76
678.767	-28.5
678.957	131.24
679.148	133.29
679.338	260.26
679.529	57.51
679.719	118.95
679.909	243.88
680.1	247.97
680.29	157.86
680.481	57.51
680.671	223.4
680.861	209.06
681.052	151.72
681.242	47.27
681.432	180.39
681.622	184.49
681.813	47.27
682.003	71.85
682.193	123.05
682.383	143.53
682.573	116.9
682.764	174.25
682.954	221.35
683.144	247.97
683.334	43.18
683.524	155.82
683.714	149.67
683.904	153.77
684.094	106.67
684.284	178.34
684.474	250.02
684.664	192.68
684.854	125.1
685.044	184.49
685.234	61.61
685.424	213.16
685.614	125.1
685.804	264.36
685.994	276.65
686.184	207.02
686.374	139.43
686.564	235.69
686.753	149.67
686.943	147.62
687.133	114.86
687.323	133.29
687.513	272.55
687.702	184.49
687.892	161.96
688.082	225.45
688.272	321.7
688.461	231.59
688.651	354.47
688.841	225.45
689.03	164.01
689.22	94.38
689.41	166.06
689.599	217.26
689.789	149.67
689.979	286.89
690.168	127.14
690.358	204.97
690.547	114.86
690.737	157.86
690.926	157.86
691.116	243.88
691.305	168.1
691.495	209.06
691.684	88.23
691.874	84.14
692.063	102.57
692.252	174.25
692.442	194.73
692.631	114.86
692.82	55.47
693.01	227.5
693.199	104.62
693.388	116.9
693.578	63.66
693.767	207.02
693.956	198.82
694.146	123.05
694.335	159.91
694.524	153.77
694.713	194.73
694.902	69.8
695.092	139.43
695.281	108.71
695.47	118.95
695.659	67.75
695.848	176.3
696.037	90.28
696.226	207.02
696.415	121
696.604	288.93
696.793	164.01
696.982	98.47
697.171	286.89
697.36	69.8
697.549	114.86
697.738	75.95
697.927	77.99
698.116	61.61
698.305	256.17
698.494	92.33
698.683	108.71
698.872	272.55
699.061	112.81
699.25	159.91
699.438	250.02
699.627	53.42
699.816	331.94
700.005	110.76
700.193	22.7
700.382	221.35
700.571	104.62
700.76	106.67
700.948	176.3
701.137	202.92
701.326	153.77
701.514	34.99
701.703	182.44
701.892	92.33
702.08	315.56
702.269	164.01
702.457	6.31
702.646	110.76
702.834	57.51
703.023	252.07
703.212	159.91
703.4	213.16
703.589	47.27
703.777	47.27
703.965	63.66
704.154	129.19
704.342	26.79
704.531	69.8
704.719	149.67
704.907	215.21
705.096	161.96
705.284	-24.4
705.472	225.45
705.661	88.23
705.849	235.69
706.037	190.63
706.226	174.25
706.414	125.1
706.602	106.67
706.79	174.25
706.979	112.81
707.167	112.81
707.355	71.85
707.543	145.58
707.731	233.64
707.919	147.62
708.107	182.44
708.296	61.61
708.484	53.42
708.672	149.67
708.86	192.68
709.048	159.91
709.236	106.67
709.424	190.63
709.612	186.54
709.8	41.13
709.988	65.71
710.176	266.41
710.364	276.65
710.551	106.67
710.739	110.76
710.927	86.19
711.115	166.06
711.303	180.39
711.491	159.91
711.679	166.06
711.866	161.96
712.054	47.27
712.242	157.86
712.43	293.03
712.617	63.66
712.805	227.5
712.993	170.15
713.181	116.9
713.368	225.45
713.556	96.43
713.744	82.09
713.931	325.8
714.119	153.77
714.306	88.23
714.494	182.44
714.682	159.91
714.869	67.75
715.057	127.14
715.244	45.23
715.432	174.25
715.619	157.86
715.807	151.72
715.994	88.23
716.182	159.91
716.369	192.68
716.556	174.25
716.744	155.82
716.931	80.04
717.119	125.1
717.306	125.1
717.493	200.87
717.681	16.55
717.868	149.67
718.055	243.88
718.242	125.1
718.43	178.34
718.617	196.78
718.804	164.01
718.991	225.45
719.179	211.11
719.366	168.1
719.553	190.63
719.74	188.58
719.927	112.81
720.114	247.97
720.301	143.53
720.488	121
720.676	80.04
720.863	295.08
721.05	321.7
721.237	260.26
721.424	196.78
721.611	149.67
721.798	147.62
721.985	178.34
722.172	196.78
722.358	153.77
722.545	139.43
722.732	176.3
722.919	315.56
723.106	272.55
723.293	178.34
723.48	174.25
723.667	108.71
723.853	268.45
724.04	131.24
724.227	260.26
724.414	145.58
724.6	247.97
724.787	286.89
724.974	379.04
725.161	178.34
725.347	174.25
725.534	288.93
725.72	184.49
725.907	288.93
726.094	266.41
726.28	133.29
726.467	227.5
726.653	166.06
726.84	350.37
727.027	315.56
727.213	192.68
727.4	274.6
727.586	209.06
727.773	231.59
727.959	252.07
728.145	172.2
728.332	235.69
728.518	172.2
728.705	237.74
728.891	194.73
729.077	241.83
729.264	200.87
729.45	215.21
729.636	368.81
729.823	262.31
730.009	274.6
730.195	229.54
730.382	293.03
730.568	104.62
730.754	235.69
730.94	286.89
731.126	280.74
731.313	315.56
731.499	268.45
731.685	301.22
731.871	268.45
732.057	174.25
732.243	268.45
732.429	319.65
732.615	372.9
732.801	340.13
732.987	209.06
733.173	243.88
733.359	221.35
733.545	288.93
733.731	229.54
733.917	354.47
734.103	256.17
734.289	266.41
734.475	252.07
734.661	432.29
734.847	260.26
735.033	225.45
735.219	278.69
735.404	190.63
735.59	231.59
735.776	219.3
735.962	227.5
736.148	288.93
736.333	342.18
736.519	321.7
736.705	241.83
736.89	194.73
737.076	266.41
737.262	207.02
737.447	237.74
737.633	245.93
737.819	381.09
738.004	286.89
738.19	286.89
738.375	309.41
738.561	274.6
738.747	323.75
738.932	250.02
739.118	420
739.303	297.13
739.489	258.21
739.674	262.31
739.859	241.83
740.045	247.97
740.23	235.69
740.416	207.02
740.601	342.18
740.786	276.65
740.972	188.58
741.157	196.78
741.342	174.25
741.528	133.29
741.713	290.98
741.898	209.06
742.084	346.28
742.269	252.07
742.454	317.61
742.639	417.96
742.824	266.41
743.01	405.67
743.195	475.3
743.38	299.17
743.565	272.55
743.75	286.89
743.935	336.04
744.12	293.03
744.305	202.92
744.49	278.69
744.675	174.25
744.86	256.17
745.045	280.74
745.23	329.89
745.415	194.73
745.6	338.09
745.785	153.77
745.97	325.8
746.155	266.41
746.34	372.9
746.525	293.03
746.71	379.04
746.895	188.58
747.079	243.88
747.264	245.93
747.449	385.19
747.634	321.7
747.819	344.23
748.003	266.41
748.188	209.06
748.373	354.47
748.557	170.15
748.742	235.69
748.927	225.45
749.111	159.91
749.296	288.93
749.481	329.89
749.665	327.85
749.85	147.62
750.034	200.87
750.219	245.93
750.404	184.49
750.588	227.5
750.773	215.21
750.957	260.26
751.141	237.74
751.326	266.41
751.51	125.1
751.695	243.88
751.879	172.2
752.064	301.22
752.248	194.73
752.432	321.7
752.617	305.32
752.801	295.08
752.985	239.78
753.17	344.23
753.354	235.69
753.538	270.5
753.722	112.81
753.907	202.92
754.091	198.82
754.275	239.78
754.459	245.93
754.643	186.54
754.828	182.44
755.012	250.02
755.196	106.67
755.38	225.45
755.564	184.49
755.748	178.34
755.932	295.08
756.116	280.74
756.3	153.77
756.484	98.47
756.668	159.91
756.852	84.14
757.036	155.82
757.22	252.07
757.404	139.43
757.588	127.14
757.772	284.84
757.956	129.19
758.14	282.79
758.323	96.43
758.507	137.38
758.691	174.25
758.875	260.26
759.059	270.5
759.242	178.34
759.426	174.25
759.61	178.34
759.794	90.28
759.977	225.45
760.161	358.57
760.345	286.89
760.528	211.11
760.712	172.2
760.895	153.77
761.079	166.06
761.263	43.18
761.446	26.79
761.63	188.58
761.813	127.14
761.997	63.66
762.18	121
762.364	225.45
762.547	22.7
762.731	110.76
762.914	184.49
763.098	82.09
763.281	80.04
763.464	73.9
763.648	157.86
763.831	110.76
764.015	80.04
764.198	190.63
764.381	80.04
764.564	86.19
764.748	65.71
764.931	196.78
765.114	102.57
765.297	211.11
765.481	82.09
765.664	73.9
765.847	86.19
766.03	223.4
766.213	4.27
766.397	190.63
766.58	32.94
766.763	102.57
766.946	49.32
767.129	67.75
767.312	121
767.495	141.48
767.678	22.7
767.861	106.67
768.044	104.62
768.227	145.58
768.41	104.62
768.593	96.43
768.776	161.96
768.959	157.86
769.142	149.67
769.324	75.95
769.507	125.1
769.69	92.33
769.873	137.38
770.056	280.74
770.239	106.67
770.421	157.86
770.604	149.67
770.787	39.08
770.97	104.62
771.152	55.47
771.335	114.86
771.518	98.47
771.7	217.26
771.883	149.67
772.066	39.08
772.248	92.33
772.431	184.49
772.613	121
772.796	108.71
772.978	88.23
773.161	155.82
773.343	22.7
773.526	57.51
773.708	-53.08
773.891	0.17
774.073	80.04
774.256	24.75
774.438	188.58
774.621	75.95
774.803	149.67
774.985	100.52
775.168	143.53
775.35	12.46
775.532	164.01
775.715	53.42
775.897	135.34
776.079	59.56
776.261	153.77
776.444	-12.12
776.626	30.89
776.808	77.99
776.99	-12.12
777.173	90.28
777.355	55.47
777.537	186.54
777.719	90.28
777.901	63.66
778.083	34.99
778.265	-83.8
778.447	82.09
778.629	51.37
778.811	69.8
778.993	108.71
779.175	137.38
779.357	135.34
779.539	-20.31
779.721	14.51
779.903	98.47
780.085	6.31
780.267	8.36
780.449	55.47
780.631	164.01
780.812	166.06
780.994	39.08
781.176	37.03
781.358	18.6
781.54	55.47
781.721	110.76
781.903	168.1
782.085	-67.41
782.267	71.85
782.448	45.23
782.63	-1.88
782.812	75.95
782.993	88.23
783.175	137.38
783.357	71.85
783.538	80.04
783.72	61.61
783.901	53.42
784.083	94.38
784.264	153.77
784.446	-16.21
784.627	-22.36
784.809	67.75
784.99	-30.55
785.172	14.51
785.353	-55.12
785.535	55.47
785.716	20.65
785.897	12.46
786.079	-1.88
786.26	47.27
786.441	112.81
786.623	-89.94
786.804	26.79
786.985	55.47
787.167	67.75
787.348	16.55
787.529	-3.93
787.71	215.21
787.891	65.71
788.073	-51.03
788.254	-5.97
788.435	116.9
788.616	84.14
788.797	-3.93
788.978	-8.02
789.159	28.84
789.34	63.66
789.522	-18.26
789.703	-85.84
789.884	47.27
790.065	22.7
790.246	145.58
790.427	-26.45
790.607	98.47
790.788	80.04
790.969	-40.79
791.15	59.56
791.331	-75.6
791.512	-65.36
791.693	-55.12
791.874	8.36
792.054	153.77
792.235	34.99
792.416	-112.47
792.597	22.7
792.778	-18.26
792.958	-20.31
793.139	34.99
793.32	47.27
793.5	-24.4
793.681	192.68
793.862	12.46
794.042	20.65
794.223	-34.64
794.404	-53.08
794.584	-20.31
794.765	22.7
794.945	20.65
795.126	88.23
795.306	32.94
795.487	-16.21
795.667	-26.45
795.848	22.7
796.028	-44.88
796.209	39.08
796.389	92.33
796.57	-5.97
796.75	-5.97
796.93	47.27
797.111	-28.5
797.291	-5.97
797.471	104.62
797.652	-40.79
797.832	-128.85
798.012	55.47
798.192	-22.36
798.373	-44.88
798.553	-42.84
798.733	108.71
798.913	-89.94
799.093	-8.02
799.274	-5.97
799.454	24.75
799.634	94.38
799.814	86.19
799.994	34.99
800.174	67.75
800.354	10.41
800.534	-147.28
800.714	2.22
800.894	12.46
801.074	-122.71
801.254	-30.55
801.434	92.33
801.614	-36.69
801.794	-46.93
801.974	1824.91
802.154	-22.36
802.334	34.99
802.514	-116.56
802.693	6.31
802.873	43.18
803.053	110.76
803.233	10.41
803.413	-46.93
803.592	-40.79
803.772	-26.45
803.952	55.47
804.131	-67.41
804.311	-14.17
804.491	77.99
804.67	-77.65
804.85	-44.88
805.03	24.75
805.209	75.95
805.389	-46.93
805.568	-85.84
805.748	-12.12
805.928	-26.45
806.107	30.89
806.287	28.84
806.466	47.27
806.646	-36.69
806.825	-32.6
807.004	-1.88
807.184	6.31
807.363	65.71
807.543	94.38
807.722	-46.93
807.901	20.65
808.081	45.23
808.26	-165.71
808.439	6.31
808.619	-46.93
808.798	28.84
808.977	-32.6
809.156	22.7
809.336	37.03
809.515	10.41
809.694	-16.21
809.873	-77.65
810.052	-36.69
810.231	39.08
810.411	0.17
810.59	141.48
810.769	-3.93
810.948	30.89
811.127	-24.4
811.306	-102.23
811.485	18.6
811.664	77.99
811.843	24.75
812.022	8.36
812.201	-5.97
812.38	-5.97
812.559	-120.66
812.737	45.23
812.916	-126.8
813.095	-53.08
813.274	14.51
813.453	12.46
813.632	16.55
813.811	30.89
813.989	-106.32
814.168	-10.07
814.347	-30.55
814.526	71.85
814.704	61.61
814.883	69.8
815.062	-65.36
815.24	32.94
815.419	-28.5
815.598	28.84
815.776	-85.84
815.955	-48.98
816.133	-167.76
816.312	-57.17
816.49	6.31
816.669	4.27
816.847	-1.88
817.026	-5.97
817.204	-28.5
817.383	39.08
817.561	-12.12
817.74	4.27
817.918	34.99
818.097	-28.5
818.275	-16.21
818.453	18.6
818.632	53.42
818.81	-102.23
818.988	-36.69
819.167	-110.42
819.345	-12.12
819.523	-73.56
819.701	55.47
819.879	14.51
820.058	12.46
820.236	-44.88
820.414	10.41
820.592	-75.6
820.77	-73.56
820.948	-85.84
821.127	26.79
821.305	-28.5
821.483	10.41
821.661	26.79
821.839	-40.79
822.017	-89.94
822.195	-91.99
822.373	4.27
822.551	6.31
822.729	18.6
822.907	22.7
823.085	59.56
823.262	22.7
823.44	-5.97
823.618	-59.22
823.796	14.51
823.974	-114.52
824.152	-57.17
824.329	41.13
824.507	53.42
824.685	16.55
824.863	34.99
825.04	-124.76
825.218	71.85
825.396	-89.94
825.574	22.7
825.751	-73.56
825.929	61.61
826.107	-77.65
826.284	75.95
826.462	2.22
826.639	-108.37
826.817	-91.99
826.994	39.08
827.172	-51.03
827.349	127.14
827.527	47.27
827.704	-63.32
827.882	-40.79
828.059	-8.02
828.237	18.6
828.414	75.95
828.591	-116.56
828.769	-79.7
828.946	-59.22
829.124	84.14
829.301	139.43
829.478	0.17
829.655	-14.17
829.833	-20.31
830.01	-161.62
830.187	53.42
830.364	10.41
830.542	-59.22
830.719	43.18
830.896	86.19
831.073	-1.88
831.25	47.27
831.427	20.65
831.604	26.79
831.782	-32.6
831.959	51.37
832.136	0.17
832.313	18.6
832.49	-34.64
832.667	-3.93
832.844	-57.17
833.021	86.19
833.198	30.89
833.374	26.79
833.551	20.65
833.728	-91.99
833.905	84.14
834.082	-149.33
834.259	37.03
834.436	80.04
834.612	-3.93
834.789	32.94
834.966	-18.26
835.143	-34.64
835.319	26.79
835.496	4.27
835.673	43.18
835.85	8.36
836.026	-14.17
836.203	96.43
836.38	-18.26
836.556	-83.8
836.733	-87.89
836.909	96.43
837.086	-51.03
837.262	-112.47
837.439	-69.46
837.616	-81.75
837.792	-48.98
837.968	26.79
838.145	-106.32
838.321	-20.31
838.498	75.95
838.674	69.8
838.851	37.03
839.027	24.75
839.203	-32.6
839.38	-34.64
839.556	-42.84
839.732	49.32
839.909	-36.69
840.085	26.79
840.261	-94.04
840.437	14.51
840.614	-32.6
840.79	51.37
840.966	-3.93
841.142	63.66
841.318	-87.89
841.494	57.51
841.671	53.42
841.847	-108.37
842.023	-91.99
842.199	39.08
842.375	104.62
842.551	-135
842.727	-114.52
842.903	118.95
843.079	0.17
843.255	12.46
843.431	-48.98
843.607	2.22
843.783	-165.71
843.959	-18.26
844.134	-63.32
844.31	102.57
844.486	-14.17
844.662	-104.28
844.838	-48.98
845.013	-32.6
845.189	39.08
845.365	10.41
845.541	-83.8
845.716	80.04
845.892	65.71
846.068	-65.36
846.244	-61.27
846.419	-20.31
846.595	-67.41
846.77	-167.76
846.946	20.65
847.122	-38.74
847.297	-26.45
847.473	43.18
847.648	-59.22
847.824	-32.6
847.999	-165.71
848.175	-14.17
848.35	8.36
848.526	108.71
848.701	26.79
848.876	32.94
849.052	16.55
849.227	28.84
849.403	-14.17
849.578	-145.24
849.753	-57.17
849.929	53.42
850.104	-24.4
850.279	39.08
850.454	-63.32
850.63	41.13
850.805	-28.5
850.98	16.55
851.155	8.36
851.33	-26.45
851.505	-67.41
851.681	108.71
851.856	-55.12
852.031	10.41
852.206	-48.98
852.381	-106.32
852.556	-32.6
852.731	-5.97
852.906	-5.97
853.081	20.65
853.256	123.05
853.431	-24.4
853.606	-59.22
853.781	-188.24
853.956	-104.28
854.131	-87.89
854.305	-79.7
854.48	-30.55
854.655	-59.22
854.83	-63.32
855.005	-30.55
855.18	41.13
855.354	2.22
855.529	12.46
855.704	-57.17
855.879	-40.79
856.053	0.17
856.228	-18.26
856.403	-75.6
856.577	51.37
856.752	-65.36
856.926	-87.89
857.101	14.51
857.276	-85.84
857.45	14.51
857.625	-26.45
857.799	41.13
857.974	-40.79
858.148	-153.43
858.323	80.04
858.497	30.89
858.672	-98.13
858.846	-83.8
859.02	49.32
859.195	-40.79
859.369	-98.13
859.543	-63.32
859.718	73.9
859.892	10.41
860.066	-40.79
860.241	-61.27
860.415	4.27
860.589	-10.07
860.763	2.22
860.938	-65.36
861.112	34.99
861.286	-8.02
861.46	0.17
861.634	-96.08
861.808	34.99
861.982	-104.28
862.157	-112.47
862.331	-161.62
862.505	-167.76
862.679	-120.66
862.853	-71.51
863.027	-124.76
863.201	151.72
863.375	-79.7
863.549	14.51
863.722	43.18
863.896	69.8
864.07	-94.04
864.244	-51.03
864.418	67.75
864.592	28.84
864.766	-51.03
864.939	-36.69
865.113	-18.26
865.287	84.14
865.461	-26.45
865.634	-28.5
865.808	-3.93
865.982	-69.46
866.156	-104.28
866.329	-57.17
866.503	6.31
866.676	24.75
866.85	69.8
867.024	-16.21
867.197	116.9
867.371	63.66
867.544	26.79
867.718	-147.28
867.891	104.62
868.065	-34.64
868.238	-12.12
868.412	0.17
868.585	-67.41
868.759	-53.08
868.932	-114.52
869.105	-167.76
869.279	-14.17
869.452	-108.37
869.625	34.99
869.799	-100.18
869.972	-116.56
870.145	-51.03
870.319	-1.88
870.492	-30.55
870.665	-67.41
870.838	-55.12
871.011	-198.48
871.185	-22.36
871.358	-61.27
871.531	43.18
871.704	8.36
871.877	-32.6
872.05	-75.6
872.223	-75.6
872.396	32.94
872.569	-69.46
872.742	-98.13
872.915	4.27
873.088	-1.88
873.261	-132.95
873.434	-5.97
873.607	-20.31
873.78	39.08
873.953	-106.32
874.126	-8.02
874.299	-24.4
874.471	-94.04
874.644	-59.22
874.817	-14.17
874.99	98.47
875.163	-106.32
875.335	84.14
875.508	-46.93
875.681	32.94
875.853	-81.75
876.026	14.51
876.199	-55.12
876.371	-73.56
876.544	-100.18
876.717	-3.93
876.889	-106.32
877.062	-10.07
877.234	-77.65
877.407	-48.98
877.579	-73.56
877.752	-3.93
877.924	53.42
878.097	49.32
878.269	67.75
878.442	-1.88
878.614	30.89
878.786	4.27
878.959	-3.93
879.131	-24.4
879.303	-96.08
879.476	-32.6
879.648	63.66
879.82	-8.02
879.993	-44.88
880.165	-44.88
880.337	-157.52
880.509	-30.55
880.681	-81.75
880.854	-51.03
881.026	51.37
881.198	145.58
881.37	-91.99
881.542	-8.02
881.714	-61.27
881.886	-38.74
882.058	-32.6
882.23	-46.93
882.402	-75.6
882.574	57.51
882.746	-1.88
882.918	24.75
883.09	-10.07
883.262	-69.46
883.434	-20.31
883.606	-102.23
883.778	-18.26
883.95	65.71
884.122	-85.84
884.293	37.03
884.465	-16.21
884.637	14.51
884.809	-48.98
884.98	20.65
885.152	-87.89
885.324	26.79
885.496	-126.8
885.667	-132.95
885.839	-18.26
886.011	-16.21
886.182	-55.12
886.354	49.32
886.525	-3.93
886.697	-10.07
886.869	-104.28
887.04	-85.84
887.212	41.13
887.383	77.99
887.555	-36.69
887.726	-32.6
887.897	-110.42
888.069	-10.07
888.24	-32.6
888.412	2.22
888.583	32.94
888.754	14.51
888.926	-202.58
889.097	-18.26
889.268	-116.56
889.44	-36.69
889.611	-120.66
889.782	-110.42
889.953	-159.57
890.125	92.33
890.296	-61.27
890.467	-126.8
890.638	-65.36
890.809	-38.74
890.98	-79.7
891.151	-46.93
891.323	34.99
891.494	-14.17
891.665	-83.8
891.836	8.36
892.007	-85.84
892.178	-22.36
892.349	-24.4
892.52	-85.84
892.691	-42.84
892.862	-118.61
893.032	-145.24
893.203	-36.69
893.374	-32.6
893.545	0.17
893.716	-112.47
893.887	110.76
894.057	-85.84
894.228	-34.64
894.399	-79.7
894.57	159.91
894.74	-48.98
894.911	24.75
895.082	-18.26
895.253	-18.26
895.423	-71.51
895.594	28.84
895.764	53.42
895.935	-89.94
896.106	34.99
896.276	-75.6
896.447	8.36
896.617	-1.88
896.788	-38.74
896.958	-63.32
897.129	-71.51
897.299	-96.08
897.47	65.71
897.64	-26.45
897.81	-110.42
897.981	-65.36
898.151	-38.74
898.322	14.51
898.492	53.42
898.662	-161.62
898.832	-32.6
899.003	-28.5
899.173	-30.55
899.343	-137.04
899.513	-137.04
