Data from USB4F104151__79__10-33-50-138.txt Node

Date: Wed Feb 26 10:33:50 EST 2025
User: louis
Spectrometer: USB4F10415
Trigger mode: 4
Integration Time (sec): 1.000000E-1
Scans to average: 1
Electric dark correction enabled: true
Nonlinearity correction enabled: false
Boxcar width: 0
XAxis mode: Wavelengths
Number of Pixels in Spectrum: 3648
>>>>>Begin Spectral Data<<<<<
178.204	-359.42
178.424	-359.42
178.644	-359.42
178.864	-371.71
179.084	-367.61
179.304	-25.6
179.524	-35.84
179.744	50.18
179.964	89.09
180.184	19.46
180.404	25.6
180.624	-15.36
180.844	-1.02
181.064	-97.28
181.283	33.79
181.503	-7.17
181.723	-35.84
181.943	-1.02
182.163	222.2
182.383	5.12
182.602	72.7
182.822	177.15
183.042	177.15
183.262	31.74
183.482	56.32
183.701	23.55
183.921	160.77
184.141	-9.22
184.361	168.96
184.58	52.22
184.8	37.89
185.02	-9.22
185.239	119.81
185.459	89.09
185.679	89.09
185.898	-103.42
186.118	93.18
186.338	72.7
186.557	-11.26
186.777	19.46
186.997	37.89
187.216	9.22
187.436	123.9
187.655	168.96
187.875	91.13
188.095	130.05
188.314	236.54
188.534	84.99
188.753	11.26
188.973	99.33
189.192	222.2
189.412	-19.46
189.631	103.42
189.851	103.42
190.07	160.77
190.29	-50.18
190.509	95.23
190.729	80.89
190.948	105.47
191.168	220.16
191.387	41.98
191.607	72.7
191.826	74.75
192.045	130.05
192.265	48.13
192.484	74.75
192.704	107.52
192.923	-21.5
193.142	222.2
193.362	193.53
193.581	70.65
193.8	41.98
194.02	82.94
194.239	130.05
194.458	82.94
194.678	64.51
194.897	91.13
195.116	132.09
195.335	146.43
195.555	97.28
195.774	39.94
195.993	130.05
196.212	99.33
196.432	1.02
196.651	-54.27
196.87	35.84
197.089	177.15
197.308	72.7
197.528	80.89
197.747	1.02
197.966	109.57
198.185	203.77
198.404	35.84
198.623	109.57
198.842	84.99
199.062	158.72
199.281	72.7
199.5	93.18
199.719	95.23
199.938	103.42
200.157	72.7
200.376	68.61
200.595	246.78
200.814	97.28
201.033	29.7
201.252	224.25
201.471	7.17
201.69	115.71
201.909	78.85
202.128	168.96
202.347	105.47
202.566	76.8
202.785	-9.22
203.004	41.98
203.223	230.4
203.442	50.18
203.661	-95.23
203.879	39.94
204.098	107.52
204.317	-9.22
204.536	179.2
204.755	179.2
204.974	152.57
205.193	23.55
205.411	138.24
205.63	74.75
205.849	70.65
206.068	-3.07
206.287	39.94
206.505	154.62
206.724	87.04
206.943	37.89
207.162	17.41
207.381	66.56
207.599	17.41
207.818	74.75
208.037	31.74
208.255	60.42
208.474	109.57
208.693	19.46
208.911	48.13
209.13	113.66
209.349	52.22
209.567	134.14
209.786	130.05
210.005	84.99
210.223	56.32
210.442	3.07
210.661	1.02
210.879	62.46
211.098	68.61
211.316	64.51
211.535	121.85
211.753	29.7
211.972	29.7
212.191	9.22
212.409	87.04
212.628	252.92
212.846	-19.46
213.065	56.32
213.283	117.76
213.502	66.56
213.72	97.28
213.938	54.27
214.157	39.94
214.375	89.09
214.594	-37.89
214.812	146.43
215.031	1.02
215.249	95.23
215.467	97.28
215.686	138.24
215.904	105.47
216.122	-1.02
216.341	144.38
216.559	74.75
216.778	142.33
216.996	195.58
217.214	78.85
217.432	3.07
217.651	-56.32
217.869	70.65
218.087	68.61
218.306	31.74
218.524	13.31
218.742	68.61
218.96	105.47
219.179	62.46
219.397	74.75
219.615	240.64
219.833	123.9
220.051	58.37
220.27	140.29
220.488	64.51
220.706	89.09
220.924	48.13
221.142	15.36
221.36	87.04
221.578	136.19
221.796	89.09
222.015	9.22
222.233	89.09
222.451	152.57
222.669	103.42
222.887	132.09
223.105	70.65
223.323	15.36
223.541	68.61
223.759	39.94
223.977	44.03
224.195	173.05
224.413	158.72
224.631	62.46
224.849	123.9
225.067	214.01
225.285	-25.6
225.503	44.03
225.721	-91.13
225.939	76.8
226.157	76.8
226.375	123.9
226.592	66.56
226.81	117.76
227.028	230.4
227.246	117.76
227.464	146.43
227.682	134.14
227.9	134.14
228.117	70.65
228.335	140.29
228.553	33.79
228.771	-1.02
228.989	-31.74
229.206	70.65
229.424	39.94
229.642	19.46
229.86	-7.17
230.077	142.33
230.295	64.51
230.513	162.81
230.731	87.04
230.948	197.63
231.166	183.29
231.384	48.13
231.601	89.09
231.819	226.3
232.037	39.94
232.254	-15.36
232.472	48.13
232.689	37.89
232.907	156.67
233.125	70.65
233.342	-3.07
233.56	35.84
233.777	9.22
233.995	52.22
234.213	93.18
234.43	156.67
234.648	66.56
234.865	-13.31
235.083	29.7
235.3	25.6
235.518	111.61
235.735	197.63
235.953	60.42
236.17	37.89
236.388	109.57
236.605	21.5
236.822	132.09
237.04	111.61
237.257	66.56
237.475	15.36
237.692	91.13
237.909	68.61
238.127	52.22
238.344	52.22
238.562	93.18
238.779	-52.22
238.996	-7.17
239.214	74.75
239.431	93.18
239.648	97.28
239.865	93.18
240.083	142.33
240.3	-1.02
240.517	87.04
240.735	56.32
240.952	158.72
241.169	3.07
241.386	134.14
241.603	60.42
241.821	-29.7
242.038	130.05
242.255	130.05
242.472	13.31
242.689	76.8
242.907	107.52
243.124	62.46
243.341	74.75
243.558	64.51
243.775	21.5
243.992	15.36
244.209	39.94
244.426	121.85
244.643	95.23
244.86	23.55
245.078	93.18
245.295	91.13
245.512	89.09
245.729	21.5
245.946	128
246.163	109.57
246.38	41.98
246.597	76.8
246.814	39.94
247.031	70.65
247.248	1.02
247.464	95.23
247.681	62.46
247.898	105.47
248.115	121.85
248.332	-50.18
248.549	158.72
248.766	240.64
248.983	105.47
249.2	15.36
249.417	99.33
249.633	13.31
249.85	89.09
250.067	44.03
250.284	89.09
250.501	109.57
250.717	125.95
250.934	97.28
251.151	80.89
251.368	35.84
251.585	117.76
251.801	97.28
252.018	74.75
252.235	140.29
252.451	46.08
252.668	35.84
252.885	93.18
253.102	15.36
253.318	17.41
253.535	1.02
253.752	52.22
253.968	56.32
254.185	-50.18
254.401	9.22
254.618	109.57
254.835	21.5
255.051	152.57
255.268	191.49
255.484	113.66
255.701	66.56
255.917	74.75
256.134	-1.02
256.351	97.28
256.567	-37.89
256.784	9.22
257	-52.22
257.217	84.99
257.433	148.48
257.65	119.81
257.866	216.06
258.082	-29.7
258.299	-56.32
258.515	91.13
258.732	97.28
258.948	29.7
259.165	52.22
259.381	-35.84
259.597	171.01
259.814	-21.5
260.03	33.79
260.246	44.03
260.463	156.67
260.679	154.62
260.895	82.94
261.112	-9.22
261.328	35.84
261.544	-3.07
261.761	168.96
261.977	46.08
262.193	-29.7
262.409	156.67
262.626	11.26
262.842	37.89
263.058	27.65
263.274	158.72
263.49	46.08
263.707	171.01
263.923	105.47
264.139	-80.89
264.355	76.8
264.571	162.81
264.787	11.26
265.004	164.86
265.22	54.27
265.436	3.07
265.652	66.56
265.868	76.8
266.084	-95.23
266.3	33.79
266.516	-33.79
266.732	33.79
266.948	66.56
267.164	103.42
267.38	-33.79
267.596	134.14
267.812	203.77
268.028	39.94
268.244	7.17
268.46	89.09
268.676	82.94
268.892	66.56
269.108	21.5
269.324	-46.08
269.54	-3.07
269.756	97.28
269.972	15.36
270.188	111.61
270.403	-15.36
270.619	80.89
270.835	109.57
271.051	39.94
271.267	76.8
271.483	21.5
271.698	103.42
271.914	121.85
272.13	58.37
272.346	1.02
272.562	142.33
272.777	177.15
272.993	41.98
273.209	-35.84
273.425	142.33
273.64	-9.22
273.856	160.77
274.072	-17.41
274.287	-21.5
274.503	23.55
274.719	121.85
274.934	44.03
275.15	-46.08
275.366	89.09
275.581	-29.7
275.797	35.84
276.012	74.75
276.228	52.22
276.444	60.42
276.659	140.29
276.875	39.94
277.09	74.75
277.306	58.37
277.521	50.18
277.737	99.33
277.952	111.61
278.168	109.57
278.383	48.13
278.599	111.61
278.814	128
279.03	78.85
279.245	162.81
279.461	29.7
279.676	173.05
279.892	27.65
280.107	33.79
280.322	46.08
280.538	37.89
280.753	-17.41
280.969	78.85
281.184	35.84
281.399	207.87
281.615	70.65
281.83	44.03
282.045	-11.26
282.26	76.8
282.476	35.84
282.691	74.75
282.906	150.53
283.122	82.94
283.337	-1.02
283.552	101.37
283.767	33.79
283.983	142.33
284.198	46.08
284.413	146.43
284.628	13.31
284.843	19.46
285.058	134.14
285.274	39.94
285.489	17.41
285.704	150.53
285.919	74.75
286.134	-1.02
286.349	64.51
286.564	78.85
286.779	171.01
286.995	84.99
287.21	72.7
287.425	66.56
287.64	3.07
287.855	93.18
288.07	-72.7
288.285	105.47
288.5	76.8
288.715	76.8
288.93	46.08
289.145	7.17
289.36	58.37
289.575	76.8
289.79	140.29
290.004	50.18
290.219	99.33
290.434	-13.31
290.649	7.17
290.864	-13.31
291.079	46.08
291.294	64.51
291.509	11.26
291.724	39.94
291.938	15.36
292.153	72.7
292.368	72.7
292.583	78.85
292.798	82.94
293.012	115.71
293.227	113.66
293.442	-15.36
293.657	136.19
293.871	125.95
294.086	97.28
294.301	162.81
294.516	152.57
294.73	-1.02
294.945	-15.36
295.16	31.74
295.374	189.44
295.589	179.2
295.804	-19.46
296.018	29.7
296.233	132.09
296.447	111.61
296.662	74.75
296.877	113.66
297.091	177.15
297.306	21.5
297.52	56.32
297.735	119.81
297.949	70.65
298.164	68.61
298.378	37.89
298.593	9.22
298.807	68.61
299.022	95.23
299.236	134.14
299.451	54.27
299.665	46.08
299.88	76.8
300.094	87.04
300.309	91.13
300.523	37.89
300.737	52.22
300.952	80.89
301.166	95.23
301.381	-39.94
301.595	91.13
301.809	91.13
302.024	58.37
302.238	-39.94
302.452	130.05
302.667	123.9
302.881	82.94
303.095	50.18
303.309	70.65
303.524	23.55
303.738	21.5
303.952	9.22
304.166	152.57
304.381	-87.04
304.595	171.01
304.809	7.17
305.023	13.31
305.237	101.37
305.452	74.75
305.666	113.66
305.88	113.66
306.094	101.37
306.308	89.09
306.522	128
306.736	33.79
306.95	87.04
307.164	-21.5
307.379	3.07
307.593	115.71
307.807	107.52
308.021	148.48
308.235	37.89
308.449	-105.47
308.663	35.84
308.877	177.15
309.091	50.18
309.305	144.38
309.519	21.5
309.733	162.81
309.947	-15.36
310.161	138.24
310.374	72.7
310.588	156.67
310.802	11.26
311.016	15.36
311.23	97.28
311.444	52.22
311.658	103.42
311.872	117.76
312.085	160.77
312.299	144.38
312.513	148.48
312.727	56.32
312.941	-82.94
313.154	130.05
313.368	119.81
313.582	84.99
313.796	48.13
314.009	93.18
314.223	168.96
314.437	128
314.651	64.51
314.864	-9.22
315.078	19.46
315.292	46.08
315.505	-21.5
315.719	52.22
315.933	123.9
316.146	50.18
316.36	-54.27
316.573	162.81
316.787	128
317.001	33.79
317.214	29.7
317.428	39.94
317.641	-27.65
317.855	39.94
318.068	72.7
318.282	148.48
318.495	242.68
318.709	103.42
318.922	72.7
319.136	205.82
319.349	162.81
319.563	-15.36
319.776	113.66
319.99	-15.36
320.203	113.66
320.417	80.89
320.63	150.53
320.843	50.18
321.057	37.89
321.27	107.52
321.483	166.91
321.697	158.72
321.91	125.95
322.124	103.42
322.337	168.96
322.55	-21.5
322.763	72.7
322.977	39.94
323.19	19.46
323.403	164.86
323.617	70.65
323.83	205.82
324.043	31.74
324.256	142.33
324.469	-19.46
324.683	146.43
324.896	29.7
325.109	68.61
325.322	-15.36
325.535	152.57
325.748	166.91
325.962	64.51
326.175	58.37
326.388	37.89
326.601	191.49
326.814	37.89
327.027	-19.46
327.24	146.43
327.453	-35.84
327.666	48.13
327.879	191.49
328.092	140.29
328.305	105.47
328.518	-64.51
328.731	31.74
328.944	27.65
329.157	11.26
329.37	62.46
329.583	216.06
329.796	205.82
330.009	39.94
330.222	62.46
330.435	166.91
330.648	72.7
330.861	95.23
331.073	95.23
331.286	48.13
331.499	56.32
331.712	52.22
331.925	39.94
332.138	-5.12
332.35	140.29
332.563	11.26
332.776	158.72
332.989	9.22
333.202	52.22
333.414	80.89
333.627	64.51
333.84	29.7
334.053	78.85
334.265	70.65
334.478	113.66
334.691	25.6
334.903	132.09
335.116	-17.41
335.329	54.27
335.541	113.66
335.754	216.06
335.966	15.36
336.179	-19.46
336.392	58.37
336.604	52.22
336.817	154.62
337.029	11.26
337.242	41.98
337.454	115.71
337.667	33.79
337.88	125.95
338.092	91.13
338.305	-15.36
338.517	37.89
338.729	72.7
338.942	154.62
339.154	-15.36
339.367	-31.74
339.579	105.47
339.792	35.84
340.004	119.81
340.217	70.65
340.429	-3.07
340.641	27.65
340.854	23.55
341.066	130.05
341.278	154.62
341.491	220.16
341.703	80.89
341.915	60.42
342.128	95.23
342.34	78.85
342.552	25.6
342.764	25.6
342.977	54.27
343.189	128
343.401	84.99
343.613	-21.5
343.826	80.89
344.038	27.65
344.25	66.56
344.462	-19.46
344.674	95.23
344.886	11.26
345.099	72.7
345.311	146.43
345.523	29.7
345.735	-58.37
345.947	95.23
346.159	113.66
346.371	140.29
346.583	31.74
346.795	162.81
347.007	5.12
347.219	89.09
347.431	70.65
347.643	134.14
347.855	52.22
348.067	70.65
348.279	-17.41
348.491	44.03
348.703	148.48
348.915	44.03
349.127	91.13
349.339	66.56
349.551	111.61
349.763	97.28
349.975	27.65
350.187	132.09
350.399	80.89
350.61	19.46
350.822	111.61
351.034	46.08
351.246	54.27
351.458	60.42
351.669	166.91
351.881	68.61
352.093	171.01
352.305	84.99
352.517	68.61
352.728	76.8
352.94	87.04
353.152	128
353.363	-70.65
353.575	76.8
353.787	148.48
353.999	105.47
354.21	209.92
354.422	-33.79
354.633	117.76
354.845	48.13
355.057	76.8
355.268	48.13
355.48	179.2
355.692	58.37
355.903	121.85
356.115	-13.31
356.326	-60.42
356.538	136.19
356.749	146.43
356.961	236.54
357.172	-52.22
357.384	-56.32
357.595	248.83
357.807	56.32
358.018	29.7
358.23	107.52
358.441	191.49
358.653	105.47
358.864	134.14
359.075	-21.5
359.287	84.99
359.498	179.2
359.709	115.71
359.921	87.04
360.132	58.37
360.344	54.27
360.555	-17.41
360.766	97.28
360.977	78.85
361.189	164.86
361.4	5.12
361.611	107.52
361.823	205.82
362.034	164.86
362.245	9.22
362.456	82.94
362.667	115.71
362.879	31.74
363.09	-1.02
363.301	97.28
363.512	134.14
363.723	25.6
363.935	37.89
364.146	78.85
364.357	-27.65
364.568	78.85
364.779	-3.07
364.99	144.38
365.201	-11.26
365.412	121.85
365.623	-76.8
365.834	105.47
366.045	132.09
366.256	109.57
366.467	144.38
366.678	35.84
366.889	1.02
367.1	72.7
367.311	125.95
367.522	31.74
367.733	48.13
367.944	152.57
368.155	80.89
368.366	128
368.577	78.85
368.788	150.53
368.999	93.18
369.209	128
369.42	128
369.631	201.72
369.842	103.42
370.053	31.74
370.264	76.8
370.474	19.46
370.685	168.96
370.896	87.04
371.107	185.34
371.317	97.28
371.528	101.37
371.739	140.29
371.95	97.28
372.16	148.48
372.371	11.26
372.582	19.46
372.792	150.53
373.003	56.32
373.214	82.94
373.424	97.28
373.635	105.47
373.846	140.29
374.056	70.65
374.267	138.24
374.477	84.99
374.688	72.7
374.898	173.05
375.109	91.13
375.319	107.52
375.53	105.47
375.74	113.66
375.951	111.61
376.161	54.27
376.372	128
376.582	52.22
376.793	27.65
377.003	68.61
377.214	58.37
377.424	39.94
377.635	105.47
377.845	27.65
378.055	179.2
378.266	56.32
378.476	17.41
378.686	150.53
378.897	97.28
379.107	128
379.317	84.99
379.528	62.46
379.738	113.66
379.948	54.27
380.158	148.48
380.369	140.29
380.579	-5.12
380.789	21.5
380.999	105.47
381.21	93.18
381.42	207.87
381.63	82.94
381.84	146.43
382.05	25.6
382.261	115.71
382.471	166.91
382.681	11.26
382.891	142.33
383.101	76.8
383.311	-48.13
383.521	39.94
383.731	166.91
383.941	72.7
384.151	-3.07
384.361	113.66
384.571	97.28
384.781	107.52
384.991	162.81
385.201	158.72
385.411	154.62
385.621	123.9
385.831	68.61
386.041	119.81
386.251	50.18
386.461	115.71
386.671	109.57
386.881	58.37
387.091	70.65
387.301	109.57
387.511	95.23
387.72	115.71
387.93	154.62
388.14	-9.22
388.35	70.65
388.56	101.37
388.769	119.81
388.979	60.42
389.189	-46.08
389.399	70.65
389.609	95.23
389.818	95.23
390.028	89.09
390.238	154.62
390.447	-13.31
390.657	113.66
390.867	-7.17
391.076	-13.31
391.286	76.8
391.496	31.74
391.705	50.18
391.915	121.85
392.125	173.05
392.334	19.46
392.544	164.86
392.753	19.46
392.963	54.27
393.172	97.28
393.382	130.05
393.591	160.77
393.801	56.32
394.01	179.2
394.22	168.96
394.429	64.51
394.639	78.85
394.848	224.25
395.058	68.61
395.267	89.09
395.477	148.48
395.686	44.03
395.895	211.96
396.105	201.72
396.314	138.24
396.524	95.23
396.733	44.03
396.942	82.94
397.152	144.38
397.361	109.57
397.57	115.71
397.78	31.74
397.989	78.85
398.198	254.97
398.407	58.37
398.617	89.09
398.826	37.89
399.035	76.8
399.244	152.57
399.453	35.84
399.663	146.43
399.872	78.85
400.081	-9.22
400.29	158.72
400.499	37.89
400.708	158.72
400.917	107.52
401.127	130.05
401.336	50.18
401.545	195.58
401.754	134.14
401.963	70.65
402.172	5.12
402.381	78.85
402.59	80.89
402.799	111.61
403.008	166.91
403.217	148.48
403.426	60.42
403.635	-5.12
403.844	54.27
404.053	58.37
404.262	33.79
404.471	254.97
404.68	130.05
404.888	7.17
405.097	46.08
405.306	-1.02
405.515	72.7
405.724	-29.7
405.933	154.62
406.142	109.57
406.35	128
406.559	95.23
406.768	7.17
406.977	138.24
407.185	128
407.394	62.46
407.603	-54.27
407.812	97.28
408.02	132.09
408.229	29.7
408.438	68.61
408.646	-72.7
408.855	35.84
409.064	62.46
409.272	50.18
409.481	103.42
409.69	31.74
409.898	25.6
410.107	103.42
410.315	105.47
410.524	82.94
410.733	-19.46
410.941	48.13
411.15	82.94
411.358	132.09
411.567	41.98
411.775	56.32
411.984	105.47
412.192	115.71
412.401	11.26
412.609	152.57
412.818	224.25
413.026	148.48
413.234	89.09
413.443	23.55
413.651	-50.18
413.86	66.56
414.068	132.09
414.276	183.29
414.485	68.61
414.693	195.58
414.901	164.86
415.11	105.47
415.318	70.65
415.526	84.99
415.734	146.43
415.943	78.85
416.151	101.37
416.359	31.74
416.567	138.24
416.776	103.42
416.984	115.71
417.192	234.49
417.4	93.18
417.608	35.84
417.817	48.13
418.025	128
418.233	185.34
418.441	60.42
418.649	-7.17
418.857	111.61
419.065	64.51
419.273	66.56
419.481	144.38
419.689	-15.36
419.897	58.37
420.105	41.98
420.313	191.49
420.521	187.39
420.729	207.87
420.937	19.46
421.145	-25.6
421.353	95.23
421.561	109.57
421.769	13.31
421.977	74.75
422.185	140.29
422.393	70.65
422.601	152.57
422.809	109.57
423.017	89.09
423.224	121.85
423.432	58.37
423.64	80.89
423.848	171.01
424.056	87.04
424.263	101.37
424.471	66.56
424.679	119.81
424.887	-33.79
425.094	175.1
425.302	74.75
425.51	-1.02
425.718	150.53
425.925	93.18
426.133	13.31
426.341	261.12
426.548	37.89
426.756	97.28
426.964	82.94
427.171	31.74
427.379	82.94
427.586	64.51
427.794	148.48
428.001	123.9
428.209	97.28
428.417	222.2
428.624	175.1
428.832	125.95
429.039	119.81
429.247	130.05
429.454	91.13
429.662	230.4
429.869	175.1
430.076	160.77
430.284	175.1
430.491	224.25
430.699	148.48
430.906	257.02
431.114	199.68
431.321	76.8
431.528	103.42
431.736	216.06
431.943	199.68
432.15	254.97
432.358	162.81
432.565	232.44
432.772	31.74
432.979	216.06
433.187	56.32
433.394	222.2
433.601	84.99
433.808	216.06
434.016	283.64
434.223	220.16
434.43	171.01
434.637	226.3
434.844	259.07
435.052	244.73
435.259	248.83
435.466	259.07
435.673	279.55
435.88	287.74
436.087	293.88
436.294	259.07
436.501	310.27
436.708	187.39
436.915	261.12
437.122	386.04
437.329	285.69
437.537	353.27
437.743	347.13
437.95	406.52
438.157	383.99
438.364	287.74
438.571	336.89
438.778	379.9
438.985	427
439.192	467.96
439.399	381.95
439.606	494.58
439.813	508.92
440.02	603.13
440.227	549.88
440.433	531.45
440.64	476.15
440.847	478.2
441.054	607.22
441.261	664.57
441.467	650.23
441.674	513.02
441.881	670.71
442.088	648.18
442.294	644.09
442.501	760.82
442.708	736.24
442.914	623.61
443.121	756.72
443.328	816.12
443.534	879.6
443.741	875.51
443.948	697.33
444.154	949.23
444.361	1061.87
444.568	924.66
444.774	898.03
444.981	822.26
445.187	1149.93
445.394	1090.54
445.6	982
445.807	1178.61
446.013	1121.26
446.22	1139.69
446.426	1229.81
446.633	1332.2
446.839	1508.33
447.046	1194.99
447.252	1389.55
447.459	1348.59
447.665	1383.4
447.871	1663.97
448.078	1663.97
448.284	1539.05
448.491	1797.09
448.697	1924.07
448.903	1895.4
449.11	1915.87
449.316	1967.07
449.522	1960.93
449.728	2200.54
449.935	2094.05
450.141	2241.5
450.347	2454.49
450.553	2321.37
450.76	2460.63
450.966	2638.81
451.172	2601.94
451.378	2751.45
451.584	2816.98
451.791	2980.82
451.997	3107.79
452.203	3007.44
452.409	3288.01
452.615	3384.27
452.821	3343.31
453.027	3382.22
453.233	3810.25
453.44	3627.98
453.646	3961.8
453.852	4068.29
454.058	4244.42
454.264	4336.57
454.47	4651.96
454.676	4635.58
454.882	5053.36
455.088	4791.22
455.294	5110.71
455.5	5520.3
455.705	5860.26
455.911	5800.87
456.117	5747.62
456.323	6134.69
456.529	6054.82
456.735	6593.44
456.941	6814.62
457.147	7019.41
457.352	7412.62
457.558	7476.11
457.764	8242.05
457.97	8240
458.176	8207.23
458.381	8889.21
458.587	9038.71
458.793	9540.46
458.999	9450.35
459.204	10738.52
459.41	11019.1
459.616	11049.82
459.821	11342.67
460.027	11932.49
460.233	12622.66
460.438	12667.71
460.644	13095.74
460.85	13538.1
461.055	14091.05
461.261	14768.93
461.466	14474.02
461.672	14775.07
461.878	16409.35
462.083	16200.46
462.289	16538.37
462.494	17281.78
462.7	17347.32
462.905	17474.29
463.111	18952.93
463.316	20185.8
463.522	20163.28
463.727	20699.84
463.932	21920.43
464.138	22158
464.343	23007.9
464.549	23169.69
464.754	24969.86
464.959	25700.98
465.165	26092.15
465.37	26051.19
465.575	26065.52
465.781	27726.42
465.986	28947.01
466.191	27980.37
466.397	28207.7
466.602	27658.84
466.807	28957.25
467.012	29858.36
467.218	30167.6
467.423	30233.14
467.628	31396.38
467.833	32469.52
468.038	31879.71
468.244	31566.37
468.449	33370.63
468.654	32446.99
468.859	32205.33
469.064	32500.24
469.269	31545.89
469.474	31820.31
469.679	32643.6
469.885	31695.39
470.09	32109.08
470.295	32002.58
470.5	31668.76
470.705	31861.27
470.91	30857.77
471.115	30734.89
471.32	30974.5
471.525	30812.71
471.73	29905.46
471.935	29610.56
472.139	28885.58
472.344	28764.75
472.549	28453.45
472.754	27963.99
472.959	27241.06
473.164	26544.75
473.369	26151.54
473.574	26940
473.778	25762.42
473.983	25739.9
474.188	25090.69
474.393	24115.86
474.598	23759.51
474.802	23567
475.007	23093.92
475.212	23100.06
475.417	22121.13
475.621	21459.64
475.826	21461.69
476.031	21299.9
476.235	20609.73
476.44	20593.35
476.645	19890.9
476.849	19882.7
477.054	19575.51
477.259	18926.3
477.463	18862.82
477.668	18320.1
477.872	18535.14
478.077	18092.78
478.282	17400.57
478.486	17261.3
478.691	17036.03
478.895	17185.53
479.1	17072.89
479.304	16761.6
479.509	15870.73
479.713	16595.71
479.918	16048.91
480.122	15596.31
480.326	16079.63
480.531	15907.6
480.735	15594.26
480.94	15330.07
481.144	15895.31
481.348	14891.8
481.553	15192.86
481.757	14754.59
481.961	14908.19
482.166	15133.47
482.37	14680.86
482.574	14334.76
482.778	14426.92
482.983	14881.56
483.187	14318.37
483.391	14279.46
483.595	13814.57
483.8	13648.69
484.004	13939.5
484.208	13890.35
484.412	13570.86
484.616	13439.79
484.821	13554.48
485.025	12962.62
485.229	12884.8
485.433	12909.37
485.637	12688.19
485.841	12540.74
486.045	12018.5
486.249	12174.15
486.453	12149.57
486.657	11742.03
486.861	11651.92
487.065	11322.2
487.269	11475.79
487.473	10892.12
487.677	11010.9
487.881	11037.53
488.085	10455.9
488.289	10416.99
488.493	10109.8
488.697	10265.44
488.901	10097.51
489.105	9624.43
489.309	9575.28
489.512	9638.76
489.716	9286.51
489.92	9184.12
490.124	8823.67
490.328	8979.32
490.531	8792.95
490.735	8442.75
490.939	8315.78
491.143	8113.03
491.346	8088.45
491.55	8135.56
491.754	7895.94
491.958	7701.39
492.161	7539.6
492.365	7435.15
492.569	7328.66
492.772	7226.26
492.976	7205.78
493.18	6970.26
493.383	7160.72
493.587	6880.15
493.79	6874.01
493.994	6634.39
494.197	6554.52
494.401	6632.35
494.605	6585.24
494.808	6564.76
495.012	6362.01
495.215	6394.78
495.419	6415.26
495.622	6267.81
495.825	6333.34
496.029	6050.72
496.232	6417.31
496.436	6163.36
496.639	6353.82
496.843	6159.27
497.046	6038.44
497.249	6171.55
497.453	6120.35
497.656	6204.32
497.859	6075.3
498.063	6204.32
498.266	6292.38
498.469	5931.94
498.673	6269.86
498.876	6321.06
499.079	6308.77
499.282	6312.86
499.485	6462.37
499.689	6511.52
499.892	6345.63
500.095	6398.88
500.298	6476.7
500.501	6409.12
500.705	6525.85
500.908	6470.56
501.111	6577.05
501.314	6820.76
501.517	6859.67
501.72	6726.55
501.923	6710.17
502.126	6935.45
502.329	7173.01
502.532	7218.07
502.735	7074.71
502.938	7410.57
503.141	7338.9
503.344	7404.43
503.547	7820.17
503.75	7578.51
503.953	7656.33
504.156	7926.66
504.359	8053.64
504.562	8012.68
504.765	8117.12
504.968	8278.91
505.17	8500.09
505.373	8559.49
505.576	8776.57
505.779	8764.28
505.982	9069.43
506.185	9216.88
506.387	9116.53
506.59	9454.45
506.793	9524.08
506.996	9769.83
507.198	10146.66
507.401	10187.62
507.604	10488.67
507.807	10642.27
508.009	10695.52
508.212	10816.35
508.415	11344.72
508.617	11586.38
508.82	11668.3
509.022	11768.65
509.225	12172.1
509.428	12538.69
509.63	12841.79
509.833	12852.03
510.035	13447.99
510.238	13341.49
510.44	13824.81
510.643	14166.82
510.845	14576.42
511.048	14500.64
511.25	14965.53
511.453	15117.08
511.655	15913.74
511.858	16016.14
512.06	16714.5
512.262	16784.13
512.465	17152.76
512.667	17562.36
512.87	17674.99
513.072	18584.29
513.274	18926.3
513.477	19372.76
513.679	19677.91
513.881	20181.71
514.084	20812.48
514.286	20613.83
514.488	21336.76
514.69	21994.16
514.893	22745.76
515.095	23050.91
515.297	23693.97
515.499	23794.32
515.701	24341.13
515.904	24826.5
516.106	25750.14
516.308	26042.99
516.51	26856.04
516.712	27146.85
516.914	27474.52
517.116	28500.56
517.318	28633.68
517.52	29137.48
517.722	29575.74
517.925	30413.36
518.127	31074.85
518.329	31183.4
518.531	31412.77
518.733	32967.18
518.935	33200.65
519.136	33473.03
519.338	34404.85
519.54	34511.35
519.742	35639.78
519.944	35989.98
520.146	36336.09
520.348	36878.8
520.55	37503.43
520.752	37970.36
520.954	38603.19
521.155	38289.85
521.357	39489.96
521.559	39745.95
521.761	40497.56
521.963	40792.47
522.164	40868.24
522.366	41259.4
522.568	42187.13
522.77	42185.08
522.971	42590.58
523.173	42639.73
523.375	43059.57
523.576	43135.34
523.778	43194.73
523.98	43553.13
524.181	44179.81
524.383	44190.05
524.584	45103.44
524.786	44620.12
524.988	44573.02
525.189	44902.74
525.391	44781.91
525.592	45220.17
525.794	44962.13
525.995	45115.73
526.197	45125.97
526.398	45033.81
526.6	45109.58
526.801	44904.79
527.003	45060.43
527.204	44581.21
527.406	45027.66
527.607	44233.05
527.808	44372.31
528.01	43473.26
528.211	43809.12
528.412	43888.99
528.614	43579.75
528.815	43037.04
529.016	43684.2
529.218	42611.06
529.419	42533.24
529.62	41341.32
529.822	41537.93
530.023	41079.18
530.224	41118.09
530.425	40612.24
530.626	39788.96
530.828	39248.3
531.029	39678.37
531.23	38341.05
531.431	38683.06
531.632	38252.98
531.833	38154.68
532.035	37329.35
532.236	36813.26
532.437	36987.34
532.638	35740.13
532.839	35463.65
533.04	35291.62
533.241	34785.77
533.442	34779.63
533.643	34058.74
533.844	33374.72
534.045	33260.04
534.246	32428.56
534.447	32109.08
534.648	31754.78
534.849	31388.19
535.05	30999.08
535.251	30308.91
535.451	30126.64
535.652	29778.49
535.853	29487.68
536.054	29061.7
536.255	28580.43
536.456	28109.4
536.657	28045.91
536.857	27220.58
537.058	27003.49
537.259	26940
537.46	26550.89
537.66	26206.83
537.861	25893.49
538.062	25475.71
538.263	25176.7
538.463	24498.83
538.664	24740.49
538.865	24556.17
539.065	24119.95
539.266	23397.02
539.466	23470.75
539.667	22833.83
539.868	23118.5
540.068	22508.2
540.269	22162.09
540.469	22284.97
540.67	21955.25
540.87	21727.92
541.071	21023.42
541.271	21142.21
541.472	20730.56
541.672	20679.36
541.873	20327.11
542.073	19917.52
542.274	19925.71
542.474	19782.35
542.675	19464.92
542.875	19559.13
543.075	18997.98
543.276	18543.33
543.476	18698.98
543.676	18260.71
543.877	18193.13
544.077	17908.46
544.277	17758.96
544.478	17724.15
544.678	17322.74
544.878	17056.51
545.078	17031.93
545.279	16642.82
545.479	16392.97
545.679	16374.53
545.879	16063.24
546.079	16044.81
546.28	15907.6
546.48	15526.68
546.68	15633.17
546.88	15463.19
547.08	15278.87
547.28	14854.94
547.48	14613.28
547.68	14557.99
547.88	14512.93
548.081	14433.06
548.281	13916.97
548.481	13826.86
548.681	13628.21
548.881	13513.52
549.081	13439.79
549.28	13181.75
549.48	12960.57
549.68	12884.8
549.88	12921.66
550.08	12505.92
550.28	12526.4
550.48	12395.33
550.68	12073.8
550.88	11862.86
551.08	11608.91
551.279	11778.89
551.479	11213.65
551.679	11524.94
551.879	11021.14
552.079	10812.25
552.278	10685.28
552.478	10693.47
552.678	10521.44
552.878	10611.55
553.077	10072.93
553.277	9884.52
553.477	10054.5
553.676	9761.64
553.876	9540.46
554.076	9325.43
554.275	9118.58
554.475	9147.25
554.674	8905.59
554.874	8692.6
555.074	8534.91
555.273	8702.84
555.473	8586.11
555.672	8158.08
555.872	8051.59
556.071	8037.25
556.271	7916.42
556.47	7627.66
556.67	7680.91
556.869	7478.16
557.068	7291.79
557.268	7213.97
557.467	7234.45
557.667	7097.24
557.866	6984.6
558.065	6769.56
558.265	6558.62
558.464	6701.98
558.663	6517.66
558.863	6341.54
559.062	6302.62
559.261	6208.42
559.461	6269.86
559.66	5972.9
559.859	5860.26
560.058	5729.19
560.258	5589.93
560.457	5559.21
560.656	5647.27
560.855	5383.09
561.054	5450.67
561.253	5376.94
561.453	5139.38
561.652	5143.47
561.851	5008.31
562.05	4789.17
562.249	4729.78
562.448	4811.7
562.647	4629.43
562.846	4520.89
563.045	4496.32
563.244	4549.56
563.443	4615.1
563.642	4291.52
563.841	4340.67
564.04	4279.23
564.239	4105.15
564.438	4164.54
564.637	4082.63
564.836	4019.14
565.035	4004.8
565.234	3918.79
565.432	3595.21
565.631	3939.27
565.83	3742.66
566.029	3613.64
566.228	3521.48
566.427	3625.93
566.625	3486.67
566.824	3601.35
567.023	3621.83
567.222	3369.93
567.42	3236.81
567.619	3214.29
567.818	3296.21
568.016	3384.27
568.215	3171.28
568.414	2915.28
568.612	3009.49
568.811	2907.09
569.01	2993.11
569.208	2747.35
569.407	2831.32
569.605	2915.28
569.804	2737.11
570.002	2806.74
570.201	2571.22
570.4	2790.36
570.598	2532.31
570.797	2651.1
570.995	2511.83
571.193	2450.39
571.392	2470.87
571.59	2247.65
571.789	2487.26
571.987	2362.33
572.186	2450.39
572.384	2321.37
572.582	2186.21
572.781	2350.04
572.979	1979.36
573.177	2108.38
573.376	2178.01
573.574	2159.58
573.772	1967.07
573.971	1995.75
574.169	1960.93
574.367	1965.03
574.565	1926.11
574.763	1926.11
574.962	1887.2
575.16	1790.95
575.358	1727.46
575.556	1711.08
575.754	1752.04
575.952	1760.23
576.151	1754.09
576.349	1713.13
576.547	1645.54
576.745	1674.21
576.943	1606.63
577.141	1582.06
577.339	1475.56
577.537	1582.06
577.735	1512.42
577.933	1520.62
578.131	1395.69
578.329	1608.68
578.527	1453.03
578.725	1453.03
578.923	1285.1
579.121	1444.84
579.319	1143.79
579.516	1328.11
579.714	1477.61
579.912	1326.06
580.11	1160.17
580.308	1221.61
580.506	1160.17
580.704	1018.86
580.901	998.38
581.099	1278.96
581.297	1186.8
581.495	1156.08
581.692	1137.65
581.89	1217.52
582.088	1086.45
582.285	1078.26
582.483	1043.44
582.681	1137.65
582.878	1053.68
583.076	1047.54
583.274	975.86
583.471	1166.32
583.669	891.89
583.866	949.23
584.064	895.99
584.262	910.32
584.459	822.26
584.657	912.37
584.854	973.81
585.052	879.6
585.249	840.69
585.447	818.16
585.644	797.68
585.841	871.41
586.039	861.17
586.236	924.66
586.434	769.01
586.631	742.39
586.828	728.05
587.026	818.16
587.223	674.81
587.42	687.09
587.618	699.38
587.815	795.64
588.012	783.35
588.21	662.52
588.407	789.49
588.604	793.59
588.801	642.04
588.999	721.91
589.196	799.73
589.393	611.32
589.59	752.63
589.787	766.96
589.984	730.1
590.182	717.81
590.379	531.45
590.576	576.5
590.773	629.75
590.97	652.28
591.167	705.53
591.364	625.65
591.561	664.57
591.758	799.73
591.955	717.81
592.152	642.04
592.349	596.98
592.546	685.05
592.743	515.06
592.94	678.9
593.137	654.33
593.334	625.65
593.531	648.18
593.727	654.33
593.924	584.7
594.121	584.7
594.318	588.79
594.515	639.99
594.712	695.29
594.908	699.38
595.105	465.91
595.302	685.05
595.499	578.55
595.696	787.44
595.892	676.85
596.089	775.16
596.286	738.29
596.482	814.07
596.679	746.48
596.876	773.11
597.072	850.93
597.269	801.78
597.466	766.96
597.662	801.78
597.859	850.93
598.055	934.9
598.252	967.67
598.448	1014.77
598.645	1035.25
598.841	965.62
599.038	1000.43
599.234	1125.36
599.431	1121.26
599.627	1211.37
599.824	1303.53
600.02	1209.33
600.217	1240.05
600.413	1387.5
600.609	1281
600.806	1678.31
601.002	1424.36
601.198	1475.56
601.395	1651.69
601.591	1772.52
601.787	1743.85
601.984	1819.62
602.18	1815.52
602.376	1772.52
602.572	2005.99
602.769	2038.75
602.965	2198.49
603.161	2274.27
603.357	2216.93
603.553	2417.63
603.75	2329.56
603.946	2391
604.142	2608.09
604.338	2769.88
604.534	2595.8
604.73	2763.73
604.926	2806.74
605.122	3132.37
605.318	3079.12
605.514	3230.67
605.71	3021.78
605.906	3322.83
606.102	3533.77
606.298	3707.85
606.494	3726.28
606.69	3750.85
606.886	3802.05
607.082	3808.2
607.278	4017.09
607.474	4201.41
607.67	4223.94
607.866	4215.74
608.062	4551.61
608.257	4854.71
608.453	4561.85
608.649	4856.76
608.845	4830.13
609.041	5079.99
609.236	5239.73
609.432	5252.02
609.628	5505.96
609.824	5718.95
610.019	5821.35
610.215	5968.8
610.411	6226.85
610.606	6349.73
610.802	6312.86
610.998	6720.41
611.193	6882.2
611.389	6853.53
611.584	7256.98
611.78	7422.86
611.976	7551.88
612.171	7865.22
612.367	7932.81
612.562	8115.08
612.758	8340.35
612.953	8461.18
613.149	8676.22
613.344	9059.19
613.539	9087.86
613.735	9489.26
613.93	9651.05
614.126	9960.3
614.321	10261.35
614.517	10589.02
614.712	10652.51
614.907	10877.79
615.103	11217.75
615.298	11395.92
615.493	11899.72
615.688	11987.79
615.884	12544.83
616.079	12540.74
616.274	12960.57
616.47	13261.62
616.665	13853.48
616.86	13810.48
617.055	14465.83
617.25	14785.31
617.445	15221.53
617.641	15205.14
617.836	15893.26
618.031	15993.61
618.226	16616.19
618.421	16904.96
618.616	17361.66
618.811	17670.9
619.006	18264.81
619.201	18420.45
619.396	18739.94
619.591	18969.31
619.786	19868.37
619.981	20185.8
620.176	20845.25
620.371	20716.23
620.566	21390.01
620.761	21738.16
620.956	22303.4
621.151	22753.96
621.346	23196.32
621.541	23333.53
621.735	24005.27
621.93	24533.64
622.125	24947.33
622.32	25123.46
622.515	25813.62
622.709	25971.32
622.904	26712.68
623.099	26815.08
623.294	27775.58
623.488	28076.63
623.683	28516.94
623.878	28828.23
624.072	29540.93
624.267	29964.85
624.462	30163.51
624.656	30417.46
624.851	31414.82
625.046	31679
625.24	31961.62
625.435	32191
625.629	32961.03
625.824	33214.98
626.018	33763.84
626.213	33632.77
626.407	34062.84
626.602	34570.74
626.796	35062.25
626.991	35656.16
627.185	35060.2
627.38	35682.78
627.574	35961.31
627.768	36008.41
627.963	36178.39
628.157	36182.49
628.352	36518.35
628.546	35787.23
628.74	36352.47
628.935	36252.12
629.129	36387.28
629.323	35553.76
629.517	35660.26
629.712	35256.81
629.906	35310.05
630.1	34425.33
630.294	34488.82
630.489	33804.8
630.683	33554.94
630.877	32717.32
631.071	32578.06
631.265	32053.78
631.459	31269.41
631.653	30409.26
631.848	29884.98
632.042	28914.25
632.236	28430.93
632.43	27312.74
632.624	26739.3
632.818	25815.67
633.012	25014.91
633.206	24072.85
633.4	23507.61
633.594	22778.53
633.788	21869.23
633.982	21197.5
634.176	20613.83
634.369	19577.56
634.563	19135.2
634.757	17969.9
634.951	17582.84
635.145	17062.65
635.339	16118.54
635.533	15571.73
635.726	14813.98
635.92	14197.54
636.114	13656.88
636.308	13169.46
636.501	12495.68
636.695	12143.43
636.889	11637.58
637.083	11336.53
637.276	10693.47
637.47	10161
637.664	9757.55
637.857	9345.91
638.051	9067.38
638.244	8514.43
638.438	8379.26
638.632	8014.73
638.825	7664.52
639.019	7666.57
639.212	7197.59
639.406	6861.72
639.599	6652.83
639.793	6419.36
639.986	6183.84
640.18	5917.61
640.373	5618.6
640.567	5413.81
640.76	5147.57
640.954	4969.4
641.147	4746.17
641.34	4596.67
641.534	4436.92
641.727	4334.53
641.92	4156.35
642.114	4019.14
642.307	3840.97
642.5	3748.81
642.694	3480.52
642.887	3445.71
643.08	3283.92
643.273	3290.06
643.467	3091.41
643.66	2857.94
643.853	2806.74
644.046	2696.15
644.239	2505.69
644.432	2507.74
644.626	2309.08
644.819	2358.24
645.012	2253.79
645.205	2143.2
645.398	2151.39
645.591	2038.75
645.784	1879.01
645.977	1696.74
646.17	1739.75
646.363	1657.83
646.556	1498.09
646.749	1475.56
646.942	1506.28
647.135	1483.75
647.328	1457.13
647.521	1401.83
647.714	1278.96
647.907	1256.43
648.099	1182.7
648.292	1135.6
648.485	1154.03
648.678	1106.93
648.871	1018.86
649.064	1039.34
649.256	928.75
649.449	877.55
649.642	830.45
649.835	818.16
650.027	799.73
650.22	865.27
650.413	689.14
650.605	885.75
650.798	703.48
650.991	734.2
651.183	738.29
651.376	678.9
651.568	644.09
651.761	648.18
651.954	642.04
652.146	564.22
652.339	648.18
652.531	578.55
652.724	506.87
652.916	523.26
653.109	431.1
653.301	527.35
653.494	535.54
653.686	545.78
653.879	558.07
654.071	535.54
654.263	400.38
654.456	527.35
654.648	465.91
654.84	371.71
655.033	439.29
655.225	556.02
655.417	273.4
655.61	486.39
655.802	357.37
655.994	486.39
656.186	300.03
656.379	453.63
656.571	257.02
656.763	304.12
656.955	226.3
657.148	375.8
657.34	349.18
657.532	306.17
657.724	273.4
657.916	410.62
658.108	396.28
658.3	263.16
658.492	211.96
658.684	240.64
658.876	345.08
659.068	117.76
659.26	185.34
659.452	117.76
659.644	248.83
659.836	386.04
660.028	205.82
660.22	95.23
660.412	230.4
660.604	203.77
660.796	224.25
660.988	238.59
661.18	205.82
661.372	326.65
661.563	119.81
661.755	220.16
661.947	72.7
662.139	168.96
662.331	283.64
662.522	181.25
662.714	177.15
662.906	156.67
663.097	201.72
663.289	183.29
663.481	121.85
663.673	240.64
663.864	171.01
664.056	240.64
664.247	125.95
664.439	340.99
664.631	293.88
664.822	189.44
665.014	297.98
665.205	80.89
665.397	101.37
665.588	203.77
665.78	152.57
665.971	232.44
666.163	146.43
666.354	142.33
666.546	109.57
666.737	162.81
666.929	76.8
667.12	248.83
667.311	248.83
667.503	152.57
667.694	154.62
667.885	211.96
668.077	150.53
668.268	37.89
668.459	158.72
668.651	224.25
668.842	156.67
669.033	93.18
669.224	146.43
669.416	326.65
669.607	207.87
669.798	105.47
669.989	240.64
670.18	115.71
670.371	203.77
670.563	91.13
670.754	285.69
670.945	218.11
671.136	218.11
671.327	175.1
671.518	205.82
671.709	306.17
671.9	179.2
672.091	336.89
672.282	195.58
672.473	113.66
672.664	111.61
672.855	177.15
673.046	244.73
673.237	199.68
673.428	183.29
673.619	146.43
673.809	138.24
674	252.92
674.191	181.25
674.382	138.24
674.573	183.29
674.764	220.16
674.954	218.11
675.145	101.37
675.336	162.81
675.527	267.26
675.717	103.42
675.908	144.38
676.099	70.65
676.289	214.01
676.48	97.28
676.671	150.53
676.861	156.67
677.052	250.88
677.243	168.96
677.433	140.29
677.624	261.12
677.814	201.72
678.005	130.05
678.195	222.2
678.386	181.25
678.576	261.12
678.767	123.9
678.957	279.55
679.148	261.12
679.338	306.17
679.529	205.82
679.719	216.06
679.909	234.49
680.1	248.83
680.29	269.31
680.481	146.43
680.671	322.56
680.861	211.96
681.052	295.93
681.242	95.23
681.432	220.16
681.622	175.1
681.813	101.37
682.003	189.44
682.193	117.76
682.383	220.16
682.573	150.53
682.764	214.01
682.954	257.02
683.144	386.04
683.334	156.67
683.524	162.81
683.714	244.73
683.904	220.16
684.094	281.6
684.284	224.25
684.474	279.55
684.664	330.75
684.854	211.96
685.044	205.82
685.234	244.73
685.424	216.06
685.614	177.15
685.804	345.08
685.994	271.36
686.184	263.16
686.374	318.46
686.564	275.45
686.753	189.44
686.943	111.61
687.133	183.29
687.323	209.92
687.513	283.64
687.702	195.58
687.892	289.79
688.082	332.79
688.272	324.6
688.461	230.4
688.651	375.8
688.841	250.88
689.03	191.49
689.22	232.44
689.41	295.93
689.599	281.6
689.789	191.49
689.979	347.13
690.168	328.7
690.358	279.55
690.547	201.72
690.737	275.45
690.926	267.26
691.116	281.6
691.305	312.32
691.495	314.36
691.684	189.44
691.874	207.87
692.063	205.82
692.252	261.12
692.442	310.27
692.631	207.87
692.82	195.58
693.01	195.58
693.199	187.39
693.388	320.51
693.578	250.88
693.767	267.26
693.956	248.83
694.146	187.39
694.335	279.55
694.524	228.35
694.713	310.27
694.902	193.53
695.092	166.91
695.281	343.03
695.47	211.96
695.659	168.96
695.848	242.68
696.037	216.06
696.226	322.56
696.415	230.4
696.604	355.32
696.793	318.46
696.982	166.91
697.171	332.79
697.36	193.53
697.549	238.59
697.738	111.61
697.927	228.35
698.116	130.05
698.305	250.88
698.494	199.68
698.683	150.53
698.872	343.03
699.061	199.68
699.25	220.16
699.438	181.25
699.627	177.15
699.816	314.36
700.005	154.62
700.193	136.19
700.382	207.87
700.571	179.2
700.76	275.45
700.948	287.74
701.137	295.93
701.326	185.34
701.514	109.57
701.703	275.45
701.892	297.98
702.08	340.99
702.269	261.12
702.457	246.78
702.646	230.4
702.834	336.89
703.023	218.11
703.212	228.35
703.4	181.25
703.589	300.03
703.777	93.18
703.965	164.86
704.154	240.64
704.342	134.14
704.531	201.72
704.719	162.81
704.907	271.36
705.096	152.57
705.284	156.67
705.472	291.84
705.661	265.21
705.849	277.5
706.037	340.99
706.226	232.44
706.414	285.69
706.602	173.05
706.79	289.79
706.979	193.53
707.167	195.58
707.355	117.76
707.543	244.73
707.731	271.36
707.919	201.72
708.107	166.91
708.296	150.53
708.484	214.01
708.672	205.82
708.86	224.25
709.048	236.54
709.236	183.29
709.424	318.46
709.612	300.03
709.8	236.54
709.988	254.97
710.176	261.12
710.364	289.79
710.551	220.16
710.739	195.58
710.927	216.06
711.115	203.77
711.303	295.93
711.491	273.4
711.679	265.21
711.866	275.45
712.054	191.49
712.242	191.49
712.43	283.64
712.617	254.97
712.805	287.74
712.993	187.39
713.181	134.14
713.368	300.03
713.556	240.64
713.744	242.68
713.931	345.08
714.119	265.21
714.306	181.25
714.494	214.01
714.682	244.73
714.869	140.29
715.057	257.02
715.244	101.37
715.432	238.59
715.619	158.72
715.807	211.96
715.994	205.82
716.182	240.64
716.369	343.03
716.556	289.79
716.744	87.04
716.931	154.62
717.119	283.64
717.306	220.16
717.493	300.03
717.681	254.97
717.868	265.21
718.055	295.93
718.242	199.68
718.43	293.88
718.617	306.17
718.804	216.06
718.991	312.32
719.179	230.4
719.366	302.08
719.553	295.93
719.74	175.1
719.927	185.34
720.114	304.12
720.301	181.25
720.488	160.77
720.676	197.63
720.863	306.17
721.05	326.65
721.237	326.65
721.424	316.41
721.611	265.21
721.798	158.72
721.985	162.81
722.172	254.97
722.358	281.6
722.545	326.65
722.732	324.6
722.919	318.46
723.106	289.79
723.293	246.78
723.48	263.16
723.667	316.41
723.853	316.41
724.04	322.56
724.227	363.51
724.414	222.2
724.6	281.6
724.787	418.81
724.974	365.56
725.161	273.4
725.347	185.34
725.534	289.79
725.72	263.16
725.907	412.67
726.094	400.38
726.28	250.88
726.467	259.07
726.653	207.87
726.84	320.51
727.027	427
727.213	275.45
727.4	310.27
727.586	293.88
727.773	254.97
727.959	216.06
728.145	275.45
728.332	293.88
728.518	324.6
728.705	334.84
728.891	252.92
729.077	281.6
729.264	230.4
729.45	308.22
729.636	269.31
729.823	377.85
730.009	429.05
730.195	338.94
730.382	420.86
730.568	324.6
730.754	259.07
730.94	218.11
731.126	338.94
731.313	310.27
731.499	328.7
731.685	308.22
731.871	257.02
732.057	281.6
732.243	265.21
732.429	351.23
732.615	381.95
732.801	310.27
732.987	259.07
733.173	302.08
733.359	338.94
733.545	361.47
733.731	334.84
733.917	379.9
734.103	332.79
734.289	371.71
734.475	347.13
734.661	439.29
734.847	295.93
735.033	332.79
735.219	375.8
735.404	293.88
735.59	271.36
735.776	168.96
735.962	277.5
736.148	320.51
736.333	422.91
736.519	289.79
736.705	209.92
736.89	279.55
737.076	347.13
737.262	293.88
737.447	263.16
737.633	359.42
737.819	412.67
738.004	318.46
738.19	300.03
738.375	285.69
738.561	334.84
738.747	408.57
738.932	283.64
739.118	459.77
739.303	328.7
739.489	375.8
739.674	293.88
739.859	220.16
740.045	300.03
740.23	306.17
740.416	150.53
740.601	297.98
740.786	318.46
740.972	261.12
741.157	283.64
741.342	197.63
741.528	263.16
741.713	383.99
741.898	322.56
742.084	320.51
742.269	269.31
742.454	338.94
742.639	400.38
742.824	340.99
743.01	334.84
743.195	410.62
743.38	203.77
743.565	398.33
743.75	332.79
743.935	363.51
744.12	322.56
744.305	205.82
744.49	349.18
744.675	314.36
744.86	365.56
745.045	269.31
745.23	314.36
745.415	283.64
745.6	502.78
745.785	211.96
745.97	381.95
746.155	308.22
746.34	435.19
746.525	281.6
746.71	408.57
746.895	191.49
747.079	244.73
747.264	334.84
747.449	336.89
747.634	353.27
747.819	252.92
748.003	248.83
748.188	144.38
748.373	373.75
748.557	338.94
748.742	289.79
748.927	261.12
749.111	261.12
749.296	240.64
749.481	324.6
749.665	236.54
749.85	261.12
750.034	302.08
750.219	365.56
750.404	275.45
750.588	306.17
750.773	205.82
750.957	377.85
751.141	291.84
751.326	302.08
751.51	162.81
751.695	349.18
751.879	273.4
752.064	281.6
752.248	187.39
752.432	379.9
752.617	273.4
752.801	269.31
752.985	238.59
753.17	275.45
753.354	257.02
753.538	228.35
753.722	138.24
753.907	252.92
754.091	150.53
754.275	214.01
754.459	201.72
754.643	234.49
754.828	228.35
755.012	306.17
755.196	97.28
755.38	240.64
755.564	166.91
755.748	244.73
755.932	248.83
756.116	308.22
756.3	185.34
756.484	183.29
756.668	316.41
756.852	97.28
757.036	183.29
757.22	248.83
757.404	138.24
757.588	123.9
757.772	273.4
757.956	226.3
758.14	310.27
758.323	177.15
758.507	195.58
758.691	142.33
758.875	279.55
759.059	254.97
759.242	207.87
759.426	230.4
759.61	265.21
759.794	183.29
759.977	257.02
760.161	494.58
760.345	183.29
760.528	326.65
760.712	109.57
760.895	189.44
761.079	162.81
761.263	111.61
761.446	199.68
761.63	146.43
761.813	295.93
761.997	128
762.18	156.67
762.364	277.5
762.547	39.94
762.731	177.15
762.914	82.94
763.098	125.95
763.281	130.05
763.464	197.63
763.648	205.82
763.831	97.28
764.015	72.7
764.198	197.63
764.381	144.38
764.564	123.9
764.748	216.06
764.931	195.58
765.114	107.52
765.297	207.87
765.481	48.13
765.664	99.33
765.847	142.33
766.03	265.21
766.213	123.9
766.397	171.01
766.58	121.85
766.763	134.14
766.946	130.05
767.129	97.28
767.312	46.08
767.495	134.14
767.678	82.94
767.861	265.21
768.044	115.71
768.227	214.01
768.41	117.76
768.593	207.87
768.776	144.38
768.959	95.23
769.142	246.78
769.324	66.56
769.507	99.33
769.69	119.81
769.873	93.18
770.056	246.78
770.239	150.53
770.421	244.73
770.604	166.91
770.787	158.72
770.97	109.57
771.152	109.57
771.335	214.01
771.518	150.53
771.7	220.16
771.883	220.16
772.066	109.57
772.248	156.67
772.431	164.86
772.613	179.2
772.796	105.47
772.978	175.1
773.161	209.92
773.343	60.42
773.526	154.62
773.708	33.79
773.891	46.08
774.073	80.89
774.256	89.09
774.438	252.92
774.621	84.99
774.803	134.14
774.985	60.42
775.168	142.33
775.35	144.38
775.532	125.95
775.715	70.65
775.897	125.95
776.079	140.29
776.261	187.39
776.444	156.67
776.626	80.89
776.808	72.7
776.99	23.55
777.173	121.85
777.355	99.33
777.537	62.46
777.719	140.29
777.901	121.85
778.083	142.33
778.265	70.65
778.447	140.29
778.629	41.98
778.811	207.87
778.993	109.57
779.175	240.64
779.357	64.51
779.539	41.98
779.721	130.05
779.903	160.77
780.085	164.86
780.267	121.85
780.449	140.29
780.631	191.49
780.812	193.53
780.994	62.46
781.176	72.7
781.358	25.6
781.54	48.13
781.721	152.57
781.903	160.77
782.085	1.02
782.267	203.77
782.448	60.42
782.63	87.04
782.812	187.39
782.993	111.61
783.175	181.25
783.357	31.74
783.538	78.85
783.72	54.27
783.901	101.37
784.083	148.48
784.264	130.05
784.446	-1.02
784.627	5.12
784.809	115.71
784.99	-35.84
785.172	181.25
785.353	60.42
785.535	82.94
785.716	80.89
785.897	9.22
786.079	121.85
786.26	58.37
786.441	154.62
786.623	64.51
786.804	1.02
786.985	-48.13
787.167	207.87
787.348	93.18
787.529	56.32
787.71	128
787.891	74.75
788.073	107.52
788.254	13.31
788.435	125.95
788.616	7.17
788.797	-66.56
788.978	29.7
789.159	-19.46
789.34	52.22
789.522	48.13
789.703	17.41
789.884	46.08
790.065	31.74
790.246	199.68
790.427	54.27
790.607	226.3
790.788	109.57
790.969	19.46
791.15	95.23
791.331	48.13
791.512	29.7
791.693	29.7
791.874	89.09
792.054	326.65
792.235	138.24
792.416	21.5
792.597	-13.31
792.778	117.76
792.958	140.29
793.139	80.89
793.32	21.5
793.5	11.26
793.681	164.86
793.862	101.37
794.042	46.08
794.223	19.46
794.404	19.46
794.584	-19.46
794.765	54.27
794.945	41.98
795.126	130.05
795.306	101.37
795.487	50.18
795.667	11.26
795.848	97.28
796.028	27.65
796.209	56.32
796.389	99.33
796.57	70.65
796.75	27.65
796.93	-27.65
797.111	-60.42
797.291	46.08
797.471	97.28
797.652	46.08
797.832	17.41
798.012	130.05
798.192	21.5
798.373	-33.79
798.553	103.42
798.733	25.6
798.913	21.5
799.093	23.55
799.274	95.23
799.454	148.48
799.634	142.33
799.814	76.8
799.994	103.42
800.174	68.61
800.354	91.13
800.534	-13.31
800.714	109.57
800.894	19.46
801.074	-105.47
801.254	15.36
801.434	121.85
801.614	125.95
801.794	58.37
801.974	1879.01
802.154	46.08
802.334	128
802.514	25.6
802.693	56.32
802.873	7.17
803.053	191.49
803.233	72.7
803.413	-17.41
803.592	82.94
803.772	-72.7
803.952	72.7
804.131	-11.26
804.311	99.33
804.491	154.62
804.67	-48.13
804.85	-7.17
805.03	41.98
805.209	117.76
805.389	-50.18
805.568	60.42
805.748	-60.42
805.928	-29.7
806.107	123.9
806.287	115.71
806.466	58.37
806.646	29.7
806.825	52.22
807.004	23.55
807.184	50.18
807.363	72.7
807.543	121.85
807.722	-21.5
807.901	121.85
808.081	91.13
808.26	-78.85
808.439	21.5
808.619	-35.84
808.798	-9.22
808.977	56.32
809.156	177.15
809.336	74.75
809.515	117.76
809.694	-21.5
809.873	48.13
810.052	54.27
810.231	140.29
810.411	60.42
810.59	97.28
810.769	23.55
810.948	128
811.127	-62.46
811.306	46.08
811.485	56.32
811.664	160.77
811.843	111.61
812.022	-7.17
812.201	103.42
812.38	25.6
812.559	3.07
812.737	97.28
812.916	-31.74
813.095	-27.65
813.274	44.03
813.453	-7.17
813.632	37.89
813.811	125.95
813.989	-21.5
814.168	66.56
814.347	-60.42
814.526	23.55
814.704	72.7
814.883	136.19
815.062	35.84
815.24	115.71
815.419	11.26
815.598	121.85
815.776	7.17
815.955	52.22
816.133	-109.57
816.312	82.94
816.49	-35.84
816.669	39.94
816.847	50.18
817.026	80.89
817.204	5.12
817.383	15.36
817.561	21.5
817.74	64.51
817.918	29.7
818.097	-27.65
818.275	3.07
818.453	15.36
818.632	93.18
818.81	44.03
818.988	-19.46
819.167	-29.7
819.345	-23.55
819.523	11.26
819.701	64.51
819.879	33.79
820.058	46.08
820.236	78.85
820.414	56.32
820.592	-3.07
820.77	33.79
820.948	29.7
821.127	-35.84
821.305	109.57
821.483	19.46
821.661	68.61
821.839	25.6
822.017	-17.41
822.195	-9.22
822.373	130.05
822.551	-23.55
822.729	130.05
822.907	60.42
823.085	103.42
823.262	97.28
823.44	48.13
823.618	-33.79
823.796	1.02
823.974	19.46
824.152	-29.7
824.329	76.8
824.507	35.84
824.685	33.79
824.863	52.22
825.04	50.18
825.218	109.57
825.396	29.7
825.574	13.31
825.751	27.65
825.929	87.04
826.107	-50.18
826.284	1.02
826.462	101.37
826.639	37.89
826.817	-52.22
826.994	-3.07
827.172	-136.19
827.349	173.05
827.527	9.22
827.704	41.98
827.882	35.84
828.059	101.37
828.237	-74.75
828.414	72.7
828.591	-91.13
828.769	60.42
828.946	-76.8
829.124	95.23
829.301	31.74
829.478	-9.22
829.655	19.46
829.833	31.74
830.01	-60.42
830.187	19.46
830.364	48.13
830.542	123.9
830.719	107.52
830.896	48.13
831.073	56.32
831.25	162.81
831.427	66.56
831.604	50.18
831.782	-64.51
831.959	56.32
832.136	-1.02
832.313	99.33
832.49	-52.22
832.667	48.13
832.844	-19.46
833.021	146.43
833.198	50.18
833.374	46.08
833.551	99.33
833.728	46.08
833.905	84.99
834.082	-70.65
834.259	-9.22
834.436	117.76
834.612	-33.79
834.789	56.32
834.966	5.12
835.143	99.33
835.319	-25.6
835.496	31.74
835.673	-21.5
835.85	95.23
836.026	39.94
836.203	152.57
836.38	-50.18
836.556	23.55
836.733	-5.12
836.909	142.33
837.086	46.08
837.262	-62.46
837.439	-7.17
837.616	-103.42
837.792	48.13
837.968	41.98
838.145	-33.79
838.321	56.32
838.498	35.84
838.674	62.46
838.851	27.65
839.027	23.55
839.203	-5.12
839.38	70.65
839.556	62.46
839.732	125.95
839.909	-3.07
840.085	101.37
840.261	-33.79
840.437	-41.98
840.614	17.41
840.79	99.33
840.966	33.79
841.142	15.36
841.318	-7.17
841.494	87.04
841.671	91.13
841.847	-58.37
842.023	-13.31
842.199	-1.02
842.375	158.72
842.551	-140.29
842.727	-97.28
842.903	134.14
843.079	-97.28
843.255	185.34
843.431	35.84
843.607	74.75
843.783	-44.03
843.959	21.5
844.134	-54.27
844.31	48.13
844.486	15.36
844.662	-50.18
844.838	15.36
845.013	35.84
845.189	84.99
845.365	89.09
845.541	27.65
845.716	33.79
845.892	99.33
846.068	-21.5
846.244	31.74
846.419	5.12
846.595	44.03
846.77	19.46
846.946	80.89
847.122	-7.17
847.297	-46.08
847.473	91.13
847.648	-23.55
847.824	56.32
847.999	-35.84
848.175	64.51
848.35	84.99
848.526	97.28
848.701	70.65
848.876	111.61
849.052	91.13
849.227	37.89
849.403	62.46
849.578	39.94
849.753	50.18
849.929	138.24
850.104	-33.79
850.279	-19.46
850.454	72.7
850.63	29.7
850.805	44.03
850.98	-17.41
851.155	31.74
851.33	84.99
851.505	-91.13
851.681	31.74
851.856	-15.36
852.031	1.02
852.206	31.74
852.381	9.22
852.556	-9.22
852.731	68.61
852.906	78.85
853.081	101.37
853.256	105.47
853.431	21.5
853.606	-66.56
853.781	27.65
853.956	-70.65
854.131	-19.46
854.305	-56.32
854.48	-9.22
854.655	-70.65
854.83	37.89
855.005	23.55
855.18	107.52
855.354	29.7
855.529	48.13
855.704	-17.41
855.879	119.81
856.053	-33.79
856.228	80.89
856.403	-1.02
856.577	99.33
856.752	-5.12
856.926	3.07
857.101	27.65
857.276	17.41
857.45	31.74
857.625	99.33
857.799	31.74
857.974	68.61
858.148	-91.13
858.323	68.61
858.497	-33.79
858.672	-84.99
858.846	33.79
859.02	46.08
859.195	-23.55
859.369	46.08
859.543	111.61
859.718	-5.12
859.892	31.74
860.066	54.27
860.241	-41.98
860.415	29.7
860.589	-64.51
860.763	5.12
860.938	-33.79
861.112	66.56
861.286	41.98
861.46	15.36
861.634	105.47
861.808	128
861.982	-27.65
862.157	-39.94
862.331	-58.37
862.505	-44.03
862.679	-128
862.853	-25.6
863.027	25.6
863.201	177.15
863.375	-41.98
863.549	125.95
863.722	21.5
863.896	175.1
864.07	35.84
864.244	-29.7
864.418	107.52
864.592	25.6
864.766	-33.79
864.939	-3.07
865.113	5.12
865.287	72.7
865.461	-58.37
865.634	58.37
865.808	15.36
865.982	-37.89
866.156	-9.22
866.329	-9.22
866.503	-50.18
866.676	115.71
866.85	3.07
867.024	-19.46
867.197	87.04
867.371	29.7
867.544	-1.02
867.718	-44.03
867.891	35.84
868.065	-21.5
868.238	-9.22
868.412	111.61
868.585	70.65
868.759	-11.26
868.932	-35.84
869.105	-11.26
869.279	39.94
869.452	-27.65
869.625	138.24
869.799	19.46
869.972	-78.85
870.145	15.36
870.319	17.41
870.492	3.07
870.665	-27.65
870.838	-97.28
871.011	-154.62
871.185	-62.46
871.358	-115.71
871.531	97.28
871.704	-7.17
871.877	15.36
872.05	39.94
872.223	-56.32
872.396	13.31
872.569	99.33
872.742	-72.7
872.915	78.85
873.088	-25.6
873.261	9.22
873.434	130.05
873.607	-1.02
873.78	125.95
873.953	-115.71
874.126	76.8
874.299	105.47
874.471	19.46
874.644	9.22
874.817	-21.5
874.99	128
875.163	13.31
875.335	101.37
875.508	23.55
875.681	168.96
875.853	13.31
876.026	37.89
876.199	27.65
876.371	80.89
876.544	-41.98
876.717	-15.36
876.889	56.32
877.062	78.85
877.234	-33.79
877.407	-50.18
877.579	31.74
877.752	68.61
877.924	154.62
878.097	64.51
878.269	17.41
878.442	21.5
878.614	25.6
878.786	39.94
878.959	109.57
879.131	54.27
879.303	-117.76
879.476	39.94
879.648	52.22
879.82	44.03
879.993	21.5
880.165	1.02
880.337	-19.46
880.509	87.04
880.681	-80.89
880.854	-58.37
881.026	66.56
881.198	140.29
881.37	5.12
881.542	-5.12
881.714	-15.36
881.886	-3.07
882.058	-9.22
882.23	74.75
882.402	27.65
882.574	82.94
882.746	117.76
882.918	103.42
883.09	84.99
883.262	-15.36
883.434	-5.12
883.606	-52.22
883.778	13.31
883.95	140.29
884.122	-87.04
884.293	72.7
884.465	107.52
884.637	76.8
884.809	-50.18
884.98	29.7
885.152	7.17
885.324	87.04
885.496	27.65
885.667	-29.7
885.839	56.32
886.011	95.23
886.182	56.32
886.354	99.33
886.525	58.37
886.697	56.32
886.869	-35.84
887.04	-27.65
887.212	132.09
887.383	62.46
887.555	56.32
887.726	17.41
887.897	-1.02
888.069	-7.17
888.24	13.31
888.412	29.7
888.583	31.74
888.754	-33.79
888.926	-82.94
889.097	-21.5
889.268	-66.56
889.44	56.32
889.611	-101.37
889.782	-89.09
889.953	-46.08
890.125	128
890.296	-39.94
890.467	-3.07
890.638	15.36
890.809	41.98
890.98	-76.8
891.151	52.22
891.323	109.57
891.494	19.46
891.665	19.46
891.836	-13.31
892.007	27.65
892.178	60.42
892.349	31.74
892.52	11.26
892.691	-23.55
892.862	66.56
893.032	-91.13
893.203	-37.89
893.374	7.17
893.545	54.27
893.716	-21.5
893.887	27.65
894.057	-7.17
894.228	-25.6
894.399	-78.85
894.57	70.65
894.74	44.03
894.911	68.61
895.082	-23.55
895.253	-44.03
895.423	-9.22
895.594	140.29
895.764	117.76
895.935	-33.79
896.106	56.32
896.276	11.26
896.447	35.84
896.617	19.46
896.788	-97.28
896.958	-25.6
897.129	17.41
897.299	-17.41
897.47	107.52
897.64	37.89
897.81	-13.31
897.981	31.74
898.151	-33.79
898.322	-41.98
898.492	37.89
898.662	-31.74
898.832	3.07
899.003	-29.7
899.173	44.03
899.343	-136.19
899.513	-25.6
