Data from USB4F104151__17__09-25-24-222.txt Node

Date: Wed Feb 26 09:25:24 EST 2025
User: louis
Spectrometer: USB4F10415
Trigger mode: 4
Integration Time (sec): 1.000000E-1
Scans to average: 1
Electric dark correction enabled: true
Nonlinearity correction enabled: false
Boxcar width: 0
XAxis mode: Wavelengths
Number of Pixels in Spectrum: 3648
>>>>>Begin Spectral Data<<<<<
178.204	-422.91
178.424	-422.91
178.644	-422.91
178.864	-361.47
179.084	-373.75
179.304	-3.07
179.524	-76.8
179.744	-76.8
179.964	41.98
180.184	-3.07
180.404	-3.07
180.624	-48.13
180.844	5.12
181.064	27.65
181.283	37.89
181.503	17.41
181.723	80.89
181.943	-93.18
182.163	177.15
182.383	-25.6
182.602	74.75
182.822	148.48
183.042	115.71
183.262	-56.32
183.482	3.07
183.701	25.6
183.921	21.5
184.141	-89.09
184.361	115.71
184.58	7.17
184.8	111.61
185.02	-56.32
185.239	101.37
185.459	9.22
185.679	74.75
185.898	-62.46
186.118	105.47
186.338	107.52
186.557	39.94
186.777	-48.13
186.997	27.65
187.216	-13.31
187.436	154.62
187.655	142.33
187.875	60.42
188.095	9.22
188.314	89.09
188.534	101.37
188.753	-41.98
188.973	101.37
189.192	17.41
189.412	17.41
189.631	31.74
189.851	128
190.07	140.29
190.29	-7.17
190.509	1.02
190.729	37.89
190.948	74.75
191.168	246.78
191.387	62.46
191.607	15.36
191.826	119.81
192.045	37.89
192.265	70.65
192.484	54.27
192.704	-52.22
192.923	-15.36
193.142	111.61
193.362	58.37
193.581	89.09
193.8	136.19
194.02	103.42
194.239	1.02
194.458	48.13
194.678	52.22
194.897	111.61
195.116	105.47
195.335	56.32
195.555	50.18
195.774	-44.03
195.993	60.42
196.212	125.95
196.432	-87.04
196.651	-3.07
196.87	41.98
197.089	222.2
197.308	99.33
197.528	50.18
197.747	-89.09
197.966	54.27
198.185	142.33
198.404	-15.36
198.623	113.66
198.842	76.8
199.062	130.05
199.281	134.14
199.5	70.65
199.719	78.85
199.938	5.12
200.157	-1.02
200.376	62.46
200.595	107.52
200.814	39.94
201.033	-15.36
201.252	121.85
201.471	33.79
201.69	144.38
201.909	23.55
202.128	140.29
202.347	70.65
202.566	41.98
202.785	-50.18
203.004	-19.46
203.223	201.72
203.442	9.22
203.661	-31.74
203.879	29.7
204.098	93.18
204.317	33.79
204.536	39.94
204.755	87.04
204.974	41.98
205.193	17.41
205.411	101.37
205.63	89.09
205.849	48.13
206.068	21.5
206.287	62.46
206.505	119.81
206.724	11.26
206.943	13.31
207.162	-33.79
207.381	-41.98
207.599	-9.22
207.818	-23.55
208.037	-19.46
208.255	33.79
208.474	72.7
208.693	62.46
208.911	1.02
209.13	97.28
209.349	15.36
209.567	58.37
209.786	60.42
210.005	97.28
210.223	156.67
210.442	-74.75
210.661	74.75
210.879	74.75
211.098	-5.12
211.316	50.18
211.535	37.89
211.753	17.41
211.972	29.7
212.191	25.6
212.409	3.07
212.628	60.42
212.846	-15.36
213.065	56.32
213.283	121.85
213.502	82.94
213.72	50.18
213.938	-13.31
214.157	17.41
214.375	130.05
214.594	60.42
214.812	50.18
215.031	41.98
215.249	97.28
215.467	9.22
215.686	27.65
215.904	107.52
216.122	13.31
216.341	123.9
216.559	91.13
216.778	82.94
216.996	62.46
217.214	1.02
217.432	25.6
217.651	-60.42
217.869	68.61
218.087	-29.7
218.306	-27.65
218.524	52.22
218.742	52.22
218.96	5.12
219.179	17.41
219.397	78.85
219.615	181.25
219.833	123.9
220.051	-25.6
220.27	119.81
220.488	41.98
220.706	39.94
220.924	70.65
221.142	58.37
221.36	82.94
221.578	-7.17
221.796	41.98
222.015	25.6
222.233	9.22
222.451	121.85
222.669	-74.75
222.887	50.18
223.105	-31.74
223.323	19.46
223.541	9.22
223.759	60.42
223.977	-7.17
224.195	84.99
224.413	91.13
224.631	130.05
224.849	84.99
225.067	123.9
225.285	19.46
225.503	33.79
225.721	-68.61
225.939	-37.89
226.157	111.61
226.375	179.2
226.592	-17.41
226.81	35.84
227.028	37.89
227.246	160.77
227.464	58.37
227.682	144.38
227.9	60.42
228.117	-11.26
228.335	60.42
228.553	-15.36
228.771	-7.17
228.989	117.76
229.206	193.53
229.424	27.65
229.642	-31.74
229.86	3.07
230.077	72.7
230.295	56.32
230.513	80.89
230.731	41.98
230.948	150.53
231.166	156.67
231.384	46.08
231.601	11.26
231.819	214.01
232.037	-1.02
232.254	-33.79
232.472	21.5
232.689	19.46
232.907	125.95
233.125	7.17
233.342	-13.31
233.56	-29.7
233.777	1.02
233.995	-15.36
234.213	48.13
234.43	58.37
234.648	31.74
234.865	-15.36
235.083	173.05
235.3	66.56
235.518	21.5
235.735	50.18
235.953	84.99
236.17	25.6
236.388	-23.55
236.605	33.79
236.822	91.13
237.04	72.7
237.257	48.13
237.475	-89.09
237.692	37.89
237.909	93.18
238.127	-11.26
238.344	48.13
238.562	17.41
238.779	-35.84
238.996	-97.28
239.214	27.65
239.431	5.12
239.648	-39.94
239.865	74.75
240.083	21.5
240.3	66.56
240.517	-9.22
240.735	70.65
240.952	146.43
241.169	19.46
241.386	95.23
241.603	-39.94
241.821	-89.09
242.038	115.71
242.255	50.18
242.472	-15.36
242.689	101.37
242.907	89.09
243.124	60.42
243.341	-21.5
243.558	-9.22
243.775	-29.7
243.992	15.36
244.209	44.03
244.426	197.63
244.643	103.42
244.86	9.22
245.078	37.89
245.295	17.41
245.512	-5.12
245.729	17.41
245.946	60.42
246.163	15.36
246.38	-9.22
246.597	78.85
246.814	25.6
247.031	39.94
247.248	58.37
247.464	60.42
247.681	-23.55
247.898	-9.22
248.115	93.18
248.332	-48.13
248.549	41.98
248.766	144.38
248.983	50.18
249.2	41.98
249.417	41.98
249.633	72.7
249.85	58.37
250.067	25.6
250.284	54.27
250.501	95.23
250.717	91.13
250.934	-5.12
251.151	9.22
251.368	-56.32
251.585	41.98
251.801	31.74
252.018	-62.46
252.235	107.52
252.451	13.31
252.668	7.17
252.885	56.32
253.102	-5.12
253.318	7.17
253.535	-3.07
253.752	46.08
253.968	46.08
254.185	-35.84
254.401	-46.08
254.618	107.52
254.835	46.08
255.051	150.53
255.268	91.13
255.484	66.56
255.701	-17.41
255.917	52.22
256.134	-52.22
256.351	23.55
256.567	-9.22
256.784	1.02
257	33.79
257.217	70.65
257.433	72.7
257.65	56.32
257.866	134.14
258.082	-60.42
258.299	-50.18
258.515	25.6
258.732	9.22
258.948	1.02
259.165	111.61
259.381	-17.41
259.597	70.65
259.814	-37.89
260.03	78.85
260.246	19.46
260.463	70.65
260.679	128
260.895	74.75
261.112	66.56
261.328	7.17
261.544	35.84
261.761	162.81
261.977	27.65
262.193	-60.42
262.409	74.75
262.626	1.02
262.842	39.94
263.058	3.07
263.274	21.5
263.49	23.55
263.707	5.12
263.923	125.95
264.139	-39.94
264.355	46.08
264.571	113.66
264.787	46.08
265.004	168.96
265.22	39.94
265.436	-35.84
265.652	3.07
265.868	72.7
266.084	52.22
266.3	58.37
266.516	-113.66
266.732	13.31
266.948	5.12
267.164	64.51
267.38	54.27
267.596	23.55
267.812	72.7
268.028	25.6
268.244	-48.13
268.46	35.84
268.676	-39.94
268.892	52.22
269.108	-72.7
269.324	41.98
269.54	-44.03
269.756	99.33
269.972	-93.18
270.188	-7.17
270.403	25.6
270.619	31.74
270.835	25.6
271.051	1.02
271.267	-9.22
271.483	33.79
271.698	29.7
271.914	27.65
272.13	-3.07
272.346	9.22
272.562	15.36
272.777	19.46
272.993	1.02
273.209	13.31
273.425	15.36
273.64	-76.8
273.856	91.13
274.072	13.31
274.287	7.17
274.503	64.51
274.719	82.94
274.934	39.94
275.15	-7.17
275.366	27.65
275.581	-5.12
275.797	64.51
276.012	-3.07
276.228	60.42
276.444	-21.5
276.659	130.05
276.875	33.79
277.09	13.31
277.306	50.18
277.521	97.28
277.737	66.56
277.952	74.75
278.168	27.65
278.383	11.26
278.599	68.61
278.814	70.65
279.03	54.27
279.245	171.01
279.461	-23.55
279.676	66.56
279.892	-39.94
280.107	7.17
280.322	13.31
280.538	15.36
280.753	-44.03
280.969	11.26
281.184	39.94
281.399	99.33
281.615	39.94
281.83	29.7
282.045	-48.13
282.26	-7.17
282.476	78.85
282.691	115.71
282.906	27.65
283.122	111.61
283.337	-13.31
283.552	105.47
283.767	-9.22
283.983	72.7
284.198	35.84
284.413	74.75
284.628	-25.6
284.843	52.22
285.058	66.56
285.274	-41.98
285.489	52.22
285.704	72.7
285.919	-7.17
286.134	41.98
286.349	50.18
286.564	-3.07
286.779	72.7
286.995	5.12
287.21	3.07
287.425	23.55
287.64	7.17
287.855	-23.55
288.07	-111.61
288.285	181.25
288.5	41.98
288.715	-9.22
288.93	1.02
289.145	-46.08
289.36	64.51
289.575	-39.94
289.79	41.98
290.004	39.94
290.219	99.33
290.434	-25.6
290.649	-89.09
290.864	74.75
291.079	1.02
291.294	78.85
291.509	74.75
291.724	17.41
291.938	3.07
292.153	54.27
292.368	50.18
292.583	-50.18
292.798	107.52
293.012	89.09
293.227	46.08
293.442	-27.65
293.657	99.33
293.871	111.61
294.086	70.65
294.301	140.29
294.516	128
294.73	72.7
294.945	58.37
295.16	19.46
295.374	107.52
295.589	107.52
295.804	-23.55
296.018	62.46
296.233	35.84
296.447	54.27
296.662	-17.41
296.877	99.33
297.091	72.7
297.306	74.75
297.52	46.08
297.735	50.18
297.949	-17.41
298.164	46.08
298.378	-3.07
298.593	46.08
298.807	9.22
299.022	33.79
299.236	148.48
299.451	-44.03
299.665	48.13
299.88	39.94
300.094	33.79
300.309	84.99
300.523	74.75
300.737	50.18
300.952	64.51
301.166	48.13
301.381	-3.07
301.595	15.36
301.809	-21.5
302.024	9.22
302.238	-31.74
302.452	62.46
302.667	68.61
302.881	130.05
303.095	68.61
303.309	78.85
303.524	-21.5
303.738	21.5
303.952	-7.17
304.166	97.28
304.381	-117.76
304.595	142.33
304.809	-17.41
305.023	-3.07
305.237	-23.55
305.452	9.22
305.666	105.47
305.88	70.65
306.094	150.53
306.308	27.65
306.522	76.8
306.736	29.7
306.95	89.09
307.164	48.13
307.379	11.26
307.593	142.33
307.807	48.13
308.021	44.03
308.235	121.85
308.449	-7.17
308.663	-3.07
308.877	162.81
309.091	56.32
309.305	60.42
309.519	-158.72
309.733	107.52
309.947	-60.42
310.161	70.65
310.374	48.13
310.588	123.9
310.802	15.36
311.016	-7.17
311.23	91.13
311.444	-29.7
311.658	82.94
311.872	74.75
312.085	152.57
312.299	82.94
312.513	136.19
312.727	17.41
312.941	-5.12
313.154	21.5
313.368	29.7
313.582	-1.02
313.796	27.65
314.009	33.79
314.223	87.04
314.437	41.98
314.651	117.76
314.864	64.51
315.078	1.02
315.292	5.12
315.505	-48.13
315.719	58.37
315.933	82.94
316.146	-35.84
316.36	-48.13
316.573	214.01
316.787	132.09
317.001	48.13
317.214	-89.09
317.428	1.02
317.641	31.74
317.855	23.55
318.068	72.7
318.282	54.27
318.495	218.11
318.709	29.7
318.922	41.98
319.136	144.38
319.349	91.13
319.563	9.22
319.776	50.18
319.99	-21.5
320.203	27.65
320.417	23.55
320.63	140.29
320.843	121.85
321.057	64.51
321.27	70.65
321.483	27.65
321.697	115.71
321.91	17.41
322.124	72.7
322.337	74.75
322.55	-19.46
322.763	-5.12
322.977	15.36
323.19	-27.65
323.403	37.89
323.617	87.04
323.83	29.7
324.043	-60.42
324.256	74.75
324.469	5.12
324.683	103.42
324.896	1.02
325.109	62.46
325.322	-48.13
325.535	37.89
325.748	123.9
325.962	29.7
326.175	123.9
326.388	7.17
326.601	119.81
326.814	-1.02
327.027	60.42
327.24	111.61
327.453	-132.09
327.666	21.5
327.879	91.13
328.092	72.7
328.305	58.37
328.518	1.02
328.731	23.55
328.944	15.36
329.157	23.55
329.37	-1.02
329.583	107.52
329.796	148.48
330.009	1.02
330.222	82.94
330.435	101.37
330.648	39.94
330.861	25.6
331.073	7.17
331.286	74.75
331.499	64.51
331.712	-3.07
331.925	-35.84
332.138	58.37
332.35	58.37
332.563	9.22
332.776	146.43
332.989	1.02
333.202	76.8
333.414	-1.02
333.627	21.5
333.84	31.74
334.053	64.51
334.265	68.61
334.478	33.79
334.691	-31.74
334.903	41.98
335.116	-23.55
335.329	-29.7
335.541	-13.31
335.754	117.76
335.966	9.22
336.179	84.99
336.392	-9.22
336.604	-9.22
336.817	70.65
337.029	33.79
337.242	25.6
337.454	115.71
337.667	-3.07
337.88	58.37
338.092	41.98
338.305	41.98
338.517	3.07
338.729	29.7
338.942	66.56
339.154	23.55
339.367	-9.22
339.579	1.02
339.792	-7.17
340.004	41.98
340.217	66.56
340.429	-1.02
340.641	50.18
340.854	15.36
341.066	-15.36
341.278	66.56
341.491	146.43
341.703	68.61
341.915	-31.74
342.128	58.37
342.34	56.32
342.552	13.31
342.764	-50.18
342.977	13.31
343.189	76.8
343.401	33.79
343.613	-41.98
343.826	80.89
344.038	-62.46
344.25	-1.02
344.462	-27.65
344.674	17.41
344.886	74.75
345.099	46.08
345.311	41.98
345.523	25.6
345.735	-80.89
345.947	21.5
346.159	1.02
346.371	17.41
346.583	23.55
346.795	105.47
347.007	62.46
347.219	-27.65
347.431	144.38
347.643	76.8
347.855	11.26
348.067	115.71
348.279	5.12
348.491	27.65
348.703	105.47
348.915	7.17
349.127	-66.56
349.339	66.56
349.551	33.79
349.763	23.55
349.975	80.89
350.187	1.02
350.399	132.09
350.61	1.02
350.822	52.22
351.034	70.65
351.246	37.89
351.458	46.08
351.669	105.47
351.881	93.18
352.093	78.85
352.305	121.85
352.517	82.94
352.728	62.46
352.94	48.13
353.152	39.94
353.363	19.46
353.575	87.04
353.787	136.19
353.999	66.56
354.21	74.75
354.422	-101.37
354.633	107.52
354.845	60.42
355.057	31.74
355.268	11.26
355.48	66.56
355.692	-23.55
355.903	-68.61
356.115	23.55
356.326	-72.7
356.538	68.61
356.749	62.46
356.961	123.9
357.172	66.56
357.384	-48.13
357.595	164.86
357.807	70.65
358.018	37.89
358.23	-7.17
358.441	82.94
358.653	173.05
358.864	-5.12
359.075	58.37
359.287	-7.17
359.498	70.65
359.709	87.04
359.921	84.99
360.132	23.55
360.344	1.02
360.555	-84.99
360.766	-9.22
360.977	37.89
361.189	156.67
361.4	-23.55
361.611	95.23
361.823	82.94
362.034	107.52
362.245	-25.6
362.456	23.55
362.667	39.94
362.879	41.98
363.09	7.17
363.301	13.31
363.512	3.07
363.723	-23.55
363.935	-7.17
364.146	111.61
364.357	-25.6
364.568	64.51
364.779	-130.05
364.99	37.89
365.201	64.51
365.412	154.62
365.623	-33.79
365.834	78.85
366.045	82.94
366.256	33.79
366.467	66.56
366.678	-27.65
366.889	95.23
367.1	56.32
367.311	128
367.522	-93.18
367.733	21.5
367.944	74.75
368.155	48.13
368.366	9.22
368.577	89.09
368.788	52.22
368.999	-3.07
369.209	-27.65
369.42	205.82
369.631	211.96
369.842	93.18
370.053	76.8
370.264	52.22
370.474	70.65
370.685	58.37
370.896	54.27
371.107	58.37
371.317	70.65
371.528	-48.13
371.739	156.67
371.95	25.6
372.16	35.84
372.371	-19.46
372.582	-60.42
372.792	56.32
373.003	113.66
373.214	37.89
373.424	31.74
373.635	-91.13
373.846	119.81
374.056	82.94
374.267	68.61
374.477	87.04
374.688	5.12
374.898	62.46
375.109	66.56
375.319	117.76
375.53	74.75
375.74	119.81
375.951	-19.46
376.161	105.47
376.372	109.57
376.582	-1.02
376.793	103.42
377.003	9.22
377.214	-35.84
377.424	52.22
377.635	66.56
377.845	-31.74
378.055	9.22
378.266	-23.55
378.476	-15.36
378.686	160.77
378.897	64.51
379.107	44.03
379.317	46.08
379.528	-3.07
379.738	87.04
379.948	-25.6
380.158	80.89
380.369	37.89
380.579	82.94
380.789	91.13
380.999	138.24
381.21	154.62
381.42	168.96
381.63	29.7
381.84	66.56
382.05	72.7
382.261	134.14
382.471	115.71
382.681	-68.61
382.891	138.24
383.101	46.08
383.311	1.02
383.521	11.26
383.731	128
383.941	132.09
384.151	48.13
384.361	25.6
384.571	107.52
384.781	3.07
384.991	138.24
385.201	181.25
385.411	148.48
385.621	89.09
385.831	78.85
386.041	33.79
386.251	1.02
386.461	119.81
386.671	-17.41
386.881	74.75
387.091	31.74
387.301	103.42
387.511	-11.26
387.72	58.37
387.93	128
388.14	-44.03
388.35	78.85
388.56	82.94
388.769	60.42
388.979	9.22
389.189	-52.22
389.399	-19.46
389.609	52.22
389.818	31.74
390.028	13.31
390.238	21.5
390.447	-35.84
390.657	123.9
390.867	39.94
391.076	-35.84
391.286	13.31
391.496	58.37
391.705	41.98
391.915	181.25
392.125	70.65
392.334	21.5
392.544	175.1
392.753	46.08
392.963	-19.46
393.172	-3.07
393.382	9.22
393.591	171.01
393.801	64.51
394.01	181.25
394.22	72.7
394.429	-31.74
394.639	41.98
394.848	99.33
395.058	64.51
395.267	23.55
395.477	64.51
395.686	25.6
395.895	162.81
396.105	158.72
396.314	41.98
396.524	103.42
396.733	97.28
396.942	109.57
397.152	87.04
397.361	121.85
397.57	64.51
397.78	-9.22
397.989	64.51
398.198	148.48
398.407	9.22
398.617	41.98
398.826	39.94
399.035	-7.17
399.244	128
399.453	11.26
399.663	87.04
399.872	15.36
400.081	5.12
400.29	103.42
400.499	-39.94
400.708	130.05
400.917	37.89
401.127	23.55
401.336	-37.89
401.545	146.43
401.754	160.77
401.963	91.13
402.172	31.74
402.381	-31.74
402.59	-7.17
402.799	-27.65
403.008	115.71
403.217	72.7
403.426	37.89
403.635	-41.98
403.844	-17.41
404.053	80.89
404.262	48.13
404.471	175.1
404.68	17.41
404.888	9.22
405.097	41.98
405.306	58.37
405.515	62.46
405.724	82.94
405.933	91.13
406.142	-3.07
406.35	107.52
406.559	84.99
406.768	15.36
406.977	39.94
407.185	74.75
407.394	9.22
407.603	-89.09
407.812	74.75
408.02	128
408.229	31.74
408.438	-11.26
408.646	-76.8
408.855	58.37
409.064	72.7
409.272	62.46
409.481	121.85
409.69	-15.36
409.898	1.02
410.107	25.6
410.315	99.33
410.524	82.94
410.733	140.29
410.941	84.99
411.15	113.66
411.358	31.74
411.567	121.85
411.775	44.03
411.984	66.56
412.192	82.94
412.401	89.09
412.609	140.29
412.818	19.46
413.026	105.47
413.234	-23.55
413.443	39.94
413.651	-23.55
413.86	13.31
414.068	82.94
414.276	144.38
414.485	-50.18
414.693	138.24
414.901	113.66
415.11	-11.26
415.318	84.99
415.526	7.17
415.734	66.56
415.943	46.08
416.151	179.2
416.359	39.94
416.567	50.18
416.776	46.08
416.984	58.37
417.192	187.39
417.4	-44.03
417.608	-7.17
417.817	-41.98
418.025	211.96
418.233	121.85
418.441	-3.07
418.649	3.07
418.857	-7.17
419.065	48.13
419.273	-9.22
419.481	3.07
419.689	27.65
419.897	50.18
420.105	17.41
420.313	175.1
420.521	146.43
420.729	113.66
420.937	17.41
421.145	13.31
421.353	74.75
421.561	152.57
421.769	95.23
421.977	54.27
422.185	113.66
422.393	52.22
422.601	123.9
422.809	46.08
423.017	62.46
423.224	41.98
423.432	68.61
423.64	17.41
423.848	29.7
424.056	25.6
424.263	29.7
424.471	35.84
424.679	193.53
424.887	-50.18
425.094	107.52
425.302	111.61
425.51	1.02
425.718	107.52
425.925	80.89
426.133	62.46
426.341	203.77
426.548	101.37
426.756	-68.61
426.964	121.85
427.171	15.36
427.379	52.22
427.586	21.5
427.794	78.85
428.001	74.75
428.209	46.08
428.417	226.3
428.624	50.18
428.832	35.84
429.039	46.08
429.247	46.08
429.454	136.19
429.662	152.57
429.869	95.23
430.076	101.37
430.284	101.37
430.491	197.63
430.699	181.25
430.906	242.68
431.114	125.95
431.321	70.65
431.528	138.24
431.736	150.53
431.943	109.57
432.15	246.78
432.358	99.33
432.565	293.88
432.772	-39.94
432.979	195.58
433.187	113.66
433.394	193.53
433.601	48.13
433.808	197.63
434.016	146.43
434.223	199.68
434.43	181.25
434.637	246.78
434.844	244.73
435.052	306.17
435.259	168.96
435.466	197.63
435.673	121.85
435.88	246.78
436.087	285.69
436.294	316.41
436.501	295.93
436.708	195.58
436.915	254.97
437.122	369.66
437.329	230.4
437.537	244.73
437.743	343.03
437.95	359.42
438.157	363.51
438.364	365.56
438.571	293.88
438.778	381.95
438.985	441.34
439.192	353.27
439.399	394.23
439.606	369.66
439.813	506.87
440.02	535.54
440.227	529.4
440.433	510.97
440.64	529.4
440.847	441.34
441.054	508.92
441.261	623.61
441.467	545.78
441.674	529.4
441.881	572.41
442.088	582.65
442.294	705.53
442.501	664.57
442.708	639.99
442.914	656.37
443.121	672.76
443.328	795.64
443.534	803.83
443.741	803.83
443.948	668.66
444.154	779.25
444.361	973.81
444.568	947.19
444.774	861.17
444.981	881.65
445.187	1065.97
445.394	1000.43
445.6	889.84
445.807	1139.69
446.013	1180.65
446.22	1137.65
446.426	1180.65
446.633	1332.2
446.839	1545.19
447.046	1250.28
447.252	1436.65
447.459	1512.42
447.665	1407.98
447.871	1608.68
448.078	1743.85
448.284	1600.49
448.491	1858.53
448.697	1899.49
448.903	1879.01
449.11	1999.84
449.316	1958.88
449.522	1999.84
449.728	2149.34
449.935	2264.03
450.141	2227.17
450.347	2442.2
450.553	2413.53
450.76	2270.17
450.966	2503.64
451.172	2622.42
451.378	2735.06
451.584	2833.36
451.791	3021.78
451.997	3138.51
452.203	3087.31
452.409	3408.84
452.615	3554.25
452.821	3374.03
453.027	3480.52
453.233	4029.38
453.44	3716.04
453.646	3881.92
453.852	4174.78
454.058	4285.37
454.264	4240.32
454.47	4596.67
454.676	4686.78
454.882	5166
455.088	4991.92
455.294	5340.08
455.5	5571.5
455.705	5747.62
455.911	5710.76
456.117	5929.89
456.323	6192.03
456.529	6155.17
456.735	6861.72
456.941	6982.55
457.147	7304.08
457.352	7404.43
457.558	7633.8
457.764	8004.49
457.97	8119.17
458.176	8541.05
458.381	9024.37
458.587	9151.35
458.793	9606
458.999	9597.81
459.204	10812.25
459.41	11131.73
459.616	10910.55
459.821	11653.97
460.027	12276.55
460.233	12849.98
460.438	12852.03
460.644	13574.96
460.85	13611.82
461.055	14361.38
461.261	14803.74
461.466	14607.14
461.672	14891.8
461.878	16673.54
462.083	16175.88
462.289	16812.8
462.494	17638.13
462.7	17423.09
462.905	17738.48
463.111	19264.22
463.316	20253.39
463.522	20775.62
463.727	21342.91
463.932	22129.33
464.138	22543.02
464.343	23691.93
464.549	23837.33
464.754	25320.06
464.959	26346.09
465.165	26597.99
465.37	26356.33
465.575	26526.32
465.781	28326.48
465.986	29250.11
466.191	28570.19
466.397	28576.33
466.602	28156.5
466.807	29653.56
467.012	30511.66
467.218	31085.09
467.423	30779.95
467.628	31537.69
467.833	33376.77
468.038	32586.25
468.244	32279.06
468.449	33968.63
468.654	33288.71
468.859	33118.73
469.064	33309.19
469.269	32408.08
469.474	32664.08
469.679	33749.5
469.885	32131.61
470.09	33307.14
470.295	33485.31
470.5	32428.56
470.705	32492.05
470.91	31803.93
471.115	31255.08
471.32	32223.76
471.525	31724.06
471.73	30538.29
471.935	30439.98
472.139	29346.37
472.344	29553.21
472.549	29102.66
472.754	28713.55
472.959	28125.78
473.164	27011.68
473.369	26946.15
473.574	27976.28
473.778	26911.33
473.983	26356.33
474.188	26206.83
474.393	24799.88
474.598	24787.59
474.802	24214.16
475.007	24033.94
475.212	23382.68
475.417	22655.65
475.621	22487.72
475.826	22223.53
476.031	21729.97
476.235	21256.89
476.44	21508.79
476.645	20822.72
476.849	20445.9
477.054	19880.66
477.259	19831.51
477.463	19675.86
477.668	19426.01
477.872	19237.59
478.077	18721.51
478.282	18270.95
478.486	18115.31
478.691	17859.31
478.895	17761.01
479.1	17435.38
479.304	17382.13
479.509	16675.59
479.713	17128.19
479.918	16687.87
480.122	16323.33
480.326	16620.29
480.531	16493.32
480.735	16122.63
480.94	15823.63
481.144	16601.86
481.348	15686.42
481.553	15803.15
481.757	15022.87
481.961	15643.41
482.166	15637.27
482.37	15260.44
482.574	14906.14
482.778	14979.87
482.983	15117.08
483.187	14775.07
483.391	14822.17
483.595	14476.07
483.8	14398.24
484.004	14381.86
484.208	14457.64
484.412	14222.12
484.616	14091.05
484.821	14045.99
485.025	13271.86
485.229	13544.24
485.433	13490.99
485.637	13134.65
485.841	13093.69
486.045	12872.51
486.249	12708.67
486.453	12442.43
486.657	12219.21
486.861	12120.9
487.065	11750.22
487.269	11961.16
487.473	11316.05
487.677	11582.29
487.881	11303.76
488.085	11023.19
488.289	10947.42
488.493	10642.27
488.697	10609.5
488.901	10478.43
489.105	10097.51
489.309	9896.81
489.512	9821.03
489.716	9573.23
489.92	9560.94
490.124	9253.75
490.328	9352.05
490.531	9102.2
490.735	9071.48
490.939	8838.01
491.143	8461.18
491.346	8567.68
491.55	8319.87
491.754	8108.93
491.958	8022.92
492.161	7816.07
492.365	7848.84
492.569	7756.68
492.772	7646.09
492.976	7576.46
493.18	7574.41
493.383	7422.86
493.587	7207.83
493.79	7396.24
493.994	7156.63
494.197	6927.25
494.401	7111.57
494.605	7021.46
494.808	6884.25
495.012	6906.77
495.215	6935.45
495.419	6740.89
495.622	6636.44
495.825	6726.55
496.029	6501.28
496.232	6816.66
496.436	6476.7
496.639	6751.13
496.843	6511.52
497.046	6525.85
497.249	6497.18
497.453	6618.01
497.656	6544.28
497.859	6714.27
498.063	6683.55
498.266	6845.34
498.469	6550.43
498.673	6747.03
498.876	6687.64
499.079	6591.39
499.282	6693.79
499.485	7027.6
499.689	6955.93
499.892	6923.16
500.095	6939.54
500.298	6978.45
500.501	6857.62
500.705	7232.4
500.908	7144.34
501.111	7316.37
501.314	7295.89
501.517	7519.12
501.72	7447.44
501.923	7568.27
502.126	7562.12
502.329	7816.07
502.532	7742.35
502.735	8037.25
502.938	7975.81
503.141	8131.46
503.344	8242.05
503.547	8334.21
503.75	8309.63
503.953	8289.15
504.156	8520.57
504.359	8651.64
504.562	8803.19
504.765	8891.26
504.968	9180.02
505.17	9239.41
505.373	9300.85
505.576	9892.71
505.779	9696.11
505.982	10050.41
506.185	10232.68
506.387	10158.95
506.59	10392.42
506.793	10734.43
506.996	10767.2
507.198	11182.93
507.401	11273.04
507.604	11436.88
507.807	11617.1
508.009	11854.67
508.212	12403.52
508.415	12489.54
508.617	12553.02
508.82	12718.91
509.022	13220.66
509.225	13439.79
509.428	13779.76
509.63	14007.08
509.833	14215.98
510.035	14902.04
510.238	14865.18
510.44	15135.51
510.643	15581.97
510.845	15962.89
511.048	16204.55
511.25	16509.7
511.453	16708.35
511.655	17814.26
511.858	17681.14
512.06	18424.55
512.262	18475.75
512.465	18602.72
512.667	19331.8
512.87	19858.13
513.072	20011.73
513.274	20953.79
513.477	21502.65
513.679	21588.66
513.881	22172.33
514.084	22659.75
514.286	23050.91
514.488	23769.75
514.69	24558.22
514.893	24803.97
515.095	25051.78
515.297	25725.56
515.499	26434.16
515.701	26761.83
515.904	27435.61
516.106	28320.34
516.308	28613.2
516.51	29413.95
516.712	30052.92
516.914	30356.02
517.116	31021.61
517.318	31656.48
517.52	32113.17
517.722	32457.23
517.925	33591.81
518.127	34048.5
518.329	34648.56
518.531	34550.26
518.733	35817.95
518.935	36139.48
519.136	36522.45
519.338	37499.33
519.54	38083
519.742	38996.4
519.944	39074.22
520.146	40018.33
520.348	40542.61
520.55	40587.67
520.752	41220.49
520.954	42074.49
521.155	42473.85
521.357	43010.42
521.559	43503.98
521.761	44310.88
521.963	43837.8
522.164	44648.79
522.366	45543.75
522.568	45828.42
522.77	46082.37
522.971	46764.34
523.173	46307.65
523.375	46788.92
523.576	47089.97
523.778	47311.15
523.98	47929.64
524.181	48294.18
524.383	48142.63
524.584	48236.83
524.786	48195.87
524.988	48392.48
525.189	49006.87
525.391	48883.99
525.592	48888.09
525.794	49019.16
525.995	49105.17
526.197	48951.57
526.398	49035.54
526.6	48883.99
526.801	49195.28
527.003	48892.18
527.204	48580.89
527.406	48834.84
527.607	48306.46
527.808	48204.06
528.01	47020.34
528.211	47548.71
528.412	47845.67
528.614	47391.02
528.815	46911.8
529.016	47102.26
529.218	46211.39
529.419	46405.95
529.62	45437.26
529.822	44939.6
530.023	44783.96
530.224	44740.95
530.425	44099.94
530.626	43602.28
530.828	42897.78
531.029	43182.45
531.23	42201.47
531.431	42033.53
531.632	41675.14
531.833	41099.66
532.035	40282.52
532.236	40094.11
532.437	40004
532.638	39051.69
532.839	39113.13
533.04	38607.28
533.241	37353.93
533.442	37943.74
533.643	36884.94
533.844	36733.39
534.045	36297.17
534.246	35547.62
534.447	35072.49
534.648	34808.3
534.849	34515.44
535.05	33479.17
535.251	33384.96
535.451	32672.27
535.652	32549.39
535.853	32049.69
536.054	31541.79
536.255	31035.94
536.456	30466.61
536.657	30726.7
536.857	29659.71
537.058	29360.7
537.259	29471.29
537.46	28703.31
537.66	28381.77
537.861	27961.94
538.062	27742.81
538.263	27632.22
538.463	26847.85
538.664	26886.76
538.865	26466.92
539.065	26255.98
539.266	25600.63
539.466	25463.42
539.667	25068.16
539.868	25047.68
540.068	24466.06
540.269	24019.6
540.469	24009.36
540.67	23960.21
540.87	23640.73
541.071	22946.47
541.271	23208.61
541.472	22854.31
541.672	22362.79
541.873	22137.52
542.073	21574.33
542.274	21729.97
542.474	21609.14
542.675	20984.51
542.875	21125.82
543.075	20947.65
543.276	20386.5
543.476	20290.25
543.676	19938
543.877	19878.61
544.077	19688.15
544.277	19307.23
544.478	19434.2
544.678	19194.59
544.878	18848.48
545.078	18561.76
545.279	18453.22
545.479	18184.94
545.679	18215.66
545.879	17656.56
546.079	17830.64
546.28	17365.75
546.48	17173.24
546.68	17195.77
546.88	16855.81
547.08	16741.12
547.28	16440.07
547.48	16003.85
547.68	15874.83
547.88	15829.77
548.081	15760.14
548.281	15209.24
548.481	15205.14
548.681	14959.39
548.881	15096.6
549.081	14469.92
549.28	14402.34
549.48	14152.49
549.68	13964.07
549.88	14023.47
550.08	13816.62
550.28	13386.55
550.48	13562.67
550.68	13372.21
550.88	13038.39
551.08	12702.53
551.279	12694.33
551.479	12276.55
551.679	12176.2
551.879	12221.25
552.079	12077.9
552.278	11830.09
552.478	11674.45
552.678	11510.61
552.878	11236.18
553.077	11209.56
553.277	10853.21
553.477	10943.32
553.676	10746.72
553.876	10283.88
554.076	10117.99
554.275	10130.28
554.475	9974.63
554.674	9767.79
554.874	9712.49
555.074	9358.19
555.273	9401.2
555.473	9145.2
555.672	8842.11
555.872	8952.7
556.071	8889.21
556.271	8754.04
556.47	8283.01
556.67	8407.94
556.869	8199.04
557.068	8096.64
557.268	7861.13
557.467	7746.44
557.667	7848.84
557.866	7558.03
558.065	7490.45
558.265	7234.45
558.464	7089.04
558.663	7160.72
558.863	6945.69
559.062	6914.97
559.261	6677.4
559.461	6644.63
559.66	6398.88
559.859	6165.41
560.058	6382.49
560.258	6118.31
560.457	6151.07
560.656	6108.07
560.855	5847.97
561.054	5872.55
561.253	5850.02
561.453	5753.77
561.652	5428.14
561.851	5616.55
562.05	5358.51
562.249	5168.05
562.448	5325.74
562.647	4953.01
562.846	5043.12
563.045	5104.56
563.244	4899.77
563.443	4891.57
563.642	4703.16
563.841	4756.41
564.04	4641.72
564.239	4578.23
564.438	4465.6
564.637	4506.56
564.836	4336.57
565.035	4307.9
565.234	4359.1
565.432	4205.5
565.631	4191.17
565.83	4146.11
566.029	3849.16
566.228	3810.25
566.427	3910.6
566.625	3652.55
566.824	3785.67
567.023	3734.47
567.222	3677.13
567.42	3646.41
567.619	3572.68
567.818	3519.43
568.016	3564.49
568.215	3296.21
568.414	3390.41
568.612	3298.25
568.811	3220.43
569.01	3144.66
569.208	3103.7
569.407	3130.32
569.605	3025.87
569.804	2898.9
570.002	3029.97
570.201	2819.03
570.4	2851.8
570.598	2722.77
570.797	2792.41
570.995	2649.05
571.193	2614.23
571.392	2575.32
571.59	2603.99
571.789	2702.29
571.987	2505.69
572.186	2603.99
572.384	2446.3
572.582	2503.64
572.781	2343.9
572.979	2294.75
573.177	2288.61
573.376	2184.16
573.574	2212.83
573.772	2300.89
573.971	2153.44
574.169	2182.11
574.367	2135.01
574.565	2085.86
574.763	1991.65
574.962	2014.18
575.16	2016.23
575.358	1922.02
575.556	2028.51
575.754	1958.88
575.952	1840.1
576.151	1795.04
576.349	1801.19
576.547	1670.12
576.745	1836
576.943	1829.86
577.141	1696.74
577.339	1573.86
577.537	1749.99
577.735	1745.89
577.933	1592.3
578.131	1432.55
578.329	1592.3
578.527	1481.71
578.725	1498.09
578.923	1479.66
579.121	1479.66
579.319	1319.92
579.516	1246.19
579.714	1571.82
579.912	1479.66
580.11	1336.3
580.308	1307.63
580.506	1260.52
580.704	1176.56
580.901	1129.45
581.099	1328.11
581.297	1141.74
581.495	1254.38
581.692	1231.85
581.89	1184.75
582.088	1164.27
582.285	1160.17
582.483	1022.96
582.681	1115.12
582.878	1004.53
583.076	1039.34
583.274	1061.87
583.471	1102.83
583.669	1104.88
583.866	916.47
584.064	889.84
584.262	867.31
584.459	924.66
584.657	977.91
584.854	965.62
585.052	936.95
585.249	949.23
585.447	979.95
585.644	809.97
585.841	982
586.039	957.43
586.236	938.99
586.434	898.03
586.631	711.67
586.828	836.6
587.026	805.88
587.223	701.43
587.42	697.33
587.618	838.64
587.815	842.74
588.012	777.2
588.21	748.53
588.407	799.73
588.604	797.68
588.801	672.76
588.999	711.67
589.196	746.48
589.393	754.68
589.59	746.48
589.787	697.33
589.984	705.53
590.182	760.82
590.379	656.37
590.576	623.61
590.773	629.75
590.97	639.99
591.167	719.86
591.364	705.53
591.561	674.81
591.758	762.87
591.955	617.46
592.152	642.04
592.349	691.19
592.546	586.74
592.743	619.51
592.94	672.76
593.137	644.09
593.334	695.29
593.531	637.94
593.727	683
593.924	633.85
594.121	658.42
594.318	699.38
594.515	695.29
594.712	726
594.908	766.96
595.105	568.31
595.302	680.95
595.499	754.68
595.696	783.35
595.892	680.95
596.089	769.01
596.286	656.37
596.482	898.03
596.679	812.02
596.876	824.31
597.072	1010.67
597.269	838.64
597.466	887.79
597.662	986.1
597.859	775.16
598.055	859.12
598.252	973.81
598.448	1031.15
598.645	1051.63
598.841	1002.48
599.038	1137.65
599.234	1172.46
599.431	1213.42
599.627	1199.09
599.824	1328.11
600.02	1291.24
600.217	1412.07
600.413	1506.28
600.609	1493.99
600.806	1670.12
601.002	1655.78
601.198	1565.67
601.395	1709.03
601.591	1704.93
601.787	1899.49
601.984	2008.03
602.18	1926.11
602.376	1934.31
602.572	2212.83
602.769	2210.78
602.965	2294.75
603.161	2350.04
603.357	2472.92
603.553	2569.18
603.75	2587.61
603.946	2728.92
604.142	2673.62
604.338	2939.86
604.534	2982.87
604.73	3148.75
604.926	3120.08
605.122	3388.36
605.318	3189.71
605.514	3443.66
605.71	3621.83
605.906	3670.98
606.102	3746.76
606.298	3978.18
606.494	4150.21
606.69	4234.18
606.886	4047.81
607.082	4420.54
607.278	4383.68
607.474	4694.97
607.67	4692.92
607.866	4807.61
608.062	5057.46
608.257	5221.3
608.453	5436.33
608.649	5524.4
608.845	5354.41
609.041	5661.61
609.236	6005.67
609.432	5983.14
609.628	6218.66
609.824	6495.13
610.019	6597.53
610.215	6708.12
610.411	6982.55
610.606	7158.67
610.802	7119.76
610.998	7523.21
611.193	7805.83
611.389	7687.05
611.584	8045.45
611.78	8235.91
611.976	8420.22
612.171	8829.82
612.367	8942.46
612.562	9116.53
612.758	9263.99
612.953	9589.61
613.149	9716.59
613.344	9970.54
613.539	10507.1
613.735	10769.24
613.93	11090.77
614.126	11092.82
614.321	11510.61
614.517	11674.45
614.712	12249.93
614.907	12458.82
615.103	12981.05
615.298	13079.35
615.493	13443.89
615.688	13445.94
615.884	14236.45
616.079	14385.96
616.274	14770.97
616.47	14852.89
616.665	15309.59
616.86	15934.22
617.055	16300.81
617.25	16761.6
617.445	17066.75
617.641	17195.77
617.836	18041.58
618.031	18318.06
618.226	18653.92
618.421	19104.48
618.616	19925.71
618.811	20026.06
619.006	20619.97
619.201	20814.53
619.396	21678.77
619.591	21824.18
619.786	22477.48
619.981	22655.65
620.176	23687.83
620.371	23696.02
620.566	23982.74
620.761	24767.11
620.956	25459.32
621.151	25909.88
621.346	26192.5
621.541	26733.16
621.735	27554.4
621.93	27585.12
622.125	28168.79
622.32	28426.83
622.515	29076.04
622.709	29903.42
622.904	30251.57
623.099	30624.3
623.294	31480.35
623.488	31586.85
623.683	32375.31
623.878	32807.44
624.072	33303.04
624.267	33835.52
624.462	34386.42
624.656	34705.9
624.851	35308.01
625.046	35992.03
625.24	36209.11
625.435	36694.48
625.629	37149.13
625.824	37720.51
626.018	38500.79
626.213	37982.65
626.407	39197.1
626.602	39518.63
626.796	40194.46
626.991	40047
627.185	40624.53
627.38	40845.71
627.574	40954.26
627.768	41286.03
627.963	41177.48
628.157	41384.33
628.352	41881.98
628.546	41320.84
628.74	41750.91
628.935	41347.47
629.129	41838.98
629.323	40974.73
629.517	41265.55
629.712	40653.2
629.906	40659.35
630.1	39799.2
630.294	39989.66
630.489	39545.25
630.683	39385.51
630.877	38105.53
631.071	37296.58
631.265	37401.03
631.459	36354.52
631.653	35869.15
631.848	35301.86
632.042	33843.71
632.236	33774.08
632.43	32305.68
632.624	31717.92
632.818	30786.09
633.012	29602.36
633.206	28723.79
633.4	27912.79
633.594	26942.05
633.788	26112.63
633.982	25457.28
634.176	24545.93
634.369	23530.14
634.563	22696.61
634.757	21549.75
634.951	21064.38
635.145	20212.43
635.339	19342.04
635.533	18705.12
635.726	17976.05
635.92	17058.56
636.114	16442.12
636.308	15883.02
636.501	15233.82
636.695	14426.92
636.889	13816.62
637.083	13249.33
637.276	12667.71
637.47	12194.63
637.664	11838.28
637.857	11199.32
638.051	10752.86
638.244	10318.69
638.438	9919.34
638.632	9773.93
638.825	9061.24
639.019	8860.54
639.212	8567.68
639.406	8242.05
639.599	8045.45
639.793	7652.24
639.986	7254.93
640.18	6960.02
640.373	6613.92
640.567	6368.16
640.76	6210.47
640.954	6073.25
641.147	5739.43
641.34	5553.07
641.534	5397.42
641.727	5116.85
641.92	4922.29
642.114	4725.69
642.307	4506.56
642.5	4432.83
642.694	4105.15
642.887	4121.54
643.08	4041.67
643.273	3785.67
643.467	3677.13
643.66	3371.98
643.853	3245.01
644.046	3089.36
644.239	3167.18
644.432	3081.17
644.626	2751.45
644.819	2685.91
645.012	2597.85
645.205	2659.29
645.398	2548.7
645.591	2405.34
645.784	2216.93
645.977	2130.91
646.17	2085.86
646.363	1915.87
646.556	1942.5
646.749	1825.76
646.942	1893.35
647.135	1819.62
647.328	1623.02
647.521	1627.11
647.714	1569.77
647.907	1489.9
648.099	1473.51
648.292	1358.83
648.485	1373.16
648.678	1264.62
648.871	1178.61
649.064	1147.89
649.256	1080.3
649.449	1145.84
649.642	1000.43
649.835	953.33
650.027	975.86
650.22	1086.45
650.413	902.13
650.605	959.47
650.798	869.36
650.991	824.31
651.183	816.12
651.376	719.86
651.568	777.2
651.761	717.81
651.954	783.35
652.146	648.18
652.339	752.63
652.531	705.53
652.724	644.09
652.916	549.88
653.109	355.32
653.301	607.22
653.494	603.13
653.686	504.82
653.879	619.51
654.071	654.33
654.263	494.58
654.456	494.58
654.648	486.39
654.84	484.34
655.033	490.49
655.225	590.84
655.417	306.17
655.61	547.83
655.802	304.12
655.994	515.06
656.186	375.8
656.379	463.86
656.571	308.22
656.763	351.23
656.955	250.88
657.148	400.38
657.34	381.95
657.532	357.37
657.724	375.8
657.916	318.46
658.108	412.67
658.3	271.36
658.492	375.8
658.684	218.11
658.876	316.41
659.068	265.21
659.26	181.25
659.452	179.2
659.644	320.51
659.836	359.42
660.028	316.41
660.22	263.16
660.412	222.2
660.604	246.78
660.796	216.06
660.988	220.16
661.18	168.96
661.372	285.69
661.563	144.38
661.755	214.01
661.947	189.44
662.139	175.1
662.331	173.05
662.522	175.1
662.714	195.58
662.906	138.24
663.097	91.13
663.289	130.05
663.481	99.33
663.673	271.36
663.864	168.96
664.056	226.3
664.247	115.71
664.439	230.4
664.631	205.82
664.822	228.35
665.014	150.53
665.205	117.76
665.397	125.95
665.588	226.3
665.78	187.39
665.971	187.39
666.163	140.29
666.354	214.01
666.546	183.29
666.737	224.25
666.929	89.09
667.12	109.57
667.311	189.44
667.503	168.96
667.694	250.88
667.885	179.2
668.077	238.59
668.268	103.42
668.459	181.25
668.651	111.61
668.842	205.82
669.033	115.71
669.224	128
669.416	320.51
669.607	187.39
669.798	146.43
669.989	244.73
670.18	187.39
670.371	177.15
670.563	142.33
670.754	205.82
670.945	293.88
671.136	197.63
671.327	105.47
671.518	267.26
671.709	230.4
671.9	261.12
672.091	238.59
672.282	201.72
672.473	209.92
672.664	80.89
672.855	171.01
673.046	207.87
673.237	248.83
673.428	267.26
673.619	279.55
673.809	171.01
674	316.41
674.191	242.68
674.382	205.82
674.573	150.53
674.764	140.29
674.954	252.92
675.145	252.92
675.336	205.82
675.527	115.71
675.717	185.34
675.908	181.25
676.099	132.09
676.289	197.63
676.48	109.57
676.671	267.26
676.861	181.25
677.052	193.53
677.243	261.12
677.433	97.28
677.624	259.07
677.814	304.12
678.005	183.29
678.195	277.5
678.386	232.44
678.576	265.21
678.767	195.58
678.957	291.84
679.148	359.42
679.338	361.47
679.529	230.4
679.719	242.68
679.909	316.41
680.1	304.12
680.29	353.27
680.481	115.71
680.671	381.95
680.861	279.55
681.052	289.79
681.242	277.5
681.432	308.22
681.622	293.88
681.813	209.92
682.003	336.89
682.193	328.7
682.383	320.51
682.573	291.84
682.764	287.74
682.954	351.23
683.144	437.24
683.334	287.74
683.524	345.08
683.714	324.6
683.904	330.75
684.094	291.84
684.284	316.41
684.474	439.29
684.664	381.95
684.854	398.33
685.044	377.85
685.234	353.27
685.424	349.18
685.614	345.08
685.804	498.68
685.994	347.13
686.184	351.23
686.374	435.19
686.564	334.84
686.753	300.03
686.943	330.75
687.133	343.03
687.323	302.08
687.513	369.66
687.702	306.17
687.892	334.84
688.082	318.46
688.272	351.23
688.461	359.42
688.651	551.93
688.841	367.61
689.03	308.22
689.22	347.13
689.41	418.81
689.599	414.71
689.789	332.79
689.979	431.1
690.168	291.84
690.358	353.27
690.547	353.27
690.737	355.32
690.926	422.91
691.116	291.84
691.305	441.34
691.495	322.56
691.684	185.34
691.874	353.27
692.063	232.44
692.252	328.7
692.442	437.24
692.631	242.68
692.82	345.08
693.01	351.23
693.199	326.65
693.388	353.27
693.578	377.85
693.767	332.79
693.956	367.61
694.146	369.66
694.335	340.99
694.524	275.45
694.713	402.43
694.902	287.74
695.092	254.97
695.281	369.66
695.47	326.65
695.659	324.6
695.848	361.47
696.037	263.16
696.226	431.1
696.415	338.94
696.604	365.56
696.793	392.19
696.982	250.88
697.171	414.71
697.36	248.83
697.549	355.32
697.738	257.02
697.927	300.03
698.116	244.73
698.305	328.7
698.494	261.12
698.683	386.04
698.872	390.14
699.061	328.7
699.25	312.32
699.438	375.8
699.627	269.31
699.816	461.82
700.005	183.29
700.193	263.16
700.382	287.74
700.571	390.14
700.76	338.94
700.948	420.86
701.137	302.08
701.326	373.75
701.514	267.26
701.703	273.4
701.892	244.73
702.08	457.72
702.269	250.88
702.457	271.36
702.646	320.51
702.834	263.16
703.023	328.7
703.212	433.15
703.4	343.03
703.589	369.66
703.777	279.55
703.965	201.72
704.154	320.51
704.342	279.55
704.531	361.47
704.719	328.7
704.907	402.43
705.096	263.16
705.284	304.12
705.472	336.89
705.661	336.89
705.849	429.05
706.037	396.28
706.226	312.32
706.414	279.55
706.602	310.27
706.79	340.99
706.979	279.55
707.167	349.18
707.355	291.84
707.543	400.38
707.731	279.55
707.919	345.08
708.107	351.23
708.296	195.58
708.484	271.36
708.672	328.7
708.86	363.51
709.048	261.12
709.236	267.26
709.424	353.27
709.612	312.32
709.8	238.59
709.988	328.7
710.176	398.33
710.364	377.85
710.551	310.27
710.739	310.27
710.927	345.08
711.115	349.18
711.303	424.95
711.491	457.72
711.679	291.84
711.866	359.42
712.054	304.12
712.242	318.46
712.43	414.71
712.617	267.26
712.805	406.52
712.993	291.84
713.181	195.58
713.368	404.47
713.556	377.85
713.744	351.23
713.931	474.1
714.119	336.89
714.306	283.64
714.494	340.99
714.682	254.97
714.869	291.84
715.057	328.7
715.244	203.77
715.432	429.05
715.619	269.31
715.807	357.37
715.994	242.68
716.182	353.27
716.369	453.63
716.556	361.47
716.744	263.16
716.931	230.4
717.119	359.42
717.306	267.26
717.493	396.28
717.681	334.84
717.868	273.4
718.055	414.71
718.242	361.47
718.43	377.85
718.617	396.28
718.804	336.89
718.991	447.48
719.179	361.47
719.366	357.37
719.553	435.19
719.74	324.6
719.927	291.84
720.114	314.36
720.301	318.46
720.488	279.55
720.676	377.85
720.863	361.47
721.05	488.44
721.237	422.91
721.424	361.47
721.611	416.76
721.798	295.93
721.985	373.75
722.172	293.88
722.358	320.51
722.545	463.86
722.732	324.6
722.919	484.34
723.106	420.86
723.293	404.47
723.48	494.58
723.667	328.7
723.853	455.67
724.04	414.71
724.227	461.82
724.414	386.04
724.6	402.43
724.787	474.1
724.974	398.33
725.161	431.1
725.347	287.74
725.534	365.56
725.72	404.47
725.907	422.91
726.094	484.34
726.28	308.22
726.467	345.08
726.653	300.03
726.84	504.82
727.027	523.26
727.213	359.42
727.4	472.06
727.586	457.72
727.773	310.27
727.959	402.43
728.145	439.29
728.332	410.62
728.518	435.19
728.705	435.19
728.891	408.57
729.077	394.23
729.264	326.65
729.45	527.35
729.636	513.02
729.823	422.91
730.009	578.55
730.195	459.77
730.382	433.15
730.568	392.19
730.754	422.91
730.94	486.39
731.126	492.54
731.313	427
731.499	367.61
731.685	439.29
731.871	424.95
732.057	365.56
732.243	523.26
732.429	361.47
732.615	500.73
732.801	537.59
732.987	474.1
733.173	523.26
733.359	383.99
733.545	500.73
733.731	551.93
733.917	592.89
734.103	465.91
734.289	422.91
734.475	386.04
734.661	607.22
734.847	416.76
735.033	431.1
735.219	537.59
735.404	406.52
735.59	396.28
735.776	467.96
735.962	445.43
736.148	510.97
736.333	439.29
736.519	449.53
736.705	541.69
736.89	418.81
737.076	506.87
737.262	427
737.447	459.77
737.633	402.43
737.819	484.34
738.004	386.04
738.19	455.67
738.375	504.82
738.561	545.78
738.747	539.64
738.932	414.71
739.118	656.37
739.303	508.92
739.489	463.86
739.674	353.27
739.859	416.76
740.045	443.39
740.23	433.15
740.416	250.88
740.601	494.58
740.786	470.01
740.972	451.58
741.157	455.67
741.342	386.04
741.528	402.43
741.713	506.87
741.898	459.77
742.084	386.04
742.269	478.2
742.454	416.76
742.639	631.8
742.824	398.33
743.01	496.63
743.195	545.78
743.38	467.96
743.565	414.71
743.75	465.91
743.935	484.34
744.12	537.59
744.305	295.93
744.49	424.95
744.675	459.77
744.86	424.95
745.045	547.83
745.23	441.34
745.415	457.72
745.6	498.68
745.785	406.52
745.97	498.68
746.155	455.67
746.34	484.34
746.525	418.81
746.71	480.25
746.895	345.08
747.079	353.27
747.264	406.52
747.449	390.14
747.634	410.62
747.819	480.25
748.003	361.47
748.188	400.38
748.373	408.57
748.557	422.91
748.742	383.99
748.927	369.66
749.111	408.57
749.296	394.23
749.481	347.13
749.665	351.23
749.85	363.51
750.034	410.62
750.219	431.1
750.404	347.13
750.588	429.05
750.773	287.74
750.957	353.27
751.141	398.33
751.326	371.71
751.51	269.31
751.695	351.23
751.879	404.47
752.064	435.19
752.248	302.08
752.432	424.95
752.617	453.63
752.801	336.89
752.985	304.12
753.17	381.95
753.354	363.51
753.538	300.03
753.722	357.37
753.907	359.42
754.091	363.51
754.275	361.47
754.459	234.49
754.643	328.7
754.828	390.14
755.012	386.04
755.196	275.45
755.38	332.79
755.564	209.92
755.748	285.69
755.932	377.85
756.116	379.9
756.3	353.27
756.484	269.31
756.668	386.04
756.852	232.44
757.036	240.64
757.22	291.84
757.404	252.92
757.588	285.69
757.772	328.7
757.956	205.82
758.14	379.9
758.323	228.35
758.507	259.07
758.691	209.92
758.875	406.52
759.059	287.74
759.242	205.82
759.426	248.83
759.61	302.08
759.794	214.01
759.977	320.51
760.161	416.76
760.345	263.16
760.528	318.46
760.712	240.64
760.895	230.4
761.079	283.64
761.263	224.25
761.446	158.72
761.63	203.77
761.813	273.4
761.997	109.57
762.18	203.77
762.364	263.16
762.547	123.9
762.731	175.1
762.914	138.24
763.098	171.01
763.281	191.49
763.464	209.92
763.648	173.05
763.831	154.62
764.015	162.81
764.198	197.63
764.381	207.87
764.564	154.62
764.748	236.54
764.931	216.06
765.114	158.72
765.297	222.2
765.481	156.67
765.664	187.39
765.847	136.19
766.03	201.72
766.213	199.68
766.397	220.16
766.58	74.75
766.763	267.26
766.946	211.96
767.129	130.05
767.312	156.67
767.495	113.66
767.678	179.2
767.861	230.4
768.044	189.44
768.227	138.24
768.41	166.91
768.593	146.43
768.776	95.23
768.959	160.77
769.142	242.68
769.324	148.48
769.507	132.09
769.69	181.25
769.873	134.14
770.056	347.13
770.239	132.09
770.421	252.92
770.604	230.4
770.787	193.53
770.97	197.63
771.152	76.8
771.335	259.07
771.518	123.9
771.7	246.78
771.883	164.86
772.066	89.09
772.248	136.19
772.431	218.11
772.613	220.16
772.796	162.81
772.978	187.39
773.161	244.73
773.343	128
773.526	105.47
773.708	84.99
773.891	58.37
774.073	21.5
774.256	58.37
774.438	261.12
774.621	132.09
774.803	150.53
774.985	103.42
775.168	199.68
775.35	164.86
775.532	144.38
775.715	113.66
775.897	154.62
776.079	39.94
776.261	148.48
776.444	121.85
776.626	211.96
776.808	156.67
776.99	76.8
777.173	70.65
777.355	78.85
777.537	146.43
777.719	56.32
777.901	87.04
778.083	136.19
778.265	56.32
778.447	111.61
778.629	138.24
778.811	66.56
778.993	156.67
779.175	171.01
779.357	103.42
779.539	121.85
779.721	107.52
779.903	41.98
780.085	87.04
780.267	152.57
780.449	68.61
780.631	105.47
780.812	189.44
780.994	119.81
781.176	134.14
781.358	89.09
781.54	87.04
781.721	74.75
781.903	209.92
782.085	56.32
782.267	140.29
782.448	52.22
782.63	-27.65
782.812	105.47
782.993	78.85
783.175	203.77
783.357	62.46
783.538	119.81
783.72	62.46
783.901	115.71
784.083	130.05
784.264	101.37
784.446	76.8
784.627	-25.6
784.809	189.44
784.99	-1.02
785.172	173.05
785.353	82.94
785.535	148.48
785.716	-17.41
785.897	3.07
786.079	-33.79
786.26	78.85
786.441	105.47
786.623	3.07
786.804	87.04
786.985	37.89
787.167	60.42
787.348	39.94
787.529	-23.55
787.71	179.2
787.891	115.71
788.073	23.55
788.254	-11.26
788.435	201.72
788.616	50.18
788.797	-7.17
788.978	50.18
789.159	-7.17
789.34	35.84
789.522	48.13
789.703	25.6
789.884	84.99
790.065	107.52
790.246	160.77
790.427	-5.12
790.607	140.29
790.788	60.42
790.969	9.22
791.15	82.94
791.331	3.07
791.512	25.6
791.693	-7.17
791.874	115.71
792.054	189.44
792.235	156.67
792.416	29.7
792.597	58.37
792.778	74.75
792.958	136.19
793.139	29.7
793.32	-7.17
793.5	-7.17
793.681	181.25
793.862	123.9
794.042	11.26
794.223	-7.17
794.404	9.22
794.584	-19.46
794.765	48.13
794.945	17.41
795.126	78.85
795.306	80.89
795.487	23.55
795.667	-31.74
795.848	23.55
796.028	15.36
796.209	9.22
796.389	105.47
796.57	-76.8
796.75	-9.22
796.93	-41.98
797.111	64.51
797.291	-15.36
797.471	62.46
797.652	15.36
797.832	-44.03
798.012	132.09
798.192	46.08
798.373	15.36
798.553	50.18
798.733	109.57
798.913	-7.17
799.093	7.17
799.274	-3.07
799.454	60.42
799.634	82.94
799.814	99.33
799.994	41.98
800.174	48.13
800.354	11.26
800.534	-60.42
800.714	123.9
800.894	-37.89
801.074	-3.07
801.254	-1.02
801.434	138.24
801.614	91.13
801.794	-64.51
801.974	1678.31
802.154	-19.46
802.334	140.29
802.514	-62.46
802.693	70.65
802.873	9.22
803.053	158.72
803.233	1.02
803.413	-11.26
803.592	46.08
803.772	-56.32
803.952	48.13
804.131	-7.17
804.311	89.09
804.491	-23.55
804.67	25.6
804.85	-1.02
805.03	74.75
805.209	66.56
805.389	11.26
805.568	-66.56
805.748	62.46
805.928	74.75
806.107	56.32
806.287	48.13
806.466	5.12
806.646	-11.26
806.825	39.94
807.004	37.89
807.184	15.36
807.363	-7.17
807.543	-13.31
807.722	-46.08
807.901	25.6
808.081	91.13
808.26	-82.94
808.439	68.61
808.619	3.07
808.798	-39.94
808.977	74.75
809.156	7.17
809.336	-23.55
809.515	89.09
809.694	-29.7
809.873	19.46
810.052	66.56
810.231	121.85
810.411	-11.26
810.59	60.42
810.769	74.75
810.948	78.85
811.127	23.55
811.306	5.12
811.485	-17.41
811.664	41.98
811.843	64.51
812.022	-31.74
812.201	39.94
812.38	-5.12
812.559	-9.22
812.737	84.99
812.916	-150.53
813.095	-56.32
813.274	54.27
813.453	64.51
813.632	9.22
813.811	70.65
813.989	-70.65
814.168	72.7
814.347	74.75
814.526	-7.17
814.704	115.71
814.883	74.75
815.062	31.74
815.24	-23.55
815.419	-35.84
815.598	-27.65
815.776	-9.22
815.955	1.02
816.133	-78.85
816.312	-31.74
816.49	-80.89
816.669	21.5
816.847	33.79
817.026	-5.12
817.204	5.12
817.383	-1.02
817.561	-66.56
817.74	17.41
817.918	-1.02
818.097	-31.74
818.275	-50.18
818.453	50.18
818.632	72.7
818.81	33.79
818.988	5.12
819.167	23.55
819.345	-56.32
819.523	-74.75
819.701	25.6
819.879	138.24
820.058	80.89
820.236	9.22
820.414	-1.02
820.592	29.7
820.77	-29.7
820.948	-15.36
821.127	-101.37
821.305	62.46
821.483	-109.57
821.661	48.13
821.839	-44.03
822.017	-93.18
822.195	-138.24
822.373	78.85
822.551	-64.51
822.729	84.99
822.907	29.7
823.085	1.02
823.262	7.17
823.44	-48.13
823.618	-52.22
823.796	-9.22
823.974	-3.07
824.152	-29.7
824.329	-35.84
824.507	89.09
824.685	121.85
824.863	-15.36
825.04	31.74
825.218	9.22
825.396	-31.74
825.574	15.36
825.751	13.31
825.929	117.76
826.107	-72.7
826.284	15.36
826.462	-23.55
826.639	-7.17
826.817	-48.13
826.994	60.42
827.172	-97.28
827.349	99.33
827.527	13.31
827.704	50.18
827.882	82.94
828.059	3.07
828.237	-35.84
828.414	107.52
828.591	-113.66
828.769	-60.42
828.946	-78.85
829.124	9.22
829.301	37.89
829.478	-19.46
829.655	21.5
829.833	68.61
830.01	-56.32
830.187	39.94
830.364	35.84
830.542	60.42
830.719	123.9
830.896	-15.36
831.073	54.27
831.25	80.89
831.427	50.18
831.604	19.46
831.782	-7.17
831.959	31.74
832.136	-39.94
832.313	17.41
832.49	31.74
832.667	-13.31
832.844	-74.75
833.021	154.62
833.198	-3.07
833.374	7.17
833.551	95.23
833.728	46.08
833.905	1.02
834.082	-93.18
834.259	15.36
834.436	103.42
834.612	-9.22
834.789	27.65
834.966	5.12
835.143	-15.36
835.319	-60.42
835.496	-41.98
835.673	3.07
835.85	105.47
836.026	60.42
836.203	50.18
836.38	1.02
836.556	-48.13
836.733	-52.22
836.909	68.61
837.086	-17.41
837.262	9.22
837.439	9.22
837.616	50.18
837.792	-52.22
837.968	66.56
838.145	-64.51
838.321	33.79
838.498	-1.02
838.674	23.55
838.851	-19.46
839.027	-74.75
839.203	-17.41
839.38	-9.22
839.556	-50.18
839.732	44.03
839.909	-37.89
840.085	17.41
840.261	-56.32
840.437	-31.74
840.614	-15.36
840.79	89.09
840.966	-23.55
841.142	35.84
841.318	-52.22
841.494	37.89
841.671	52.22
841.847	-93.18
842.023	-29.7
842.199	31.74
842.375	35.84
842.551	-113.66
842.727	-54.27
842.903	125.95
843.079	-56.32
843.255	103.42
843.431	-33.79
843.607	54.27
843.783	-142.33
843.959	5.12
844.134	-52.22
844.31	82.94
844.486	-35.84
844.662	-27.65
844.838	1.02
845.013	1.02
845.189	41.98
845.365	37.89
845.541	-39.94
845.716	91.13
845.892	56.32
846.068	9.22
846.244	-70.65
846.419	7.17
846.595	-15.36
846.77	-29.7
846.946	119.81
847.122	-48.13
847.297	-3.07
847.473	101.37
847.648	-54.27
847.824	7.17
847.999	-52.22
848.175	52.22
848.35	29.7
848.526	29.7
848.701	91.13
848.876	41.98
849.052	103.42
849.227	25.6
849.403	-56.32
849.578	-60.42
849.753	25.6
849.929	-9.22
850.104	-66.56
850.279	33.79
850.454	-23.55
850.63	78.85
850.805	44.03
850.98	50.18
851.155	11.26
851.33	1.02
851.505	7.17
851.681	21.5
851.856	-19.46
852.031	19.46
852.206	27.65
852.381	-5.12
852.556	39.94
852.731	-3.07
852.906	-37.89
853.081	-31.74
853.256	84.99
853.431	11.26
853.606	-35.84
853.781	-21.5
853.956	-39.94
854.131	62.46
854.305	15.36
854.48	21.5
854.655	-91.13
854.83	1.02
855.005	-15.36
855.18	31.74
855.354	9.22
855.529	1.02
855.704	-35.84
855.879	7.17
856.053	-35.84
856.228	82.94
856.403	-23.55
856.577	66.56
856.752	-44.03
856.926	-37.89
857.101	17.41
857.276	-80.89
857.45	19.46
857.625	99.33
857.799	39.94
857.974	58.37
858.148	-25.6
858.323	46.08
858.497	-31.74
858.672	-41.98
858.846	-60.42
859.02	50.18
859.195	-9.22
859.369	37.89
859.543	15.36
859.718	-56.32
859.892	103.42
860.066	111.61
860.241	-29.7
860.415	-15.36
860.589	-1.02
860.763	35.84
860.938	-39.94
861.112	13.31
861.286	-93.18
861.46	23.55
861.634	-46.08
861.808	87.04
861.982	-39.94
862.157	-70.65
862.331	-41.98
862.505	-41.98
862.679	-35.84
862.853	-64.51
863.027	-1.02
863.201	111.61
863.375	-41.98
863.549	13.31
863.722	17.41
863.896	64.51
864.07	-97.28
864.244	-13.31
864.418	13.31
864.592	-17.41
864.766	-56.32
864.939	-41.98
865.113	-3.07
865.287	74.75
865.461	-144.38
865.634	66.56
865.808	-60.42
865.982	31.74
866.156	-62.46
866.329	-62.46
866.503	-21.5
866.676	25.6
866.85	29.7
867.024	-56.32
867.197	95.23
867.371	37.89
867.544	-7.17
867.718	-97.28
867.891	84.99
868.065	-105.47
868.238	27.65
868.412	105.47
868.585	1.02
868.759	-123.9
868.932	-70.65
869.105	-64.51
869.279	66.56
869.452	-72.7
869.625	-27.65
869.799	-39.94
869.972	-68.61
870.145	-33.79
870.319	23.55
870.492	-37.89
870.665	-80.89
870.838	-121.85
871.011	-72.7
871.185	-44.03
871.358	-58.37
871.531	25.6
871.704	1.02
871.877	-23.55
872.05	48.13
872.223	-29.7
872.396	29.7
872.569	54.27
872.742	-29.7
872.915	25.6
873.088	5.12
873.261	-50.18
873.434	9.22
873.607	-5.12
873.78	62.46
873.953	-62.46
874.126	-13.31
874.299	37.89
874.471	-72.7
874.644	48.13
874.817	7.17
874.99	87.04
875.163	-27.65
875.335	25.6
875.508	5.12
875.681	128
875.853	-31.74
876.026	29.7
876.199	89.09
876.371	33.79
876.544	9.22
876.717	-21.5
876.889	-58.37
877.062	50.18
877.234	-15.36
877.407	-1.02
877.579	-27.65
877.752	-3.07
877.924	44.03
878.097	66.56
878.269	-56.32
878.442	37.89
878.614	1.02
878.786	5.12
878.959	27.65
879.131	23.55
879.303	-97.28
879.476	9.22
879.648	35.84
879.82	-58.37
879.993	-74.75
880.165	41.98
880.337	-56.32
880.509	44.03
880.681	9.22
880.854	-50.18
881.026	70.65
881.198	39.94
881.37	-101.37
881.542	-31.74
881.714	-3.07
881.886	-97.28
882.058	46.08
882.23	-31.74
882.402	37.89
882.574	78.85
882.746	41.98
882.918	46.08
883.09	25.6
883.262	33.79
883.434	17.41
883.606	-84.99
883.778	-9.22
883.95	25.6
884.122	41.98
884.293	29.7
884.465	95.23
884.637	46.08
884.809	-91.13
884.98	-7.17
885.152	52.22
885.324	13.31
885.496	-27.65
885.667	-101.37
885.839	-97.28
886.011	113.66
886.182	-3.07
886.354	107.52
886.525	52.22
886.697	5.12
886.869	-31.74
887.04	-58.37
887.212	44.03
887.383	115.71
887.555	33.79
887.726	-84.99
887.897	-60.42
888.069	-9.22
888.24	54.27
888.412	-23.55
888.583	-89.09
888.754	-23.55
888.926	-23.55
889.097	-21.5
889.268	-89.09
889.44	-13.31
889.611	-46.08
889.782	-15.36
889.953	-93.18
890.125	146.43
890.296	-60.42
890.467	25.6
890.638	-17.41
890.809	-27.65
890.98	-35.84
891.151	48.13
891.323	80.89
891.494	-23.55
891.665	-17.41
891.836	15.36
892.007	11.26
892.178	35.84
892.349	33.79
892.52	11.26
892.691	44.03
892.862	13.31
893.032	-132.09
893.203	-64.51
893.374	-19.46
893.545	125.95
893.716	-25.6
893.887	33.79
894.057	-121.85
894.228	-29.7
894.399	15.36
894.57	-46.08
894.74	25.6
894.911	-29.7
895.082	1.02
895.253	-35.84
895.423	-50.18
895.594	58.37
895.764	41.98
895.935	-66.56
896.106	115.71
896.276	-138.24
896.447	15.36
896.617	-72.7
896.788	-35.84
896.958	-41.98
897.129	-11.26
897.299	23.55
897.47	52.22
897.64	9.22
897.81	-9.22
897.981	50.18
898.151	-48.13
898.322	21.5
898.492	-35.84
898.662	-56.32
898.832	-23.55
899.003	-44.03
899.173	50.18
899.343	-80.89
899.513	-72.7
