Data from USB4F104151__48__10-25-24-934.txt Node

Date: Wed Feb 26 10:25:24 EST 2025
User: louis
Spectrometer: USB4F10415
Trigger mode: 4
Integration Time (sec): 1.000000E-1
Scans to average: 1
Electric dark correction enabled: true
Nonlinearity correction enabled: false
Boxcar width: 0
XAxis mode: Wavelengths
Number of Pixels in Spectrum: 3648
>>>>>Begin Spectral Data<<<<<
178.204	-422.91
178.424	-422.91
178.644	-422.91
178.864	-392.19
179.084	-379.9
179.304	17.41
179.524	48.13
179.744	-54.27
179.964	60.42
180.184	-7.17
180.404	-13.31
180.624	48.13
180.844	60.42
181.064	-132.09
181.283	-17.41
181.503	-54.27
181.723	44.03
181.943	-76.8
182.163	179.2
182.383	15.36
182.602	11.26
182.822	187.39
183.042	68.61
183.262	23.55
183.482	3.07
183.701	-15.36
183.921	23.55
184.141	-74.75
184.361	58.37
184.58	68.61
184.8	117.76
185.02	11.26
185.239	54.27
185.459	160.77
185.679	168.96
185.898	-66.56
186.118	1.02
186.338	50.18
186.557	183.29
186.777	-17.41
186.997	7.17
187.216	35.84
187.436	183.29
187.655	115.71
187.875	78.85
188.095	56.32
188.314	99.33
188.534	111.61
188.753	-76.8
188.973	78.85
189.192	123.9
189.412	13.31
189.631	19.46
189.851	154.62
190.07	216.06
190.29	-31.74
190.509	-11.26
190.729	11.26
190.948	162.81
191.168	273.4
191.387	134.14
191.607	-31.74
191.826	35.84
192.045	89.09
192.265	44.03
192.484	23.55
192.704	68.61
192.923	-101.37
193.142	306.17
193.362	158.72
193.581	128
193.8	107.52
194.02	33.79
194.239	-13.31
194.458	128
194.678	-17.41
194.897	17.41
195.116	84.99
195.335	62.46
195.555	39.94
195.774	27.65
195.993	80.89
196.212	95.23
196.432	31.74
196.651	7.17
196.87	-19.46
197.089	209.92
197.308	23.55
197.528	78.85
197.747	-54.27
197.966	117.76
198.185	166.91
198.404	-33.79
198.623	130.05
198.842	89.09
199.062	84.99
199.281	97.28
199.5	31.74
199.719	56.32
199.938	37.89
200.157	64.51
200.376	130.05
200.595	119.81
200.814	54.27
201.033	-60.42
201.252	181.25
201.471	62.46
201.69	21.5
201.909	99.33
202.128	3.07
202.347	54.27
202.566	15.36
202.785	-58.37
203.004	31.74
203.223	263.16
203.442	109.57
203.661	-35.84
203.879	41.98
204.098	89.09
204.317	5.12
204.536	105.47
204.755	101.37
204.974	70.65
205.193	21.5
205.411	66.56
205.63	109.57
205.849	121.85
206.068	39.94
206.287	9.22
206.505	146.43
206.724	68.61
206.943	5.12
207.162	-39.94
207.381	23.55
207.599	21.5
207.818	107.52
208.037	-31.74
208.255	142.33
208.474	56.32
208.693	58.37
208.911	39.94
209.13	58.37
209.349	105.47
209.567	130.05
209.786	138.24
210.005	82.94
210.223	66.56
210.442	-46.08
210.661	-7.17
210.879	91.13
211.098	7.17
211.316	66.56
211.535	87.04
211.753	35.84
211.972	101.37
212.191	97.28
212.409	-13.31
212.628	113.66
212.846	39.94
213.065	78.85
213.283	189.44
213.502	56.32
213.72	27.65
213.938	-15.36
214.157	-9.22
214.375	93.18
214.594	37.89
214.812	54.27
215.031	66.56
215.249	-46.08
215.467	25.6
215.686	54.27
215.904	31.74
216.122	72.7
216.341	58.37
216.559	146.43
216.778	56.32
216.996	95.23
217.214	-64.51
217.432	52.22
217.651	37.89
217.869	21.5
218.087	13.31
218.306	-21.5
218.524	-17.41
218.742	3.07
218.96	158.72
219.179	-1.02
219.397	-9.22
219.615	205.82
219.833	93.18
220.051	5.12
220.27	130.05
220.488	54.27
220.706	37.89
220.924	35.84
221.142	48.13
221.36	117.76
221.578	17.41
221.796	52.22
222.015	-25.6
222.233	78.85
222.451	160.77
222.669	-84.99
222.887	140.29
223.105	64.51
223.323	27.65
223.541	15.36
223.759	3.07
223.977	39.94
224.195	130.05
224.413	156.67
224.631	113.66
224.849	60.42
225.067	128
225.285	64.51
225.503	-11.26
225.721	-29.7
225.939	56.32
226.157	46.08
226.375	265.21
226.592	-33.79
226.81	23.55
227.028	140.29
227.246	82.94
227.464	-7.17
227.682	91.13
227.9	41.98
228.117	119.81
228.335	89.09
228.553	82.94
228.771	-7.17
228.989	66.56
229.206	91.13
229.424	-25.6
229.642	11.26
229.86	23.55
230.077	136.19
230.295	19.46
230.513	50.18
230.731	35.84
230.948	252.92
231.166	136.19
231.384	13.31
231.601	9.22
231.819	164.86
232.037	13.31
232.254	39.94
232.472	60.42
232.689	-44.03
232.907	140.29
233.125	52.22
233.342	-41.98
233.56	-19.46
233.777	-60.42
233.995	44.03
234.213	87.04
234.43	82.94
234.648	27.65
234.865	17.41
235.083	64.51
235.3	109.57
235.518	107.52
235.735	115.71
235.953	80.89
236.17	70.65
236.388	-13.31
236.605	142.33
236.822	103.42
237.04	125.95
237.257	70.65
237.475	5.12
237.692	107.52
237.909	158.72
238.127	-15.36
238.344	62.46
238.562	37.89
238.779	17.41
238.996	-9.22
239.214	50.18
239.431	103.42
239.648	48.13
239.865	111.61
240.083	52.22
240.3	-64.51
240.517	9.22
240.735	35.84
240.952	84.99
241.169	60.42
241.386	60.42
241.603	5.12
241.821	15.36
242.038	148.48
242.255	189.44
242.472	-17.41
242.689	82.94
242.907	74.75
243.124	84.99
243.341	13.31
243.558	58.37
243.775	-41.98
243.992	-35.84
244.209	144.38
244.426	95.23
244.643	44.03
244.86	35.84
245.078	134.14
245.295	93.18
245.512	-48.13
245.729	-15.36
245.946	123.9
246.163	15.36
246.38	19.46
246.597	89.09
246.814	68.61
247.031	13.31
247.248	-3.07
247.464	132.09
247.681	76.8
247.898	15.36
248.115	154.62
248.332	11.26
248.549	52.22
248.766	140.29
248.983	66.56
249.2	119.81
249.417	66.56
249.633	-46.08
249.85	113.66
250.067	39.94
250.284	72.7
250.501	46.08
250.717	97.28
250.934	-11.26
251.151	37.89
251.368	66.56
251.585	93.18
251.801	29.7
252.018	-52.22
252.235	142.33
252.451	-17.41
252.668	-1.02
252.885	138.24
253.102	46.08
253.318	-11.26
253.535	21.5
253.752	50.18
253.968	107.52
254.185	-35.84
254.401	-31.74
254.618	56.32
254.835	37.89
255.051	183.29
255.268	-37.89
255.484	33.79
255.701	78.85
255.917	107.52
256.134	-9.22
256.351	-9.22
256.567	11.26
256.784	93.18
257	-39.94
257.217	70.65
257.433	72.7
257.65	54.27
257.866	158.72
258.082	-15.36
258.299	-111.61
258.515	111.61
258.732	31.74
258.948	-21.5
259.165	101.37
259.381	-27.65
259.597	21.5
259.814	23.55
260.03	52.22
260.246	95.23
260.463	113.66
260.679	138.24
260.895	48.13
261.112	97.28
261.328	37.89
261.544	17.41
261.761	107.52
261.977	-31.74
262.193	-70.65
262.409	72.7
262.626	27.65
262.842	5.12
263.058	-52.22
263.274	89.09
263.49	17.41
263.707	109.57
263.923	74.75
264.139	-13.31
264.355	60.42
264.571	95.23
264.787	50.18
265.004	130.05
265.22	74.75
265.436	9.22
265.652	78.85
265.868	128
266.084	-35.84
266.3	44.03
266.516	23.55
266.732	-5.12
266.948	68.61
267.164	35.84
267.38	130.05
267.596	62.46
267.812	138.24
268.028	60.42
268.244	66.56
268.46	60.42
268.676	56.32
268.892	33.79
269.108	64.51
269.324	-58.37
269.54	-39.94
269.756	39.94
269.972	-44.03
270.188	-5.12
270.403	-7.17
270.619	5.12
270.835	113.66
271.051	44.03
271.267	44.03
271.483	19.46
271.698	66.56
271.914	11.26
272.13	17.41
272.346	41.98
272.562	113.66
272.777	142.33
272.993	-3.07
273.209	62.46
273.425	109.57
273.64	-105.47
273.856	154.62
274.072	-31.74
274.287	39.94
274.503	60.42
274.719	1.02
274.934	31.74
275.15	-19.46
275.366	5.12
275.581	-78.85
275.797	56.32
276.012	19.46
276.228	27.65
276.444	93.18
276.659	123.9
276.875	-93.18
277.09	25.6
277.306	-23.55
277.521	119.81
277.737	7.17
277.952	209.92
278.168	44.03
278.383	66.56
278.599	21.5
278.814	91.13
279.03	19.46
279.245	150.53
279.461	138.24
279.676	115.71
279.892	-25.6
280.107	-1.02
280.322	-64.51
280.538	66.56
280.753	1.02
280.969	72.7
281.184	146.43
281.399	113.66
281.615	113.66
281.83	37.89
282.045	-66.56
282.26	25.6
282.476	17.41
282.691	121.85
282.906	44.03
283.122	25.6
283.337	56.32
283.552	50.18
283.767	66.56
283.983	44.03
284.198	44.03
284.413	52.22
284.628	-25.6
284.843	142.33
285.058	39.94
285.274	82.94
285.489	21.5
285.704	35.84
285.919	-11.26
286.134	72.7
286.349	19.46
286.564	70.65
286.779	162.81
286.995	1.02
287.21	-76.8
287.425	99.33
287.64	1.02
287.855	52.22
288.07	-41.98
288.285	179.2
288.5	99.33
288.715	95.23
288.93	-35.84
289.145	29.7
289.36	132.09
289.575	-1.02
289.79	166.91
290.004	23.55
290.219	123.9
290.434	-7.17
290.649	-27.65
290.864	1.02
291.079	48.13
291.294	19.46
291.509	74.75
291.724	48.13
291.938	17.41
292.153	99.33
292.368	109.57
292.583	156.67
292.798	138.24
293.012	50.18
293.227	84.99
293.442	80.89
293.657	11.26
293.871	111.61
294.086	80.89
294.301	228.35
294.516	214.01
294.73	76.8
294.945	-46.08
295.16	39.94
295.374	113.66
295.589	54.27
295.804	-3.07
296.018	60.42
296.233	150.53
296.447	9.22
296.662	-25.6
296.877	173.05
297.091	50.18
297.306	13.31
297.52	74.75
297.735	64.51
297.949	132.09
298.164	-11.26
298.378	97.28
298.593	-39.94
298.807	31.74
299.022	66.56
299.236	144.38
299.451	25.6
299.665	44.03
299.88	19.46
300.094	31.74
300.309	54.27
300.523	48.13
300.737	44.03
300.952	29.7
301.166	56.32
301.381	13.31
301.595	64.51
301.809	64.51
302.024	33.79
302.238	9.22
302.452	158.72
302.667	-66.56
302.881	93.18
303.095	103.42
303.309	21.5
303.524	23.55
303.738	44.03
303.952	-1.02
304.166	48.13
304.381	-66.56
304.595	132.09
304.809	21.5
305.023	97.28
305.237	80.89
305.452	-19.46
305.666	105.47
305.88	128
306.094	93.18
306.308	68.61
306.522	44.03
306.736	56.32
306.95	150.53
307.164	27.65
307.379	91.13
307.593	164.86
307.807	158.72
308.021	33.79
308.235	107.52
308.449	-74.75
308.663	-1.02
308.877	168.96
309.091	103.42
309.305	62.46
309.519	-119.81
309.733	115.71
309.947	9.22
310.161	109.57
310.374	64.51
310.588	158.72
310.802	5.12
311.016	68.61
311.23	99.33
311.444	-33.79
311.658	-1.02
311.872	50.18
312.085	111.61
312.299	123.9
312.513	115.71
312.727	21.5
312.941	-23.55
313.154	48.13
313.368	39.94
313.582	97.28
313.796	89.09
314.009	56.32
314.223	138.24
314.437	3.07
314.651	52.22
314.864	76.8
315.078	-27.65
315.292	-130.05
315.505	35.84
315.719	54.27
315.933	95.23
316.146	39.94
316.36	-66.56
316.573	168.96
316.787	54.27
317.001	134.14
317.214	-48.13
317.428	23.55
317.641	9.22
317.855	9.22
318.068	46.08
318.282	23.55
318.495	156.67
318.709	46.08
318.922	7.17
319.136	224.25
319.349	121.85
319.563	44.03
319.776	134.14
319.99	-27.65
320.203	136.19
320.417	84.99
320.63	125.95
320.843	142.33
321.057	-7.17
321.27	27.65
321.483	103.42
321.697	154.62
321.91	-15.36
322.124	105.47
322.337	62.46
322.55	7.17
322.763	50.18
322.977	99.33
323.19	95.23
323.403	-54.27
323.617	144.38
323.83	154.62
324.043	66.56
324.256	66.56
324.469	-48.13
324.683	130.05
324.896	101.37
325.109	60.42
325.322	-46.08
325.535	134.14
325.748	134.14
325.962	78.85
326.175	74.75
326.388	101.37
326.601	103.42
326.814	66.56
327.027	125.95
327.24	107.52
327.453	-11.26
327.666	70.65
327.879	220.16
328.092	134.14
328.305	-1.02
328.518	19.46
328.731	35.84
328.944	58.37
329.157	80.89
329.37	-7.17
329.583	181.25
329.796	181.25
330.009	-46.08
330.222	105.47
330.435	80.89
330.648	72.7
330.861	103.42
331.073	164.86
331.286	101.37
331.499	80.89
331.712	-19.46
331.925	37.89
332.138	19.46
332.35	119.81
332.563	19.46
332.776	109.57
332.989	-7.17
333.202	-60.42
333.414	101.37
333.627	25.6
333.84	-1.02
334.053	101.37
334.265	103.42
334.478	19.46
334.691	121.85
334.903	46.08
335.116	-7.17
335.329	54.27
335.541	99.33
335.754	226.3
335.966	44.03
336.179	62.46
336.392	23.55
336.604	-21.5
336.817	123.9
337.029	93.18
337.242	95.23
337.454	56.32
337.667	50.18
337.88	103.42
338.092	115.71
338.305	107.52
338.517	7.17
338.729	117.76
338.942	80.89
339.154	-25.6
339.367	-15.36
339.579	154.62
339.792	-48.13
340.004	103.42
340.217	50.18
340.429	107.52
340.641	-13.31
340.854	-19.46
341.066	-39.94
341.278	89.09
341.491	156.67
341.703	25.6
341.915	5.12
342.128	119.81
342.34	60.42
342.552	-5.12
342.764	-21.5
342.977	56.32
343.189	91.13
343.401	128
343.613	-41.98
343.826	37.89
344.038	-46.08
344.25	70.65
344.462	13.31
344.674	68.61
344.886	72.7
345.099	97.28
345.311	84.99
345.523	35.84
345.735	-111.61
345.947	52.22
346.159	130.05
346.371	-13.31
346.583	11.26
346.795	154.62
347.007	7.17
347.219	50.18
347.431	-15.36
347.643	109.57
347.855	89.09
348.067	128
348.279	37.89
348.491	68.61
348.703	130.05
348.915	52.22
349.127	-27.65
349.339	50.18
349.551	56.32
349.763	78.85
349.975	56.32
350.187	78.85
350.399	234.49
350.61	115.71
350.822	-9.22
351.034	64.51
351.246	29.7
351.458	56.32
351.669	66.56
351.881	150.53
352.093	152.57
352.305	123.9
352.517	76.8
352.728	156.67
352.94	89.09
353.152	91.13
353.363	-17.41
353.575	119.81
353.787	148.48
353.999	101.37
354.21	228.35
354.422	-87.04
354.633	-21.5
354.845	39.94
355.057	23.55
355.268	44.03
355.48	58.37
355.692	-13.31
355.903	52.22
356.115	-17.41
356.326	-37.89
356.538	136.19
356.749	25.6
356.961	211.96
357.172	1.02
357.384	11.26
357.595	271.36
357.807	5.12
358.018	64.51
358.23	23.55
358.441	113.66
358.653	64.51
358.864	31.74
359.075	64.51
359.287	89.09
359.498	13.31
359.709	9.22
359.921	130.05
360.132	76.8
360.344	99.33
360.555	25.6
360.766	158.72
360.977	-41.98
361.189	111.61
361.4	64.51
361.611	62.46
361.823	97.28
362.034	-9.22
362.245	-11.26
362.456	91.13
362.667	130.05
362.879	-60.42
363.09	56.32
363.301	109.57
363.512	52.22
363.723	-5.12
363.935	21.5
364.146	68.61
364.357	44.03
364.568	97.28
364.779	-7.17
364.99	179.2
365.201	-58.37
365.412	218.11
365.623	-41.98
365.834	-1.02
366.045	13.31
366.256	27.65
366.467	132.09
366.678	80.89
366.889	50.18
367.1	89.09
367.311	121.85
367.522	52.22
367.733	-7.17
367.944	44.03
368.155	58.37
368.366	119.81
368.577	121.85
368.788	101.37
368.999	-41.98
369.209	9.22
369.42	236.54
369.631	209.92
369.842	140.29
370.053	44.03
370.264	121.85
370.474	3.07
370.685	138.24
370.896	72.7
371.107	50.18
371.317	72.7
371.528	-46.08
371.739	142.33
371.95	89.09
372.16	68.61
372.371	5.12
372.582	-23.55
372.792	87.04
373.003	1.02
373.214	105.47
373.424	78.85
373.635	-21.5
373.846	144.38
374.056	152.57
374.267	13.31
374.477	-1.02
374.688	-54.27
374.898	107.52
375.109	37.89
375.319	44.03
375.53	138.24
375.74	87.04
375.951	39.94
376.161	-1.02
376.372	105.47
376.582	-39.94
376.793	113.66
377.003	58.37
377.214	44.03
377.424	50.18
377.635	66.56
377.845	-31.74
378.055	197.63
378.266	70.65
378.476	128
378.686	95.23
378.897	80.89
379.107	74.75
379.317	35.84
379.528	62.46
379.738	107.52
379.948	-70.65
380.158	144.38
380.369	80.89
380.579	64.51
380.789	39.94
380.999	115.71
381.21	64.51
381.42	173.05
381.63	56.32
381.84	80.89
382.05	80.89
382.261	52.22
382.471	134.14
382.681	-1.02
382.891	121.85
383.101	3.07
383.311	-111.61
383.521	3.07
383.731	60.42
383.941	25.6
384.151	-3.07
384.361	-23.55
384.571	193.53
384.781	78.85
384.991	220.16
385.201	150.53
385.411	113.66
385.621	95.23
385.831	84.99
386.041	72.7
386.251	46.08
386.461	72.7
386.671	27.65
386.881	107.52
387.091	37.89
387.301	54.27
387.511	31.74
387.72	54.27
387.93	99.33
388.14	-87.04
388.35	56.32
388.56	123.9
388.769	123.9
388.979	91.13
389.189	-41.98
389.399	80.89
389.609	134.14
389.818	117.76
390.028	76.8
390.238	113.66
390.447	-21.5
390.657	23.55
390.867	-13.31
391.076	-152.57
391.286	52.22
391.496	70.65
391.705	-41.98
391.915	183.29
392.125	148.48
392.334	82.94
392.544	138.24
392.753	93.18
392.963	-7.17
393.172	78.85
393.382	-54.27
393.591	216.06
393.801	-11.26
394.01	203.77
394.22	93.18
394.429	33.79
394.639	60.42
394.848	68.61
395.058	70.65
395.267	-5.12
395.477	29.7
395.686	82.94
395.895	267.26
396.105	244.73
396.314	60.42
396.524	17.41
396.733	76.8
396.942	209.92
397.152	103.42
397.361	140.29
397.57	82.94
397.78	66.56
397.989	123.9
398.198	218.11
398.407	-3.07
398.617	-13.31
398.826	101.37
399.035	52.22
399.244	128
399.453	3.07
399.663	97.28
399.872	107.52
400.081	-7.17
400.29	136.19
400.499	3.07
400.708	101.37
400.917	17.41
401.127	48.13
401.336	72.7
401.545	279.55
401.754	111.61
401.963	87.04
402.172	-21.5
402.381	-48.13
402.59	132.09
402.799	33.79
403.008	84.99
403.217	50.18
403.426	39.94
403.635	-107.52
403.844	-25.6
404.053	125.95
404.262	84.99
404.471	121.85
404.68	109.57
404.888	41.98
405.097	-1.02
405.306	72.7
405.515	66.56
405.724	48.13
405.933	142.33
406.142	23.55
406.35	224.25
406.559	29.7
406.768	37.89
406.977	142.33
407.185	52.22
407.394	158.72
407.603	-29.7
407.812	37.89
408.02	148.48
408.229	119.81
408.438	39.94
408.646	17.41
408.855	97.28
409.064	136.19
409.272	60.42
409.481	91.13
409.69	23.55
409.898	-27.65
410.107	109.57
410.315	-35.84
410.524	15.36
410.733	89.09
410.941	50.18
411.15	162.81
411.358	203.77
411.567	138.24
411.775	33.79
411.984	23.55
412.192	140.29
412.401	5.12
412.609	214.01
412.818	78.85
413.026	144.38
413.234	66.56
413.443	89.09
413.651	-41.98
413.86	93.18
414.068	117.76
414.276	183.29
414.485	37.89
414.693	150.53
414.901	158.72
415.11	138.24
415.318	39.94
415.526	56.32
415.734	154.62
415.943	125.95
416.151	162.81
416.359	15.36
416.567	140.29
416.776	93.18
416.984	99.33
417.192	234.49
417.4	-54.27
417.608	97.28
417.817	66.56
418.025	119.81
418.233	140.29
418.441	1.02
418.649	-39.94
418.857	70.65
419.065	142.33
419.273	44.03
419.481	74.75
419.689	33.79
419.897	107.52
420.105	-31.74
420.313	132.09
420.521	156.67
420.729	160.77
420.937	37.89
421.145	9.22
421.353	142.33
421.561	189.44
421.769	107.52
421.977	-23.55
422.185	93.18
422.393	-27.65
422.601	146.43
422.809	25.6
423.017	68.61
423.224	62.46
423.432	91.13
423.64	41.98
423.848	101.37
424.056	35.84
424.263	117.76
424.471	-7.17
424.679	134.14
424.887	7.17
425.094	148.48
425.302	103.42
425.51	50.18
425.718	152.57
425.925	121.85
426.133	87.04
426.341	203.77
426.548	60.42
426.756	31.74
426.964	105.47
427.171	39.94
427.379	33.79
427.586	80.89
427.794	166.91
428.001	119.81
428.209	54.27
428.417	138.24
428.624	117.76
428.832	181.25
429.039	154.62
429.247	123.9
429.454	107.52
429.662	300.03
429.869	41.98
430.076	95.23
430.284	140.29
430.491	125.95
430.699	140.29
430.906	232.44
431.114	191.49
431.321	123.9
431.528	168.96
431.736	267.26
431.943	136.19
432.15	144.38
432.358	236.54
432.565	314.36
432.772	23.55
432.979	209.92
433.187	142.33
433.394	187.39
433.601	140.29
433.808	252.92
434.016	218.11
434.223	162.81
434.43	183.29
434.637	230.4
434.844	240.64
435.052	295.93
435.259	287.74
435.466	338.94
435.673	205.82
435.88	355.32
436.087	410.62
436.294	349.18
436.501	388.09
436.708	240.64
436.915	306.17
437.122	377.85
437.329	369.66
437.537	320.51
437.743	363.51
437.95	502.78
438.157	392.19
438.364	400.38
438.571	392.19
438.778	461.82
438.985	443.39
439.192	621.56
439.399	441.34
439.606	490.49
439.813	463.86
440.02	678.9
440.227	697.33
440.433	693.24
440.64	568.31
440.847	474.1
441.054	568.31
441.261	754.68
441.467	576.5
441.674	545.78
441.881	756.72
442.088	713.72
442.294	871.41
442.501	760.82
442.708	828.4
442.914	828.4
443.121	887.79
443.328	846.84
443.534	975.86
443.741	953.33
443.948	865.27
444.154	959.47
444.361	1229.81
444.568	1149.93
444.774	1158.13
444.981	1047.54
445.187	1305.58
445.394	1283.05
445.6	1160.17
445.807	1393.64
446.013	1391.59
446.22	1283.05
446.426	1471.47
446.633	1694.69
446.839	1661.93
447.046	1510.38
447.252	1858.53
447.459	1698.79
447.665	1700.84
447.871	2024.42
448.078	2063.33
448.284	2022.37
448.491	2137.06
448.697	2229.21
448.903	2307.04
449.11	2274.27
449.316	2198.49
449.522	2587.61
449.728	2595.8
449.935	2771.93
450.141	2661.34
450.347	2993.11
450.553	2829.27
450.76	2960.34
450.966	2933.72
451.172	3120.08
451.378	3369.93
451.584	3494.86
451.791	3630.02
451.997	3767.24
452.203	3945.41
452.409	4088.77
452.615	4045.76
452.821	3998.66
453.027	4113.35
453.233	4490.17
453.44	4537.27
453.646	4762.55
453.852	4772.79
454.058	5254.06
454.264	5188.53
454.47	5645.23
454.676	5702.57
454.882	6241.18
455.088	6067.11
455.294	5974.95
455.5	6710.17
455.705	7005.08
455.911	6886.29
456.117	7207.83
456.323	7375.76
456.529	7426.96
456.735	7793.55
456.941	8348.54
457.147	8541.05
457.352	8760.19
457.558	8924.02
457.764	9696.11
457.97	9823.08
458.176	10179.43
458.381	10652.51
458.587	11152.21
458.793	11600.72
458.999	11320.15
459.204	12813.12
459.41	13249.33
459.616	13144.89
459.821	14111.53
460.027	14527.27
460.233	15346.45
460.438	15151.9
460.644	16061.19
460.85	16175.88
461.055	16986.88
461.261	17887.98
461.466	17343.22
461.672	17875.7
461.878	19550.93
462.083	19663.57
462.289	20073.17
462.494	20701.89
462.7	21164.73
462.905	21127.87
463.111	22708.9
463.316	24068.75
463.522	24599.18
463.727	25246.33
463.932	26172.02
464.138	27056.74
464.343	27920.98
464.549	28170.83
464.754	30386.74
464.959	31164.96
465.165	31441.44
465.37	31281.7
465.575	31433.25
465.781	33686.01
465.986	34540.02
466.191	34050.55
466.397	34447.86
466.602	33208.84
466.807	35676.64
467.012	35903.96
467.218	36600.27
467.423	36688.34
467.628	37939.65
467.833	39610.79
468.038	38891.95
468.244	38586.8
468.449	40329.62
468.654	39766.43
468.859	39772.58
469.064	39748
469.269	38416.82
469.474	38844.85
469.679	40378.78
469.885	38922.67
470.09	39471.53
470.295	39625.12
470.5	38607.28
470.705	39043.5
470.91	38261.18
471.115	37288.39
471.32	38179.26
471.525	38271.42
471.73	36944.33
471.935	36665.81
472.139	35570.15
472.344	35308.01
472.549	35572.19
472.754	34750.96
472.959	33630.72
473.164	32621.07
473.369	32473.62
473.574	33292.8
473.778	32309.78
473.983	32053.78
474.188	31433.25
474.393	30208.56
474.598	29667.9
474.802	29411.9
475.007	28910.15
475.212	28525.13
475.417	27169.38
475.621	27148.9
475.826	26620.52
476.031	26284.65
476.235	25666.17
476.44	25733.75
476.645	24996.48
476.849	24922.76
477.054	24474.25
477.259	23835.28
477.463	23868.05
477.668	23147.17
477.872	23128.74
478.077	22508.2
478.282	21703.35
478.486	21867.19
478.691	21357.24
478.895	21435.06
479.1	21289.66
479.304	21029.57
479.509	20175.56
479.713	20751.04
479.918	20288.2
480.122	19555.03
480.326	19778.26
480.531	19735.25
480.735	19272.41
480.94	18928.35
481.144	19876.56
481.348	18596.58
481.553	18946.78
481.757	18186.99
481.961	18617.06
482.166	18844.38
482.37	18285.29
482.574	17865.46
482.778	18000.62
482.983	18381.54
483.187	17674.99
483.391	17767.15
483.595	17302.26
483.8	17238.78
484.004	17185.53
484.208	17224.44
484.412	16929.53
484.616	16798.46
484.821	16565
485.025	16218.89
485.229	16108.3
485.433	15891.21
485.637	16030.48
485.841	15545.11
486.045	15252.25
486.249	15235.86
486.453	14957.34
486.657	14813.98
486.861	14627.62
487.065	14039.85
487.269	14160.68
487.473	13624.11
487.677	13658.93
487.881	13845.29
488.085	13216.57
488.289	13136.7
488.493	12751.68
488.697	13108.02
488.901	12630.85
489.105	12163.91
489.309	12063.56
489.512	12010.31
489.716	11555.66
489.92	11643.73
490.124	11324.24
490.328	11379.54
490.531	11131.73
490.735	10900.31
490.939	10613.6
491.143	10208.1
491.346	10197.86
491.55	10158.95
491.754	9880.43
491.958	9925.48
492.161	9663.34
492.365	9524.08
492.569	9184.12
492.772	9038.71
492.976	9077.62
493.18	9157.49
493.383	8901.5
493.587	8868.73
493.79	8717.18
493.994	8338.3
494.197	8371.07
494.401	8553.34
494.605	8412.03
494.808	8434.56
495.012	8205.19
495.215	8196.99
495.419	8188.8
495.622	7998.34
495.825	8170.37
496.029	7889.8
496.232	8051.59
496.436	7873.42
496.639	8106.88
496.843	7832.46
497.046	8018.82
497.249	8123.27
497.453	7932.81
497.656	7943.05
497.859	7922.57
498.063	8158.08
498.266	8170.37
498.469	7951.24
498.673	7885.7
498.876	8117.12
499.079	8006.53
499.282	8018.82
499.485	8334.21
499.689	8293.25
499.892	8485.76
500.095	8225.67
500.298	8516.48
500.501	8274.82
500.705	8622.97
500.908	8610.68
501.111	8502.14
501.314	8737.66
501.517	8809.34
501.72	8903.54
501.923	8928.12
502.126	9151.35
502.329	9390.96
502.532	9311.09
502.735	9497.46
502.938	9657.2
503.141	9528.17
503.344	9708.4
503.547	9911.14
503.75	9857.9
503.953	10097.51
504.156	10204
504.359	10472.29
504.562	10480.48
504.765	10660.7
504.968	10722.14
505.17	11080.53
505.373	11101.01
505.576	11459.41
505.779	11639.63
505.982	11713.36
506.185	11766.6
506.387	12088.14
506.59	12184.39
506.793	12606.27
506.996	12763.97
507.198	13443.89
507.401	13247.29
507.604	13441.84
507.807	13902.64
508.009	14103.34
508.212	14107.43
508.415	14549.79
508.617	14963.48
508.82	15235.86
509.022	15203.1
509.225	15641.36
509.428	16179.98
509.63	16399.11
509.833	16440.07
510.035	17193.72
510.238	17156.86
510.44	17451.77
510.643	18127.6
510.845	18303.72
511.048	18731.75
511.25	19217.11
511.453	19489.49
511.655	20468.42
511.858	20554.44
512.06	20818.63
512.262	21088.96
512.465	21740.21
512.667	22311.6
512.87	22751.91
513.072	22973.09
513.274	23730.84
513.477	24478.35
513.679	25016.96
513.881	25170.56
514.084	26298.99
514.286	26593.9
514.488	27179.62
514.69	27615.83
514.893	27949.65
515.095	28611.15
515.297	29356.61
515.499	29688.38
515.701	30689.84
515.904	31035.94
516.106	31914.52
516.308	32408.08
516.51	32889.35
516.712	33452.55
516.914	34468.34
517.116	35095.02
517.318	35430.88
517.52	36102.62
517.722	36563.41
517.925	37362.12
518.127	37759.42
518.329	38912.43
518.531	38541.75
518.733	40110.49
518.935	40120.73
519.136	41116.04
519.338	41701.76
519.54	41906.56
519.742	42733.94
519.944	43075.95
520.146	44298.59
520.348	44628.31
520.55	44876.12
520.752	45390.16
520.954	46262.59
521.155	45951.3
521.357	47184.18
521.559	47610.15
521.761	47974.69
521.963	48247.07
522.164	48845.08
522.366	48984.34
522.568	49434.89
522.77	49975.56
522.971	50415.87
523.173	50190.59
523.375	50579.71
523.576	50917.62
523.778	50847.99
523.98	51568.88
524.181	51384.56
524.383	51716.33
524.584	51814.63
524.786	52027.62
524.988	51589.36
525.189	52099.3
525.391	51890.41
525.592	52244.71
525.794	52478.18
525.995	51921.13
526.197	51906.79
526.398	51859.69
526.6	51974.37
526.801	52052.2
527.003	51564.78
527.204	51249.39
527.406	51861.74
527.607	50927.86
527.808	51122.42
528.01	50069.76
528.211	49991.94
528.412	50518.27
528.614	49955.08
528.815	49791.24
529.016	49451.28
529.218	48029.99
529.419	48318.75
529.62	47606.06
529.822	47307.05
530.023	46879.03
530.224	46508.35
530.425	45912.39
530.626	45375.82
530.828	44964.18
531.029	45318.48
531.23	43954.53
531.431	43381.1
531.632	43141.49
531.833	42918.26
532.035	42420.6
532.236	41781.63
532.437	41351.56
532.638	40911.25
532.839	40384.92
533.04	39960.99
533.241	39309.74
533.442	39045.55
533.643	38709.68
533.844	37849.53
534.045	37304.77
534.246	36544.98
534.447	36717.01
534.648	35787.23
534.849	35547.62
535.05	34843.12
535.251	34253.3
535.451	33841.66
535.652	33526.27
535.853	33047.05
536.054	32832.01
536.255	32365.07
536.456	31277.6
536.657	31560.22
536.857	30532.14
537.058	30386.74
537.259	30052.92
537.46	30034.49
537.66	29076.04
537.861	28695.11
538.062	28531.28
538.263	28326.48
538.463	27673.18
538.664	27325.02
538.865	27284.06
539.065	27007.59
539.266	26002.04
539.466	26235.5
539.667	25606.78
539.868	25518.71
540.068	25098.88
540.269	24959.62
540.469	24846.98
540.67	24281.74
540.87	24187.53
541.071	23564.95
541.271	23771.8
541.472	23190.17
541.672	22954.66
541.873	22768.29
542.073	22260.4
542.274	22110.89
542.474	22078.13
542.675	21648.05
542.875	21545.66
543.075	21351.1
543.276	20605.64
543.476	20777.67
543.676	20146.89
543.877	20431.56
544.077	20056.78
544.277	19776.21
544.478	19618.52
544.678	19434.2
544.878	19028.7
545.078	18895.58
545.279	18930.4
545.479	18643.68
545.679	18356.97
545.879	17826.54
546.079	17947.37
546.28	17580.79
546.48	17470.2
546.68	17175.29
546.88	17050.36
547.08	17109.75
547.28	16816.9
547.48	16397.06
547.68	16452.36
547.88	16081.67
548.081	15895.31
548.281	15532.82
548.481	15500.05
548.681	15354.65
548.881	15174.42
549.081	14707.49
549.28	14820.13
549.48	14652.19
549.68	14234.41
549.88	14424.87
550.08	13755.18
550.28	13540.15
550.48	13560.63
550.68	13187.89
550.88	13093.69
551.08	12901.18
551.279	12966.71
551.479	12720.96
551.679	12553.02
551.879	12301.12
552.079	12266.31
552.278	11907.91
552.478	11909.96
552.678	11668.3
552.878	11406.16
553.077	11168.6
553.277	11135.83
553.477	11090.77
553.676	10529.63
553.876	10619.74
554.076	10505.06
554.275	10267.49
554.475	10060.65
554.674	9929.58
554.874	9569.13
555.074	9792.36
555.273	9429.87
555.473	9591.66
555.672	9241.46
555.872	9091.96
556.071	9153.4
556.271	8897.4
556.47	8487.81
556.67	8258.43
556.869	8348.54
557.068	8260.48
557.268	7951.24
557.467	8090.5
557.667	7707.53
557.866	7799.69
558.065	7590.8
558.265	7474.06
558.464	7238.55
558.663	7498.64
558.863	7185.3
559.062	7095.19
559.261	6828.95
559.461	6970.26
559.66	6704.03
559.859	6544.28
560.058	6310.82
560.258	6216.61
560.457	6368.16
560.656	6200.23
560.855	5999.52
561.054	6128.55
561.253	5942.18
561.453	5792.68
561.652	5493.68
561.851	5647.27
562.05	5497.77
562.249	5317.55
562.448	5368.75
562.647	5356.46
562.846	5116.85
563.045	5370.8
563.244	4973.49
563.443	5039.03
563.642	4948.92
563.841	4905.91
564.04	4762.55
564.239	4799.41
564.438	4617.15
564.637	4565.95
564.836	4656.06
565.035	4451.26
565.234	4391.87
565.432	4285.37
565.631	4301.76
565.83	4285.37
566.029	4125.63
566.228	4072.39
566.427	4185.02
566.625	3902.4
566.824	4060.1
567.023	3982.28
567.222	3873.73
567.42	3797.96
567.619	3754.95
567.818	3607.5
568.016	3736.52
568.215	3578.83
568.414	3554.25
568.612	3345.36
568.811	3484.62
569.01	3439.56
569.208	3271.63
569.407	3343.31
569.605	3277.77
569.804	3259.34
570.002	3238.86
570.201	3060.69
570.4	3095.5
570.598	3001.3
570.797	2851.8
570.995	2909.14
571.193	2786.26
571.392	2757.59
571.59	2753.49
571.789	2798.55
571.987	2872.28
572.186	2790.36
572.384	2677.72
572.582	2583.51
572.781	2593.75
572.979	2497.5
573.177	2452.44
573.376	2442.2
573.574	2399.2
573.772	2331.61
573.971	2395.1
574.169	2163.68
574.367	2239.45
574.565	2239.45
574.763	2147.3
574.962	2180.06
575.16	2114.53
575.358	2081.76
575.556	2071.52
575.754	2100.19
575.952	1991.65
576.151	1983.46
576.349	2005.99
576.547	1827.81
576.745	1965.03
576.943	1919.97
577.141	1977.31
577.339	1788.9
577.537	1901.54
577.735	1797.09
577.933	1793
578.131	1633.26
578.329	1702.89
578.527	1684.45
578.725	1592.3
578.923	1559.53
579.121	1571.82
579.319	1434.6
579.516	1528.81
579.714	1817.57
579.912	1485.8
580.11	1317.87
580.308	1315.82
580.506	1391.59
580.704	1301.48
580.901	1358.83
581.099	1530.86
581.297	1334.25
581.495	1389.55
581.692	1305.58
581.89	1424.36
582.088	1367.02
582.285	1342.44
582.483	1260.52
582.681	1194.99
582.878	1201.13
583.076	1154.03
583.274	1244.14
583.471	1362.92
583.669	1192.94
583.866	1100.78
584.064	1092.59
584.262	1010.67
584.459	934.9
584.657	1123.31
584.854	1037.3
585.052	1043.44
585.249	1004.53
585.447	1123.31
585.644	945.14
585.841	1172.46
586.039	992.24
586.236	992.24
586.434	1033.2
586.631	912.37
586.828	873.46
587.026	855.03
587.223	762.87
587.42	850.93
587.618	855.03
587.815	912.37
588.012	781.3
588.21	826.36
588.407	914.42
588.604	916.47
588.801	764.92
588.999	750.58
589.196	875.51
589.393	777.2
589.59	793.59
589.787	738.29
589.984	707.57
590.182	771.06
590.379	678.9
590.576	728.05
590.773	695.29
590.97	750.58
591.167	668.66
591.364	742.39
591.561	719.86
591.758	891.89
591.955	818.16
592.152	736.24
592.349	678.9
592.546	762.87
592.743	629.75
592.94	697.33
593.137	639.99
593.334	762.87
593.531	762.87
593.727	836.6
593.924	758.77
594.121	744.44
594.318	730.1
594.515	740.34
594.712	871.41
594.908	816.12
595.105	750.58
595.302	799.73
595.499	701.43
595.696	965.62
595.892	621.56
596.089	832.5
596.286	795.64
596.482	879.6
596.679	857.07
596.876	809.97
597.072	988.14
597.269	922.61
597.466	930.8
597.662	979.95
597.859	889.84
598.055	1022.96
598.252	1133.55
598.448	1100.78
598.645	1223.66
598.841	1194.99
599.038	1315.82
599.234	1297.39
599.431	1260.52
599.627	1401.83
599.824	1420.27
600.02	1479.66
600.217	1391.59
600.413	1522.66
600.609	1563.62
600.806	1897.44
601.002	1774.56
601.198	1741.8
601.395	1897.44
601.591	1942.5
601.787	1924.07
601.984	2161.63
602.18	2102.24
602.376	2315.23
602.572	2241.5
602.769	2569.18
602.965	2436.06
603.161	2690.01
603.357	2687.96
603.553	2905.04
603.75	2833.36
603.946	2939.86
604.142	3113.94
604.338	3220.43
604.534	3058.64
604.73	3414.99
604.926	3425.23
605.122	3656.65
605.318	3621.83
605.514	3912.64
605.71	3920.84
605.906	4139.97
606.102	4088.77
606.298	4217.79
606.494	4453.31
606.69	4475.84
606.886	4715.45
607.082	4793.27
607.278	4889.53
607.474	5039.03
607.67	5243.82
607.866	5237.68
608.062	5458.86
608.257	5544.88
608.453	5663.66
608.649	6130.59
608.845	5856.17
609.041	6202.27
609.236	6402.97
609.432	6515.61
609.628	6828.95
609.824	6869.91
610.019	7054.23
610.215	7134.1
610.411	7701.39
610.606	7965.57
610.802	7816.07
610.998	8184.71
611.193	8381.31
611.389	8483.71
611.584	8725.37
611.78	8852.34
611.976	9300.85
612.171	9706.35
612.367	9907.05
612.562	10042.21
612.758	10132.33
612.953	10433.38
613.149	10969.94
613.344	11068.25
613.539	11508.56
613.735	11537.23
613.93	12075.85
614.126	12030.79
614.321	12854.08
614.517	13136.7
614.712	13237.05
614.907	13724.46
615.103	13988.65
615.298	14185.26
615.493	14504.74
615.688	14830.37
615.884	15649.55
616.079	15674.13
616.274	16476.93
616.47	16397.06
616.665	16964.35
616.86	17167.1
617.055	17783.54
617.25	18158.31
617.445	18834.14
617.641	19047.13
617.836	19968.72
618.031	20028.11
618.226	20499.14
618.421	20996.8
618.616	21830.32
618.811	21895.86
619.006	22704.81
619.201	22643.37
619.396	23417.5
619.591	23620.25
619.786	24670.86
619.981	24978.05
620.176	25733.75
620.371	25729.66
620.566	26557.03
620.761	27288.16
620.956	28148.31
621.151	28064.34
621.346	29229.63
621.541	29051.46
621.735	30165.56
621.93	30157.36
622.125	30863.91
622.32	31373.86
622.515	32268.82
622.709	32479.76
622.904	33292.8
623.099	33878.52
623.294	34595.31
623.488	34877.93
623.683	35885.53
623.878	35889.63
624.072	37056.97
624.267	37495.24
624.462	37827.01
624.656	38179.26
624.851	39236.01
625.046	39778.72
625.24	40681.88
625.435	40765.84
625.629	41195.92
625.824	41775.49
626.018	42463.61
626.213	42299.77
626.407	43696.49
626.602	43417.96
626.796	43876.71
626.991	44990.8
627.185	44874.07
627.38	45304.14
627.574	45130.06
627.768	45863.24
627.963	46002.5
628.157	45840.71
628.352	46446.91
628.546	46039.36
628.74	46797.11
628.935	46424.38
629.129	46721.34
629.323	46287.17
629.517	45953.35
629.712	45685.06
629.906	45656.39
630.1	44853.59
630.294	44814.68
630.489	43999.58
630.683	43981.15
630.877	43313.52
631.071	42314.11
631.265	41873.79
631.459	40767.89
631.653	40028.57
631.848	39133.61
632.042	38502.84
632.236	38066.62
632.43	36792.78
632.624	35899.87
632.818	34636.27
633.012	33683.97
633.206	32723.47
633.4	31951.38
633.594	30786.09
633.788	29774.39
633.982	28881.48
634.176	27951.7
634.369	26583.66
634.563	25877.11
634.757	24806.02
634.951	24007.31
635.145	22989.47
635.339	22215.34
635.533	21146.3
635.726	20646.6
635.92	19710.68
636.114	18836.19
636.308	18084.59
636.501	17355.51
636.695	16737.02
636.889	16003.85
637.083	15387.41
637.276	14811.93
637.47	14027.56
637.664	13503.28
637.857	13173.56
638.051	12720.96
638.244	12049.22
638.438	11535.18
638.632	11101.01
638.825	10388.32
639.019	10335.07
639.212	9663.34
639.406	9503.6
639.599	9059.19
639.793	8723.32
639.986	8016.77
640.18	8196.99
640.373	7900.04
640.567	7543.69
640.76	7173.01
640.954	7017.36
641.147	6699.93
641.34	6251.42
641.534	6247.33
641.727	6067.11
641.92	5794.73
642.114	5426.09
642.307	5211.06
642.5	5211.06
642.694	4942.77
642.887	4588.47
643.08	4547.51
643.273	4410.3
643.467	4199.36
643.66	4033.47
643.853	3910.6
644.046	3779.53
644.239	3525.58
644.432	3386.32
644.626	3222.48
644.819	3177.42
645.012	3232.72
645.205	2993.11
645.398	2927.57
645.591	2739.16
645.784	2710.49
645.977	2438.11
646.17	2378.72
646.363	2425.82
646.556	2239.45
646.749	2216.93
646.942	2010.08
647.135	2139.1
647.328	1858.53
647.521	1993.7
647.714	1682.41
647.907	1639.4
648.099	1577.96
648.292	1647.59
648.485	1541.1
648.678	1391.59
648.871	1407.98
649.064	1434.6
649.256	1371.12
649.449	1238
649.642	1211.37
649.835	1168.37
650.027	1076.21
650.22	1166.32
650.413	1080.3
650.605	982
650.798	926.71
650.991	840.69
651.183	898.03
651.376	922.61
651.568	990.19
651.761	771.06
651.954	840.69
652.146	742.39
652.339	928.75
652.531	793.59
652.724	662.52
652.916	586.74
653.109	576.5
653.301	687.09
653.494	746.48
653.686	558.07
653.879	746.48
654.071	691.19
654.263	482.3
654.456	578.55
654.648	635.89
654.84	556.02
655.033	476.15
655.225	580.6
655.417	351.23
655.61	635.89
655.802	556.02
655.994	578.55
656.186	383.99
656.379	578.55
656.571	465.91
656.763	441.34
656.955	332.79
657.148	383.99
657.34	443.39
657.532	439.29
657.724	377.85
657.916	416.76
658.108	285.69
658.3	427
658.492	439.29
658.684	306.17
658.876	398.33
659.068	214.01
659.26	168.96
659.452	254.97
659.644	252.92
659.836	330.75
660.028	334.84
660.22	291.84
660.412	306.17
660.604	250.88
660.796	257.02
660.988	308.22
661.18	295.93
661.372	314.36
661.563	310.27
661.755	168.96
661.947	211.96
662.139	207.87
662.331	187.39
662.522	291.84
662.714	113.66
662.906	191.49
663.097	220.16
663.289	197.63
663.481	130.05
663.673	203.77
663.864	162.81
664.056	193.53
664.247	148.48
664.439	314.36
664.631	191.49
664.822	203.77
665.014	220.16
665.205	89.09
665.397	105.47
665.588	277.5
665.78	201.72
665.971	287.74
666.163	123.9
666.354	261.12
666.546	121.85
666.737	117.76
666.929	279.55
667.12	111.61
667.311	166.91
667.503	236.54
667.694	228.35
667.885	168.96
668.077	214.01
668.268	50.18
668.459	64.51
668.651	175.1
668.842	179.2
669.033	62.46
669.224	115.71
669.416	328.7
669.607	123.9
669.798	101.37
669.989	338.94
670.18	173.05
670.371	246.78
670.563	89.09
670.754	211.96
670.945	209.92
671.136	203.77
671.327	115.71
671.518	205.82
671.709	318.46
671.9	211.96
672.091	207.87
672.282	138.24
672.473	187.39
672.664	23.55
672.855	191.49
673.046	171.01
673.237	226.3
673.428	203.77
673.619	285.69
673.809	130.05
674	236.54
674.191	181.25
674.382	103.42
674.573	191.49
674.764	189.44
674.954	201.72
675.145	95.23
675.336	144.38
675.527	107.52
675.717	121.85
675.908	109.57
676.099	277.5
676.289	193.53
676.48	39.94
676.671	132.09
676.861	70.65
677.052	252.92
677.243	128
677.433	99.33
677.624	177.15
677.814	201.72
678.005	187.39
678.195	263.16
678.386	113.66
678.576	175.1
678.767	119.81
678.957	91.13
679.148	246.78
679.338	254.97
679.529	242.68
679.719	187.39
679.909	388.09
680.1	269.31
680.29	250.88
680.481	121.85
680.671	263.16
680.861	244.73
681.052	224.25
681.242	101.37
681.432	234.49
681.622	322.56
681.813	72.7
682.003	224.25
682.193	119.81
682.383	285.69
682.573	185.34
682.764	150.53
682.954	236.54
683.144	322.56
683.334	144.38
683.524	171.01
683.714	248.83
683.904	248.83
684.094	166.91
684.284	197.63
684.474	334.84
684.664	295.93
684.854	230.4
685.044	177.15
685.234	283.64
685.424	240.64
685.614	220.16
685.804	373.75
685.994	257.02
686.184	211.96
686.374	242.68
686.564	238.59
686.753	173.05
686.943	132.09
687.133	336.89
687.323	236.54
687.513	269.31
687.702	179.2
687.892	187.39
688.082	316.41
688.272	300.03
688.461	226.3
688.651	373.75
688.841	240.64
689.03	211.96
689.22	244.73
689.41	232.44
689.599	218.11
689.789	121.85
689.979	248.83
690.168	218.11
690.358	273.4
690.547	242.68
690.737	197.63
690.926	234.49
691.116	351.23
691.305	234.49
691.495	207.87
691.684	173.05
691.874	136.19
692.063	222.2
692.252	226.3
692.442	150.53
692.631	203.77
692.82	187.39
693.01	254.97
693.199	191.49
693.388	300.03
693.578	193.53
693.767	236.54
693.956	224.25
694.146	136.19
694.335	183.29
694.524	175.1
694.713	283.64
694.902	123.9
695.092	125.95
695.281	195.58
695.47	214.01
695.659	123.9
695.848	216.06
696.037	150.53
696.226	283.64
696.415	136.19
696.604	234.49
696.793	250.88
696.982	148.48
697.171	330.75
697.36	105.47
697.549	168.96
697.738	99.33
697.927	160.77
698.116	138.24
698.305	123.9
698.494	205.82
698.683	128
698.872	281.6
699.061	152.57
699.25	171.01
699.438	177.15
699.627	142.33
699.816	316.41
700.005	101.37
700.193	72.7
700.382	224.25
700.571	234.49
700.76	207.87
700.948	236.54
701.137	314.36
701.326	269.31
701.514	138.24
701.703	140.29
701.892	220.16
702.08	343.03
702.269	158.72
702.457	140.29
702.646	158.72
702.834	166.91
703.023	211.96
703.212	152.57
703.4	197.63
703.589	140.29
703.777	130.05
703.965	160.77
704.154	87.04
704.342	111.61
704.531	158.72
704.719	220.16
704.907	226.3
705.096	132.09
705.284	115.71
705.472	142.33
705.661	211.96
705.849	224.25
706.037	232.44
706.226	218.11
706.414	162.81
706.602	148.48
706.79	265.21
706.979	66.56
707.167	216.06
707.355	48.13
707.543	283.64
707.731	154.62
707.919	230.4
708.107	181.25
708.296	93.18
708.484	115.71
708.672	300.03
708.86	179.2
709.048	224.25
709.236	72.7
709.424	205.82
709.612	199.68
709.8	78.85
709.988	144.38
710.176	297.98
710.364	250.88
710.551	144.38
710.739	125.95
710.927	117.76
711.115	171.01
711.303	234.49
711.491	265.21
711.679	142.33
711.866	287.74
712.054	76.8
712.242	171.01
712.43	216.06
712.617	199.68
712.805	300.03
712.993	171.01
713.181	105.47
713.368	236.54
713.556	189.44
713.744	168.96
713.931	416.76
714.119	214.01
714.306	203.77
714.494	140.29
714.682	265.21
714.869	27.65
715.057	142.33
715.244	72.7
715.432	322.56
715.619	142.33
715.807	146.43
715.994	222.2
716.182	177.15
716.369	322.56
716.556	252.92
716.744	103.42
716.931	80.89
717.119	207.87
717.306	171.01
717.493	150.53
717.681	93.18
717.868	128
718.055	238.59
718.242	207.87
718.43	246.78
718.617	302.08
718.804	195.58
718.991	375.8
719.179	293.88
719.366	279.55
719.553	232.44
719.74	224.25
719.927	238.59
720.114	228.35
720.301	271.36
720.488	164.86
720.676	177.15
720.863	347.13
721.05	383.99
721.237	304.12
721.424	293.88
721.611	197.63
721.798	173.05
721.985	80.89
722.172	240.64
722.358	263.16
722.545	254.97
722.732	271.36
722.919	287.74
723.106	205.82
723.293	214.01
723.48	304.12
723.667	179.2
723.853	238.59
724.04	191.49
724.227	357.37
724.414	195.58
724.6	209.92
724.787	302.08
724.974	330.75
725.161	281.6
725.347	185.34
725.534	310.27
725.72	195.58
725.907	300.03
726.094	345.08
726.28	232.44
726.467	250.88
726.653	248.83
726.84	308.22
727.027	451.58
727.213	207.87
727.4	361.47
727.586	287.74
727.773	316.41
727.959	240.64
728.145	279.55
728.332	226.3
728.518	128
728.705	254.97
728.891	330.75
729.077	275.45
729.264	214.01
729.45	295.93
729.636	265.21
729.823	242.68
730.009	338.94
730.195	244.73
730.382	330.75
730.568	230.4
730.754	312.32
730.94	193.53
731.126	257.02
731.313	359.42
731.499	226.3
731.685	367.61
731.871	330.75
732.057	285.69
732.243	326.65
732.429	246.78
732.615	367.61
732.801	306.17
732.987	254.97
733.173	267.26
733.359	261.12
733.545	297.98
733.731	236.54
733.917	371.71
734.103	359.42
734.289	328.7
734.475	304.12
734.661	375.8
734.847	353.27
735.033	345.08
735.219	467.96
735.404	349.18
735.59	304.12
735.776	273.4
735.962	363.51
736.148	451.58
736.333	375.8
736.519	355.32
736.705	345.08
736.89	265.21
737.076	336.89
737.262	254.97
737.447	295.93
737.633	302.08
737.819	474.1
738.004	281.6
738.19	316.41
738.375	371.71
738.561	375.8
738.747	328.7
738.932	252.92
739.118	513.02
739.303	351.23
739.489	404.47
739.674	351.23
739.859	240.64
740.045	379.9
740.23	379.9
740.416	199.68
740.601	369.66
740.786	424.95
740.972	271.36
741.157	338.94
741.342	281.6
741.528	283.64
741.713	371.71
741.898	297.98
742.084	295.93
742.269	367.61
742.454	343.03
742.639	412.67
742.824	320.51
743.01	381.95
743.195	422.91
743.38	312.32
743.565	367.61
743.75	332.79
743.935	361.47
744.12	467.96
744.305	328.7
744.49	308.22
744.675	330.75
744.86	306.17
745.045	461.82
745.23	459.77
745.415	287.74
745.6	484.34
745.785	287.74
745.97	324.6
746.155	355.32
746.34	361.47
746.525	316.41
746.71	394.23
746.895	332.79
747.079	197.63
747.264	338.94
747.449	379.9
747.634	396.28
747.819	314.36
748.003	242.68
748.188	246.78
748.373	375.8
748.557	324.6
748.742	261.12
748.927	363.51
749.111	261.12
749.296	324.6
749.481	334.84
749.665	293.88
749.85	277.5
750.034	263.16
750.219	359.42
750.404	257.02
750.588	289.79
750.773	318.46
750.957	244.73
751.141	259.07
751.326	297.98
751.51	158.72
751.695	238.59
751.879	257.02
752.064	355.32
752.248	283.64
752.432	257.02
752.617	316.41
752.801	386.04
752.985	265.21
753.17	359.42
753.354	265.21
753.538	214.01
753.722	267.26
753.907	132.09
754.091	261.12
754.275	365.56
754.459	171.01
754.643	191.49
754.828	222.2
755.012	226.3
755.196	125.95
755.38	222.2
755.564	289.79
755.748	230.4
755.932	316.41
756.116	361.47
756.3	226.3
756.484	105.47
756.668	318.46
756.852	68.61
757.036	246.78
757.22	238.59
757.404	193.53
757.588	125.95
757.772	279.55
757.956	205.82
758.14	306.17
758.323	148.48
758.507	308.22
758.691	84.99
758.875	226.3
759.059	336.89
759.242	91.13
759.426	154.62
759.61	195.58
759.794	185.34
759.977	263.16
760.161	412.67
760.345	330.75
760.528	197.63
760.712	218.11
760.895	230.4
761.079	226.3
761.263	166.91
761.446	99.33
761.63	216.06
761.813	281.6
761.997	179.2
762.18	101.37
762.364	226.3
762.547	87.04
762.731	132.09
762.914	171.01
763.098	181.25
763.281	107.52
763.464	193.53
763.648	168.96
763.831	27.65
764.015	109.57
764.198	189.44
764.381	201.72
764.564	183.29
764.748	146.43
764.931	300.03
765.114	173.05
765.297	195.58
765.481	146.43
765.664	130.05
765.847	142.33
766.03	254.97
766.213	117.76
766.397	142.33
766.58	119.81
766.763	171.01
766.946	181.25
767.129	150.53
767.312	72.7
767.495	117.76
767.678	142.33
767.861	119.81
768.044	220.16
768.227	82.94
768.41	181.25
768.593	187.39
768.776	211.96
768.959	209.92
769.142	230.4
769.324	95.23
769.507	144.38
769.69	107.52
769.873	142.33
770.056	291.84
770.239	76.8
770.421	162.81
770.604	236.54
770.787	160.77
770.97	144.38
771.152	21.5
771.335	78.85
771.518	-13.31
771.7	209.92
771.883	248.83
772.066	148.48
772.248	119.81
772.431	312.32
772.613	171.01
772.796	115.71
772.978	191.49
773.161	216.06
773.343	46.08
773.526	107.52
773.708	44.03
773.891	3.07
774.073	125.95
774.256	93.18
774.438	140.29
774.621	160.77
774.803	214.01
774.985	95.23
775.168	142.33
775.35	93.18
775.532	115.71
775.715	17.41
775.897	125.95
776.079	82.94
776.261	199.68
776.444	68.61
776.626	109.57
776.808	68.61
776.99	-3.07
777.173	179.2
777.355	105.47
777.537	84.99
777.719	168.96
777.901	132.09
778.083	29.7
778.265	-9.22
778.447	146.43
778.629	3.07
778.811	189.44
778.993	140.29
779.175	187.39
779.357	113.66
779.539	-15.36
779.721	11.26
779.903	136.19
780.085	31.74
780.267	93.18
780.449	9.22
780.631	136.19
780.812	177.15
780.994	58.37
781.176	91.13
781.358	105.47
781.54	46.08
781.721	82.94
781.903	199.68
782.085	39.94
782.267	132.09
782.448	11.26
782.63	68.61
782.812	150.53
782.993	76.8
783.175	91.13
783.357	68.61
783.538	13.31
783.72	9.22
783.901	105.47
784.083	111.61
784.264	160.77
784.446	-1.02
784.627	60.42
784.809	99.33
784.99	39.94
785.172	144.38
785.353	-17.41
785.535	60.42
785.716	64.51
785.897	-50.18
786.079	11.26
786.26	19.46
786.441	17.41
786.623	13.31
786.804	44.03
786.985	7.17
787.167	44.03
787.348	11.26
787.529	25.6
787.71	273.4
787.891	82.94
788.073	21.5
788.254	-74.75
788.435	211.96
788.616	123.9
788.797	-35.84
788.978	48.13
789.159	50.18
789.34	117.76
789.522	107.52
789.703	-39.94
789.884	17.41
790.065	37.89
790.246	189.44
790.427	15.36
790.607	183.29
790.788	107.52
790.969	35.84
791.15	111.61
791.331	44.03
791.512	-17.41
791.693	-3.07
791.874	68.61
792.054	187.39
792.235	89.09
792.416	-37.89
792.597	-15.36
792.778	84.99
792.958	115.71
793.139	52.22
793.32	-33.79
793.5	27.65
793.681	232.44
793.862	-7.17
794.042	80.89
794.223	-15.36
794.404	11.26
794.584	-39.94
794.765	-3.07
794.945	68.61
795.126	160.77
795.306	152.57
795.487	-9.22
795.667	-54.27
795.848	52.22
796.028	99.33
796.209	64.51
796.389	60.42
796.57	80.89
796.75	56.32
796.93	52.22
797.111	17.41
797.291	-3.07
797.471	60.42
797.652	35.84
797.832	7.17
798.012	103.42
798.192	3.07
798.373	-39.94
798.553	109.57
798.733	44.03
798.913	-50.18
799.093	56.32
799.274	37.89
799.454	56.32
799.634	44.03
799.814	74.75
799.994	117.76
800.174	97.28
800.354	-5.12
800.534	-66.56
800.714	142.33
800.894	-31.74
801.074	-66.56
801.254	-13.31
801.434	189.44
801.614	-60.42
801.794	82.94
801.974	1543.14
802.154	19.46
802.334	130.05
802.514	-74.75
802.693	-13.31
802.873	-27.65
803.053	138.24
803.233	148.48
803.413	-9.22
803.592	-50.18
803.772	-13.31
803.952	84.99
804.131	-11.26
804.311	50.18
804.491	74.75
804.67	-50.18
804.85	-31.74
805.03	117.76
805.209	41.98
805.389	41.98
805.568	-31.74
805.748	-17.41
805.928	7.17
806.107	84.99
806.287	50.18
806.466	48.13
806.646	-46.08
806.825	62.46
807.004	48.13
807.184	62.46
807.363	3.07
807.543	-9.22
807.722	-76.8
807.901	21.5
808.081	113.66
808.26	-119.81
808.439	70.65
808.619	25.6
808.798	-46.08
808.977	33.79
809.156	93.18
809.336	27.65
809.515	58.37
809.694	-132.09
809.873	-19.46
810.052	21.5
810.231	115.71
810.411	-25.6
810.59	164.86
810.769	3.07
810.948	148.48
811.127	-70.65
811.306	35.84
811.485	87.04
811.664	195.58
811.843	-46.08
812.022	62.46
812.201	-5.12
812.38	-62.46
812.559	-50.18
812.737	44.03
812.916	-41.98
813.095	5.12
813.274	1.02
813.453	99.33
813.632	62.46
813.811	89.09
813.989	-152.57
814.168	29.7
814.347	-29.7
814.526	-41.98
814.704	107.52
814.883	193.53
815.062	-46.08
815.24	80.89
815.419	-84.99
815.598	27.65
815.776	-70.65
815.955	-46.08
816.133	-130.05
816.312	64.51
816.49	27.65
816.669	33.79
816.847	29.7
817.026	25.6
817.204	-25.6
817.383	11.26
817.561	-9.22
817.74	15.36
817.918	27.65
818.097	-15.36
818.275	-78.85
818.453	-9.22
818.632	31.74
818.81	-13.31
818.988	-101.37
819.167	-72.7
819.345	-23.55
819.523	-17.41
819.701	-27.65
819.879	33.79
820.058	27.65
820.236	-15.36
820.414	58.37
820.592	-91.13
820.77	5.12
820.948	-15.36
821.127	-33.79
821.305	62.46
821.483	-183.29
821.661	46.08
821.839	72.7
822.017	13.31
822.195	9.22
822.373	181.25
822.551	37.89
822.729	-19.46
822.907	-95.23
823.085	68.61
823.262	93.18
823.44	-46.08
823.618	15.36
823.796	7.17
823.974	11.26
824.152	-99.33
824.329	19.46
824.507	31.74
824.685	5.12
824.863	-3.07
825.04	5.12
825.218	95.23
825.396	11.26
825.574	-84.99
825.751	46.08
825.929	68.61
826.107	-70.65
826.284	27.65
826.462	-56.32
826.639	-44.03
826.817	-101.37
826.994	31.74
827.172	-93.18
827.349	154.62
827.527	39.94
827.704	56.32
827.882	68.61
828.059	3.07
828.237	-29.7
828.414	103.42
828.591	-136.19
828.769	15.36
828.946	15.36
829.124	109.57
829.301	148.48
829.478	9.22
829.655	31.74
829.833	29.7
830.01	-107.52
830.187	35.84
830.364	-23.55
830.542	48.13
830.719	156.67
830.896	101.37
831.073	29.7
831.25	37.89
831.427	101.37
831.604	15.36
831.782	56.32
831.959	58.37
832.136	-37.89
832.313	-15.36
832.49	-74.75
832.667	76.8
832.844	-31.74
833.021	101.37
833.198	39.94
833.374	-27.65
833.551	31.74
833.728	-109.57
833.905	50.18
834.082	-31.74
834.259	66.56
834.436	97.28
834.612	-33.79
834.789	64.51
834.966	-39.94
835.143	37.89
835.319	-82.94
835.496	9.22
835.673	54.27
835.85	87.04
836.026	66.56
836.203	-15.36
836.38	-62.46
836.556	29.7
836.733	-99.33
836.909	115.71
837.086	-23.55
837.262	-64.51
837.439	-66.56
837.616	-25.6
837.792	-5.12
837.968	70.65
838.145	-99.33
838.321	-19.46
838.498	-15.36
838.674	52.22
838.851	44.03
839.027	9.22
839.203	-29.7
839.38	99.33
839.556	-13.31
839.732	66.56
839.909	19.46
840.085	19.46
840.261	50.18
840.437	-9.22
840.614	-82.94
840.79	66.56
840.966	3.07
841.142	-5.12
841.318	-1.02
841.494	56.32
841.671	109.57
841.847	-72.7
842.023	7.17
842.199	-13.31
842.375	99.33
842.551	-109.57
842.727	-11.26
842.903	121.85
843.079	-13.31
843.255	158.72
843.431	-46.08
843.607	37.89
843.783	-39.94
843.959	80.89
844.134	-41.98
844.31	113.66
844.486	17.41
844.662	-62.46
844.838	-25.6
845.013	35.84
845.189	93.18
845.365	23.55
845.541	48.13
845.716	56.32
845.892	27.65
846.068	-103.42
846.244	-3.07
846.419	-44.03
846.595	-41.98
846.77	-29.7
846.946	119.81
847.122	-39.94
847.297	37.89
847.473	115.71
847.648	-105.47
847.824	97.28
847.999	-97.28
848.175	15.36
848.35	19.46
848.526	113.66
848.701	95.23
848.876	56.32
849.052	91.13
849.227	13.31
849.403	23.55
849.578	-35.84
849.753	56.32
849.929	19.46
850.104	-41.98
850.279	-58.37
850.454	56.32
850.63	13.31
850.805	7.17
850.98	68.61
851.155	-15.36
851.33	56.32
851.505	9.22
851.681	74.75
851.856	-58.37
852.031	19.46
852.206	99.33
852.381	-68.61
852.556	-56.32
852.731	29.7
852.906	-7.17
853.081	62.46
853.256	214.01
853.431	-19.46
853.606	-9.22
853.781	-119.81
853.956	-64.51
854.131	-25.6
854.305	5.12
854.48	-3.07
854.655	-95.23
854.83	-78.85
855.005	-27.65
855.18	7.17
855.354	9.22
855.529	-19.46
855.704	-46.08
855.879	97.28
856.053	-152.57
856.228	56.32
856.403	-99.33
856.577	19.46
856.752	-125.95
856.926	-37.89
857.101	-9.22
857.276	-99.33
857.45	41.98
857.625	72.7
857.799	-9.22
857.974	25.6
858.148	-109.57
858.323	-17.41
858.497	-41.98
858.672	-37.89
858.846	-95.23
859.02	68.61
859.195	-78.85
859.369	-29.7
859.543	-3.07
859.718	-25.6
859.892	-21.5
860.066	56.32
860.241	-11.26
860.415	-97.28
860.589	-5.12
860.763	-68.61
860.938	3.07
861.112	7.17
861.286	-7.17
861.46	74.75
861.634	-66.56
861.808	158.72
861.982	-44.03
862.157	-107.52
862.331	-50.18
862.505	-41.98
862.679	-115.71
862.853	-27.65
863.027	-41.98
863.201	197.63
863.375	-37.89
863.549	89.09
863.722	21.5
863.896	68.61
864.07	-72.7
864.244	3.07
864.418	23.55
864.592	25.6
864.766	60.42
864.939	-7.17
865.113	-19.46
865.287	91.13
865.461	-19.46
865.634	52.22
865.808	62.46
865.982	-72.7
866.156	-91.13
866.329	-111.61
866.503	37.89
866.676	60.42
866.85	-27.65
867.024	17.41
867.197	27.65
867.371	-1.02
867.544	50.18
867.718	-109.57
867.891	128
868.065	-7.17
868.238	21.5
868.412	87.04
868.585	9.22
868.759	-21.5
868.932	-44.03
869.105	-64.51
869.279	31.74
869.452	-115.71
869.625	-33.79
869.799	1.02
869.972	-84.99
870.145	-84.99
870.319	115.71
870.492	-29.7
870.665	-103.42
870.838	-56.32
871.011	-132.09
871.185	-27.65
871.358	1.02
871.531	52.22
871.704	17.41
871.877	-9.22
872.05	-29.7
872.223	-39.94
872.396	-13.31
872.569	-3.07
872.742	-70.65
872.915	41.98
873.088	-31.74
873.261	-66.56
873.434	-15.36
873.607	3.07
873.78	52.22
873.953	-87.04
874.126	15.36
874.299	17.41
874.471	-9.22
874.644	-21.5
874.817	-3.07
874.99	123.9
875.163	-5.12
875.335	35.84
875.508	-11.26
875.681	97.28
875.853	-62.46
876.026	-41.98
876.199	119.81
876.371	-27.65
876.544	-7.17
876.717	33.79
876.889	15.36
877.062	50.18
877.234	19.46
877.407	-66.56
877.579	-41.98
877.752	19.46
877.924	9.22
878.097	7.17
878.269	-13.31
878.442	44.03
878.614	13.31
878.786	-13.31
878.959	70.65
879.131	5.12
879.303	-76.8
879.476	-7.17
879.648	166.91
879.82	-5.12
879.993	29.7
880.165	-54.27
880.337	-82.94
880.509	11.26
880.681	-168.96
880.854	-21.5
881.026	48.13
881.198	146.43
881.37	52.22
881.542	37.89
881.714	21.5
881.886	-74.75
882.058	21.5
882.23	162.81
882.402	-66.56
882.574	56.32
882.746	37.89
882.918	101.37
883.09	9.22
883.262	66.56
883.434	23.55
883.606	-123.9
883.778	-60.42
883.95	150.53
884.122	-27.65
884.293	19.46
884.465	46.08
884.637	93.18
884.809	-56.32
884.98	5.12
885.152	-60.42
885.324	80.89
885.496	-84.99
885.667	39.94
885.839	-5.12
886.011	68.61
886.182	1.02
886.354	27.65
886.525	-29.7
886.697	-5.12
886.869	-80.89
887.04	-68.61
887.212	41.98
887.383	144.38
887.555	-13.31
887.726	-37.89
887.897	-1.02
888.069	3.07
888.24	60.42
888.412	-7.17
888.583	35.84
888.754	-54.27
888.926	-111.61
889.097	-19.46
889.268	-56.32
889.44	41.98
889.611	-115.71
889.782	-87.04
889.953	15.36
890.125	107.52
890.296	3.07
890.467	-41.98
890.638	-80.89
890.809	-39.94
890.98	-21.5
891.151	130.05
891.323	175.1
891.494	-25.6
891.665	-37.89
891.836	-44.03
892.007	-41.98
892.178	11.26
892.349	-23.55
892.52	-115.71
892.691	64.51
892.862	-33.79
893.032	-138.24
893.203	-52.22
893.374	-7.17
893.545	87.04
893.716	-68.61
893.887	121.85
894.057	13.31
894.228	44.03
894.399	-1.02
894.57	87.04
894.74	-35.84
894.911	9.22
895.082	-3.07
895.253	-60.42
895.423	60.42
895.594	82.94
895.764	15.36
895.935	-125.95
896.106	46.08
896.276	-23.55
896.447	3.07
896.617	-107.52
896.788	-74.75
896.958	52.22
897.129	-23.55
897.299	9.22
897.47	68.61
897.64	23.55
897.81	15.36
897.981	-1.02
898.151	-72.7
898.322	74.75
898.492	48.13
898.662	-95.23
898.832	35.84
899.003	-84.99
899.173	21.5
899.343	-123.9
899.513	-27.65
