Data from USB4F104151__80__11-31-26-761.txt Node

Date: Wed Feb 26 11:31:26 EST 2025
User: louis
Spectrometer: USB4F10415
Trigger mode: 4
Integration Time (sec): 1.000000E-1
Scans to average: 1
Electric dark correction enabled: true
Nonlinearity correction enabled: false
Boxcar width: 0
XAxis mode: Wavelengths
Number of Pixels in Spectrum: 3648
>>>>>Begin Spectral Data<<<<<
178.204	-399.7
178.424	-399.7
178.644	-399.7
178.864	-395.6
179.084	-373.07
179.304	-6.49
179.524	16.04
179.744	-6.49
179.964	11.95
180.184	44.71
180.404	24.23
180.624	-51.54
180.844	32.43
181.064	-61.78
181.283	40.62
181.503	-100.69
181.723	57
181.943	-47.44
182.163	153.26
182.383	-26.96
182.602	126.63
182.822	206.5
183.042	63.15
183.262	24.23
183.482	-18.77
183.701	75.43
183.921	30.38
184.141	-39.25
184.361	83.63
184.58	52.91
184.8	40.62
185.02	40.62
185.239	192.17
185.459	102.06
185.679	50.86
185.898	-69.97
186.118	100.01
186.338	116.39
186.557	118.44
186.777	-35.16
186.997	38.57
187.216	75.43
187.436	200.36
187.655	9.9
187.875	145.06
188.095	44.71
188.314	202.41
188.534	159.4
188.753	-45.4
188.973	171.69
189.192	198.31
189.412	-18.77
189.631	69.29
189.851	167.59
190.07	202.41
190.29	28.33
190.509	32.43
190.729	-33.11
190.948	181.93
191.168	272.04
191.387	106.15
191.607	100.01
191.826	143.02
192.045	83.63
192.265	-2.39
192.484	16.04
192.704	147.11
192.923	-110.93
193.142	255.65
193.362	120.49
193.581	165.54
193.8	85.67
194.02	93.87
194.239	77.48
194.458	9.9
194.678	44.71
194.897	22.19
195.116	102.06
195.335	112.3
195.555	118.44
195.774	7.85
195.993	118.44
196.212	95.91
196.432	1.71
196.651	-16.73
196.87	54.95
197.089	216.74
197.308	104.11
197.528	149.16
197.747	-24.92
197.966	67.24
198.185	231.08
198.404	-31.06
198.623	136.87
198.842	126.63
199.062	118.44
199.281	93.87
199.5	83.63
199.719	126.63
199.938	147.11
200.157	87.72
200.376	91.82
200.595	112.3
200.814	114.34
201.033	11.95
201.252	229.03
201.471	95.91
201.69	183.98
201.909	57
202.128	114.34
202.347	124.58
202.566	32.43
202.785	-26.96
203.004	-4.44
203.223	282.28
203.442	69.29
203.661	26.28
203.879	57
204.098	118.44
204.317	-63.83
204.536	89.77
204.755	69.29
204.974	63.15
205.193	52.91
205.411	95.91
205.63	40.62
205.849	93.87
206.068	-29.01
206.287	-35.16
206.505	95.91
206.724	13.99
206.943	-8.53
207.162	-45.4
207.381	161.45
207.599	69.29
207.818	126.63
208.037	-8.53
208.255	7.85
208.474	34.47
208.693	73.39
208.911	3.75
209.13	153.26
209.349	89.77
209.567	177.83
209.786	114.34
210.005	91.82
210.223	79.53
210.442	-96.6
210.661	44.71
210.879	128.68
211.098	93.87
211.316	73.39
211.535	67.24
211.753	30.38
211.972	128.68
212.191	91.82
212.409	48.81
212.628	85.67
212.846	9.9
213.065	34.47
213.283	104.11
213.502	-0.34
213.72	57
213.938	7.85
214.157	-0.34
214.375	138.92
214.594	50.86
214.812	91.82
215.031	48.81
215.249	57
215.467	83.63
215.686	104.11
215.904	126.63
216.122	42.67
216.341	61.1
216.559	67.24
216.778	157.35
216.996	143.02
217.214	44.71
217.432	93.87
217.651	-37.2
217.869	100.01
218.087	36.52
218.306	-12.63
218.524	87.72
218.742	3.75
218.96	149.16
219.179	85.67
219.397	24.23
219.615	188.07
219.833	165.54
220.051	-20.82
220.27	124.58
220.488	106.15
220.706	126.63
220.924	32.43
221.142	-47.44
221.36	112.3
221.578	102.06
221.796	147.11
222.015	36.52
222.233	48.81
222.451	83.63
222.669	-47.44
222.887	85.67
223.105	13.99
223.323	54.95
223.541	-10.58
223.759	63.15
223.977	93.87
224.195	179.88
224.413	69.29
224.631	110.25
224.849	102.06
225.067	237.22
225.285	97.96
225.503	28.33
225.721	-172.37
225.939	-0.34
226.157	102.06
226.375	173.74
226.592	22.19
226.81	75.43
227.028	116.39
227.246	145.06
227.464	120.49
227.682	91.82
227.9	157.35
228.117	87.72
228.335	85.67
228.553	22.19
228.771	50.86
228.989	130.73
229.206	75.43
229.424	-4.44
229.642	1.71
229.86	-29.01
230.077	177.83
230.295	75.43
230.513	188.07
230.731	124.58
230.948	167.59
231.166	151.21
231.384	104.11
231.601	54.95
231.819	222.89
232.037	67.24
232.254	18.09
232.472	61.1
232.689	93.87
232.907	140.97
233.125	-51.54
233.342	-18.77
233.56	16.04
233.777	44.71
233.995	-20.82
234.213	130.73
234.43	171.69
234.648	46.76
234.865	104.11
235.083	108.2
235.3	151.21
235.518	114.34
235.735	120.49
235.953	54.95
236.17	61.1
236.388	-22.87
236.605	95.91
236.822	73.39
237.04	155.3
237.257	57
237.475	28.33
237.692	69.29
237.909	97.96
238.127	-57.68
238.344	108.2
238.562	77.48
238.779	-37.2
238.996	-88.4
239.214	40.62
239.431	50.86
239.648	7.85
239.865	102.06
240.083	112.3
240.3	28.33
240.517	-4.44
240.735	36.52
240.952	159.4
241.169	22.19
241.386	44.71
241.603	20.14
241.821	-43.35
242.038	167.59
242.255	114.34
242.472	16.04
242.689	93.87
242.907	110.25
243.124	171.69
243.341	71.34
243.558	26.28
243.775	16.04
243.992	-20.82
244.209	130.73
244.426	163.5
244.643	75.43
244.86	67.24
245.078	155.3
245.295	65.19
245.512	40.62
245.729	50.86
245.946	63.15
246.163	69.29
246.38	-35.16
246.597	26.28
246.814	89.77
247.031	95.91
247.248	11.95
247.464	104.11
247.681	57
247.898	59.05
248.115	1.71
248.332	-6.49
248.549	190.12
248.766	186.02
248.983	108.2
249.2	175.78
249.417	161.45
249.633	11.95
249.85	79.53
250.067	79.53
250.284	-8.53
250.501	104.11
250.717	188.07
250.934	-69.97
251.151	87.72
251.368	59.05
251.585	67.24
251.801	-10.58
252.018	-43.35
252.235	87.72
252.451	5.8
252.668	22.19
252.885	210.6
253.102	81.58
253.318	-20.82
253.535	-4.44
253.752	34.47
253.968	79.53
254.185	-41.3
254.401	63.15
254.618	110.25
254.835	32.43
255.051	155.3
255.268	-20.82
255.484	108.2
255.701	-0.34
255.917	26.28
256.134	30.38
256.351	24.23
256.567	16.04
256.784	100.01
257	-65.88
257.217	95.91
257.433	83.63
257.65	-4.44
257.866	208.55
258.082	44.71
258.299	-10.58
258.515	134.82
258.732	16.04
258.948	16.04
259.165	71.34
259.381	-24.92
259.597	32.43
259.814	-26.96
260.03	77.48
260.246	20.14
260.463	118.44
260.679	165.54
260.895	130.73
261.112	67.24
261.328	-43.35
261.544	11.95
261.761	134.82
261.977	-4.44
262.193	-37.2
262.409	161.45
262.626	63.15
262.842	36.52
263.058	-51.54
263.274	67.24
263.49	11.95
263.707	173.74
263.923	149.16
264.139	-63.83
264.355	89.77
264.571	161.45
264.787	89.77
265.004	136.87
265.22	91.82
265.436	7.85
265.652	161.45
265.868	124.58
266.084	-18.77
266.3	32.43
266.516	-49.49
266.732	102.06
266.948	32.43
267.164	32.43
267.38	183.98
267.596	118.44
267.812	147.11
268.028	118.44
268.244	16.04
268.46	93.87
268.676	67.24
268.892	110.25
269.108	40.62
269.324	13.99
269.54	-37.2
269.756	171.69
269.972	-55.64
270.188	69.29
270.403	-20.82
270.619	100.01
270.835	106.15
271.051	114.34
271.267	36.52
271.483	54.95
271.698	102.06
271.914	147.11
272.13	108.2
272.346	87.72
272.562	108.2
272.777	190.12
272.993	71.34
273.209	16.04
273.425	126.63
273.64	-4.44
273.856	126.63
274.072	-33.11
274.287	-18.77
274.503	114.34
274.719	93.87
274.934	-6.49
275.15	-26.96
275.366	97.96
275.581	16.04
275.797	44.71
276.012	61.1
276.228	13.99
276.444	30.38
276.659	79.53
276.875	-35.16
277.09	42.67
277.306	36.52
277.521	52.91
277.737	30.38
277.952	126.63
278.168	102.06
278.383	11.95
278.599	24.23
278.814	89.77
279.03	9.9
279.245	124.58
279.461	61.1
279.676	112.3
279.892	-59.73
280.107	-2.39
280.322	-49.49
280.538	110.25
280.753	52.91
280.969	110.25
281.184	54.95
281.399	167.59
281.615	7.85
281.83	124.58
282.045	36.52
282.26	9.9
282.476	11.95
282.691	134.82
282.906	85.67
283.122	110.25
283.337	-4.44
283.552	85.67
283.767	-6.49
283.983	87.72
284.198	147.11
284.413	116.39
284.628	-39.25
284.843	91.82
285.058	79.53
285.274	106.15
285.489	3.75
285.704	171.69
285.919	22.19
286.134	73.39
286.349	-12.63
286.564	65.19
286.779	143.02
286.995	67.24
287.21	-31.06
287.425	91.82
287.64	52.91
287.855	128.68
288.07	-55.64
288.285	175.78
288.5	145.06
288.715	106.15
288.93	11.95
289.145	-43.35
289.36	130.73
289.575	77.48
289.79	151.21
290.004	-4.44
290.219	71.34
290.434	16.04
290.649	42.67
290.864	7.85
291.079	71.34
291.294	40.62
291.509	7.85
291.724	34.47
291.938	65.19
292.153	-20.82
292.368	87.72
292.583	104.11
292.798	136.87
293.012	100.01
293.227	65.19
293.442	24.23
293.657	138.92
293.871	112.3
294.086	81.58
294.301	202.41
294.516	54.95
294.73	9.9
294.945	71.34
295.16	42.67
295.374	67.24
295.589	97.96
295.804	-51.54
296.018	9.9
296.233	87.72
296.447	95.91
296.662	-31.06
296.877	177.83
297.091	124.58
297.306	104.11
297.52	46.76
297.735	75.43
297.949	73.39
298.164	54.95
298.378	63.15
298.593	7.85
298.807	38.57
299.022	-6.49
299.236	194.22
299.451	-4.44
299.665	73.39
299.88	3.75
300.094	11.95
300.309	93.87
300.523	79.53
300.737	36.52
300.952	61.1
301.166	108.2
301.381	22.19
301.595	50.86
301.809	40.62
302.024	-37.2
302.238	-39.25
302.452	173.74
302.667	5.8
302.881	104.11
303.095	177.83
303.309	26.28
303.524	48.81
303.738	5.8
303.952	5.8
304.166	95.91
304.381	-49.49
304.595	179.88
304.809	73.39
305.023	18.09
305.237	97.96
305.452	50.86
305.666	112.3
305.88	130.73
306.094	157.35
306.308	93.87
306.522	104.11
306.736	128.68
306.95	112.3
307.164	75.43
307.379	77.48
307.593	91.82
307.807	151.21
308.021	134.82
308.235	61.1
308.449	-80.21
308.663	75.43
308.877	255.65
309.091	102.06
309.305	89.77
309.519	-26.96
309.733	83.63
309.947	-24.92
310.161	138.92
310.374	59.05
310.588	151.21
310.802	-29.01
311.016	65.19
311.23	87.72
311.444	16.04
311.658	3.75
311.872	120.49
312.085	143.02
312.299	206.5
312.513	204.46
312.727	40.62
312.941	-14.68
313.154	124.58
313.368	16.04
313.582	9.9
313.796	16.04
314.009	44.71
314.223	167.59
314.437	124.58
314.651	42.67
314.864	26.28
315.078	28.33
315.292	40.62
315.505	-20.82
315.719	138.92
315.933	106.15
316.146	71.34
316.36	-43.35
316.573	81.58
316.787	138.92
317.001	108.2
317.214	-20.82
317.428	114.34
317.641	3.75
317.855	9.9
318.068	52.91
318.282	-12.63
318.495	169.64
318.709	93.87
318.922	85.67
319.136	239.27
319.349	126.63
319.563	-2.39
319.776	83.63
319.99	18.09
320.203	173.74
320.417	28.33
320.63	100.01
320.843	175.78
321.057	16.04
321.27	112.3
321.483	128.68
321.697	149.16
321.91	73.39
322.124	83.63
322.337	134.82
322.55	9.9
322.763	85.67
322.977	73.39
323.19	-0.34
323.403	77.48
323.617	183.98
323.83	46.76
324.043	-22.87
324.256	26.28
324.469	-63.83
324.683	93.87
324.896	130.73
325.109	-4.44
325.322	-92.5
325.535	89.77
325.748	118.44
325.962	54.95
326.175	38.57
326.388	130.73
326.601	130.73
326.814	38.57
327.027	1.71
327.24	134.82
327.453	-119.12
327.666	130.73
327.879	165.54
328.092	77.48
328.305	50.86
328.518	-35.16
328.731	20.14
328.944	32.43
329.157	188.07
329.37	-29.01
329.583	165.54
329.796	149.16
330.009	-4.44
330.222	40.62
330.435	124.58
330.648	108.2
330.861	120.49
331.073	140.97
331.286	122.54
331.499	7.85
331.712	-24.92
331.925	-10.58
332.138	48.81
332.35	110.25
332.563	-24.92
332.776	192.17
332.989	-2.39
333.202	48.81
333.414	63.15
333.627	54.95
333.84	26.28
334.053	83.63
334.265	61.1
334.478	-24.92
334.691	112.3
334.903	52.91
335.116	38.57
335.329	36.52
335.541	26.28
335.754	188.07
335.966	87.72
336.179	44.71
336.392	40.62
336.604	93.87
336.817	114.34
337.029	95.91
337.242	95.91
337.454	151.21
337.667	71.34
337.88	210.6
338.092	192.17
338.305	36.52
338.517	71.34
338.729	106.15
338.942	100.01
339.154	-61.78
339.367	46.76
339.579	38.57
339.792	-2.39
340.004	91.82
340.217	67.24
340.429	85.67
340.641	-24.92
340.854	28.33
341.066	3.75
341.278	153.26
341.491	183.98
341.703	50.86
341.915	-69.97
342.128	151.21
342.34	54.95
342.552	-39.25
342.764	18.09
342.977	24.23
343.189	28.33
343.401	61.1
343.613	40.62
343.826	91.82
344.038	9.9
344.25	91.82
344.462	75.43
344.674	136.87
344.886	52.91
345.099	54.95
345.311	65.19
345.523	77.48
345.735	-41.3
345.947	130.73
346.159	100.01
346.371	-6.49
346.583	28.33
346.795	214.7
347.007	13.99
347.219	130.73
347.431	77.48
347.643	169.64
347.855	67.24
348.067	120.49
348.279	-6.49
348.491	-33.11
348.703	149.16
348.915	-45.4
349.127	-14.68
349.339	85.67
349.551	48.81
349.763	181.93
349.975	-2.39
350.187	116.39
350.399	175.78
350.61	130.73
350.822	-14.68
351.034	83.63
351.246	42.67
351.458	36.52
351.669	91.82
351.881	116.39
352.093	61.1
352.305	220.84
352.517	67.24
352.728	128.68
352.94	89.77
353.152	83.63
353.363	-72.02
353.575	24.23
353.787	181.93
353.999	93.87
354.21	208.55
354.422	-10.58
354.633	50.86
354.845	73.39
355.057	34.47
355.268	48.81
355.48	124.58
355.692	-41.3
355.903	24.23
356.115	13.99
356.326	-98.64
356.538	167.59
356.749	95.91
356.961	186.02
357.172	85.67
357.384	-20.82
357.595	245.41
357.807	18.09
358.018	-18.77
358.23	-10.58
358.441	134.82
358.653	97.96
358.864	13.99
359.075	50.86
359.287	73.39
359.498	134.82
359.709	93.87
359.921	-4.44
360.132	91.82
360.344	3.75
360.555	22.19
360.766	59.05
360.977	18.09
361.189	114.34
361.4	42.67
361.611	132.78
361.823	134.82
362.034	89.77
362.245	-39.25
362.456	67.24
362.667	91.82
362.879	-35.16
363.09	81.58
363.301	112.3
363.512	71.34
363.723	-0.34
363.935	20.14
364.146	136.87
364.357	42.67
364.568	69.29
364.779	9.9
364.99	83.63
365.201	61.1
365.412	192.17
365.623	-47.44
365.834	95.91
366.045	46.76
366.256	30.38
366.467	147.11
366.678	50.86
366.889	59.05
367.1	-39.25
367.311	95.91
367.522	-29.01
367.733	132.78
367.944	67.24
368.155	-14.68
368.366	95.91
368.577	179.88
368.788	116.39
368.999	28.33
369.209	36.52
369.42	222.89
369.631	231.08
369.842	122.54
370.053	13.99
370.264	138.92
370.474	-26.96
370.685	93.87
370.896	85.67
371.107	138.92
371.317	138.92
371.528	32.43
371.739	177.83
371.95	124.58
372.16	183.98
372.371	-16.73
372.582	65.19
372.792	149.16
373.003	124.58
373.214	167.59
373.424	46.76
373.635	16.04
373.846	114.34
374.056	130.73
374.267	147.11
374.477	149.16
374.688	13.99
374.898	132.78
375.109	69.29
375.319	89.77
375.53	173.74
375.74	132.78
375.951	-31.06
376.161	52.91
376.372	93.87
376.582	-20.82
376.793	83.63
377.003	-8.53
377.214	34.47
377.424	104.11
377.635	1.71
377.845	-26.96
378.055	50.86
378.266	28.33
378.476	44.71
378.686	87.72
378.897	42.67
379.107	114.34
379.317	75.43
379.528	-16.73
379.738	112.3
379.948	54.95
380.158	134.82
380.369	118.44
380.579	155.3
380.789	59.05
380.999	157.35
381.21	147.11
381.42	249.51
381.63	85.67
381.84	145.06
382.05	97.96
382.261	93.87
382.471	212.65
382.681	140.97
382.891	173.74
383.101	128.68
383.311	26.28
383.521	3.75
383.731	155.3
383.941	210.6
384.151	83.63
384.361	-10.58
384.571	-26.96
384.781	106.15
384.991	239.27
385.201	181.93
385.411	54.95
385.621	91.82
385.831	38.57
386.041	1.71
386.251	-14.68
386.461	204.46
386.671	102.06
386.881	102.06
387.091	48.81
387.301	177.83
387.511	32.43
387.72	102.06
387.93	61.1
388.14	-18.77
388.35	106.15
388.56	161.45
388.769	134.82
388.979	48.81
389.189	40.62
389.399	61.1
389.609	134.82
389.818	181.93
390.028	106.15
390.238	46.76
390.447	3.75
390.657	136.87
390.867	32.43
391.076	-53.59
391.286	9.9
391.496	32.43
391.705	-18.77
391.915	140.97
392.125	149.16
392.334	-6.49
392.544	138.92
392.753	61.1
392.963	13.99
393.172	110.25
393.382	22.19
393.591	177.83
393.801	79.53
394.01	155.3
394.22	145.06
394.429	32.43
394.639	153.26
394.848	85.67
395.058	118.44
395.267	67.24
395.477	153.26
395.686	108.2
395.895	239.27
396.105	192.17
396.314	106.15
396.524	69.29
396.733	40.62
396.942	114.34
397.152	61.1
397.361	155.3
397.57	77.48
397.78	83.63
397.989	26.28
398.198	165.54
398.407	106.15
398.617	46.76
398.826	24.23
399.035	28.33
399.244	61.1
399.453	28.33
399.663	73.39
399.872	87.72
400.081	9.9
400.29	177.83
400.499	-41.3
400.708	126.63
400.917	46.76
401.127	52.91
401.336	-16.73
401.545	165.54
401.754	149.16
401.963	114.34
402.172	-31.06
402.381	-29.01
402.59	77.48
402.799	3.75
403.008	95.91
403.217	34.47
403.426	97.96
403.635	9.9
403.844	46.76
404.053	75.43
404.262	63.15
404.471	218.79
404.68	153.26
404.888	128.68
405.097	89.77
405.306	42.67
405.515	118.44
405.724	50.86
405.933	91.82
406.142	116.39
406.35	124.58
406.559	71.34
406.768	91.82
406.977	196.26
407.185	138.92
407.394	208.55
407.603	34.47
407.812	136.87
408.02	132.78
408.229	32.43
408.438	83.63
408.646	-16.73
408.855	24.23
409.064	67.24
409.272	61.1
409.481	71.34
409.69	-61.78
409.898	75.43
410.107	63.15
410.315	132.78
410.524	-41.3
410.733	89.77
410.941	52.91
411.15	104.11
411.358	91.82
411.567	93.87
411.775	40.62
411.984	34.47
412.192	130.73
412.401	65.19
412.609	173.74
412.818	151.21
413.026	89.77
413.234	140.97
413.443	87.72
413.651	89.77
413.86	44.71
414.068	140.97
414.276	196.26
414.485	81.58
414.693	257.7
414.901	161.45
415.11	206.5
415.318	71.34
415.526	83.63
415.734	130.73
415.943	38.57
416.151	206.5
416.359	102.06
416.567	28.33
416.776	77.48
416.984	153.26
417.192	118.44
417.4	54.95
417.608	65.19
417.817	61.1
418.025	120.49
418.233	200.36
418.441	1.71
418.649	-41.3
418.857	104.11
419.065	167.59
419.273	34.47
419.481	93.87
419.689	89.77
419.897	38.57
420.105	13.99
420.313	73.39
420.521	212.65
420.729	124.58
420.937	75.43
421.145	34.47
421.353	161.45
421.561	120.49
421.769	155.3
421.977	-18.77
422.185	102.06
422.393	18.09
422.601	177.83
422.809	167.59
423.017	73.39
423.224	159.4
423.432	44.71
423.64	126.63
423.848	85.67
424.056	65.19
424.263	120.49
424.471	81.58
424.679	149.16
424.887	-12.63
425.094	216.74
425.302	124.58
425.51	104.11
425.718	108.2
425.925	110.25
426.133	22.19
426.341	173.74
426.548	46.76
426.756	61.1
426.964	134.82
427.171	48.81
427.379	140.97
427.586	20.14
427.794	91.82
428.001	118.44
428.209	110.25
428.417	179.88
428.624	116.39
428.832	165.54
429.039	151.21
429.247	145.06
429.454	138.92
429.662	233.13
429.869	190.12
430.076	136.87
430.284	175.78
430.491	134.82
430.699	136.87
430.906	251.56
431.114	161.45
431.321	159.4
431.528	93.87
431.736	140.97
431.943	235.18
432.15	173.74
432.358	265.89
432.565	345.77
432.772	61.1
432.979	192.17
433.187	122.54
433.394	206.5
433.601	110.25
433.808	239.27
434.016	276.13
434.223	192.17
434.43	222.89
434.637	249.51
434.844	325.29
435.052	276.13
435.259	229.03
435.466	313
435.673	308.9
435.88	267.94
436.087	374.44
436.294	349.86
436.501	321.19
436.708	300.71
436.915	265.89
437.122	386.72
437.329	308.9
437.537	337.57
437.743	407.2
437.95	442.02
438.157	313
438.364	329.38
438.571	366.25
438.778	487.08
438.985	442.02
439.192	458.4
439.399	364.2
439.606	458.4
439.813	585.38
440.02	601.76
440.227	634.53
440.433	599.71
440.64	542.37
440.847	454.31
441.054	614.05
441.261	685.73
441.467	681.63
441.674	568.99
441.881	738.98
442.088	642.72
442.294	808.61
442.501	806.56
442.708	872.09
442.914	724.64
443.121	896.67
443.328	814.75
443.534	956.06
443.741	892.57
443.948	738.98
444.154	980.64
444.361	1103.51
444.568	1070.75
444.774	1144.47
444.981	990.88
445.187	1271.45
445.394	1095.32
445.6	1246.87
445.807	1332.89
446.013	1341.08
446.22	1212.06
446.426	1322.65
446.633	1435.28
446.839	1644.18
447.046	1394.33
447.252	1674.9
447.459	1621.65
447.665	1592.98
447.871	1736.34
448.078	1848.97
448.284	1896.08
448.491	2002.57
448.697	2092.68
448.903	2256.52
449.11	2201.23
449.316	2160.27
449.522	2291.34
449.728	2360.97
449.935	2434.69
450.141	2571.91
450.347	2793.09
450.553	2549.38
450.76	2653.83
450.966	2928.25
451.172	2870.91
451.378	3174.01
451.584	3155.58
451.791	3307.13
451.997	3401.33
452.203	3563.12
452.409	3608.18
452.615	3905.14
452.821	3735.15
453.027	3794.54
453.233	4298.35
453.44	4335.21
453.646	4470.37
453.852	4574.82
454.058	4847.2
454.264	4816.48
454.47	5351
454.676	5271.13
454.882	5713.49
455.088	5566.04
455.294	5981.78
455.5	6170.19
455.705	6520.39
455.911	6542.92
456.117	6661.7
456.323	6907.46
456.529	7079.49
456.735	7489.08
456.941	7714.36
457.147	8013.36
457.352	8263.21
457.558	8719.91
457.764	9125.41
457.97	9332.25
458.176	9688.6
458.381	10155.54
458.587	10538.51
458.793	10905.09
458.999	10716.68
459.204	12131.83
459.41	12645.87
459.616	12271.09
459.821	13106.66
460.027	13731.29
460.233	14325.2
460.438	14605.77
460.644	15234.5
460.85	15277.51
461.055	15674.81
461.261	16651.69
461.466	16463.28
461.672	16534.96
461.878	19021.19
462.083	18511.25
462.289	18855.31
462.494	19563.9
462.7	20098.42
462.905	19985.79
463.111	21704.03
463.316	22928.72
463.522	23194.95
463.727	23569.73
463.932	25093.42
464.138	25746.72
464.343	26559.77
464.549	27002.13
464.754	28910.83
464.959	29416.68
465.165	30217.44
465.37	29490.41
465.575	29975.78
465.781	31587.53
465.986	32453.82
466.191	32478.4
466.397	32816.31
466.602	31671.5
466.807	33666.22
467.012	34106.53
467.218	34550.94
467.423	35263.63
467.628	35767.43
467.833	37225.59
468.038	36748.41
468.244	36183.17
468.449	38204.52
468.654	37565.55
468.859	37364.85
469.064	37424.24
469.269	36660.35
469.474	36412.54
469.679	37719.15
469.885	36535.42
470.09	37399.66
470.295	37432.43
470.5	36078.72
470.705	36418.69
470.91	35710.09
471.115	35132.56
471.32	36291.71
471.525	35521.68
471.73	34649.24
471.935	34301.09
472.139	33148.08
472.344	33096.88
472.549	32902.32
472.754	32396.48
472.959	31931.59
473.164	30758.1
473.369	30313.69
473.574	30860.5
473.778	30162.14
473.983	29926.63
474.188	29488.36
474.393	27761.92
474.598	27753.73
474.802	26969.36
475.007	26739.99
475.212	26682.64
475.417	25236.78
475.621	25464.1
475.826	24900.91
476.031	24601.91
476.235	24081.72
476.44	24024.38
476.645	23166.28
476.849	23102.79
477.054	22820.17
477.259	22242.65
477.463	21851.49
477.668	21499.23
477.872	21693.79
478.077	20938.09
478.282	20340.08
478.486	20143.48
478.691	20200.82
478.895	19979.64
479.1	19588.48
479.304	19584.38
479.509	18681.23
479.713	19090.82
479.918	18668.94
480.122	18367.89
480.326	18578.83
480.531	18621.84
480.735	18341.27
480.94	17993.11
481.144	18662.8
481.348	17524.13
481.553	17565.09
481.757	17286.56
481.961	17268.13
482.166	17522.08
482.37	17128.87
482.574	16819.63
482.778	17096.1
482.983	17036.71
483.187	16610.73
483.391	16582.06
483.595	16412.08
483.8	16014.77
484.004	16133.56
484.208	16262.58
484.412	15975.86
484.616	15828.41
484.821	15637.95
485.025	14865.86
485.229	15295.94
485.433	14788.04
485.637	14853.58
485.841	14403.02
486.045	14429.65
486.249	14331.34
486.453	13895.13
486.657	13645.27
486.861	13491.68
487.065	13055.46
487.269	13311.46
487.473	13018.6
487.677	12867.05
487.881	12985.83
488.085	12416.49
488.289	12185.07
488.493	11912.69
488.697	12045.81
488.901	11568.63
489.105	11357.69
489.309	11238.91
489.512	10984.96
489.716	10757.64
489.92	10749.45
490.124	10311.18
490.328	10323.47
490.531	10149.39
490.735	10065.43
490.939	9858.58
491.143	9520.67
491.346	9377.31
491.55	9436.7
491.754	9254.43
491.958	8971.81
492.161	9029.15
492.365	8629.8
492.569	8334.89
492.772	8388.14
492.976	8298.03
493.18	8275.5
493.383	8109.61
493.587	7970.35
493.79	8093.23
493.994	7636.53
494.197	7824.95
494.401	7679.54
494.605	7403.07
494.808	7571
495.012	7534.14
495.215	7466.55
495.419	7353.91
495.622	7116.35
495.825	7091.77
496.029	7489.08
496.232	7272
496.436	7224.89
496.639	7358.01
496.843	7081.53
497.046	7052.86
497.249	7272
497.453	7108.16
497.656	7097.92
497.859	6960.7
498.063	7212.6
498.266	7249.47
498.469	6825.54
498.673	7003.71
498.876	7048.77
499.079	7196.22
499.282	6911.55
499.485	7550.52
499.689	7427.64
499.892	7145.02
500.095	7315
500.298	7237.18
500.501	7343.67
500.705	7484.98
500.908	7640.63
501.111	7474.74
501.314	7763.51
501.517	7804.47
501.72	7937.59
501.923	7835.19
502.126	7951.92
502.329	8175.15
502.532	8156.72
502.735	8291.88
502.938	8556.07
503.141	8611.37
503.344	8443.43
503.547	8656.42
503.75	8603.18
503.953	8908.32
504.156	9074.21
504.359	9070.11
504.562	9078.3
504.765	9186.85
504.968	9756.18
505.17	9573.91
505.373	9567.77
505.576	10108.43
505.779	9877.01
505.982	10055.19
506.185	10249.74
506.387	10587.66
506.59	10696.2
506.793	10892.8
506.996	11058.69
507.198	11548.15
507.401	11740.66
507.604	11580.92
507.807	12076.53
508.009	12125.68
508.212	12500.46
508.415	12611.05
508.617	12926.44
508.82	12914.15
509.022	13331.94
509.225	13614.55
509.428	13872.6
509.63	14255.57
509.833	14271.95
510.035	15189.44
510.238	14970.31
510.44	15263.17
510.643	15674.81
510.845	16184.76
511.048	16391.6
511.25	17100.2
511.453	17079.72
511.655	17802.65
511.858	17886.62
512.06	18494.86
512.262	18851.21
512.465	18998.66
512.667	19654.01
512.87	20079.99
513.072	20391.28
513.274	21124.46
513.477	21544.29
513.679	21933.4
513.881	22463.83
514.084	22895.95
514.286	23246.15
514.488	23786.82
514.69	24524.08
514.893	25105.71
515.095	25376.04
515.297	25947.42
515.499	26529.05
515.701	27098.38
515.904	27854.08
516.106	28484.86
516.308	28810.48
516.51	29652.2
516.712	30121.18
516.914	30670.04
517.116	31657.16
517.318	31947.97
517.52	32300.22
517.722	32783.54
517.925	33473.71
518.127	34403.49
518.329	34888.85
518.531	35337.36
518.733	36541.57
518.935	37158
519.136	36926.58
519.338	38184.04
519.54	38544.48
519.742	39410.77
519.944	39808.08
520.146	40451.14
520.348	40838.2
520.55	41280.56
520.752	41778.22
520.954	42687.52
521.155	42513.44
521.357	43453.46
521.559	43969.55
521.761	45102.07
521.963	44831.74
522.164	45325.3
522.366	45765.62
522.568	46365.67
522.77	46805.98
522.971	47143.9
523.173	47291.35
523.375	47576.02
523.576	47553.49
523.778	47866.83
523.98	48538.57
524.181	48491.46
524.383	48962.5
524.584	49314.75
524.786	49271.74
524.988	48956.35
525.189	49750.96
525.391	49767.35
525.592	49511.35
525.794	49916.85
525.995	49408.95
526.197	49419.19
526.398	49603.51
526.6	50248.62
526.801	49331.13
527.003	49656.76
527.204	49537.97
527.406	49578.93
527.607	49017.79
527.808	49247.16
528.01	48016.33
528.211	48661.44
528.412	48982.98
528.614	48145.36
528.815	47948.75
529.016	47883.22
529.218	46971.87
529.419	46410.73
529.62	46566.37
529.822	45935.6
530.023	45458.42
530.224	45272.06
530.425	44971
530.626	44149.77
530.828	44231.69
531.029	44276.74
531.23	42959.9
531.431	42861.6
531.632	42533.92
531.833	42208.29
532.035	41233.46
532.236	40969.27
532.437	40676.41
532.638	39658.57
532.839	39912.52
533.04	39298.13
533.241	38667.36
533.442	38794.33
533.643	37762.15
533.844	36940.92
534.045	36918.39
534.246	35933.32
534.447	36000.9
534.648	35628.17
534.849	35142.8
535.05	33965.22
535.251	33873.06
535.451	33803.43
535.652	33076.4
535.853	32500.92
536.054	32269.5
536.255	32132.29
536.456	31038.67
536.657	31614.15
536.857	30461.15
537.058	30246.11
537.259	29967.59
537.46	29672.68
537.66	29238.51
537.861	28701.94
538.062	28427.51
538.263	28185.85
538.463	27698.44
538.664	27358.47
538.865	26920.21
539.065	26715.41
539.266	26191.13
539.466	26453.27
539.667	25335.08
539.868	25466.15
540.068	24970.54
540.269	24935.73
540.469	24845.62
540.67	24386.87
540.87	24137.02
541.071	23651.65
541.271	23547.2
541.472	23291.21
541.672	22951.24
541.873	22650.19
542.073	21792.09
542.274	22259.03
542.474	22179.16
542.675	21839.2
542.875	21742.94
543.075	21169.51
543.276	20817.26
543.476	21046.63
543.676	20764.01
543.877	20110.71
544.077	20096.38
544.277	20123
544.478	19697.02
544.678	19709.31
544.878	19123.59
545.078	19197.32
545.279	18826.64
545.479	18564.5
545.679	18451.86
545.879	18163.09
546.079	18079.13
546.28	17667.49
546.48	17372.58
546.68	17335.71
546.88	17218.98
547.08	16872.87
547.28	16967.08
547.48	16504.24
547.68	16457.14
547.88	16143.8
548.081	16213.43
548.281	15674.81
548.481	15549.89
548.681	15592.89
548.881	15496.64
549.081	14966.21
549.28	14691.79
549.48	14769.61
549.68	14345.68
549.88	14540.24
550.08	14087.64
550.28	13983.19
550.48	13657.56
550.68	13444.57
550.88	13360.61
551.08	13192.67
551.279	13030.88
551.479	12733.93
551.679	12813.8
551.879	12271.09
552.079	12197.36
552.278	12105.2
552.478	12084.72
552.678	11877.88
552.878	11683.32
553.077	11369.98
553.277	10993.15
553.477	10823.17
553.676	10712.58
553.876	10599.94
554.076	10618.38
554.275	10499.59
554.475	10022.42
554.674	10259.98
554.874	9952.79
555.074	9811.48
555.273	9725.46
555.473	9350.68
555.672	9414.17
555.872	9078.3
556.071	9051.68
556.271	8904.23
556.47	8568.36
556.67	8515.11
556.869	8523.3
557.068	8371.75
557.268	8179.25
557.467	8095.28
557.667	7990.83
557.866	7970.35
558.065	7482.94
558.265	7478.84
558.464	7312.96
558.663	7480.89
558.863	7157.31
559.062	7183.93
559.261	7034.43
559.461	7048.77
559.66	6590.02
559.859	6575.69
560.058	6553.16
560.258	6360.65
560.457	6168.14
560.656	6389.32
560.855	6024.78
561.054	6170.19
561.253	6002.26
561.453	5865.04
561.652	5819.99
561.851	5680.72
562.05	5525.08
562.249	5310.04
562.448	5418.58
562.647	5310.04
562.846	5195.36
563.045	5238.36
563.244	5109.34
563.443	5144.16
563.642	5006.94
563.841	4859.49
564.04	4841.06
564.239	4781.67
564.438	4701.79
564.637	4675.17
564.836	4560.49
565.035	4544.1
565.234	4357.74
565.432	4298.35
565.631	4398.7
565.83	4410.98
566.029	4034.16
566.228	4234.86
566.427	4089.45
566.625	3855.98
566.824	3948.14
567.023	3788.4
567.222	3710.58
567.42	3772.02
567.619	3739.25
567.818	3794.54
568.016	3686
568.215	3550.84
568.414	3497.59
568.612	3540.6
568.811	3413.62
569.01	3391.09
569.208	3221.11
569.407	3360.38
569.605	3190.39
569.804	3085.95
570.002	3145.34
570.201	3012.22
570.4	3047.04
570.598	2901.63
570.797	2940.54
570.995	2999.93
571.193	2872.96
571.392	2842.24
571.59	2637.44
571.789	2778.75
571.987	2723.46
572.186	2664.07
572.384	2651.78
572.582	2631.3
572.781	2727.55
572.979	2473.6
573.177	2500.23
573.376	2475.65
573.574	2473.6
573.772	2285.19
573.971	2211.46
574.169	2264.71
574.367	2217.61
574.565	2182.79
574.763	2203.27
574.962	2115.21
575.16	1969.8
575.358	1967.76
575.556	2057.87
575.754	2010.76
575.952	1963.66
576.151	1918.61
576.349	1973.9
576.547	1822.35
576.745	1898.13
576.943	1924.75
577.141	1902.22
577.339	1781.39
577.537	1902.22
577.735	1801.87
577.933	1746.58
578.131	1578.64
578.329	1668.75
578.527	1488.53
578.725	1597.07
578.923	1459.86
579.121	1547.92
579.319	1502.87
579.516	1531.54
579.714	1572.5
579.912	1521.3
580.11	1304.21
580.308	1363.61
580.506	1304.21
580.704	1218.2
580.901	1218.2
581.099	1384.09
581.297	1293.97
581.495	1242.78
581.692	1212.06
581.89	1316.5
582.088	1257.11
582.285	1207.96
582.483	1228.44
582.681	1212.06
582.878	1169.05
583.076	1173.14
583.274	1134.23
583.471	1236.63
583.669	1091.23
583.866	1138.33
584.064	1056.41
584.262	947.87
584.459	1050.27
584.657	994.97
584.854	1140.38
585.052	1003.16
585.249	1070.75
585.447	906.91
585.644	896.67
585.841	1035.93
586.039	982.68
586.236	1031.83
586.434	876.19
586.631	839.33
586.828	841.37
587.026	931.48
587.223	673.44
587.42	779.93
587.618	890.53
587.815	876.19
588.012	808.61
588.21	765.6
588.407	843.42
588.604	781.98
588.801	792.22
588.999	710.3
589.196	890.53
589.393	679.58
589.59	765.6
589.787	771.74
589.984	745.12
590.182	788.13
590.379	687.78
590.576	779.93
590.773	726.69
590.97	730.78
591.167	796.32
591.364	773.79
591.561	716.45
591.758	896.67
591.955	755.36
592.152	683.68
592.349	730.78
592.546	663.2
592.743	667.3
592.94	775.84
593.137	771.74
593.334	845.47
593.531	812.7
593.727	837.28
593.924	814.75
594.121	700.06
594.318	607.91
594.515	712.35
594.712	913.05
594.908	876.19
595.105	695.97
595.302	757.41
595.499	763.55
595.696	890.53
595.892	732.83
596.089	917.15
596.286	792.22
596.482	906.91
596.679	960.16
596.876	911
597.072	997.02
597.269	937.63
597.466	945.82
597.662	956.06
597.859	865.95
598.055	1029.79
598.252	1111.71
598.448	1105.56
598.645	1232.54
598.841	1226.39
599.038	1261.21
599.234	1355.41
599.431	1334.93
599.627	1398.42
599.824	1379.99
600.02	1461.91
600.217	1463.96
600.413	1552.02
600.609	1654.42
600.806	2012.81
601.002	1848.97
601.198	1754.77
601.395	1963.66
601.591	1971.85
601.787	2039.44
601.984	2147.98
602.18	2291.34
602.376	2164.36
602.572	2432.65
602.769	2504.32
602.965	2504.32
603.161	2723.46
603.357	2672.26
603.553	2827.9
603.75	2801.28
603.946	3026.56
604.142	3034.75
604.338	3237.5
604.534	3202.68
604.73	3276.41
604.926	3546.74
605.122	3620.47
605.318	3694.19
605.514	3843.7
605.71	4023.92
605.906	4052.59
606.102	4195.95
606.298	4327.02
606.494	4410.98
606.69	4681.32
606.886	4623.97
607.082	4599.4
607.278	5076.57
607.474	5064.29
607.67	5303.9
607.866	5224.03
608.062	5609.05
608.257	5463.64
608.453	5828.18
608.649	5973.58
608.845	5998.16
609.041	6272.59
609.236	6534.73
609.432	6696.52
609.628	6889.03
609.824	7036.48
610.019	7040.58
610.215	7411.26
610.411	7638.58
610.606	8044.08
610.802	7771.7
610.998	8085.04
611.193	8443.43
611.389	8455.72
611.584	8840.74
611.78	8877.6
611.976	9299.48
612.171	9711.13
612.367	10049.04
612.562	10016.27
612.758	10124.82
612.953	10243.6
613.149	10806.79
613.344	10853.89
613.539	11369.98
613.735	11666.94
613.93	11927.03
614.126	12203.5
614.321	12555.76
614.517	12987.88
614.712	13563.36
614.907	13481.44
615.103	13948.37
615.298	13962.71
615.493	14679.5
615.688	14798.28
615.884	15572.41
616.079	15574.46
616.274	16450.99
616.47	16307.63
616.665	17106.34
616.86	17188.26
617.055	17733.02
617.25	18111.89
617.445	18789.77
617.641	18668.94
617.836	19633.54
618.031	19690.88
618.226	20493.68
618.421	20764.01
618.616	21366.12
618.811	21521.76
619.006	22521.17
619.201	22652.24
619.396	23403.85
619.591	23463.24
619.786	24573.24
619.981	24534.32
620.176	25425.19
620.371	25441.57
620.566	26275.1
620.761	27141.39
620.956	27518.21
621.151	27673.86
621.346	28609.78
621.541	29009.14
621.735	29932.77
621.93	30051.55
622.125	30340.32
622.32	30895.32
622.515	31825.09
622.709	32380.09
622.904	33342.64
623.099	33139.89
623.294	34149.54
623.488	34159.78
623.683	35335.31
623.878	35253.39
624.072	36394.11
624.267	36752.51
624.462	37211.25
624.656	38036.58
624.851	38528.09
625.046	38489.18
625.24	39283.8
625.435	40098.89
625.629	40406.08
625.824	41096.25
626.018	41651.25
626.213	41587.76
626.407	42646.56
626.602	42472.48
626.796	43217.94
626.991	43832.33
627.185	44246.02
627.38	44145.67
627.574	44489.73
627.768	44622.85
627.963	44715.01
628.157	44975.1
628.352	45419.51
628.546	44741.63
628.74	45466.61
628.935	44819.45
629.129	45270.01
629.323	44706.82
629.517	44192.78
629.712	44213.26
629.906	44119.05
630.1	43293.72
630.294	42974.23
630.489	42193.96
630.683	42531.87
630.877	41073.72
631.071	40518.72
631.265	39916.62
631.459	39062.61
631.653	38147.17
631.848	37751.91
632.042	36578.43
632.236	35931.27
632.43	34749.59
632.624	33963.17
632.818	32312.51
633.012	31792.33
633.206	30743.77
633.4	30276.83
633.594	28595.45
633.788	28153.09
633.982	26584.34
634.176	25797.92
634.369	24894.77
634.563	23954.75
634.757	22928.72
634.951	22357.33
635.145	21452.13
635.339	20874.6
635.533	19957.11
635.726	18957.71
635.92	17915.29
636.114	17354.15
636.308	16610.73
636.501	16127.41
636.695	15490.49
636.889	14689.74
637.083	14269.9
637.276	13606.36
637.47	13178.34
637.664	12434.92
637.857	11972.08
638.051	11468.28
638.244	10817.03
638.438	10481.16
638.632	10227.21
638.825	9465.37
639.019	9494.04
639.212	9111.07
639.406	8764.96
639.599	8377.9
639.793	7978.54
639.986	7618.1
640.18	7554.62
640.373	7065.15
640.567	6821.44
640.76	6461
640.954	6336.07
641.147	6053.45
641.34	5936.72
641.534	5776.98
641.727	5439.06
641.92	5170.78
642.114	5199.45
642.307	4808.29
642.5	4830.82
642.694	4351.59
642.887	4101.74
643.08	4085.36
643.273	4173.42
643.467	3798.64
643.66	3690.1
643.853	3427.96
644.046	3438.2
644.239	3317.37
644.432	3112.57
644.626	2956.93
644.819	2844.29
645.012	2895.49
645.205	2680.45
645.398	2641.54
645.591	2492.04
645.784	2254.47
645.977	2397.83
646.17	2250.38
646.363	2193.03
646.556	2109.07
646.749	1908.37
646.942	1959.56
647.135	1955.47
647.328	1736.34
647.521	1650.32
647.714	1652.37
647.907	1595.03
648.099	1437.33
648.292	1611.41
648.485	1435.28
648.678	1365.65
648.871	1191.58
649.064	1293.97
649.256	1179.29
649.449	1056.41
649.642	1042.07
649.835	1087.13
650.027	1146.52
650.22	1050.27
650.413	988.83
650.605	992.92
650.798	878.24
650.991	984.73
651.183	831.13
651.376	861.85
651.568	829.09
651.761	808.61
651.954	845.47
652.146	700.06
652.339	827.04
652.531	831.13
652.724	620.19
652.916	665.25
653.109	552.61
653.301	691.87
653.494	683.68
653.686	571.04
653.879	609.95
654.071	632.48
654.263	480.93
654.456	454.31
654.648	695.97
654.84	618.15
655.033	462.5
655.225	597.67
655.417	370.34
655.61	581.28
655.802	458.4
655.994	460.45
656.186	388.77
656.379	521.89
656.571	364.2
656.763	343.72
656.955	417.44
657.148	378.53
657.34	450.21
657.532	304.81
657.724	337.57
657.916	380.58
658.108	448.16
658.3	345.77
658.492	435.88
658.684	304.81
658.876	390.82
659.068	192.17
659.26	265.89
659.452	257.7
659.644	308.9
659.836	433.83
660.028	302.76
660.22	210.6
660.412	286.37
660.604	235.18
660.796	308.9
660.988	327.33
661.18	313
661.372	417.44
661.563	276.13
661.755	284.33
661.947	239.27
662.139	229.03
662.331	226.98
662.522	251.56
662.714	239.27
662.906	231.08
663.097	296.61
663.289	194.22
663.481	257.7
663.673	272.04
663.864	210.6
664.056	265.89
664.247	173.74
664.439	349.86
664.631	249.51
664.822	253.61
665.014	194.22
665.205	153.26
665.397	130.73
665.588	192.17
665.78	269.99
665.971	235.18
666.163	194.22
666.354	290.47
666.546	186.02
666.737	214.7
666.929	204.46
667.12	224.94
667.311	204.46
667.503	231.08
667.694	239.27
667.885	251.56
668.077	218.79
668.268	57
668.459	222.89
668.651	177.83
668.842	226.98
669.033	97.96
669.224	183.98
669.416	362.15
669.607	169.64
669.798	165.54
669.989	292.52
670.18	167.59
670.371	298.66
670.563	163.5
670.754	257.7
670.945	218.79
671.136	245.41
671.327	71.34
671.518	257.7
671.709	276.13
671.9	306.85
672.091	353.96
672.282	224.94
672.473	212.65
672.664	140.97
672.855	282.28
673.046	229.03
673.237	206.5
673.428	212.65
673.619	218.79
673.809	177.83
674	368.29
674.191	210.6
674.382	218.79
674.573	173.74
674.764	163.5
674.954	331.43
675.145	220.84
675.336	171.69
675.527	243.37
675.717	222.89
675.908	208.55
676.099	226.98
676.289	300.71
676.48	147.11
676.671	214.7
676.861	165.54
677.052	319.14
677.243	292.52
677.433	249.51
677.624	294.57
677.814	315.05
678.005	278.18
678.195	310.95
678.386	200.36
678.576	345.77
678.767	212.65
678.957	290.47
679.148	337.57
679.338	435.88
679.529	341.67
679.719	153.26
679.909	439.97
680.1	341.67
680.29	274.09
680.481	138.92
680.671	411.3
680.861	255.65
681.052	298.66
681.242	272.04
681.432	317.09
681.622	261.8
681.813	212.65
682.003	298.66
682.193	202.41
682.383	323.24
682.573	255.65
682.764	280.23
682.954	376.48
683.144	423.59
683.334	315.05
683.524	282.28
683.714	370.34
683.904	421.54
684.094	388.77
684.284	343.72
684.474	460.45
684.664	356.01
684.854	396.96
685.044	263.85
685.234	333.48
685.424	376.48
685.614	265.89
685.804	407.2
685.994	419.49
686.184	362.15
686.374	376.48
686.564	466.6
686.753	329.38
686.943	304.81
687.133	333.48
687.323	382.63
687.513	423.59
687.702	411.3
687.892	368.29
688.082	427.68
688.272	425.64
688.461	353.96
688.651	448.16
688.841	431.78
689.03	282.28
689.22	399.01
689.41	427.68
689.599	372.39
689.789	380.58
689.979	489.12
690.168	317.09
690.358	413.35
690.547	401.06
690.737	358.05
690.926	339.62
691.116	358.05
691.305	419.49
691.495	339.62
691.684	362.15
691.874	335.53
692.063	423.59
692.252	403.11
692.442	399.01
692.631	370.34
692.82	321.19
693.01	356.01
693.199	411.3
693.388	415.4
693.578	370.34
693.767	482.98
693.956	487.08
694.146	300.71
694.335	419.49
694.524	362.15
694.713	386.72
694.902	272.04
695.092	347.81
695.281	392.87
695.47	284.33
695.659	306.85
695.848	308.9
696.037	261.8
696.226	372.39
696.415	372.39
696.604	417.44
696.793	458.4
696.982	329.38
697.171	433.83
697.36	288.42
697.549	392.87
697.738	245.41
697.927	339.62
698.116	278.18
698.305	433.83
698.494	351.91
698.683	321.19
698.872	550.56
699.061	302.76
699.25	290.47
699.438	358.05
699.627	396.96
699.816	452.26
700.005	333.48
700.193	296.61
700.382	415.4
700.571	374.44
700.76	333.48
700.948	442.02
701.137	368.29
701.326	452.26
701.514	308.9
701.703	392.87
701.892	339.62
702.08	544.42
702.269	319.14
702.457	245.41
702.646	351.91
702.834	378.53
703.023	423.59
703.212	413.35
703.4	304.81
703.589	304.81
703.777	245.41
703.965	345.77
704.154	329.38
704.342	329.38
704.531	300.71
704.719	364.2
704.907	448.16
705.096	233.13
705.284	304.81
705.472	415.4
705.661	386.72
705.849	407.2
706.037	450.21
706.226	374.44
706.414	384.68
706.602	208.55
706.79	425.64
706.979	280.23
707.167	409.25
707.355	214.7
707.543	446.12
707.731	403.11
707.919	263.85
708.107	407.2
708.296	337.57
708.484	382.63
708.672	413.35
708.86	386.72
709.048	302.76
709.236	237.22
709.424	321.19
709.612	411.3
709.8	206.5
709.988	345.77
710.176	339.62
710.364	503.46
710.551	323.24
710.739	292.52
710.927	263.85
711.115	276.13
711.303	376.48
711.491	374.44
711.679	247.46
711.866	433.83
712.054	319.14
712.242	401.06
712.43	442.02
712.617	239.27
712.805	360.1
712.993	376.48
713.181	183.98
713.368	380.58
713.556	345.77
713.744	327.33
713.931	556.71
714.119	423.59
714.306	313
714.494	333.48
714.682	360.1
714.869	272.04
715.057	347.81
715.244	272.04
715.432	341.67
715.619	358.05
715.807	300.71
715.994	294.57
716.182	360.1
716.369	435.88
716.556	474.79
716.744	214.7
716.931	224.94
717.119	368.29
717.306	333.48
717.493	331.43
717.681	394.92
717.868	308.9
718.055	425.64
718.242	321.19
718.43	417.44
718.617	495.27
718.804	353.96
718.991	480.93
719.179	411.3
719.366	452.26
719.553	347.81
719.74	396.96
719.927	308.9
720.114	310.95
720.301	306.85
720.488	329.38
720.676	327.33
720.863	470.69
721.05	513.7
721.237	317.09
721.424	401.06
721.611	495.27
721.798	304.81
721.985	360.1
722.172	388.77
722.358	351.91
722.545	405.16
722.732	450.21
722.919	370.34
723.106	413.35
723.293	362.15
723.48	319.14
723.667	329.38
723.853	536.23
724.04	351.91
724.227	507.55
724.414	372.39
724.6	482.98
724.787	587.43
724.974	636.58
725.161	444.07
725.347	405.16
725.534	446.12
725.72	431.78
725.907	487.08
726.094	468.64
726.28	300.71
726.467	411.3
726.653	405.16
726.84	505.51
727.027	519.84
727.213	429.73
727.4	523.94
727.586	333.48
727.773	462.5
727.959	401.06
728.145	411.3
728.332	372.39
728.518	353.96
728.705	499.36
728.891	413.35
729.077	462.5
729.264	319.14
729.45	425.64
729.636	468.64
729.823	411.3
730.009	538.27
730.195	409.25
730.382	431.78
730.568	423.59
730.754	460.45
730.94	394.92
731.126	487.08
731.313	507.55
731.499	382.63
731.685	540.32
731.871	366.25
732.057	566.95
732.243	493.22
732.429	462.5
732.615	497.32
732.801	478.88
732.987	460.45
733.173	439.97
733.359	407.2
733.545	460.45
733.731	429.73
733.917	605.86
734.103	544.42
734.289	528.03
734.475	433.83
734.661	652.96
734.847	513.7
735.033	493.22
735.219	517.79
735.404	442.02
735.59	446.12
735.776	396.96
735.962	433.83
736.148	538.27
736.333	558.75
736.519	462.5
736.705	448.16
736.89	409.25
737.076	429.73
737.262	384.68
737.447	396.96
737.633	429.73
737.819	609.95
738.004	456.36
738.19	505.51
738.375	517.79
738.561	521.89
738.747	493.22
738.932	345.77
739.118	583.33
739.303	593.57
739.489	409.25
739.674	454.31
739.859	482.98
740.045	530.08
740.23	464.55
740.416	405.16
740.601	472.74
740.786	448.16
740.972	388.77
741.157	425.64
741.342	425.64
741.528	388.77
741.713	497.32
741.898	411.3
742.084	396.96
742.269	470.69
742.454	544.42
742.639	525.99
742.824	464.55
743.01	546.47
743.195	517.79
743.38	390.82
743.565	462.5
743.75	433.83
743.935	509.6
744.12	546.47
744.305	343.72
744.49	399.01
744.675	532.13
744.86	341.67
745.045	568.99
745.23	472.74
745.415	372.39
745.6	544.42
745.785	380.58
745.97	487.08
746.155	442.02
746.34	579.23
746.525	493.22
746.71	417.44
746.895	339.62
747.079	384.68
747.264	419.49
747.449	474.79
747.634	577.19
747.819	454.31
748.003	417.44
748.188	392.87
748.373	437.92
748.557	450.21
748.742	378.53
748.927	401.06
749.111	329.38
749.296	368.29
749.481	509.6
749.665	423.59
749.85	349.86
750.034	429.73
750.219	419.49
750.404	333.48
750.588	417.44
750.773	290.47
750.957	491.17
751.141	427.68
751.326	568.99
751.51	300.71
751.695	329.38
751.879	374.44
752.064	411.3
752.248	405.16
752.432	495.27
752.617	394.92
752.801	423.59
752.985	380.58
753.17	366.25
753.354	409.25
753.538	435.88
753.722	329.38
753.907	345.77
754.091	304.81
754.275	446.12
754.459	233.13
754.643	317.09
754.828	376.48
755.012	470.69
755.196	274.09
755.38	276.13
755.564	251.56
755.748	286.37
755.932	421.54
756.116	321.19
756.3	323.24
756.484	282.28
756.668	439.97
756.852	243.37
757.036	286.37
757.22	343.72
757.404	204.46
757.588	286.37
757.772	319.14
757.956	134.82
758.14	415.4
758.323	206.5
758.507	284.33
758.691	171.69
758.875	360.1
759.059	351.91
759.242	253.61
759.426	251.56
759.61	222.89
759.794	226.98
759.977	345.77
760.161	435.88
760.345	382.63
760.528	321.19
760.712	263.85
760.895	339.62
761.079	216.74
761.263	229.03
761.446	159.4
761.63	249.51
761.813	272.04
761.997	157.35
762.18	169.64
762.364	302.76
762.547	110.25
762.731	269.99
762.914	200.36
763.098	253.61
763.281	186.02
763.464	224.94
763.648	186.02
763.831	261.8
764.015	204.46
764.198	296.61
764.381	237.22
764.564	233.13
764.748	315.05
764.931	308.9
765.114	106.15
765.297	177.83
765.481	237.22
765.664	161.45
765.847	194.22
766.03	362.15
766.213	151.21
766.397	294.57
766.58	118.44
766.763	308.9
766.946	124.58
767.129	173.74
767.312	202.41
767.495	206.5
767.678	175.78
767.861	155.3
768.044	226.98
768.227	216.74
768.41	206.5
768.593	175.78
768.776	239.27
768.959	192.17
769.142	310.95
769.324	212.65
769.507	196.26
769.69	132.78
769.873	173.74
770.056	362.15
770.239	206.5
770.421	249.51
770.604	261.8
770.787	188.07
770.97	200.36
771.152	50.86
771.335	224.94
771.518	69.29
771.7	315.05
771.883	298.66
772.066	118.44
772.248	179.88
772.431	296.61
772.613	200.36
772.796	222.89
772.978	192.17
773.161	265.89
773.343	179.88
773.526	161.45
773.708	140.97
773.891	83.63
774.073	175.78
774.256	151.21
774.438	294.57
774.621	165.54
774.803	216.74
774.985	106.15
775.168	159.4
775.35	93.87
775.532	194.22
775.715	155.3
775.897	132.78
776.079	181.93
776.261	192.17
776.444	155.3
776.626	163.5
776.808	89.77
776.99	87.72
777.173	202.41
777.355	132.78
777.537	134.82
777.719	132.78
777.901	177.83
778.083	100.01
778.265	83.63
778.447	151.21
778.629	52.91
778.811	186.02
778.993	214.7
779.175	186.02
779.357	177.83
779.539	87.72
779.721	161.45
779.903	186.02
780.085	114.34
780.267	124.58
780.449	138.92
780.631	171.69
780.812	200.36
780.994	67.24
781.176	151.21
781.358	7.85
781.54	149.16
781.721	165.54
781.903	167.59
782.085	93.87
782.267	220.84
782.448	100.01
782.63	122.54
782.812	85.67
782.993	155.3
783.175	171.69
783.357	77.48
783.538	104.11
783.72	38.57
783.901	104.11
784.083	169.64
784.264	126.63
784.446	44.71
784.627	-12.63
784.809	202.41
784.99	122.54
785.172	171.69
785.353	106.15
785.535	136.87
785.716	32.43
785.897	81.58
786.079	-12.63
786.26	118.44
786.441	173.74
786.623	-2.39
786.804	40.62
786.985	28.33
787.167	157.35
787.348	147.11
787.529	71.34
787.71	235.18
787.891	120.49
788.073	77.48
788.254	-4.44
788.435	157.35
788.616	151.21
788.797	-10.58
788.978	77.48
789.159	38.57
789.34	145.06
789.522	100.01
789.703	79.53
789.884	34.47
790.065	91.82
790.246	208.55
790.427	83.63
790.607	229.03
790.788	186.02
790.969	50.86
791.15	89.77
791.331	61.1
791.512	44.71
791.693	-39.25
791.874	13.99
792.054	265.89
792.235	196.26
792.416	5.8
792.597	83.63
792.778	147.11
792.958	157.35
793.139	157.35
793.32	120.49
793.5	126.63
793.681	100.01
793.862	83.63
794.042	67.24
794.223	-53.59
794.404	-18.77
794.584	-39.25
794.765	-4.44
794.945	61.1
795.126	93.87
795.306	220.84
795.487	16.04
795.667	69.29
795.848	114.34
796.028	116.39
796.209	83.63
796.389	149.16
796.57	67.24
796.75	-10.58
796.93	26.28
797.111	7.85
797.291	11.95
797.471	83.63
797.652	7.85
797.832	20.14
798.012	116.39
798.192	40.62
798.373	-63.83
798.553	1.71
798.733	61.1
798.913	1.71
799.093	18.09
799.274	132.78
799.454	120.49
799.634	110.25
799.814	116.39
799.994	106.15
800.174	85.67
800.354	57
800.534	79.53
800.714	59.05
800.894	-0.34
801.074	-90.45
801.254	-53.59
801.434	202.41
801.614	110.25
801.794	24.23
801.974	1707.66
802.154	38.57
802.334	79.53
802.514	-41.3
802.693	20.14
802.873	42.67
803.053	120.49
803.233	122.54
803.413	102.06
803.592	18.09
803.772	34.47
803.952	5.8
804.131	-37.2
804.311	65.19
804.491	175.78
804.67	40.62
804.85	-24.92
805.03	83.63
805.209	124.58
805.389	48.81
805.568	-43.35
805.748	18.09
805.928	9.9
806.107	122.54
806.287	67.24
806.466	18.09
806.646	48.81
806.825	54.95
807.004	9.9
807.184	44.71
807.363	153.26
807.543	145.06
807.722	13.99
807.901	149.16
808.081	179.88
808.26	-98.64
808.439	-37.2
808.619	63.15
808.798	28.33
808.977	81.58
809.156	126.63
809.336	48.81
809.515	122.54
809.694	-45.4
809.873	-12.63
810.052	151.21
810.231	100.01
810.411	87.72
810.59	102.06
810.769	81.58
810.948	91.82
811.127	-22.87
811.306	16.04
811.485	-41.3
811.664	161.45
811.843	91.82
812.022	-2.39
812.201	20.14
812.38	61.1
812.559	18.09
812.737	65.19
812.916	-82.26
813.095	-49.49
813.274	87.72
813.453	-6.49
813.632	52.91
813.811	75.43
813.989	-12.63
814.168	11.95
814.347	-76.12
814.526	-16.73
814.704	145.06
814.883	73.39
815.062	-49.49
815.24	7.85
815.419	-100.69
815.598	124.58
815.776	-86.36
815.955	7.85
816.133	-117.08
816.312	26.28
816.49	-14.68
816.669	89.77
816.847	22.19
817.026	-26.96
817.204	-63.83
817.383	65.19
817.561	48.81
817.74	65.19
817.918	44.71
818.097	9.9
818.275	-24.92
818.453	48.81
818.632	65.19
818.81	-26.96
818.988	11.95
819.167	32.43
819.345	79.53
819.523	-86.36
819.701	48.81
819.879	48.81
820.058	77.48
820.236	69.29
820.414	24.23
820.592	44.71
820.77	40.62
820.948	26.28
821.127	-41.3
821.305	32.43
821.483	3.75
821.661	44.71
821.839	46.76
822.017	-47.44
822.195	-8.53
822.373	112.3
822.551	3.75
822.729	171.69
822.907	46.76
823.085	73.39
823.262	11.95
823.44	-24.92
823.618	-10.58
823.796	34.47
823.974	59.05
824.152	-2.39
824.329	-37.2
824.507	-6.49
824.685	97.96
824.863	-2.39
825.04	16.04
825.218	106.15
825.396	-10.58
825.574	85.67
825.751	24.23
825.929	140.97
826.107	-6.49
826.284	134.82
826.462	110.25
826.639	83.63
826.817	-29.01
826.994	-0.34
827.172	-84.31
827.349	73.39
827.527	50.86
827.704	67.24
827.882	126.63
828.059	40.62
828.237	26.28
828.414	91.82
828.591	-67.92
828.769	-24.92
828.946	48.81
829.124	46.76
829.301	89.77
829.478	57
829.655	97.96
829.833	87.72
830.01	-123.22
830.187	50.86
830.364	-6.49
830.542	46.76
830.719	120.49
830.896	3.75
831.073	112.3
831.25	143.02
831.427	69.29
831.604	-20.82
831.782	-2.39
831.959	-61.78
832.136	1.71
832.313	114.34
832.49	-16.73
832.667	54.95
832.844	-41.3
833.021	112.3
833.198	-26.96
833.374	44.71
833.551	54.95
833.728	-20.82
833.905	122.54
834.082	-96.6
834.259	69.29
834.436	89.77
834.612	-98.64
834.789	155.3
834.966	30.38
835.143	3.75
835.319	1.71
835.496	114.34
835.673	122.54
835.85	102.06
836.026	75.43
836.203	67.24
836.38	-69.97
836.556	-100.69
836.733	28.33
836.909	95.91
837.086	-29.01
837.262	-106.84
837.439	-2.39
837.616	-31.06
837.792	63.15
837.968	34.47
838.145	-90.45
838.321	61.1
838.498	73.39
838.674	57
838.851	26.28
839.027	-26.96
839.203	18.09
839.38	-6.49
839.556	13.99
839.732	173.74
839.909	13.99
840.085	114.34
840.261	5.8
840.437	40.62
840.614	-8.53
840.79	175.78
840.966	118.44
841.142	13.99
841.318	-6.49
841.494	40.62
841.671	108.2
841.847	-18.77
842.023	-16.73
842.199	40.62
842.375	190.12
842.551	-69.97
842.727	-10.58
842.903	177.83
843.079	-45.4
843.255	65.19
843.431	59.05
843.607	118.44
843.783	-78.16
843.959	75.43
844.134	50.86
844.31	159.4
844.486	-41.3
844.662	18.09
844.838	-6.49
845.013	34.47
845.189	-2.39
845.365	-4.44
845.541	-22.87
845.716	-26.96
845.892	106.15
846.068	-78.16
846.244	-53.59
846.419	13.99
846.595	-45.4
846.77	-63.83
846.946	52.91
847.122	-20.82
847.297	32.43
847.473	140.97
847.648	-47.44
847.824	18.09
847.999	-74.07
848.175	63.15
848.35	52.91
848.526	85.67
848.701	50.86
848.876	85.67
849.052	136.87
849.227	1.71
849.403	-33.11
849.578	30.38
849.753	73.39
849.929	61.1
850.104	-90.45
850.279	36.52
850.454	11.95
850.63	130.73
850.805	-20.82
850.98	-41.3
851.155	11.95
851.33	5.8
851.505	-53.59
851.681	63.15
851.856	-14.68
852.031	73.39
852.206	22.19
852.381	-2.39
852.556	5.8
852.731	-14.68
852.906	63.15
853.081	36.52
853.256	91.82
853.431	71.34
853.606	-61.78
853.781	5.8
853.956	-94.55
854.131	24.23
854.305	-16.73
854.48	-22.87
854.655	48.81
854.83	5.8
855.005	-22.87
855.18	34.47
855.354	-4.44
855.529	5.8
855.704	-18.77
855.879	48.81
856.053	-45.4
856.228	44.71
856.403	-76.12
856.577	75.43
856.752	-55.64
856.926	-8.53
857.101	34.47
857.276	-76.12
857.45	16.04
857.625	48.81
857.799	73.39
857.974	-0.34
858.148	-112.98
858.323	93.87
858.497	-65.88
858.672	-98.64
858.846	-78.16
859.02	130.73
859.195	-53.59
859.369	22.19
859.543	-10.58
859.718	-53.59
859.892	-37.2
860.066	24.23
860.241	-8.53
860.415	34.47
860.589	-8.53
860.763	-2.39
860.938	9.9
861.112	52.91
861.286	-10.58
861.46	50.86
861.634	34.47
861.808	87.72
861.982	-47.44
862.157	-98.64
862.331	34.47
862.505	-16.73
862.679	-61.78
862.853	1.71
863.027	-18.77
863.201	118.44
863.375	71.34
863.549	54.95
863.722	57
863.896	91.82
864.07	-57.68
864.244	-51.54
864.418	81.58
864.592	38.57
864.766	-12.63
864.939	16.04
865.113	-74.07
865.287	71.34
865.461	-33.11
865.634	-39.25
865.808	28.33
865.982	30.38
866.156	-39.25
866.329	24.23
866.503	16.04
866.676	138.92
866.85	100.01
867.024	61.1
867.197	57
867.371	42.67
867.544	57
867.718	-98.64
867.891	140.97
868.065	-51.54
868.238	1.71
868.412	65.19
868.585	-16.73
868.759	-61.78
868.932	-86.36
869.105	-4.44
869.279	16.04
869.452	-84.31
869.625	13.99
869.799	-45.4
869.972	-45.4
870.145	-47.44
870.319	83.63
870.492	-45.4
870.665	59.05
870.838	-119.12
871.011	-108.88
871.185	11.95
871.358	-43.35
871.531	81.58
871.704	-10.58
871.877	-41.3
872.05	-49.49
872.223	-57.68
872.396	91.82
872.569	42.67
872.742	-20.82
872.915	42.67
873.088	-0.34
873.261	-53.59
873.434	28.33
873.607	-18.77
873.78	46.76
873.953	-72.02
874.126	-0.34
874.299	48.81
874.471	-53.59
874.644	-8.53
874.817	-24.92
874.99	89.77
875.163	-0.34
875.335	87.72
875.508	22.19
875.681	83.63
875.853	18.09
876.026	9.9
876.199	-2.39
876.371	1.71
876.544	-57.68
876.717	24.23
876.889	36.52
877.062	50.86
877.234	-49.49
877.407	-57.68
877.579	32.43
877.752	46.76
877.924	30.38
878.097	1.71
878.269	3.75
878.442	81.58
878.614	81.58
878.786	36.52
878.959	-10.58
879.131	50.86
879.303	-125.27
879.476	3.75
879.648	110.25
879.82	28.33
879.993	22.19
880.165	5.8
880.337	-76.12
880.509	67.24
880.681	-47.44
880.854	-67.92
881.026	54.95
881.198	181.93
881.37	61.1
881.542	-14.68
881.714	-0.34
881.886	50.86
882.058	-22.87
882.23	48.81
882.402	1.71
882.574	52.91
882.746	50.86
882.918	102.06
883.09	26.28
883.262	5.8
883.434	75.43
883.606	-110.93
883.778	-69.97
883.95	126.63
884.122	-29.01
884.293	126.63
884.465	48.81
884.637	116.39
884.809	9.9
884.98	5.8
885.152	46.76
885.324	108.2
885.496	-47.44
885.667	30.38
885.839	-22.87
886.011	67.24
886.182	-33.11
886.354	-16.73
886.525	-37.2
886.697	44.71
886.869	57
887.04	-0.34
887.212	52.91
887.383	120.49
887.555	28.33
887.726	32.43
887.897	-84.31
888.069	40.62
888.24	79.53
888.412	79.53
888.583	-57.68
888.754	75.43
888.926	-45.4
889.097	-61.78
889.268	-22.87
889.44	34.47
889.611	-76.12
889.782	-76.12
889.953	5.8
890.125	52.91
890.296	-8.53
890.467	-59.73
890.638	13.99
890.809	69.29
890.98	-76.12
891.151	63.15
891.323	132.78
891.494	-39.25
891.665	-33.11
891.836	-33.11
892.007	93.87
892.178	77.48
892.349	-33.11
892.52	-96.6
892.691	32.43
892.862	-31.06
893.032	-121.17
893.203	48.81
893.374	13.99
893.545	48.81
893.716	42.67
893.887	11.95
894.057	24.23
894.228	32.43
894.399	-35.16
894.57	102.06
894.74	11.95
894.911	-53.59
895.082	3.75
895.253	3.75
895.423	-12.63
895.594	93.87
895.764	89.77
895.935	9.9
896.106	11.95
896.276	32.43
896.447	-69.97
896.617	-20.82
896.788	-59.73
896.958	-18.77
897.129	-31.06
897.299	-108.88
897.47	155.3
897.64	30.38
897.81	-55.64
897.981	40.62
898.151	26.28
898.322	81.58
898.492	36.52
898.662	-72.02
898.832	-53.59
899.003	-0.34
899.173	65.19
899.343	-41.3
899.513	11.95
