Data from USB4F104151__80__09-30-46-087.txt Node

Date: Wed Feb 26 09:30:46 EST 2025
User: louis
Spectrometer: USB4F10415
Trigger mode: 4
Integration Time (sec): 1.000000E-1
Scans to average: 1
Electric dark correction enabled: true
Nonlinearity correction enabled: false
Boxcar width: 0
XAxis mode: Wavelengths
Number of Pixels in Spectrum: 3648
>>>>>Begin Spectral Data<<<<<
178.204	-341.84
178.424	-341.84
178.644	-341.84
178.864	-399.18
179.084	-366.42
179.304	-1.88
179.524	-24.4
179.744	10.41
179.964	84.14
180.184	6.31
180.404	53.42
180.624	-10.07
180.844	-5.97
181.064	-44.88
181.283	-14.17
181.503	-42.84
181.723	-10.07
181.943	-79.7
182.163	207.02
182.383	22.7
182.602	2.22
182.822	186.54
183.042	69.8
183.262	8.36
183.482	-53.08
183.701	20.65
183.921	55.47
184.141	-10.07
184.361	90.28
184.58	39.08
184.8	24.75
185.02	34.99
185.239	114.86
185.459	30.89
185.679	133.29
185.898	-153.43
186.118	32.94
186.338	30.89
186.557	34.99
186.777	-67.41
186.997	2.22
187.216	-42.84
187.436	110.76
187.655	86.19
187.875	106.67
188.095	47.27
188.314	116.9
188.534	94.38
188.753	-73.56
188.973	49.32
189.192	182.44
189.412	22.7
189.631	34.99
189.851	22.7
190.07	149.67
190.29	-102.23
190.509	-51.03
190.729	-10.07
190.948	77.99
191.168	211.11
191.387	80.04
191.607	55.47
191.826	96.43
192.045	69.8
192.265	67.75
192.484	92.33
192.704	-14.17
192.923	-38.74
193.142	184.49
193.362	102.57
193.581	135.34
193.8	73.9
194.02	135.34
194.239	26.79
194.458	123.05
194.678	63.66
194.897	-20.31
195.116	106.67
195.335	49.32
195.555	94.38
195.774	-5.97
195.993	121
196.212	71.85
196.432	102.57
196.651	51.37
196.87	18.6
197.089	231.59
197.308	39.08
197.528	43.18
197.747	-42.84
197.966	45.23
198.185	118.95
198.404	-16.21
198.623	88.23
198.842	174.25
199.062	84.14
199.281	55.47
199.5	100.52
199.719	41.13
199.938	104.62
200.157	30.89
200.376	80.04
200.595	88.23
200.814	90.28
201.033	0.17
201.252	168.1
201.471	96.43
201.69	94.38
201.909	-26.45
202.128	145.58
202.347	90.28
202.566	-12.12
202.785	-71.51
203.004	-51.03
203.223	180.39
203.442	26.79
203.661	-20.31
203.879	96.43
204.098	149.67
204.317	10.41
204.536	84.14
204.755	-1.88
204.974	86.19
205.193	2.22
205.411	184.49
205.63	59.56
205.849	55.47
206.068	30.89
206.287	-57.17
206.505	73.9
206.724	57.51
206.943	75.95
207.162	2.22
207.381	55.47
207.599	10.41
207.818	53.42
208.037	-22.36
208.255	-22.36
208.474	84.14
208.693	20.65
208.911	-12.12
209.13	88.23
209.349	88.23
209.567	108.71
209.786	153.77
210.005	-26.45
210.223	96.43
210.442	-102.23
210.661	55.47
210.879	47.27
211.098	37.03
211.316	67.75
211.535	61.61
211.753	22.7
211.972	53.42
212.191	-34.64
212.409	-22.36
212.628	129.19
212.846	-30.55
213.065	32.94
213.283	80.04
213.502	18.6
213.72	34.99
213.938	53.42
214.157	14.51
214.375	108.71
214.594	18.6
214.812	30.89
215.031	-14.17
215.249	88.23
215.467	24.75
215.686	32.94
215.904	67.75
216.122	80.04
216.341	116.9
216.559	47.27
216.778	53.42
216.996	94.38
217.214	-32.6
217.432	14.51
217.651	-85.84
217.869	84.14
218.087	14.51
218.306	34.99
218.524	123.05
218.742	39.08
218.96	6.31
219.179	16.55
219.397	26.79
219.615	235.69
219.833	116.9
220.051	-10.07
220.27	141.48
220.488	88.23
220.706	67.75
220.924	-10.07
221.142	65.71
221.36	-28.5
221.578	24.75
221.796	8.36
222.015	20.65
222.233	-3.93
222.451	137.38
222.669	-26.45
222.887	77.99
223.105	90.28
223.323	-63.32
223.541	-85.84
223.759	30.89
223.977	80.04
224.195	153.77
224.413	102.57
224.631	49.32
224.849	41.13
225.067	110.76
225.285	6.31
225.503	-32.6
225.721	-65.36
225.939	104.62
226.157	6.31
226.375	219.3
226.592	2.22
226.81	39.08
227.028	213.16
227.246	92.33
227.464	114.86
227.682	16.55
227.9	63.66
228.117	-34.64
228.335	127.14
228.553	96.43
228.771	-5.97
228.989	47.27
229.206	20.65
229.424	28.84
229.642	39.08
229.86	12.46
230.077	104.62
230.295	-3.93
230.513	118.95
230.731	96.43
230.948	174.25
231.166	100.52
231.384	12.46
231.601	-36.69
231.819	151.72
232.037	-12.12
232.254	12.46
232.472	-48.98
232.689	16.55
232.907	53.42
233.125	2.22
233.342	-46.93
233.56	63.66
233.777	-14.17
233.995	20.65
234.213	147.62
234.43	112.81
234.648	30.89
234.865	18.6
235.083	55.47
235.3	49.32
235.518	77.99
235.735	141.48
235.953	75.95
236.17	30.89
236.388	45.23
236.605	114.86
236.822	102.57
237.04	145.58
237.257	41.13
237.475	26.79
237.692	41.13
237.909	41.13
238.127	20.65
238.344	149.67
238.562	73.9
238.779	-42.84
238.996	-8.02
239.214	71.85
239.431	102.57
239.648	-22.36
239.865	6.31
240.083	106.67
240.3	-18.26
240.517	-38.74
240.735	43.18
240.952	22.7
241.169	49.32
241.386	2.22
241.603	-5.97
241.821	-55.12
242.038	51.37
242.255	71.85
242.472	-12.12
242.689	84.14
242.907	32.94
243.124	-12.12
243.341	55.47
243.558	4.27
243.775	-10.07
243.992	8.36
244.209	135.34
244.426	168.1
244.643	98.47
244.86	22.7
245.078	104.62
245.295	110.76
245.512	-63.32
245.729	-75.6
245.946	77.99
246.163	55.47
246.38	75.95
246.597	59.56
246.814	80.04
247.031	-5.97
247.248	71.85
247.464	61.61
247.681	69.8
247.898	69.8
248.115	45.23
248.332	28.84
248.549	145.58
248.766	174.25
248.983	86.19
249.2	96.43
249.417	49.32
249.633	63.66
249.85	118.95
250.067	-10.07
250.284	16.55
250.501	51.37
250.717	45.23
250.934	39.08
251.151	6.31
251.368	53.42
251.585	125.1
251.801	39.08
252.018	-16.21
252.235	129.19
252.451	-34.64
252.668	18.6
252.885	200.87
253.102	84.14
253.318	24.75
253.535	12.46
253.752	34.99
253.968	-12.12
254.185	-38.74
254.401	6.31
254.618	57.51
254.835	6.31
255.051	96.43
255.268	71.85
255.484	-16.21
255.701	71.85
255.917	90.28
256.134	0.17
256.351	80.04
256.567	-67.41
256.784	14.51
257	4.27
257.217	55.47
257.433	100.52
257.65	49.32
257.866	157.86
258.082	4.27
258.299	22.7
258.515	69.8
258.732	12.46
258.948	-71.51
259.165	37.03
259.381	-67.41
259.597	135.34
259.814	-40.79
260.03	-26.45
260.246	55.47
260.463	194.73
260.679	59.56
260.895	-22.36
261.112	98.47
261.328	-5.97
261.544	14.51
261.761	172.2
261.977	4.27
262.193	-30.55
262.409	84.14
262.626	51.37
262.842	106.67
263.058	-55.12
263.274	71.85
263.49	53.42
263.707	86.19
263.923	53.42
264.139	-79.7
264.355	-12.12
264.571	71.85
264.787	65.71
265.004	164.01
265.22	2.22
265.436	-16.21
265.652	-30.55
265.868	96.43
266.084	12.46
266.3	47.27
266.516	-44.88
266.732	65.71
266.948	-5.97
267.164	8.36
267.38	102.57
267.596	129.19
267.812	178.34
268.028	-36.69
268.244	-46.93
268.46	28.84
268.676	10.41
268.892	18.6
269.108	18.6
269.324	-18.26
269.54	-16.21
269.756	28.84
269.972	-71.51
270.188	59.56
270.403	-1.88
270.619	88.23
270.835	110.76
271.051	53.42
271.267	-20.31
271.483	10.41
271.698	137.38
271.914	49.32
272.13	96.43
272.346	88.23
272.562	34.99
272.777	98.47
272.993	-24.4
273.209	-34.64
273.425	20.65
273.64	-14.17
273.856	6.31
274.072	-42.84
274.287	-32.6
274.503	67.75
274.719	32.94
274.934	-26.45
275.15	-96.08
275.366	69.8
275.581	71.85
275.797	28.84
276.012	26.79
276.228	-32.6
276.444	-24.4
276.659	55.47
276.875	-1.88
277.09	71.85
277.306	-40.79
277.521	30.89
277.737	6.31
277.952	110.76
278.168	61.61
278.383	6.31
278.599	20.65
278.814	92.33
279.03	14.51
279.245	145.58
279.461	59.56
279.676	112.81
279.892	-61.27
280.107	-34.64
280.322	-55.12
280.538	-28.5
280.753	-32.6
280.969	135.34
281.184	110.76
281.399	153.77
281.615	-46.93
281.83	47.27
282.045	-24.4
282.26	-51.03
282.476	-10.07
282.691	104.62
282.906	43.18
283.122	2.22
283.337	34.99
283.552	116.9
283.767	34.99
283.983	137.38
284.198	-30.55
284.413	88.23
284.628	-67.41
284.843	12.46
285.058	65.71
285.274	73.9
285.489	-59.22
285.704	121
285.919	12.46
286.134	-24.4
286.349	-5.97
286.564	24.75
286.779	123.05
286.995	39.08
287.21	-59.22
287.425	53.42
287.64	-14.17
287.855	43.18
288.07	2.22
288.285	145.58
288.5	129.19
288.715	80.04
288.93	6.31
289.145	-94.04
289.36	172.2
289.575	-32.6
289.79	116.9
290.004	34.99
290.219	63.66
290.434	-40.79
290.649	6.31
290.864	-69.46
291.079	43.18
291.294	106.67
291.509	82.09
291.724	75.95
291.938	28.84
292.153	2.22
292.368	10.41
292.583	8.36
292.798	155.82
293.012	114.86
293.227	37.03
293.442	26.79
293.657	168.1
293.871	77.99
294.086	20.65
294.301	174.25
294.516	63.66
294.73	20.65
294.945	0.17
295.16	-5.97
295.374	137.38
295.589	55.47
295.804	129.19
296.018	69.8
296.233	84.14
296.447	69.8
296.662	-24.4
296.877	186.54
297.091	71.85
297.306	12.46
297.52	59.56
297.735	39.08
297.949	61.61
298.164	116.9
298.378	10.41
298.593	30.89
298.807	-14.17
299.022	43.18
299.236	127.14
299.451	-48.98
299.665	-20.31
299.88	45.23
300.094	82.09
300.309	61.61
300.523	0.17
300.737	-18.26
300.952	92.33
301.166	121
301.381	-14.17
301.595	143.53
301.809	39.08
302.024	30.89
302.238	-10.07
302.452	39.08
302.667	20.65
302.881	182.44
303.095	145.58
303.309	28.84
303.524	-42.84
303.738	55.47
303.952	53.42
304.166	104.62
304.381	-20.31
304.595	121
304.809	-51.03
305.023	-55.12
305.237	6.31
305.452	-67.41
305.666	53.42
305.88	59.56
306.094	123.05
306.308	73.9
306.522	110.76
306.736	18.6
306.95	63.66
307.164	47.27
307.379	-71.51
307.593	98.47
307.807	98.47
308.021	73.9
308.235	80.04
308.449	-108.37
308.663	-22.36
308.877	172.2
309.091	69.8
309.305	6.31
309.519	-71.51
309.733	131.24
309.947	-42.84
310.161	59.56
310.374	80.04
310.588	98.47
310.802	-104.28
311.016	14.51
311.23	80.04
311.444	4.27
311.658	94.38
311.872	49.32
312.085	170.15
312.299	102.57
312.513	98.47
312.727	133.29
312.941	-42.84
313.154	88.23
313.368	18.6
313.582	86.19
313.796	80.04
314.009	-28.5
314.223	77.99
314.437	73.9
314.651	34.99
314.864	-14.17
315.078	-1.88
315.292	-44.88
315.505	22.7
315.719	114.86
315.933	12.46
316.146	14.51
316.36	-32.6
316.573	104.62
316.787	125.1
317.001	84.14
317.214	-22.36
317.428	80.04
317.641	-69.46
317.855	34.99
318.068	53.42
318.282	51.37
318.495	102.57
318.709	92.33
318.922	96.43
319.136	129.19
319.349	37.03
319.563	57.51
319.776	84.14
319.99	20.65
320.203	129.19
320.417	-14.17
320.63	26.79
320.843	147.62
321.057	63.66
321.27	0.17
321.483	30.89
321.697	86.19
321.91	14.51
322.124	59.56
322.337	104.62
322.55	-36.69
322.763	65.71
322.977	12.46
323.19	-24.4
323.403	30.89
323.617	149.67
323.83	37.03
324.043	6.31
324.256	-20.31
324.469	-18.26
324.683	159.91
324.896	37.03
325.109	55.47
325.322	-51.03
325.535	139.43
325.748	75.95
325.962	20.65
326.175	92.33
326.388	43.18
326.601	116.9
326.814	37.03
327.027	108.71
327.24	121
327.453	-38.74
327.666	84.14
327.879	80.04
328.092	102.57
328.305	104.62
328.518	-24.4
328.731	-32.6
328.944	-14.17
329.157	41.13
329.37	20.65
329.583	118.95
329.796	176.3
330.009	-42.84
330.222	75.95
330.435	161.96
330.648	59.56
330.861	8.36
331.073	43.18
331.286	151.72
331.499	4.27
331.712	18.6
331.925	10.41
332.138	63.66
332.35	129.19
332.563	-40.79
332.776	100.52
332.989	-51.03
333.202	39.08
333.414	71.85
333.627	2.22
333.84	61.61
334.053	110.76
334.265	34.99
334.478	-63.32
334.691	16.55
334.903	6.31
335.116	-71.51
335.329	28.84
335.541	71.85
335.754	63.66
335.966	20.65
336.179	102.57
336.392	-36.69
336.604	22.7
336.817	84.14
337.029	-26.45
337.242	28.84
337.454	55.47
337.667	4.27
337.88	75.95
338.092	22.7
338.305	86.19
338.517	-73.56
338.729	57.51
338.942	69.8
339.154	12.46
339.367	-102.23
339.579	65.71
339.792	-22.36
340.004	10.41
340.217	4.27
340.429	67.75
340.641	2.22
340.854	-65.36
341.066	45.23
341.278	127.14
341.491	170.15
341.703	39.08
341.915	12.46
342.128	102.57
342.34	39.08
342.552	-77.65
342.764	-44.88
342.977	-1.88
343.189	14.51
343.401	28.84
343.613	-36.69
343.826	80.04
344.038	-51.03
344.25	57.51
344.462	-12.12
344.674	96.43
344.886	22.7
345.099	63.66
345.311	88.23
345.523	-1.88
345.735	-94.04
345.947	45.23
346.159	37.03
346.371	14.51
346.583	-12.12
346.795	161.96
347.007	-55.12
347.219	53.42
347.431	24.75
347.643	100.52
347.855	-8.02
348.067	73.9
348.279	-102.23
348.491	71.85
348.703	24.75
348.915	-10.07
349.127	4.27
349.339	112.81
349.551	-1.88
349.763	16.55
349.975	39.08
350.187	108.71
350.399	143.53
350.61	118.95
350.822	-40.79
351.034	30.89
351.246	49.32
351.458	71.85
351.669	57.51
351.881	110.76
352.093	86.19
352.305	184.49
352.517	84.14
352.728	178.34
352.94	20.65
353.152	110.76
353.363	37.03
353.575	-26.45
353.787	104.62
353.999	20.65
354.21	116.9
354.422	-1.88
354.633	39.08
354.845	-5.97
355.057	10.41
355.268	131.24
355.48	77.99
355.692	-83.8
355.903	43.18
356.115	39.08
356.326	-22.36
356.538	174.25
356.749	110.76
356.961	135.34
357.172	-20.31
357.384	59.56
357.595	243.88
357.807	-14.17
358.018	-46.93
358.23	-10.07
358.441	129.19
358.653	-30.55
358.864	-18.26
359.075	30.89
359.287	57.51
359.498	65.71
359.709	8.36
359.921	55.47
360.132	116.9
360.344	-12.12
360.555	88.23
360.766	73.9
360.977	32.94
361.189	73.9
361.4	2.22
361.611	75.95
361.823	129.19
362.034	90.28
362.245	-63.32
362.456	51.37
362.667	80.04
362.879	20.65
363.09	96.43
363.301	129.19
363.512	65.71
363.723	-63.32
363.935	12.46
364.146	108.71
364.357	75.95
364.568	-1.88
364.779	-18.26
364.99	34.99
365.201	0.17
365.412	129.19
365.623	-104.28
365.834	34.99
366.045	2.22
366.256	108.71
366.467	102.57
366.678	43.18
366.889	49.32
367.1	41.13
367.311	39.08
367.522	49.32
367.733	114.86
367.944	-12.12
368.155	47.27
368.366	112.81
368.577	143.53
368.788	88.23
368.999	-67.41
369.209	53.42
369.42	178.34
369.631	178.34
369.842	55.47
370.053	-75.6
370.264	53.42
370.474	-12.12
370.685	80.04
370.896	-8.02
371.107	114.86
371.317	34.99
371.528	-1.88
371.739	63.66
371.95	45.23
372.16	45.23
372.371	12.46
372.582	45.23
372.792	32.94
373.003	80.04
373.214	51.37
373.424	59.56
373.635	47.27
373.846	104.62
374.056	69.8
374.267	-48.98
374.477	43.18
374.688	-20.31
374.898	37.03
375.109	-1.88
375.319	39.08
375.53	110.76
375.74	28.84
375.951	12.46
376.161	26.79
376.372	151.72
376.582	30.89
376.793	75.95
377.003	-51.03
377.214	-10.07
377.424	71.85
377.635	92.33
377.845	14.51
378.055	121
378.266	18.6
378.476	45.23
378.686	14.51
378.897	-5.97
379.107	69.8
379.317	82.09
379.528	86.19
379.738	63.66
379.948	-42.84
380.158	145.58
380.369	-1.88
380.579	-5.97
380.789	14.51
380.999	39.08
381.21	41.13
381.42	180.39
381.63	49.32
381.84	88.23
382.05	20.65
382.261	125.1
382.471	82.09
382.681	116.9
382.891	168.1
383.101	37.03
383.311	-51.03
383.521	-42.84
383.731	106.67
383.941	135.34
384.151	59.56
384.361	-34.64
384.571	110.76
384.781	80.04
384.991	188.58
385.201	186.54
385.411	55.47
385.621	55.47
385.831	-30.55
386.041	8.36
386.251	6.31
386.461	57.51
386.671	-59.22
386.881	37.03
387.091	12.46
387.301	114.86
387.511	10.41
387.72	80.04
387.93	47.27
388.14	-28.5
388.35	6.31
388.56	69.8
388.769	80.04
388.979	65.71
389.189	-61.27
389.399	63.66
389.609	129.19
389.818	53.42
390.028	61.61
390.238	71.85
390.447	18.6
390.657	20.65
390.867	-5.97
391.076	-61.27
391.286	34.99
391.496	39.08
391.705	24.75
391.915	147.62
392.125	143.53
392.334	0.17
392.544	75.95
392.753	86.19
392.963	20.65
393.172	2.22
393.382	69.8
393.591	145.58
393.801	6.31
394.01	159.91
394.22	88.23
394.429	-5.97
394.639	-34.64
394.848	39.08
395.058	0.17
395.267	45.23
395.477	121
395.686	37.03
395.895	211.11
396.105	155.82
396.314	69.8
396.524	98.47
396.733	4.27
396.942	96.43
397.152	125.1
397.361	157.86
397.57	71.85
397.78	41.13
397.989	77.99
398.198	149.67
398.407	51.37
398.617	22.7
398.826	49.32
399.035	34.99
399.244	94.38
399.453	30.89
399.663	92.33
399.872	88.23
400.081	-34.64
400.29	127.14
400.499	51.37
400.708	112.81
400.917	8.36
401.127	53.42
401.336	45.23
401.545	192.68
401.754	147.62
401.963	4.27
402.172	22.7
402.381	-30.55
402.59	77.99
402.799	90.28
403.008	123.05
403.217	-24.4
403.426	102.57
403.635	-55.12
403.844	71.85
404.053	6.31
404.262	41.13
404.471	141.48
404.68	80.04
404.888	51.37
405.097	45.23
405.306	63.66
405.515	71.85
405.724	14.51
405.933	104.62
406.142	14.51
406.35	170.15
406.559	114.86
406.768	51.37
406.977	166.06
407.185	43.18
407.394	108.71
407.603	-63.32
407.812	53.42
408.02	155.82
408.229	63.66
408.438	116.9
408.646	2.22
408.855	-40.79
409.064	63.66
409.272	67.75
409.481	161.96
409.69	-61.27
409.898	-34.64
410.107	90.28
410.315	94.38
410.524	-26.45
410.733	10.41
410.941	26.79
411.15	0.17
411.358	151.72
411.567	108.71
411.775	96.43
411.984	34.99
412.192	39.08
412.401	12.46
412.609	94.38
412.818	118.95
413.026	43.18
413.234	34.99
413.443	22.7
413.651	24.75
413.86	-18.26
414.068	125.1
414.276	106.67
414.485	18.6
414.693	145.58
414.901	94.38
415.11	92.33
415.318	20.65
415.526	69.8
415.734	61.61
415.943	118.95
416.151	104.62
416.359	-18.26
416.567	39.08
416.776	100.52
416.984	63.66
417.192	190.63
417.4	37.03
417.608	53.42
417.817	2.22
418.025	123.05
418.233	166.06
418.441	18.6
418.649	30.89
418.857	69.8
419.065	149.67
419.273	47.27
419.481	18.6
419.689	106.67
419.897	12.46
420.105	-36.69
420.313	106.67
420.521	135.34
420.729	164.01
420.937	-69.46
421.145	-38.74
421.353	77.99
421.561	141.48
421.769	172.2
421.977	39.08
422.185	80.04
422.393	84.14
422.601	63.66
422.809	71.85
423.017	100.52
423.224	102.57
423.432	88.23
423.64	114.86
423.848	43.18
424.056	-26.45
424.263	51.37
424.471	-5.97
424.679	151.72
424.887	20.65
425.094	82.09
425.302	28.84
425.51	88.23
425.718	139.43
425.925	53.42
426.133	30.89
426.341	106.67
426.548	69.8
426.756	92.33
426.964	100.52
427.171	90.28
427.379	82.09
427.586	2.22
427.794	147.62
428.001	39.08
428.209	127.14
428.417	174.25
428.624	30.89
428.832	153.77
429.039	82.09
429.247	84.14
429.454	69.8
429.662	155.82
429.869	96.43
430.076	77.99
430.284	198.82
430.491	219.3
430.699	161.96
430.906	186.54
431.114	168.1
431.321	129.19
431.528	170.15
431.736	159.91
431.943	155.82
432.15	125.1
432.358	166.06
432.565	170.15
432.772	-8.02
432.979	256.17
433.187	92.33
433.394	141.48
433.601	123.05
433.808	166.06
434.016	221.35
434.223	247.97
434.43	149.67
434.637	295.08
434.844	219.3
435.052	225.45
435.259	225.45
435.466	299.17
435.673	157.86
435.88	274.6
436.087	317.61
436.294	215.21
436.501	331.94
436.708	299.17
436.915	299.17
437.122	325.8
437.329	168.1
437.537	342.18
437.743	295.08
437.95	448.68
438.157	333.99
438.364	356.52
438.571	321.7
438.778	358.57
438.985	424.1
439.192	463.01
439.399	247.97
439.606	413.86
439.813	546.98
440.02	477.35
440.227	583.84
440.433	522.4
440.64	454.82
440.847	460.96
441.054	497.83
441.261	608.42
441.467	501.92
441.674	520.35
441.881	696.48
442.088	575.65
442.294	604.32
442.501	604.32
442.708	635.04
442.914	710.82
443.121	739.49
443.328	807.07
443.534	800.93
443.741	792.73
443.948	739.49
444.154	819.36
444.361	882.85
444.568	944.28
444.774	876.7
444.981	921.76
445.187	956.57
445.394	1018.01
445.6	946.33
445.807	1116.31
446.013	1065.11
446.22	1128.6
446.426	1249.43
446.633	1364.12
446.839	1523.86
447.046	1345.69
447.252	1380.5
447.459	1417.37
447.665	1435.8
447.871	1482.9
448.078	1656.98
448.284	1667.22
448.491	1718.42
448.697	1874.06
448.903	1902.73
449.11	2009.23
449.316	1869.97
449.522	2154.63
449.728	2203.79
449.935	2275.46
450.141	2234.5
450.347	2508.93
450.553	2431.11
450.76	2431.11
450.966	2580.61
451.172	2746.5
451.378	2637.95
451.584	2848.9
451.791	3039.36
451.997	3172.47
452.203	3299.45
452.409	3352.7
452.615	3494.01
452.821	3289.21
453.027	3379.32
453.233	3979.37
453.44	3577.97
453.646	3999.85
453.852	4147.31
454.058	4309.1
454.264	4470.89
454.47	4763.75
454.676	4626.53
454.882	5240.92
455.088	4968.54
455.294	5146.72
455.5	5519.45
455.705	5730.39
455.911	5810.26
456.117	5965.9
456.323	6103.12
456.529	6199.37
456.735	6930.5
456.941	6840.39
457.147	7096.38
457.352	7434.3
457.558	7725.11
457.764	8196.14
457.97	8372.27
458.176	8628.26
458.381	9064.48
458.587	9005.09
458.793	9474.07
458.999	9621.53
459.204	11065.35
459.41	11227.14
459.616	11141.12
459.821	11692.02
460.027	12066.8
460.233	12756.97
460.438	12857.32
460.644	13500.38
460.85	13486.04
461.055	14049.24
461.261	14835.66
461.466	14530.51
461.672	14804.94
461.878	16644.01
462.083	16586.67
462.289	16564.14
462.494	17614.75
462.7	17624.99
462.905	17921.95
463.111	19394.43
463.316	19984.25
463.522	20625.26
463.727	21223.27
463.932	21944.16
464.138	22634.32
464.343	23639.87
464.549	23973.69
464.754	25509.67
464.959	26111.77
465.165	26480.41
465.37	26371.86
465.575	26566.42
465.781	28235.52
465.986	28692.21
466.191	28833.52
466.397	28854
466.602	28118.78
466.807	29843.17
467.012	30301.92
467.218	30807.76
467.423	31258.32
467.628	31913.67
467.833	33457.84
468.038	32902.84
468.244	32362.17
468.449	34031.27
468.654	33259.18
468.859	33406.64
469.064	33742.5
469.269	32769.72
469.474	32825.01
469.679	33906.34
469.885	32833.21
470.09	33384.11
470.295	33453.74
470.5	32691.9
470.705	32855.73
470.91	32005.83
471.115	31780.55
471.32	32159.42
471.525	32286.4
471.73	30987.99
471.935	30777.05
472.139	30025.44
472.344	29624.04
472.549	29767.4
472.754	29050.61
472.959	28565.24
473.164	27479.82
473.369	27102.99
473.574	27707.14
473.778	27514.63
473.983	26689.3
474.188	26390.3
474.393	25081.64
474.598	25272.11
474.802	24721.2
475.007	24205.11
475.212	24346.42
475.417	23254.86
475.621	23035.72
475.826	22603.6
476.031	22130.52
476.235	22058.84
476.44	21536.61
476.645	21188.46
476.849	20948.84
477.054	20619.12
477.259	19881.85
477.463	19967.87
477.668	19349.38
477.872	19593.09
478.077	19101.58
478.282	18358.16
478.486	18038.68
478.691	18055.06
478.895	18274.2
479.1	17928.09
479.304	17674.14
479.509	16953.26
479.713	17201.06
479.918	16891.82
480.122	16588.72
480.326	16803.75
480.531	16725.93
480.735	16512.94
480.94	16123.83
481.144	16603.05
481.348	15925.18
481.553	15749.05
481.757	15521.73
481.961	15671.23
482.166	15669.18
482.37	15458.24
482.574	15151.04
482.778	15130.56
482.983	15261.63
483.187	15230.91
483.391	14888.9
483.595	14655.44
483.8	14520.27
484.004	14438.35
484.208	14428.11
484.412	14260.18
484.616	14192.59
484.821	13955.03
485.025	13537.24
485.229	13770.71
485.433	13563.87
485.637	13461.47
485.841	13027.3
486.045	12953.57
486.249	12998.63
486.453	12552.17
486.657	12625.9
486.861	12333.04
487.065	11808.76
487.269	11704.31
487.473	11649.02
487.677	11765.75
487.881	11573.24
488.085	10950.66
488.289	11311.1
488.493	10760.2
488.697	10665.99
488.901	10385.42
489.105	10373.13
489.309	10217.49
489.512	10086.42
489.716	10020.88
489.92	9472.03
490.124	9447.45
490.328	9506.84
490.531	9099.3
490.735	9035.81
490.939	8933.41
491.143	8548.39
491.346	8515.62
491.55	8513.58
491.754	8263.72
491.958	8052.78
492.161	7936.05
492.365	7950.39
492.569	7755.83
492.772	7567.42
492.976	7440.44
493.18	7489.59
493.383	7276.6
493.587	7305.28
493.79	7235.64
493.994	6936.64
494.197	6942.78
494.401	6912.07
494.605	6731.84
494.808	6912.07
495.012	6656.07
495.215	6639.69
495.419	6737.99
495.622	6451.27
495.825	6443.08
496.029	6514.76
496.232	6498.38
496.436	6443.08
496.639	6604.87
496.843	6422.6
497.046	6418.5
497.249	6465.61
497.453	6525
497.656	6303.82
497.859	6375.5
498.063	6473.8
498.266	6510.66
498.469	6408.26
498.673	6299.72
498.876	6617.16
499.079	6551.62
499.282	6457.42
499.485	6838.34
499.689	6520.9
499.892	6572.1
500.095	6514.76
500.298	6658.12
500.501	6522.95
500.705	6721.6
500.908	6793.28
501.111	6873.15
501.314	6893.63
501.517	7028.8
501.72	6910.02
501.923	6983.74
502.126	7123.01
502.329	7297.08
502.532	7405.63
502.735	7503.93
502.938	7587.89
503.141	7546.94
503.344	7534.65
503.547	7735.35
503.75	7790.64
503.953	7854.13
504.156	8204.33
504.359	8116.27
504.562	8230.96
504.765	8341.55
504.968	8536.1
505.17	8589.35
505.373	8691.75
505.576	8831.01
505.779	8804.39
505.982	8988.71
506.185	9398.3
506.387	9377.82
506.59	9728.02
506.793	10072.08
506.996	9824.28
507.198	10125.33
507.401	10373.13
507.604	10639.37
507.807	10743.81
508.009	10799.11
508.212	10903.56
508.415	11173.89
508.617	11446.27
508.82	11714.55
509.022	11810.81
509.225	12103.67
509.428	12351.47
509.63	12582.89
509.833	12885.99
510.035	13281.25
510.238	13402.08
510.44	13631.45
510.643	13965.27
510.845	14456.78
511.048	14456.78
511.25	14948.29
511.453	15259.59
511.655	15900.6
511.858	15912.89
512.06	16234.42
512.262	16398.26
512.465	16844.71
512.667	17223.59
512.87	17719.2
513.072	17952.66
513.274	18179.99
513.477	18864.01
513.679	19347.33
513.881	19877.76
514.084	19900.28
514.286	20369.27
514.488	20772.72
514.69	21686.11
514.893	21935.96
515.095	22306.65
515.297	22794.06
515.499	23279.43
515.701	23754.56
515.904	24254.26
516.106	24258.36
516.308	25161.51
516.51	25847.58
516.712	25927.46
516.914	26591
517.116	27291.4
517.318	27520.77
517.52	28090.11
517.722	28114.69
517.925	28688.12
518.127	29503.21
518.329	30336.73
518.531	30086.88
518.733	30957.27
518.935	31303.37
519.136	31968.96
519.338	32368.32
519.54	32722.62
519.742	33511.08
519.944	33601.19
520.146	34188.96
520.348	34360.99
520.55	35475.09
520.752	35610.25
520.954	36372.1
521.155	35851.91
521.357	36722.3
521.559	37361.26
521.761	37557.87
521.963	37858.92
522.164	38274.66
522.366	38747.74
522.568	39269.97
522.77	39532.11
522.971	39882.31
523.173	39636.56
523.375	40672.83
523.576	40023.62
523.778	40435.27
523.98	40967.74
524.181	40494.66
524.383	40969.79
524.584	41494.07
524.786	41332.28
524.988	41117.24
525.189	41041.46
525.391	41604.66
525.592	41584.18
525.794	41567.79
525.995	41973.29
526.197	41418.29
526.398	41014.84
526.6	41283.12
526.801	41344.56
527.003	40898.11
527.204	40914.49
527.406	41004.6
527.607	40986.17
527.808	40986.17
528.01	39517.78
528.211	40062.54
528.412	40287.81
528.614	39581.26
528.815	39206.48
529.016	39634.51
529.218	38714.97
529.419	38893.15
529.62	38059.62
529.822	37766.76
530.023	37633.64
530.224	37283.44
530.425	36986.49
530.626	36050.56
530.828	35978.89
531.029	36363.9
531.23	35346.06
531.431	34860.69
531.632	34694.81
531.833	34526.88
532.035	33947.3
532.236	33656.49
532.437	33562.28
532.638	32652.98
532.839	32634.55
533.04	31921.86
533.241	31284.94
533.442	31813.32
533.643	31162.06
533.844	30099.17
534.045	30039.78
534.246	29161.2
534.447	29087.47
534.648	28897.01
534.849	28473.08
535.05	27952.9
535.251	27698.95
535.451	26951.44
535.652	26703.64
535.853	26603.28
536.054	26302.23
536.255	25919.26
536.456	25421.61
536.657	25507.62
536.857	24868.66
537.058	24469.3
537.259	24190.78
537.46	24057.66
537.66	23476.04
537.861	23217.99
538.062	22607.7
538.263	22701.9
538.463	22400.85
538.664	21901.15
538.865	21800.8
539.065	21813.09
539.266	21426.02
539.466	21333.86
539.667	20479.86
539.868	20875.12
540.068	20350.84
540.269	20004.73
540.469	20076.41
540.67	19617.66
540.87	19537.79
541.071	19259.27
541.271	18968.46
541.472	18874.25
541.672	18513.81
541.873	18104.21
542.073	17956.76
542.274	17880.99
542.474	17403.81
542.675	17596.32
542.875	17342.37
543.075	17086.37
543.276	16660.4
543.476	16654.25
543.676	16744.36
543.877	16396.21
544.077	16246.71
544.277	16017.33
544.478	15857.59
544.678	15894.46
544.878	15445.95
545.078	15501.25
545.279	15009.73
545.479	14921.67
545.679	15081.41
545.879	14794.7
546.079	14510.03
546.28	14315.47
546.48	14120.92
546.68	14043.09
546.88	13903.83
547.08	14016.47
547.28	13713.37
547.48	13172.71
547.68	13326.3
547.88	12947.43
548.081	12904.42
548.281	12644.33
548.481	12613.61
548.681	12386.29
548.881	12380.14
549.081	12046.32
549.28	11929.59
549.48	11972.6
549.68	11630.59
549.88	11421.69
550.08	11157.5
550.28	11108.35
550.48	11075.59
550.68	11053.06
550.88	10508.3
551.08	10426.38
551.279	10534.92
551.479	10174.48
551.679	10205.2
551.879	9885.72
552.079	9936.92
552.278	9717.78
552.478	9701.4
552.678	9412.64
552.878	9594.9
553.077	9136.16
553.277	8847.4
553.477	8937.51
553.676	8759.33
553.876	8648.74
554.076	8400.94
554.275	8306.73
554.475	8118.32
554.674	8101.94
554.874	8183.85
555.074	7669.81
555.273	7858.23
555.473	7678.01
555.672	7405.63
555.872	7305.28
556.071	7014.46
556.271	7188.54
556.47	6912.07
556.67	6821.95
556.869	6813.76
557.068	6733.89
557.268	6660.17
557.467	6586.44
557.667	6447.18
557.866	6283.34
558.065	5978.19
558.265	6160.46
558.464	5918.8
558.663	5947.47
558.863	5748.82
559.062	5658.71
559.261	5439.58
559.461	5736.53
559.66	5281.88
559.859	5220.44
560.058	5218.4
560.258	5232.73
560.457	5171.29
560.656	5003.36
560.855	4903.01
561.054	4882.53
561.253	4784.23
561.453	4749.41
561.652	4679.78
561.851	4563.05
562.05	4503.65
562.249	4290.67
562.448	4323.43
562.647	4114.54
562.846	4327.53
563.045	4292.71
563.244	4261.99
563.443	4087.92
563.642	3885.17
563.841	4001.9
564.04	3772.53
564.239	3887.22
564.438	3725.43
564.637	3559.54
564.836	3582.07
565.035	3684.47
565.234	3547.25
565.432	3491.96
565.631	3534.96
565.83	3381.37
566.029	3377.27
566.228	3278.97
566.427	3264.63
566.625	3121.28
566.824	3170.43
567.023	3254.39
567.222	3041.4
567.42	2992.25
567.619	3082.36
567.818	2988.16
568.016	3012.73
568.215	2812.03
568.414	2922.62
568.612	2904.19
568.811	2869.37
569.01	2828.42
569.208	2570.37
569.407	2576.52
569.605	2570.37
569.804	2551.94
570.002	2556.04
570.201	2451.59
570.4	2533.51
570.598	2406.53
570.797	2429.06
570.995	2357.38
571.193	2345.09
571.392	2220.17
571.59	2234.5
571.789	2427.01
571.987	2281.61
572.186	2242.7
572.384	2109.58
572.582	2228.36
572.781	2144.39
572.979	1921.17
573.177	1915.02
573.376	1816.72
573.574	2013.32
573.772	1898.64
573.971	1833.1
574.169	1929.36
574.367	1894.54
574.565	1767.57
574.763	1880.21
574.962	1745.04
575.16	1679.51
575.358	1710.22
575.556	1683.6
575.754	1575.06
575.952	1640.59
576.151	1722.51
576.349	1671.31
576.547	1478.8
576.745	1538.2
576.943	1478.8
577.141	1562.77
577.339	1405.08
577.537	1333.4
577.735	1562.77
577.933	1431.7
578.131	1378.45
578.329	1423.51
578.527	1243.29
578.725	1403.03
578.923	1126.55
579.121	1274.01
579.319	1130.65
579.516	1185.94
579.714	1388.69
579.912	1253.53
580.11	1087.64
580.308	1079.45
580.506	1044.63
580.704	946.33
580.901	1122.46
581.099	1206.42
581.297	1171.61
581.495	1042.59
581.692	899.23
581.89	1038.49
582.088	997.53
582.285	1013.92
582.483	968.86
582.681	950.43
582.878	940.19
583.076	989.34
583.274	952.48
583.471	1061.02
583.669	921.76
583.866	807.07
584.064	721.06
584.262	798.88
584.459	807.07
584.657	862.37
584.854	886.94
585.052	878.75
585.249	932
585.447	823.45
585.644	686.24
585.841	841.89
586.039	880.8
586.236	882.85
586.434	762.02
586.631	669.86
586.828	755.87
587.026	710.82
587.223	657.57
587.42	737.44
587.618	719.01
587.815	823.45
588.012	682.14
588.21	659.62
588.407	655.52
588.604	696.48
588.801	587.94
588.999	620.71
589.196	776.35
589.393	608.42
589.59	602.27
589.787	602.27
589.984	649.38
590.182	676
590.379	663.71
590.576	637.09
590.773	618.66
590.97	559.27
591.167	602.27
591.364	647.33
591.561	528.55
591.758	645.28
591.955	610.47
592.152	501.92
592.349	536.74
592.546	555.17
592.743	549.03
592.94	585.89
593.137	606.37
593.334	600.23
593.531	540.83
593.727	569.51
593.924	544.93
594.121	526.5
594.318	481.44
594.515	606.37
594.712	723.1
594.908	716.96
595.105	555.17
595.302	618.66
595.499	729.25
595.696	698.53
595.892	563.36
596.089	809.12
596.286	698.53
596.482	835.74
596.679	692.38
596.876	694.43
597.072	800.93
597.269	729.25
597.466	778.4
597.662	747.68
597.859	735.39
598.055	856.22
598.252	882.85
598.448	903.32
598.645	1009.82
598.841	1030.3
599.038	1085.59
599.234	1126.55
599.431	1136.79
599.627	1147.03
599.824	1208.47
600.02	1233.05
600.217	1206.42
600.413	1251.48
600.609	1302.68
600.806	1591.44
601.002	1341.59
601.198	1366.17
601.395	1550.48
601.591	1722.51
601.787	1640.59
601.984	1742.99
602.18	1755.28
602.376	1884.3
602.572	1855.63
602.769	1872.01
602.965	2027.66
603.161	2232.46
603.357	2295.94
603.553	2334.86
603.75	2279.56
603.946	2414.73
604.142	2459.78
604.338	2642.05
604.534	2674.82
604.73	2812.03
604.926	2801.79
605.122	3051.64
605.318	3033.21
605.514	3119.23
605.71	3168.38
605.906	3582.07
606.102	3477.62
606.298	3582.07
606.494	3709.04
606.69	3936.37
606.886	3887.22
607.082	3995.76
607.278	3985.52
607.474	4288.62
607.67	4270.19
607.866	4364.39
608.062	4558.95
608.257	4720.74
608.453	4700.26
608.649	5040.22
608.845	4890.72
609.041	5290.07
609.236	5527.64
609.432	5433.43
609.628	5767.25
609.824	5863.51
610.019	5943.38
610.215	6047.82
610.411	6432.84
610.606	6432.84
610.802	6592.58
610.998	6727.75
611.193	7067.71
611.389	6922.31
611.584	7444.54
611.78	7505.98
611.976	7710.77
612.171	7999.54
612.367	8273.96
612.562	8337.45
612.758	8515.62
612.953	8718.37
613.149	9179.17
613.344	9107.49
613.539	9250.85
613.735	9758.74
613.93	10012.69
614.126	10205.2
614.321	10565.64
614.517	10835.97
614.712	11016.19
614.907	11192.32
615.103	11718.65
615.298	11788.28
615.493	12034.04
615.688	12525.55
615.884	13000.68
616.079	13223.9
616.274	13572.06
616.47	14008.28
616.665	14446.54
616.86	14462.93
617.055	14811.08
617.25	15331.26
617.445	15767.48
617.641	15988.66
617.836	16453.55
618.031	16783.27
618.226	17225.64
618.421	17416.1
618.616	18026.39
618.811	18235.28
619.006	19126.15
619.201	19296.13
619.396	19636.1
619.591	19885.95
619.786	20715.37
619.981	20615.02
620.176	21808.99
620.371	21897.05
620.566	22435.67
620.761	22962
620.956	23256.9
621.151	23750.46
621.346	24528.69
621.541	24565.56
621.735	25466.66
621.93	25093.93
622.125	26134.3
622.32	26093.34
622.515	27236.11
622.709	27303.69
622.904	27948.8
623.099	28176.12
623.294	29392.62
623.488	29357.8
623.683	30230.24
623.878	30359.26
624.072	31190.73
624.267	31579.85
624.462	31735.49
624.656	32140.99
624.851	32718.52
625.046	33386.16
625.24	33691.3
625.435	33857.19
625.629	34422.43
625.824	35450.51
626.018	35698.31
626.213	35444.37
626.407	36331.14
626.602	36798.07
626.796	37731.95
626.991	37795.43
627.185	37693.04
627.38	37516.91
627.574	38295.14
627.768	38250.08
627.963	38403.68
628.157	38698.59
628.352	39147.09
628.546	38647.39
628.74	39597.65
628.935	38831.71
629.129	39255.64
629.323	38514.27
629.517	38520.41
629.712	38549.09
629.906	38592.09
630.1	37619.31
630.294	37863.02
630.489	37117.56
630.683	36974.2
630.877	36271.75
631.071	35671.69
631.265	35298.96
631.459	34594.46
631.653	33857.19
631.848	32966.32
632.042	32181.95
632.236	32034.5
632.43	30856.92
632.624	30146.27
632.818	29378.28
633.012	28188.41
633.206	27555.59
633.4	27180.81
633.594	25863.97
633.788	25005.87
633.982	24778.54
634.176	23629.63
634.369	22521.68
634.563	21833.57
634.757	20778.86
634.951	20424.56
635.145	19558.27
635.339	18855.82
635.533	18104.21
635.726	17495.97
635.92	16361.39
636.114	15972.28
636.308	15409.09
636.501	14790.6
636.695	14178.26
636.889	13549.53
637.083	12857.32
637.276	12437.48
637.47	12036.08
637.664	11489.28
637.857	11067.39
638.051	10555.4
638.244	10170.38
638.438	9723.93
638.632	9435.16
638.825	8984.61
639.019	8708.13
639.212	8106.03
639.406	7868.47
639.599	7512.12
639.793	7456.82
639.986	7135.29
640.18	6930.5
640.373	6608.97
640.567	6320.2
640.76	6080.59
640.954	5873.75
641.147	5576.79
641.34	5378.14
641.534	5204.06
641.727	4976.73
641.92	4819.04
642.114	4638.82
642.307	4415.59
642.5	4319.34
642.694	4124.78
642.887	3868.78
643.08	3915.89
643.273	3795.06
643.467	3577.97
643.66	3285.11
643.853	3242.11
644.046	3176.57
644.239	3055.74
644.432	2904.19
644.626	2691.2
644.819	2701.44
645.012	2586.76
645.205	2578.56
645.398	2496.64
645.591	2365.57
645.784	2308.23
645.977	2123.91
646.17	2009.23
646.363	1980.56
646.556	1835.15
646.749	1773.71
646.942	1732.75
647.135	1710.22
647.328	1581.2
647.521	1683.6
647.714	1556.63
647.907	1468.56
648.099	1398.93
648.292	1374.36
648.485	1329.3
648.678	1284.25
648.871	1226.9
649.064	1282.2
649.256	1022.11
649.449	1136.79
649.642	1071.26
649.835	944.28
650.027	960.67
650.22	1048.73
650.413	925.85
650.605	874.65
650.798	866.46
650.991	841.89
651.183	790.69
651.376	768.16
651.568	800.93
651.761	776.35
651.954	805.02
652.146	702.62
652.339	747.68
652.531	784.54
652.724	645.28
652.916	608.42
653.109	467.11
653.301	655.52
653.494	684.19
653.686	495.78
653.879	594.08
654.071	551.07
654.263	442.53
654.456	473.25
654.648	489.64
654.84	526.5
655.033	417.96
655.225	528.55
655.417	448.68
655.61	530.59
655.802	411.81
655.994	440.48
656.186	299.17
656.379	452.77
656.571	354.47
656.763	301.22
656.955	358.57
657.148	327.85
657.34	481.44
657.532	321.7
657.724	184.49
657.916	299.17
658.108	399.52
658.3	297.13
658.492	340.13
658.684	313.51
658.876	342.18
659.068	98.47
659.26	225.45
659.452	227.5
659.644	266.41
659.836	407.72
660.028	227.5
660.22	239.78
660.412	266.41
660.604	250.02
660.796	184.49
660.988	297.13
661.18	215.21
661.372	233.64
661.563	219.3
661.755	209.06
661.947	127.14
662.139	221.35
662.331	266.41
662.522	182.44
662.714	94.38
662.906	135.34
663.097	182.44
663.289	151.72
663.481	92.33
663.673	268.45
663.864	149.67
664.056	217.26
664.247	53.42
664.439	268.45
664.631	104.62
664.822	207.02
665.014	153.77
665.205	121
665.397	125.1
665.588	192.68
665.78	26.79
665.971	211.11
666.163	143.53
666.354	219.3
666.546	108.71
666.737	94.38
666.929	186.54
667.12	92.33
667.311	151.72
667.503	159.91
667.694	153.77
667.885	94.38
668.077	180.39
668.268	45.23
668.459	209.06
668.651	166.06
668.842	211.11
669.033	98.47
669.224	135.34
669.416	293.03
669.607	102.57
669.798	67.75
669.989	200.87
670.18	184.49
670.371	284.84
670.563	86.19
670.754	182.44
670.945	139.43
671.136	178.34
671.327	14.51
671.518	155.82
671.709	278.69
671.9	139.43
672.091	262.31
672.282	192.68
672.473	110.76
672.664	61.61
672.855	61.61
673.046	192.68
673.237	176.3
673.428	96.43
673.619	135.34
673.809	63.66
674	207.02
674.191	141.48
674.382	149.67
674.573	178.34
674.764	194.73
674.954	276.65
675.145	39.08
675.336	143.53
675.527	155.82
675.717	96.43
675.908	139.43
676.099	121
676.289	182.44
676.48	94.38
676.671	94.38
676.861	137.38
677.052	161.96
677.243	194.73
677.433	164.01
677.624	153.77
677.814	186.54
678.005	61.61
678.195	307.37
678.386	55.47
678.576	157.86
678.767	28.84
678.957	209.06
679.148	223.4
679.338	247.97
679.529	200.87
679.719	184.49
679.909	235.69
680.1	215.21
680.29	209.06
680.481	55.47
680.671	217.26
680.861	170.15
681.052	202.92
681.242	147.62
681.432	180.39
681.622	129.19
681.813	147.62
682.003	102.57
682.193	114.86
682.383	174.25
682.573	149.67
682.764	157.86
682.954	184.49
683.144	200.87
683.334	225.45
683.524	153.77
683.714	254.12
683.904	258.21
684.094	137.38
684.284	219.3
684.474	282.79
684.664	207.02
684.854	207.02
685.044	237.74
685.234	225.45
685.424	243.88
685.614	190.63
685.804	352.42
685.994	202.92
686.184	200.87
686.374	241.83
686.564	227.5
686.753	235.69
686.943	194.73
687.133	188.58
687.323	194.73
687.513	204.97
687.702	207.02
687.892	186.54
688.082	260.26
688.272	159.91
688.461	333.99
688.651	360.61
688.841	319.65
689.03	176.3
689.22	196.78
689.41	254.12
689.599	260.26
689.789	174.25
689.979	301.22
690.168	168.1
690.358	186.54
690.547	172.2
690.737	256.17
690.926	176.3
691.116	264.36
691.305	239.78
691.495	213.16
691.684	227.5
691.874	129.19
692.063	164.01
692.252	243.88
692.442	190.63
692.631	161.96
692.82	159.91
693.01	266.41
693.199	202.92
693.388	235.69
693.578	247.97
693.767	227.5
693.956	196.78
694.146	207.02
694.335	241.83
694.524	157.86
694.713	317.61
694.902	229.54
695.092	137.38
695.281	198.82
695.47	170.15
695.659	153.77
695.848	198.82
696.037	153.77
696.226	178.34
696.415	137.38
696.604	194.73
696.793	284.84
696.982	108.71
697.171	340.13
697.36	143.53
697.549	207.02
697.738	80.04
697.927	243.88
698.116	96.43
698.305	272.55
698.494	166.06
698.683	178.34
698.872	317.61
699.061	143.53
699.25	159.91
699.438	198.82
699.627	131.24
699.816	280.74
700.005	84.14
700.193	176.3
700.382	272.55
700.571	159.91
700.76	202.92
700.948	290.98
701.137	172.2
701.326	202.92
701.514	75.95
701.703	241.83
701.892	145.58
702.08	280.74
702.269	196.78
702.457	194.73
702.646	241.83
702.834	186.54
703.023	247.97
703.212	166.06
703.4	159.91
703.589	133.29
703.777	153.77
703.965	135.34
704.154	116.9
704.342	59.56
704.531	245.93
704.719	252.07
704.907	235.69
705.096	86.19
705.284	73.9
705.472	178.34
705.661	194.73
705.849	194.73
706.037	184.49
706.226	153.77
706.414	260.26
706.602	143.53
706.79	200.87
706.979	90.28
707.167	194.73
707.355	24.75
707.543	155.82
707.731	211.11
707.919	180.39
708.107	145.58
708.296	157.86
708.484	178.34
708.672	229.54
708.86	196.78
709.048	186.54
709.236	84.14
709.424	198.82
709.612	276.65
709.8	65.71
709.988	223.4
710.176	159.91
710.364	243.88
710.551	92.33
710.739	118.95
710.927	168.1
711.115	219.3
711.303	245.93
711.491	192.68
711.679	139.43
711.866	264.36
712.054	168.1
712.242	247.97
712.43	309.41
712.617	231.59
712.805	227.5
712.993	198.82
713.181	69.8
713.368	223.4
713.556	137.38
713.744	188.58
713.931	338.09
714.119	276.65
714.306	202.92
714.494	137.38
714.682	219.3
714.869	69.8
715.057	178.34
715.244	190.63
715.432	227.5
715.619	145.58
715.807	176.3
715.994	170.15
716.182	192.68
716.369	219.3
716.556	301.22
716.744	151.72
716.931	192.68
717.119	131.24
717.306	174.25
717.493	231.59
717.681	159.91
717.868	182.44
718.055	211.11
718.242	188.58
718.43	194.73
718.617	264.36
718.804	211.11
718.991	290.98
719.179	284.84
719.366	198.82
719.553	215.21
719.74	204.97
719.927	268.45
720.114	256.17
720.301	182.44
720.488	129.19
720.676	211.11
720.863	301.22
721.05	356.52
721.237	303.27
721.424	241.83
721.611	219.3
721.798	145.58
721.985	202.92
722.172	217.26
722.358	252.07
722.545	207.02
722.732	333.99
722.919	325.8
723.106	266.41
723.293	241.83
723.48	235.69
723.667	194.73
723.853	321.7
724.04	268.45
724.227	276.65
724.414	209.06
724.6	305.32
724.787	432.29
724.974	354.47
725.161	297.13
725.347	190.63
725.534	211.11
725.72	225.45
725.907	321.7
726.094	313.51
726.28	194.73
726.467	219.3
726.653	170.15
726.84	377
727.027	352.42
727.213	270.5
727.4	213.16
727.586	313.51
727.773	276.65
727.959	309.41
728.145	223.4
728.332	256.17
728.518	264.36
728.705	366.76
728.891	305.32
729.077	329.89
729.264	301.22
729.45	225.45
729.636	276.65
729.823	288.93
730.009	387.24
730.195	342.18
730.382	344.23
730.568	176.3
730.754	377
730.94	288.93
731.126	293.03
731.313	348.33
731.499	348.33
731.685	352.42
731.871	379.04
732.057	372.9
732.243	325.8
732.429	329.89
732.615	467.11
732.801	317.61
732.987	374.95
733.173	258.21
733.359	295.08
733.545	319.65
733.731	252.07
733.917	395.43
734.103	374.95
734.289	317.61
734.475	194.73
734.661	383.14
734.847	448.68
735.033	268.45
735.219	405.67
735.404	323.75
735.59	276.65
735.776	348.33
735.962	352.42
736.148	413.86
736.333	440.48
736.519	270.5
736.705	217.26
736.89	348.33
737.076	268.45
737.262	247.97
737.447	254.12
737.633	366.76
737.819	385.19
738.004	309.41
738.19	342.18
738.375	319.65
738.561	350.37
738.747	391.33
738.932	247.97
739.118	463.01
739.303	424.1
739.489	317.61
739.674	293.03
739.859	260.26
740.045	393.38
740.23	317.61
740.416	219.3
740.601	329.89
740.786	323.75
740.972	331.94
741.157	313.51
741.342	239.78
741.528	280.74
741.713	413.86
741.898	233.64
742.084	331.94
742.269	383.14
742.454	370.85
742.639	413.86
742.824	309.41
743.01	497.83
743.195	506.02
743.38	282.79
743.565	258.21
743.75	383.14
743.935	346.28
744.12	397.48
744.305	338.09
744.49	286.89
744.675	319.65
744.86	350.37
745.045	411.81
745.23	364.71
745.415	305.32
745.6	485.54
745.785	372.9
745.97	460.96
746.155	348.33
746.34	413.86
746.525	350.37
746.71	432.29
746.895	288.93
747.079	282.79
747.264	344.23
747.449	317.61
747.634	446.63
747.819	278.69
748.003	295.08
748.188	235.69
748.373	297.13
748.557	307.37
748.742	290.98
748.927	278.69
749.111	342.18
749.296	260.26
749.481	333.99
749.665	299.17
749.85	211.11
750.034	327.85
750.219	411.81
750.404	333.99
750.588	295.08
750.773	266.41
750.957	307.37
751.141	274.6
751.326	364.71
751.51	241.83
751.695	258.21
751.879	231.59
752.064	313.51
752.248	284.84
752.432	323.75
752.617	323.75
752.801	340.13
752.985	305.32
753.17	381.09
753.354	262.31
753.538	309.41
753.722	227.5
753.907	207.02
754.091	235.69
754.275	336.04
754.459	104.62
754.643	209.06
754.828	227.5
755.012	247.97
755.196	221.35
755.38	280.74
755.564	215.21
755.748	288.93
755.932	329.89
756.116	223.4
756.3	233.64
756.484	213.16
756.668	274.6
756.852	178.34
757.036	192.68
757.22	233.64
757.404	131.24
757.588	116.9
757.772	282.79
757.956	256.17
758.14	413.86
758.323	202.92
758.507	215.21
758.691	252.07
758.875	235.69
759.059	243.88
759.242	178.34
759.426	209.06
759.61	202.92
759.794	157.86
759.977	194.73
760.161	381.09
760.345	342.18
760.528	260.26
760.712	284.84
760.895	168.1
761.079	176.3
761.263	53.42
761.446	194.73
761.63	217.26
761.813	209.06
761.997	172.2
762.18	155.82
762.364	258.21
762.547	47.27
762.731	153.77
762.914	217.26
763.098	129.19
763.281	217.26
763.464	202.92
763.648	170.15
763.831	192.68
764.015	139.43
764.198	268.45
764.381	116.9
764.564	186.54
764.748	186.54
764.931	227.5
765.114	110.76
765.297	182.44
765.481	147.62
765.664	133.29
765.847	75.95
766.03	219.3
766.213	104.62
766.397	106.67
766.58	112.81
766.763	227.5
766.946	129.19
767.129	137.38
767.312	75.95
767.495	108.71
767.678	90.28
767.861	141.48
768.044	192.68
768.227	96.43
768.41	141.48
768.593	184.49
768.776	172.2
768.959	170.15
769.142	178.34
769.324	86.19
769.507	145.58
769.69	100.52
769.873	106.67
770.056	374.95
770.239	108.71
770.421	233.64
770.604	168.1
770.787	65.71
770.97	161.96
771.152	53.42
771.335	180.39
771.518	164.01
771.7	143.53
771.883	245.93
772.066	77.99
772.248	147.62
772.431	243.88
772.613	123.05
772.796	127.14
772.978	170.15
773.161	254.12
773.343	30.89
773.526	108.71
773.708	53.42
773.891	84.14
774.073	104.62
774.256	10.41
774.438	129.19
774.621	88.23
774.803	73.9
774.985	112.81
775.168	143.53
775.35	106.67
775.532	112.81
775.715	65.71
775.897	41.13
776.079	100.52
776.261	71.85
776.444	84.14
776.626	88.23
776.808	49.32
776.99	12.46
777.173	82.09
777.355	71.85
777.537	69.8
777.719	149.67
777.901	6.31
778.083	24.75
778.265	-16.21
778.447	84.14
778.629	61.61
778.811	82.09
778.993	192.68
779.175	147.62
779.357	137.38
779.539	2.22
779.721	57.51
779.903	84.14
780.085	37.03
780.267	18.6
780.449	110.76
780.631	84.14
780.812	84.14
780.994	34.99
781.176	-10.07
781.358	84.14
781.54	63.66
781.721	178.34
781.903	153.77
782.085	16.55
782.267	94.38
782.448	-42.84
782.63	-1.88
782.812	104.62
782.993	88.23
783.175	108.71
783.357	39.08
783.538	28.84
783.72	32.94
783.901	112.81
784.083	145.58
784.264	131.24
784.446	49.32
784.627	30.89
784.809	88.23
784.99	16.55
785.172	14.51
785.353	133.29
785.535	71.85
785.716	-18.26
785.897	47.27
786.079	34.99
786.26	63.66
786.441	118.95
786.623	-12.12
786.804	47.27
786.985	16.55
787.167	71.85
787.348	6.31
787.529	-26.45
787.71	174.25
787.891	49.32
788.073	22.7
788.254	-59.22
788.435	207.02
788.616	28.84
788.797	-1.88
788.978	-48.98
789.159	-5.97
789.34	61.61
789.522	14.51
789.703	-32.6
789.884	30.89
790.065	116.9
790.246	104.62
790.427	24.75
790.607	104.62
790.788	121
790.969	-34.64
791.15	63.66
791.331	28.84
791.512	-32.6
791.693	14.51
791.874	8.36
792.054	178.34
792.235	143.53
792.416	-10.07
792.597	75.95
792.778	86.19
792.958	32.94
793.139	57.51
793.32	61.61
793.5	-34.64
793.681	129.19
793.862	112.81
794.042	-1.88
794.223	-42.84
794.404	110.76
794.584	-83.8
794.765	84.14
794.945	-10.07
795.126	135.34
795.306	51.37
795.487	24.75
795.667	-53.08
795.848	45.23
796.028	-34.64
796.209	-28.5
796.389	77.99
796.57	37.03
796.75	-46.93
796.93	65.71
797.111	-55.12
797.291	2.22
797.471	53.42
797.652	-55.12
797.832	47.27
798.012	2.22
798.192	-28.5
798.373	-100.18
798.553	45.23
798.733	110.76
798.913	-63.32
799.093	96.43
799.274	6.31
799.454	147.62
799.634	129.19
799.814	57.51
799.994	41.13
800.174	32.94
800.354	32.94
800.534	-89.94
800.714	102.57
800.894	-73.56
801.074	-28.5
801.254	-1.88
801.434	75.95
801.614	-16.21
801.794	-42.84
801.974	1753.23
802.154	24.75
802.334	129.19
802.514	-83.8
802.693	-32.6
802.873	-71.51
803.053	86.19
803.233	20.65
803.413	30.89
803.592	28.84
803.772	-22.36
803.952	30.89
804.131	-38.74
804.311	77.99
804.491	127.14
804.67	-28.5
804.85	-57.17
805.03	73.9
805.209	102.57
805.389	12.46
805.568	-14.17
805.748	39.08
805.928	26.79
806.107	123.05
806.287	59.56
806.466	14.51
806.646	18.6
806.825	45.23
807.004	-1.88
807.184	14.51
807.363	86.19
807.543	12.46
807.722	-36.69
807.901	80.04
808.081	71.85
808.26	-87.89
808.439	-40.79
808.619	30.89
808.798	26.79
808.977	51.37
809.156	104.62
809.336	90.28
809.515	47.27
809.694	-59.22
809.873	-16.21
810.052	28.84
810.231	94.38
810.411	-30.55
810.59	90.28
810.769	69.8
810.948	53.42
811.127	-30.55
811.306	-30.55
811.485	39.08
811.664	37.03
811.843	32.94
812.022	34.99
812.201	18.6
812.38	0.17
812.559	-57.17
812.737	-22.36
812.916	-143.19
813.095	16.55
813.274	96.43
813.453	43.18
813.632	30.89
813.811	71.85
813.989	-32.6
814.168	-59.22
814.347	-26.45
814.526	39.08
814.704	71.85
814.883	118.95
815.062	-20.31
815.24	-22.36
815.419	-61.27
815.598	28.84
815.776	-65.36
815.955	-12.12
816.133	-79.7
816.312	22.7
816.49	-38.74
816.669	16.55
816.847	-24.4
817.026	6.31
817.204	88.23
817.383	20.65
817.561	-16.21
817.74	-26.45
817.918	92.33
818.097	-75.6
818.275	-18.26
818.453	16.55
818.632	65.71
818.81	-34.64
818.988	30.89
819.167	-1.88
819.345	-10.07
819.523	-10.07
819.701	-26.45
819.879	2.22
820.058	4.27
820.236	34.99
820.414	-26.45
820.592	2.22
820.77	-26.45
820.948	10.41
821.127	-42.84
821.305	34.99
821.483	12.46
821.661	65.71
821.839	63.66
822.017	-96.08
822.195	8.36
822.373	90.28
822.551	-10.07
822.729	43.18
822.907	-53.08
823.085	34.99
823.262	-10.07
823.44	-8.02
823.618	2.22
823.796	20.65
823.974	-42.84
824.152	-48.98
824.329	24.75
824.507	30.89
824.685	98.47
824.863	55.47
825.04	16.55
825.218	18.6
825.396	159.91
825.574	-16.21
825.751	-48.98
825.929	47.27
826.107	-14.17
826.284	4.27
826.462	37.03
826.639	-34.64
826.817	-87.89
826.994	-22.36
827.172	-61.27
827.349	4.27
827.527	12.46
827.704	-3.93
827.882	47.27
828.059	-51.03
828.237	22.7
828.414	39.08
828.591	-75.6
828.769	-34.64
828.946	-28.5
829.124	63.66
829.301	47.27
829.478	-51.03
829.655	-26.45
829.833	71.85
830.01	-65.36
830.187	71.85
830.364	-8.02
830.542	55.47
830.719	98.47
830.896	-18.26
831.073	-14.17
831.25	12.46
831.427	47.27
831.604	18.6
831.782	-75.6
831.959	53.42
832.136	26.79
832.313	47.27
832.49	22.7
832.667	6.31
832.844	-30.55
833.021	24.75
833.198	-10.07
833.374	28.84
833.551	-51.03
833.728	51.37
833.905	-14.17
834.082	-91.99
834.259	-10.07
834.436	125.1
834.612	-40.79
834.789	8.36
834.966	-18.26
835.143	18.6
835.319	-87.89
835.496	59.56
835.673	49.32
835.85	-10.07
836.026	-5.97
836.203	65.71
836.38	10.41
836.556	10.41
836.733	-26.45
836.909	86.19
837.086	-40.79
837.262	-40.79
837.439	22.7
837.616	-59.22
837.792	26.79
837.968	-42.84
838.145	-81.75
838.321	-51.03
838.498	-5.97
838.674	100.52
838.851	-34.64
839.027	-18.26
839.203	-1.88
839.38	57.51
839.556	-34.64
839.732	71.85
839.909	18.6
840.085	22.7
840.261	-38.74
840.437	-1.88
840.614	-22.36
840.79	92.33
840.966	18.6
841.142	-3.93
841.318	20.65
841.494	6.31
841.671	59.56
841.847	-34.64
842.023	-14.17
842.199	63.66
842.375	110.76
842.551	-128.85
842.727	-38.74
842.903	80.04
843.079	-26.45
843.255	77.99
843.431	67.75
843.607	-10.07
843.783	-126.8
843.959	-3.93
844.134	4.27
844.31	131.24
844.486	-1.88
844.662	-42.84
844.838	-34.64
845.013	71.85
845.189	159.91
845.365	28.84
845.541	39.08
845.716	-10.07
845.892	84.14
846.068	-10.07
846.244	-34.64
846.419	100.52
846.595	-22.36
846.77	-96.08
846.946	59.56
847.122	-91.99
847.297	-69.46
847.473	12.46
847.648	-67.41
847.824	106.67
847.999	-81.75
848.175	90.28
848.35	47.27
848.526	192.68
848.701	28.84
848.876	59.56
849.052	20.65
849.227	8.36
849.403	37.03
849.578	-22.36
849.753	63.66
849.929	43.18
850.104	-44.88
850.279	-42.84
850.454	6.31
850.63	41.13
850.805	41.13
850.98	-30.55
851.155	10.41
851.33	41.13
851.505	-67.41
851.681	4.27
851.856	-32.6
852.031	12.46
852.206	-30.55
852.381	-42.84
852.556	30.89
852.731	30.89
852.906	-8.02
853.081	2.22
853.256	55.47
853.431	-26.45
853.606	18.6
853.781	-18.26
853.956	-75.6
854.131	22.7
854.305	-38.74
854.48	-40.79
854.655	-79.7
854.83	-67.41
855.005	80.04
855.18	10.41
855.354	-36.69
855.529	-3.93
855.704	-83.8
855.879	51.37
856.053	-81.75
856.228	22.7
856.403	-5.97
856.577	-3.93
856.752	10.41
856.926	-26.45
857.101	-3.93
857.276	-94.04
857.45	-36.69
857.625	0.17
857.799	55.47
857.974	-24.4
858.148	-126.8
858.323	10.41
858.497	0.17
858.672	-12.12
858.846	-89.94
859.02	63.66
859.195	-63.32
859.369	-14.17
859.543	20.65
859.718	-38.74
859.892	14.51
860.066	16.55
860.241	-57.17
860.415	-69.46
860.589	-1.88
860.763	-53.08
860.938	55.47
861.112	-71.51
861.286	20.65
861.46	6.31
861.634	30.89
861.808	49.32
861.982	-40.79
862.157	-55.12
862.331	-14.17
862.505	-51.03
862.679	-51.03
862.853	18.6
863.027	-81.75
863.201	166.06
863.375	-59.22
863.549	53.42
863.722	22.7
863.896	43.18
864.07	-94.04
864.244	-51.03
864.418	39.08
864.592	-87.89
864.766	-44.88
864.939	51.37
865.113	-69.46
865.287	123.05
865.461	-85.84
865.634	-3.93
865.808	-79.7
865.982	-63.32
866.156	-57.17
866.329	-124.76
866.503	-14.17
866.676	71.85
866.85	57.51
867.024	-59.22
867.197	39.08
867.371	104.62
867.544	-1.88
867.718	2.22
867.891	63.66
868.065	-73.56
868.238	-5.97
868.412	77.99
868.585	45.23
868.759	-118.61
868.932	12.46
869.105	-61.27
869.279	-18.26
869.452	-30.55
869.625	30.89
869.799	-38.74
869.972	-63.32
870.145	26.79
870.319	77.99
870.492	-67.41
870.665	-71.51
870.838	-53.08
871.011	-132.95
871.185	-55.12
871.358	-83.8
871.531	26.79
871.704	-81.75
871.877	51.37
872.05	-67.41
872.223	-128.85
872.396	20.65
872.569	67.75
872.742	-81.75
872.915	57.51
873.088	-42.84
873.261	-40.79
873.434	51.37
873.607	-34.64
873.78	67.75
873.953	-65.36
874.126	-46.93
874.299	32.94
874.471	-63.32
874.644	-1.88
874.817	-38.74
874.99	149.67
875.163	-40.79
875.335	86.19
875.508	-40.79
875.681	131.24
875.853	-112.47
876.026	-36.69
876.199	92.33
876.371	-22.36
876.544	-14.17
876.717	-10.07
876.889	-10.07
877.062	-10.07
877.234	-8.02
877.407	6.31
877.579	14.51
877.752	69.8
877.924	41.13
878.097	18.6
878.269	41.13
878.442	45.23
878.614	-20.31
878.786	2.22
878.959	26.79
879.131	-53.08
879.303	-124.76
879.476	26.79
879.648	88.23
879.82	53.42
879.993	-81.75
880.165	-22.36
880.337	-67.41
880.509	37.03
880.681	-114.52
880.854	-57.17
881.026	59.56
881.198	133.29
881.37	-22.36
881.542	-53.08
881.714	39.08
881.886	0.17
882.058	-26.45
882.23	10.41
882.402	-26.45
882.574	10.41
882.746	75.95
882.918	106.67
883.09	4.27
883.262	-46.93
883.434	86.19
883.606	-128.85
883.778	-22.36
883.95	88.23
884.122	53.42
884.293	69.8
884.465	80.04
884.637	65.71
884.809	20.65
884.98	12.46
885.152	39.08
885.324	34.99
885.496	-79.7
885.667	18.6
885.839	-46.93
886.011	118.95
886.182	-34.64
886.354	8.36
886.525	0.17
886.697	-10.07
886.869	-51.03
887.04	-42.84
887.212	39.08
887.383	77.99
887.555	-1.88
887.726	-18.26
887.897	-40.79
888.069	6.31
888.24	28.84
888.412	-1.88
888.583	-20.31
888.754	20.65
888.926	-77.65
889.097	-30.55
889.268	-83.8
889.44	41.13
889.611	-42.84
889.782	-59.22
889.953	-10.07
890.125	176.3
890.296	-91.99
890.467	-12.12
890.638	-51.03
890.809	-10.07
890.98	-16.21
891.151	37.03
891.323	86.19
891.494	-12.12
891.665	-8.02
891.836	41.13
892.007	-36.69
892.178	26.79
892.349	32.94
892.52	47.27
892.691	28.84
892.862	10.41
893.032	-71.51
893.203	-10.07
893.374	-42.84
893.545	161.96
893.716	-5.97
893.887	41.13
894.057	-51.03
894.228	-22.36
894.399	-3.93
894.57	86.19
894.74	2.22
894.911	112.81
895.082	0.17
895.253	-18.26
895.423	-10.07
895.594	20.65
895.764	75.95
895.935	-55.12
896.106	55.47
896.276	-34.64
896.447	75.95
896.617	-75.6
896.788	-26.45
896.958	-5.97
897.129	-75.6
897.299	-14.17
897.47	80.04
897.64	80.04
897.81	-3.93
897.981	-12.12
898.151	-108.37
898.322	-44.88
898.492	-1.88
898.662	-108.37
898.832	-1.88
899.003	-48.98
899.173	32.94
899.343	-53.08
899.513	-116.56
