Data from USB4F104151__88__10-34-42-833.txt Node

Date: Wed Feb 26 10:34:42 EST 2025
User: louis
Spectrometer: USB4F10415
Trigger mode: 4
Integration Time (sec): 1.000000E-1
Scans to average: 1
Electric dark correction enabled: true
Nonlinearity correction enabled: false
Boxcar width: 0
XAxis mode: Wavelengths
Number of Pixels in Spectrum: 3648
>>>>>Begin Spectral Data<<<<<
178.204	-322.9
178.424	-322.9
178.644	-322.9
178.864	-441.68
179.084	-355.66
179.304	6.83
179.524	-30.04
179.744	35.5
179.964	19.11
180.184	62.12
180.404	21.16
180.624	-48.47
180.844	-9.56
181.064	-42.32
181.283	25.26
181.503	-42.32
181.723	2.73
181.943	-83.28
182.163	174.76
182.383	-30.04
182.602	12.97
182.822	129.7
183.042	115.37
183.262	-11.61
183.482	17.07
183.701	53.93
183.921	72.36
184.141	-62.8
184.361	66.22
184.58	121.51
184.8	109.22
185.02	33.45
185.239	88.75
185.459	101.03
185.679	150.18
185.898	-79.19
186.118	107.18
186.338	60.07
186.557	117.42
186.777	10.92
186.997	-50.52
187.216	68.27
187.436	182.95
187.655	43.69
187.875	68.27
188.095	10.92
188.314	119.46
188.534	96.94
188.753	58.03
188.973	80.55
189.192	205.48
189.412	4.78
189.631	109.22
189.851	94.89
190.07	150.18
190.29	4.78
190.509	-71
190.729	58.03
190.948	39.59
191.168	258.73
191.387	51.88
191.607	15.02
191.826	49.83
192.045	31.4
192.265	-25.94
192.484	10.92
192.704	117.42
192.923	-71
193.142	137.9
193.362	84.65
193.581	193.19
193.8	98.99
194.02	86.7
194.239	47.79
194.458	154.28
194.678	0.68
194.897	17.07
195.116	33.45
195.335	12.97
195.555	47.79
195.774	31.4
195.993	129.7
196.212	27.31
196.432	2.73
196.651	-48.47
196.87	-3.41
197.089	258.73
197.308	33.45
197.528	121.51
197.747	-56.66
197.966	60.07
198.185	125.61
198.404	6.83
198.623	8.87
198.842	121.51
199.062	70.31
199.281	135.85
199.5	33.45
199.719	78.51
199.938	25.26
200.157	39.59
200.376	-23.89
200.595	168.62
200.814	133.8
201.033	-30.04
201.252	209.58
201.471	47.79
201.69	123.56
201.909	41.64
202.128	98.99
202.347	107.18
202.566	33.45
202.785	-34.13
203.004	-73.04
203.223	242.34
203.442	84.65
203.661	-1.37
203.879	31.4
204.098	166.57
204.317	-62.8
204.536	70.31
204.755	78.51
204.974	164.52
205.193	-11.61
205.411	189.1
205.63	133.8
205.849	15.02
206.068	84.65
206.287	19.11
206.505	125.61
206.724	45.74
206.943	4.78
207.162	-23.89
207.381	80.55
207.599	2.73
207.818	12.97
208.037	-1.37
208.255	62.12
208.474	6.83
208.693	123.56
208.911	23.21
209.13	72.36
209.349	98.99
209.567	158.38
209.786	109.22
210.005	88.75
210.223	33.45
210.442	-75.09
210.661	-5.46
210.879	35.5
211.098	-7.51
211.316	92.84
211.535	98.99
211.753	25.26
211.972	-11.61
212.191	-3.41
212.409	17.07
212.628	98.99
212.846	29.35
213.065	-21.85
213.283	139.94
213.502	96.94
213.72	-48.47
213.938	88.75
214.157	8.87
214.375	154.28
214.594	58.03
214.812	55.98
215.031	76.46
215.249	70.31
215.467	76.46
215.686	10.92
215.904	47.79
216.122	88.75
216.341	86.7
216.559	35.5
216.778	103.08
216.996	178.86
217.214	41.64
217.432	21.16
217.651	-40.28
217.869	31.4
218.087	-25.94
218.306	12.97
218.524	12.97
218.742	55.98
218.96	109.22
219.179	-46.42
219.397	12.97
219.615	225.96
219.833	92.84
220.051	-60.76
220.27	35.5
220.488	182.95
220.706	111.27
220.924	37.55
221.142	12.97
221.36	94.89
221.578	78.51
221.796	17.07
222.015	117.42
222.233	8.87
222.451	193.19
222.669	-38.23
222.887	70.31
223.105	-52.56
223.323	4.78
223.541	0.68
223.759	31.4
223.977	68.27
224.195	164.52
224.413	74.41
224.631	105.13
224.849	109.22
225.067	205.48
225.285	-25.94
225.503	25.26
225.721	-46.42
225.939	17.07
226.157	21.16
226.375	205.48
226.592	62.12
226.81	62.12
227.028	121.51
227.246	150.18
227.464	35.5
227.682	96.94
227.9	101.03
228.117	94.89
228.335	74.41
228.553	62.12
228.771	31.4
228.989	66.22
229.206	64.17
229.424	27.31
229.642	10.92
229.86	-5.46
230.077	125.61
230.295	41.64
230.513	107.18
230.731	160.42
230.948	182.95
231.166	156.33
231.384	25.26
231.601	45.74
231.819	185
232.037	-21.85
232.254	-13.65
232.472	37.55
232.689	-36.18
232.907	205.48
233.125	-87.38
233.342	-27.99
233.56	31.4
233.777	23.21
233.995	33.45
234.213	141.99
234.43	92.84
234.648	51.88
234.865	60.07
235.083	98.99
235.3	72.36
235.518	88.75
235.735	105.13
235.953	43.69
236.17	10.92
236.388	23.21
236.605	78.51
236.822	129.7
237.04	127.66
237.257	60.07
237.475	-7.51
237.692	23.21
237.909	109.22
238.127	-13.65
238.344	72.36
238.562	25.26
238.779	-17.75
238.996	-32.08
239.214	-17.75
239.431	135.85
239.648	37.55
239.865	31.4
240.083	144.04
240.3	-89.43
240.517	37.55
240.735	19.11
240.952	154.28
241.169	146.09
241.386	127.66
241.603	39.59
241.821	-58.71
242.038	101.03
242.255	164.52
242.472	-23.89
242.689	39.59
242.907	72.36
243.124	58.03
243.341	64.17
243.558	98.99
243.775	21.16
243.992	-95.57
244.209	94.89
244.426	103.08
244.643	117.42
244.86	-25.94
245.078	41.64
245.295	92.84
245.512	39.59
245.729	41.64
245.946	113.32
246.163	-5.46
246.38	21.16
246.597	133.8
246.814	60.07
247.031	-9.56
247.248	23.21
247.464	74.41
247.681	43.69
247.898	74.41
248.115	-3.41
248.332	19.11
248.549	176.81
248.766	148.14
248.983	150.18
249.2	88.75
249.417	113.32
249.633	-3.41
249.85	74.41
250.067	70.31
250.284	41.64
250.501	94.89
250.717	137.9
250.934	-50.52
251.151	82.6
251.368	-21.85
251.585	92.84
251.801	62.12
252.018	-13.65
252.235	86.7
252.451	-91.48
252.668	101.03
252.885	150.18
253.102	43.69
253.318	-58.71
253.535	2.73
253.752	45.74
253.968	58.03
254.185	31.4
254.401	60.07
254.618	113.32
254.835	12.97
255.051	123.56
255.268	127.66
255.484	-1.37
255.701	10.92
255.917	158.38
256.134	-5.46
256.351	31.4
256.567	12.97
256.784	47.79
257	-11.61
257.217	88.75
257.433	80.55
257.65	6.83
257.866	86.7
258.082	-50.52
258.299	-44.37
258.515	107.18
258.732	-23.89
258.948	29.35
259.165	96.94
259.381	47.79
259.597	101.03
259.814	-3.41
260.03	23.21
260.246	25.26
260.463	113.32
260.679	125.61
260.895	158.38
261.112	17.07
261.328	-30.04
261.544	-1.37
261.761	217.77
261.977	-30.04
262.193	17.07
262.409	127.66
262.626	64.17
262.842	43.69
263.058	37.55
263.274	148.14
263.49	55.98
263.707	78.51
263.923	10.92
264.139	-15.7
264.355	86.7
264.571	125.61
264.787	80.55
265.004	135.85
265.22	125.61
265.436	-124.24
265.652	88.75
265.868	45.74
266.084	-5.46
266.3	39.59
266.516	12.97
266.732	17.07
266.948	86.7
267.164	90.79
267.38	139.94
267.596	74.41
267.812	96.94
268.028	92.84
268.244	19.11
268.46	43.69
268.676	0.68
268.892	21.16
269.108	47.79
269.324	23.21
269.54	47.79
269.756	119.46
269.972	-17.75
270.188	82.6
270.403	-23.89
270.619	53.93
270.835	111.27
271.051	101.03
271.267	-60.76
271.483	25.26
271.698	141.99
271.914	8.87
272.13	60.07
272.346	70.31
272.562	31.4
272.777	107.18
272.993	-9.56
273.209	-11.61
273.425	139.94
273.64	-30.04
273.856	111.27
274.072	19.11
274.287	-50.52
274.503	51.88
274.719	88.75
274.934	-32.08
275.15	31.4
275.366	60.07
275.581	19.11
275.797	74.41
276.012	62.12
276.228	47.79
276.444	60.07
276.659	141.99
276.875	-11.61
277.09	21.16
277.306	8.87
277.521	64.17
277.737	-9.56
277.952	70.31
278.168	31.4
278.383	58.03
278.599	47.79
278.814	76.46
279.03	53.93
279.245	264.87
279.461	90.79
279.676	70.31
279.892	12.97
280.107	-46.42
280.322	0.68
280.538	25.26
280.753	10.92
280.969	98.99
281.184	21.16
281.399	154.28
281.615	4.78
281.83	121.51
282.045	-32.08
282.26	-30.04
282.476	68.27
282.691	119.46
282.906	-23.89
283.122	74.41
283.337	27.31
283.552	33.45
283.767	-7.51
283.983	62.12
284.198	35.5
284.413	72.36
284.628	-64.85
284.843	49.83
285.058	62.12
285.274	49.83
285.489	35.5
285.704	125.61
285.919	-38.23
286.134	25.26
286.349	60.07
286.564	15.02
286.779	113.32
286.995	43.69
287.21	-56.66
287.425	92.84
287.64	96.94
287.855	105.13
288.07	-17.75
288.285	127.66
288.5	117.42
288.715	123.56
288.93	15.02
289.145	123.56
289.36	178.86
289.575	53.93
289.79	137.9
290.004	4.78
290.219	127.66
290.434	0.68
290.649	-7.51
290.864	0.68
291.079	-17.75
291.294	12.97
291.509	8.87
291.724	-44.37
291.938	80.55
292.153	170.66
292.368	66.22
292.583	23.21
292.798	6.83
293.012	51.88
293.227	90.79
293.442	6.83
293.657	98.99
293.871	103.08
294.086	27.31
294.301	123.56
294.516	72.36
294.73	37.55
294.945	-50.52
295.16	129.7
295.374	107.18
295.589	117.42
295.804	49.83
296.018	76.46
296.233	131.75
296.447	62.12
296.662	-7.51
296.877	86.7
297.091	55.98
297.306	39.59
297.52	10.92
297.735	127.66
297.949	96.94
298.164	125.61
298.378	47.79
298.593	-34.13
298.807	37.55
299.022	90.79
299.236	150.18
299.451	90.79
299.665	35.5
299.88	39.59
300.094	74.41
300.309	58.03
300.523	96.94
300.737	78.51
300.952	62.12
301.166	12.97
301.381	-62.8
301.595	49.83
301.809	53.93
302.024	37.55
302.238	-30.04
302.452	160.42
302.667	-21.85
302.881	232.1
303.095	111.27
303.309	68.27
303.524	-11.61
303.738	41.64
303.952	68.27
304.166	47.79
304.381	-83.28
304.595	207.53
304.809	47.79
305.023	31.4
305.237	-9.56
305.452	-34.13
305.666	84.65
305.88	80.55
306.094	115.37
306.308	111.27
306.522	76.46
306.736	135.85
306.95	88.75
307.164	19.11
307.379	92.84
307.593	60.07
307.807	148.14
308.021	111.27
308.235	105.13
308.449	-17.75
308.663	86.7
308.877	199.34
309.091	58.03
309.305	70.31
309.519	-34.13
309.733	72.36
309.947	-68.95
310.161	58.03
310.374	96.94
310.588	84.65
310.802	37.55
311.016	-30.04
311.23	101.03
311.444	-56.66
311.658	47.79
311.872	80.55
312.085	94.89
312.299	135.85
312.513	101.03
312.727	12.97
312.941	-11.61
313.154	43.69
313.368	23.21
313.582	17.07
313.796	33.45
314.009	84.65
314.223	228.01
314.437	-11.61
314.651	166.57
314.864	25.26
315.078	-7.51
315.292	-1.37
315.505	-15.7
315.719	51.88
315.933	94.89
316.146	31.4
316.36	78.51
316.573	107.18
316.787	86.7
317.001	107.18
317.214	6.83
317.428	62.12
317.641	-3.41
317.855	58.03
318.068	31.4
318.282	123.56
318.495	242.34
318.709	64.17
318.922	84.65
319.136	92.84
319.349	195.24
319.563	-9.56
319.776	96.94
319.99	-58.71
320.203	39.59
320.417	58.03
320.63	111.27
320.843	191.14
321.057	51.88
321.27	68.27
321.483	47.79
321.697	164.52
321.91	27.31
322.124	101.03
322.337	80.55
322.55	-50.52
322.763	135.85
322.977	-1.37
323.19	12.97
323.403	23.21
323.617	76.46
323.83	113.32
324.043	17.07
324.256	8.87
324.469	-54.61
324.683	70.31
324.896	15.02
325.109	64.17
325.322	-71
325.535	43.69
325.748	262.82
325.962	17.07
326.175	0.68
326.388	86.7
326.601	135.85
326.814	6.83
327.027	80.55
327.24	195.24
327.453	-107.86
327.666	45.74
327.879	27.31
328.092	60.07
328.305	64.17
328.518	51.88
328.731	27.31
328.944	47.79
329.157	51.88
329.37	10.92
329.583	197.29
329.796	211.62
330.009	-83.28
330.222	121.51
330.435	119.46
330.648	45.74
330.861	27.31
331.073	70.31
331.286	127.66
331.499	4.78
331.712	23.21
331.925	88.75
332.138	90.79
332.35	174.76
332.563	21.16
332.776	137.9
332.989	8.87
333.202	64.17
333.414	-13.65
333.627	-23.89
333.84	15.02
334.053	84.65
334.265	41.64
334.478	-15.7
334.691	-9.56
334.903	45.74
335.116	15.02
335.329	152.23
335.541	21.16
335.754	195.24
335.966	21.16
336.179	58.03
336.392	-30.04
336.604	47.79
336.817	178.86
337.029	70.31
337.242	-13.65
337.454	76.46
337.667	62.12
337.88	127.66
338.092	35.5
338.305	94.89
338.517	21.16
338.729	121.51
338.942	127.66
339.154	-1.37
339.367	-85.33
339.579	115.37
339.792	8.87
340.004	-5.46
340.217	53.93
340.429	119.46
340.641	-21.85
340.854	12.97
341.066	-7.51
341.278	88.75
341.491	164.52
341.703	4.78
341.915	-3.41
342.128	78.51
342.34	86.7
342.552	-13.65
342.764	47.79
342.977	68.27
343.189	152.23
343.401	45.74
343.613	-46.42
343.826	55.98
344.038	-66.9
344.25	21.16
344.462	-21.85
344.674	111.27
344.886	29.35
345.099	39.59
345.311	107.18
345.523	-11.61
345.735	-68.95
345.947	60.07
346.159	94.89
346.371	105.13
346.583	-38.23
346.795	123.56
347.007	2.73
347.219	64.17
347.431	4.78
347.643	164.52
347.855	-3.41
348.067	152.23
348.279	-73.04
348.491	105.13
348.703	43.69
348.915	66.22
349.127	-62.8
349.339	105.13
349.551	55.98
349.763	111.27
349.975	103.08
350.187	105.13
350.399	96.94
350.61	144.04
350.822	80.55
351.034	80.55
351.246	84.65
351.458	135.85
351.669	29.35
351.881	111.27
352.093	74.41
352.305	158.38
352.517	170.66
352.728	137.9
352.94	70.31
353.152	86.7
353.363	-95.57
353.575	119.46
353.787	129.7
353.999	39.59
354.21	217.77
354.422	47.79
354.633	23.21
354.845	53.93
355.057	90.79
355.268	115.37
355.48	117.42
355.692	-68.95
355.903	68.27
356.115	-34.13
356.326	-73.04
356.538	127.66
356.749	80.55
356.961	111.27
357.172	19.11
357.384	-13.65
357.595	221.86
357.807	43.69
358.018	58.03
358.23	29.35
358.441	103.08
358.653	72.36
358.864	-11.61
359.075	15.02
359.287	105.13
359.498	107.18
359.709	86.7
359.921	12.97
360.132	60.07
360.344	137.9
360.555	19.11
360.766	101.03
360.977	15.02
361.189	117.42
361.4	80.55
361.611	74.41
361.823	88.75
362.034	-50.52
362.245	-50.52
362.456	37.55
362.667	66.22
362.879	-32.08
363.09	-25.94
363.301	41.64
363.512	113.32
363.723	33.45
363.935	12.97
364.146	90.79
364.357	103.08
364.568	62.12
364.779	-23.89
364.99	156.33
365.201	-11.61
365.412	68.27
365.623	-11.61
365.834	68.27
366.045	76.46
366.256	135.85
366.467	84.65
366.678	74.41
366.889	12.97
367.1	-36.18
367.311	70.31
367.522	-3.41
367.733	68.27
367.944	-11.61
368.155	-25.94
368.366	148.14
368.577	68.27
368.788	117.42
368.999	-32.08
369.209	4.78
369.42	205.48
369.631	217.77
369.842	92.84
370.053	39.59
370.264	160.42
370.474	15.02
370.685	127.66
370.896	2.73
371.107	107.18
371.317	109.22
371.528	51.88
371.739	80.55
371.95	66.22
372.16	96.94
372.371	6.83
372.582	58.03
372.792	74.41
373.003	78.51
373.214	-44.37
373.424	74.41
373.635	19.11
373.846	141.99
374.056	0.68
374.267	55.98
374.477	15.02
374.688	2.73
374.898	148.14
375.109	125.61
375.319	64.17
375.53	98.99
375.74	121.51
375.951	-46.42
376.161	101.03
376.372	117.42
376.582	37.55
376.793	23.21
377.003	-114
377.214	33.45
377.424	49.83
377.635	88.75
377.845	-68.95
378.055	152.23
378.266	-81.24
378.476	66.22
378.686	47.79
378.897	47.79
379.107	27.31
379.317	70.31
379.528	19.11
379.738	41.64
379.948	45.74
380.158	66.22
380.369	10.92
380.579	84.65
380.789	88.75
380.999	127.66
381.21	131.75
381.42	193.19
381.63	35.5
381.84	84.65
382.05	53.93
382.261	144.04
382.471	70.31
382.681	-50.52
382.891	207.53
383.101	0.68
383.311	4.78
383.521	12.97
383.731	94.89
383.941	29.35
384.151	88.75
384.361	10.92
384.571	123.56
384.781	-1.37
384.991	223.91
385.201	115.37
385.411	92.84
385.621	76.46
385.831	98.99
386.041	68.27
386.251	29.35
386.461	123.56
386.671	17.07
386.881	0.68
387.091	39.59
387.301	115.37
387.511	66.22
387.72	58.03
387.93	113.32
388.14	49.83
388.35	115.37
388.56	193.19
388.769	84.65
388.979	12.97
389.189	-27.99
389.399	29.35
389.609	74.41
389.818	129.7
390.028	66.22
390.238	125.61
390.447	39.59
390.657	68.27
390.867	21.16
391.076	-58.71
391.286	51.88
391.496	-13.65
391.705	60.07
391.915	144.04
392.125	129.7
392.334	41.64
392.544	96.94
392.753	-11.61
392.963	-36.18
393.172	29.35
393.382	-81.24
393.591	96.94
393.801	41.64
394.01	211.62
394.22	139.94
394.429	0.68
394.639	80.55
394.848	88.75
395.058	76.46
395.267	15.02
395.477	66.22
395.686	78.51
395.895	228.01
396.105	197.29
396.314	109.22
396.524	25.26
396.733	60.07
396.942	103.08
397.152	105.13
397.361	101.03
397.57	115.37
397.78	74.41
397.989	84.65
398.198	199.34
398.407	35.5
398.617	21.16
398.826	35.5
399.035	53.93
399.244	76.46
399.453	-9.56
399.663	-64.85
399.872	58.03
400.081	-50.52
400.29	144.04
400.499	51.88
400.708	72.36
400.917	55.98
401.127	82.6
401.336	66.22
401.545	107.18
401.754	86.7
401.963	146.09
402.172	12.97
402.381	-13.65
402.59	10.92
402.799	47.79
403.008	107.18
403.217	80.55
403.426	76.46
403.635	-97.62
403.844	27.31
404.053	4.78
404.262	103.08
404.471	129.7
404.68	60.07
404.888	119.46
405.097	53.93
405.306	76.46
405.515	29.35
405.724	109.22
405.933	158.38
406.142	60.07
406.35	111.27
406.559	43.69
406.768	8.87
406.977	242.34
407.185	129.7
407.394	119.46
407.603	-48.47
407.812	41.64
408.02	139.94
408.229	53.93
408.438	78.51
408.646	-120.15
408.855	60.07
409.064	84.65
409.272	-23.89
409.481	72.36
409.69	-48.47
409.898	21.16
410.107	80.55
410.315	74.41
410.524	-32.08
410.733	2.73
410.941	51.88
411.15	107.18
411.358	66.22
411.567	154.28
411.775	37.55
411.984	-5.46
412.192	115.37
412.401	21.16
412.609	191.14
412.818	127.66
413.026	55.98
413.234	-25.94
413.443	119.46
413.651	31.4
413.86	27.31
414.068	131.75
414.276	205.48
414.485	8.87
414.693	191.14
414.901	211.62
415.11	127.66
415.318	70.31
415.526	19.11
415.734	105.13
415.943	23.21
416.151	144.04
416.359	-13.65
416.567	74.41
416.776	115.37
416.984	137.9
417.192	191.14
417.4	23.21
417.608	33.45
417.817	27.31
418.025	103.08
418.233	148.14
418.441	-46.42
418.649	-44.37
418.857	55.98
419.065	162.47
419.273	23.21
419.481	37.55
419.689	-27.99
419.897	-30.04
420.105	2.73
420.313	139.94
420.521	178.86
420.729	92.84
420.937	-7.51
421.145	-21.85
421.353	135.85
421.561	168.62
421.769	47.79
421.977	78.51
422.185	53.93
422.393	15.02
422.601	176.81
422.809	109.22
423.017	33.45
423.224	107.18
423.432	86.7
423.64	53.93
423.848	117.42
424.056	64.17
424.263	74.41
424.471	51.88
424.679	172.71
424.887	53.93
425.094	72.36
425.302	-11.61
425.51	-9.56
425.718	146.09
425.925	78.51
426.133	-13.65
426.341	182.95
426.548	101.03
426.756	15.02
426.964	197.29
427.171	17.07
427.379	62.12
427.586	53.93
427.794	107.18
428.001	144.04
428.209	64.17
428.417	123.56
428.624	88.75
428.832	168.62
429.039	53.93
429.247	43.69
429.454	137.9
429.662	195.24
429.869	146.09
430.076	90.79
430.284	39.59
430.491	219.82
430.699	160.42
430.906	199.34
431.114	185
431.321	90.79
431.528	160.42
431.736	82.6
431.943	180.9
432.15	109.22
432.358	185
432.565	232.1
432.772	-66.9
432.979	131.75
433.187	55.98
433.394	174.76
433.601	35.5
433.808	154.28
434.016	148.14
434.223	217.77
434.43	234.15
434.637	215.72
434.844	248.49
435.052	187.05
435.259	258.73
435.466	217.77
435.673	219.82
435.88	207.53
436.087	248.49
436.294	287.4
436.501	211.62
436.708	262.82
436.915	279.21
437.122	287.4
437.329	242.34
437.537	256.68
437.743	242.34
437.95	389.8
438.157	221.86
438.364	318.12
438.571	320.17
438.778	330.41
438.985	389.8
439.192	391.84
439.399	369.32
439.606	326.31
439.813	406.18
440.02	451.24
440.227	502.44
440.433	465.57
440.64	445.09
440.847	346.79
441.054	436.9
441.261	561.83
441.467	484
441.674	393.89
441.881	436.9
442.088	500.39
442.294	576.16
442.501	572.07
442.708	651.94
442.914	639.65
443.121	649.89
443.328	635.55
443.534	709.28
443.741	651.94
443.948	682.66
444.154	703.14
444.361	895.64
444.568	690.85
444.774	809.63
444.981	684.7
445.187	846.49
445.394	846.49
445.6	817.82
445.807	967.32
446.013	899.74
446.22	897.69
446.426	1043.1
446.633	1016.48
446.839	1239.7
447.046	1010.33
447.252	1129.11
447.459	1204.89
447.665	1206.94
447.871	1360.53
448.078	1430.16
448.284	1354.39
448.491	1555.09
448.697	1495.7
448.903	1649.3
449.11	1471.12
449.316	1510.04
449.522	1747.6
449.728	1749.65
449.935	1806.99
450.141	1899.15
450.347	1991.31
450.553	1952.4
450.76	2060.94
450.966	2099.85
451.172	2124.43
451.378	2306.7
451.584	2296.46
451.791	2591.36
451.997	2501.25
452.203	2579.08
452.409	2747.01
452.615	2785.92
452.821	2738.82
453.027	2794.11
453.233	3023.48
453.44	3068.54
453.646	3117.69
453.852	3402.36
454.058	3502.71
454.264	3613.3
454.47	3762.8
454.676	3873.39
454.882	4366.95
455.088	3973.74
455.294	4139.63
455.5	4401.77
455.705	4723.3
455.911	4549.22
456.117	4858.46
456.323	4989.53
456.529	5020.25
456.735	5479
456.941	5661.27
457.147	5890.64
457.352	5917.26
457.558	6132.3
457.764	6511.18
457.97	6842.95
458.176	7117.37
458.381	7430.71
458.587	7432.76
458.793	7840.31
458.999	7733.81
459.204	8903.2
459.41	9114.14
459.616	8931.87
459.821	9556.5
460.027	9998.87
460.233	10461.71
460.438	10576.39
460.644	11004.42
460.85	11110.91
461.055	11371.01
461.261	12093.94
461.466	11934.2
461.672	11887.09
461.878	13482.46
462.083	13509.08
462.289	13490.65
462.494	14209.49
462.7	14379.47
462.905	14420.43
463.111	15403.46
463.316	16480.69
463.522	16712.11
463.727	17170.85
463.932	18133.4
464.138	18313.62
464.343	19444.1
464.549	19362.18
464.754	20556.14
464.959	21084.52
465.165	21576.03
465.37	21340.52
465.575	21383.52
465.781	22767.95
465.986	23570.75
466.191	23376.2
466.397	23449.92
466.602	22729.04
466.807	23828.8
467.012	24762.67
467.218	24963.37
467.423	24887.6
467.628	25807.14
467.833	27091.21
468.038	26368.28
468.244	26091.8
468.449	27658.5
468.654	26812.69
468.859	26882.32
469.064	27103.5
469.269	26761.49
469.474	26652.95
469.679	27205.9
469.885	26525.97
470.09	26954
470.295	27074.83
470.5	26368.28
470.705	26446.1
470.91	25811.23
471.115	25356.58
471.32	25977.12
471.525	25987.36
471.73	25268.52
471.935	24760.62
472.139	24021.31
472.344	24203.58
472.549	23867.71
472.754	23632.19
472.959	23148.87
473.164	22212.95
473.369	21829.98
473.574	22835.53
473.778	21823.84
473.983	21479.78
474.188	21248.36
474.393	20265.33
474.598	20322.68
474.802	19839.36
475.007	19188.1
475.212	19468.67
475.417	18442.64
475.621	18534.8
475.826	18534.8
476.031	17998.23
476.235	17267.11
476.44	17236.39
476.645	16748.97
476.849	16583.09
477.054	16529.84
477.259	16265.65
477.463	16013.75
477.668	15606.2
477.872	15688.12
478.077	15454.65
478.282	14666.19
478.486	14827.98
478.691	14242.26
478.895	14189.01
479.1	14027.22
479.304	14199.25
479.509	13605.34
479.713	14098.9
479.918	13838.81
480.122	13228.51
480.326	13636.06
480.531	13482.46
480.735	13144.55
480.94	12814.82
481.144	13320.67
481.348	12603.88
481.553	12831.21
481.757	12100.08
481.961	12552.68
482.166	12458.48
482.37	12493.29
482.574	12116.47
482.778	12050.93
482.983	12323.31
483.187	11958.77
483.391	11936.24
483.595	11676.15
483.8	11506.17
484.004	11655.67
484.208	11788.79
484.412	11385.34
484.616	11524.6
484.821	11049.47
485.025	10985.99
485.229	11012.61
485.433	10768.9
485.637	10738.18
485.841	10416.65
486.045	10566.15
486.249	10283.53
486.453	10025.49
486.657	9861.65
486.861	9636.38
487.065	9566.74
487.269	9626.14
487.473	9349.66
487.677	9398.81
487.881	9282.08
488.085	8864.29
488.289	8858.15
488.493	8659.49
488.697	8690.21
488.901	8481.32
489.105	8090.16
489.309	8292.91
489.512	7948.85
489.716	7811.64
489.92	7649.85
490.124	7363.13
490.328	7397.95
490.531	7385.66
490.735	7412.28
490.939	7148.09
491.143	6914.63
491.346	6773.32
491.55	6703.68
491.754	6586.95
491.958	6611.53
492.161	6326.86
492.365	6277.71
492.569	6199.88
492.772	6062.67
492.976	6001.23
493.18	6095.44
493.383	5941.84
493.587	5900.88
493.79	5653.08
493.994	5640.79
494.197	5507.67
494.401	5562.97
494.605	5382.74
494.808	5534.29
495.012	5458.52
495.215	5499.48
495.419	5534.29
495.622	5323.35
495.825	5225.05
496.029	5225.05
496.232	5354.07
496.436	5253.72
496.639	5370.46
496.843	5165.66
497.046	5286.49
497.249	5253.72
497.453	5321.31
497.656	5128.8
497.859	5280.35
498.063	5200.48
498.266	5384.79
498.469	5046.88
498.673	5218.91
498.876	5290.59
499.079	5382.74
499.282	5376.6
499.485	5536.34
499.689	5390.94
499.892	5544.53
500.095	5392.98
500.298	5636.69
500.501	5392.98
500.705	5513.81
500.908	5513.81
501.111	5597.78
501.314	5759.57
501.517	5810.77
501.72	5739.09
501.923	5823.06
502.126	5859.92
502.329	6083.15
502.532	6093.39
502.735	6132.3
502.938	6111.82
503.141	6310.47
503.344	6249.04
503.547	6396.49
503.75	6412.87
503.953	6509.13
504.156	6652.49
504.359	6785.6
504.562	6801.99
504.765	6877.76
504.968	6961.73
505.17	7404.09
505.373	7322.17
505.576	7408.19
505.779	7574.07
505.982	7600.69
506.185	7987.76
506.387	7883.31
506.59	7877.17
506.793	8268.33
506.996	8376.87
507.198	8731.17
507.401	8608.3
507.604	8804.9
507.807	9054.75
508.009	9239.07
508.212	9386.52
508.415	9517.59
508.617	9638.42
508.82	9923.09
509.022	10054.16
509.225	10560.01
509.428	10689.03
509.63	10803.72
509.833	11008.51
510.035	11457.02
510.238	11457.02
510.44	11588.09
510.643	11987.44
510.845	12212.72
511.048	12474.86
511.25	12771.82
511.453	12868.07
511.655	13734.36
511.858	13650.39
512.06	13838.81
512.262	14219.73
512.465	14586.32
512.667	15169.99
512.87	15083.97
513.072	15651.26
513.274	16060.85
513.477	16228.79
513.679	16681.39
513.881	17054.12
514.084	17631.65
514.286	17713.56
514.488	18090.39
514.69	18794.89
514.893	18885
515.095	19366.28
515.297	19749.25
515.499	20167.03
515.701	20709.74
515.904	21141.86
516.106	21662.05
516.308	21897.56
516.51	22387.03
516.712	22780.24
516.914	23449.92
517.116	23824.7
517.318	24322.36
517.52	24596.79
517.722	24910.13
517.925	25495.85
518.127	25819.42
518.329	26927.38
518.531	26714.39
518.733	27416.84
518.935	27928.83
519.136	28444.92
519.338	29139.18
519.54	29538.54
519.742	29718.76
519.944	30458.07
520.146	30871.76
520.348	31148.24
520.55	31455.43
520.752	32037.06
520.954	32512.19
521.155	32477.37
521.357	33228.98
521.559	33679.53
521.761	34152.61
521.963	34166.95
522.164	34918.55
522.366	35023
522.568	35520.65
522.77	35549.32
522.971	36444.29
523.173	36094.08
523.375	36786.3
523.576	36386.94
523.778	36812.92
523.98	37365.87
524.181	37619.82
524.383	37120.12
524.584	37589.1
524.786	37498.99
524.988	37814.38
525.189	38164.58
525.391	38164.58
525.592	38275.17
525.794	38428.77
525.995	37980.26
526.197	37857.38
526.398	37617.77
526.6	38221.92
526.801	37898.34
527.003	37738.6
527.204	38002.79
527.406	38125.67
527.607	37494.89
527.808	37757.03
528.01	36937.85
528.211	37013.62
528.412	37273.71
528.614	37107.83
528.815	36755.58
529.016	36696.19
529.218	35897.48
529.419	35963.01
529.62	35326.1
529.822	35590.28
530.023	34994.32
530.224	34812.06
530.425	34365.6
530.626	34015.4
530.828	33521.84
531.029	33716.39
531.23	32927.92
531.431	32317.63
531.632	32403.64
531.833	31963.33
532.035	31637.7
532.236	30931.15
532.437	30824.66
532.638	30912.72
532.839	30269.66
533.04	30275.8
533.241	29298.92
533.442	29409.51
533.643	29126.89
533.844	28434.68
534.045	28125.44
534.246	27504.9
534.447	27564.29
534.648	26644.76
534.849	26708.24
535.05	26278.17
535.251	25895.2
535.451	25594.15
535.652	25049.39
535.853	24981.81
536.054	24600.88
536.255	24209.72
536.456	23691.59
536.657	23669.06
536.857	23200.07
537.058	22882.64
537.259	22780.24
537.46	22608.21
537.66	22110.55
537.861	22073.69
538.062	21672.29
538.263	21371.24
538.463	21064.04
538.664	20679.02
538.865	20326.77
539.065	20240.76
539.266	19810.68
539.466	19851.64
539.667	19323.27
539.868	19388.8
540.068	19044.74
540.269	18952.59
540.469	18850.19
540.67	18518.42
540.87	18297.24
541.071	17938.84
541.271	17883.55
541.472	17709.47
541.672	17295.78
541.873	16943.53
542.073	16781.74
542.274	17127.85
542.474	16540.08
542.675	16509.36
542.875	16357.81
543.075	16249.27
543.276	15718.84
543.476	15663.55
543.676	15401.41
543.877	15333.82
544.077	15239.62
544.277	15040.97
544.478	14795.21
544.678	14606.8
544.878	14508.49
545.078	14315.98
545.279	14277.07
545.479	13914.58
545.679	13855.19
545.879	13644.25
546.079	13279.71
546.28	13447.65
546.48	13029.86
546.68	13197.79
546.88	13009.38
547.08	12980.71
547.28	12634.6
547.48	12528.11
547.68	12390.89
547.88	12077.55
548.081	12251.63
548.281	11907.57
548.481	11729.4
548.681	11848.18
548.881	11536.89
549.081	11411.96
549.28	11170.3
549.48	11254.27
549.68	10750.47
549.88	10887.68
550.08	10541.58
550.28	10287.63
550.48	10486.28
550.68	10168.85
550.88	9962
551.08	9818.64
551.279	9806.36
551.479	9458.2
551.679	9679.38
551.879	9335.32
552.079	9146.91
552.278	8876.58
552.478	9071.14
552.678	8929.83
552.878	8878.63
553.077	8698.41
553.277	8217.13
553.477	8481.32
553.676	8290.86
553.876	7901.75
554.076	7817.78
554.275	7725.62
554.475	7526.97
554.674	7502.39
554.874	7549.5
555.074	7219.77
555.273	7379.51
555.473	7045.7
555.672	6953.54
555.872	6801.99
556.071	6752.84
556.271	6718.02
556.47	6459.98
556.67	6410.82
556.869	6302.28
557.068	6048.33
557.268	6089.29
557.467	6068.81
557.667	5958.22
557.866	5818.96
558.065	5593.69
558.265	5530.2
558.464	5395.03
558.663	5501.53
558.863	5368.41
559.062	5368.41
559.261	5263.96
559.461	5198.43
559.66	4880.99
559.859	4831.84
560.058	4594.28
560.258	4731.49
560.457	4579.94
560.656	4708.96
560.855	4500.07
561.054	4551.27
561.253	4424.3
561.453	4385.38
561.652	4287.08
561.851	4362.86
562.05	4174.44
562.249	3986.03
562.448	4115.05
562.647	3994.22
562.846	3926.64
563.045	3850.86
563.244	3869.3
563.443	3795.57
563.642	3629.68
563.841	3607.16
564.04	3586.68
564.239	3355.26
564.438	3527.28
564.637	3220.09
564.836	3330.68
565.035	3263.1
565.234	3132.03
565.432	3166.84
565.631	3144.31
565.83	3005.05
566.029	3027.58
566.228	2962.05
566.427	2960
566.625	2771.58
566.824	2861.69
567.023	2738.82
567.222	2749.06
567.42	2734.72
567.619	2683.52
567.818	2740.86
568.016	2722.43
568.215	2595.46
568.414	2730.62
568.612	2589.32
568.811	2470.53
569.01	2450.05
569.208	2372.23
569.407	2427.53
569.605	2347.65
569.804	2247.3
570.002	2181.77
570.201	2073.23
570.4	2179.72
570.598	2083.47
570.797	2046.6
570.995	1970.83
571.193	2052.75
571.392	2038.41
571.59	2017.93
571.789	2108.04
571.987	2038.41
572.186	2046.6
572.384	1827.47
572.582	1827.47
572.781	1985.16
572.979	1751.7
573.177	1800.85
573.376	1704.59
573.574	1704.59
573.772	1606.29
573.971	1602.19
574.169	1579.67
574.367	1632.91
574.565	1538.71
574.763	1548.95
574.962	1419.92
575.16	1551
575.358	1487.51
575.556	1573.52
575.754	1409.69
575.952	1405.59
576.151	1524.37
576.349	1444.5
576.547	1260.18
576.745	1358.49
576.943	1272.47
577.141	1295
577.339	1143.45
577.537	1272.47
577.735	1350.29
577.933	1200.79
578.131	1131.16
578.329	1251.99
578.527	1104.54
578.725	1147.55
578.923	1079.96
579.121	1145.5
579.319	942.75
579.516	955.04
579.714	1186.46
579.912	1039
580.11	973.47
580.308	979.61
580.506	1014.43
580.704	854.69
580.901	881.31
581.099	946.84
581.297	1008.28
581.495	926.36
581.692	850.59
581.89	940.7
582.088	821.92
582.285	889.5
582.483	856.73
582.681	852.64
582.878	793.25
583.076	785.05
583.274	799.39
583.471	946.84
583.669	723.62
583.866	705.18
584.064	791.2
584.262	613.03
584.459	637.6
584.657	705.18
584.854	879.26
585.052	742.05
585.249	799.39
585.447	797.34
585.644	604.83
585.841	770.72
586.039	742.05
586.236	764.58
586.434	590.5
586.631	518.82
586.828	584.35
587.026	570.02
587.223	557.73
587.42	531.11
587.618	561.83
587.815	647.84
588.012	615.07
588.21	512.67
588.407	637.6
588.604	586.4
588.801	481.96
588.999	598.69
589.196	602.79
589.393	461.48
589.59	553.63
589.787	510.63
589.984	651.94
590.182	570.02
590.379	531.11
590.576	553.63
590.773	559.78
590.97	436.9
591.167	535.2
591.364	500.39
591.561	492.2
591.758	580.26
591.955	549.54
592.152	488.1
592.349	412.32
592.546	508.58
592.743	463.52
592.94	463.52
593.137	490.15
593.334	545.44
593.531	498.34
593.727	557.73
593.924	498.34
594.121	510.63
594.318	434.85
594.515	471.72
594.712	596.64
594.908	572.07
595.105	385.7
595.302	522.91
595.499	486.05
595.696	701.09
595.892	475.81
596.089	666.27
596.286	516.77
596.482	645.79
596.679	598.69
596.876	481.96
597.072	707.23
597.269	584.35
597.466	682.66
597.662	576.16
597.859	613.03
598.055	684.7
598.252	737.95
598.448	742.05
598.645	733.86
598.841	733.86
599.038	971.42
599.234	893.6
599.431	873.12
599.627	889.5
599.824	889.5
600.02	916.12
600.217	918.17
600.413	1036.95
600.609	1071.77
600.806	1282.71
601.002	1184.41
601.198	985.76
601.395	1299.09
601.591	1297.05
601.787	1385.11
601.984	1381.01
602.18	1469.08
602.376	1409.69
602.572	1512.08
602.769	1589.91
602.965	1688.21
603.161	1749.65
603.357	1776.27
603.553	1827.47
603.75	1854.09
603.946	1923.73
604.142	1950.35
604.338	2126.47
604.534	2124.43
604.73	2200.2
604.926	2298.5
605.122	2390.66
605.318	2306.7
605.514	2448.01
605.71	2591.36
605.906	2701.95
606.102	2646.66
606.298	2718.34
606.494	2914.94
606.69	2937.47
606.886	3060.35
607.082	3097.21
607.278	3129.98
607.474	3388.02
607.67	3230.33
607.866	3353.21
608.062	3687.03
608.257	3684.98
608.453	3631.73
608.649	3861.1
608.845	3818.1
609.041	3963.5
609.236	4168.3
609.432	4287.08
609.628	4555.37
609.824	4524.65
610.019	4555.37
610.215	4659.81
610.411	4981.34
610.606	4993.63
610.802	5091.93
610.998	5292.63
611.193	5552.73
611.389	5386.84
611.584	5433.94
611.78	5751.38
611.976	5851.73
612.171	6419.02
612.367	6289.99
612.562	6335.05
612.758	6371.91
612.953	6537.8
613.149	6906.43
613.344	6844.99
613.539	7133.76
613.735	7473.72
613.93	7586.36
614.126	7633.46
614.321	8081.97
614.517	8196.65
614.712	8503.85
614.907	8763.94
615.103	8712.74
615.298	9013.79
615.493	9171.49
615.688	9372.19
615.884	9894.42
616.079	9665.05
616.274	10537.48
616.47	10394.12
616.665	10820.1
616.86	10940.93
617.055	11205.12
617.25	11309.57
617.445	11792.89
617.641	11762.17
617.836	12425.71
618.031	12253.68
618.226	13109.73
618.421	13218.27
618.616	13468.13
618.811	13644.25
619.006	14438.86
619.201	14242.26
619.396	14860.74
619.591	14864.84
619.786	15247.81
619.981	15448.51
620.176	16136.63
620.371	16069.05
620.566	16767.4
620.761	16998.82
620.956	17369.51
621.151	17478.05
621.346	18237.84
621.541	18024.86
621.735	18743.69
621.93	18753.93
622.125	19427.71
622.32	19536.26
622.515	20156.79
622.709	20361.59
622.904	20859.24
623.099	21186.92
623.294	21365.09
623.488	21711.2
623.683	22102.36
623.878	22284.63
624.072	23181.64
624.267	23023.95
624.462	23540.04
624.656	23873.85
624.851	24707.38
625.046	24379.7
625.24	25053.48
625.435	25159.98
625.629	25880.86
625.824	26259.74
626.018	26188.06
626.213	26069.28
626.407	26738.96
626.602	26904.85
626.796	27189.52
626.991	27748.61
627.185	27601.16
627.38	27758.85
627.574	28387.58
627.768	28236.03
627.963	28449.02
628.157	28410.11
628.352	28834.03
628.546	28434.68
628.74	28877.04
628.935	28440.82
629.129	28471.54
629.323	28694.77
629.517	28625.14
629.712	28113.15
629.906	28223.74
630.1	27484.42
630.294	27709.7
630.489	27093.26
630.683	27146.51
630.877	26167.58
631.071	25811.23
631.265	25563.43
631.459	25073.96
631.653	24402.23
631.848	23943.49
632.042	23214.41
632.236	23083.34
632.43	22378.84
632.624	21999.96
632.818	21086.57
633.012	20418.93
633.206	19990.91
633.4	19224.97
633.594	18663.82
633.788	18276.76
633.982	17482.14
634.176	16779.69
634.369	16232.88
634.563	15595.96
634.757	15030.73
634.951	14410.19
635.145	14025.17
635.339	13457.89
635.533	12546.54
635.726	12669.42
635.92	11700.73
636.114	11235.84
636.308	10867.2
636.501	10553.87
636.695	10000.91
636.889	9316.89
637.083	9337.37
637.276	8901.15
637.47	8460.84
637.664	8077.87
637.857	7758.39
638.051	7576.12
638.244	7182.91
638.438	6640.2
638.632	6865.47
638.825	6154.83
639.019	6113.87
639.212	5808.72
639.406	5685.84
639.599	5429.85
639.793	5421.66
639.986	5069.41
640.18	5014.11
640.373	4754.02
640.567	4471.4
640.76	4393.58
640.954	4113
641.147	3998.32
641.34	3748.47
641.534	3644.02
641.727	3607.16
641.92	3480.18
642.114	3412.6
642.307	3193.47
642.5	3256.95
642.694	2812.54
642.887	2681.47
643.08	2787.97
643.273	2706.05
643.467	2437.77
643.66	2390.66
643.853	2300.55
644.046	2437.77
644.239	2151.05
644.432	2073.23
644.626	1753.74
644.819	1938.06
645.012	1809.04
645.205	1766.03
645.398	1798.8
645.591	1495.7
645.784	1553.04
645.977	1505.94
646.17	1442.45
646.363	1350.29
646.556	1286.81
646.749	1137.31
646.942	1288.85
647.135	1204.89
647.328	1104.54
647.521	1172.12
647.714	1010.33
647.907	1145.5
648.099	969.37
648.292	1110.68
648.485	926.36
648.678	811.68
648.871	830.11
649.064	807.58
649.256	846.49
649.449	729.76
649.642	633.5
649.835	690.85
650.027	715.42
650.22	746.14
650.413	627.36
650.605	664.22
650.798	553.63
650.991	584.35
651.183	633.5
651.376	529.06
651.568	506.53
651.761	463.52
651.954	449.19
652.146	416.42
652.339	529.06
652.531	545.44
652.724	393.89
652.916	391.84
653.109	228.01
653.301	416.42
653.494	473.76
653.686	488.1
653.879	500.39
654.071	379.56
654.263	352.93
654.456	334.5
654.648	438.95
654.84	406.18
655.033	309.93
655.225	389.8
655.417	156.33
655.61	424.61
655.802	332.45
655.994	375.46
656.186	160.42
656.379	385.7
656.571	264.87
656.763	256.68
656.955	236.2
657.148	277.16
657.34	273.06
657.532	260.77
657.724	279.21
657.916	170.66
658.108	352.93
658.3	266.92
658.492	215.72
658.684	148.14
658.876	383.65
659.068	127.66
659.26	101.03
659.452	176.81
659.644	172.71
659.836	217.77
660.028	154.28
660.22	252.58
660.412	207.53
660.604	273.06
660.796	150.18
660.988	242.34
661.18	172.71
661.372	146.09
661.563	201.38
661.755	164.52
661.947	164.52
662.139	39.59
662.331	221.86
662.522	154.28
662.714	49.83
662.906	133.8
663.097	123.56
663.289	119.46
663.481	12.97
663.673	119.46
663.864	207.53
664.056	178.86
664.247	62.12
664.439	185
664.631	174.76
664.822	125.61
665.014	141.99
665.205	123.56
665.397	127.66
665.588	125.61
665.78	139.94
665.971	189.1
666.163	19.11
666.354	228.01
666.546	139.94
666.737	197.29
666.929	101.03
667.12	68.27
667.311	131.75
667.503	123.56
667.694	113.32
667.885	172.71
668.077	191.14
668.268	23.21
668.459	94.89
668.651	144.04
668.842	170.66
669.033	39.59
669.224	6.83
669.416	279.21
669.607	78.51
669.798	35.5
669.989	209.58
670.18	135.85
670.371	105.13
670.563	98.99
670.754	162.47
670.945	182.95
671.136	191.14
671.327	31.4
671.518	260.77
671.709	221.86
671.9	244.39
672.091	191.14
672.282	156.33
672.473	103.08
672.664	107.18
672.855	105.13
673.046	223.91
673.237	203.43
673.428	158.38
673.619	209.58
673.809	164.52
674	217.77
674.191	211.62
674.382	195.24
674.573	166.57
674.764	119.46
674.954	178.86
675.145	131.75
675.336	139.94
675.527	129.7
675.717	101.03
675.908	105.13
676.099	64.17
676.289	135.85
676.48	27.31
676.671	141.99
676.861	180.9
677.052	185
677.243	240.3
677.433	123.56
677.624	256.68
677.814	158.38
678.005	193.19
678.195	287.4
678.386	205.48
678.576	191.14
678.767	86.7
678.957	234.15
679.148	166.57
679.338	262.82
679.529	248.49
679.719	113.32
679.909	277.16
680.1	328.36
680.29	205.48
680.481	195.24
680.671	250.53
680.861	250.53
681.052	236.2
681.242	123.56
681.432	248.49
681.622	201.38
681.813	137.9
682.003	168.62
682.193	154.28
682.383	240.3
682.573	213.67
682.764	170.66
682.954	299.69
683.144	240.3
683.334	154.28
683.524	219.82
683.714	314.02
683.904	271.01
684.094	221.86
684.284	160.42
684.474	318.12
684.664	322.21
684.854	193.19
685.044	234.15
685.234	217.77
685.424	271.01
685.614	109.22
685.804	410.28
685.994	297.64
686.184	295.59
686.374	256.68
686.564	213.67
686.753	236.2
686.943	195.24
687.133	223.91
687.323	172.71
687.513	254.63
687.702	223.91
687.892	189.1
688.082	309.93
688.272	314.02
688.461	283.3
688.651	422.56
688.841	289.45
689.03	252.58
689.22	213.67
689.41	293.54
689.599	244.39
689.789	240.3
689.979	338.6
690.168	201.38
690.358	205.48
690.547	170.66
690.737	254.63
690.926	293.54
691.116	223.91
691.305	303.78
691.495	266.92
691.684	195.24
691.874	211.62
692.063	195.24
692.252	273.06
692.442	242.34
692.631	238.25
692.82	215.72
693.01	223.91
693.199	88.75
693.388	279.21
693.578	209.58
693.767	199.34
693.956	215.72
694.146	236.2
694.335	215.72
694.524	180.9
694.713	254.63
694.902	213.67
695.092	180.9
695.281	228.01
695.47	262.82
695.659	144.04
695.848	150.18
696.037	137.9
696.226	252.58
696.415	219.82
696.604	244.39
696.793	215.72
696.982	180.9
697.171	326.31
697.36	221.86
697.549	242.34
697.738	117.42
697.927	234.15
698.116	139.94
698.305	287.4
698.494	244.39
698.683	219.82
698.872	228.01
699.061	176.81
699.25	154.28
699.438	246.44
699.627	156.33
699.816	273.06
700.005	121.51
700.193	62.12
700.382	262.82
700.571	277.16
700.76	236.2
700.948	125.61
701.137	201.38
701.326	244.39
701.514	191.14
701.703	291.49
701.892	230.06
702.08	385.7
702.269	195.24
702.457	107.18
702.646	238.25
702.834	137.9
703.023	320.17
703.212	289.45
703.4	199.34
703.589	125.61
703.777	223.91
703.965	234.15
704.154	154.28
704.342	215.72
704.531	101.03
704.719	244.39
704.907	311.97
705.096	162.47
705.284	185
705.472	268.97
705.661	207.53
705.849	273.06
706.037	262.82
706.226	180.9
706.414	139.94
706.602	158.38
706.79	221.86
706.979	191.14
707.167	158.38
707.355	141.99
707.543	244.39
707.731	293.54
707.919	205.48
708.107	191.14
708.296	137.9
708.484	129.7
708.672	262.82
708.86	219.82
709.048	283.3
709.236	115.37
709.424	238.25
709.612	148.14
709.8	115.37
709.988	160.42
710.176	311.97
710.364	320.17
710.551	228.01
710.739	213.67
710.927	213.67
711.115	174.76
711.303	328.36
711.491	223.91
711.679	238.25
711.866	293.54
712.054	197.29
712.242	246.44
712.43	244.39
712.617	211.62
712.805	240.3
712.993	256.68
713.181	156.33
713.368	309.93
713.556	244.39
713.744	185
713.931	346.79
714.119	228.01
714.306	182.95
714.494	291.49
714.682	160.42
714.869	84.65
715.057	168.62
715.244	150.18
715.432	162.47
715.619	240.3
715.807	195.24
715.994	127.66
716.182	191.14
716.369	266.92
716.556	279.21
716.744	113.32
716.931	166.57
717.119	223.91
717.306	135.85
717.493	301.73
717.681	158.38
717.868	144.04
718.055	316.07
718.242	217.77
718.43	201.38
718.617	289.45
718.804	207.53
718.991	352.93
719.179	301.73
719.366	221.86
719.553	225.96
719.74	246.44
719.927	191.14
720.114	205.48
720.301	195.24
720.488	225.96
720.676	182.95
720.863	240.3
721.05	350.89
721.237	299.69
721.424	266.92
721.611	264.87
721.798	185
721.985	266.92
722.172	244.39
722.358	195.24
722.545	354.98
722.732	316.07
722.919	281.25
723.106	326.31
723.293	293.54
723.48	234.15
723.667	195.24
723.853	330.41
724.04	264.87
724.227	381.6
724.414	228.01
724.6	307.88
724.787	334.5
724.974	354.98
725.161	232.1
725.347	209.58
725.534	297.64
725.72	250.53
725.907	256.68
726.094	318.12
726.28	168.62
726.467	305.83
726.653	293.54
726.84	373.41
727.027	451.24
727.213	168.62
727.4	303.78
727.586	295.59
727.773	281.25
727.959	287.4
728.145	252.58
728.332	256.68
728.518	275.11
728.705	244.39
728.891	228.01
729.077	334.5
729.264	238.25
729.45	316.07
729.636	412.32
729.823	262.82
730.009	215.72
730.195	324.26
730.382	326.31
730.568	248.49
730.754	344.74
730.94	234.15
731.126	260.77
731.313	205.48
731.499	258.73
731.685	328.36
731.871	342.69
732.057	385.7
732.243	383.65
732.429	234.15
732.615	387.75
732.801	291.49
732.987	230.06
733.173	314.02
733.359	344.74
733.545	397.99
733.731	273.06
733.917	342.69
734.103	309.93
734.289	291.49
734.475	219.82
734.661	449.19
734.847	340.65
735.033	309.93
735.219	422.56
735.404	213.67
735.59	260.77
735.776	262.82
735.962	291.49
736.148	359.08
736.333	383.65
736.519	316.07
736.705	322.21
736.89	385.7
737.076	346.79
737.262	209.58
737.447	336.55
737.633	295.59
737.819	264.87
738.004	230.06
738.19	311.97
738.375	383.65
738.561	406.18
738.747	357.03
738.932	291.49
739.118	471.72
739.303	373.41
739.489	289.45
739.674	264.87
739.859	291.49
740.045	365.22
740.23	283.3
740.416	203.43
740.601	354.98
740.786	363.17
740.972	273.06
741.157	297.64
741.342	189.1
741.528	275.11
741.713	457.38
741.898	287.4
742.084	289.45
742.269	324.26
742.454	344.74
742.639	389.8
742.824	260.77
743.01	354.98
743.195	408.23
743.38	365.22
743.565	234.15
743.75	320.17
743.935	420.52
744.12	426.66
744.305	234.15
744.49	350.89
744.675	240.3
744.86	287.4
745.045	252.58
745.23	332.45
745.415	293.54
745.6	367.27
745.785	242.34
745.97	443.04
746.155	316.07
746.34	393.89
746.525	236.2
746.71	404.13
746.895	207.53
747.079	152.23
747.264	258.73
747.449	314.02
747.634	383.65
747.819	322.21
748.003	273.06
748.188	256.68
748.373	338.6
748.557	346.79
748.742	301.73
748.927	328.36
749.111	279.21
749.296	303.78
749.481	342.69
749.665	293.54
749.85	301.73
750.034	324.26
750.219	266.92
750.404	207.53
750.588	332.45
750.773	264.87
750.957	283.3
751.141	193.19
751.326	254.63
751.51	195.24
751.695	230.06
751.879	264.87
752.064	412.32
752.248	215.72
752.432	455.33
752.617	393.89
752.801	219.82
752.985	277.16
753.17	357.03
753.354	285.35
753.538	285.35
753.722	228.01
753.907	193.19
754.091	168.62
754.275	309.93
754.459	193.19
754.643	193.19
754.828	240.3
755.012	297.64
755.196	113.32
755.38	219.82
755.564	199.34
755.748	191.14
755.932	305.83
756.116	303.78
756.3	201.38
756.484	193.19
756.668	262.82
756.852	137.9
757.036	158.38
757.22	215.72
757.404	182.95
757.588	211.62
757.772	246.44
757.956	225.96
758.14	311.97
758.323	129.7
758.507	346.79
758.691	180.9
758.875	250.53
759.059	309.93
759.242	76.46
759.426	152.23
759.61	271.01
759.794	121.51
759.977	262.82
760.161	424.61
760.345	314.02
760.528	205.48
760.712	193.19
760.895	205.48
761.079	105.13
761.263	55.98
761.446	187.05
761.63	168.62
761.813	207.53
761.997	209.58
762.18	205.48
762.364	199.34
762.547	82.6
762.731	117.42
762.914	195.24
763.098	107.18
763.281	178.86
763.464	152.23
763.648	193.19
763.831	141.99
764.015	121.51
764.198	176.81
764.381	174.76
764.564	117.42
764.748	193.19
764.931	225.96
765.114	123.56
765.297	133.8
765.481	88.75
765.664	121.51
765.847	101.03
766.03	228.01
766.213	74.41
766.397	96.94
766.58	107.18
766.763	121.51
766.946	137.9
767.129	105.13
767.312	74.41
767.495	107.18
767.678	51.88
767.861	178.86
768.044	94.89
768.227	123.56
768.41	103.08
768.593	86.7
768.776	146.09
768.959	150.18
769.142	219.82
769.324	164.52
769.507	103.08
769.69	172.71
769.873	90.79
770.056	320.17
770.239	127.66
770.421	170.66
770.604	103.08
770.787	205.48
770.97	137.9
771.152	123.56
771.335	205.48
771.518	98.99
771.7	256.68
771.883	211.62
772.066	94.89
772.248	139.94
772.431	215.72
772.613	189.1
772.796	101.03
772.978	33.45
773.161	285.35
773.343	58.03
773.526	47.79
773.708	-3.41
773.891	-36.18
774.073	62.12
774.256	129.7
774.438	262.82
774.621	-25.94
774.803	176.81
774.985	111.27
775.168	103.08
775.35	119.46
775.532	166.57
775.715	31.4
775.897	168.62
776.079	82.6
776.261	111.27
776.444	74.41
776.626	17.07
776.808	47.79
776.99	60.07
777.173	117.42
777.355	33.45
777.537	119.46
777.719	193.19
777.901	113.32
778.083	64.17
778.265	10.92
778.447	107.18
778.629	8.87
778.811	109.22
778.993	160.42
779.175	86.7
779.357	47.79
779.539	12.97
779.721	113.32
779.903	117.42
780.085	64.17
780.267	113.32
780.449	60.07
780.631	168.62
780.812	185
780.994	53.93
781.176	43.69
781.358	-11.61
781.54	107.18
781.721	144.04
781.903	47.79
782.085	68.27
782.267	187.05
782.448	21.16
782.63	33.45
782.812	121.51
782.993	96.94
783.175	160.42
783.357	109.22
783.538	29.35
783.72	49.83
783.901	60.07
784.083	88.75
784.264	127.66
784.446	-3.41
784.627	92.84
784.809	174.76
784.99	72.36
785.172	121.51
785.353	88.75
785.535	139.94
785.716	-11.61
785.897	47.79
786.079	78.51
786.26	72.36
786.441	92.84
786.623	-13.65
786.804	45.74
786.985	107.18
787.167	8.87
787.348	35.5
787.529	-17.75
787.71	172.71
787.891	107.18
788.073	45.74
788.254	-132.44
788.435	264.87
788.616	94.89
788.797	-54.61
788.978	70.31
789.159	-15.7
789.34	133.8
789.522	19.11
789.703	12.97
789.884	10.92
790.065	74.41
790.246	150.18
790.427	33.45
790.607	101.03
790.788	193.19
790.969	-42.32
791.15	90.79
791.331	96.94
791.512	78.51
791.693	-19.8
791.874	41.64
792.054	246.44
792.235	154.28
792.416	-1.37
792.597	4.78
792.778	74.41
792.958	47.79
793.139	-21.85
793.32	35.5
793.5	-79.19
793.681	146.09
793.862	66.22
794.042	29.35
794.223	6.83
794.404	35.5
794.584	-40.28
794.765	41.64
794.945	53.93
795.126	139.94
795.306	68.27
795.487	123.56
795.667	-5.46
795.848	45.74
796.028	-64.85
796.209	133.8
796.389	74.41
796.57	-44.37
796.75	37.55
796.93	64.17
797.111	-1.37
797.291	64.17
797.471	39.59
797.652	35.5
797.832	-17.75
798.012	107.18
798.192	76.46
798.373	-17.75
798.553	-3.41
798.733	88.75
798.913	-38.23
799.093	12.97
799.274	49.83
799.454	127.66
799.634	129.7
799.814	156.33
799.994	33.45
800.174	76.46
800.354	37.55
800.534	-95.57
800.714	105.13
800.894	43.69
801.074	-17.75
801.254	43.69
801.434	193.19
801.614	-23.89
801.794	0.68
801.974	1989.26
802.154	-17.75
802.334	127.66
802.514	25.26
802.693	-34.13
802.873	-1.37
803.053	133.8
803.233	101.03
803.413	53.93
803.592	-81.24
803.772	64.17
803.952	31.4
804.131	-58.71
804.311	90.79
804.491	166.57
804.67	-17.75
804.85	-7.51
805.03	33.45
805.209	96.94
805.389	-48.47
805.568	19.11
805.748	31.4
805.928	19.11
806.107	92.84
806.287	88.75
806.466	64.17
806.646	25.26
806.825	80.55
807.004	17.07
807.184	68.27
807.363	21.16
807.543	96.94
807.722	55.98
807.901	49.83
808.081	6.83
808.26	-58.71
808.439	35.5
808.619	33.45
808.798	43.69
808.977	78.51
809.156	156.33
809.336	80.55
809.515	-32.08
809.694	-99.67
809.873	25.26
810.052	6.83
810.231	70.31
810.411	15.02
810.59	80.55
810.769	-30.04
810.948	135.85
811.127	-148.82
811.306	47.79
811.485	-19.8
811.664	103.08
811.843	35.5
812.022	-42.32
812.201	-23.89
812.38	-15.7
812.559	-1.37
812.737	47.79
812.916	-87.38
813.095	10.92
813.274	-3.41
813.453	15.02
813.632	39.59
813.811	70.31
813.989	-85.33
814.168	27.31
814.347	-19.8
814.526	-5.46
814.704	68.27
814.883	101.03
815.062	-66.9
815.24	76.46
815.419	-56.66
815.598	90.79
815.776	-111.96
815.955	-11.61
816.133	-30.04
816.312	-5.46
816.49	10.92
816.669	-3.41
816.847	23.21
817.026	78.51
817.204	-23.89
817.383	19.11
817.561	-30.04
817.74	-5.46
817.918	76.46
818.097	-64.85
818.275	-42.32
818.453	-42.32
818.632	-21.85
818.81	41.64
818.988	-25.94
819.167	-64.85
819.345	-25.94
819.523	-17.75
819.701	8.87
819.879	43.69
820.058	4.78
820.236	101.03
820.414	-17.75
820.592	27.31
820.77	2.73
820.948	41.64
821.127	-34.13
821.305	76.46
821.483	-46.42
821.661	137.9
821.839	0.68
822.017	-36.18
822.195	15.02
822.373	70.31
822.551	68.27
822.729	74.41
822.907	-42.32
823.085	103.08
823.262	-15.7
823.44	-11.61
823.618	8.87
823.796	39.59
823.974	66.22
824.152	-44.37
824.329	-1.37
824.507	-30.04
824.685	86.7
824.863	88.75
825.04	41.64
825.218	35.5
825.396	60.07
825.574	19.11
825.751	21.16
825.929	64.17
826.107	-17.75
826.284	19.11
826.462	94.89
826.639	-77.14
826.817	-15.7
826.994	-3.41
827.172	-56.66
827.349	187.05
827.527	74.41
827.704	74.41
827.882	82.6
828.059	-52.56
828.237	21.16
828.414	60.07
828.591	-132.44
828.769	23.21
828.946	-7.51
829.124	115.37
829.301	156.33
829.478	-34.13
829.655	37.55
829.833	41.64
830.01	-58.71
830.187	17.07
830.364	-1.37
830.542	-58.71
830.719	125.61
830.896	78.51
831.073	72.36
831.25	70.31
831.427	58.03
831.604	-60.76
831.782	-91.48
831.959	-34.13
832.136	-27.99
832.313	64.17
832.49	-95.57
832.667	96.94
832.844	6.83
833.021	111.27
833.198	39.59
833.374	10.92
833.551	51.88
833.728	-25.94
833.905	84.65
834.082	-50.52
834.259	66.22
834.436	111.27
834.612	-27.99
834.789	35.5
834.966	47.79
835.143	94.89
835.319	-83.28
835.496	58.03
835.673	27.31
835.85	105.13
836.026	101.03
836.203	64.17
836.38	-9.56
836.556	-40.28
836.733	19.11
836.909	109.22
837.086	33.45
837.262	-40.28
837.439	-36.18
837.616	8.87
837.792	10.92
837.968	-15.7
838.145	-87.38
838.321	-13.65
838.498	66.22
838.674	15.02
838.851	-5.46
839.027	19.11
839.203	-1.37
839.38	55.98
839.556	-19.8
839.732	68.27
839.909	72.36
840.085	64.17
840.261	-32.08
840.437	29.35
840.614	-23.89
840.79	-11.61
840.966	31.4
841.142	-42.32
841.318	-25.94
841.494	-27.99
841.671	15.02
841.847	-87.38
842.023	-89.43
842.199	31.4
842.375	180.9
842.551	-66.9
842.727	-101.72
842.903	141.99
843.079	-34.13
843.255	58.03
843.431	-56.66
843.607	107.18
843.783	-91.48
843.959	41.64
844.134	15.02
844.31	166.57
844.486	6.83
844.662	12.97
844.838	78.51
845.013	62.12
845.189	150.18
845.365	17.07
845.541	-7.51
845.716	-27.99
845.892	72.36
846.068	-73.04
846.244	-21.85
846.419	90.79
846.595	-87.38
846.77	-27.99
846.946	92.84
847.122	0.68
847.297	-19.8
847.473	121.51
847.648	-50.52
847.824	-3.41
847.999	-58.71
848.175	8.87
848.35	45.74
848.526	92.84
848.701	21.16
848.876	31.4
849.052	78.51
849.227	0.68
849.403	-3.41
849.578	25.26
849.753	90.79
849.929	107.18
850.104	-42.32
850.279	10.92
850.454	43.69
850.63	21.16
850.805	-36.18
850.98	39.59
851.155	15.02
851.33	23.21
851.505	-58.71
851.681	51.88
851.856	-46.42
852.031	39.59
852.206	-9.56
852.381	-40.28
852.556	-42.32
852.731	15.02
852.906	35.5
853.081	-32.08
853.256	215.72
853.431	12.97
853.606	-13.65
853.781	-32.08
853.956	-91.48
854.131	-1.37
854.305	-116.05
854.48	-52.56
854.655	-58.71
854.83	12.97
855.005	21.16
855.18	70.31
855.354	47.79
855.529	47.79
855.704	-40.28
855.879	2.73
856.053	-40.28
856.228	4.78
856.403	-89.43
856.577	86.7
856.752	0.68
856.926	-5.46
857.101	31.4
857.276	-62.8
857.45	27.31
857.625	51.88
857.799	-5.46
857.974	29.35
858.148	-150.87
858.323	-21.85
858.497	23.21
858.672	-50.52
858.846	-54.61
859.02	82.6
859.195	-99.67
859.369	27.31
859.543	-34.13
859.718	6.83
859.892	-9.56
860.066	-27.99
860.241	-83.28
860.415	-50.52
860.589	4.78
860.763	-19.8
860.938	31.4
861.112	55.98
861.286	109.22
861.46	43.69
861.634	10.92
861.808	127.66
861.982	-21.85
862.157	-73.04
862.331	-44.37
862.505	-83.28
862.679	-52.56
862.853	-68.95
863.027	12.97
863.201	82.6
863.375	-64.85
863.549	41.64
863.722	21.16
863.896	55.98
864.07	-60.76
864.244	31.4
864.418	31.4
864.592	-13.65
864.766	80.55
864.939	-75.09
865.113	-15.7
865.287	47.79
865.461	-48.47
865.634	-7.51
865.808	-21.85
865.982	2.73
866.156	-44.37
866.329	-21.85
866.503	27.31
866.676	15.02
866.85	98.99
867.024	39.59
867.197	119.46
867.371	17.07
867.544	-5.46
867.718	-140.63
867.891	33.45
868.065	-71
868.238	-9.56
868.412	101.03
868.585	47.79
868.759	-17.75
868.932	-75.09
869.105	-38.23
869.279	15.02
869.452	-46.42
869.625	45.74
869.799	10.92
869.972	53.93
870.145	-7.51
870.319	-9.56
870.492	0.68
870.665	10.92
870.838	-42.32
871.011	-144.72
871.185	-71
871.358	-38.23
871.531	19.11
871.704	-34.13
871.877	121.51
872.05	19.11
872.223	-111.96
872.396	47.79
872.569	39.59
872.742	-95.57
872.915	78.51
873.088	2.73
873.261	-19.8
873.434	0.68
873.607	-58.71
873.78	82.6
873.953	-114
874.126	-5.46
874.299	88.75
874.471	-1.37
874.644	-50.52
874.817	70.31
874.99	187.05
875.163	-42.32
875.335	-5.46
875.508	31.4
875.681	53.93
875.853	-5.46
876.026	45.74
876.199	8.87
876.371	19.11
876.544	-3.41
876.717	-40.28
876.889	-25.94
877.062	41.64
877.234	-36.18
877.407	-5.46
877.579	-79.19
877.752	88.75
877.924	37.55
878.097	33.45
878.269	-27.99
878.442	-42.32
878.614	47.79
878.786	-19.8
878.959	-30.04
879.131	-9.56
879.303	-128.34
879.476	-25.94
879.648	64.17
879.82	37.55
879.993	29.35
880.165	-54.61
880.337	-95.57
880.509	64.17
880.681	-107.86
880.854	-40.28
881.026	115.37
881.198	180.9
881.37	58.03
881.542	-52.56
881.714	64.17
881.886	-46.42
882.058	-62.8
882.23	-15.7
882.402	-11.61
882.574	49.83
882.746	103.08
882.918	66.22
883.09	-27.99
883.262	-3.41
883.434	-19.8
883.606	-146.77
883.778	-40.28
883.95	84.65
884.122	-3.41
884.293	72.36
884.465	2.73
884.637	55.98
884.809	-77.14
884.98	-19.8
885.152	-38.23
885.324	62.12
885.496	-25.94
885.667	-1.37
885.839	-58.71
886.011	103.08
886.182	-11.61
886.354	144.04
886.525	-21.85
886.697	-9.56
886.869	-48.47
887.04	-66.9
887.212	105.13
887.383	139.94
887.555	29.35
887.726	-71
887.897	-7.51
888.069	4.78
888.24	47.79
888.412	-34.13
888.583	0.68
888.754	15.02
888.926	-7.51
889.097	-116.05
889.268	-83.28
889.44	-40.28
889.611	-128.34
889.782	-25.94
889.953	-46.42
890.125	156.33
890.296	-109.91
890.467	4.78
890.638	10.92
890.809	-32.08
890.98	-36.18
891.151	19.11
891.323	21.16
891.494	-13.65
891.665	25.26
891.836	17.07
892.007	-60.76
892.178	74.41
892.349	74.41
892.52	-32.08
892.691	-5.46
892.862	19.11
893.032	-109.91
893.203	-58.71
893.374	41.64
893.545	107.18
893.716	0.68
893.887	64.17
894.057	-48.47
894.228	25.26
894.399	19.11
894.57	15.02
894.74	64.17
894.911	135.85
895.082	27.31
895.253	-9.56
895.423	-3.41
895.594	15.02
895.764	4.78
895.935	-79.19
896.106	43.69
896.276	2.73
896.447	-36.18
896.617	-165.2
896.788	-126.29
896.958	21.16
897.129	17.07
897.299	-81.24
897.47	107.18
897.64	78.51
897.81	-44.37
897.981	-7.51
898.151	-17.75
898.322	-13.65
898.492	-60.76
898.662	-25.94
898.832	-21.85
899.003	10.92
899.173	33.45
899.343	-1.37
899.513	-64.85
