Data from USB4F104151__57__09-28-30-302.txt Node

Date: Wed Feb 26 09:28:30 EST 2025
User: louis
Spectrometer: USB4F10415
Trigger mode: 4
Integration Time (sec): 1.000000E-1
Scans to average: 1
Electric dark correction enabled: true
Nonlinearity correction enabled: false
Boxcar width: 0
XAxis mode: Wavelengths
Number of Pixels in Spectrum: 3648
>>>>>Begin Spectral Data<<<<<
178.204	-335.18
178.424	-335.18
178.644	-335.18
178.864	-357.71
179.084	-365.9
179.304	21.16
179.524	-48.47
179.744	12.97
179.964	92.84
180.184	29.35
180.404	49.83
180.624	-116.05
180.844	-44.37
181.064	-73.04
181.283	55.98
181.503	-40.28
181.723	60.07
181.943	-73.04
182.163	193.19
182.383	-60.76
182.602	129.7
182.822	80.55
183.042	66.22
183.262	-13.65
183.482	17.07
183.701	-79.19
183.921	27.31
184.141	-46.42
184.361	78.51
184.58	6.83
184.8	0.68
185.02	21.16
185.239	39.59
185.459	17.07
185.679	8.87
185.898	-71
186.118	-9.56
186.338	101.03
186.557	45.74
186.777	0.68
186.997	-44.37
187.216	45.74
187.436	172.71
187.655	123.56
187.875	109.23
188.095	64.17
188.314	51.88
188.534	182.95
188.753	-42.32
188.973	146.09
189.192	98.99
189.412	45.74
189.631	-13.65
189.851	86.7
190.07	141.99
190.29	-21.84
190.509	-17.75
190.729	17.07
190.948	66.22
191.168	271.01
191.387	15.02
191.607	19.11
191.826	39.59
192.045	-38.23
192.265	15.02
192.484	29.35
192.704	17.07
192.923	-64.85
193.142	148.14
193.362	113.32
193.581	119.46
193.8	-3.41
194.02	45.74
194.239	-30.04
194.458	37.55
194.678	-44.37
194.897	8.87
195.116	-66.9
195.335	-11.61
195.555	53.93
195.774	0.68
195.993	170.66
196.212	-42.32
196.432	-19.8
196.651	-60.76
196.87	58.03
197.089	154.28
197.308	80.55
197.528	70.31
197.747	-68.95
197.966	8.87
198.185	103.08
198.404	-97.62
198.623	160.42
198.842	162.47
199.062	62.12
199.281	109.23
199.5	10.92
199.719	21.16
199.938	8.87
200.157	76.46
200.376	101.03
200.595	72.36
200.814	45.74
201.033	12.97
201.252	117.42
201.471	35.5
201.69	76.46
201.909	58.03
202.128	144.04
202.347	72.36
202.566	-5.46
202.785	-124.24
203.004	-3.41
203.223	193.19
203.442	-27.99
203.661	0.68
203.879	62.12
204.098	172.71
204.317	-15.7
204.536	82.6
204.755	33.45
204.974	70.31
205.193	-3.41
205.411	164.52
205.63	0.68
205.849	-9.56
206.068	49.83
206.287	19.11
206.505	94.89
206.724	-5.46
206.943	-79.19
207.162	-13.65
207.381	41.64
207.599	21.16
207.818	12.97
208.037	-34.13
208.255	15.02
208.474	70.31
208.693	17.07
208.911	15.02
209.13	53.93
209.349	111.27
209.567	10.92
209.786	72.36
210.005	45.74
210.223	117.42
210.442	-93.52
210.661	-13.65
210.879	53.93
211.098	-9.56
211.316	35.5
211.535	76.46
211.753	68.27
211.972	49.83
212.191	-44.37
212.409	-9.56
212.628	51.88
212.846	27.31
213.065	-13.65
213.283	98.99
213.502	-3.41
213.72	74.41
213.938	53.93
214.157	12.97
214.375	160.42
214.594	4.78
214.812	23.21
215.031	-85.33
215.249	60.07
215.467	125.61
215.686	-21.84
215.904	51.88
216.122	12.97
216.341	150.18
216.559	88.75
216.778	156.33
216.996	68.27
217.214	37.55
217.432	-11.61
217.651	-36.18
217.869	62.12
218.087	64.17
218.306	-3.41
218.524	-50.52
218.742	72.36
218.96	96.94
219.179	37.55
219.397	19.11
219.615	123.56
219.833	53.93
220.051	-58.71
220.27	41.64
220.488	111.27
220.706	66.22
220.924	-19.8
221.142	84.65
221.36	80.55
221.578	72.36
221.796	78.51
222.015	51.88
222.233	-9.56
222.451	103.08
222.669	-54.61
222.887	86.7
223.105	-11.61
223.323	-44.37
223.541	-38.23
223.759	39.59
223.977	4.78
224.195	178.86
224.413	90.79
224.631	43.69
224.849	94.89
225.067	131.75
225.285	4.78
225.503	70.31
225.721	-71
225.939	37.55
226.157	-21.84
226.375	201.38
226.592	-34.13
226.81	0.68
227.028	117.42
227.246	119.46
227.464	78.51
227.682	47.79
227.9	64.17
228.117	115.37
228.335	117.42
228.553	58.03
228.771	-13.65
228.989	4.78
229.206	-11.61
229.424	10.92
229.642	-19.8
229.86	-9.56
230.077	109.23
230.295	-7.51
230.513	152.23
230.731	21.16
230.948	207.53
231.166	107.18
231.384	12.97
231.601	29.35
231.819	115.37
232.037	-66.9
232.254	-60.76
232.472	72.36
232.689	0.68
232.907	60.07
233.125	31.4
233.342	21.16
233.56	10.92
233.777	0.68
233.995	27.31
234.213	86.7
234.43	86.7
234.648	-44.37
234.865	-17.75
235.083	29.35
235.3	10.92
235.518	64.17
235.735	119.46
235.953	43.69
236.17	-11.61
236.388	0.68
236.605	45.74
236.822	70.31
237.04	37.55
237.257	4.78
237.475	-56.66
237.692	84.65
237.909	53.93
238.127	-11.61
238.344	58.03
238.562	53.93
238.779	-95.57
238.996	-36.18
239.214	8.87
239.431	94.89
239.648	-46.42
239.865	117.42
240.083	43.69
240.3	-3.41
240.517	-38.23
240.735	27.31
240.952	148.14
241.169	37.55
241.386	96.94
241.603	68.27
241.821	-81.24
242.038	55.98
242.255	25.26
242.472	-68.95
242.689	127.66
242.907	35.5
243.124	62.12
243.341	62.12
243.558	15.02
243.775	-138.58
243.992	-107.86
244.209	49.83
244.426	133.8
244.643	39.59
244.86	17.07
245.078	70.31
245.295	-3.41
245.512	25.26
245.729	-64.85
245.946	68.27
246.163	51.88
246.38	21.16
246.597	58.03
246.814	86.7
247.031	98.99
247.248	90.79
247.464	101.03
247.681	-44.37
247.898	98.99
248.115	64.17
248.332	-5.46
248.549	62.12
248.766	176.81
248.983	98.99
249.2	29.35
249.417	49.83
249.633	60.07
249.85	96.94
250.067	74.41
250.284	70.31
250.501	125.61
250.717	90.79
250.934	-36.18
251.151	0.68
251.368	4.78
251.585	88.75
251.801	-5.46
252.018	37.55
252.235	49.83
252.451	4.78
252.668	35.5
252.885	58.03
253.102	-32.08
253.318	25.26
253.535	58.03
253.752	-52.56
253.968	53.93
254.185	-9.56
254.401	86.7
254.618	12.97
254.835	25.26
255.051	168.62
255.268	88.75
255.484	41.64
255.701	-3.41
255.917	19.11
256.134	0.68
256.351	25.26
256.567	-32.08
256.784	-95.57
257	-50.52
257.217	111.27
257.433	70.31
257.65	-5.46
257.866	88.75
258.082	-56.66
258.299	51.88
258.515	70.31
258.732	-7.51
258.948	-46.42
259.165	21.16
259.381	-34.13
259.597	70.31
259.814	103.08
260.03	-27.99
260.246	19.11
260.463	94.89
260.679	33.45
260.895	6.83
261.112	72.36
261.328	-15.7
261.544	-91.48
261.761	201.38
261.977	-23.89
262.193	-19.8
262.409	62.12
262.626	4.78
262.842	-9.56
263.058	-3.41
263.274	88.75
263.49	37.55
263.707	62.12
263.923	80.55
264.139	-68.95
264.355	-13.65
264.571	80.55
264.787	49.83
265.004	137.9
265.22	29.35
265.436	25.26
265.652	60.07
265.868	55.98
266.084	-62.8
266.3	-40.28
266.516	-32.08
266.732	-15.7
266.948	21.16
267.164	-32.08
267.38	115.37
267.596	101.03
267.812	123.56
268.028	76.46
268.244	-19.8
268.46	-7.51
268.676	49.83
268.892	25.26
269.108	-126.29
269.324	-13.65
269.54	0.68
269.756	115.37
269.972	-68.95
270.188	55.98
270.403	-40.28
270.619	66.22
270.835	82.6
271.051	49.83
271.267	-9.56
271.483	-15.7
271.698	98.99
271.914	25.26
272.13	21.16
272.346	-40.28
272.562	82.6
272.777	113.32
272.993	68.27
273.209	-60.76
273.425	66.22
273.64	-36.18
273.856	141.99
274.072	19.11
274.287	-85.33
274.503	98.99
274.719	115.37
274.934	39.59
275.15	-95.57
275.366	4.78
275.581	-77.14
275.797	84.65
276.012	72.36
276.228	-7.51
276.444	-15.7
276.659	76.46
276.875	-44.37
277.09	-1.37
277.306	53.93
277.521	78.51
277.737	45.74
277.952	47.79
278.168	-40.28
278.383	0.68
278.599	66.22
278.814	121.51
279.03	66.22
279.245	144.04
279.461	-7.51
279.676	29.35
279.892	-9.56
280.107	-87.38
280.322	4.78
280.538	62.12
280.753	-44.37
280.969	37.55
281.184	98.99
281.399	76.46
281.615	0.68
281.83	51.88
282.045	-19.8
282.26	-30.04
282.476	70.31
282.691	4.78
282.906	123.56
283.122	27.31
283.337	53.93
283.552	96.94
283.767	88.75
283.983	68.27
284.198	-3.41
284.413	53.93
284.628	-17.75
284.843	78.51
285.058	92.84
285.274	119.46
285.489	-62.8
285.704	70.31
285.919	17.07
286.134	-5.46
286.349	-21.84
286.564	12.97
286.779	47.79
286.995	-36.18
287.21	-62.8
287.425	-3.41
287.64	6.83
287.855	29.35
288.07	-85.33
288.285	133.8
288.5	70.31
288.715	45.74
288.93	19.11
289.145	-54.61
289.36	47.79
289.575	41.64
289.79	96.94
290.004	121.51
290.219	84.65
290.434	-38.23
290.649	-73.04
290.864	-19.8
291.079	21.16
291.294	29.35
291.509	98.99
291.724	-40.28
291.938	43.69
292.153	135.85
292.368	74.41
292.583	103.08
292.798	76.46
293.012	82.6
293.227	10.92
293.442	4.78
293.657	98.99
293.871	103.08
294.086	25.26
294.301	78.51
294.516	127.66
294.73	62.12
294.945	-73.04
295.16	-101.72
295.374	35.5
295.589	176.81
295.804	33.45
296.018	51.88
296.233	131.75
296.447	-13.65
296.662	-17.75
296.877	88.75
297.091	135.85
297.306	55.98
297.52	8.87
297.735	78.51
297.949	47.79
298.164	23.21
298.378	39.59
298.593	-32.08
298.807	-73.04
299.022	-25.94
299.236	154.28
299.451	55.98
299.665	17.07
299.88	58.03
300.094	62.12
300.309	55.98
300.523	43.69
300.737	23.21
300.952	47.79
301.166	86.7
301.381	-3.41
301.595	2.73
301.809	12.97
302.024	4.78
302.238	-48.47
302.452	107.18
302.667	53.93
302.881	86.7
303.095	131.75
303.309	8.87
303.524	10.92
303.738	2.73
303.952	21.16
304.166	88.75
304.381	-5.46
304.595	160.42
304.809	86.7
305.023	23.21
305.237	31.4
305.452	-93.52
305.666	4.78
305.88	98.99
306.094	90.79
306.308	144.04
306.522	37.55
306.736	90.79
306.95	74.41
307.164	115.37
307.379	-56.66
307.593	154.28
307.807	62.12
308.021	127.66
308.235	-3.41
308.449	-101.72
308.663	53.93
308.877	133.8
309.091	94.89
309.305	135.85
309.519	-23.89
309.733	76.46
309.947	-21.84
310.161	86.7
310.374	86.7
310.588	82.6
310.802	-23.89
311.016	51.88
311.23	86.7
311.444	25.26
311.658	12.97
311.872	64.17
312.085	78.51
312.299	109.23
312.513	133.8
312.727	-7.51
312.941	-105.81
313.154	25.26
313.368	-27.99
313.582	0.68
313.796	31.4
314.009	-5.46
314.223	119.46
314.437	45.74
314.651	15.02
314.864	-52.56
315.078	31.4
315.292	37.55
315.505	-11.61
315.719	74.41
315.933	51.88
316.146	60.07
316.36	-60.76
316.573	154.28
316.787	0.68
317.001	121.51
317.214	10.92
317.428	-3.41
317.641	96.94
317.855	-19.8
318.068	12.97
318.282	64.17
318.495	105.13
318.709	86.7
318.922	47.79
319.136	127.66
319.349	12.97
319.563	49.83
319.776	113.32
319.99	-93.52
320.203	47.79
320.417	27.31
320.63	117.42
320.843	121.51
321.057	37.55
321.27	-21.84
321.483	35.5
321.697	180.9
321.91	55.98
322.124	45.74
322.337	119.46
322.55	0.68
322.763	66.22
322.977	51.88
323.19	45.74
323.403	-11.61
323.617	55.98
323.83	41.64
324.043	64.17
324.256	33.45
324.469	-44.37
324.683	4.78
324.896	35.5
325.109	8.87
325.322	0.68
325.535	105.13
325.748	98.99
325.962	10.92
326.175	27.31
326.388	84.65
326.601	78.51
326.814	33.45
327.027	86.7
327.24	123.56
327.453	-68.95
327.666	31.4
327.879	60.07
328.092	-11.61
328.305	-32.08
328.518	-17.75
328.731	-54.61
328.944	35.5
329.157	49.83
329.37	-11.61
329.583	78.51
329.796	123.56
330.009	-116.05
330.222	103.08
330.435	49.83
330.648	23.21
330.861	2.73
331.073	60.07
331.286	109.23
331.499	62.12
331.712	37.55
331.925	-11.61
332.138	8.87
332.35	117.42
332.563	-17.75
332.776	15.02
332.989	-87.38
333.202	0.68
333.414	19.11
333.627	-1.37
333.84	-30.04
334.053	-36.18
334.265	25.26
334.478	-21.84
334.691	92.84
334.903	6.83
335.116	10.92
335.329	66.22
335.541	68.27
335.754	96.94
335.966	-30.04
336.179	17.07
336.392	4.78
336.604	-9.56
336.817	78.51
337.029	103.08
337.242	-3.41
337.454	53.93
337.667	-15.7
337.88	103.08
338.092	60.07
338.305	23.21
338.517	-7.51
338.729	90.79
338.942	139.94
339.154	-23.89
339.367	-64.85
339.579	49.83
339.792	-46.42
340.004	68.27
340.217	35.5
340.429	-19.8
340.641	-64.85
340.854	-40.28
341.066	88.75
341.278	45.74
341.491	121.51
341.703	33.45
341.915	-62.8
342.128	121.51
342.34	45.74
342.552	4.78
342.764	23.21
342.977	23.21
343.189	45.74
343.401	21.16
343.613	-11.61
343.826	49.83
344.038	-54.61
344.25	37.55
344.462	4.78
344.674	160.42
344.886	-27.99
345.099	6.83
345.311	70.31
345.523	-101.72
345.735	-5.46
345.947	29.35
346.159	82.6
346.371	-48.47
346.583	-21.84
346.795	172.71
347.007	58.03
347.219	10.92
347.431	66.22
347.643	82.6
347.855	-36.18
348.067	66.22
348.279	-85.33
348.491	41.64
348.703	43.69
348.915	-40.28
349.127	2.73
349.339	10.92
349.551	25.26
349.763	43.69
349.975	17.07
350.187	125.61
350.399	84.65
350.61	-42.32
350.822	101.03
351.034	58.03
351.246	21.16
351.458	103.08
351.669	39.59
351.881	127.66
352.093	8.87
352.305	37.55
352.517	109.23
352.728	62.12
352.94	68.27
353.152	90.79
353.363	-44.37
353.575	19.11
353.787	117.42
353.999	-15.7
354.21	111.27
354.422	-30.04
354.633	27.31
354.845	12.97
355.057	19.11
355.268	-5.46
355.48	168.62
355.692	-62.8
355.903	74.41
356.115	-68.95
356.326	-101.72
356.538	115.37
356.749	62.12
356.961	129.7
357.172	-15.7
357.384	-23.89
357.595	172.71
357.807	0.68
358.018	-25.94
358.23	12.97
358.441	92.84
358.653	37.55
358.864	-15.7
359.075	41.64
359.287	43.69
359.498	37.55
359.709	49.83
359.921	-30.04
360.132	2.73
360.344	41.64
360.555	37.55
360.766	-1.37
360.977	37.55
361.189	127.66
361.4	12.97
361.611	96.94
361.823	49.83
362.034	8.87
362.245	-62.8
362.456	27.31
362.667	70.31
362.879	-32.08
363.09	131.75
363.301	33.45
363.512	117.42
363.723	-19.8
363.935	-11.61
364.146	76.46
364.357	2.73
364.568	10.92
364.779	-34.13
364.99	121.51
365.201	-40.28
365.412	90.79
365.623	47.79
365.834	98.99
366.045	-1.37
366.256	64.17
366.467	101.03
366.678	29.35
366.889	76.46
367.1	-21.84
367.311	133.8
367.522	-44.37
367.733	92.84
367.944	60.07
368.155	80.55
368.366	105.13
368.577	-21.84
368.788	119.46
368.999	-36.18
369.209	74.41
369.42	160.42
369.631	219.82
369.842	98.99
370.053	31.4
370.264	109.23
370.474	12.97
370.685	35.5
370.896	35.5
371.107	78.51
371.317	123.56
371.528	29.35
371.739	60.07
371.95	19.11
372.16	82.6
372.371	-5.46
372.582	2.73
372.792	-11.61
373.003	23.21
373.214	19.11
373.424	80.55
373.635	-38.23
373.846	107.18
374.056	-27.99
374.267	47.79
374.477	43.69
374.688	-32.08
374.898	88.75
375.109	66.22
375.319	12.97
375.53	125.61
375.74	107.18
375.951	-60.76
376.161	-27.99
376.372	37.55
376.582	-32.08
376.793	31.4
377.003	-68.95
377.214	-66.9
377.424	43.69
377.635	2.73
377.845	39.59
378.055	39.59
378.266	-48.47
378.476	-52.56
378.686	33.45
378.897	19.11
379.107	111.27
379.317	-3.41
379.528	-48.47
379.738	82.6
379.948	-99.67
380.158	139.94
380.369	49.83
380.579	47.79
380.789	-23.89
380.999	109.23
381.21	201.38
381.42	119.46
381.63	17.07
381.84	64.17
382.05	76.46
382.261	144.04
382.471	76.46
382.681	47.79
382.891	103.08
383.101	58.03
383.311	-23.89
383.521	-48.47
383.731	53.93
383.941	0.68
384.151	-38.23
384.361	-13.65
384.571	45.74
384.781	-21.84
384.991	123.56
385.201	182.95
385.411	33.45
385.621	76.46
385.831	33.45
386.041	41.64
386.251	49.83
386.461	43.69
386.671	-1.37
386.881	45.74
387.091	-71
387.301	74.41
387.511	41.64
387.72	45.74
387.93	72.36
388.14	-56.66
388.35	29.35
388.56	70.31
388.769	123.56
388.979	123.56
389.189	41.64
389.399	27.31
389.609	80.55
389.818	127.66
390.028	74.41
390.238	21.16
390.447	37.55
390.657	62.12
390.867	29.35
391.076	-32.08
391.286	-36.18
391.496	-32.08
391.705	45.74
391.915	58.03
392.125	60.07
392.334	10.92
392.544	39.59
392.753	0.68
392.963	-52.56
393.172	51.88
393.382	-89.43
393.591	111.27
393.801	-5.46
394.01	15.02
394.22	21.16
394.429	-3.41
394.639	4.78
394.848	60.07
395.058	-7.51
395.267	8.87
395.477	70.31
395.686	33.45
395.895	178.86
396.105	117.42
396.314	64.17
396.524	23.21
396.733	29.35
396.942	131.75
397.152	76.46
397.361	92.84
397.57	62.12
397.78	45.74
397.989	101.03
398.198	127.66
398.407	2.73
398.617	39.59
398.826	31.4
399.035	21.16
399.244	47.79
399.453	49.83
399.663	53.93
399.872	27.31
400.081	-68.95
400.29	152.23
400.499	-27.99
400.708	96.94
400.917	60.07
401.127	12.97
401.336	101.03
401.545	70.31
401.754	111.27
401.963	146.09
402.172	-13.65
402.381	-32.08
402.59	29.35
402.799	80.55
403.008	29.35
403.217	53.93
403.426	17.07
403.635	-77.14
403.844	-21.84
404.053	2.73
404.262	-15.7
404.471	197.29
404.68	55.98
404.888	-3.41
405.097	-32.08
405.306	29.35
405.515	86.7
405.724	29.35
405.933	139.94
406.142	156.33
406.35	35.5
406.559	41.64
406.768	53.93
406.977	68.27
407.185	6.83
407.394	88.75
407.603	-95.57
407.812	62.12
408.02	86.7
408.229	33.45
408.438	-7.51
408.646	-32.08
408.855	62.12
409.064	51.88
409.272	43.69
409.481	94.89
409.69	-15.7
409.898	8.87
410.107	98.99
410.315	109.23
410.524	-19.8
410.733	66.22
410.941	15.02
411.15	70.31
411.358	-30.04
411.567	94.89
411.775	37.55
411.984	2.73
412.192	66.22
412.401	-13.65
412.609	135.85
412.818	53.93
413.026	96.94
413.234	2.73
413.443	58.03
413.651	-40.28
413.86	0.68
414.068	49.83
414.276	86.7
414.485	10.92
414.693	92.84
414.901	223.91
415.11	86.7
415.318	60.07
415.526	12.97
415.734	66.22
415.943	2.73
416.151	168.62
416.359	58.03
416.567	-11.61
416.776	70.31
416.984	33.45
417.192	39.59
417.4	-27.99
417.608	-62.8
417.817	-15.7
418.025	47.79
418.233	98.99
418.441	60.07
418.649	-27.99
418.857	37.55
419.065	105.13
419.273	23.21
419.481	66.22
419.689	72.36
419.897	49.83
420.105	37.55
420.313	86.7
420.521	125.61
420.729	109.23
420.937	43.69
421.145	-30.04
421.353	51.88
421.561	119.46
421.769	17.07
421.977	66.22
422.185	111.27
422.393	72.36
422.601	51.88
422.809	6.83
423.017	51.88
423.224	-7.51
423.432	109.23
423.64	10.92
423.848	133.8
424.056	-9.56
424.263	68.27
424.471	0.68
424.679	94.89
424.887	-7.51
425.094	164.52
425.302	35.5
425.51	15.02
425.718	154.28
425.925	74.41
426.133	-48.47
426.341	119.46
426.548	0.68
426.756	-9.56
426.964	19.11
427.171	17.07
427.379	47.79
427.586	55.98
427.794	53.93
428.001	162.47
428.209	35.5
428.417	123.56
428.624	98.99
428.832	76.46
429.039	45.74
429.247	88.75
429.454	70.31
429.662	187.05
429.869	111.27
430.076	76.46
430.284	76.46
430.491	144.04
430.699	74.41
430.906	131.75
431.114	115.37
431.321	107.18
431.528	60.07
431.736	60.07
431.943	55.98
432.15	133.8
432.358	193.19
432.565	215.72
432.772	8.87
432.979	148.14
433.187	31.4
433.394	238.25
433.601	80.55
433.808	111.27
434.016	209.58
434.223	162.47
434.43	82.6
434.637	203.43
434.844	223.91
435.052	123.56
435.259	211.62
435.466	230.06
435.673	80.55
435.88	225.96
436.087	211.62
436.294	266.92
436.501	301.73
436.708	164.52
436.915	258.73
437.122	219.82
437.329	144.04
437.537	252.58
437.743	258.73
437.95	303.78
438.157	316.07
438.364	281.25
438.571	299.69
438.778	348.84
438.985	397.99
439.192	365.22
439.399	369.32
439.606	416.42
439.813	375.46
440.02	520.87
440.227	547.49
440.433	428.71
440.64	500.39
440.847	316.07
441.054	428.71
441.261	547.49
441.467	520.87
441.674	477.86
441.881	619.17
442.088	516.77
442.294	586.4
442.501	731.81
442.708	619.17
442.914	592.55
443.121	682.66
443.328	643.74
443.534	797.34
443.741	688.8
443.948	637.6
444.154	735.9
444.361	1051.29
444.568	803.49
444.774	869.02
444.981	828.06
445.187	961.18
445.394	950.94
445.6	971.42
445.807	1075.87
446.013	1106.59
446.22	1114.78
446.426	1159.83
446.633	1286.81
446.839	1313.43
447.046	1165.98
447.252	1391.25
447.459	1381.01
447.665	1258.14
447.871	1518.23
448.078	1643.15
448.284	1618.58
448.491	1606.29
448.697	1753.74
448.903	1768.08
449.11	1856.14
449.316	1809.04
449.522	1884.81
449.728	2007.69
449.935	1976.97
450.141	2069.13
450.347	2294.41
450.553	2310.79
450.76	2357.89
450.966	2400.9
451.172	2572.93
451.378	2679.43
451.584	2710.15
451.791	2783.87
451.997	2955.9
452.203	2855.55
452.409	3215.99
452.615	3263.1
452.821	3140.22
453.027	3086.97
453.233	3691.12
453.44	3453.56
453.646	3768.95
453.852	3826.29
454.058	3998.32
454.264	4231.79
454.47	4385.38
454.676	4364.9
454.882	4891.23
455.088	4520.55
455.294	4962.91
455.5	5036.64
455.705	5501.53
455.911	5403.22
456.117	5511.77
456.323	5909.07
456.529	5868.11
456.735	6189.64
456.941	6507.08
457.147	6664.77
457.352	6810.18
457.558	6996.54
457.764	7459.38
457.97	7604.79
458.176	7934.51
458.381	8280.62
458.587	8575.53
458.793	9081.38
458.999	9001.51
459.204	10095.12
459.41	10553.87
459.616	10326.54
459.821	10793.48
460.027	11442.68
460.233	11928.05
460.438	11866.61
460.644	12657.13
460.85	12630.51
461.055	13169.12
461.261	13937.11
461.466	13515.23
461.672	13916.63
461.878	15538.62
462.083	15372.74
462.289	15483.33
462.494	16337.33
462.7	16087.48
462.905	16681.39
463.111	17873.31
463.316	18882.95
463.522	18977.16
463.727	19483.01
463.932	20443.51
464.138	21381.48
464.343	22436.18
464.549	22319.45
464.754	23660.87
464.959	24142.14
465.165	24801.58
465.37	24598.84
465.575	24834.35
465.781	26478.87
465.986	27001.1
466.191	27068.69
466.397	27205.9
466.602	26515.73
466.807	27994.37
467.012	28147.97
467.218	28762.36
467.423	28971.25
467.628	29599.97
467.833	31011.03
468.038	30787.8
468.244	30163.17
468.449	31889.6
468.654	30791.89
468.859	30914.77
469.064	31062.22
469.269	30083.3
469.474	30558.42
469.679	31584.46
469.885	30292.19
470.09	31004.88
470.295	31219.92
470.5	30492.89
470.705	30499.03
470.91	29632.74
471.115	29630.69
471.32	29853.92
471.525	29331.69
471.73	28678.39
471.935	28651.77
472.139	27642.12
472.344	27629.83
472.549	27525.38
472.754	27232.52
472.959	26472.73
473.164	25301.29
473.369	25278.76
473.574	25899.3
473.778	25309.48
473.983	25030.96
474.188	24353.08
474.393	23214.41
474.598	23220.55
474.802	22901.07
475.007	22423.89
475.212	22149.46
475.417	21293.41
475.621	21043.56
475.826	21113.19
476.031	20251
476.235	20023.67
476.44	19863.93
476.645	19425.67
476.849	19296.64
477.054	18899.34
477.259	18745.74
477.463	18602.38
477.668	17918.36
477.872	18114.97
478.077	17662.37
478.282	17029.54
478.486	16996.78
478.691	16622
478.895	16415.15
479.1	16288.18
479.304	16318.9
479.509	15741.37
479.713	16042.42
479.918	15747.51
480.122	15430.08
480.326	15391.17
480.531	15520.19
480.735	14983.62
480.94	14819.78
481.144	15223.23
481.348	14430.67
481.553	14676.43
481.757	14068.18
481.961	14213.59
482.166	14479.82
482.37	14250.45
482.574	13752.79
482.778	14232.02
482.983	14025.17
483.187	13887.96
483.391	13658.59
483.595	13591
483.8	13255.14
484.004	13363.68
484.208	13292
484.412	13081.06
484.616	12872.17
484.821	12886.5
485.025	12554.73
485.229	12528.11
485.433	12470.76
485.637	12270.06
485.841	11960.82
486.045	11735.54
486.249	11667.96
486.453	11399.68
486.657	11432.44
486.861	11414.01
487.065	10787.33
487.269	10957.32
487.473	10461.71
487.677	10781.19
487.881	10564.11
488.085	10193.42
488.289	10256.91
488.493	9644.57
488.697	9740.82
488.901	9540.12
489.105	9396.76
489.309	9265.69
489.512	9116.19
489.716	9048.61
489.92	8735.27
490.124	8450.6
490.328	8540.71
490.531	8219.18
490.735	8213.04
490.939	8049.2
491.143	7983.66
491.346	7651.89
491.55	7696.95
491.754	7547.45
491.958	7531.06
492.161	7176.77
492.365	7252.54
492.569	7057.98
492.772	6916.67
492.976	7045.7
493.18	6664.77
493.383	6842.95
493.587	6636.1
493.79	6713.92
493.994	6498.89
494.197	6369.87
494.401	6326.86
494.605	6070.86
494.808	5966.42
495.012	6083.15
495.215	6124.11
495.419	6271.56
495.622	6021.71
495.825	6023.76
496.029	5825.11
496.232	5945.94
496.436	5870.16
496.639	6011.47
496.843	5689.94
497.046	5796.43
497.249	6025.81
497.453	5798.48
497.656	5757.52
497.859	5657.17
498.063	5931.6
498.266	5892.69
498.469	5821.01
498.673	5941.84
498.876	5954.13
499.079	5790.29
499.282	5798.48
499.485	6259.28
499.689	6017.61
499.892	5982.8
500.095	5874.26
500.298	6122.06
500.501	6013.52
500.705	6027.85
500.908	6197.84
501.111	5984.85
501.314	6308.43
501.517	6228.56
501.72	6406.73
501.923	6320.71
502.126	6511.18
502.329	6625.86
502.532	6580.81
502.735	6459.98
502.938	6785.6
503.141	6933.06
503.344	6634.05
503.547	7227.96
503.75	7096.89
503.953	7141.95
504.156	7389.75
504.359	7377.47
504.562	7498.3
504.765	7559.74
504.968	7838.26
505.17	7791.16
505.373	7705.14
505.576	8049.2
505.779	8063.54
505.982	8055.34
506.185	8278.57
506.387	8362.54
506.59	8684.07
506.793	8686.12
506.996	8911.39
507.198	9306.65
507.401	9179.68
507.604	9478.68
507.807	9548.31
508.009	9800.21
508.212	10097.17
508.415	10209.81
508.617	10445.32
508.82	10486.28
509.022	10580.49
509.225	10938.88
509.428	11301.37
509.63	11495.93
509.833	11569.66
510.035	12022.26
510.238	12138.99
510.44	12356.08
510.643	12689.9
510.845	13062.63
511.048	13343.2
511.25	13332.96
511.453	13799.9
511.655	14391.76
511.858	14371.28
512.06	14821.83
512.262	14905.8
512.465	15133.12
512.667	15643.07
512.87	16013.75
513.072	16306.61
513.274	16810.41
513.477	17246.63
513.679	17320.35
513.881	18053.53
514.084	18299.28
514.286	18491.79
514.488	18682.25
514.69	19765.63
514.893	19863.93
515.095	20138.36
515.297	20740.46
515.499	21168.49
515.701	21465.44
515.904	22194.52
516.106	22759.76
516.308	23077.19
516.51	23566.66
516.712	24086.84
516.914	24664.37
517.116	24946.99
517.318	25233.71
517.52	25612.58
517.722	26102.04
517.925	26646.8
518.127	27060.49
518.329	27873.54
518.531	27336.97
518.733	28553.46
518.935	28942.58
519.136	29348.07
519.338	29970.66
519.54	30576.86
519.742	30841.04
519.944	31398.09
520.146	31899.84
520.348	32000.19
520.55	32540.86
520.752	32975.03
520.954	33847.46
521.155	33687.72
521.357	34164.9
521.559	34982.04
521.761	35354.77
521.963	35262.61
522.164	35870.86
522.366	36169.86
522.568	36620.41
522.77	36831.35
522.971	37355.63
523.173	37378.16
523.375	37789.8
523.576	37767.27
523.778	37683.31
523.98	38690.91
524.181	38402.14
524.383	38809.69
524.584	38867.03
524.786	39143.51
524.988	38881.37
525.189	39327.83
525.391	39274.58
525.592	39383.12
525.794	39360.59
525.995	39329.87
526.197	39116.89
526.398	39309.39
526.6	39254.1
526.801	39299.15
527.003	38969.43
527.204	38983.77
527.406	39170.13
527.607	38615.13
527.808	38977.62
528.01	37828.71
528.211	38320.23
528.412	38230.12
528.614	37623.92
528.815	37662.83
529.016	37716.08
529.218	36980.85
529.419	37062.77
529.62	36870.26
529.822	36178.05
530.023	35784.84
530.224	35774.6
530.425	35391.63
530.626	34719.9
530.828	34259.1
531.029	34476.19
531.23	33638.57
531.431	33290.41
531.632	33314.99
531.833	33118.39
532.035	32641.21
532.236	32254.14
532.437	31762.63
532.638	31144.14
532.839	31101.14
533.04	30841.04
533.241	30038.24
533.442	30040.29
533.643	29499.62
533.844	29055.22
534.045	28969.2
534.246	28152.06
534.447	28088.57
534.648	27148.56
534.849	27201.8
535.05	26849.55
535.251	26597.65
535.451	26206.49
535.652	26183.96
535.853	25725.22
536.054	25207.08
536.255	24582.45
536.456	24289.59
536.657	24308.02
536.857	24144.19
537.058	23261.51
537.259	23331.14
537.46	22899.02
537.66	22397.27
537.861	22565.2
538.062	21741.92
538.263	21829.98
538.463	21444.96
538.664	21176.68
538.865	20742.51
539.065	20879.72
539.266	20251
539.466	20466.03
539.667	19792.25
539.868	19683.71
540.068	19585.41
540.269	19341.7
540.469	19376.51
540.67	18737.55
540.87	18422.16
541.071	18418.07
541.271	18119.06
541.472	17869.21
541.672	17654.17
541.873	17250.72
542.073	17068.45
542.274	17312.16
542.474	16818.6
542.675	16578.99
542.875	16806.31
543.075	16163.25
543.276	15968.69
543.476	16044.47
543.676	15696.32
543.877	15380.93
544.077	15702.46
544.277	15147.46
544.478	15145.41
544.678	14942.66
544.878	14916.04
545.078	14596.56
545.279	14399.95
545.479	14342.61
545.679	14223.83
545.879	13955.54
546.079	13865.43
546.28	13578.72
546.48	13281.76
546.68	13388.25
546.88	13212.13
547.08	13054.44
547.28	12657.13
547.48	12622.31
547.68	12630.51
547.88	12403.18
548.081	12378.61
548.281	11926
548.481	11796.98
548.681	11764.22
548.881	11516.41
549.081	11592.19
549.28	11241.98
549.48	11104.77
549.68	11311.61
549.88	10977.8
550.08	10533.39
550.28	10430.99
550.48	10615.3
550.68	10351.12
550.88	10113.55
551.08	10039.83
551.279	10097.17
551.479	9556.5
551.679	9583.13
551.879	9433.63
552.079	9277.98
552.278	9472.54
552.478	9183.77
552.678	8815.14
552.878	8733.22
553.077	8669.73
553.277	8448.55
553.477	8458.79
553.676	8223.28
553.876	8262.19
554.076	8038.96
554.275	7916.08
554.475	7557.69
554.674	7989.81
554.874	7545.4
555.074	7402.04
555.273	7250.49
555.473	7215.68
555.672	6963.78
555.872	6978.11
556.071	6918.72
556.271	6625.86
556.47	6744.64
556.67	6435.4
556.869	6402.63
557.068	6214.22
557.268	6195.79
557.467	6177.36
557.667	5939.79
557.866	5829.2
558.065	5806.67
558.265	5843.54
558.464	5653.08
558.663	5528.15
558.863	5288.54
559.062	5464.66
559.261	5059.17
559.461	5249.63
559.66	4840.03
559.859	4803.17
560.058	4958.81
560.258	4704.87
560.457	4815.46
560.656	4563.56
560.855	4541.03
561.054	4557.41
561.253	4387.43
561.453	4412.01
561.652	4282.99
561.851	4239.98
562.05	4047.47
562.249	4026.99
562.448	4137.58
562.647	4031.09
562.846	3889.78
563.045	3971.69
563.244	3816.05
563.443	3785.33
563.642	3594.87
563.841	3861.1
564.04	3654.26
564.239	3586.68
564.438	3469.94
564.637	3480.18
564.836	3408.5
565.035	3179.13
565.234	3285.62
565.432	3199.61
565.631	3187.32
565.83	3089.02
566.029	3058.3
566.228	3089.02
566.427	3013.24
566.625	2990.72
566.824	2900.61
567.023	2855.55
567.222	2761.34
567.42	2818.69
567.619	2693.76
567.818	2773.63
568.016	2751.1
568.215	2740.86
568.414	2652.8
568.612	2642.56
568.811	2574.98
569.01	2650.75
569.208	2392.71
569.407	2470.53
569.605	2361.99
569.804	2306.7
570.002	2402.95
570.201	2286.22
570.4	2318.98
570.598	2181.77
570.797	2062.99
570.995	2046.6
571.193	2065.04
571.392	1985.16
571.59	2093.71
571.789	2108.04
571.987	2024.08
572.186	2009.74
572.384	1870.48
572.582	1729.17
572.781	1999.5
572.979	1749.65
573.177	1829.52
573.376	1665.68
573.574	1766.03
573.772	1706.64
573.971	1612.43
574.169	1581.71
574.367	1659.54
574.565	1530.52
574.763	1585.81
574.962	1647.25
575.16	1577.62
575.358	1448.6
575.556	1561.23
575.754	1571.47
575.952	1391.25
576.151	1491.6
576.349	1413.78
576.547	1366.68
576.745	1460.88
576.943	1413.78
577.141	1295
577.339	1233.56
577.537	1346.2
577.735	1215.13
577.933	1305.24
578.131	1165.98
578.329	1247.9
578.527	1043.1
578.725	1159.83
578.923	1006.24
579.121	1122.97
579.319	1055.39
579.516	1098.39
579.714	1272.47
579.912	1065.63
580.11	930.46
580.308	1012.38
580.506	907.93
580.704	895.64
580.901	930.46
581.099	1028.76
581.297	936.6
581.495	998.04
581.692	883.36
581.89	1098.39
582.088	848.54
582.285	885.41
582.483	860.83
582.681	881.31
582.878	879.26
583.076	817.82
583.274	817.82
583.471	996
583.669	817.82
583.866	735.9
584.064	639.65
584.262	660.13
584.459	676.51
584.657	772.77
584.854	764.58
585.052	727.71
585.249	740
585.447	737.95
585.644	623.27
585.841	660.13
586.039	725.66
586.236	649.89
586.434	627.36
586.631	543.39
586.828	516.77
587.026	701.09
587.223	608.93
587.42	570.02
587.618	606.88
587.815	627.36
588.012	658.08
588.21	582.31
588.407	629.41
588.604	615.07
588.801	508.58
588.999	547.49
589.196	580.26
589.393	492.2
589.59	541.35
589.787	545.44
589.984	543.39
590.182	559.78
590.379	533.15
590.576	549.54
590.773	479.91
590.97	488.1
591.167	488.1
591.364	469.67
591.561	508.58
591.758	633.51
591.955	570.02
592.152	502.43
592.349	455.33
592.546	512.67
592.743	430.76
592.94	494.24
593.137	561.83
593.334	549.54
593.531	539.3
593.727	529.06
593.924	541.35
594.121	430.76
594.318	463.52
594.515	551.59
594.712	567.97
594.908	617.12
595.105	404.13
595.302	533.15
595.499	504.48
595.696	676.51
595.892	496.29
596.089	623.27
596.286	547.49
596.482	623.27
596.679	578.21
596.876	488.1
597.072	678.56
597.269	586.4
597.466	553.63
597.662	619.17
597.859	602.79
598.055	664.22
598.252	668.32
598.448	754.34
598.645	848.54
598.841	750.24
599.038	912.03
599.234	934.56
599.431	918.17
599.627	903.84
599.824	991.9
600.02	1075.87
600.217	1092.25
600.413	979.61
600.609	1032.86
600.806	1340.05
601.002	1247.9
601.198	1151.64
601.395	1321.62
601.591	1258.14
601.787	1409.69
601.984	1544.85
602.18	1491.6
602.376	1548.95
602.572	1671.83
602.769	1763.98
602.965	1649.3
603.161	1716.88
603.357	1864.33
603.553	1895.05
603.75	1888.91
603.946	2009.74
604.142	2062.99
604.338	2280.07
604.534	2085.51
604.73	2220.68
604.926	2357.89
605.122	2634.37
605.318	2437.77
605.514	2587.27
605.71	2630.27
605.906	2830.98
606.102	2867.84
606.298	3064.44
606.494	3050.11
606.69	3226.23
606.886	3185.27
607.082	3252.86
607.278	3347.06
607.474	3428.98
607.67	3719.79
607.866	3650.16
608.062	3920.49
608.257	3744.37
608.453	3947.12
608.649	4139.63
608.845	4158.06
609.041	4256.36
609.236	4371.05
609.432	4600.42
609.628	4762.21
609.824	4821.6
610.019	4876.9
610.215	4919.9
610.411	5401.18
610.606	5495.38
610.802	5378.65
610.998	5718.61
611.193	5745.23
611.389	5917.26
611.584	6050.38
611.78	6146.64
611.976	6197.84
612.171	6783.56
612.367	6750.79
612.562	6943.3
612.758	7041.6
612.953	7002.69
613.149	7369.27
613.344	7600.69
613.539	7922.23
613.735	8028.72
613.93	8456.75
614.126	8542.76
614.321	8712.74
614.517	9112.1
614.712	9155.1
614.907	9218.59
615.103	9773.59
615.298	9873.94
615.493	10252.81
615.688	10240.53
615.884	10703.37
616.079	10717.7
616.274	11186.69
616.47	11323.9
616.665	11442.68
616.86	11983.35
617.055	12419.57
617.25	12288.5
617.445	13062.63
617.641	12968.42
617.836	13545.95
618.031	13740.5
618.226	14088.66
618.421	14551.5
618.616	14965.19
618.811	15208.9
619.006	15716.79
619.201	15620.54
619.396	15962.55
619.591	16216.5
619.786	17072.55
619.981	17164.71
620.176	17762.72
620.371	17572.25
620.566	18463.12
620.761	18676.11
620.956	19220.87
621.151	19396.99
621.346	19992.95
621.541	20038.01
621.735	20482.42
621.93	20715.89
622.125	21027.18
622.32	21383.52
622.515	22020.44
622.709	22264.15
622.904	22653.26
623.099	22823.25
623.294	23636.29
623.488	23597.38
623.683	24303.93
623.878	24273.21
624.072	25354.54
624.267	25688.35
624.462	25884.96
624.656	26183.96
624.851	26759.44
625.046	26980.62
625.24	27746.56
625.435	27730.18
625.629	28133.63
625.824	28500.22
626.018	28915.95
626.213	28688.63
626.407	29706.47
626.602	29708.52
626.796	30111.97
626.991	30585.05
627.185	30453.98
627.38	30918.87
627.574	31166.67
627.768	31105.23
627.963	31207.63
628.157	31387.85
628.352	31938.76
628.546	31578.31
628.74	32078.02
628.935	31402.19
629.129	31774.92
629.323	31496.39
629.517	31342.8
629.712	31267.02
629.906	31287.5
630.1	30499.03
630.294	30820.56
630.489	30542.04
630.683	29872.35
630.877	29415.66
631.071	28938.48
631.265	28899.57
631.459	28000.51
631.653	27631.88
631.848	27068.69
632.042	26112.28
632.236	25876.77
632.43	25006.38
632.624	24369.46
632.818	23660.87
633.012	23191.88
633.206	22182.23
633.4	21621.09
633.594	20777.33
633.788	20281.72
633.982	19683.71
634.176	18887.05
634.369	18239.89
634.563	17703.32
634.757	16730.54
634.951	16574.89
635.145	15753.66
635.339	14961.09
635.533	14402
635.726	13930.97
635.92	13335.01
636.114	12784.1
636.308	12276.21
636.501	11831.8
636.695	11315.71
636.889	10932.74
637.083	10187.28
637.276	9964.05
637.47	9570.84
637.664	8989.22
637.857	8827.43
638.051	8538.66
638.244	8188.46
638.438	7729.72
638.632	7574.07
638.825	7205.44
639.019	6793.8
639.212	6558.28
639.406	6521.42
639.599	6193.74
639.793	5847.63
639.986	5552.73
640.18	5526.1
640.373	5309.02
640.567	5071.45
640.76	4852.32
640.954	4698.72
641.147	4442.73
641.34	4192.87
641.534	4102.76
641.727	3947.12
641.92	4123.24
642.114	3768.95
642.307	3515
642.5	3517.05
642.694	3236.47
642.887	3115.64
643.08	3156.6
643.273	2976.38
643.467	2892.41
643.66	2706.05
643.853	2552.45
644.046	2560.64
644.239	2384.52
644.432	2304.65
644.626	2103.95
644.819	2138.76
645.012	2085.51
645.205	1954.44
645.398	2105.99
645.591	1823.37
645.784	1637.01
645.977	1700.5
646.17	1649.3
646.363	1579.67
646.556	1602.19
646.749	1395.35
646.942	1333.91
647.135	1399.45
647.328	1338.01
647.521	1190.55
647.714	1270.42
647.907	1176.22
648.099	1049.24
648.292	1114.78
648.485	971.42
648.678	1028.76
648.871	869.02
649.064	1004.19
649.256	864.93
649.449	875.17
649.642	733.86
649.835	801.44
650.027	666.27
650.22	772.77
650.413	737.95
650.605	758.43
650.798	584.35
650.991	563.87
651.183	684.7
651.376	670.37
651.568	629.41
651.761	529.06
651.954	600.74
652.146	467.62
652.339	631.46
652.531	479.91
652.724	428.71
652.916	436.9
653.109	285.35
653.301	545.44
653.494	479.91
653.686	359.08
653.879	488.1
654.071	420.52
654.263	387.75
654.456	279.21
654.648	438.95
654.84	408.23
655.033	316.07
655.225	375.46
655.417	242.34
655.61	424.61
655.802	371.37
655.994	377.51
656.186	242.34
656.379	287.4
656.571	250.53
656.763	234.15
656.955	144.04
657.148	221.86
657.34	330.41
657.532	258.73
657.724	307.88
657.916	223.91
658.108	228.01
658.3	240.3
658.492	228.01
658.684	209.58
658.876	232.1
659.068	152.23
659.26	62.12
659.452	121.51
659.644	246.44
659.836	334.5
660.028	152.23
660.22	148.14
660.412	207.53
660.604	172.71
660.796	172.71
660.988	207.53
661.18	117.42
661.372	176.81
661.563	119.46
661.755	189.1
661.947	111.27
662.139	164.52
662.331	189.1
662.522	162.47
662.714	103.08
662.906	66.22
663.097	127.66
663.289	78.51
663.481	17.07
663.673	107.18
663.864	88.75
664.056	62.12
664.247	96.94
664.439	266.92
664.631	152.23
664.822	182.95
665.014	107.18
665.205	19.11
665.397	166.57
665.588	133.8
665.78	25.26
665.971	70.31
666.163	152.23
666.354	131.75
666.546	109.23
666.737	158.38
666.929	98.99
667.12	25.26
667.311	156.33
667.503	178.86
667.694	66.22
667.885	127.66
668.077	201.38
668.268	31.4
668.459	133.8
668.651	207.53
668.842	86.7
669.033	33.45
669.224	27.31
669.416	291.49
669.607	35.5
669.798	10.92
669.989	225.96
670.18	76.46
670.371	187.05
670.563	86.7
670.754	156.33
670.945	115.37
671.136	33.45
671.327	82.6
671.518	160.42
671.709	209.58
671.9	168.62
672.091	197.29
672.282	109.23
672.473	98.99
672.664	78.51
672.855	127.66
673.046	117.42
673.237	160.42
673.428	35.5
673.619	127.66
673.809	39.59
674	154.28
674.191	111.27
674.382	119.46
674.573	166.57
674.764	101.03
674.954	207.53
675.145	70.31
675.336	84.65
675.527	94.89
675.717	76.46
675.908	101.03
676.099	113.32
676.289	139.94
676.48	45.74
676.671	174.76
676.861	92.84
677.052	236.2
677.243	55.98
677.433	94.89
677.624	193.19
677.814	172.71
678.005	131.75
678.195	141.99
678.386	70.31
678.576	137.9
678.767	23.21
678.957	141.99
679.148	164.52
679.338	201.38
679.529	105.13
679.719	144.04
679.909	215.72
680.1	119.46
680.29	150.18
680.481	-19.8
680.671	195.24
680.861	119.46
681.052	152.23
681.242	133.8
681.432	131.75
681.622	144.04
681.813	78.51
682.003	55.98
682.193	131.75
682.383	111.27
682.573	76.46
682.764	129.7
682.954	117.42
683.144	156.33
683.334	178.86
683.524	127.66
683.714	176.81
683.904	189.1
684.094	117.42
684.284	164.52
684.474	211.62
684.664	182.95
684.854	213.67
685.044	189.1
685.234	121.51
685.424	98.99
685.614	146.09
685.804	283.3
685.994	197.29
686.184	137.9
686.374	217.77
686.564	207.53
686.753	271.01
686.943	125.61
687.133	139.94
687.323	123.56
687.513	189.1
687.702	164.52
687.892	160.42
688.082	271.01
688.272	246.44
688.461	185
688.651	254.63
688.841	201.38
689.03	125.61
689.22	185
689.41	176.81
689.599	256.68
689.789	189.1
689.979	232.1
690.168	150.18
690.358	252.58
690.547	209.58
690.737	244.39
690.926	174.76
691.116	213.67
691.305	246.44
691.495	262.82
691.684	66.22
691.874	148.14
692.063	168.62
692.252	174.76
692.442	275.11
692.631	133.8
692.82	146.09
693.01	213.67
693.199	148.14
693.388	139.94
693.578	94.89
693.767	170.66
693.956	215.72
694.146	115.37
694.335	221.86
694.524	129.7
694.713	240.3
694.902	178.86
695.092	127.66
695.281	144.04
695.47	172.71
695.659	101.03
695.848	125.61
696.037	111.27
696.226	209.58
696.415	137.9
696.604	277.16
696.793	176.81
696.982	146.09
697.171	197.29
697.36	133.8
697.549	141.99
697.738	53.93
697.927	80.55
698.116	17.07
698.305	180.9
698.494	160.42
698.683	133.8
698.872	207.53
699.061	172.71
699.25	127.66
699.438	129.7
699.627	133.8
699.816	242.34
700.005	72.36
700.193	35.5
700.382	199.34
700.571	193.19
700.76	115.37
700.948	225.96
701.137	131.75
701.326	205.48
701.514	156.33
701.703	133.8
701.892	230.06
702.08	266.92
702.269	238.25
702.457	113.32
702.646	166.57
702.834	139.94
703.023	178.86
703.212	254.63
703.4	193.19
703.589	178.86
703.777	98.99
703.965	78.51
704.154	187.05
704.342	74.41
704.531	135.85
704.719	162.47
704.907	160.42
705.096	70.31
705.284	156.33
705.472	111.27
705.661	152.23
705.849	174.76
706.037	217.77
706.226	133.8
706.414	185
706.602	137.9
706.79	254.63
706.979	105.13
707.167	133.8
707.355	123.56
707.543	193.19
707.731	141.99
707.919	66.22
708.107	234.15
708.296	60.07
708.484	25.26
708.672	144.04
708.86	189.1
709.048	109.23
709.236	131.75
709.424	121.51
709.612	199.34
709.8	117.42
709.988	115.37
710.176	291.49
710.364	260.77
710.551	133.8
710.739	139.94
710.927	154.28
711.115	154.28
711.303	230.06
711.491	309.93
711.679	92.84
711.866	189.1
712.054	103.08
712.242	96.94
712.43	279.21
712.617	47.79
712.805	228.01
712.993	105.13
713.181	90.79
713.368	213.67
713.556	111.27
713.744	41.64
713.931	291.49
714.119	168.62
714.306	88.75
714.494	123.56
714.682	174.76
714.869	115.37
715.057	193.19
715.244	21.16
715.432	234.15
715.619	141.99
715.807	119.46
715.994	109.23
716.182	125.61
716.369	234.15
716.556	205.48
716.744	146.09
716.931	141.99
717.119	182.95
717.306	207.53
717.493	209.58
717.681	213.67
717.868	180.9
718.055	172.71
718.242	168.62
718.43	168.62
718.617	232.1
718.804	139.94
718.991	338.6
719.179	242.34
719.366	215.72
719.553	141.99
719.74	205.48
719.927	187.05
720.114	225.96
720.301	144.04
720.488	123.56
720.676	187.05
720.863	295.59
721.05	197.29
721.237	180.9
721.424	260.77
721.611	205.48
721.798	111.27
721.985	152.23
722.172	209.58
722.358	168.62
722.545	197.29
722.732	211.62
722.919	295.59
723.106	289.45
723.293	111.27
723.48	133.8
723.667	168.62
723.853	205.48
724.04	232.1
724.227	230.06
724.414	232.1
724.6	271.01
724.787	273.06
724.974	250.53
725.161	144.04
725.347	180.9
725.534	209.58
725.72	223.91
725.907	248.49
726.094	119.46
726.28	197.29
726.467	195.24
726.653	172.71
726.84	271.01
727.027	258.73
727.213	199.34
727.4	285.35
727.586	195.24
727.773	176.81
727.959	185
728.145	152.23
728.332	221.86
728.518	182.95
728.705	238.25
728.891	234.15
729.077	234.15
729.264	185
729.45	238.25
729.636	322.21
729.823	271.01
730.009	234.15
730.195	262.82
730.382	279.21
730.568	144.04
730.754	283.3
730.94	273.06
731.126	201.38
731.313	348.84
731.499	230.06
731.685	277.16
731.871	289.45
732.057	307.88
732.243	281.25
732.429	359.08
732.615	314.02
732.801	322.21
732.987	256.68
733.173	191.14
733.359	193.19
733.545	283.3
733.731	197.29
733.917	299.69
734.103	281.25
734.289	225.96
734.475	260.77
734.661	391.84
734.847	311.97
735.033	248.49
735.219	299.69
735.404	248.49
735.59	297.64
735.776	254.63
735.962	244.39
736.148	260.77
736.333	314.02
736.519	332.45
736.705	305.83
736.89	228.01
737.076	178.86
737.262	221.86
737.447	211.62
737.633	299.69
737.819	377.51
738.004	223.91
738.19	246.44
738.375	342.69
738.561	311.97
738.747	322.21
738.932	250.53
739.118	350.89
739.303	320.17
739.489	295.59
739.674	144.04
739.859	178.86
740.045	348.84
740.23	225.96
740.416	164.52
740.601	289.45
740.786	266.92
740.972	250.53
741.157	168.62
741.342	201.38
741.528	148.14
741.713	330.41
741.898	234.15
742.084	311.97
742.269	275.11
742.454	264.87
742.639	287.4
742.824	283.3
743.01	334.5
743.195	354.98
743.38	291.49
743.565	213.67
743.75	262.82
743.935	338.6
744.12	320.17
744.305	219.82
744.49	211.62
744.675	275.11
744.86	191.14
745.045	275.11
745.23	225.96
745.415	234.15
745.6	285.35
745.785	178.86
745.97	330.41
746.155	307.88
746.34	367.27
746.525	244.39
746.71	291.49
746.895	172.71
747.079	225.96
747.264	279.21
747.449	225.96
747.634	230.06
747.819	242.34
748.003	221.86
748.188	187.05
748.373	307.88
748.557	299.69
748.742	246.44
748.927	225.96
749.111	266.92
749.296	189.1
749.481	324.26
749.665	215.72
749.85	170.66
750.034	250.53
750.219	219.82
750.404	242.34
750.588	166.57
750.773	176.81
750.957	240.3
751.141	168.62
751.326	271.01
751.51	111.27
751.695	158.38
751.879	271.01
752.064	281.25
752.248	191.14
752.432	275.11
752.617	242.34
752.801	271.01
752.985	185
753.17	242.34
753.354	238.25
753.538	234.15
753.722	246.44
753.907	137.9
754.091	170.66
754.275	193.19
754.459	105.13
754.643	158.38
754.828	160.42
755.012	152.23
755.196	74.41
755.38	238.25
755.564	230.06
755.748	215.72
755.932	242.34
756.116	105.13
756.3	187.05
756.484	119.46
756.668	256.68
756.852	103.08
757.036	180.9
757.22	160.42
757.404	127.66
757.588	144.04
757.772	117.42
757.956	160.42
758.14	268.97
758.323	62.12
758.507	217.77
758.691	148.14
758.875	191.14
759.059	164.52
759.242	94.89
759.426	82.6
759.61	185
759.794	98.99
759.977	232.1
760.161	320.17
760.345	189.1
760.528	205.48
760.712	211.62
760.895	252.58
761.079	144.04
761.263	62.12
761.446	94.89
761.63	129.7
761.813	238.25
761.997	27.31
762.18	88.75
762.364	119.46
762.547	-54.61
762.731	152.23
762.914	109.23
763.098	70.31
763.281	133.8
763.464	152.23
763.648	137.9
763.831	133.8
764.015	103.08
764.198	164.52
764.381	139.94
764.564	162.47
764.748	127.66
764.931	135.85
765.114	101.03
765.297	156.33
765.481	-3.41
765.664	160.42
765.847	113.32
766.03	217.77
766.213	29.35
766.397	105.13
766.58	43.69
766.763	107.18
766.946	62.12
767.129	60.07
767.312	-15.7
767.495	133.8
767.678	94.89
767.861	107.18
768.044	53.93
768.227	94.89
768.41	148.14
768.593	111.27
768.776	66.22
768.959	94.89
769.142	182.95
769.324	10.92
769.507	70.31
769.69	121.51
769.873	103.08
770.056	283.3
770.239	21.16
770.421	117.42
770.604	119.46
770.787	27.31
770.97	152.23
771.152	70.31
771.335	187.05
771.518	-13.65
771.7	152.23
771.883	127.66
772.066	74.41
772.248	187.05
772.431	121.51
772.613	144.04
772.796	45.74
772.978	96.94
773.161	185
773.343	41.64
773.526	43.69
773.708	29.35
773.891	-23.89
774.073	-7.51
774.256	-32.08
774.438	158.38
774.621	15.02
774.803	35.5
774.985	6.83
775.168	94.89
775.35	101.03
775.532	139.94
775.715	78.51
775.897	96.94
776.079	101.03
776.261	182.95
776.444	53.93
776.626	39.59
776.808	88.75
776.99	17.07
777.173	-19.8
777.355	27.31
777.537	-3.41
777.719	103.08
777.901	49.83
778.083	-13.65
778.265	10.92
778.447	131.75
778.629	21.16
778.811	51.88
778.993	152.23
779.175	88.75
779.357	39.59
779.539	4.78
779.721	0.68
779.903	84.65
780.085	-25.94
780.267	144.04
780.449	27.31
780.631	35.5
780.812	144.04
780.994	94.89
781.176	68.27
781.358	6.83
781.54	21.16
781.721	103.08
781.903	53.93
782.085	17.07
782.267	127.66
782.448	-3.41
782.63	15.02
782.812	139.94
782.993	60.07
783.175	37.55
783.357	47.79
783.538	12.97
783.72	37.55
783.901	-36.18
784.083	103.08
784.264	45.74
784.446	43.69
784.627	-3.41
784.809	78.51
784.99	70.31
785.172	78.51
785.353	-15.7
785.535	-36.18
785.716	10.92
785.897	41.64
786.079	39.59
786.26	152.23
786.441	58.03
786.623	31.4
786.804	-7.51
786.985	37.55
787.167	78.51
787.348	12.97
787.529	88.75
787.71	258.73
787.891	72.36
788.073	49.83
788.254	-7.51
788.435	176.81
788.616	49.83
788.797	-11.61
788.978	53.93
789.159	-21.84
789.34	105.13
789.522	51.88
789.703	53.93
789.884	4.78
790.065	-9.56
790.246	123.56
790.427	0.68
790.607	53.93
790.788	109.23
790.969	4.78
791.15	68.27
791.331	-58.71
791.512	29.35
791.693	-52.56
791.874	-19.8
792.054	160.42
792.235	60.07
792.416	-21.84
792.597	31.4
792.778	96.94
792.958	49.83
793.139	60.07
793.32	107.18
793.5	-79.19
793.681	98.99
793.862	25.26
794.042	49.83
794.223	-107.86
794.404	-13.65
794.584	-36.18
794.765	-11.61
794.945	6.83
795.126	-7.51
795.306	51.88
795.487	33.45
795.667	8.87
795.848	-23.89
796.028	4.78
796.209	78.51
796.389	78.51
796.57	-11.61
796.75	-52.56
796.93	12.97
797.111	-27.99
797.291	-15.7
797.471	-7.51
797.652	8.87
797.832	-13.65
798.012	31.4
798.192	-30.04
798.373	-54.61
798.553	37.55
798.733	115.37
798.913	-56.66
799.093	23.21
799.274	8.87
799.454	78.51
799.634	98.99
799.814	19.11
799.994	41.64
800.174	29.35
800.354	-46.42
800.534	-97.62
800.714	55.98
800.894	-60.76
801.074	-62.8
801.254	17.07
801.434	88.75
801.614	-21.84
801.794	-9.56
801.974	1598.1
802.154	-34.13
802.334	107.18
802.514	-23.89
802.693	-38.23
802.873	-38.23
803.053	160.42
803.233	29.35
803.413	78.51
803.592	-32.08
803.772	-103.76
803.952	-13.65
804.131	-36.18
804.311	58.03
804.491	43.69
804.67	-60.76
804.85	-50.52
805.03	17.07
805.209	45.74
805.389	10.92
805.568	-87.38
805.748	29.35
805.928	33.45
806.107	0.68
806.287	17.07
806.466	121.51
806.646	19.11
806.825	-68.95
807.004	-21.84
807.184	86.7
807.363	-32.08
807.543	-23.89
807.722	-73.04
807.901	51.88
808.081	27.31
808.26	-138.58
808.439	84.65
808.619	4.78
808.798	-46.42
808.977	2.73
809.156	64.17
809.336	39.59
809.515	58.03
809.694	27.31
809.873	-44.37
810.052	6.83
810.231	21.16
810.411	47.79
810.59	94.89
810.769	37.55
810.948	51.88
811.127	-54.61
811.306	-54.61
811.485	-40.28
811.664	103.08
811.843	6.83
812.022	-11.61
812.201	-1.37
812.38	23.21
812.559	-15.7
812.737	37.55
812.916	-103.76
813.095	-52.56
813.274	17.07
813.453	8.87
813.632	47.79
813.811	12.97
813.989	-83.28
814.168	37.55
814.347	-93.52
814.526	31.4
814.704	49.83
814.883	105.13
815.062	-79.19
815.24	-27.99
815.419	78.51
815.598	-23.89
815.776	-52.56
815.955	19.11
816.133	-27.99
816.312	-58.71
816.49	-81.24
816.669	27.31
816.847	-11.61
817.026	58.03
817.204	39.59
817.383	-42.32
817.561	-19.8
817.74	-68.95
817.918	-5.46
818.097	-52.56
818.275	-36.18
818.453	43.69
818.632	-27.99
818.81	27.31
818.988	-17.75
819.167	-17.75
819.345	-15.7
819.523	-62.8
819.701	82.6
819.879	90.79
820.058	19.11
820.236	-44.37
820.414	10.92
820.592	-93.52
820.77	29.35
820.948	6.83
821.127	-62.8
821.305	-44.37
821.483	10.92
821.661	82.6
821.839	2.73
822.017	-52.56
822.195	-46.42
822.373	-1.37
822.551	-48.47
822.729	98.99
822.907	-46.42
823.085	-11.61
823.262	25.26
823.44	-71
823.618	10.92
823.796	19.11
823.974	8.87
824.152	-30.04
824.329	21.16
824.507	8.87
824.685	35.5
824.863	0.68
825.04	10.92
825.218	31.4
825.396	49.83
825.574	41.64
825.751	-13.65
825.929	-13.65
826.107	-68.95
826.284	-11.61
826.462	35.5
826.639	-21.84
826.817	-36.18
826.994	72.36
827.172	-27.99
827.349	45.74
827.527	-9.56
827.704	62.12
827.882	41.64
828.059	-52.56
828.237	-62.8
828.414	55.98
828.591	-126.29
828.769	-60.76
828.946	-64.85
829.124	80.55
829.301	66.22
829.478	-46.42
829.655	70.31
829.833	21.16
830.01	-95.57
830.187	12.97
830.364	-11.61
830.542	-32.08
830.719	139.94
830.896	37.55
831.073	70.31
831.25	-5.46
831.427	35.5
831.604	-11.61
831.782	21.16
831.959	0.68
832.136	-91.48
832.313	-5.46
832.49	-21.84
832.667	-5.46
832.844	-101.72
833.021	62.12
833.198	23.21
833.374	31.4
833.551	21.16
833.728	68.27
833.905	139.94
834.082	-105.81
834.259	47.79
834.436	115.37
834.612	-48.47
834.789	66.22
834.966	-68.95
835.143	-5.46
835.319	-66.9
835.496	78.51
835.673	80.55
835.85	60.07
836.026	92.84
836.203	21.16
836.38	12.97
836.556	-15.7
836.733	-54.61
836.909	27.31
837.086	-56.66
837.262	-91.48
837.439	-89.43
837.616	-15.7
837.792	-30.04
837.968	15.02
838.145	-13.65
838.321	-30.04
838.498	-30.04
838.674	90.79
838.851	-7.51
839.027	-32.08
839.203	-11.61
839.38	92.84
839.556	-177.49
839.732	27.31
839.909	19.11
840.085	27.31
840.261	-85.33
840.437	-5.46
840.614	-5.46
840.79	33.45
840.966	15.02
841.142	4.78
841.318	-32.08
841.494	-54.61
841.671	12.97
841.847	-52.56
842.023	-87.38
842.199	33.45
842.375	111.27
842.551	-173.39
842.727	-15.7
842.903	80.55
843.079	-79.19
843.255	60.07
843.431	31.4
843.607	-32.08
843.783	-48.47
843.959	-1.37
844.134	-89.43
844.31	103.08
844.486	-66.9
844.662	-144.72
844.838	-11.61
845.013	39.59
845.189	47.79
845.365	12.97
845.541	-11.61
845.716	29.35
845.892	82.6
846.068	-109.91
846.244	-38.23
846.419	-27.99
846.595	-71
846.77	-93.52
846.946	49.83
847.122	-9.56
847.297	-64.85
847.473	162.47
847.648	-19.8
847.824	39.59
847.999	-89.43
848.175	-42.32
848.35	-19.8
848.526	4.78
848.701	27.31
848.876	-15.7
849.052	-3.41
849.227	0.68
849.403	-7.51
849.578	-30.04
849.753	-44.37
849.929	72.36
850.104	-71
850.279	-3.41
850.454	-11.61
850.63	-3.41
850.805	-21.84
850.98	-3.41
851.155	47.79
851.33	8.87
851.505	-52.56
851.681	86.7
851.856	-32.08
852.031	-3.41
852.206	-1.37
852.381	-83.28
852.556	-3.41
852.731	23.21
852.906	29.35
853.081	58.03
853.256	78.51
853.431	-9.56
853.606	-138.58
853.781	-50.52
853.956	-73.04
854.131	-64.85
854.305	-52.56
854.48	-17.75
854.655	-27.99
854.83	-32.08
855.005	23.21
855.18	-25.94
855.354	-68.95
855.529	21.16
855.704	2.73
855.879	39.59
856.053	-46.42
856.228	39.59
856.403	-56.66
856.577	-46.42
856.752	-107.86
856.926	-48.47
857.101	-32.08
857.276	-46.42
857.45	-66.9
857.625	62.12
857.799	47.79
857.974	-1.37
858.148	-81.24
858.323	-54.61
858.497	-71
858.672	-64.85
858.846	-7.51
859.02	-30.04
859.195	-68.95
859.369	29.35
859.543	-15.7
859.718	-11.61
859.892	35.5
860.066	-32.08
860.241	-60.76
860.415	-42.32
860.589	-27.99
860.763	-54.61
860.938	12.97
861.112	-27.99
861.286	-11.61
861.46	4.78
861.634	0.68
861.808	-25.94
861.982	-66.9
862.157	-71
862.331	-126.29
862.505	-111.96
862.679	-71
862.853	-30.04
863.027	-36.18
863.201	74.41
863.375	27.31
863.549	29.35
863.722	-40.28
863.896	29.35
864.07	-95.57
864.244	-85.33
864.418	58.03
864.592	76.46
864.766	-44.37
864.939	-3.41
865.113	-44.37
865.287	70.31
865.461	-19.8
865.634	-11.61
865.808	-38.23
865.982	-40.28
866.156	-54.61
866.329	-58.71
866.503	47.79
866.676	-3.41
866.85	29.35
867.024	-25.94
867.197	60.07
867.371	98.99
867.544	-17.75
867.718	-138.58
867.891	37.55
868.065	-66.9
868.238	-7.51
868.412	29.35
868.585	10.92
868.759	17.07
868.932	-34.13
869.105	-91.48
869.279	4.78
869.452	-93.52
869.625	17.07
869.799	-15.7
869.972	-73.04
870.145	-15.7
870.319	-19.8
870.492	-87.38
870.665	-85.33
870.838	-23.89
871.011	-175.44
871.185	-109.91
871.358	-85.33
871.531	29.35
871.704	-25.94
871.877	29.35
872.05	-34.13
872.223	-118.1
872.396	-13.65
872.569	33.45
872.742	-42.32
872.915	0.68
873.088	-50.52
873.261	-52.56
873.434	-44.37
873.607	-36.18
873.78	86.7
873.953	-34.13
874.126	8.87
874.299	2.73
874.471	-81.24
874.644	-64.85
874.817	-27.99
874.99	117.42
875.163	-40.28
875.335	-32.08
875.508	-19.8
875.681	103.08
875.853	4.78
876.026	-42.32
876.199	27.31
876.371	29.35
876.544	-40.28
876.717	23.21
876.889	-73.04
877.062	-46.42
877.234	-19.8
877.407	-25.94
877.579	-23.89
877.752	-5.46
877.924	12.97
878.097	-30.04
878.269	-42.32
878.442	-32.08
878.614	27.31
878.786	62.12
878.959	37.55
879.131	35.5
879.303	-101.72
879.476	-1.37
879.648	29.35
879.82	10.92
879.993	-48.47
880.165	17.07
880.337	-64.85
880.509	-13.65
880.681	-85.33
880.854	-85.33
881.026	76.46
881.198	98.99
881.37	-27.99
881.542	10.92
881.714	-27.99
881.886	-46.42
882.058	-5.46
882.23	-36.18
882.402	-17.75
882.574	0.68
882.746	62.12
882.918	31.4
883.09	35.5
883.262	-48.47
883.434	-30.04
883.606	-54.61
883.778	35.5
883.95	94.89
884.122	-81.24
884.293	101.03
884.465	15.02
884.637	60.07
884.809	-36.18
884.98	39.59
885.152	-7.51
885.324	86.7
885.496	-77.14
885.667	-54.61
885.839	-44.37
886.011	109.23
886.182	-23.89
886.354	-17.75
886.525	4.78
886.697	-19.8
886.869	-75.09
887.04	-71
887.212	74.41
887.383	107.18
887.555	-44.37
887.726	-27.99
887.897	2.73
888.069	-11.61
888.24	-3.41
888.412	-73.04
888.583	-15.7
888.754	10.92
888.926	-52.56
889.097	-32.08
889.268	-71
889.44	17.07
889.611	-126.29
889.782	-56.66
889.953	-64.85
890.125	49.83
890.296	-40.28
890.467	-48.47
890.638	-103.76
890.809	47.79
890.98	-52.56
891.151	-7.51
891.323	74.41
891.494	-73.04
891.665	-27.99
891.836	-81.24
892.007	-11.61
892.178	64.17
892.349	2.73
892.52	-1.37
892.691	-13.65
892.862	-79.19
893.032	-77.14
893.203	-44.37
893.374	-17.75
893.545	53.93
893.716	-38.23
893.887	0.68
894.057	-62.8
894.228	-36.18
894.399	37.55
894.57	21.16
894.74	78.51
894.911	53.93
895.082	-56.66
895.253	-50.52
895.423	19.11
895.594	53.93
895.764	31.4
895.935	-56.66
896.106	62.12
896.276	21.16
896.447	47.79
896.617	43.69
896.788	-122.2
896.958	-34.13
897.129	-42.32
897.299	-21.84
897.47	29.35
897.64	82.6
897.81	-32.08
897.981	70.31
898.151	-120.15
898.322	-62.8
898.492	6.83
898.662	-89.43
898.832	-27.99
899.003	-101.72
899.173	8.87
899.343	-30.04
899.513	-118.1
