Data from USB4F104151__22__11-24-41-706.txt Node

Date: Wed Feb 26 11:24:41 EST 2025
User: louis
Spectrometer: USB4F10415
Trigger mode: 4
Integration Time (sec): 1.000000E-1
Scans to average: 1
Electric dark correction enabled: true
Nonlinearity correction enabled: false
Boxcar width: 0
XAxis mode: Wavelengths
Number of Pixels in Spectrum: 3648
>>>>>Begin Spectral Data<<<<<
178.204	-395.26
178.424	-395.26
178.644	-395.26
178.864	-387.07
179.084	-417.79
179.304	-8.19
179.524	-16.38
179.744	18.43
179.964	16.38
180.184	26.62
180.404	63.49
180.624	26.62
180.844	-8.19
181.064	-77.82
181.283	-43.01
181.503	-57.34
181.723	59.39
181.943	-69.63
182.163	174.08
182.383	-77.82
182.602	38.91
182.822	137.21
183.042	51.2
183.262	59.39
183.482	0
183.701	0
183.921	-4.1
184.141	4.1
184.361	96.25
184.58	55.3
184.8	55.3
185.02	30.72
185.239	53.25
185.459	24.58
185.679	114.69
185.898	-71.68
186.118	77.82
186.338	40.96
186.557	106.49
186.777	-104.45
186.997	0
187.216	4.1
187.436	176.13
187.655	61.44
187.875	79.87
188.095	88.06
188.314	110.59
188.534	104.45
188.753	-43.01
188.973	137.21
189.192	157.69
189.412	65.54
189.631	4.1
189.851	-65.53
190.07	137.21
190.29	-57.34
190.509	-12.29
190.729	-43.01
190.948	51.2
191.168	198.65
191.387	88.06
191.607	-16.38
191.826	73.73
192.045	63.49
192.265	49.15
192.484	28.67
192.704	49.15
192.923	-65.53
193.142	219.13
193.362	88.06
193.581	161.79
193.8	6.14
194.02	75.77
194.239	45.06
194.458	139.26
194.678	8.19
194.897	2.05
195.116	69.63
195.335	-18.43
195.555	53.25
195.774	18.43
195.993	32.77
196.212	6.14
196.432	-43.01
196.651	-34.82
196.87	59.39
197.089	249.85
197.308	147.45
197.528	-12.29
197.747	0
197.966	49.15
198.185	126.97
198.404	-28.67
198.623	208.89
198.842	86.01
199.062	65.54
199.281	90.11
199.5	114.69
199.719	61.44
199.938	26.62
200.157	96.25
200.376	75.77
200.595	131.07
200.814	53.25
201.033	-69.63
201.252	143.36
201.471	77.82
201.69	79.87
201.909	110.59
202.128	167.93
202.347	8.19
202.566	73.73
202.785	-98.3
203.004	26.62
203.223	329.72
203.442	30.72
203.661	-108.54
203.879	45.06
204.098	108.54
204.317	73.73
204.536	167.93
204.755	133.12
204.974	90.11
205.193	-4.1
205.411	120.83
205.63	2.05
205.849	53.25
206.068	-2.05
206.287	-45.06
206.505	129.02
206.724	20.48
206.943	10.24
207.162	-30.72
207.381	14.34
207.599	-40.96
207.818	38.91
208.037	-38.91
208.255	20.48
208.474	75.77
208.693	18.43
208.911	8.19
209.13	-6.14
209.349	92.16
209.567	100.35
209.786	-12.29
210.005	100.35
210.223	-36.86
210.442	-71.68
210.661	-22.53
210.879	-55.3
211.098	75.77
211.316	28.67
211.535	83.97
211.753	28.67
211.972	79.87
212.191	51.2
212.409	12.29
212.628	114.69
212.846	-12.29
213.065	-14.34
213.283	106.49
213.502	61.44
213.72	77.82
213.938	30.72
214.157	10.24
214.375	169.98
214.594	71.68
214.812	114.69
215.031	49.15
215.249	-8.19
215.467	14.34
215.686	26.62
215.904	73.73
216.122	98.3
216.341	90.11
216.559	49.15
216.778	143.36
216.996	147.45
217.214	22.53
217.432	-38.91
217.651	-20.48
217.869	24.58
218.087	-8.19
218.306	2.05
218.524	28.67
218.742	22.53
218.96	63.49
219.179	-8.19
219.397	-69.63
219.615	286.72
219.833	131.07
220.051	2.05
220.27	75.77
220.488	124.93
220.706	43.01
220.924	79.87
221.142	79.87
221.36	83.97
221.578	57.34
221.796	-47.1
222.015	75.77
222.233	61.44
222.451	124.93
222.669	0
222.887	71.68
223.105	38.91
223.323	-26.62
223.541	34.82
223.759	6.14
223.977	24.58
224.195	112.64
224.413	77.82
224.631	71.68
224.849	129.02
225.067	233.47
225.285	26.62
225.503	34.82
225.721	-49.15
225.939	-26.62
226.157	53.25
226.375	200.7
226.592	118.78
226.81	-10.24
227.028	88.06
227.246	149.5
227.464	71.68
227.682	106.49
227.9	137.21
228.117	94.21
228.335	122.88
228.553	53.25
228.771	63.49
228.989	75.77
229.206	129.02
229.424	-2.05
229.642	-53.25
229.86	-126.97
230.077	147.45
230.295	106.49
230.513	81.92
230.731	75.77
230.948	161.79
231.166	231.42
231.384	34.82
231.601	104.45
231.819	86.01
232.037	-22.53
232.254	-71.68
232.472	-4.1
232.689	38.91
232.907	141.31
233.125	40.96
233.342	-2.05
233.56	-26.62
233.777	-73.73
233.995	67.58
234.213	32.77
234.43	55.3
234.648	20.48
234.865	-47.1
235.083	53.25
235.3	36.86
235.518	47.1
235.735	98.3
235.953	75.77
236.17	26.62
236.388	32.77
236.605	65.54
236.822	90.11
237.04	196.61
237.257	14.34
237.475	-49.15
237.692	-24.58
237.909	79.87
238.127	-36.86
238.344	71.68
238.562	36.86
238.779	-100.35
238.996	-10.24
239.214	6.14
239.431	137.21
239.648	14.34
239.865	59.39
240.083	79.87
240.3	38.91
240.517	4.1
240.735	71.68
240.952	81.92
241.169	122.88
241.386	184.32
241.603	28.67
241.821	24.58
242.038	102.4
242.255	118.78
242.472	-4.1
242.689	59.39
242.907	94.21
243.124	69.63
243.341	65.54
243.558	6.14
243.775	-12.29
243.992	-6.14
244.209	55.3
244.426	163.84
244.643	51.2
244.86	-6.14
245.078	81.92
245.295	43.01
245.512	53.25
245.729	24.58
245.946	124.93
246.163	104.45
246.38	43.01
246.597	96.25
246.814	14.34
247.031	-12.29
247.248	55.3
247.464	92.16
247.681	30.72
247.898	83.97
248.115	28.67
248.332	-10.24
248.549	133.12
248.766	178.17
248.983	49.15
249.2	114.69
249.417	59.39
249.633	12.29
249.85	71.68
250.067	-24.58
250.284	77.82
250.501	24.58
250.717	79.87
250.934	-88.06
251.151	94.21
251.368	67.58
251.585	57.34
251.801	96.25
252.018	-77.82
252.235	120.83
252.451	-2.05
252.668	43.01
252.885	81.92
253.102	47.1
253.318	-12.29
253.535	-4.1
253.752	-2.05
253.968	43.01
254.185	-96.25
254.401	57.34
254.618	4.1
254.835	-18.43
255.051	77.82
255.268	102.4
255.484	108.54
255.701	34.82
255.917	79.87
256.134	-30.72
256.351	-14.34
256.567	-47.1
256.784	12.29
257	-92.16
257.217	73.73
257.433	73.73
257.65	57.34
257.866	225.28
258.082	-55.3
258.299	45.06
258.515	153.6
258.732	-18.43
258.948	-4.1
259.165	59.39
259.381	-26.62
259.597	77.82
259.814	73.73
260.03	96.25
260.246	-12.29
260.463	120.83
260.679	114.69
260.895	118.78
261.112	45.06
261.328	-18.43
261.544	57.34
261.761	141.31
261.977	-63.49
262.193	4.1
262.409	83.97
262.626	129.02
262.842	40.96
263.058	47.1
263.274	77.82
263.49	71.68
263.707	22.53
263.923	131.07
264.139	-86.01
264.355	124.93
264.571	106.49
264.787	86.01
265.004	71.68
265.22	14.34
265.436	8.19
265.652	40.96
265.868	12.29
266.084	24.58
266.3	30.72
266.516	-18.43
266.732	49.15
266.948	47.1
267.164	14.34
267.38	126.97
267.596	73.73
267.812	163.84
268.028	6.14
268.244	57.34
268.46	51.2
268.676	20.48
268.892	-71.68
269.108	-16.38
269.324	6.14
269.54	16.38
269.756	161.79
269.972	-2.05
270.188	43.01
270.403	24.58
270.619	2.05
270.835	135.17
271.051	45.06
271.267	14.34
271.483	-59.39
271.698	83.97
271.914	104.45
272.13	16.38
272.346	-63.49
272.562	94.21
272.777	124.93
272.993	-18.43
273.209	45.06
273.425	126.97
273.64	-137.21
273.856	53.25
274.072	-20.48
274.287	-2.05
274.503	100.35
274.719	98.3
274.934	2.05
275.15	-28.67
275.366	26.62
275.581	-63.49
275.797	-4.1
276.012	77.82
276.228	-32.77
276.444	71.68
276.659	108.54
276.875	-34.82
277.09	-26.62
277.306	4.1
277.521	26.62
277.737	22.53
277.952	141.31
278.168	4.1
278.383	100.35
278.599	75.77
278.814	153.6
279.03	61.44
279.245	104.45
279.461	-2.05
279.676	6.14
279.892	-69.63
280.107	-18.43
280.322	38.91
280.538	49.15
280.753	14.34
280.969	30.72
281.184	20.48
281.399	112.64
281.615	92.16
281.83	53.25
282.045	-71.68
282.26	-2.05
282.476	28.67
282.691	92.16
282.906	47.1
283.122	40.96
283.337	-53.25
283.552	102.4
283.767	40.96
283.983	108.54
284.198	53.25
284.413	53.25
284.628	-36.86
284.843	-16.38
285.058	98.3
285.274	77.82
285.489	24.58
285.704	116.73
285.919	2.05
286.134	16.38
286.349	4.1
286.564	-67.58
286.779	163.84
286.995	12.29
287.21	-38.91
287.425	114.69
287.64	-40.96
287.855	26.62
288.07	-98.3
288.285	165.89
288.5	45.06
288.715	22.53
288.93	32.77
289.145	8.19
289.36	94.21
289.575	47.1
289.79	102.4
290.004	124.93
290.219	65.54
290.434	-32.77
290.649	38.91
290.864	-22.53
291.079	-28.67
291.294	104.45
291.509	79.87
291.724	79.87
291.938	-47.1
292.153	-6.14
292.368	-4.1
292.583	88.06
292.798	81.92
293.012	108.54
293.227	98.3
293.442	-36.86
293.657	81.92
293.871	133.12
294.086	63.49
294.301	204.8
294.516	129.02
294.73	73.73
294.945	-102.4
295.16	59.39
295.374	102.4
295.589	151.55
295.804	2.05
296.018	106.49
296.233	151.55
296.447	129.02
296.662	-32.77
296.877	110.59
297.091	8.19
297.306	22.53
297.52	45.06
297.735	116.73
297.949	12.29
298.164	43.01
298.378	28.67
298.593	59.39
298.807	-12.29
299.022	20.48
299.236	100.35
299.451	-38.91
299.665	2.05
299.88	-18.43
300.094	65.54
300.309	-71.68
300.523	104.45
300.737	-55.3
300.952	92.16
301.166	79.87
301.381	38.91
301.595	-53.25
301.809	49.15
302.024	10.24
302.238	14.34
302.452	114.69
302.667	106.49
302.881	202.75
303.095	110.59
303.309	86.01
303.524	-83.97
303.738	-18.43
303.952	2.05
304.166	71.68
304.381	-137.21
304.595	176.13
304.809	-6.14
305.023	104.45
305.237	47.1
305.452	26.62
305.666	141.31
305.88	57.34
306.094	100.35
306.308	83.97
306.522	69.63
306.736	36.86
306.95	53.25
307.164	34.82
307.379	-26.62
307.593	143.36
307.807	137.21
308.021	67.58
308.235	110.59
308.449	-77.82
308.663	6.14
308.877	202.75
309.091	73.73
309.305	47.1
309.519	-92.16
309.733	141.31
309.947	-79.87
310.161	65.54
310.374	73.73
310.588	53.25
310.802	-79.87
311.016	12.29
311.23	106.49
311.444	-36.86
311.658	34.82
311.872	100.35
312.085	165.89
312.299	53.25
312.513	104.45
312.727	26.62
312.941	20.48
313.154	57.34
313.368	24.58
313.582	63.49
313.796	49.15
314.009	16.38
314.223	159.74
314.437	-14.34
314.651	53.25
314.864	59.39
315.078	-16.38
315.292	-14.34
315.505	-16.38
315.719	16.38
315.933	77.82
316.146	-55.3
316.36	51.2
316.573	126.97
316.787	90.11
317.001	53.25
317.214	-36.86
317.428	45.06
317.641	-30.72
317.855	-2.05
318.068	86.01
318.282	34.82
318.495	129.02
318.709	67.58
318.922	-14.34
319.136	92.16
319.349	133.12
319.563	-40.96
319.776	73.73
319.99	-90.11
320.203	51.2
320.417	59.39
320.63	38.91
320.843	186.37
321.057	92.16
321.27	-10.24
321.483	151.55
321.697	90.11
321.91	96.25
322.124	86.01
322.337	73.73
322.55	-59.39
322.763	34.82
322.977	32.77
323.19	2.05
323.403	-20.48
323.617	102.4
323.83	34.82
324.043	34.82
324.256	32.77
324.469	24.58
324.683	141.31
324.896	-18.43
325.109	106.49
325.322	-69.63
325.535	96.25
325.748	131.07
325.962	28.67
326.175	73.73
326.388	53.25
326.601	167.93
326.814	22.53
327.027	92.16
327.24	141.31
327.453	-86.01
327.666	71.68
327.879	194.56
328.092	63.49
328.305	71.68
328.518	6.14
328.731	-4.1
328.944	24.58
329.157	43.01
329.37	-63.49
329.583	131.07
329.796	186.37
330.009	-67.58
330.222	100.35
330.435	108.54
330.648	57.34
330.861	30.72
331.073	38.91
331.286	73.73
331.499	104.45
331.712	65.54
331.925	-12.29
332.138	45.06
332.35	133.12
332.563	-26.62
332.776	149.5
332.989	30.72
333.202	8.19
333.414	12.29
333.627	92.16
333.84	-2.05
334.053	75.77
334.265	-16.38
334.478	22.53
334.691	67.58
334.903	28.67
335.116	4.1
335.329	32.77
335.541	-24.58
335.754	172.03
335.966	0
336.179	-6.14
336.392	79.87
336.604	10.24
336.817	77.82
337.029	81.92
337.242	-20.48
337.454	71.68
337.667	4.1
337.88	167.93
338.092	98.3
338.305	20.48
338.517	-16.38
338.729	79.87
338.942	143.36
339.154	-32.77
339.367	6.14
339.579	-12.29
339.792	-6.14
340.004	32.77
340.217	77.82
340.429	40.96
340.641	-22.53
340.854	-59.39
341.066	-45.06
341.278	155.65
341.491	159.74
341.703	49.15
341.915	-45.06
342.128	110.59
342.34	88.06
342.552	-2.05
342.764	20.48
342.977	-2.05
343.189	63.49
343.401	114.69
343.613	-53.25
343.826	57.34
344.038	-4.1
344.25	34.82
344.462	-40.96
344.674	43.01
344.886	43.01
345.099	67.58
345.311	61.44
345.523	-36.86
345.735	-77.82
345.947	32.77
346.159	49.15
346.371	12.29
346.583	-10.24
346.795	147.45
347.007	61.44
347.219	65.54
347.431	79.87
347.643	90.11
347.855	-8.19
348.067	147.45
348.279	-18.43
348.491	43.01
348.703	118.78
348.915	38.91
349.127	-61.44
349.339	36.86
349.551	-22.53
349.763	153.6
349.975	0
350.187	59.39
350.399	116.73
350.61	94.21
350.822	43.01
351.034	88.06
351.246	55.3
351.458	100.35
351.669	-10.24
351.881	36.86
352.093	167.93
352.305	96.25
352.517	32.77
352.728	102.4
352.94	69.63
353.152	106.49
353.363	86.01
353.575	34.82
353.787	161.79
353.999	81.92
354.21	165.89
354.422	-28.67
354.633	38.91
354.845	26.62
355.057	-8.19
355.268	-32.77
355.48	92.16
355.692	-59.39
355.903	-6.14
356.115	-2.05
356.326	-73.73
356.538	141.31
356.749	8.19
356.961	67.58
357.172	24.58
357.384	34.82
357.595	215.04
357.807	18.43
358.018	4.1
358.23	24.58
358.441	167.93
358.653	16.38
358.864	-47.1
359.075	6.14
359.287	38.91
359.498	151.55
359.709	88.06
359.921	51.2
360.132	67.58
360.344	98.3
360.555	10.24
360.766	81.92
360.977	14.34
361.189	61.44
361.4	14.34
361.611	49.15
361.823	122.88
362.034	81.92
362.245	-81.92
362.456	47.1
362.667	106.49
362.879	-22.53
363.09	131.07
363.301	79.87
363.512	51.2
363.723	-34.82
363.935	61.44
364.146	49.15
364.357	38.91
364.568	45.06
364.779	-92.16
364.99	131.07
365.201	28.67
365.412	51.2
365.623	-116.73
365.834	20.48
366.045	26.62
366.256	176.13
366.467	83.97
366.678	32.77
366.889	0
367.1	24.58
367.311	188.41
367.522	-2.05
367.733	63.49
367.944	135.17
368.155	-4.1
368.366	77.82
368.577	49.15
368.788	129.02
368.999	-73.73
369.209	22.53
369.42	221.18
369.631	155.65
369.842	116.73
370.053	22.53
370.264	167.93
370.474	-32.77
370.685	32.77
370.896	-28.67
371.107	122.88
371.317	129.02
371.528	16.38
371.739	94.21
371.95	-10.24
372.16	122.88
372.371	-38.91
372.582	-55.3
372.792	28.67
373.003	49.15
373.214	8.19
373.424	81.92
373.635	-24.58
373.846	139.26
374.056	69.63
374.267	112.64
374.477	40.96
374.688	18.43
374.898	28.67
375.109	-45.06
375.319	81.92
375.53	94.21
375.74	69.63
375.951	-59.39
376.161	124.93
376.372	36.86
376.582	12.29
376.793	-6.14
377.003	12.29
377.214	-51.2
377.424	53.25
377.635	-2.05
377.845	-32.77
378.055	180.22
378.266	2.05
378.476	38.91
378.686	59.39
378.897	81.92
379.107	112.64
379.317	65.54
379.528	18.43
379.738	55.3
379.948	26.62
380.158	118.78
380.369	-59.39
380.579	69.63
380.789	81.92
380.999	98.3
381.21	81.92
381.42	161.79
381.63	6.14
381.84	69.63
382.05	79.87
382.261	139.26
382.471	16.38
382.681	-8.19
382.891	157.69
383.101	30.72
383.311	6.14
383.521	-16.38
383.731	8.19
383.941	88.06
384.151	71.68
384.361	49.15
384.571	26.62
384.781	20.48
384.991	180.22
385.201	178.17
385.411	86.01
385.621	57.34
385.831	65.54
386.041	20.48
386.251	-30.72
386.461	180.22
386.671	-20.48
386.881	147.45
387.091	30.72
387.301	40.96
387.511	-55.3
387.72	147.45
387.93	112.64
388.14	-63.49
388.35	-24.58
388.56	139.26
388.769	137.21
388.979	-16.38
389.189	-34.82
389.399	65.54
389.609	116.73
389.818	51.2
390.028	184.32
390.238	131.07
390.447	20.48
390.657	96.25
390.867	20.48
391.076	-20.48
391.286	36.86
391.496	-8.19
391.705	36.86
391.915	108.54
392.125	83.97
392.334	6.14
392.544	110.59
392.753	12.29
392.963	-34.82
393.172	38.91
393.382	4.1
393.591	143.36
393.801	0
394.01	102.4
394.22	147.45
394.429	-10.24
394.639	77.82
394.848	14.34
395.058	38.91
395.267	10.24
395.477	73.73
395.686	14.34
395.895	256
396.105	104.45
396.314	126.97
396.524	-34.82
396.733	22.53
396.942	126.97
397.152	96.25
397.361	102.4
397.57	55.3
397.78	-10.24
397.989	92.16
398.198	219.13
398.407	26.62
398.617	-55.3
398.826	34.82
399.035	0
399.244	178.17
399.453	4.1
399.663	38.91
399.872	81.92
400.081	-57.34
400.29	135.17
400.499	12.29
400.708	217.08
400.917	-28.67
401.127	-16.38
401.336	0
401.545	188.41
401.754	43.01
401.963	71.68
402.172	-18.43
402.381	-18.43
402.59	-65.53
402.799	135.17
403.008	145.41
403.217	8.19
403.426	38.91
403.635	-59.39
403.844	16.38
404.053	-6.14
404.262	-4.1
404.471	141.31
404.68	57.34
404.888	45.06
405.097	63.49
405.306	38.91
405.515	141.31
405.724	65.54
405.933	73.73
406.142	122.88
406.35	112.64
406.559	83.97
406.768	88.06
406.977	190.46
407.185	67.58
407.394	77.82
407.603	-34.82
407.812	86.01
408.02	188.41
408.229	26.62
408.438	81.92
408.646	-71.68
408.855	38.91
409.064	61.44
409.272	-6.14
409.481	102.4
409.69	-8.19
409.898	28.67
410.107	26.62
410.315	71.68
410.524	63.49
410.733	114.69
410.941	6.14
411.15	77.82
411.358	79.87
411.567	178.17
411.775	143.36
411.984	36.86
412.192	24.58
412.401	10.24
412.609	139.26
412.818	172.03
413.026	45.06
413.234	14.34
413.443	59.39
413.651	-49.15
413.86	57.34
414.068	143.36
414.276	141.31
414.485	16.38
414.693	180.22
414.901	167.93
415.11	34.82
415.318	71.68
415.526	53.25
415.734	69.63
415.943	-12.29
416.151	133.12
416.359	40.96
416.567	100.35
416.776	110.59
416.984	94.21
417.192	120.83
417.4	24.58
417.608	16.38
417.817	-4.1
418.025	26.62
418.233	149.5
418.441	57.34
418.649	18.43
418.857	47.1
419.065	124.93
419.273	34.82
419.481	104.45
419.689	0
419.897	47.1
420.105	-63.49
420.313	155.65
420.521	139.26
420.729	43.01
420.937	51.2
421.145	-30.72
421.353	98.3
421.561	178.17
421.769	106.49
421.977	-2.05
422.185	32.77
422.393	104.45
422.601	133.12
422.809	47.1
423.017	55.3
423.224	77.82
423.432	157.69
423.64	28.67
423.848	157.69
424.056	32.77
424.263	65.54
424.471	-34.82
424.679	161.79
424.887	-6.14
425.094	94.21
425.302	137.21
425.51	92.16
425.718	88.06
425.925	26.62
426.133	-38.91
426.341	194.56
426.548	73.73
426.756	88.06
426.964	143.36
427.171	10.24
427.379	12.29
427.586	69.63
427.794	51.2
428.001	102.4
428.209	149.5
428.417	215.04
428.624	169.98
428.832	90.11
429.039	137.21
429.247	53.25
429.454	112.64
429.662	126.97
429.869	49.15
430.076	108.54
430.284	163.84
430.491	145.41
430.699	98.3
430.906	98.3
431.114	120.83
431.321	135.17
431.528	75.77
431.736	86.01
431.943	104.45
432.15	139.26
432.358	172.03
432.565	247.8
432.772	-49.15
432.979	163.84
433.187	63.49
433.394	198.65
433.601	81.92
433.808	210.94
434.016	118.78
434.223	204.8
434.43	239.61
434.637	245.76
434.844	151.55
435.052	174.08
435.259	165.89
435.466	270.33
435.673	286.72
435.88	278.52
436.087	309.24
436.294	348.15
436.501	292.86
436.708	237.56
436.915	161.79
437.122	346.11
437.329	161.79
437.537	262.14
437.743	210.94
437.95	274.43
438.157	339.96
438.364	323.58
438.571	288.76
438.778	305.15
438.985	403.45
439.192	405.5
439.399	362.49
439.606	380.92
439.813	403.45
440.02	479.22
440.227	481.27
440.433	468.98
440.64	387.07
440.847	290.81
441.054	432.12
441.261	559.1
441.467	481.27
441.674	415.74
441.881	524.28
442.088	456.7
442.294	536.57
442.501	530.42
442.708	610.29
442.914	536.57
443.121	655.35
443.328	585.72
443.534	641.01
443.741	649.21
443.948	479.22
444.154	761.84
444.361	890.87
444.568	722.93
444.774	731.12
444.981	684.02
445.187	960.5
445.394	847.86
445.6	792.56
445.807	978.93
446.013	847.86
446.22	960.5
446.426	890.87
446.633	1011.7
446.839	1249.26
447.046	1015.79
447.252	1210.35
447.459	1118.19
447.665	1165.29
447.871	1296.36
448.078	1341.42
448.284	1341.42
448.491	1470.44
448.697	1404.91
448.903	1558.5
449.11	1566.7
449.316	1566.7
449.522	1679.33
449.728	1740.77
449.935	1824.74
450.141	1800.16
450.347	2080.74
450.553	1925.09
450.76	1957.86
450.966	2119.65
451.172	2103.26
451.378	2195.42
451.584	2287.58
451.791	2404.32
451.997	2574.3
452.203	2572.25
452.409	2592.73
452.615	2779.09
452.821	2717.65
453.027	2797.53
453.233	3215.31
453.44	3033.04
453.646	3143.63
453.852	3266.51
454.058	3438.54
454.264	3483.59
454.47	3809.22
454.676	3669.96
454.882	4130.75
455.088	3889.09
455.294	4079.55
455.5	4222.91
455.705	4687.8
455.911	4687.8
456.117	4763.58
456.323	4943.8
456.529	4798.39
456.735	5255.09
456.941	5431.21
457.147	5887.91
457.352	5978.02
457.558	5922.73
457.764	6569.88
457.97	6494.11
458.176	6750.1
458.381	7245.71
458.587	7141.27
458.793	7638.92
458.999	7581.58
459.204	8689.53
459.41	8855.42
459.616	8724.35
459.821	9314.16
460.027	9725.8
460.233	10067.81
460.438	10125.16
460.644	10671.97
460.85	10770.27
461.055	11259.73
461.261	11734.86
461.466	11517.78
461.672	11800.4
461.878	13236.02
462.083	13078.33
462.289	13260.6
462.494	13838.12
462.7	13838.12
462.905	13993.77
463.111	15224.6
463.316	15824.65
463.522	16387.85
463.727	16834.3
463.932	17432.31
464.138	18081.52
464.343	18685.67
464.549	18878.18
464.754	20494.02
464.959	21028.54
465.165	21049.02
465.37	21184.19
465.575	20754.12
465.781	22365.87
465.986	23162.53
466.191	22711.97
466.397	23080.61
466.602	22460.07
466.807	23701.14
467.012	24583.82
467.218	24520.33
467.423	24544.91
467.628	25446.01
467.833	26695.27
468.038	26244.72
468.244	25607.8
468.449	26893.93
468.654	26519.15
468.859	26357.36
469.064	26889.83
469.269	25751.16
469.474	26332.78
469.679	26865.25
469.885	25863.8
470.09	26236.53
470.295	26472.04
470.5	26074.74
470.705	26222.19
470.91	25343.61
471.115	25386.62
471.32	25849.46
471.525	25554.55
471.73	24825.48
471.935	24559.24
472.139	23783.06
472.344	23727.77
472.549	23631.51
472.754	23183.01
472.959	22533.8
473.164	21946.03
473.369	21249.72
473.574	22279.85
473.778	21690.04
473.983	21407.42
474.188	20719.3
474.393	20029.13
474.598	19922.64
474.802	19287.77
475.007	19308.25
475.212	18867.94
475.417	18136.81
475.621	18226.92
475.826	17917.68
476.031	17434.36
476.235	17057.53
476.44	17166.07
476.645	16824.06
476.849	16529.16
477.054	16224.01
477.259	15726.35
477.463	16078.6
477.668	15515.41
477.872	15470.36
478.077	15075.1
478.282	14511.91
478.486	14694.18
478.691	14124.84
478.895	14214.95
479.1	14126.89
479.304	13995.82
479.509	13528.88
479.713	13614.9
479.918	13451.06
480.122	13150.01
480.326	13025.08
480.531	13258.55
480.735	13020.99
480.94	12511.04
481.144	13174.58
481.348	12392.26
481.553	12498.75
481.757	12173.13
481.961	12351.3
482.166	12562.24
482.37	12285.76
482.574	11970.38
482.778	12013.38
482.983	12187.46
483.187	12050.25
483.391	11818.83
483.595	11630.41
483.8	11456.34
484.004	11452.24
484.208	11513.68
484.412	11388.75
484.616	11358.03
484.821	11034.46
485.025	10686.3
485.229	10934.11
485.433	10606.43
485.637	10657.63
485.841	10465.12
486.045	10344.29
486.249	10358.63
486.453	9908.07
486.657	10051.43
486.861	9813.87
487.065	9473.9
487.269	9705.32
487.473	9052.02
487.677	9219.96
487.881	9389.94
488.085	8953.72
488.289	8968.06
488.493	8470.4
488.697	8611.71
488.901	8466.3
489.105	8259.46
489.309	8048.52
489.512	8087.43
489.716	7896.97
489.92	7776.14
490.124	7503.76
490.328	7505.81
490.531	7378.83
490.735	7540.62
490.939	7016.34
491.143	6901.65
491.346	6883.22
491.55	6797.21
491.754	6713.24
491.958	6752.15
492.161	6471.58
492.365	6379.42
492.569	6133.67
492.772	6191.01
492.976	6184.87
493.18	6279.07
493.383	6229.92
493.587	5892.01
493.79	6025.12
493.994	5871.53
494.197	5910.44
494.401	5885.86
494.605	5543.85
494.808	5824.42
495.012	5547.95
495.215	5658.54
495.419	5734.31
495.622	5554.09
495.825	5451.69
496.029	5439.4
496.232	5556.14
496.436	5357.49
496.639	5613.48
496.843	5396.4
497.046	5480.36
497.249	5701.55
497.453	5418.93
497.656	5349.29
497.859	5666.73
498.063	5736.36
498.266	5609.39
498.469	5670.83
498.673	5636.01
498.876	5580.71
499.079	5752.74
499.282	5633.96
499.485	5812.14
499.689	5857.19
499.892	5887.91
500.095	5830.57
500.298	6135.71
500.501	5906.34
500.705	6055.84
500.908	6016.93
501.111	6025.12
501.314	6289.31
501.517	6334.37
501.72	6449.05
501.923	6473.63
502.126	6526.88
502.329	6584.22
502.532	6698.91
502.735	6776.73
502.938	6952.85
503.141	6934.42
503.344	6920.09
503.547	7354.26
503.75	7243.67
503.953	7223.19
504.156	7448.46
504.359	7675.79
504.562	7497.61
504.765	7788.43
504.968	7905.16
505.17	7997.32
505.373	8112
505.576	8368
505.779	8359.81
505.982	8443.78
506.185	8687.48
506.387	8796.03
506.59	8986.49
506.793	9119.6
506.996	9301.87
507.198	9602.93
507.401	9764.72
507.604	9809.77
507.807	10106.73
508.009	10178.4
508.212	10319.71
508.415	10633.05
508.617	11161.43
508.82	11161.43
509.022	11269.97
509.225	11794.25
509.428	11855.69
509.63	12105.54
509.833	12238.66
510.035	12808
510.238	12924.73
510.44	12988.22
510.643	13625.14
510.845	13913.9
511.048	14085.93
511.25	14409.51
511.453	14825.25
511.655	15339.29
511.858	15531.79
512.06	16101.13
512.262	16008.97
512.465	16647.94
512.667	16860.93
512.87	17336.06
513.072	17719.03
513.274	17917.68
513.477	18511.59
513.679	18847.46
513.881	19412.7
514.084	19719.89
514.286	20145.87
514.488	20704.96
514.69	21212.86
514.893	21642.93
515.095	21964.46
515.297	22531.75
515.499	22726.31
515.701	23520.92
515.904	24282.77
516.106	24663.69
516.308	25073.28
516.51	25931.38
516.712	26001.01
516.914	26748.52
517.116	27190.88
517.318	27293.28
517.52	28178
517.722	28298.83
517.925	29118.02
518.127	29384.26
518.329	29996.6
518.531	30465.58
518.733	31094.31
518.935	31893.02
519.136	32267.8
519.338	33003.02
519.54	32980.49
519.742	33965.56
519.944	34039.29
520.146	34833.9
520.348	35313.13
520.55	35716.57
520.752	35982.81
520.954	37125.58
521.155	36765.13
521.357	37762.5
521.559	38018.49
521.761	38729.14
521.963	38602.16
522.164	39497.13
522.366	39454.12
522.568	40474.01
522.77	40250.78
522.971	41100.68
523.173	40658.32
523.375	41235.85
523.576	41387.4
523.778	41397.64
523.98	42077.57
524.181	41928.06
524.383	42362.23
524.584	42444.15
524.786	42538.36
524.988	42351.99
525.189	42968.43
525.391	43013.49
525.592	43216.24
525.794	42997.1
525.995	43173.23
526.197	43064.69
526.398	42939.76
526.6	42857.84
526.801	42978.67
527.003	42851.7
527.204	42835.31
527.406	43173.23
527.607	42577.27
527.808	42419.58
528.01	41807.23
528.211	41778.56
528.412	42155.39
528.614	41792.9
528.815	41653.64
529.016	41588.1
529.218	40533.4
529.419	40666.52
529.62	39845.28
529.822	39603.62
530.023	39255.46
530.224	39089.58
530.425	38462.9
530.626	37854.65
530.828	37750.21
531.029	37750.21
531.23	37395.91
531.431	36580.82
531.632	36634.06
531.833	36187.61
532.035	35859.93
532.236	34895.34
532.437	34874.86
532.638	33969.66
532.839	33959.42
533.04	33889.79
533.241	32904.71
533.442	33240.58
533.643	32491.02
533.844	31692.32
534.045	31657.5
534.246	31016.49
534.447	30887.46
534.648	30453.3
534.849	30008.89
535.05	29240.9
535.251	29273.67
535.451	29070.92
535.652	28624.46
535.853	27993.68
536.054	28073.56
536.255	27453.02
536.456	26926.69
536.657	26977.89
536.857	25923.19
537.058	25884.28
537.259	25706.1
537.46	25290.37
537.66	25060.99
537.861	24481.42
538.062	24264.33
538.263	23961.23
538.463	23432.86
538.664	23654.04
538.865	22982.31
539.065	22800.04
539.266	22120.11
539.466	22310.57
539.667	21659.32
539.868	22222.51
540.068	21188.28
540.269	21251.77
540.469	20864.71
540.67	20788.93
540.87	20420.3
541.071	20162.25
541.271	19967.7
541.472	19693.27
541.672	19537.62
541.873	19298.01
542.073	18939.61
542.274	18992.86
542.474	18714.34
542.675	18579.17
542.875	18278.12
543.075	18077.42
543.276	17673.97
543.476	17708.79
543.676	17358.58
543.877	17168.12
544.077	17211.13
544.277	16910.08
544.478	16441.09
544.678	16801.54
544.878	16361.22
545.078	16410.37
545.279	15875.85
545.479	15734.54
545.679	15693.58
545.879	15488.79
546.079	15206.17
546.28	14874.4
546.48	14812.96
546.68	14776.09
546.88	14454.56
547.08	14569.25
547.28	14354.21
547.48	13934.38
547.68	14184.23
547.88	13643.57
548.081	13621.04
548.281	13301.56
548.481	13096.76
548.681	13027.13
548.881	13090.62
549.081	12764.99
549.28	12486.47
549.48	12414.79
549.68	12382.02
549.88	12054.34
550.08	11863.88
550.28	11691.85
550.48	11716.43
550.68	11763.53
550.88	11200.34
551.08	11097.94
551.279	10846.04
551.479	10647.39
551.679	10800.99
551.879	10370.91
552.079	10362.72
552.278	10245.99
552.478	10051.43
552.678	9838.44
552.878	9815.91
553.077	9588.59
553.277	9420.66
553.477	9236.34
553.676	9185.14
553.876	9078.65
554.076	8740.73
554.275	8847.23
554.475	8650.62
554.674	8677.24
554.874	8406.91
555.074	8208.26
555.273	8069
555.473	8097.67
555.672	7884.68
555.872	7733.13
556.071	7608.2
556.271	7528.33
556.47	7446.41
556.67	7098.26
556.869	7075.73
557.068	7018.39
557.268	6836.12
557.467	6739.87
557.667	6729.63
557.866	6346.66
558.065	6352.8
558.265	6369.18
558.464	6008.74
558.663	6252.45
558.863	5971.88
559.062	6025.12
559.261	5877.67
559.461	5814.18
559.66	5519.28
559.859	5468.08
560.058	5521.32
560.258	5156.79
560.457	5236.66
560.656	5351.34
560.855	4741.05
561.054	4974.52
561.253	5023.67
561.453	5011.38
561.652	4902.84
561.851	4794.29
562.05	4550.59
562.249	4519.87
562.448	4632.51
562.647	4419.52
562.846	4433.85
563.045	4378.56
563.244	4241.34
563.443	4202.43
563.642	3985.35
563.841	4159.42
564.04	4100.03
564.239	3932.1
564.438	3874.76
564.637	3684.3
564.836	3733.45
565.035	3557.32
565.234	3641.29
565.432	3583.95
565.631	3444.68
565.83	3540.94
566.029	3471.31
566.228	3418.06
566.427	3420.11
566.625	3223.5
566.824	3231.69
567.023	3192.78
567.222	3207.12
567.42	3129.3
567.619	3200.98
567.818	3030.99
568.016	3258.32
568.215	2893.78
568.414	2975.7
568.612	2750.42
568.811	2815.96
569.01	2779.09
569.208	2701.27
569.407	2793.43
569.605	2621.4
569.804	2559.96
570.002	2664.41
570.201	2516.95
570.4	2553.82
570.598	2412.51
570.797	2346.97
570.995	2480.09
571.193	2338.78
571.392	2359.26
571.59	2045.92
571.789	2275.29
571.987	2328.54
572.186	2287.58
572.384	2201.57
572.582	2133.98
572.781	2133.98
572.979	2002.91
573.177	2004.96
573.376	1986.53
573.574	2064.35
573.772	1812.45
573.971	1933.28
574.169	1818.6
574.367	1882.08
574.565	1767.4
574.763	1748.97
574.962	1775.59
575.16	1703.91
575.358	1695.72
575.556	1640.42
575.754	1603.56
575.952	1693.67
576.151	1564.65
576.349	1689.57
576.547	1335.28
576.745	1552.36
576.943	1589.22
577.141	1333.23
577.339	1372.14
577.537	1404.91
577.735	1441.77
577.933	1417.19
578.131	1396.71
578.329	1464.3
578.527	1343.47
578.725	1355.76
578.923	1228.78
579.121	1320.94
579.319	1134.57
579.516	1099.76
579.714	1316.84
579.912	1183.73
580.11	1091.57
580.308	1177.58
580.506	1112.05
580.704	886.77
580.901	1019.89
581.099	1075.18
581.297	1071.09
581.495	1101.81
581.692	976.88
581.89	1202.16
582.088	1030.13
582.285	1028.08
582.483	1028.08
582.681	974.83
582.878	966.64
583.076	960.5
583.274	866.29
583.471	1064.94
583.669	921.59
583.866	821.24
584.064	735.22
584.262	759.8
584.459	847.86
584.657	841.72
584.854	772.08
585.052	860.15
585.249	802.8
585.447	804.85
585.644	651.25
585.841	794.61
586.039	759.8
586.236	722.93
586.434	727.03
586.631	690.17
586.828	677.88
587.026	690.17
587.223	616.44
587.42	546.81
587.618	727.03
587.815	743.41
588.012	628.73
588.21	663.54
588.407	686.07
588.604	620.53
588.801	645.11
588.999	520.18
589.196	761.84
589.393	569.34
589.59	624.63
589.787	593.91
589.984	583.67
590.182	532.47
590.379	548.86
590.576	587.77
590.773	520.18
590.97	571.38
591.167	540.66
591.364	583.67
591.561	544.76
591.758	733.17
591.955	618.49
592.152	575.48
592.349	536.57
592.546	587.77
592.743	405.5
592.94	581.62
593.137	550.9
593.334	698.36
593.531	573.43
593.727	561.14
593.924	544.76
594.121	573.43
594.318	591.86
594.515	530.42
594.712	708.6
594.908	675.83
595.105	464.89
595.302	544.76
595.499	577.53
595.696	663.54
595.892	477.18
596.089	641.01
596.286	557.05
596.482	759.8
596.679	655.35
596.876	600.05
597.072	647.16
597.269	655.35
597.466	776.18
597.662	716.79
597.859	636.92
598.055	649.21
598.252	774.13
598.448	811
598.645	860.15
598.841	841.72
599.038	1005.55
599.234	927.73
599.431	978.93
599.627	999.41
599.824	1032.18
600.02	1013.74
600.217	950.26
600.413	1103.86
600.609	1120.24
600.806	1349.61
601.002	1290.22
601.198	1230.83
601.395	1347.56
601.591	1366
601.787	1437.67
601.984	1538.02
602.18	1540.07
602.376	1523.69
602.572	1656.81
602.769	1687.53
602.965	1732.58
603.161	1816.55
603.357	1814.5
603.553	1937.38
603.75	1982.43
603.946	2056.16
604.142	2047.97
604.338	2320.35
604.534	2187.23
604.73	2226.14
604.926	2430.94
605.122	2449.37
605.318	2475.99
605.514	2643.93
605.71	2703.32
605.906	2987.99
606.102	2938.84
606.298	3100.62
606.494	3049.43
606.69	3133.39
606.886	3243.98
607.082	3194.83
607.278	3391.44
607.474	3520.46
607.67	3545.03
607.866	3491.79
608.062	3893.19
608.257	3975.11
608.453	3958.72
608.649	4198.34
608.845	4028.35
609.041	4235.2
609.236	4396.99
609.432	4560.83
609.628	4722.62
609.824	4976.56
610.019	4947.89
610.215	4980.66
610.411	5124.02
610.606	5425.07
610.802	5474.22
610.998	5498.8
611.193	5654.44
611.389	5834.66
611.584	5959.59
611.78	6100.9
611.976	6313.89
612.171	6690.71
612.367	6739.87
612.562	6995.86
612.758	7053.2
612.953	7057.3
613.149	7243.67
613.344	7557
613.539	7847.82
613.735	7958.41
613.93	8294.27
614.126	8351.62
614.321	8533.89
614.517	8947.58
614.712	9052.02
614.907	9439.09
615.103	9557.87
615.298	9811.82
615.493	10143.59
615.688	10225.51
615.884	10798.94
616.079	10559.33
616.274	11079.51
616.47	11265.88
616.665	11587.41
616.86	11765.58
617.055	12058.44
617.25	12420.93
617.445	12881.72
617.641	12943.16
617.836	13262.65
618.031	13547.31
618.226	13965.1
618.421	14290.73
618.616	14614.31
618.811	15001.37
619.006	15271.7
619.201	15404.82
619.396	16101.13
619.591	16115.47
619.786	16928.51
619.981	17008.38
620.176	17473.27
620.371	17551.09
620.566	17946.35
620.761	18450.15
620.956	19072.73
621.151	18953.95
621.346	19709.65
621.541	19662.55
621.735	20547.27
621.93	20668.1
622.125	21243.58
622.32	21132.99
622.515	21986.99
622.709	22036.14
622.904	22609.58
623.099	22640.29
623.294	23348.89
623.488	23791.25
623.683	24270.48
623.878	24518.28
624.072	25151.1
624.267	25263.74
624.462	25794.17
624.656	25861.75
624.851	26625.64
625.046	26766.95
625.24	27315.81
625.435	27539.04
625.629	27862.61
625.824	28595.79
626.018	29044.29
626.213	28612.17
626.407	29574.72
626.602	29423.17
626.796	29992.5
626.991	29820.47
627.185	30703.15
627.38	30613.04
627.574	30764.59
627.768	31122.98
627.963	31012.39
628.157	31137.32
628.352	31340.07
628.546	31184.42
628.74	31495.71
628.935	31448.61
629.129	31749.66
629.323	30920.23
629.517	31139.36
629.712	30893.61
629.906	30885.42
630.1	30377.52
630.294	30084.66
630.489	29316.67
630.683	29759.03
630.877	28993.09
631.071	28331.6
631.265	28159.57
631.459	27252.32
631.653	26832.49
631.848	26478.19
632.042	25798.26
632.236	25400.96
632.43	24446.6
632.624	23910.04
632.818	22998.69
633.012	22603.43
633.206	21774
633.4	21135.04
633.594	20391.62
633.788	19992.27
633.982	19293.91
634.176	18925.28
634.369	17692.4
634.563	17010.43
634.757	16418.57
634.951	16101.13
635.145	15349.53
635.339	14776.09
635.533	14235.43
635.726	13803.31
635.92	12769.09
636.114	12580.67
636.308	11976.52
636.501	11679.57
636.695	11145.05
636.889	10659.68
637.083	10237.8
637.276	9627.5
637.47	9322.35
637.664	8947.58
637.857	8626.04
638.051	8269.7
638.244	8066.95
638.438	7581.58
638.632	7374.74
638.825	6897.56
639.019	6866.84
639.212	6320.03
639.406	6274.98
639.599	6037.41
639.793	5633.96
639.986	5474.22
640.18	5470.12
640.373	5117.87
640.567	4863.93
640.76	4872.12
640.954	4534.2
641.147	4313.02
641.34	4192.19
641.534	4108.23
641.727	4001.73
641.92	3721.16
642.114	3674.06
642.307	3522.51
642.5	3401.68
642.694	3106.77
642.887	3014.61
643.08	3100.62
643.273	2930.64
643.467	2787.29
643.66	2645.98
643.853	2445.27
644.046	2564.06
644.239	2478.04
644.432	2181.09
644.626	2117.6
644.819	2152.42
645.012	2074.59
645.205	2107.36
645.398	2007.01
645.591	1828.84
645.784	1615.85
645.977	1544.17
646.17	1669.09
646.363	1558.5
646.556	1517.54
646.749	1343.47
646.942	1296.36
647.135	1406.95
647.328	1241.07
647.521	1198.06
647.714	1107.95
647.907	1245.17
648.099	1093.62
648.292	1071.09
648.485	1066.99
648.678	991.22
648.871	999.41
649.064	894.96
649.256	837.62
649.449	839.67
649.642	655.35
649.835	757.75
650.027	649.21
650.22	837.62
650.413	745.46
650.605	663.54
650.798	690.17
650.991	628.73
651.183	577.53
651.376	657.4
651.568	626.68
651.761	548.86
651.954	616.44
652.146	495.61
652.339	624.63
652.531	589.82
652.724	489.46
652.916	555
653.109	270.33
653.301	501.75
653.494	477.18
653.686	448.51
653.879	434.17
654.071	468.98
654.263	290.81
654.456	303.1
654.648	460.79
654.84	385.02
655.033	266.24
655.225	438.27
655.417	180.22
655.61	516.09
655.802	366.59
655.994	411.64
656.186	190.46
656.379	432.12
656.571	321.53
656.763	315.39
656.955	180.22
657.148	200.7
657.34	327.67
657.532	243.71
657.724	239.61
657.916	198.65
658.108	325.63
658.3	270.33
658.492	178.17
658.684	182.27
658.876	268.28
659.068	149.5
659.26	159.74
659.452	165.89
659.644	221.18
659.836	356.35
660.028	247.8
660.22	153.6
660.412	143.36
660.604	137.21
660.796	215.04
660.988	290.81
661.18	229.37
661.372	294.91
661.563	124.93
661.755	219.13
661.947	129.02
662.139	217.08
662.331	81.92
662.522	165.89
662.714	88.06
662.906	227.32
663.097	194.56
663.289	126.97
663.481	73.73
663.673	198.65
663.864	124.93
664.056	221.18
664.247	94.21
664.439	233.47
664.631	235.52
664.822	231.42
665.014	188.41
665.205	165.89
665.397	86.01
665.588	184.32
665.78	120.83
665.971	229.37
666.163	118.78
666.354	143.36
666.546	75.77
666.737	96.25
666.929	165.89
667.12	120.83
667.311	88.06
667.503	108.54
667.694	96.25
667.885	163.84
668.077	262.14
668.268	86.01
668.459	176.13
668.651	172.03
668.842	184.32
669.033	40.96
669.224	63.49
669.416	284.67
669.607	178.17
669.798	71.68
669.989	278.52
670.18	131.07
670.371	215.04
670.563	96.25
670.754	178.17
670.945	188.41
671.136	182.27
671.327	159.74
671.518	167.93
671.709	217.08
671.9	165.89
672.091	266.24
672.282	114.69
672.473	169.98
672.664	73.73
672.855	180.22
673.046	153.6
673.237	208.89
673.428	174.08
673.619	167.93
673.809	126.97
674	251.9
674.191	202.75
674.382	32.77
674.573	165.89
674.764	163.84
674.954	292.86
675.145	69.63
675.336	126.97
675.527	196.61
675.717	120.83
675.908	124.93
676.099	106.49
676.289	141.31
676.48	6.14
676.671	153.6
676.861	161.79
677.052	182.27
677.243	260.09
677.433	137.21
677.624	223.23
677.814	208.89
678.005	202.75
678.195	292.86
678.386	114.69
678.576	235.52
678.767	122.88
678.957	120.83
679.148	284.67
679.338	258.04
679.529	229.37
679.719	165.89
679.909	339.96
680.1	188.41
680.29	227.32
680.481	237.56
680.671	296.96
680.861	245.76
681.052	198.65
681.242	131.07
681.432	276.48
681.622	237.56
681.813	120.83
682.003	206.84
682.193	153.6
682.383	176.13
682.573	206.84
682.764	176.13
682.954	315.39
683.144	364.54
683.334	253.95
683.524	266.24
683.714	262.14
683.904	251.9
684.094	153.6
684.284	196.61
684.474	329.72
684.664	305.15
684.854	286.72
685.044	301.05
685.234	237.56
685.424	296.96
685.614	135.17
685.804	307.2
685.994	317.44
686.184	241.66
686.374	290.81
686.564	256
686.753	317.44
686.943	200.7
687.133	139.26
687.323	219.13
687.513	313.34
687.702	262.14
687.892	215.04
688.082	256
688.272	335.87
688.461	262.14
688.651	403.45
688.841	233.47
689.03	217.08
689.22	272.38
689.41	241.66
689.599	276.48
689.789	182.27
689.979	405.5
690.168	288.76
690.358	251.9
690.547	182.27
690.737	196.61
690.926	305.15
691.116	258.04
691.305	288.76
691.495	253.95
691.684	172.03
691.874	288.76
692.063	178.17
692.252	327.67
692.442	270.33
692.631	186.37
692.82	258.04
693.01	239.61
693.199	217.08
693.388	333.82
693.578	284.67
693.767	243.71
693.956	247.8
694.146	272.38
694.335	182.27
694.524	233.47
694.713	280.57
694.902	266.24
695.092	188.41
695.281	286.72
695.47	243.71
695.659	202.75
695.848	196.61
696.037	137.21
696.226	286.72
696.415	217.08
696.604	280.57
696.793	317.44
696.982	225.28
697.171	385.02
697.36	180.22
697.549	167.93
697.738	145.41
697.927	190.46
698.116	165.89
698.305	221.18
698.494	167.93
698.683	200.7
698.872	417.79
699.061	180.22
699.25	167.93
699.438	227.32
699.627	194.56
699.816	329.72
700.005	143.36
700.193	188.41
700.382	307.2
700.571	235.52
700.76	262.14
700.948	309.24
701.137	315.39
701.326	217.08
701.514	110.59
701.703	219.13
701.892	239.61
702.08	440.31
702.269	233.47
702.457	129.02
702.646	229.37
702.834	139.26
703.023	276.48
703.212	317.44
703.4	196.61
703.589	165.89
703.777	122.88
703.965	176.13
704.154	174.08
704.342	192.51
704.531	165.89
704.719	270.33
704.907	348.15
705.096	153.6
705.284	135.17
705.472	221.18
705.661	192.51
705.849	288.76
706.037	278.52
706.226	231.42
706.414	184.32
706.602	167.93
706.79	292.86
706.979	114.69
707.167	258.04
707.355	86.01
707.543	249.85
707.731	268.28
707.919	264.19
708.107	239.61
708.296	141.31
708.484	176.13
708.672	223.23
708.86	235.52
709.048	188.41
709.236	108.54
709.424	208.89
709.612	235.52
709.8	116.73
709.988	266.24
710.176	237.56
710.364	325.63
710.551	262.14
710.739	256
710.927	172.03
711.115	219.13
711.303	235.52
711.491	325.63
711.679	165.89
711.866	249.85
712.054	114.69
712.242	294.91
712.43	325.63
712.617	186.37
712.805	208.89
712.993	147.45
713.181	88.06
713.368	264.19
713.556	229.37
713.744	176.13
713.931	344.06
714.119	303.1
714.306	212.99
714.494	182.27
714.682	215.04
714.869	149.5
715.057	208.89
715.244	114.69
715.432	284.67
715.619	153.6
715.807	196.61
715.994	157.69
716.182	139.26
716.369	245.76
716.556	331.77
716.744	131.07
716.931	147.45
717.119	241.66
717.306	219.13
717.493	292.86
717.681	235.52
717.868	161.79
718.055	307.2
718.242	256
718.43	215.04
718.617	251.9
718.804	241.66
718.991	274.43
719.179	278.52
719.366	305.15
719.553	313.34
719.74	253.95
719.927	198.65
720.114	260.09
720.301	147.45
720.488	169.98
720.676	256
720.863	288.76
721.05	454.65
721.237	241.66
721.424	342.01
721.611	239.61
721.798	145.41
721.985	272.38
722.172	237.56
722.358	151.55
722.545	317.44
722.732	274.43
722.919	331.77
723.106	282.62
723.293	249.85
723.48	311.29
723.667	188.41
723.853	260.09
724.04	299
724.227	305.15
724.414	237.56
724.6	339.96
724.787	411.64
724.974	389.11
725.161	286.72
725.347	231.42
725.534	327.67
725.72	350.2
725.907	411.64
726.094	272.38
726.28	210.94
726.467	198.65
726.653	237.56
726.84	356.35
727.027	337.91
727.213	296.96
727.4	311.29
727.586	311.29
727.773	217.08
727.959	204.8
728.145	294.91
728.332	325.63
728.518	249.85
728.705	354.3
728.891	337.91
729.077	309.24
729.264	174.08
729.45	278.52
729.636	385.02
729.823	335.87
730.009	317.44
730.195	294.91
730.382	389.11
730.568	274.43
730.754	227.32
730.94	313.34
731.126	327.67
731.313	385.02
731.499	256
731.685	366.59
731.871	339.96
732.057	407.55
732.243	391.16
732.429	415.74
732.615	477.18
732.801	296.96
732.987	245.76
733.173	276.48
733.359	280.57
733.545	356.35
733.731	313.34
733.917	393.21
734.103	348.15
734.289	378.87
734.475	260.09
734.661	479.22
734.847	331.77
735.033	387.07
735.219	319.48
735.404	272.38
735.59	245.76
735.776	311.29
735.962	421.88
736.148	333.82
736.333	518.14
736.519	368.63
736.705	348.15
736.89	294.91
737.076	339.96
737.262	260.09
737.447	258.04
737.633	280.57
737.819	403.45
738.004	380.92
738.19	305.15
738.375	364.54
738.561	419.83
738.747	364.54
738.932	219.13
739.118	452.6
739.303	380.92
739.489	440.31
739.674	286.72
739.859	196.61
740.045	395.26
740.23	294.91
740.416	196.61
740.601	393.21
740.786	256
740.972	227.32
741.157	225.28
741.342	276.48
741.528	274.43
741.713	421.88
741.898	405.5
742.084	348.15
742.269	278.52
742.454	307.2
742.639	493.56
742.824	331.77
743.01	475.13
743.195	442.36
743.38	376.83
743.565	348.15
743.75	323.58
743.935	309.24
744.12	368.63
744.305	163.84
744.49	233.47
744.675	356.35
744.86	344.06
745.045	364.54
745.23	321.53
745.415	335.87
745.6	430.07
745.785	317.44
745.97	368.63
746.155	362.49
746.34	362.49
746.525	317.44
746.71	360.44
746.895	200.7
747.079	260.09
747.264	305.15
747.449	405.5
747.634	382.97
747.819	266.24
748.003	247.8
748.188	221.18
748.373	397.31
748.557	266.24
748.742	274.43
748.927	350.2
749.111	313.34
749.296	272.38
749.481	335.87
749.665	258.04
749.85	260.09
750.034	301.05
750.219	256
750.404	174.08
750.588	262.14
750.773	135.17
750.957	219.13
751.141	215.04
751.326	301.05
751.51	153.6
751.695	241.66
751.879	249.85
752.064	356.35
752.248	247.8
752.432	299
752.617	243.71
752.801	272.38
752.985	227.32
753.17	337.91
753.354	272.38
753.538	200.7
753.722	245.76
753.907	241.66
754.091	172.03
754.275	204.8
754.459	247.8
754.643	157.69
754.828	217.08
755.012	202.75
755.196	135.17
755.38	212.99
755.564	231.42
755.748	243.71
755.932	223.23
756.116	335.87
756.3	311.29
756.484	73.73
756.668	270.33
756.852	131.07
757.036	225.28
757.22	262.14
757.404	163.84
757.588	145.41
757.772	233.47
757.956	153.6
758.14	307.2
758.323	53.25
758.507	256
758.691	180.22
758.875	303.1
759.059	276.48
759.242	159.74
759.426	321.53
759.61	266.24
759.794	122.88
759.977	237.56
760.161	432.12
760.345	210.94
760.528	251.9
760.712	200.7
760.895	135.17
761.079	176.13
761.263	112.64
761.446	96.25
761.63	90.11
761.813	268.28
761.997	108.54
762.18	102.4
762.364	194.56
762.547	98.3
762.731	61.44
762.914	153.6
763.098	157.69
763.281	159.74
763.464	155.65
763.648	210.94
763.831	194.56
764.015	79.87
764.198	239.61
764.381	151.55
764.564	131.07
764.748	272.38
764.931	169.98
765.114	59.39
765.297	229.37
765.481	38.91
765.664	178.17
765.847	137.21
766.03	268.28
766.213	126.97
766.397	86.01
766.58	81.92
766.763	137.21
766.946	75.77
767.129	126.97
767.312	57.34
767.495	124.93
767.678	94.21
767.861	131.07
768.044	90.11
768.227	38.91
768.41	172.03
768.593	126.97
768.776	223.23
768.959	79.87
769.142	131.07
769.324	110.59
769.507	100.35
769.69	90.11
769.873	43.01
770.056	247.8
770.239	165.89
770.421	280.57
770.604	229.37
770.787	69.63
770.97	137.21
771.152	90.11
771.335	126.97
771.518	100.35
771.7	153.6
771.883	280.57
772.066	108.54
772.248	122.88
772.431	215.04
772.613	186.37
772.796	186.37
772.978	153.6
773.161	210.94
773.343	106.49
773.526	47.1
773.708	47.1
773.891	18.43
774.073	122.88
774.256	86.01
774.438	264.19
774.621	110.59
774.803	157.69
774.985	133.12
775.168	120.83
775.35	129.02
775.532	147.45
775.715	-14.34
775.897	184.32
776.079	-18.43
776.261	104.45
776.444	157.69
776.626	61.44
776.808	49.15
776.99	-67.58
777.173	106.49
777.355	75.77
777.537	116.73
777.719	61.44
777.901	10.24
778.083	55.3
778.265	18.43
778.447	133.12
778.629	69.63
778.811	88.06
778.993	155.65
779.175	94.21
779.357	81.92
779.539	-69.63
779.721	83.97
779.903	143.36
780.085	38.91
780.267	90.11
780.449	24.58
780.631	137.21
780.812	155.65
780.994	55.3
781.176	10.24
781.358	53.25
781.54	114.69
781.721	143.36
781.903	190.46
782.085	88.06
782.267	172.03
782.448	2.05
782.63	8.19
782.812	30.72
782.993	184.32
783.175	100.35
783.357	12.29
783.538	112.64
783.72	-49.15
783.901	98.3
784.083	65.54
784.264	24.58
784.446	45.06
784.627	26.62
784.809	114.69
784.99	-4.1
785.172	131.07
785.353	26.62
785.535	112.64
785.716	26.62
785.897	-61.44
786.079	-26.62
786.26	63.49
786.441	145.41
786.623	2.05
786.804	8.19
786.985	38.91
787.167	53.25
787.348	2.05
787.529	59.39
787.71	196.61
787.891	55.3
788.073	51.2
788.254	16.38
788.435	178.17
788.616	8.19
788.797	108.54
788.978	-14.34
789.159	-32.77
789.34	61.44
789.522	6.14
789.703	-12.29
789.884	0
790.065	124.93
790.246	212.99
790.427	71.68
790.607	167.93
790.788	167.93
790.969	-10.24
791.15	49.15
791.331	32.77
791.512	-6.14
791.693	-14.34
791.874	-77.82
792.054	153.6
792.235	61.44
792.416	-69.63
792.597	59.39
792.778	106.49
792.958	94.21
793.139	40.96
793.32	6.14
793.5	-12.29
793.681	174.08
793.862	63.49
794.042	45.06
794.223	-45.06
794.404	8.19
794.584	-55.3
794.765	-24.58
794.945	6.14
795.126	79.87
795.306	153.6
795.487	96.25
795.667	-102.4
795.848	16.38
796.028	0
796.209	83.97
796.389	145.41
796.57	0
796.75	-2.05
796.93	34.82
797.111	-45.06
797.291	-16.38
797.471	145.41
797.652	10.24
797.832	-43.01
798.012	83.97
798.192	-77.82
798.373	-75.77
798.553	28.67
798.733	90.11
798.913	-94.21
799.093	28.67
799.274	0
799.454	14.34
799.634	98.3
799.814	98.3
799.994	110.59
800.174	34.82
800.354	32.77
800.534	-106.49
800.714	69.63
800.894	-10.24
801.074	-43.01
801.254	-8.19
801.434	83.97
801.614	-24.58
801.794	-28.67
801.974	1882.08
802.154	16.38
802.334	118.78
802.514	14.34
802.693	2.05
802.873	28.67
803.053	100.35
803.233	49.15
803.413	-8.19
803.592	-16.38
803.772	-8.19
803.952	53.25
804.131	-2.05
804.311	112.64
804.491	71.68
804.67	-55.3
804.85	-69.63
805.03	49.15
805.209	81.92
805.389	61.44
805.568	-8.19
805.748	67.58
805.928	22.53
806.107	36.86
806.287	-36.86
806.466	71.68
806.646	43.01
806.825	71.68
807.004	-75.77
807.184	43.01
807.363	61.44
807.543	36.86
807.722	-40.96
807.901	131.07
808.081	88.06
808.26	-104.45
808.439	45.06
808.619	6.14
808.798	36.86
808.977	63.49
809.156	104.45
809.336	-12.29
809.515	49.15
809.694	-110.59
809.873	-18.43
810.052	47.1
810.231	108.54
810.411	14.34
810.59	108.54
810.769	-4.1
810.948	102.4
811.127	-100.35
811.306	-43.01
811.485	-8.19
811.664	122.88
811.843	16.38
812.022	10.24
812.201	-36.86
812.38	-32.77
812.559	-59.39
812.737	63.49
812.916	-59.39
813.095	-63.49
813.274	-30.72
813.453	32.77
813.632	24.58
813.811	129.02
813.989	-14.34
814.168	129.02
814.347	-100.35
814.526	-2.05
814.704	94.21
814.883	102.4
815.062	-24.58
815.24	69.63
815.419	-22.53
815.598	88.06
815.776	-92.16
815.955	67.58
816.133	-88.06
816.312	2.05
816.49	-45.06
816.669	-12.29
816.847	-40.96
817.026	45.06
817.204	-18.43
817.383	-65.53
817.561	-30.72
817.74	45.06
817.918	57.34
818.097	-124.93
818.275	-2.05
818.453	65.54
818.632	6.14
818.81	-24.58
818.988	-8.19
819.167	-43.01
819.345	57.34
819.523	-28.67
819.701	8.19
819.879	22.53
820.058	45.06
820.236	34.82
820.414	28.67
820.592	-71.68
820.77	20.48
820.948	-53.25
821.127	-14.34
821.305	-20.48
821.483	-32.77
821.661	45.06
821.839	-32.77
822.017	-26.62
822.195	61.44
822.373	2.05
822.551	0
822.729	83.97
822.907	38.91
823.085	51.2
823.262	75.77
823.44	-69.63
823.618	16.38
823.796	-10.24
823.974	-4.1
824.152	-47.1
824.329	32.77
824.507	96.25
824.685	36.86
824.863	-18.43
825.04	-16.38
825.218	0
825.396	14.34
825.574	28.67
825.751	-20.48
825.929	51.2
826.107	-106.49
826.284	0
826.462	102.4
826.639	-69.63
826.817	-67.58
826.994	-34.82
827.172	-32.77
827.349	67.58
827.527	32.77
827.704	124.93
827.882	49.15
828.059	-18.43
828.237	-18.43
828.414	81.92
828.591	-108.54
828.769	61.44
828.946	-45.06
829.124	38.91
829.301	92.16
829.478	-4.1
829.655	57.34
829.833	45.06
830.01	-120.83
830.187	49.15
830.364	10.24
830.542	106.49
830.719	81.92
830.896	94.21
831.073	45.06
831.25	26.62
831.427	88.06
831.604	-24.58
831.782	4.1
831.959	8.19
832.136	36.86
832.313	120.83
832.49	-16.38
832.667	34.82
832.844	32.77
833.021	86.01
833.198	45.06
833.374	32.77
833.551	18.43
833.728	-12.29
833.905	94.21
834.082	-186.37
834.259	-22.53
834.436	122.88
834.612	-98.3
834.789	30.72
834.966	32.77
835.143	45.06
835.319	-59.39
835.496	8.19
835.673	59.39
835.85	51.2
836.026	40.96
836.203	104.45
836.38	-55.3
836.556	-69.63
836.733	22.53
836.909	98.3
837.086	-94.21
837.262	-98.3
837.439	38.91
837.616	-28.67
837.792	16.38
837.968	-65.53
838.145	-145.41
838.321	12.29
838.498	-2.05
838.674	-20.48
838.851	-53.25
839.027	28.67
839.203	49.15
839.38	-8.19
839.556	-47.1
839.732	92.16
839.909	-47.1
840.085	-30.72
840.261	-77.82
840.437	53.25
840.614	-36.86
840.79	8.19
840.966	30.72
841.142	8.19
841.318	8.19
841.494	16.38
841.671	133.12
841.847	-30.72
842.023	-96.25
842.199	69.63
842.375	124.93
842.551	-108.54
842.727	-122.88
842.903	57.34
843.079	-53.25
843.255	81.92
843.431	-61.44
843.607	94.21
843.783	-120.83
843.959	18.43
844.134	-67.58
844.31	98.3
844.486	-12.29
844.662	-16.38
844.838	8.19
845.013	81.92
845.189	96.25
845.365	43.01
845.541	4.1
845.716	-18.43
845.892	22.53
846.068	-63.49
846.244	-122.88
846.419	49.15
846.595	-40.96
846.77	-61.44
846.946	-14.34
847.122	-28.67
847.297	-26.62
847.473	81.92
847.648	-167.93
847.824	51.2
847.999	-32.77
848.175	-18.43
848.35	22.53
848.526	94.21
848.701	94.21
848.876	108.54
849.052	51.2
849.227	-18.43
849.403	34.82
849.578	8.19
849.753	63.49
849.929	67.58
850.104	-49.15
850.279	-69.63
850.454	100.35
850.63	83.97
850.805	30.72
850.98	-45.06
851.155	40.96
851.33	10.24
851.505	-8.19
851.681	53.25
851.856	-38.91
852.031	-24.58
852.206	59.39
852.381	-165.89
852.556	-100.35
852.731	73.73
852.906	83.97
853.081	71.68
853.256	92.16
853.431	63.49
853.606	-71.68
853.781	-45.06
853.956	-167.93
854.131	34.82
854.305	-114.69
854.48	-122.88
854.655	10.24
854.83	-18.43
855.005	-69.63
855.18	12.29
855.354	-38.91
855.529	12.29
855.704	-4.1
855.879	16.38
856.053	-88.06
856.228	4.1
856.403	-53.25
856.577	81.92
856.752	-112.64
856.926	6.14
857.101	30.72
857.276	-133.12
857.45	61.44
857.625	30.72
857.799	-86.01
857.974	-73.73
858.148	-202.75
858.323	-26.62
858.497	-36.86
858.672	38.91
858.846	-45.06
859.02	-30.72
859.195	-63.49
859.369	-67.58
859.543	26.62
859.718	26.62
859.892	77.82
860.066	79.87
860.241	-20.48
860.415	-83.97
860.589	38.91
860.763	-16.38
860.938	-32.77
861.112	-28.67
861.286	-77.82
861.46	14.34
861.634	-28.67
861.808	22.53
861.982	2.05
862.157	-77.82
862.331	-36.86
862.505	-104.45
862.679	-102.4
862.853	-34.82
863.027	-6.14
863.201	59.39
863.375	-26.62
863.549	-18.43
863.722	45.06
863.896	141.31
864.07	-77.82
864.244	-8.19
864.418	8.19
864.592	0
864.766	-16.38
864.939	4.1
865.113	-92.16
865.287	94.21
865.461	-118.78
865.634	59.39
865.808	-63.49
865.982	30.72
866.156	-57.34
866.329	-69.63
866.503	10.24
866.676	81.92
866.85	61.44
867.024	-30.72
867.197	36.86
867.371	-40.96
867.544	-61.44
867.718	-40.96
867.891	36.86
868.065	-77.82
868.238	36.86
868.412	71.68
868.585	4.1
868.759	-24.58
868.932	-40.96
869.105	-180.22
869.279	38.91
869.452	-77.82
869.625	75.77
869.799	10.24
869.972	-51.2
870.145	-88.06
870.319	47.1
870.492	22.53
870.665	-43.01
870.838	12.29
871.011	-129.02
871.185	-10.24
871.358	-75.77
871.531	36.86
871.704	-67.58
871.877	67.58
872.05	-2.05
872.223	-112.64
872.396	22.53
872.569	4.1
872.742	-65.53
872.915	10.24
873.088	65.54
873.261	-79.87
873.434	67.58
873.607	-28.67
873.78	126.97
873.953	-67.58
874.126	-30.72
874.299	-22.53
874.471	8.19
874.644	-28.67
874.817	45.06
874.99	118.78
875.163	4.1
875.335	40.96
875.508	4.1
875.681	28.67
875.853	-45.06
876.026	24.58
876.199	67.58
876.371	10.24
876.544	-34.82
876.717	43.01
876.889	-59.39
877.062	-10.24
877.234	-57.34
877.407	-40.96
877.579	75.77
877.752	-4.1
877.924	53.25
878.097	47.1
878.269	10.24
878.442	-8.19
878.614	38.91
878.786	18.43
878.959	-45.06
879.131	4.1
879.303	-96.25
879.476	-43.01
879.648	69.63
879.82	26.62
879.993	-26.62
880.165	-81.92
880.337	-139.26
880.509	49.15
880.681	-16.38
880.854	32.77
881.026	61.44
881.198	155.65
881.37	-36.86
881.542	59.39
881.714	36.86
881.886	-2.05
882.058	-22.53
882.23	-22.53
882.402	-2.05
882.574	47.1
882.746	49.15
882.918	141.31
883.09	147.45
883.262	-8.19
883.434	22.53
883.606	-88.06
883.778	8.19
883.95	153.6
884.122	-32.77
884.293	75.77
884.465	4.1
884.637	88.06
884.809	-18.43
884.98	-36.86
885.152	8.19
885.324	-26.62
885.496	-59.39
885.667	-67.58
885.839	-49.15
886.011	131.07
886.182	49.15
886.354	49.15
886.525	22.53
886.697	47.1
886.869	-32.77
887.04	53.25
887.212	147.45
887.383	153.6
887.555	12.29
887.726	-79.87
887.897	-88.06
888.069	-30.72
888.24	57.34
888.412	51.2
888.583	-43.01
888.754	67.58
888.926	-88.06
889.097	-65.53
889.268	-92.16
889.44	45.06
889.611	-67.58
889.782	-55.3
889.953	-10.24
890.125	79.87
890.296	-49.15
890.467	-47.1
890.638	-106.49
890.809	-16.38
890.98	-36.86
891.151	-61.44
891.323	59.39
891.494	30.72
891.665	43.01
891.836	-77.82
892.007	-34.82
892.178	34.82
892.349	59.39
892.52	-10.24
892.691	-24.58
892.862	-4.1
893.032	-90.11
893.203	-71.68
893.374	53.25
893.545	83.97
893.716	-81.92
893.887	49.15
894.057	-38.91
894.228	-24.58
894.399	-16.38
894.57	47.1
894.74	55.3
894.911	-18.43
895.082	8.19
895.253	-83.97
895.423	-34.82
895.594	0
895.764	79.87
895.935	-137.21
896.106	51.2
896.276	-24.58
896.447	8.19
896.617	-75.77
896.788	-14.34
896.958	-79.87
897.129	-12.29
897.299	-26.62
897.47	73.73
897.64	30.72
897.81	47.1
897.981	-22.53
898.151	-40.96
898.322	-86.01
898.492	-36.86
898.662	-108.54
898.832	-61.44
899.003	-86.01
899.173	126.97
899.343	-16.38
899.513	-63.49
