Data from USB4F104151__72__09-29-46-293.txt Node

Date: Wed Feb 26 09:29:46 EST 2025
User: louis
Spectrometer: USB4F10415
Trigger mode: 4
Integration Time (sec): 1.000000E-1
Scans to average: 1
Electric dark correction enabled: true
Nonlinearity correction enabled: false
Boxcar width: 0
XAxis mode: Wavelengths
Number of Pixels in Spectrum: 3648
>>>>>Begin Spectral Data<<<<<
178.204	-329.38
178.424	-329.38
178.644	-329.38
178.864	-343.72
179.084	-333.48
179.304	-22.19
179.524	-11.95
179.744	49.49
179.964	35.16
180.184	-18.09
180.404	37.2
180.624	-16.04
180.844	-79.53
181.064	-18.09
181.283	16.73
181.503	-20.14
181.723	47.44
181.943	-20.14
182.163	158.03
182.383	-28.33
182.602	76.12
182.822	135.51
183.042	67.92
183.262	24.92
183.482	59.73
183.701	100.69
183.921	-18.09
184.141	-73.39
184.361	72.02
184.58	-20.14
184.8	147.8
185.02	0.34
185.239	88.4
185.459	115.03
185.679	127.32
185.898	-26.28
186.118	53.59
186.338	43.35
186.557	63.83
186.777	-65.19
186.997	-5.8
187.216	35.16
187.436	221.52
187.655	139.6
187.875	69.97
188.095	-24.23
188.314	106.84
188.534	164.18
188.753	-93.87
188.973	108.88
189.192	135.51
189.412	35.16
189.631	86.36
189.851	72.02
190.07	162.13
190.29	-63.15
190.509	39.25
190.729	41.3
190.948	115.03
191.168	291.15
191.387	74.07
191.607	20.82
191.826	10.58
192.045	98.64
192.265	78.16
192.484	100.69
192.704	2.39
192.923	-24.23
193.142	180.56
193.362	10.58
193.581	186.71
193.8	102.74
194.02	106.84
194.239	39.25
194.458	92.5
194.678	0.34
194.897	-13.99
195.116	123.22
195.335	67.92
195.555	90.45
195.774	-11.95
195.993	151.89
196.212	8.53
196.432	-3.75
196.651	-24.23
196.87	35.16
197.089	168.27
197.308	45.4
197.528	53.59
197.747	-44.71
197.966	74.07
198.185	104.79
198.404	-11.95
198.623	117.08
198.842	84.31
199.062	115.03
199.281	90.45
199.5	-26.28
199.719	67.92
199.938	29.01
200.157	98.64
200.376	65.88
200.595	98.64
200.814	49.49
201.033	78.16
201.252	166.23
201.471	8.53
201.69	63.83
201.909	-13.99
202.128	63.83
202.347	-16.04
202.566	49.49
202.785	-59.05
203.004	10.58
203.223	174.42
203.442	78.16
203.661	-36.52
203.879	59.73
204.098	43.35
204.317	12.63
204.536	94.55
204.755	39.25
204.974	125.27
205.193	-5.8
205.411	143.7
205.63	69.97
205.849	29.01
206.068	127.32
206.287	47.44
206.505	139.6
206.724	8.53
206.943	-11.95
207.162	-11.95
207.381	129.36
207.599	26.96
207.818	31.06
208.037	0.34
208.255	-13.99
208.474	84.31
208.693	88.4
208.911	8.53
209.13	76.12
209.349	100.69
209.567	31.06
209.786	74.07
210.005	141.65
210.223	51.54
210.442	-81.58
210.661	63.83
210.879	20.82
211.098	41.3
211.316	74.07
211.535	110.93
211.753	63.83
211.972	119.12
212.191	-20.14
212.409	35.16
212.628	74.07
212.846	24.92
213.065	31.06
213.283	250.19
213.502	14.68
213.72	100.69
213.938	29.01
214.157	18.77
214.375	143.7
214.594	123.22
214.812	133.46
215.031	35.16
215.249	88.4
215.467	96.6
215.686	53.59
215.904	88.4
216.122	12.63
216.341	160.08
216.559	108.88
216.778	112.98
216.996	133.46
217.214	43.35
217.432	-69.29
217.651	-28.33
217.869	31.06
218.087	92.5
218.306	-9.9
218.524	55.64
218.742	8.53
218.96	110.93
219.179	10.58
219.397	80.21
219.615	225.62
219.833	117.08
220.051	-13.99
220.27	90.45
220.488	59.73
220.706	84.31
220.924	4.44
221.142	92.5
221.36	57.68
221.578	45.4
221.796	18.77
222.015	12.63
222.233	125.27
222.451	65.88
222.669	45.4
222.887	63.83
223.105	37.2
223.323	24.92
223.541	24.92
223.759	16.73
223.977	12.63
224.195	143.7
224.413	98.64
224.631	65.88
224.849	53.59
225.067	139.6
225.285	26.96
225.503	98.64
225.721	-69.29
225.939	-38.57
226.157	80.21
226.375	153.94
226.592	-30.38
226.81	37.2
227.028	117.08
227.246	168.27
227.464	41.3
227.682	65.88
227.9	78.16
228.117	41.3
228.335	63.83
228.553	39.25
228.771	61.78
228.989	96.6
229.206	20.82
229.424	41.3
229.642	84.31
229.86	41.3
230.077	151.89
230.295	33.11
230.513	129.36
230.731	160.08
230.948	207.19
231.166	127.32
231.384	-20.14
231.601	12.63
231.819	168.27
232.037	6.49
232.254	-11.95
232.472	4.44
232.689	-26.28
232.907	92.5
233.125	39.25
233.342	-13.99
233.56	-9.9
233.777	63.83
233.995	33.11
234.213	129.36
234.43	110.93
234.648	49.49
234.865	35.16
235.083	78.16
235.3	78.16
235.518	86.36
235.735	127.32
235.953	96.6
236.17	104.79
236.388	49.49
236.605	12.63
236.822	98.64
237.04	78.16
237.257	74.07
237.475	16.73
237.692	10.58
237.909	92.5
238.127	125.27
238.344	172.37
238.562	45.4
238.779	-22.19
238.996	26.96
239.214	43.35
239.431	63.83
239.648	18.77
239.865	98.64
240.083	72.02
240.3	37.2
240.517	45.4
240.735	69.97
240.952	78.16
241.169	72.02
241.386	61.78
241.603	-9.9
241.821	8.53
242.038	67.92
242.255	76.12
242.472	-97.96
242.689	108.88
242.907	88.4
243.124	88.4
243.341	14.68
243.558	20.82
243.775	12.63
243.992	-22.19
244.209	57.68
244.426	233.81
244.643	104.79
244.86	-20.14
245.078	112.98
245.295	69.97
245.512	8.53
245.729	10.58
245.946	67.92
246.163	72.02
246.38	67.92
246.597	69.97
246.814	49.49
247.031	158.03
247.248	6.49
247.464	98.64
247.681	-20.14
247.898	155.99
248.115	47.44
248.332	-46.76
248.549	133.46
248.766	205.14
248.983	94.55
249.2	90.45
249.417	90.45
249.633	49.49
249.85	90.45
250.067	39.25
250.284	106.84
250.501	98.64
250.717	121.17
250.934	88.4
251.151	18.77
251.368	-28.33
251.585	100.69
251.801	4.44
252.018	-9.9
252.235	72.02
252.451	-54.95
252.668	117.08
252.885	194.9
253.102	33.11
253.318	24.92
253.535	45.4
253.752	57.68
253.968	6.49
254.185	-75.43
254.401	61.78
254.618	104.79
254.835	12.63
255.051	141.65
255.268	0.34
255.484	43.35
255.701	86.36
255.917	72.02
256.134	-40.62
256.351	45.4
256.567	-9.9
256.784	33.11
257	-44.71
257.217	33.11
257.433	92.5
257.65	149.84
257.866	145.75
258.082	-32.43
258.299	-38.57
258.515	90.45
258.732	76.12
258.948	-3.75
259.165	14.68
259.381	-46.76
259.597	129.36
259.814	0.34
260.03	-20.14
260.246	88.4
260.463	104.79
260.679	78.16
260.895	-18.09
261.112	33.11
261.328	90.45
261.544	31.06
261.761	162.13
261.977	16.73
262.193	2.39
262.409	125.27
262.626	45.4
262.842	67.92
263.058	-65.19
263.274	53.59
263.49	59.73
263.707	182.61
263.923	35.16
264.139	-11.95
264.355	29.01
264.571	121.17
264.787	35.16
265.004	127.32
265.22	-36.52
265.436	-24.23
265.652	-1.71
265.868	78.16
266.084	-36.52
266.3	-7.85
266.516	24.92
266.732	76.12
266.948	14.68
267.164	6.49
267.38	119.12
267.596	84.31
267.812	209.23
268.028	39.25
268.244	-28.33
268.46	55.64
268.676	-42.67
268.892	76.12
269.108	10.58
269.324	-32.43
269.54	-75.43
269.756	129.36
269.972	-61.1
270.188	57.68
270.403	-13.99
270.619	39.25
270.835	147.8
271.051	76.12
271.267	-67.24
271.483	18.77
271.698	80.21
271.914	61.78
272.13	69.97
272.346	-65.19
272.562	94.55
272.777	84.31
272.993	49.49
273.209	14.68
273.425	20.82
273.64	-3.75
273.856	47.44
274.072	-9.9
274.287	-1.71
274.503	41.3
274.719	108.88
274.934	37.2
275.15	-77.48
275.366	24.92
275.581	29.01
275.797	76.12
276.012	86.36
276.228	37.2
276.444	115.03
276.659	16.73
276.875	31.06
277.09	41.3
277.306	-32.43
277.521	43.35
277.737	69.97
277.952	74.07
278.168	67.92
278.383	-11.95
278.599	33.11
278.814	-7.85
279.03	37.2
279.245	174.42
279.461	10.58
279.676	110.93
279.892	-18.09
280.107	-11.95
280.322	18.77
280.538	80.21
280.753	-52.91
280.969	84.31
281.184	24.92
281.399	160.08
281.615	4.44
281.83	110.93
282.045	-30.38
282.26	-46.76
282.476	47.44
282.691	80.21
282.906	18.77
283.122	53.59
283.337	20.82
283.552	86.36
283.767	45.4
283.983	102.74
284.198	45.4
284.413	69.97
284.628	-34.47
284.843	76.12
285.058	47.44
285.274	24.92
285.489	43.35
285.704	137.56
285.919	41.3
286.134	29.01
286.349	49.49
286.564	-28.33
286.779	115.03
286.995	51.54
287.21	26.96
287.425	2.39
287.64	108.88
287.855	117.08
288.07	-54.95
288.285	94.55
288.5	100.69
288.715	112.98
288.93	-32.43
289.145	78.16
289.36	104.79
289.575	6.49
289.79	170.32
290.004	29.01
290.219	131.41
290.434	-36.52
290.649	14.68
290.864	41.3
291.079	37.2
291.294	84.31
291.509	-11.95
291.724	74.07
291.938	39.25
292.153	63.83
292.368	100.69
292.583	39.25
292.798	41.3
293.012	153.94
293.227	84.31
293.442	-28.33
293.657	43.35
293.871	88.4
294.086	145.75
294.301	170.32
294.516	74.07
294.73	67.92
294.945	24.92
295.16	-34.47
295.374	106.84
295.589	47.44
295.804	-26.28
296.018	61.78
296.233	188.75
296.447	86.36
296.662	65.88
296.877	49.49
297.091	123.22
297.306	78.16
297.52	-30.38
297.735	49.49
297.949	16.73
298.164	65.88
298.378	-3.75
298.593	-28.33
298.807	33.11
299.022	67.92
299.236	131.41
299.451	49.49
299.665	82.26
299.88	-20.14
300.094	12.63
300.309	35.16
300.523	47.44
300.737	74.07
300.952	110.93
301.166	51.54
301.381	-67.24
301.595	-16.04
301.809	102.74
302.024	-36.52
302.238	-20.14
302.452	53.59
302.667	110.93
302.881	149.84
303.095	102.74
303.309	45.4
303.524	-5.8
303.738	53.59
303.952	-22.19
304.166	-24.23
304.381	-65.19
304.595	147.8
304.809	24.92
305.023	112.98
305.237	80.21
305.452	74.07
305.666	115.03
305.88	127.32
306.094	80.21
306.308	98.64
306.522	168.27
306.736	41.3
306.95	102.74
307.164	39.25
307.379	-36.52
307.593	178.51
307.807	100.69
308.021	125.27
308.235	72.02
308.449	-46.76
308.663	37.2
308.877	207.19
309.091	-32.43
309.305	100.69
309.519	-44.71
309.733	115.03
309.947	-1.71
310.161	84.31
310.374	51.54
310.588	153.94
310.802	-9.9
311.016	4.44
311.23	74.07
311.444	0.34
311.658	16.73
311.872	4.44
312.085	119.12
312.299	18.77
312.513	160.08
312.727	92.5
312.941	-30.38
313.154	61.78
313.368	0.34
313.582	55.64
313.796	82.26
314.009	26.96
314.223	92.5
314.437	78.16
314.651	65.88
314.864	-93.87
315.078	-40.62
315.292	-28.33
315.505	31.06
315.719	106.84
315.933	123.22
316.146	6.49
316.36	-5.8
316.573	90.45
316.787	45.4
317.001	53.59
317.214	-28.33
317.428	92.5
317.641	-36.52
317.855	20.82
318.068	24.92
318.282	22.87
318.495	209.23
318.709	67.92
318.922	47.44
319.136	39.25
319.349	59.73
319.563	-28.33
319.776	63.83
319.99	-110.25
320.203	135.51
320.417	45.4
320.63	57.68
320.843	141.65
321.057	49.49
321.27	16.73
321.483	53.59
321.697	98.64
321.91	29.01
322.124	55.64
322.337	76.12
322.55	20.82
322.763	74.07
322.977	24.92
323.19	-1.71
323.403	24.92
323.617	127.32
323.83	133.46
324.043	43.35
324.256	12.63
324.469	-11.95
324.683	61.78
324.896	57.68
325.109	-44.71
325.322	-126.63
325.535	117.08
325.748	37.2
325.962	-73.39
326.175	88.4
326.388	4.44
326.601	88.4
326.814	45.4
327.027	102.74
327.24	125.27
327.453	-83.63
327.666	55.64
327.879	115.03
328.092	94.55
328.305	88.4
328.518	6.49
328.731	26.96
328.944	-42.67
329.157	69.97
329.37	-59.05
329.583	74.07
329.796	143.7
330.009	-5.8
330.222	84.31
330.435	108.88
330.648	-20.14
330.861	94.55
331.073	74.07
331.286	127.32
331.499	18.77
331.712	35.16
331.925	53.59
332.138	26.96
332.35	137.56
332.563	-50.86
332.776	112.98
332.989	-44.71
333.202	59.73
333.414	51.54
333.627	110.93
333.84	41.3
334.053	133.46
334.265	-48.81
334.478	4.44
334.691	117.08
334.903	57.68
335.116	6.49
335.329	49.49
335.541	35.16
335.754	102.74
335.966	2.39
336.179	45.4
336.392	106.84
336.604	76.12
336.817	63.83
337.029	123.22
337.242	-20.14
337.454	86.36
337.667	20.82
337.88	201.04
338.092	12.63
338.305	41.3
338.517	8.53
338.729	37.2
338.942	164.18
339.154	-89.77
339.367	-30.38
339.579	63.83
339.792	37.2
340.004	90.45
340.217	-18.09
340.429	47.44
340.641	0.34
340.854	10.58
341.066	24.92
341.278	94.55
341.491	178.51
341.703	33.11
341.915	-7.85
342.128	41.3
342.34	61.78
342.552	-38.57
342.764	43.35
342.977	51.54
343.189	102.74
343.401	-20.14
343.613	-79.53
343.826	12.63
344.038	-97.96
344.25	35.16
344.462	29.01
344.674	139.6
344.886	20.82
345.099	53.59
345.311	94.55
345.523	2.39
345.735	-38.57
345.947	82.26
346.159	110.93
346.371	45.4
346.583	80.21
346.795	141.65
347.007	29.01
347.219	41.3
347.431	12.63
347.643	76.12
347.855	-3.75
348.067	117.08
348.279	-44.71
348.491	26.96
348.703	180.56
348.915	-1.71
349.127	29.01
349.339	12.63
349.551	-22.19
349.763	10.58
349.975	20.82
350.187	86.36
350.399	110.93
350.61	39.25
350.822	35.16
351.034	-24.23
351.246	-11.95
351.458	-26.28
351.669	94.55
351.881	100.69
352.093	155.99
352.305	51.54
352.517	18.77
352.728	145.75
352.94	-3.75
353.152	67.92
353.363	-13.99
353.575	41.3
353.787	149.84
353.999	8.53
354.21	141.65
354.422	-20.14
354.633	45.4
354.845	59.73
355.057	29.01
355.268	43.35
355.48	131.41
355.692	8.53
355.903	31.06
356.115	8.53
356.326	-138.92
356.538	160.08
356.749	63.83
356.961	133.46
357.172	14.68
357.384	-54.95
357.595	262.48
357.807	-3.75
358.018	18.77
358.23	90.45
358.441	151.89
358.653	6.49
358.864	16.73
359.075	-11.95
359.287	102.74
359.498	35.16
359.709	57.68
359.921	78.16
360.132	37.2
360.344	-9.9
360.555	31.06
360.766	76.12
360.977	39.25
361.189	90.45
361.4	-3.75
361.611	125.27
361.823	102.74
362.034	45.4
362.245	-44.71
362.456	8.53
362.667	78.16
362.879	45.4
363.09	65.88
363.301	106.84
363.512	24.92
363.723	29.01
363.935	20.82
364.146	117.08
364.357	29.01
364.568	-16.04
364.779	18.77
364.99	127.32
365.201	-81.58
365.412	149.84
365.623	-46.76
365.834	61.78
366.045	51.54
366.256	112.98
366.467	63.83
366.678	16.73
366.889	35.16
367.1	123.22
367.311	67.92
367.522	63.83
367.733	86.36
367.944	100.69
368.155	26.96
368.366	100.69
368.577	63.83
368.788	88.4
368.999	12.63
369.209	2.39
369.42	129.36
369.631	180.56
369.842	45.4
370.053	18.77
370.264	164.18
370.474	-65.19
370.685	33.11
370.896	6.49
371.107	117.08
371.317	12.63
371.528	-3.75
371.739	143.7
371.95	98.64
372.16	82.26
372.371	-18.09
372.582	49.49
372.792	-1.71
373.003	0.34
373.214	16.73
373.424	151.89
373.635	-5.8
373.846	94.55
374.056	-22.19
374.267	-24.23
374.477	74.07
374.688	10.58
374.898	22.87
375.109	6.49
375.319	53.59
375.53	135.51
375.74	43.35
375.951	53.59
376.161	20.82
376.372	106.84
376.582	-16.04
376.793	78.16
377.003	-48.81
377.214	18.77
377.424	39.25
377.635	76.12
377.845	47.44
378.055	104.79
378.266	-34.47
378.476	8.53
378.686	-9.9
378.897	8.53
379.107	92.5
379.317	92.5
379.528	43.35
379.738	59.73
379.948	-22.19
380.158	129.36
380.369	53.59
380.579	20.82
380.789	67.92
380.999	145.75
381.21	117.08
381.42	43.35
381.63	-5.8
381.84	8.53
382.05	78.16
382.261	86.36
382.471	88.4
382.681	-52.91
382.891	127.32
383.101	84.31
383.311	-16.04
383.521	-7.85
383.731	14.68
383.941	151.89
384.151	-20.14
384.361	-32.43
384.571	67.92
384.781	49.49
384.991	172.37
385.201	198.99
385.411	92.5
385.621	82.26
385.831	4.44
386.041	-13.99
386.251	-22.19
386.461	-11.95
386.671	-24.23
386.881	37.2
387.091	-36.52
387.301	110.93
387.511	53.59
387.72	80.21
387.93	57.68
388.14	-30.38
388.35	-32.43
388.56	139.6
388.769	84.31
388.979	20.82
389.189	-54.95
389.399	-44.71
389.609	69.97
389.818	168.27
390.028	12.63
390.238	20.82
390.447	-77.48
390.657	76.12
390.867	12.63
391.076	-7.85
391.286	37.2
391.496	8.53
391.705	-73.39
391.915	151.89
392.125	78.16
392.334	10.58
392.544	65.88
392.753	39.25
392.963	-28.33
393.172	8.53
393.382	53.59
393.591	123.22
393.801	92.5
394.01	160.08
394.22	84.31
394.429	10.58
394.639	43.35
394.848	72.02
395.058	49.49
395.267	-28.33
395.477	112.98
395.686	88.4
395.895	147.8
396.105	194.9
396.314	16.73
396.524	84.31
396.733	0.34
396.942	100.69
397.152	123.22
397.361	117.08
397.57	18.77
397.78	51.54
397.989	74.07
398.198	160.08
398.407	49.49
398.617	-11.95
398.826	43.35
399.035	86.36
399.244	184.66
399.453	59.73
399.663	69.97
399.872	117.08
400.081	47.44
400.29	112.98
400.499	-28.33
400.708	135.51
400.917	-42.67
401.127	37.2
401.336	29.01
401.545	205.14
401.754	67.92
401.963	149.84
402.172	37.2
402.381	35.16
402.59	72.02
402.799	20.82
403.008	149.84
403.217	67.92
403.426	59.73
403.635	-63.15
403.844	-7.85
404.053	72.02
404.262	74.07
404.471	110.93
404.68	119.12
404.888	-20.14
405.097	88.4
405.306	26.96
405.515	94.55
405.724	29.01
405.933	94.55
406.142	8.53
406.35	92.5
406.559	53.59
406.768	16.73
406.977	98.64
407.185	72.02
407.394	100.69
407.603	-16.04
407.812	37.2
408.02	16.73
408.229	47.44
408.438	8.53
408.646	-48.81
408.855	6.49
409.064	63.83
409.272	20.82
409.481	45.4
409.69	2.39
409.898	-5.8
410.107	69.97
410.315	59.73
410.524	20.82
410.733	4.44
410.941	6.49
411.15	26.96
411.358	49.49
411.567	135.51
411.775	-34.47
411.984	65.88
412.192	76.12
412.401	20.82
412.609	98.64
412.818	98.64
413.026	37.2
413.234	33.11
413.443	-1.71
413.651	-40.62
413.86	84.31
414.068	98.64
414.276	78.16
414.485	-11.95
414.693	139.6
414.901	65.88
415.11	102.74
415.318	63.83
415.526	-20.14
415.734	45.4
415.943	90.45
416.151	147.8
416.359	-3.75
416.567	63.83
416.776	24.92
416.984	61.78
417.192	127.32
417.4	-13.99
417.608	67.92
417.817	-52.91
418.025	4.44
418.233	108.88
418.441	-11.95
418.649	16.73
418.857	26.96
419.065	143.7
419.273	-7.85
419.481	29.01
419.689	18.77
419.897	29.01
420.105	-59.05
420.313	88.4
420.521	194.9
420.729	135.51
420.937	12.63
421.145	-26.28
421.353	61.78
421.561	84.31
421.769	14.68
421.977	57.68
422.185	117.08
422.393	4.44
422.601	92.5
422.809	35.16
423.017	12.63
423.224	57.68
423.432	125.27
423.64	26.96
423.848	135.51
424.056	-24.23
424.263	110.93
424.471	26.96
424.679	135.51
424.887	18.77
425.094	123.22
425.302	37.2
425.51	12.63
425.718	74.07
425.925	92.5
426.133	-67.24
426.341	209.23
426.548	2.39
426.756	65.88
426.964	76.12
427.171	-26.28
427.379	102.74
427.586	18.77
427.794	35.16
428.001	117.08
428.209	43.35
428.417	151.89
428.624	53.59
428.832	72.02
429.039	90.45
429.247	2.39
429.454	57.68
429.662	178.51
429.869	74.07
430.076	57.68
430.284	94.55
430.491	139.6
430.699	57.68
430.906	123.22
431.114	110.93
431.321	37.2
431.528	39.25
431.736	69.97
431.943	47.44
432.15	131.41
432.358	33.11
432.565	166.23
432.772	-24.23
432.979	149.84
433.187	24.92
433.394	102.74
433.601	78.16
433.808	135.51
434.016	207.19
434.223	82.26
434.43	139.6
434.637	264.53
434.844	168.27
435.052	121.17
435.259	170.32
435.466	215.38
435.673	174.42
435.88	227.67
436.087	127.32
436.294	176.47
436.501	192.85
436.708	106.84
436.915	211.28
437.122	201.04
437.329	168.27
437.537	180.56
437.743	162.13
437.95	198.99
438.157	221.52
438.364	225.62
438.571	127.32
438.778	266.58
438.985	205.14
439.192	307.54
439.399	170.32
439.606	244.05
439.813	297.3
440.02	293.2
440.227	350.54
440.433	313.68
440.64	295.25
440.847	190.8
441.054	360.78
441.261	432.46
441.467	289.1
441.674	225.62
441.881	356.69
442.088	289.1
442.294	401.74
442.501	399.7
442.708	471.37
442.914	395.6
443.121	373.07
443.328	422.22
443.534	467.28
443.741	373.07
443.948	375.12
444.154	371.02
444.361	661.84
444.568	538.96
444.774	543.05
444.981	428.37
445.187	581.96
445.394	549.2
445.6	461.13
445.807	627.02
446.013	571.72
446.22	428.37
446.426	641.36
446.633	629.07
446.839	848.2
447.046	581.96
447.252	696.65
447.459	758.09
447.665	751.95
447.871	825.67
448.078	880.97
448.284	964.93
448.491	969.03
448.697	942.41
448.903	1007.94
449.11	928.07
449.316	952.65
449.522	977.22
449.728	1032.52
449.935	1190.21
450.141	1085.76
450.347	1294.66
450.553	1122.63
450.76	1212.74
450.966	1198.4
451.172	1286.47
451.378	1397.06
451.584	1419.58
451.791	1550.65
451.997	1548.61
452.203	1556.8
452.409	1630.52
452.615	1741.11
452.821	1618.24
453.027	1753.4
453.233	1896.76
453.44	1888.57
453.646	1976.63
453.852	2074.93
454.058	2074.93
454.264	2259.25
454.47	2253.11
454.676	2134.32
454.882	2494.77
455.088	2412.85
455.294	2507.06
455.5	2668.84
455.705	2756.91
455.911	2814.25
456.117	2869.55
456.323	3004.71
456.529	2957.61
456.735	3252.52
456.941	3377.44
457.147	3440.93
457.352	3625.25
457.558	3623.2
457.764	3981.59
457.97	3946.78
458.176	4131.09
458.381	4313.36
458.587	4436.24
458.793	4714.77
458.999	4534.54
459.204	5292.29
459.41	5388.55
459.616	5265.67
459.821	5634.3
460.027	5945.59
460.233	6140.15
460.438	6215.93
460.644	6574.32
460.85	6516.98
461.055	6772.97
461.261	7094.51
461.466	7026.92
461.672	6949.1
461.878	8065.24
462.083	7758.05
462.289	8040.67
462.494	8401.11
462.7	8581.33
462.905	8519.89
463.111	9375.94
463.316	9615.55
463.522	9969.85
463.727	10160.31
463.932	10737.84
464.138	10913.97
464.343	11350.18
464.549	11325.61
464.754	12030.11
464.959	12687.51
465.165	12939.41
465.37	12978.32
465.575	12478.61
465.781	13541.51
465.986	13971.58
466.191	13891.71
466.397	13840.51
466.602	13805.7
466.807	14512.25
467.012	14735.48
467.218	14983.28
467.423	14944.37
467.628	15405.16
467.833	15962.21
468.038	15933.54
468.244	15597.67
468.449	16492.63
468.654	16228.45
468.859	15974.5
469.064	16310.36
469.269	15698.02
469.474	16351.32
469.679	16457.82
469.885	16253.02
470.09	16236.64
470.295	16363.61
470.5	15994.98
470.705	16339.04
470.91	15837.28
471.115	15626.34
471.32	15761.51
471.525	15800.42
471.73	15667.3
471.935	15270
472.139	14692.47
472.344	14688.37
472.549	14723.19
472.754	14465.14
472.959	14252.16
473.164	13820.03
473.369	13648.01
473.574	13918.34
473.778	13553.8
473.983	13500.55
474.188	13050
474.393	12728.47
474.598	12634.26
474.802	12419.22
475.007	11806.88
475.212	12003.49
475.417	11227.31
475.621	11597.99
475.826	11165.87
476.031	10842.29
476.235	10823.86
476.44	10844.34
476.645	10268.86
476.849	10158.27
477.054	10199.23
477.259	10037.44
477.463	9906.37
477.668	9734.34
477.872	9513.16
478.077	9357.51
478.282	9093.32
478.486	9087.18
478.691	9064.65
478.895	8808.65
479.1	8822.99
479.304	8722.64
479.509	8368.34
479.713	8421.59
479.918	8177.88
480.122	8143.07
480.326	8192.22
480.531	8038.62
480.735	8020.19
480.94	7813.34
481.144	8171.74
481.348	7721.18
481.553	7678.18
481.757	7577.83
481.961	7618.79
482.166	7608.55
482.37	7602.4
482.574	7323.88
482.778	7393.51
482.983	7395.56
483.187	7278.82
483.391	7344.36
483.595	7170.28
483.8	6992.11
484.004	7160.04
484.208	6994.15
484.412	7041.26
484.616	6918.38
484.821	6861.04
485.025	6537.46
485.229	6598.9
485.433	6482.16
485.637	6625.52
485.841	6320.37
486.045	6308.09
486.249	6308.09
486.453	5998.84
486.657	6088.95
486.861	5972.22
487.065	5603.58
487.269	5943.55
487.473	5650.69
487.677	5650.69
487.881	5679.36
488.085	5404.93
488.289	5290.24
488.493	5193.99
488.697	5214.47
488.901	5060.87
489.105	5075.21
489.309	5036.3
489.512	4964.62
489.716	4739.34
489.92	4630.8
490.124	4720.91
490.328	4587.79
490.531	4356.37
490.735	4364.56
490.939	4235.54
491.143	4184.34
491.346	4118.81
491.55	4075.8
491.754	3877.15
491.958	3854.62
492.161	3809.56
492.365	3838.23
492.569	3909.91
492.772	3588.38
492.976	3719.45
493.18	3514.66
493.383	3473.7
493.587	3496.22
493.79	3438.88
493.994	3207.46
494.197	3189.03
494.401	3156.26
494.605	3189.03
494.808	3178.79
495.012	3189.03
495.215	3160.36
495.419	3064.1
495.622	3096.87
495.825	2867.5
496.029	3051.81
496.232	3031.34
496.436	2855.21
496.639	3076.39
496.843	2787.63
497.046	2851.11
497.249	3074.34
497.453	2838.83
497.656	2840.87
497.859	2904.36
498.063	2840.87
498.266	2867.5
498.469	2820.39
498.673	2810.15
498.876	2912.55
499.079	2892.07
499.282	2797.87
499.485	3025.19
499.689	2892.07
499.892	2887.98
500.095	2871.59
500.298	2832.68
500.501	2904.36
500.705	2892.07
500.908	2969.9
501.111	2904.36
501.314	3111.21
501.517	3049.77
501.72	2961.7
501.923	2957.61
502.126	3068.2
502.329	3246.37
502.532	3162.41
502.735	3035.43
502.938	3305.76
503.141	3107.11
503.344	3215.65
503.547	3264.8
503.75	3100.97
503.953	3182.88
504.156	3203.36
504.359	3305.76
504.562	3223.84
504.765	3391.78
504.968	3471.65
505.17	3488.03
505.373	3526.94
505.576	3526.94
505.779	3774.75
505.982	3524.9
506.185	3789.08
506.387	3821.85
506.59	3985.69
506.793	3920.15
506.996	3848.47
507.198	4063.51
507.401	4145.43
507.604	4333.84
507.807	4290.84
508.009	4360.47
508.212	4505.87
508.415	4473.11
508.617	4581.65
508.82	4636.94
509.022	4737.29
509.225	4968.71
509.428	4847.88
509.63	4944.14
509.833	5013.77
510.035	5298.44
510.238	5445.89
510.44	5357.83
510.643	5589.25
510.845	5687.55
511.048	5763.33
511.25	5738.75
511.453	6043.9
511.655	6455.54
511.858	6359.28
512.06	6330.61
512.262	6621.42
512.465	6715.63
512.667	6902
512.87	6998.25
513.072	7250.15
513.274	7442.66
513.477	7399.65
513.679	7551.2
513.881	7905.5
514.084	8112.35
514.286	8155.35
514.488	8556.75
514.69	8691.92
514.893	8736.98
515.095	8872.14
515.297	8976.59
515.499	9160.91
515.701	9326.79
515.904	9803.97
516.106	9945.28
516.308	10121.4
516.51	10258.62
516.712	10467.51
516.914	10868.91
517.116	11026.61
517.318	11096.24
517.52	11321.51
517.722	11444.39
517.925	11827.36
518.127	12112.03
518.329	12433.56
518.531	12476.57
518.733	12748.95
518.935	12947.6
519.136	13271.18
519.338	13187.21
519.54	13617.29
519.742	14149.76
519.944	14280.83
520.146	14274.68
520.348	14307.45
520.55	15173.74
520.752	14741.62
520.954	15143.02
521.155	15313
521.357	15863.91
521.559	15888.48
521.761	16341.08
521.963	16326.75
522.164	16353.37
522.366	16511.07
522.568	16689.24
522.77	17021.01
522.971	17125.46
523.173	17236.05
523.375	17711.18
523.576	17555.53
523.778	17576.01
523.98	17963.08
524.181	17877.06
524.383	17940.55
524.584	18397.24
524.786	18141.25
524.988	18194.5
525.189	18348.09
525.391	18260.03
525.592	18505.79
525.794	18769.97
525.995	18554.94
526.197	18624.57
526.398	18790.45
526.6	18636.86
526.801	18700.34
527.003	18374.72
527.204	18591.8
527.406	18737.21
527.607	18692.15
527.808	18591.8
528.01	18413.63
528.211	18200.64
528.412	18221.12
528.614	18542.65
528.815	18395.2
529.016	18298.94
529.218	17858.63
529.419	17809.48
529.62	17862.72
529.822	17469.51
530.023	17619.02
530.224	17412.17
530.425	17164.37
530.626	16799.83
530.828	16891.99
531.029	16875.6
531.23	16543.83
531.431	16353.37
531.632	16054.37
531.833	16382.04
532.035	15960.16
532.236	15648.87
532.437	15552.62
532.638	15603.82
532.839	15220.85
533.04	15280.24
533.241	14846.07
533.442	14923.89
533.643	14690.42
533.844	14440.57
534.045	14362.75
534.246	13908.1
534.447	13934.72
534.648	13625.48
534.849	13641.86
535.05	13240.46
535.251	13004.94
535.451	13013.13
535.652	12867.73
535.853	12404.89
536.054	12697.75
536.255	12398.74
536.456	12312.73
536.657	12163.23
536.857	11808.93
537.058	11804.83
537.259	11432.1
537.46	11239.59
537.66	10997.93
537.861	11186.35
538.062	11186.35
538.263	10750.13
538.463	10743.99
538.664	10698.93
538.865	10145.98
539.065	10217.66
539.266	10080.44
539.466	9973.95
539.667	9863.36
539.868	10213.56
540.068	9648.32
540.269	9556.16
540.469	9474.24
540.67	9490.63
540.87	9459.91
541.071	9097.42
541.271	9242.82
541.472	8990.92
541.672	8982.73
541.873	8847.57
542.073	8653.01
542.274	8646.87
542.474	8437.97
542.675	8392.92
542.875	8243.42
543.075	8020.19
543.276	7985.37
543.476	8108.25
543.676	7897.31
543.877	7885.02
544.077	7829.73
544.277	7801.05
544.478	7600.35
544.678	7569.63
544.878	7463.14
545.078	7196.9
545.279	7049.45
545.479	7004.39
545.679	7071.98
545.879	6983.91
546.079	6877.42
546.28	6736.11
546.48	6705.39
546.68	6793.45
546.88	6566.13
547.08	6559.99
547.28	6549.75
547.48	6318.32
547.68	6189.3
547.88	6111.48
548.081	6269.17
548.281	6066.42
548.481	6004.99
548.681	5925.11
548.881	5820.67
549.081	5781.76
549.28	5685.5
549.48	5751.04
549.68	5611.78
549.88	5519.62
550.08	5339.4
550.28	5425.41
550.48	5343.49
550.68	5312.77
550.88	5089.54
551.08	5087.5
551.279	4948.23
551.479	4833.55
551.679	4884.75
551.879	4739.34
552.079	4704.53
552.278	4661.52
552.478	4679.95
552.678	4567.31
552.878	4573.46
553.077	4364.56
553.277	4170.01
553.477	4339.99
553.676	4198.68
553.876	4206.87
554.076	4038.94
554.275	4043.03
554.475	3811.61
554.674	3922.2
554.874	3834.14
555.074	3553.57
555.273	3793.18
555.473	3598.62
555.672	3496.22
555.872	3576.09
556.071	3500.32
556.271	3465.5
556.47	3285.28
556.67	3223.84
556.869	3203.36
557.068	3164.45
557.268	3141.93
557.467	3082.53
557.667	3082.53
557.866	3006.76
558.065	2875.69
558.265	2928.94
558.464	2689.32
558.663	2662.7
558.863	2834.73
559.062	2812.2
559.261	2703.66
559.461	2732.33
559.66	2490.67
559.859	2414.9
560.058	2519.34
560.258	2359.6
560.457	2386.22
560.656	2449.71
560.855	2255.15
561.054	2320.69
561.253	2236.72
561.453	2402.61
561.652	2203.96
561.851	2347.31
562.05	2076.98
562.249	1984.82
562.448	2050.36
562.647	1974.58
562.846	1993.01
563.045	1958.2
563.244	1825.08
563.443	1900.86
563.642	1900.86
563.841	1902.9
564.04	1810.75
564.239	1749.31
564.438	1708.35
564.637	1630.52
564.836	1712.44
565.035	1579.33
565.234	1569.09
565.432	1595.71
565.631	1651
565.83	1511.74
566.029	1483.07
566.228	1487.17
566.427	1511.74
566.625	1407.3
566.824	1509.69
567.023	1433.92
567.222	1507.65
567.42	1397.06
567.619	1452.35
567.818	1397.06
568.016	1386.82
568.215	1257.79
568.414	1274.18
568.612	1319.23
568.811	1192.26
569.01	1243.46
569.208	1151.3
569.407	1100.1
569.605	1175.88
569.804	1175.88
570.002	1270.08
570.201	1100.1
570.4	1147.2
570.598	1005.89
570.797	1065.29
570.995	1061.19
571.193	1024.33
571.392	1102.15
571.59	891.21
571.789	1042.76
571.987	973.13
572.186	942.41
572.384	926.02
572.582	872.78
572.781	1028.42
572.979	825.67
573.177	897.35
573.376	821.58
573.574	950.6
573.772	790.86
573.971	743.75
574.169	731.47
574.367	792.91
574.565	821.58
574.763	835.91
574.962	844.1
575.16	825.67
575.358	694.6
575.556	672.08
575.754	758.09
575.952	696.65
576.151	766.28
576.349	762.19
576.547	549.2
576.745	739.66
576.943	659.79
577.141	602.44
577.339	577.87
577.537	575.82
577.735	598.35
577.933	659.79
578.131	510.29
578.329	670.03
578.527	579.92
578.725	551.24
578.923	567.63
579.121	657.74
579.319	538.96
579.516	493.9
579.714	665.93
579.912	627.02
580.11	440.65
580.308	459.09
580.506	520.53
580.704	428.37
580.901	444.75
581.099	495.95
581.297	448.85
581.495	483.66
581.692	405.84
581.89	579.92
582.088	391.5
582.285	428.37
582.483	403.79
582.681	422.22
582.878	416.08
583.076	465.23
583.274	454.99
583.471	452.94
583.669	356.69
583.866	295.25
584.064	225.62
584.262	289.1
584.459	311.63
584.657	368.98
584.854	373.07
585.052	346.45
585.249	414.03
585.447	307.54
585.644	270.67
585.841	409.94
586.039	405.84
586.236	393.55
586.434	364.88
586.631	276.82
586.828	325.97
587.026	262.48
587.223	270.67
587.42	242
587.618	244.05
587.815	344.4
588.012	274.77
588.21	198.99
588.407	321.87
588.604	381.26
588.801	237.91
588.999	264.53
589.196	315.73
589.393	184.66
589.59	242
589.787	280.91
589.984	305.49
590.182	270.67
590.379	207.19
590.576	147.8
590.773	282.96
590.97	258.39
591.167	225.62
591.364	274.77
591.561	233.81
591.758	360.78
591.955	307.54
592.152	272.72
592.349	209.23
592.546	258.39
592.743	250.19
592.94	188.75
593.137	221.52
593.334	250.19
593.531	352.59
593.727	276.82
593.924	299.34
594.121	233.81
594.318	203.09
594.515	301.39
594.712	319.82
594.908	270.67
595.105	192.85
595.302	285.01
595.499	301.39
595.696	381.26
595.892	219.47
596.089	309.58
596.286	250.19
596.482	416.08
596.679	282.96
596.876	213.33
597.072	289.1
597.269	328.02
597.466	391.5
597.662	282.96
597.859	274.77
598.055	299.34
598.252	323.92
598.448	389.46
598.645	348.5
598.841	463.18
599.038	469.33
599.234	495.95
599.431	440.65
599.627	440.65
599.824	366.93
600.02	520.53
600.217	500.05
600.413	508.24
600.609	479.57
600.806	733.51
601.002	586.06
601.198	536.91
601.395	713.03
601.591	522.57
601.787	774.47
601.984	676.17
602.18	829.77
602.376	753.99
602.572	762.19
602.769	854.34
602.965	803.15
603.161	856.39
603.357	872.78
603.553	942.41
603.75	831.82
603.946	948.55
604.142	1030.47
604.338	1120.58
604.534	973.13
604.73	1030.47
604.926	1139.01
605.122	1237.31
605.318	1124.68
605.514	1208.64
605.71	1286.47
605.906	1311.04
606.102	1411.39
606.298	1468.73
606.494	1380.67
606.69	1577.28
606.886	1448.26
607.082	1528.13
607.278	1507.65
607.474	1689.92
607.67	1739.07
607.866	1642.81
608.062	1763.64
608.257	1769.79
608.453	1765.69
608.649	1964.34
608.845	2029.88
609.041	1970.49
609.236	2132.28
609.432	2122.04
609.628	2285.87
609.824	2353.46
610.019	2232.63
610.215	2380.08
610.411	2431.28
610.606	2564.4
610.802	2500.91
610.998	2617.65
611.193	2576.69
611.389	2545.97
611.584	2992.42
611.78	2726.19
611.976	2935.08
612.171	3172.64
612.367	3150.12
612.562	3098.92
612.758	3281.19
612.953	3189.03
613.149	3369.25
613.344	3539.23
613.539	3506.46
613.735	3612.96
613.93	3658.01
614.126	3725.6
614.321	3946.78
614.517	4014.36
614.712	4165.91
614.907	4319.51
615.103	4407.57
615.298	4505.87
615.493	4534.54
615.688	4380.95
615.884	4784.4
616.079	4804.88
616.274	5040.39
616.47	4983.05
616.665	5144.84
616.86	5372.16
617.055	5435.65
617.25	5611.78
617.445	5792
617.641	5847.29
617.836	6021.37
618.031	6230.26
618.226	6390
618.421	6478.07
618.616	6742.25
618.811	6639.86
619.006	6836.46
619.201	7094.51
619.396	7147.75
619.591	7217.38
619.786	7688.42
619.981	7727.33
620.176	7901.4
620.371	7837.92
620.566	7946.46
620.761	8554.71
620.956	8607.95
621.151	8501.46
621.346	8716.5
621.541	8947.92
621.735	9269.45
621.93	9212.1
622.125	9607.36
622.32	9584.84
622.515	9871.55
622.709	10019
622.904	10129.59
623.099	10272.95
623.294	10590.39
623.488	10854.58
623.683	11157.68
623.878	10930.35
624.072	11473.06
624.267	11397.29
624.462	11651.24
624.656	11688.1
624.851	12009.63
625.046	12159.13
625.24	12353.69
625.435	12513.43
625.629	12660.88
625.824	12800.15
626.018	13172.88
626.213	12830.87
626.407	13191.31
626.602	13273.23
626.796	13762.69
626.991	13873.28
627.185	13705.35
627.38	13992.06
627.574	14108.8
627.768	14182.52
627.963	14196.86
628.157	14370.94
628.352	14436.47
628.546	14313.59
628.74	14559.35
628.935	14528.63
629.129	14706.8
629.323	14725.24
629.517	14633.08
629.712	14309.5
629.906	14526.58
630.1	14221.44
630.294	14372.99
630.489	14016.64
630.683	14090.37
630.877	13695.11
631.071	13668.48
631.265	13381.77
631.459	13060.24
631.653	12970.13
631.848	12748.95
632.042	12431.51
632.236	12230.81
632.43	11985.05
632.624	11776.16
632.818	11571.36
633.012	11012.27
633.206	10619.06
633.4	10426.55
633.594	9986.24
633.788	9785.54
633.982	9515.2
634.176	9142.47
634.369	8882.38
634.563	8403.16
634.757	8171.74
634.951	7997.66
635.145	7651.55
635.339	7221.48
635.533	7014.63
635.726	7002.35
635.92	6713.58
636.114	6303.99
636.308	5818.62
636.501	5738.75
636.695	5478.66
636.889	5165.32
637.083	5128.46
637.276	4845.84
637.47	4661.52
637.664	4450.58
637.857	4237.59
638.051	4176.15
638.244	3907.87
638.438	3766.56
638.632	3803.42
638.825	3551.52
639.019	3455.26
639.212	3086.63
639.406	3154.21
639.599	3019.05
639.793	2861.35
639.986	2775.34
640.18	2767.15
640.373	2523.44
640.567	2519.34
640.76	2373.94
640.954	2298.16
641.147	2148.66
641.34	2048.31
641.534	2027.83
641.727	2068.79
641.92	1870.14
642.114	1820.99
642.307	1747.26
642.5	1687.87
642.694	1546.56
642.887	1560.89
643.08	1560.89
643.273	1495.36
643.467	1364.29
643.66	1362.24
643.853	1304.9
644.046	1298.75
644.239	1225.03
644.432	1036.61
644.626	1122.63
644.819	1145.16
645.012	1032.52
645.205	1020.23
645.398	950.6
645.591	930.12
645.784	823.62
645.977	856.39
646.17	823.62
646.363	827.72
646.556	631.12
646.749	672.08
646.942	737.61
647.135	747.85
647.328	610.64
647.521	602.44
647.714	526.67
647.907	586.06
648.099	541.01
648.292	532.81
648.485	575.82
648.678	536.91
648.871	452.94
649.064	479.57
649.256	426.32
649.449	430.41
649.642	411.98
649.835	405.84
650.027	319.82
650.22	446.8
650.413	346.45
650.605	395.6
650.798	338.26
650.991	301.39
651.183	211.28
651.376	368.98
651.568	348.5
651.761	323.92
651.954	266.58
652.146	338.26
652.339	280.91
652.531	354.64
652.724	143.7
652.916	254.29
653.109	69.97
653.301	297.3
653.494	229.71
653.686	239.95
653.879	254.29
654.071	172.37
654.263	139.6
654.456	184.66
654.648	352.59
654.84	231.76
655.033	121.17
655.225	242
655.417	24.92
655.61	207.19
655.802	229.71
655.994	276.82
656.186	106.84
656.379	225.62
656.571	102.74
656.763	139.6
656.955	182.61
657.148	131.41
657.34	151.89
657.532	160.08
657.724	131.41
657.916	92.5
658.108	184.66
658.3	143.7
658.492	205.14
658.684	84.31
658.876	274.77
659.068	47.44
659.26	57.68
659.452	-1.71
659.644	121.17
659.836	244.05
660.028	117.08
660.22	153.94
660.412	98.64
660.604	92.5
660.796	143.7
660.988	176.47
661.18	125.27
661.372	94.55
661.563	102.74
661.755	121.17
661.947	-5.8
662.139	41.3
662.331	88.4
662.522	112.98
662.714	45.4
662.906	49.49
663.097	61.78
663.289	92.5
663.481	33.11
663.673	82.26
663.864	164.18
664.056	72.02
664.247	78.16
664.439	131.41
664.631	57.68
664.822	162.13
665.014	51.54
665.205	108.88
665.397	108.88
665.588	37.2
665.78	98.64
665.971	190.8
666.163	37.2
666.354	145.75
666.546	-18.09
666.737	37.2
666.929	53.59
667.12	22.87
667.311	217.43
667.503	67.92
667.694	110.93
667.885	135.51
668.077	98.64
668.268	33.11
668.459	131.41
668.651	149.84
668.842	164.18
669.033	20.82
669.224	24.92
669.416	276.82
669.607	108.88
669.798	82.26
669.989	147.8
670.18	8.53
670.371	78.16
670.563	-13.99
670.754	123.22
670.945	90.45
671.136	112.98
671.327	20.82
671.518	203.09
671.709	205.14
671.9	86.36
672.091	160.08
672.282	90.45
672.473	88.4
672.664	69.97
672.855	45.4
673.046	139.6
673.237	149.84
673.428	80.21
673.619	147.8
673.809	170.32
674	184.66
674.191	203.09
674.382	112.98
674.573	88.4
674.764	72.02
674.954	168.27
675.145	51.54
675.336	110.93
675.527	45.4
675.717	74.07
675.908	29.01
676.099	-5.8
676.289	127.32
676.48	43.35
676.671	41.3
676.861	61.78
677.052	127.32
677.243	92.5
677.433	69.97
677.624	168.27
677.814	143.7
678.005	149.84
678.195	131.41
678.386	78.16
678.576	65.88
678.767	67.92
678.957	172.37
679.148	137.56
679.338	213.33
679.529	182.61
679.719	24.92
679.909	209.23
680.1	176.47
680.29	145.75
680.481	135.51
680.671	196.95
680.861	110.93
681.052	141.65
681.242	94.55
681.432	117.08
681.622	65.88
681.813	26.96
682.003	94.55
682.193	37.2
682.383	139.6
682.573	110.93
682.764	92.5
682.954	106.84
683.144	201.04
683.334	67.92
683.524	180.56
683.714	141.65
683.904	188.75
684.094	168.27
684.284	141.65
684.474	242
684.664	291.15
684.854	133.46
685.044	115.03
685.234	49.49
685.424	184.66
685.614	92.5
685.804	248.15
685.994	219.47
686.184	213.33
686.374	133.46
686.564	121.17
686.753	164.18
686.943	139.6
687.133	192.85
687.323	131.41
687.513	139.6
687.702	139.6
687.892	104.79
688.082	201.04
688.272	266.58
688.461	135.51
688.651	321.87
688.841	117.08
689.03	49.49
689.22	123.22
689.41	153.94
689.599	213.33
689.789	127.32
689.979	205.14
690.168	135.51
690.358	256.34
690.547	168.27
690.737	184.66
690.926	139.6
691.116	219.47
691.305	194.9
691.495	184.66
691.684	117.08
691.874	115.03
692.063	127.32
692.252	242
692.442	250.19
692.631	80.21
692.82	90.45
693.01	137.56
693.199	129.36
693.388	188.75
693.578	119.12
693.767	196.95
693.956	153.94
694.146	106.84
694.335	211.28
694.524	155.99
694.713	172.37
694.902	147.8
695.092	125.27
695.281	125.27
695.47	96.6
695.659	123.22
695.848	86.36
696.037	33.11
696.226	133.46
696.415	110.93
696.604	221.52
696.793	115.03
696.982	123.22
697.171	190.8
697.36	162.13
697.549	180.56
697.738	53.59
697.927	176.47
698.116	115.03
698.305	168.27
698.494	172.37
698.683	100.69
698.872	233.81
699.061	63.83
699.25	139.6
699.438	96.6
699.627	155.99
699.816	256.34
700.005	65.88
700.193	121.17
700.382	221.52
700.571	215.38
700.76	209.23
700.948	143.7
701.137	127.32
701.326	155.99
701.514	12.63
701.703	110.93
701.892	162.13
702.08	291.15
702.269	137.56
702.457	123.22
702.646	127.32
702.834	102.74
703.023	215.38
703.212	209.23
703.4	172.37
703.589	182.61
703.777	119.12
703.965	51.54
704.154	127.32
704.342	29.01
704.531	115.03
704.719	110.93
704.907	168.27
705.096	53.59
705.284	86.36
705.472	69.97
705.661	115.03
705.849	100.69
706.037	221.52
706.226	88.4
706.414	106.84
706.602	26.96
706.79	233.81
706.979	115.03
707.167	190.8
707.355	82.26
707.543	194.9
707.731	74.07
707.919	90.45
708.107	92.5
708.296	78.16
708.484	92.5
708.672	155.99
708.86	158.03
709.048	145.75
709.236	121.17
709.424	153.94
709.612	198.99
709.8	125.27
709.988	164.18
710.176	190.8
710.364	190.8
710.551	205.14
710.739	94.55
710.927	176.47
711.115	172.37
711.303	213.33
711.491	207.19
711.679	35.16
711.866	174.42
712.054	133.46
712.242	235.86
712.43	211.28
712.617	153.94
712.805	112.98
712.993	139.6
713.181	82.26
713.368	213.33
713.556	131.41
713.744	92.5
713.931	307.54
714.119	174.42
714.306	129.36
714.494	147.8
714.682	82.26
714.869	84.31
715.057	141.65
715.244	8.53
715.432	86.36
715.619	92.5
715.807	151.89
715.994	82.26
716.182	110.93
716.369	174.42
716.556	166.23
716.744	74.07
716.931	86.36
717.119	74.07
717.306	166.23
717.493	143.7
717.681	53.59
717.868	94.55
718.055	213.33
718.242	160.08
718.43	176.47
718.617	151.89
718.804	94.55
718.991	176.47
719.179	233.81
719.366	184.66
719.553	172.37
719.74	248.15
719.927	108.88
720.114	233.81
720.301	35.16
720.488	133.46
720.676	63.83
720.863	168.27
721.05	235.86
721.237	209.23
721.424	278.87
721.611	112.98
721.798	131.41
721.985	121.17
722.172	135.51
722.358	153.94
722.545	153.94
722.732	174.42
722.919	246.1
723.106	272.72
723.293	151.89
723.48	194.9
723.667	145.75
723.853	291.15
724.04	256.34
724.227	174.42
724.414	162.13
724.6	155.99
724.787	287.06
724.974	262.48
725.161	119.12
725.347	69.97
725.534	233.81
725.72	237.91
725.907	233.81
726.094	196.95
726.28	90.45
726.467	115.03
726.653	110.93
726.84	328.02
727.027	321.87
727.213	256.34
727.4	250.19
727.586	147.8
727.773	168.27
727.959	141.65
728.145	246.1
728.332	166.23
728.518	151.89
728.705	194.9
728.891	172.37
729.077	176.47
729.264	135.51
729.45	252.24
729.636	248.15
729.823	274.77
730.009	188.75
730.195	190.8
730.382	258.39
730.568	117.08
730.754	254.29
730.94	96.6
731.126	188.75
731.313	233.81
731.499	196.95
731.685	270.67
731.871	242
732.057	315.73
732.243	282.96
732.429	186.71
732.615	295.25
732.801	272.72
732.987	176.47
733.173	201.04
733.359	174.42
733.545	309.58
733.731	225.62
733.917	311.63
734.103	192.85
734.289	205.14
734.475	213.33
734.661	383.31
734.847	287.06
735.033	237.91
735.219	217.43
735.404	147.8
735.59	137.56
735.776	172.37
735.962	221.52
736.148	287.06
736.333	362.83
736.519	282.96
736.705	201.04
736.89	282.96
737.076	162.13
737.262	135.51
737.447	117.08
737.633	205.14
737.819	276.82
738.004	184.66
738.19	264.53
738.375	315.73
738.561	229.71
738.747	258.39
738.932	194.9
739.118	366.93
739.303	346.45
739.489	211.28
739.674	182.61
739.859	137.56
740.045	272.72
740.23	176.47
740.416	96.6
740.601	266.58
740.786	231.76
740.972	225.62
741.157	201.04
741.342	133.46
741.528	102.74
741.713	237.91
741.898	207.19
742.084	270.67
742.269	242
742.454	244.05
742.639	239.95
742.824	235.86
743.01	350.54
743.195	328.02
743.38	160.08
743.565	254.29
743.75	307.54
743.935	362.83
744.12	280.91
744.305	125.27
744.49	196.95
744.675	190.8
744.86	174.42
745.045	201.04
745.23	217.43
745.415	198.99
745.6	315.73
745.785	141.65
745.97	360.78
746.155	307.54
746.34	313.68
746.525	235.86
746.71	264.53
746.895	149.84
747.079	92.5
747.264	203.09
747.449	242
747.634	278.87
747.819	168.27
748.003	164.18
748.188	188.75
748.373	190.8
748.557	203.09
748.742	207.19
748.927	155.99
749.111	207.19
749.296	149.84
749.481	258.39
749.665	233.81
749.85	196.95
750.034	250.19
750.219	211.28
750.404	110.93
750.588	225.62
750.773	145.75
750.957	182.61
751.141	164.18
751.326	278.87
751.51	39.25
751.695	198.99
751.879	219.47
752.064	235.86
752.248	155.99
752.432	311.63
752.617	250.19
752.801	254.29
752.985	166.23
753.17	319.82
753.354	264.53
753.538	215.38
753.722	213.33
753.907	76.12
754.091	153.94
754.275	254.29
754.459	139.6
754.643	110.93
754.828	205.14
755.012	186.71
755.196	74.07
755.38	160.08
755.564	74.07
755.748	16.73
755.932	147.8
756.116	242
756.3	147.8
756.484	41.3
756.668	162.13
756.852	108.88
757.036	164.18
757.22	115.03
757.404	151.89
757.588	47.44
757.772	225.62
757.956	86.36
758.14	233.81
758.323	119.12
758.507	143.7
758.691	69.97
758.875	170.32
759.059	129.36
759.242	69.97
759.426	151.89
759.61	98.64
759.794	43.35
759.977	231.76
760.161	303.44
760.345	149.84
760.528	131.41
760.712	141.65
760.895	262.48
761.079	186.71
761.263	90.45
761.446	76.12
761.63	104.79
761.813	223.57
761.997	-24.23
762.18	188.75
762.364	135.51
762.547	74.07
762.731	69.97
762.914	117.08
763.098	100.69
763.281	108.88
763.464	123.22
763.648	151.89
763.831	45.4
764.015	29.01
764.198	172.37
764.381	158.03
764.564	98.64
764.748	119.12
764.931	72.02
765.114	125.27
765.297	205.14
765.481	53.59
765.664	112.98
765.847	176.47
766.03	180.56
766.213	59.73
766.397	119.12
766.58	12.63
766.763	147.8
766.946	12.63
767.129	106.84
767.312	63.83
767.495	108.88
767.678	106.84
767.861	141.65
768.044	41.3
768.227	55.64
768.41	51.54
768.593	119.12
768.776	164.18
768.959	18.77
769.142	123.22
769.324	51.54
769.507	106.84
769.69	-20.14
769.873	137.56
770.056	252.24
770.239	110.93
770.421	207.19
770.604	90.45
770.787	172.37
770.97	74.07
771.152	72.02
771.335	94.55
771.518	45.4
771.7	141.65
771.883	176.47
772.066	26.96
772.248	90.45
772.431	137.56
772.613	80.21
772.796	37.2
772.978	115.03
773.161	131.41
773.343	76.12
773.526	41.3
773.708	12.63
773.891	-24.23
774.073	61.78
774.256	37.2
774.438	94.55
774.621	24.92
774.803	147.8
774.985	22.87
775.168	94.55
775.35	84.31
775.532	94.55
775.715	12.63
775.897	33.11
776.079	104.79
776.261	80.21
776.444	12.63
776.626	137.56
776.808	35.16
776.99	45.4
777.173	43.35
777.355	49.49
777.537	84.31
777.719	92.5
777.901	53.59
778.083	57.68
778.265	-20.14
778.447	147.8
778.629	63.83
778.811	51.54
778.993	90.45
779.175	104.79
779.357	72.02
779.539	33.11
779.721	69.97
779.903	112.98
780.085	26.96
780.267	51.54
780.449	59.73
780.631	106.84
780.812	135.51
780.994	57.68
781.176	20.82
781.358	12.63
781.54	96.6
781.721	92.5
781.903	125.27
782.085	72.02
782.267	201.04
782.448	-30.38
782.63	6.49
782.812	53.59
782.993	57.68
783.175	76.12
783.357	69.97
783.538	88.4
783.72	-40.62
783.901	69.97
784.083	53.59
784.264	121.17
784.446	18.77
784.627	22.87
784.809	100.69
784.99	37.2
785.172	137.56
785.353	88.4
785.535	49.49
785.716	-9.9
785.897	0.34
786.079	45.4
786.26	53.59
786.441	69.97
786.623	-71.34
786.804	-26.28
786.985	55.64
787.167	59.73
787.348	-13.99
787.529	69.97
787.71	180.56
787.891	59.73
788.073	-16.04
788.254	-24.23
788.435	145.75
788.616	-7.85
788.797	8.53
788.978	-18.09
789.159	65.88
789.34	102.74
789.522	43.35
789.703	-18.09
789.884	18.77
790.065	90.45
790.246	104.79
790.427	-3.75
790.607	174.42
790.788	76.12
790.969	14.68
791.15	51.54
791.331	22.87
791.512	-46.76
791.693	88.4
791.874	12.63
792.054	137.56
792.235	57.68
792.416	-50.86
792.597	43.35
792.778	22.87
792.958	147.8
793.139	0.34
793.32	45.4
793.5	-48.81
793.681	104.79
793.862	37.2
794.042	24.92
794.223	-18.09
794.404	16.73
794.584	-71.34
794.765	86.36
794.945	31.06
795.126	106.84
795.306	82.26
795.487	8.53
795.667	24.92
795.848	24.92
796.028	-61.1
796.209	61.78
796.389	106.84
796.57	16.73
796.75	6.49
796.93	12.63
797.111	41.3
797.291	-7.85
797.471	162.13
797.652	-30.38
797.832	-54.95
798.012	102.74
798.192	51.54
798.373	-83.63
798.553	-40.62
798.733	67.92
798.913	-61.1
799.093	-16.04
799.274	16.73
799.454	180.56
799.634	94.55
799.814	72.02
799.994	72.02
800.174	39.25
800.354	29.01
800.534	-106.15
800.714	37.2
800.894	45.4
801.074	-16.04
801.254	-1.71
801.434	63.83
801.614	12.63
801.794	43.35
801.974	1474.88
802.154	2.39
802.334	69.97
802.514	-65.19
802.693	49.49
802.873	-85.67
803.053	106.84
803.233	26.96
803.413	4.44
803.592	-11.95
803.772	-63.15
803.952	-5.8
804.131	12.63
804.311	63.83
804.491	53.59
804.67	-124.58
804.85	6.49
805.03	125.27
805.209	86.36
805.389	4.44
805.568	-30.38
805.748	67.92
805.928	-28.33
806.107	26.96
806.287	41.3
806.466	84.31
806.646	82.26
806.825	-48.81
807.004	-32.43
807.184	35.16
807.363	53.59
807.543	35.16
807.722	-20.14
807.901	198.99
808.081	57.68
808.26	-102.06
808.439	20.82
808.619	0.34
808.798	-5.8
808.977	45.4
809.156	78.16
809.336	45.4
809.515	26.96
809.694	12.63
809.873	69.97
810.052	39.25
810.231	100.69
810.411	80.21
810.59	119.12
810.769	69.97
810.948	20.82
811.127	-24.23
811.306	45.4
811.485	55.64
811.664	121.17
811.843	-3.75
812.022	16.73
812.201	-9.9
812.38	-30.38
812.559	-22.19
812.737	-30.38
812.916	-28.33
813.095	-3.75
813.274	104.79
813.453	26.96
813.632	117.08
813.811	86.36
813.989	-81.58
814.168	37.2
814.347	-20.14
814.526	18.77
814.704	82.26
814.883	72.02
815.062	-36.52
815.24	86.36
815.419	-89.77
815.598	2.39
815.776	-122.54
815.955	0.34
816.133	-26.28
816.312	-61.1
816.49	57.68
816.669	69.97
816.847	47.44
817.026	29.01
817.204	49.49
817.383	-7.85
817.561	20.82
817.74	-36.52
817.918	-65.19
818.097	-34.47
818.275	12.63
818.453	51.54
818.632	86.36
818.81	-52.91
818.988	33.11
819.167	-9.9
819.345	16.73
819.523	-34.47
819.701	-1.71
819.879	61.78
820.058	-44.71
820.236	24.92
820.414	6.49
820.592	-50.86
820.77	57.68
820.948	-9.9
821.127	-63.15
821.305	63.83
821.483	12.63
821.661	45.4
821.839	57.68
822.017	-18.09
822.195	-13.99
822.373	31.06
822.551	-11.95
822.729	82.26
822.907	-1.71
823.085	86.36
823.262	22.87
823.44	29.01
823.618	69.97
823.796	26.96
823.974	2.39
824.152	2.39
824.329	-5.8
824.507	-44.71
824.685	-9.9
824.863	63.83
825.04	-36.52
825.218	47.44
825.396	-18.09
825.574	65.88
825.751	0.34
825.929	78.16
826.107	-40.62
826.284	8.53
826.462	4.44
826.639	22.87
826.817	-50.86
826.994	-44.71
827.172	-20.14
827.349	117.08
827.527	53.59
827.704	16.73
827.882	96.6
828.059	41.3
828.237	0.34
828.414	67.92
828.591	-155.3
828.769	2.39
828.946	-18.09
829.124	92.5
829.301	8.53
829.478	20.82
829.655	16.73
829.833	80.21
830.01	-118.44
830.187	78.16
830.364	-11.95
830.542	26.96
830.719	102.74
830.896	22.87
831.073	51.54
831.25	10.58
831.427	78.16
831.604	14.68
831.782	80.21
831.959	55.64
832.136	-30.38
832.313	-42.67
832.49	-9.9
832.667	65.88
832.844	-52.91
833.021	72.02
833.198	37.2
833.374	-30.38
833.551	37.2
833.728	-11.95
833.905	108.88
834.082	-46.76
834.259	59.73
834.436	92.5
834.612	-61.1
834.789	-13.99
834.966	-20.14
835.143	-77.48
835.319	-120.49
835.496	47.44
835.673	74.07
835.85	41.3
836.026	37.2
836.203	151.89
836.38	14.68
836.556	6.49
836.733	-61.1
836.909	33.11
837.086	-93.87
837.262	-79.53
837.439	33.11
837.616	24.92
837.792	20.82
837.968	51.54
838.145	-110.25
838.321	-1.71
838.498	51.54
838.674	20.82
838.851	74.07
839.027	-30.38
839.203	-7.85
839.38	104.79
839.556	-11.95
839.732	88.4
839.909	16.73
840.085	-3.75
840.261	26.96
840.437	65.88
840.614	20.82
840.79	4.44
840.966	41.3
841.142	8.53
841.318	-28.33
841.494	41.3
841.671	80.21
841.847	-110.25
842.023	-61.1
842.199	51.54
842.375	78.16
842.551	-73.39
842.727	-77.48
842.903	119.12
843.079	-106.15
843.255	63.83
843.431	14.68
843.607	86.36
843.783	-116.39
843.959	72.02
844.134	-44.71
844.31	53.59
844.486	-38.57
844.662	-16.04
844.838	-11.95
845.013	106.84
845.189	10.58
845.365	37.2
845.541	6.49
845.716	-26.28
845.892	110.93
846.068	-52.91
846.244	-59.05
846.419	22.87
846.595	-77.48
846.77	-75.43
846.946	102.74
847.122	-20.14
847.297	-65.19
847.473	119.12
847.648	-42.67
847.824	78.16
847.999	-75.43
848.175	37.2
848.35	20.82
848.526	16.73
848.701	61.78
848.876	53.59
849.052	100.69
849.227	-20.14
849.403	18.77
849.578	4.44
849.753	100.69
849.929	55.64
850.104	-97.96
850.279	-32.43
850.454	-11.95
850.63	92.5
850.805	86.36
850.98	78.16
851.155	20.82
851.33	94.55
851.505	-77.48
851.681	76.12
851.856	-16.04
852.031	-20.14
852.206	55.64
852.381	-30.38
852.556	63.83
852.731	-63.15
852.906	57.68
853.081	59.73
853.256	108.88
853.431	76.12
853.606	82.26
853.781	-40.62
853.956	-42.67
854.131	4.44
854.305	0.34
854.48	18.77
854.655	-24.23
854.83	-54.95
855.005	-28.33
855.18	45.4
855.354	-1.71
855.529	22.87
855.704	98.64
855.879	-13.99
856.053	-52.91
856.228	-48.81
856.403	-48.81
856.577	39.25
856.752	-24.23
856.926	-24.23
857.101	35.16
857.276	-36.52
857.45	65.88
857.625	104.79
857.799	33.11
857.974	14.68
858.148	-79.53
858.323	65.88
858.497	18.77
858.672	-22.19
858.846	-65.19
859.02	82.26
859.195	-46.76
859.369	-28.33
859.543	45.4
859.718	-20.14
859.892	-28.33
860.066	-3.75
860.241	-57
860.415	16.73
860.589	37.2
860.763	110.93
860.938	-3.75
861.112	29.01
861.286	-61.1
861.46	26.96
861.634	22.87
861.808	82.26
861.982	-28.33
862.157	-77.48
862.331	-61.1
862.505	-75.43
862.679	-46.76
862.853	61.78
863.027	20.82
863.201	90.45
863.375	-83.63
863.549	-3.75
863.722	-5.8
863.896	82.26
864.07	-91.82
864.244	10.58
864.418	90.45
864.592	-3.75
864.766	57.68
864.939	-11.95
865.113	-7.85
865.287	102.74
865.461	-63.15
865.634	53.59
865.808	-36.52
865.982	20.82
866.156	-20.14
866.329	-73.39
866.503	-16.04
866.676	119.12
866.85	45.4
867.024	-7.85
867.197	108.88
867.371	55.64
867.544	37.2
867.718	-57
867.891	51.54
868.065	-143.02
868.238	-46.76
868.412	90.45
868.585	39.25
868.759	37.2
868.932	-20.14
869.105	-40.62
869.279	-85.67
869.452	-20.14
869.625	78.16
869.799	80.21
869.972	-30.38
870.145	-52.91
870.319	102.74
870.492	-24.23
870.665	-28.33
870.838	-61.1
871.011	-161.45
871.185	-3.75
871.358	-36.52
871.531	67.92
871.704	-20.14
871.877	-11.95
872.05	10.58
872.223	-77.48
872.396	4.44
872.569	22.87
872.742	-116.39
872.915	29.01
873.088	-57
873.261	-89.77
873.434	82.26
873.607	-44.71
873.78	129.36
873.953	-28.33
874.126	-7.85
874.299	-13.99
874.471	-7.85
874.644	-7.85
874.817	26.96
874.99	106.84
875.163	47.44
875.335	-54.95
875.508	2.39
875.681	67.92
875.853	-52.91
876.026	-28.33
876.199	94.55
876.371	4.44
876.544	-24.23
876.717	-5.8
876.889	-28.33
877.062	104.79
877.234	-13.99
877.407	-65.19
877.579	-73.39
877.752	41.3
877.924	59.73
878.097	2.39
878.269	-61.1
878.442	29.01
878.614	86.36
878.786	8.53
878.959	65.88
879.131	-3.75
879.303	-22.19
879.476	-9.9
879.648	112.98
879.82	10.58
879.993	14.68
880.165	65.88
880.337	-95.91
880.509	41.3
880.681	-71.34
880.854	-52.91
881.026	90.45
881.198	131.41
881.37	49.49
881.542	49.49
881.714	-30.38
881.886	-38.57
882.058	-36.52
882.23	53.59
882.402	-18.09
882.574	4.44
882.746	12.63
882.918	26.96
883.09	18.77
883.262	-30.38
883.434	29.01
883.606	-97.96
883.778	-3.75
883.95	72.02
884.122	24.92
884.293	8.53
884.465	-1.71
884.637	98.64
884.809	-30.38
884.98	74.07
885.152	20.82
885.324	94.55
885.496	-28.33
885.667	-9.9
885.839	-89.77
886.011	16.73
886.182	61.78
886.354	121.17
886.525	20.82
886.697	2.39
886.869	-75.43
887.04	-34.47
887.212	100.69
887.383	63.83
887.555	-32.43
887.726	-3.75
887.897	-18.09
888.069	-3.75
888.24	0.34
888.412	0.34
888.583	2.39
888.754	10.58
888.926	-79.53
889.097	-54.95
889.268	-85.67
889.44	-65.19
889.611	-30.38
889.782	31.06
889.953	-38.57
890.125	86.36
890.296	-73.39
890.467	8.53
890.638	-42.67
890.809	-38.57
890.98	-28.33
891.151	78.16
891.323	74.07
891.494	-20.14
891.665	-46.76
891.836	-38.57
892.007	-24.23
892.178	74.07
892.349	47.44
892.52	-26.28
892.691	26.96
892.862	-46.76
893.032	-118.44
893.203	26.96
893.374	12.63
893.545	78.16
893.716	-28.33
893.887	125.27
894.057	-48.81
894.228	20.82
894.399	-59.05
894.57	86.36
894.74	26.96
894.911	-3.75
895.082	102.74
895.253	-32.43
895.423	55.64
895.594	121.17
895.764	-61.1
895.935	-128.68
896.106	69.97
896.276	-11.95
896.447	74.07
896.617	-24.23
896.788	0.34
896.958	-11.95
897.129	-110.25
897.299	-20.14
897.47	86.36
897.64	61.78
897.81	-77.48
897.981	-22.19
898.151	-85.67
898.322	33.11
898.492	-20.14
898.662	-75.43
898.832	-26.28
899.003	-81.58
899.173	24.92
899.343	-61.1
899.513	-77.48
