Data from USB4F104151__19__11-24-34-207.txt Node

Date: Wed Feb 26 11:24:34 EST 2025
User: louis
Spectrometer: USB4F10415
Trigger mode: 4
Integration Time (sec): 1.000000E-1
Scans to average: 1
Electric dark correction enabled: true
Nonlinearity correction enabled: false
Boxcar width: 0
XAxis mode: Wavelengths
Number of Pixels in Spectrum: 3648
>>>>>Begin Spectral Data<<<<<
178.204	-409.25
178.424	-409.25
178.644	-409.25
178.864	-437.92
179.084	-384.68
179.304	6.49
179.524	-50.86
179.744	-1.71
179.964	61.78
180.184	26.96
180.404	57.68
180.624	41.3
180.844	-13.99
181.064	-147.11
181.283	24.92
181.503	-28.33
181.723	22.87
181.943	-102.06
182.163	168.27
182.383	-9.9
182.602	29.01
182.822	158.03
183.042	16.73
183.262	-57
183.482	-3.75
183.701	-5.8
183.921	33.11
184.141	-89.77
184.361	14.68
184.58	61.78
184.8	6.49
185.02	-59.05
185.239	88.4
185.459	-34.47
185.679	119.12
185.898	-59.05
186.118	115.03
186.338	72.02
186.557	49.49
186.777	-73.39
186.997	-116.39
187.216	45.4
187.436	252.24
187.655	-16.04
187.875	78.16
188.095	-1.71
188.314	35.16
188.534	63.83
188.753	-87.72
188.973	135.51
189.192	31.06
189.412	41.3
189.631	18.77
189.851	45.4
190.07	166.23
190.29	-63.15
190.509	22.87
190.729	41.3
190.948	78.16
191.168	158.03
191.387	53.59
191.607	-38.57
191.826	10.58
192.045	-1.71
192.265	-3.75
192.484	22.87
192.704	-32.43
192.923	-30.38
193.142	196.95
193.362	119.12
193.581	88.4
193.8	82.26
194.02	57.68
194.239	8.53
194.458	72.02
194.678	6.49
194.897	-73.39
195.116	90.45
195.335	39.25
195.555	31.06
195.774	-36.52
195.993	51.54
196.212	-40.62
196.432	-34.47
196.651	43.35
196.87	-13.99
197.089	190.8
197.308	55.64
197.528	76.12
197.747	-112.3
197.966	35.16
198.185	74.07
198.404	-59.05
198.623	69.97
198.842	90.45
199.062	90.45
199.281	76.12
199.5	35.16
199.719	96.6
199.938	-9.9
200.157	78.16
200.376	69.97
200.595	207.19
200.814	6.49
201.033	-75.43
201.252	155.99
201.471	104.79
201.69	24.92
201.909	63.83
202.128	63.83
202.347	4.44
202.566	-30.38
202.785	-54.95
203.004	8.53
203.223	250.19
203.442	59.73
203.661	2.39
203.879	55.64
204.098	59.73
204.317	-75.43
204.536	127.32
204.755	117.08
204.974	69.97
205.193	31.06
205.411	108.88
205.63	121.17
205.849	49.49
206.068	-1.71
206.287	-18.09
206.505	84.31
206.724	10.58
206.943	-59.05
207.162	16.73
207.381	41.3
207.599	-40.62
207.818	29.01
208.037	-18.09
208.255	4.44
208.474	-1.71
208.693	35.16
208.911	41.3
209.13	117.08
209.349	-1.71
209.567	-30.38
209.786	53.59
210.005	98.64
210.223	45.4
210.442	-83.63
210.661	6.49
210.879	106.84
211.098	55.64
211.316	0.34
211.535	47.44
211.753	-24.23
211.972	12.63
212.191	-83.63
212.409	121.17
212.628	35.16
212.846	-5.8
213.065	16.73
213.283	131.41
213.502	18.77
213.72	74.07
213.938	63.83
214.157	-32.43
214.375	59.73
214.594	-20.14
214.812	39.25
215.031	-46.76
215.249	76.12
215.467	-5.8
215.686	33.11
215.904	47.44
216.122	65.88
216.341	137.56
216.559	-18.09
216.778	104.79
216.996	92.5
217.214	-50.86
217.432	57.68
217.651	-59.05
217.869	31.06
218.087	65.88
218.306	-16.04
218.524	35.16
218.742	18.77
218.96	162.13
219.179	-11.95
219.397	72.02
219.615	188.75
219.833	198.99
220.051	37.2
220.27	104.79
220.488	92.5
220.706	72.02
220.924	-52.91
221.142	-48.81
221.36	26.96
221.578	96.6
221.796	12.63
222.015	86.36
222.233	33.11
222.451	170.32
222.669	10.58
222.887	59.73
223.105	-20.14
223.323	6.49
223.541	-147.11
223.759	76.12
223.977	-11.95
224.195	96.6
224.413	-7.85
224.631	-26.28
224.849	18.77
225.067	182.61
225.285	-57
225.503	-28.33
225.721	-122.54
225.939	-13.99
226.157	26.96
226.375	145.75
226.592	-26.28
226.81	-7.85
227.028	108.88
227.246	129.36
227.464	-24.23
227.682	10.58
227.9	63.83
228.117	6.49
228.335	55.64
228.553	98.64
228.771	41.3
228.989	33.11
229.206	84.31
229.424	31.06
229.642	-54.95
229.86	-5.8
230.077	112.98
230.295	2.39
230.513	108.88
230.731	117.08
230.948	133.46
231.166	82.26
231.384	18.77
231.601	-77.48
231.819	125.27
232.037	-87.72
232.254	-71.34
232.472	14.68
232.689	0.34
232.907	80.21
233.125	22.87
233.342	-26.28
233.56	-75.43
233.777	-42.67
233.995	-50.86
234.213	49.49
234.43	35.16
234.648	39.25
234.865	35.16
235.083	-5.8
235.3	22.87
235.518	-3.75
235.735	61.78
235.953	90.45
236.17	-13.99
236.388	67.92
236.605	39.25
236.822	82.26
237.04	100.69
237.257	-3.75
237.475	-48.81
237.692	63.83
237.909	51.54
238.127	-3.75
238.344	102.74
238.562	18.77
238.779	-85.67
238.996	-63.15
239.214	16.73
239.431	92.5
239.648	2.39
239.865	29.01
240.083	47.44
240.3	-61.1
240.517	-20.14
240.735	-16.04
240.952	131.41
241.169	63.83
241.386	82.26
241.603	55.64
241.821	-38.57
242.038	125.27
242.255	37.2
242.472	-9.9
242.689	65.88
242.907	29.01
243.124	76.12
243.341	39.25
243.558	8.53
243.775	-3.75
243.992	-112.3
244.209	74.07
244.426	186.71
244.643	29.01
244.86	53.59
245.078	61.78
245.295	26.96
245.512	-36.52
245.729	-59.05
245.946	74.07
246.163	-7.85
246.38	20.82
246.597	41.3
246.814	22.87
247.031	-48.81
247.248	-7.85
247.464	39.25
247.681	-34.47
247.898	84.31
248.115	16.73
248.332	-71.34
248.549	112.98
248.766	205.14
248.983	80.21
249.2	31.06
249.417	53.59
249.633	-42.67
249.85	63.83
250.067	12.63
250.284	-32.43
250.501	57.68
250.717	41.3
250.934	-42.67
251.151	-26.28
251.368	57.68
251.585	135.51
251.801	78.16
252.018	-44.71
252.235	106.84
252.451	-95.91
252.668	39.25
252.885	102.74
253.102	80.21
253.318	-5.8
253.535	-85.67
253.752	-44.71
253.968	-116.39
254.185	-79.53
254.401	-104.11
254.618	16.73
254.835	10.58
255.051	98.64
255.268	106.84
255.484	86.36
255.701	-7.85
255.917	4.44
256.134	-83.63
256.351	69.97
256.567	-38.57
256.784	-46.76
257	-52.91
257.217	45.4
257.433	63.83
257.65	-7.85
257.866	84.31
258.082	-71.34
258.299	-59.05
258.515	26.96
258.732	-20.14
258.948	-59.05
259.165	-3.75
259.381	-59.05
259.597	26.96
259.814	-11.95
260.03	-13.99
260.246	-26.28
260.463	112.98
260.679	119.12
260.895	49.49
261.112	100.69
261.328	10.58
261.544	-40.62
261.761	61.78
261.977	4.44
262.193	-91.82
262.409	45.4
262.626	22.87
262.842	104.79
263.058	57.68
263.274	112.98
263.49	12.63
263.707	102.74
263.923	80.21
264.139	-89.77
264.355	57.68
264.571	131.41
264.787	-46.76
265.004	43.35
265.22	35.16
265.436	-83.63
265.652	-22.19
265.868	53.59
266.084	-118.44
266.3	6.49
266.516	-5.8
266.732	55.64
266.948	67.92
267.164	22.87
267.38	33.11
267.596	8.53
267.812	45.4
268.028	-36.52
268.244	-13.99
268.46	131.41
268.676	31.06
268.892	82.26
269.108	33.11
269.324	-71.34
269.54	2.39
269.756	69.97
269.972	-106.15
270.188	4.44
270.403	-100.01
270.619	10.58
270.835	76.12
271.051	86.36
271.267	6.49
271.483	-42.67
271.698	82.26
271.914	57.68
272.13	-11.95
272.346	-1.71
272.562	-5.8
272.777	147.8
272.993	-36.52
273.209	-34.47
273.425	45.4
273.64	-97.96
273.856	57.68
274.072	-97.96
274.287	-26.28
274.503	63.83
274.719	80.21
274.934	-38.57
275.15	-26.28
275.366	12.63
275.581	-67.24
275.797	0.34
276.012	0.34
276.228	-20.14
276.444	20.82
276.659	125.27
276.875	-112.3
277.09	26.96
277.306	53.59
277.521	90.45
277.737	-5.8
277.952	51.54
278.168	-30.38
278.383	16.73
278.599	53.59
278.814	41.3
279.03	-34.47
279.245	110.93
279.461	-30.38
279.676	115.03
279.892	-32.43
280.107	-48.81
280.322	-91.82
280.538	63.83
280.753	10.58
280.969	-1.71
281.184	76.12
281.399	72.02
281.615	16.73
281.83	37.2
282.045	-28.33
282.26	-11.95
282.476	-1.71
282.691	51.54
282.906	18.77
283.122	-83.63
283.337	-13.99
283.552	47.44
283.767	-34.47
283.983	123.22
284.198	80.21
284.413	33.11
284.628	-77.48
284.843	-1.71
285.058	61.78
285.274	0.34
285.489	-89.77
285.704	84.31
285.919	49.49
286.134	12.63
286.349	-30.38
286.564	-54.95
286.779	207.19
286.995	41.3
287.21	-93.87
287.425	98.64
287.64	18.77
287.855	49.49
288.07	29.01
288.285	121.17
288.5	147.8
288.715	41.3
288.93	-3.75
289.145	-120.49
289.36	63.83
289.575	8.53
289.79	76.12
290.004	-110.25
290.219	37.2
290.434	6.49
290.649	-79.53
290.864	-77.48
291.079	0.34
291.294	26.96
291.509	43.35
291.724	2.39
291.938	-42.67
292.153	45.4
292.368	-18.09
292.583	72.02
292.798	-52.91
293.012	80.21
293.227	90.45
293.442	22.87
293.657	59.73
293.871	141.65
294.086	16.73
294.301	131.41
294.516	37.2
294.73	26.96
294.945	-104.11
295.16	2.39
295.374	176.47
295.589	20.82
295.804	14.68
296.018	102.74
296.233	133.46
296.447	31.06
296.662	8.53
296.877	108.88
297.091	74.07
297.306	59.73
297.52	-28.33
297.735	47.44
297.949	43.35
298.164	26.96
298.378	88.4
298.593	-44.71
298.807	-28.33
299.022	18.77
299.236	65.88
299.451	22.87
299.665	115.03
299.88	-24.23
300.094	-18.09
300.309	-28.33
300.523	10.58
300.737	-1.71
300.952	108.88
301.166	-13.99
301.381	-89.77
301.595	-50.86
301.809	-44.71
302.024	-65.19
302.238	-87.72
302.452	90.45
302.667	-63.15
302.881	94.55
303.095	104.79
303.309	-26.28
303.524	24.92
303.738	29.01
303.952	-18.09
304.166	102.74
304.381	-108.2
304.595	90.45
304.809	-5.8
305.023	20.82
305.237	-42.67
305.452	-42.67
305.666	65.88
305.88	84.31
306.094	31.06
306.308	24.92
306.522	90.45
306.736	10.58
306.95	8.53
307.164	63.83
307.379	-97.96
307.593	112.98
307.807	80.21
308.021	26.96
308.235	55.64
308.449	-61.1
308.663	76.12
308.877	282.96
309.091	-18.09
309.305	49.49
309.519	-116.39
309.733	115.03
309.947	-102.06
310.161	-1.71
310.374	84.31
310.588	82.26
310.802	-81.58
311.016	-3.75
311.23	-5.8
311.444	-77.48
311.658	-81.58
311.872	96.6
312.085	104.79
312.299	106.84
312.513	26.96
312.727	51.54
312.941	51.54
313.154	4.44
313.368	53.59
313.582	51.54
313.796	94.55
314.009	-36.52
314.223	74.07
314.437	49.49
314.651	110.93
314.864	117.08
315.078	33.11
315.292	-28.33
315.505	-48.81
315.719	43.35
315.933	31.06
316.146	-42.67
316.36	-97.96
316.573	162.13
316.787	33.11
317.001	45.4
317.214	-42.67
317.428	10.58
317.641	-28.33
317.855	-28.33
318.068	14.68
318.282	20.82
318.495	170.32
318.709	78.16
318.922	29.01
319.136	98.64
319.349	129.36
319.563	-13.99
319.776	90.45
319.99	-110.25
320.203	84.31
320.417	63.83
320.63	145.75
320.843	69.97
321.057	37.2
321.27	20.82
321.483	-5.8
321.697	129.36
321.91	76.12
322.124	26.96
322.337	33.11
322.55	26.96
322.763	12.63
322.977	55.64
323.19	-1.71
323.403	29.01
323.617	45.4
323.83	78.16
324.043	14.68
324.256	12.63
324.469	-61.1
324.683	57.68
324.896	-81.58
325.109	41.3
325.322	-100.01
325.535	53.59
325.748	106.84
325.962	-26.28
326.175	31.06
326.388	65.88
326.601	80.21
326.814	-7.85
327.027	45.4
327.24	145.75
327.453	-71.34
327.666	59.73
327.879	143.7
328.092	129.36
328.305	8.53
328.518	-50.86
328.731	55.64
328.944	2.39
329.157	10.58
329.37	61.78
329.583	94.55
329.796	94.55
330.009	-38.57
330.222	51.54
330.435	78.16
330.648	26.96
330.861	43.35
331.073	63.83
331.286	59.73
331.499	74.07
331.712	-63.15
331.925	-1.71
332.138	37.2
332.35	115.03
332.563	6.49
332.776	53.59
332.989	-36.52
333.202	-73.39
333.414	53.59
333.627	59.73
333.84	16.73
334.053	49.49
334.265	-16.04
334.478	-13.99
334.691	-38.57
334.903	-22.19
335.116	-24.23
335.329	0.34
335.541	14.68
335.754	98.64
335.966	-13.99
336.179	-11.95
336.392	4.44
336.604	-42.67
336.817	57.68
337.029	108.88
337.242	41.3
337.454	51.54
337.667	63.83
337.88	119.12
338.092	63.83
338.305	104.79
338.517	-36.52
338.729	147.8
338.942	168.27
339.154	-42.67
339.367	-50.86
339.579	63.83
339.792	-20.14
340.004	49.49
340.217	35.16
340.429	24.92
340.641	-63.15
340.854	-73.39
341.066	33.11
341.278	160.08
341.491	127.32
341.703	4.44
341.915	-5.8
342.128	125.27
342.34	-11.95
342.552	-61.1
342.764	-95.91
342.977	-57
343.189	24.92
343.401	-42.67
343.613	-97.96
343.826	57.68
344.038	-89.77
344.25	35.16
344.462	29.01
344.674	84.31
344.886	6.49
345.099	39.25
345.311	-22.19
345.523	-11.95
345.735	-104.11
345.947	69.97
346.159	24.92
346.371	12.63
346.583	-9.9
346.795	172.37
347.007	-48.81
347.219	39.25
347.431	-1.71
347.643	119.12
347.855	-46.76
348.067	115.03
348.279	-54.95
348.491	-22.19
348.703	158.03
348.915	-7.85
349.127	41.3
349.339	129.36
349.551	45.4
349.763	20.82
349.975	-63.15
350.187	61.78
350.399	84.31
350.61	41.3
350.822	-7.85
351.034	-24.23
351.246	31.06
351.458	96.6
351.669	121.17
351.881	78.16
352.093	106.84
352.305	127.32
352.517	6.49
352.728	37.2
352.94	92.5
353.152	72.02
353.363	0.34
353.575	29.01
353.787	117.08
353.999	90.45
354.21	65.88
354.422	-65.19
354.633	-79.53
354.845	-7.85
355.057	39.25
355.268	-9.9
355.48	84.31
355.692	-40.62
355.903	-42.67
356.115	-120.49
356.326	-108.2
356.538	119.12
356.749	47.44
356.961	72.02
357.172	49.49
357.384	-71.34
357.595	182.61
357.807	-89.77
358.018	-13.99
358.23	112.98
358.441	164.18
358.653	129.36
358.864	2.39
359.075	-44.71
359.287	14.68
359.498	86.36
359.709	53.59
359.921	-7.85
360.132	47.44
360.344	0.34
360.555	-59.05
360.766	-40.62
360.977	67.92
361.189	29.01
361.4	0.34
361.611	39.25
361.823	88.4
362.034	-1.71
362.245	-57
362.456	104.79
362.667	49.49
362.879	-95.91
363.09	98.64
363.301	39.25
363.512	-24.23
363.723	37.2
363.935	20.82
364.146	119.12
364.357	0.34
364.568	61.78
364.779	-69.29
364.99	127.32
365.201	-28.33
365.412	51.54
365.623	-114.34
365.834	-7.85
366.045	-24.23
366.256	67.92
366.467	22.87
366.678	14.68
366.889	112.98
367.1	20.82
367.311	90.45
367.522	-22.19
367.733	94.55
367.944	112.98
368.155	-28.33
368.366	53.59
368.577	100.69
368.788	106.84
368.999	-77.48
369.209	-7.85
369.42	133.46
369.631	217.43
369.842	94.55
370.053	-11.95
370.264	20.82
370.474	-34.47
370.685	35.16
370.896	10.58
371.107	51.54
371.317	51.54
371.528	61.78
371.739	63.83
371.95	43.35
372.16	26.96
372.371	-61.1
372.582	45.4
372.792	47.44
373.003	-36.52
373.214	72.02
373.424	63.83
373.635	-18.09
373.846	106.84
374.056	108.88
374.267	119.12
374.477	12.63
374.688	-11.95
374.898	31.06
375.109	-46.76
375.319	76.12
375.53	39.25
375.74	59.73
375.951	-40.62
376.161	78.16
376.372	35.16
376.582	-63.15
376.793	61.78
377.003	8.53
377.214	-28.33
377.424	-7.85
377.635	24.92
377.845	-81.58
378.055	24.92
378.266	-48.81
378.476	16.73
378.686	53.59
378.897	-26.28
379.107	72.02
379.317	80.21
379.528	-54.95
379.738	100.69
379.948	10.58
380.158	143.7
380.369	49.49
380.579	47.44
380.789	102.74
380.999	6.49
381.21	72.02
381.42	125.27
381.63	2.39
381.84	78.16
382.05	49.49
382.261	96.6
382.471	143.7
382.681	-5.8
382.891	149.84
383.101	26.96
383.311	-79.53
383.521	-18.09
383.731	24.92
383.941	80.21
384.151	51.54
384.361	-28.33
384.571	20.82
384.781	-9.9
384.991	137.56
385.201	133.46
385.411	149.84
385.621	-73.39
385.831	37.2
386.041	51.54
386.251	29.01
386.461	170.32
386.671	-59.05
386.881	63.83
387.091	31.06
387.301	119.12
387.511	26.96
387.72	63.83
387.93	102.74
388.14	-57
388.35	24.92
388.56	45.4
388.769	133.46
388.979	-18.09
389.189	-54.95
389.399	-20.14
389.609	20.82
389.818	106.84
390.028	43.35
390.238	100.69
390.447	-11.95
390.657	35.16
390.867	26.96
391.076	-87.72
391.286	2.39
391.496	31.06
391.705	-128.68
391.915	72.02
392.125	108.88
392.334	22.87
392.544	198.99
392.753	-48.81
392.963	-1.71
393.172	29.01
393.382	-20.14
393.591	201.04
393.801	20.82
394.01	137.56
394.22	90.45
394.429	45.4
394.639	-5.8
394.848	61.78
395.058	61.78
395.267	39.25
395.477	90.45
395.686	133.46
395.895	184.66
396.105	123.22
396.314	61.78
396.524	-3.75
396.733	12.63
396.942	127.32
397.152	119.12
397.361	80.21
397.57	94.55
397.78	96.6
397.989	86.36
398.198	131.41
398.407	2.39
398.617	8.53
398.826	63.83
399.035	14.68
399.244	-13.99
399.453	86.36
399.663	-32.43
399.872	149.84
400.081	-22.19
400.29	84.31
400.499	-34.47
400.708	59.73
400.917	-28.33
401.127	67.92
401.336	-13.99
401.545	164.18
401.754	33.11
401.963	57.68
402.172	20.82
402.381	-112.3
402.59	-79.53
402.799	8.53
403.008	94.55
403.217	4.44
403.426	41.3
403.635	-91.82
403.844	67.92
404.053	-9.9
404.262	-77.48
404.471	133.46
404.68	47.44
404.888	-5.8
405.097	47.44
405.306	65.88
405.515	78.16
405.724	-18.09
405.933	72.02
406.142	33.11
406.35	78.16
406.559	29.01
406.768	8.53
406.977	180.56
407.185	0.34
407.394	125.27
407.603	-34.47
407.812	-11.95
408.02	98.64
408.229	94.55
408.438	74.07
408.646	-22.19
408.855	47.44
409.064	-1.71
409.272	-18.09
409.481	106.84
409.69	-28.33
409.898	-13.99
410.107	100.69
410.315	92.5
410.524	-46.76
410.733	100.69
410.941	47.44
411.15	135.51
411.358	18.77
411.567	72.02
411.775	69.97
411.984	24.92
412.192	59.73
412.401	-46.76
412.609	153.94
412.818	61.78
413.026	82.26
413.234	49.49
413.443	12.63
413.651	-83.63
413.86	76.12
414.068	102.74
414.276	168.27
414.485	-48.81
414.693	184.66
414.901	182.61
415.11	57.68
415.318	37.2
415.526	-1.71
415.734	78.16
415.943	80.21
416.151	153.94
416.359	39.25
416.567	-26.28
416.776	137.56
416.984	92.5
417.192	145.75
417.4	80.21
417.608	2.39
417.817	-38.57
418.025	61.78
418.233	86.36
418.441	-50.86
418.649	-20.14
418.857	41.3
419.065	176.47
419.273	-11.95
419.481	8.53
419.689	24.92
419.897	0.34
420.105	-63.15
420.313	90.45
420.521	65.88
420.729	147.8
420.937	-50.86
421.145	-32.43
421.353	80.21
421.561	129.36
421.769	47.44
421.977	-48.81
422.185	94.55
422.393	117.08
422.601	112.98
422.809	61.78
423.017	16.73
423.224	86.36
423.432	72.02
423.64	-42.67
423.848	162.13
424.056	-40.62
424.263	102.74
424.471	12.63
424.679	162.13
424.887	-110.25
425.094	110.93
425.302	96.6
425.51	-16.04
425.718	41.3
425.925	29.01
426.133	6.49
426.341	268.63
426.548	86.36
426.756	-7.85
426.964	67.92
427.171	-52.91
427.379	67.92
427.586	14.68
427.794	26.96
428.001	76.12
428.209	43.35
428.417	72.02
428.624	100.69
428.832	74.07
429.039	31.06
429.247	78.16
429.454	96.6
429.662	86.36
429.869	110.93
430.076	106.84
430.284	104.79
430.491	149.84
430.699	155.99
430.906	180.56
431.114	41.3
431.321	104.79
431.528	106.84
431.736	139.6
431.943	115.03
432.15	96.6
432.358	39.25
432.565	137.56
432.772	-48.81
432.979	115.03
433.187	82.26
433.394	106.84
433.601	6.49
433.808	207.19
434.016	153.94
434.223	164.18
434.43	139.6
434.637	209.23
434.844	209.23
435.052	147.8
435.259	166.23
435.466	194.9
435.673	223.57
435.88	227.67
436.087	196.95
436.294	237.91
436.501	164.18
436.708	121.17
436.915	231.76
437.122	315.73
437.329	186.71
437.537	213.33
437.743	252.24
437.95	317.78
438.157	258.39
438.364	235.86
438.571	266.58
438.778	346.45
438.985	242
439.192	313.68
439.399	244.05
439.606	350.54
439.813	364.88
440.02	387.41
440.227	452.94
440.433	457.04
440.64	356.69
440.847	342.35
441.054	360.78
441.261	424.27
441.467	399.7
441.674	418.13
441.881	405.84
442.088	436.56
442.294	491.85
442.501	510.29
442.708	516.43
442.914	512.33
443.121	569.68
443.328	627.02
443.534	647.5
443.741	547.15
443.948	518.48
444.154	575.82
444.361	657.74
444.568	676.17
444.774	825.67
444.981	629.07
445.187	797
445.394	743.75
445.6	674.12
445.807	840.01
446.013	801.1
446.22	747.85
446.426	1007.94
446.633	1012.04
446.839	1124.68
447.046	919.88
447.252	1128.77
447.459	1122.63
447.665	1124.68
447.871	1155.4
448.078	1259.84
448.284	1337.66
448.491	1360.19
448.697	1407.3
448.903	1497.41
449.11	1413.44
449.316	1540.41
449.522	1597.76
449.728	1640.76
449.935	1771.83
450.141	1651
450.347	1915.19
450.553	1712.44
450.76	1939.77
450.966	1970.49
451.172	2060.6
451.378	2064.69
451.584	2246.96
451.791	2267.44
451.997	2365.75
452.203	2418.99
452.409	2541.87
452.615	2625.84
452.821	2679.08
453.027	2613.55
453.233	2963.75
453.44	2875.69
453.646	3006.76
453.852	3021.1
454.058	3137.83
454.264	3324.19
454.47	3377.44
454.676	3522.85
454.882	3883.29
455.088	3688.73
455.294	3897.63
455.5	4200.73
455.705	4374.8
455.911	4307.22
456.117	4653.33
456.323	4688.14
456.529	4712.72
456.735	5183.75
456.941	5198.09
457.147	5490.95
457.352	5548.29
457.558	5765.37
457.764	6209.78
457.97	6050.04
458.176	6463.73
458.381	6648.05
458.587	6871.28
458.793	7315.69
458.999	7211.24
459.204	8208.6
459.41	8380.63
459.616	8341.72
459.821	8956.11
460.027	9203.91
460.233	9656.51
460.438	9791.68
460.644	10188.99
460.85	10275
461.055	10750.13
461.261	11172.01
461.466	10959.02
461.672	11098.28
461.878	12435.61
462.083	12251.29
462.289	12718.23
462.494	13179.02
462.7	13156.49
462.905	13197.45
463.111	14575.73
463.316	15362.15
463.522	15571.05
463.727	15822.95
463.932	16470.11
464.138	17315.92
464.343	17825.86
464.549	17969.22
464.754	19370.03
464.959	20011.04
465.165	20068.39
465.37	20017.19
465.575	19877.93
465.781	21280.78
465.986	21948.42
466.191	21483.53
466.397	21893.13
466.602	21211.15
466.807	22433.79
467.012	22890.49
467.218	23377.9
467.423	23183.35
467.628	23779.31
467.833	25212.88
468.038	24920.03
468.244	24322.02
468.449	25485.26
468.654	25198.55
468.859	25141.21
469.064	25032.66
469.269	24391.65
469.474	24713.18
469.679	25475.02
469.885	24496.1
470.09	25155.54
470.295	24950.74
470.5	24618.97
470.705	24758.24
470.91	24270.82
471.115	23889.9
471.32	24197.09
471.525	24225.76
471.73	23216.12
471.935	23363.57
472.139	22138.88
472.344	22407.17
472.549	22237.19
472.754	21788.68
472.959	21153.81
473.164	20471.84
473.369	20340.77
473.574	20860.95
473.778	20643.87
473.983	20078.63
474.188	19867.69
474.393	18520.12
474.598	18903.09
474.802	18204.74
475.007	18178.11
475.212	17946.69
475.417	17092.69
475.621	17004.63
475.826	16742.49
476.031	16443.48
476.235	16121.95
476.44	16150.62
476.645	15569
476.849	15626.34
477.054	15190.13
477.259	14991.47
477.463	15091.82
477.668	14811.25
477.872	14583.93
478.077	14002.3
478.282	13801.6
478.486	13662.34
478.691	13344.91
478.895	13361.29
479.1	13080.72
479.304	13238.41
479.509	12763.28
479.713	13033.61
479.918	12714.13
480.122	12146.84
480.326	12382.36
480.531	12300.44
480.735	11999.39
480.94	11935.9
481.144	12355.74
481.348	11821.22
481.553	11794.59
481.757	11294.89
481.961	11587.75
482.166	11628.71
482.37	11387.05
482.574	11282.6
482.778	11114.67
482.983	11329.7
483.187	11137.2
483.391	11057.32
483.595	10631.35
483.8	10786.99
484.004	10725.55
484.208	10817.71
484.412	10541.24
484.616	10555.57
484.821	10383.54
485.025	10102.97
485.229	10119.35
485.433	9773.25
485.637	9810.11
485.841	9703.62
486.045	9711.81
486.249	9646.27
486.453	9345.22
486.657	9201.86
486.861	8992.97
487.065	8839.37
487.269	8927.44
487.473	8347.86
487.677	8798.42
487.881	8691.92
488.085	8351.96
488.289	8202.46
488.493	8083.67
488.697	8089.82
488.901	7563.49
489.105	7704.8
489.309	7493.86
489.512	7366.88
489.716	7336.17
489.92	6961.39
490.124	7100.65
490.328	7174.38
490.531	6746.35
490.735	6910.19
490.939	6482.16
491.143	6385.91
491.346	6334.71
491.55	6217.97
491.754	6195.45
491.958	6093.05
492.161	6060.28
492.365	5923.07
492.569	5779.71
492.772	5724.41
492.976	5624.06
493.18	5583.1
493.383	5456.13
493.587	5339.4
493.79	5568.77
493.994	5286.15
494.197	5239.05
494.401	5292.29
494.605	5091.59
494.808	5230.85
495.012	5116.17
495.215	5091.59
495.419	5204.23
495.622	5097.74
495.825	5103.88
496.029	5142.79
496.232	5044.49
496.436	4882.7
496.639	5062.92
496.843	4917.51
497.046	4950.28
497.249	5140.74
497.453	4935.95
497.656	4944.14
497.859	4925.71
498.063	4942.09
498.266	5017.86
498.469	5060.87
498.673	4972.81
498.876	5198.09
499.079	5132.55
499.282	5064.97
499.485	5247.24
499.689	5144.84
499.892	5333.25
500.095	5101.83
500.298	5331.2
500.501	5153.03
500.705	5347.59
500.908	5376.26
501.111	5357.83
501.314	5400.83
501.517	5718.27
501.72	5632.26
501.923	5570.82
502.126	5656.83
502.329	5802.24
502.532	5802.24
502.735	5878.01
502.938	6199.54
503.141	6072.57
503.344	6019.32
503.547	6422.77
503.75	6199.54
503.953	6369.52
504.156	6316.28
504.359	6650.1
504.562	6508.79
504.765	6734.06
504.968	6791.41
505.17	7133.42
505.373	7151.85
505.576	7170.28
505.779	7377.12
505.982	7319.78
506.185	7715.04
506.387	7631.07
506.59	7837.92
506.793	8050.91
506.996	8026.33
507.198	8464.6
507.401	8452.31
507.604	8761.55
507.807	8827.09
508.009	8947.92
508.212	9351.37
508.415	9253.06
508.617	9455.81
508.82	9689.28
509.022	9760.96
509.225	9988.28
509.428	10399.93
509.63	10528.95
509.833	10698.93
510.035	11167.91
510.238	11428.01
510.44	11616.42
510.643	11622.56
510.845	12046.49
511.048	12275.87
511.25	12312.73
511.453	12777.62
511.655	13381.77
511.858	13428.87
512.06	13748.36
512.262	13676.68
512.465	14276.73
512.667	14547.06
512.87	14956.66
513.072	15190.13
513.274	15835.24
513.477	15800.42
513.679	16277.6
513.881	16795.73
514.084	17172.56
514.286	17453.13
514.488	17733.7
514.69	18384.96
514.893	18741.3
515.095	18911.28
515.297	19308.59
515.499	19804.2
515.701	20236.32
515.904	20955.16
516.106	21415.95
516.308	21573.64
516.51	22077.44
516.712	22636.54
516.914	22810.62
517.116	23631.85
517.318	23715.82
517.52	24195.04
517.722	24532.96
517.925	25481.17
518.127	25767.88
518.329	26605.5
518.531	26314.69
518.733	26812.35
518.935	27283.38
519.136	27889.58
519.338	28534.69
519.54	28780.45
519.742	29357.97
519.944	29894.54
520.146	30367.62
520.348	30650.24
520.55	30875.52
520.752	31309.69
520.954	32094.06
521.155	31879.02
521.357	32558.95
521.559	33363.8
521.761	33976.14
521.963	33765.2
522.164	34281.29
522.366	34275.15
522.568	34942.78
522.77	35084.09
522.971	35856.18
523.173	35163.96
523.375	36310.83
523.576	35950.38
523.778	36357.93
523.98	36593.45
524.181	36788
524.383	36896.55
524.584	37375.77
524.786	37248.8
524.988	37044
525.189	37750.55
525.391	37318.43
525.592	38004.5
525.794	37869.33
525.995	37961.49
526.197	37467.93
526.398	37316.38
526.6	37689.11
526.801	37689.11
527.003	37613.34
527.204	37263.13
527.406	37691.16
527.607	37140.25
527.808	37429.02
528.01	36548.39
528.211	36628.26
528.412	36779.81
528.614	36306.73
528.815	36208.43
529.016	36261.68
529.218	35503.93
529.419	35501.88
529.62	35237.69
529.822	35022.65
530.023	34760.51
530.224	34238.28
530.425	33972.05
530.626	33566.55
530.828	33042.27
531.029	33458.01
531.23	32534.37
531.431	32165.74
531.632	32026.48
531.833	31801.2
532.035	31074.17
532.236	30922.62
532.437	30752.64
532.638	30148.49
532.839	29994.89
533.04	29953.93
533.241	29226.9
533.442	29224.86
533.643	28442.53
533.844	28170.15
534.045	27797.42
534.246	27314.1
534.447	27074.49
534.648	26826.68
534.849	26478.53
535.05	25866.19
535.251	25679.82
535.451	25259.99
535.652	24815.58
535.853	24578.01
536.054	24342.5
536.255	24287.2
536.456	23656.43
536.657	23478.26
536.857	23048.18
537.058	22654.97
537.259	22536.19
537.46	22398.98
537.66	21884.94
537.861	21581.84
538.062	21274.64
538.263	20852.76
538.463	20572.19
538.664	20443.17
538.865	20289.57
539.065	20369.44
539.266	19437.61
539.466	19654.7
539.667	19243.06
539.868	19122.23
540.068	18802.74
540.269	18643
540.469	18360.38
540.67	17963.08
540.87	18114.62
541.071	17545.29
541.271	17520.71
541.472	17305.68
541.672	17350.73
541.873	16920.66
542.073	16529.5
542.274	16697.43
542.474	16541.78
542.675	16205.92
542.875	16318.56
543.075	15745.13
543.276	15614.06
543.476	15579.24
543.676	15378.54
543.877	15026.29
544.077	15079.54
544.277	14786.68
544.478	14719.09
544.678	14428.28
544.878	14311.55
545.078	14282.88
545.279	14008.45
545.479	13721.73
545.679	13666.44
545.879	13588.61
546.079	13574.28
546.28	13125.77
546.48	12943.5
546.68	13058.19
546.88	12791.95
547.08	12714.13
547.28	12830.87
547.48	12144.8
547.68	12112.03
547.88	12042.4
548.081	11870.37
548.281	11585.7
548.481	11638.95
548.681	11528.36
548.881	11223.21
549.081	11157.68
549.28	11163.82
549.48	11022.51
549.68	10643.63
549.88	10737.84
550.08	10330.3
550.28	10256.57
550.48	10330.3
550.68	9846.98
550.88	9769.15
551.08	9705.67
551.279	9681.09
551.479	9302.22
551.679	9466.05
551.879	8999.12
552.079	9062.6
552.278	8935.63
552.478	8886.48
552.678	8710.35
552.878	8648.91
553.077	8300.76
553.277	7940.32
553.477	8114.39
553.676	8018.14
553.876	7719.14
554.076	7934.17
554.275	7829.73
554.475	7321.83
554.674	7448.8
554.874	7307.49
555.074	7031.02
555.273	7264.49
555.473	6875.37
555.672	6848.75
555.872	6646
556.071	6658.29
556.271	6580.46
556.47	6467.83
556.67	6093.05
556.869	6248.69
557.068	6070.52
557.268	5998.84
557.467	5759.23
557.667	5941.5
557.866	5634.3
558.065	5568.77
558.265	5626.11
558.464	5470.47
558.663	5376.26
558.863	5306.63
559.062	5323.01
559.261	5071.11
559.461	5056.78
559.66	4935.95
559.859	4765.96
560.058	4673.81
560.258	4548.88
560.457	4534.54
560.656	4735.25
560.855	4366.61
561.054	4503.82
561.253	4352.27
561.453	4296.98
561.652	4299.03
561.851	4172.05
562.05	4006.17
562.249	3889.43
562.448	4000.02
562.647	3795.23
562.846	3897.63
563.045	3737.88
563.244	3641.63
563.443	3688.73
563.642	3494.18
563.841	3608.86
564.04	3340.58
564.239	3512.61
564.438	3414.31
564.637	3334.43
564.836	3174.69
565.035	3170.6
565.234	3191.08
565.432	3133.73
565.631	3158.31
565.83	3123.49
566.029	3029.29
566.228	2930.98
566.427	3092.77
566.625	2752.81
566.824	2767.15
567.023	2761
567.222	2722.09
567.42	2685.23
567.619	2777.39
567.818	2650.41
568.016	2777.39
568.215	2556.21
568.414	2570.54
568.612	2502.96
568.811	2400.56
569.01	2357.55
569.208	2216.24
569.407	2390.32
569.605	2369.84
569.804	2244.92
570.002	2294.07
570.201	2160.95
570.4	2212.15
570.598	2111.8
570.797	2136.37
570.995	2013.49
571.193	2079.03
571.392	2003.25
571.59	1798.46
571.789	2109.75
571.987	1902.9
572.186	1995.06
572.384	1812.79
572.582	1739.07
572.781	1847.61
572.979	1669.44
573.177	1644.86
573.376	1718.59
573.574	1646.91
573.772	1587.52
573.971	1601.85
574.169	1556.8
574.367	1554.75
574.565	1626.43
574.763	1403.2
574.962	1425.73
575.16	1407.3
575.358	1505.6
575.556	1438.02
575.754	1378.62
575.952	1368.38
576.151	1407.3
576.349	1372.48
576.547	1159.49
576.745	1292.61
576.943	1323.33
577.141	1243.46
577.339	1100.1
577.537	1288.51
577.735	1161.54
577.933	1263.94
578.131	1038.66
578.329	1190.21
578.527	1139.01
578.725	1243.46
578.923	1012.04
579.121	1089.86
579.319	1048.9
579.516	997.7
579.714	1116.48
579.912	1028.42
580.11	872.78
580.308	923.98
580.506	950.6
580.704	831.82
580.901	862.54
581.099	1050.95
581.297	805.19
581.495	893.26
581.692	938.31
581.89	973.13
582.088	846.15
582.285	751.95
582.483	797
582.681	803.15
582.878	708.94
583.076	833.86
583.274	803.15
583.471	874.82
583.669	823.62
583.866	608.59
584.064	629.07
584.262	641.36
584.459	567.63
584.657	717.13
584.854	715.08
585.052	618.83
585.249	776.52
585.447	614.73
585.644	571.72
585.841	710.99
586.039	702.79
586.236	770.38
586.434	530.77
586.631	473.42
586.828	586.06
587.026	653.64
587.223	500.05
587.42	487.76
587.618	553.29
587.815	600.4
588.012	600.4
588.21	502.09
588.407	485.71
588.604	536.91
588.801	493.9
588.999	561.48
589.196	598.35
589.393	432.46
589.59	541.01
589.787	530.77
589.984	516.43
590.182	491.85
590.379	409.94
590.576	434.51
590.773	483.66
590.97	459.09
591.167	561.48
591.364	481.61
591.561	407.89
591.758	555.34
591.955	635.21
592.152	467.28
592.349	457.04
592.546	418.13
592.743	442.7
592.94	440.65
593.137	518.48
593.334	588.11
593.531	493.9
593.727	592.2
593.924	479.57
594.121	448.85
594.318	473.42
594.515	440.65
594.712	567.63
594.908	586.06
595.105	459.09
595.302	518.48
595.499	473.42
595.696	479.57
595.892	424.27
596.089	508.24
596.286	440.65
596.482	581.96
596.679	555.34
596.876	575.82
597.072	645.45
597.269	569.68
597.466	627.02
597.662	561.48
597.859	563.53
598.055	616.78
598.252	665.93
598.448	686.41
598.645	706.89
598.841	719.18
599.038	807.24
599.234	862.54
599.431	846.15
599.627	911.69
599.824	860.49
600.02	878.92
600.217	1016.13
600.413	971.08
600.609	962.89
600.806	1313.09
601.002	1012.04
601.198	1042.76
601.395	1177.92
601.591	1188.16
601.787	1124.68
601.984	1333.57
602.18	1313.09
602.376	1329.47
602.572	1478.97
602.769	1536.32
602.965	1581.37
603.161	1665.34
603.357	1599.8
603.553	1829.18
603.75	1622.33
603.946	1710.4
604.142	1863.99
604.338	2068.79
604.534	2013.49
604.73	2021.69
604.926	2097.46
605.122	2306.35
605.318	2220.34
605.514	2326.83
605.71	2306.35
605.906	2562.35
606.102	2541.87
606.298	2726.19
606.494	2707.76
606.69	2750.76
606.886	2826.54
607.082	3002.66
607.278	2978.09
607.474	3078.44
607.67	3227.94
607.866	3098.92
608.062	3524.9
608.257	3467.55
608.453	3447.07
608.649	3795.23
608.845	3635.49
609.041	3789.08
609.236	3938.59
609.432	4112.66
609.628	4229.4
609.824	4313.36
610.019	4184.34
610.215	4540.69
610.411	4618.51
610.606	4868.36
610.802	4851.98
610.998	5017.86
611.193	5126.41
611.389	5124.36
611.584	5372.16
611.78	5296.39
611.976	5622.02
612.171	6125.82
612.367	5824.76
612.562	6009.08
612.758	6215.93
612.953	6199.54
613.149	6543.6
613.344	6770.93
613.539	7012.59
613.735	7016.68
613.93	7479.52
614.126	7287.01
614.321	7876.83
614.517	8067.29
614.712	8050.91
614.907	8194.26
615.103	8564.95
615.298	8612.05
615.493	9060.56
615.688	8923.34
615.884	9570.5
616.079	9441.48
616.274	10023.1
616.47	10019
616.665	10260.66
616.86	10500.28
617.055	10848.43
617.25	11022.51
617.445	11151.53
617.641	11718.82
617.836	11993.25
618.031	11903.14
618.226	12621.97
618.421	12886.16
618.616	13158.54
618.811	13041.81
619.006	13740.16
619.201	13805.7
619.396	14190.72
619.591	14463.1
619.786	15040.62
619.981	15089.78
620.176	15515.75
620.371	15632.49
620.566	16105.57
620.761	16369.76
620.956	16916.56
621.151	16842.84
621.346	17563.72
621.541	17592.39
621.735	18423.87
621.93	18407.48
622.125	18862.13
622.32	18753.59
622.515	19224.62
622.709	19857.45
622.904	20006.95
623.099	20348.96
623.294	20680.73
623.488	21168.15
623.683	21288.98
623.878	21884.94
624.072	22292.48
624.267	22636.54
624.462	23269.36
624.656	23039.99
624.851	23863.27
625.046	23746.54
625.24	24147.94
625.435	24459.23
625.629	25077.72
625.824	25339.86
626.018	25673.68
626.213	25413.59
626.407	26116.04
626.602	26009.54
626.796	26613.7
626.991	27129.78
627.185	26951.61
627.38	27310
627.574	27709.36
627.768	27711.41
627.963	27733.93
628.157	27482.03
628.352	28121
628.546	27840.43
628.74	28278.69
628.935	27690.93
629.129	28022.7
629.323	27582.38
629.517	27942.83
629.712	27537.33
629.906	27684.78
630.1	27031.48
630.294	27013.05
630.489	26546.11
630.683	26462.15
630.877	25649.1
631.071	25397.2
631.265	25049.05
631.459	24659.93
631.653	24117.22
631.848	23642.09
632.042	22908.92
632.236	22740.99
632.43	21794.82
632.624	21475.34
632.818	20819.99
633.012	20193.31
633.206	19709.99
633.4	18798.65
633.594	17981.51
633.788	17692.74
633.982	17260.62
634.176	16513.11
634.369	15652.97
634.563	15192.17
634.757	14411.9
634.951	14334.07
635.145	13707.4
635.339	13080.72
635.533	12499.09
635.726	12083.36
635.92	11462.82
636.114	11145.39
636.308	10666.16
636.501	10281.14
636.695	9736.38
636.889	9316.55
637.083	8943.82
637.276	8673.49
637.47	8143.07
637.664	7985.37
637.857	7612.64
638.051	7424.23
638.244	7055.59
638.438	6652.14
638.632	6473.97
638.825	6330.61
639.019	6011.13
639.212	5691.65
639.406	5536
639.599	5304.58
639.793	5122.31
639.986	4989.19
640.18	4753.68
640.373	4552.98
640.567	4464.91
640.76	4307.22
640.954	4088.09
641.147	3692.83
641.34	3809.56
641.534	3594.53
641.727	3479.84
641.92	3277.09
642.114	3133.73
642.307	3199.27
642.5	2998.57
642.694	2707.76
642.887	2697.52
643.08	2687.28
643.273	2529.58
643.467	2507.06
643.66	2359.6
643.853	2234.68
644.046	2111.8
644.239	2105.65
644.432	1911.1
644.626	1900.86
644.819	1818.94
645.012	1796.41
645.205	1767.74
645.398	1691.96
645.591	1726.78
645.784	1513.79
645.977	1362.24
646.17	1380.67
646.363	1308.99
646.556	1255.75
646.749	1278.27
646.942	1190.21
647.135	1237.31
647.328	1050.95
647.521	1130.82
647.714	1071.43
647.907	1087.81
648.099	868.68
648.292	1085.76
648.485	891.21
648.678	903.5
648.871	715.08
649.064	864.58
649.256	833.86
649.449	643.4
649.642	688.46
649.835	670.03
650.027	600.4
650.22	704.84
650.413	555.34
650.605	624.97
650.798	553.29
650.991	528.72
651.183	528.72
651.376	543.05
651.568	573.77
651.761	428.37
651.954	602.44
652.146	493.9
652.339	502.09
652.531	438.61
652.724	471.37
652.916	313.68
653.109	299.34
653.301	385.36
653.494	325.97
653.686	328.02
653.879	422.22
654.071	426.32
654.263	295.25
654.456	342.35
654.648	379.22
654.84	285.01
655.033	248.15
655.225	385.36
655.417	221.52
655.61	340.3
655.802	391.5
655.994	424.27
656.186	127.32
656.379	389.46
656.571	223.57
656.763	274.77
656.955	176.47
657.148	147.8
657.34	276.82
657.532	207.19
657.724	182.61
657.916	225.62
658.108	297.3
658.3	285.01
658.492	235.86
658.684	207.19
658.876	256.34
659.068	41.3
659.26	119.12
659.452	158.03
659.644	153.94
659.836	334.16
660.028	190.8
660.22	176.47
660.412	166.23
660.604	149.84
660.796	131.41
660.988	194.9
661.18	168.27
661.372	258.39
661.563	117.08
661.755	24.92
661.947	94.55
662.139	86.36
662.331	168.27
662.522	22.87
662.714	104.79
662.906	153.94
663.097	135.51
663.289	127.32
663.481	67.92
663.673	106.84
663.864	160.08
664.056	139.6
664.247	67.92
664.439	248.15
664.631	170.32
664.822	100.69
665.014	192.85
665.205	166.23
665.397	-5.8
665.588	166.23
665.78	149.84
665.971	170.32
666.163	125.27
666.354	203.09
666.546	0.34
666.737	139.6
666.929	90.45
667.12	74.07
667.311	149.84
667.503	45.4
667.694	182.61
667.885	176.47
668.077	164.18
668.268	-7.85
668.459	158.03
668.651	162.13
668.842	121.17
669.033	35.16
669.224	-32.43
669.416	317.78
669.607	129.36
669.798	88.4
669.989	127.32
670.18	94.55
670.371	92.5
670.563	-3.75
670.754	151.89
670.945	127.32
671.136	209.23
671.327	127.32
671.518	151.89
671.709	209.23
671.9	176.47
672.091	213.33
672.282	80.21
672.473	153.94
672.664	12.63
672.855	143.7
673.046	127.32
673.237	158.03
673.428	151.89
673.619	194.9
673.809	223.57
674	252.24
674.191	96.6
674.382	29.01
674.573	98.64
674.764	63.83
674.954	227.67
675.145	57.68
675.336	162.13
675.527	131.41
675.717	129.36
675.908	145.75
676.099	160.08
676.289	96.6
676.48	57.68
676.671	182.61
676.861	18.77
677.052	207.19
677.243	145.75
677.433	82.26
677.624	223.57
677.814	180.56
678.005	155.99
678.195	321.87
678.386	67.92
678.576	129.36
678.767	162.13
678.957	186.71
679.148	203.09
679.338	323.92
679.529	170.32
679.719	129.36
679.909	266.58
680.1	211.28
680.29	299.34
680.481	80.21
680.671	252.24
680.861	178.51
681.052	184.66
681.242	176.47
681.432	239.95
681.622	215.38
681.813	178.51
682.003	178.51
682.193	205.14
682.383	252.24
682.573	186.71
682.764	178.51
682.954	221.52
683.144	272.72
683.334	178.51
683.524	198.99
683.714	268.63
683.904	219.47
684.094	176.47
684.284	213.33
684.474	295.25
684.664	360.78
684.854	233.81
685.044	160.08
685.234	188.75
685.424	231.76
685.614	178.51
685.804	313.68
685.994	182.61
686.184	268.63
686.374	205.14
686.564	250.19
686.753	198.99
686.943	174.42
687.133	188.75
687.323	307.54
687.513	256.34
687.702	223.57
687.892	239.95
688.082	358.74
688.272	297.3
688.461	205.14
688.651	393.55
688.841	291.15
689.03	260.43
689.22	166.23
689.41	317.78
689.599	256.34
689.789	211.28
689.979	274.77
690.168	246.1
690.358	360.78
690.547	168.27
690.737	207.19
690.926	336.21
691.116	229.71
691.305	299.34
691.495	217.43
691.684	205.14
691.874	201.04
692.063	244.05
692.252	219.47
692.442	291.15
692.631	115.03
692.82	160.08
693.01	242
693.199	231.76
693.388	270.67
693.578	282.96
693.767	198.99
693.956	319.82
694.146	158.03
694.335	303.44
694.524	221.52
694.713	373.07
694.902	194.9
695.092	168.27
695.281	205.14
695.47	201.04
695.659	211.28
695.848	211.28
696.037	225.62
696.226	266.58
696.415	215.38
696.604	225.62
696.793	268.63
696.982	268.63
697.171	309.58
697.36	147.8
697.549	235.86
697.738	139.6
697.927	237.91
698.116	168.27
698.305	198.99
698.494	174.42
698.683	141.65
698.872	366.93
699.061	170.32
699.25	176.47
699.438	168.27
699.627	170.32
699.816	438.61
700.005	127.32
700.193	135.51
700.382	223.57
700.571	180.56
700.76	196.95
700.948	342.35
701.137	211.28
701.326	164.18
701.514	139.6
701.703	194.9
701.892	250.19
702.08	334.16
702.269	108.88
702.457	174.42
702.646	227.67
702.834	164.18
703.023	213.33
703.212	268.63
703.4	217.43
703.589	180.56
703.777	164.18
703.965	104.79
704.154	194.9
704.342	149.84
704.531	125.27
704.719	250.19
704.907	342.35
705.096	160.08
705.284	110.93
705.472	172.37
705.661	207.19
705.849	198.99
706.037	244.05
706.226	235.86
706.414	239.95
706.602	137.56
706.79	272.72
706.979	162.13
707.167	190.8
707.355	18.77
707.543	233.81
707.731	272.72
707.919	221.52
708.107	205.14
708.296	176.47
708.484	110.93
708.672	274.77
708.86	291.15
709.048	229.71
709.236	205.14
709.424	219.47
709.612	266.58
709.8	102.74
709.988	217.43
710.176	252.24
710.364	307.54
710.551	166.23
710.739	260.43
710.927	217.43
711.115	198.99
711.303	239.95
711.491	280.91
711.679	131.41
711.866	311.63
712.054	242
712.242	244.05
712.43	295.25
712.617	168.27
712.805	258.39
712.993	215.38
713.181	180.56
713.368	299.34
713.556	254.29
713.744	149.84
713.931	403.79
714.119	305.49
714.306	190.8
714.494	149.84
714.682	213.33
714.869	186.71
715.057	207.19
715.244	80.21
715.432	282.96
715.619	223.57
715.807	219.47
715.994	262.48
716.182	235.86
716.369	246.1
716.556	242
716.744	172.37
716.931	110.93
717.119	270.67
717.306	203.09
717.493	315.73
717.681	149.84
717.868	287.06
718.055	295.25
718.242	235.86
718.43	217.43
718.617	334.16
718.804	252.24
718.991	305.49
719.179	280.91
719.366	315.73
719.553	321.87
719.74	164.18
719.927	233.81
720.114	289.1
720.301	225.62
720.488	242
720.676	178.51
720.863	276.82
721.05	321.87
721.237	334.16
721.424	344.4
721.611	264.53
721.798	209.23
721.985	244.05
722.172	297.3
722.358	258.39
722.545	291.15
722.732	305.49
722.919	293.2
723.106	356.69
723.293	231.76
723.48	356.69
723.667	250.19
723.853	303.44
724.04	252.24
724.227	317.78
724.414	213.33
724.6	325.97
724.787	307.54
724.974	463.18
725.161	307.54
725.347	231.76
725.534	260.43
725.72	338.26
725.907	389.46
726.094	260.43
726.28	211.28
726.467	276.82
726.653	215.38
726.84	461.13
727.027	393.55
727.213	256.34
727.4	328.02
727.586	295.25
727.773	321.87
727.959	299.34
728.145	260.43
728.332	258.39
728.518	203.09
728.705	319.82
728.891	311.63
729.077	340.3
729.264	229.71
729.45	303.44
729.636	383.31
729.823	305.49
730.009	358.74
730.195	416.08
730.382	348.5
730.568	250.19
730.754	262.48
730.94	295.25
731.126	293.2
731.313	381.26
731.499	293.2
731.685	418.13
731.871	285.01
732.057	321.87
732.243	395.6
732.429	330.06
732.615	440.65
732.801	420.17
732.987	352.59
733.173	328.02
733.359	352.59
733.545	348.5
733.731	407.89
733.917	428.37
734.103	340.3
734.289	309.58
734.475	307.54
734.661	440.65
734.847	342.35
735.033	379.22
735.219	405.84
735.404	371.02
735.59	315.73
735.776	356.69
735.962	364.88
736.148	366.93
736.333	454.99
736.519	342.35
736.705	346.45
736.89	391.5
737.076	330.06
737.262	221.52
737.447	342.35
737.633	334.16
737.819	446.8
738.004	420.17
738.19	364.88
738.375	344.4
738.561	342.35
738.747	375.12
738.932	237.91
739.118	454.99
739.303	426.32
739.489	395.6
739.674	213.33
739.859	270.67
740.045	452.94
740.23	375.12
740.416	231.76
740.601	325.97
740.786	362.83
740.972	340.3
741.157	350.54
741.342	325.97
741.528	203.09
741.713	442.7
741.898	348.5
742.084	266.58
742.269	315.73
742.454	375.12
742.639	446.8
742.824	313.68
743.01	434.51
743.195	473.42
743.38	317.78
743.565	305.49
743.75	344.4
743.935	356.69
744.12	405.84
744.305	225.62
744.49	280.91
744.675	289.1
744.86	364.88
745.045	430.41
745.23	364.88
745.415	352.59
745.6	465.23
745.785	311.63
745.97	391.5
746.155	364.88
746.34	418.13
746.525	430.41
746.71	397.65
746.895	313.68
747.079	246.1
747.264	342.35
747.449	328.02
747.634	287.06
747.819	432.46
748.003	272.72
748.188	254.29
748.373	344.4
748.557	317.78
748.742	342.35
748.927	360.78
749.111	203.09
749.296	334.16
749.481	373.07
749.665	325.97
749.85	373.07
750.034	334.16
750.219	348.5
750.404	201.04
750.588	325.97
750.773	321.87
750.957	330.06
751.141	258.39
751.326	317.78
751.51	153.94
751.695	264.53
751.879	252.24
752.064	387.41
752.248	231.76
752.432	368.98
752.617	358.74
752.801	301.39
752.985	219.47
753.17	313.68
753.354	252.24
753.538	278.87
753.722	270.67
753.907	192.85
754.091	170.32
754.275	301.39
754.459	198.99
754.643	219.47
754.828	330.06
755.012	221.52
755.196	176.47
755.38	274.77
755.564	252.24
755.748	158.03
755.932	332.11
756.116	289.1
756.3	266.58
756.484	217.43
756.668	174.42
756.852	180.56
757.036	158.03
757.22	227.67
757.404	149.84
757.588	155.99
757.772	237.91
757.956	198.99
758.14	356.69
758.323	92.5
758.507	137.56
758.691	188.75
758.875	305.49
759.059	303.44
759.242	194.9
759.426	215.38
759.61	155.99
759.794	176.47
759.977	219.47
760.161	448.85
760.345	295.25
760.528	303.44
760.712	147.8
760.895	201.04
761.079	182.61
761.263	108.88
761.446	190.8
761.63	160.08
761.813	264.53
761.997	96.6
762.18	231.76
762.364	170.32
762.547	123.22
762.731	162.13
762.914	145.75
763.098	106.84
763.281	147.8
763.464	176.47
763.648	153.94
763.831	127.32
764.015	125.27
764.198	266.58
764.381	131.41
764.564	98.64
764.748	264.53
764.931	272.72
765.114	88.4
765.297	242
765.481	102.74
765.664	100.69
765.847	90.45
766.03	250.19
766.213	80.21
766.397	86.36
766.58	88.4
766.763	268.63
766.946	112.98
767.129	178.51
767.312	-20.14
767.495	153.94
767.678	112.98
767.861	172.37
768.044	117.08
768.227	74.07
768.41	67.92
768.593	123.22
768.776	176.47
768.959	35.16
769.142	135.51
769.324	119.12
769.507	145.75
769.69	90.45
769.873	125.27
770.056	268.63
770.239	135.51
770.421	194.9
770.604	74.07
770.787	133.46
770.97	158.03
771.152	51.54
771.335	172.37
771.518	84.31
771.7	211.28
771.883	260.43
772.066	20.82
772.248	194.9
772.431	291.15
772.613	135.51
772.796	37.2
772.978	141.65
773.161	190.8
773.343	53.59
773.526	106.84
773.708	10.58
773.891	33.11
774.073	29.01
774.256	49.49
774.438	166.23
774.621	39.25
774.803	158.03
774.985	117.08
775.168	188.75
775.35	94.55
775.532	149.84
775.715	24.92
775.897	151.89
776.079	115.03
776.261	108.88
776.444	133.46
776.626	168.27
776.808	69.97
776.99	-42.67
777.173	106.84
777.355	82.26
777.537	110.93
777.719	119.12
777.901	74.07
778.083	88.4
778.265	-3.75
778.447	174.42
778.629	84.31
778.811	104.79
778.993	174.42
779.175	155.99
779.357	106.84
779.539	12.63
779.721	53.59
779.903	121.17
780.085	51.54
780.267	127.32
780.449	49.49
780.631	117.08
780.812	225.62
780.994	90.45
781.176	24.92
781.358	20.82
781.54	57.68
781.721	168.27
781.903	125.27
782.085	80.21
782.267	176.47
782.448	-36.52
782.63	45.4
782.812	82.26
782.993	61.78
783.175	88.4
783.357	-22.19
783.538	90.45
783.72	-52.91
783.901	39.25
784.083	84.31
784.264	78.16
784.446	-32.43
784.627	31.06
784.809	155.99
784.99	-36.52
785.172	110.93
785.353	20.82
785.535	96.6
785.716	-5.8
785.897	29.01
786.079	67.92
786.26	49.49
786.441	88.4
786.623	-40.62
786.804	45.4
786.985	39.25
787.167	26.96
787.348	6.49
787.529	-50.86
787.71	162.13
787.891	98.64
788.073	8.53
788.254	-16.04
788.435	186.71
788.616	84.31
788.797	4.44
788.978	-22.19
789.159	-38.57
789.34	180.56
789.522	102.74
789.703	-13.99
789.884	10.58
790.065	55.64
790.246	121.17
790.427	-36.52
790.607	69.97
790.788	98.64
790.969	4.44
791.15	74.07
791.331	37.2
791.512	-5.8
791.693	-65.19
791.874	47.44
792.054	186.71
792.235	86.36
792.416	-61.1
792.597	29.01
792.778	133.46
792.958	2.39
793.139	-18.09
793.32	35.16
793.5	-89.77
793.681	35.16
793.862	31.06
794.042	-18.09
794.223	-73.39
794.404	-44.71
794.584	-67.24
794.765	20.82
794.945	-16.04
795.126	131.41
795.306	108.88
795.487	-18.09
795.667	-63.15
795.848	14.68
796.028	65.88
796.209	35.16
796.389	160.08
796.57	-11.95
796.75	-32.43
796.93	37.2
797.111	-22.19
797.291	-81.58
797.471	33.11
797.652	63.83
797.832	-54.95
798.012	14.68
798.192	45.4
798.373	-91.82
798.553	-9.9
798.733	16.73
798.913	-77.48
799.093	-42.67
799.274	20.82
799.454	86.36
799.634	108.88
799.814	88.4
799.994	33.11
800.174	16.73
800.354	-11.95
800.534	-93.87
800.714	90.45
800.894	-97.96
801.074	-7.85
801.254	-59.05
801.434	67.92
801.614	-18.09
801.794	-163.5
801.974	1767.74
802.154	-32.43
802.334	108.88
802.514	-93.87
802.693	-22.19
802.873	-32.43
803.053	55.64
803.233	59.73
803.413	31.06
803.592	-16.04
803.772	-40.62
803.952	41.3
804.131	-48.81
804.311	33.11
804.491	86.36
804.67	14.68
804.85	-7.85
805.03	-16.04
805.209	104.79
805.389	-24.23
805.568	-91.82
805.748	-28.33
805.928	-57
806.107	78.16
806.287	24.92
806.466	82.26
806.646	-11.95
806.825	31.06
807.004	24.92
807.184	-36.52
807.363	20.82
807.543	0.34
807.722	-104.11
807.901	112.98
808.081	78.16
808.26	-106.15
808.439	-54.95
808.619	57.68
808.798	-40.62
808.977	65.88
809.156	-26.28
809.336	-11.95
809.515	63.83
809.694	-18.09
809.873	10.58
810.052	80.21
810.231	94.55
810.411	4.44
810.59	90.45
810.769	-36.52
810.948	43.35
811.127	-126.63
811.306	-20.14
811.485	-61.1
811.664	96.6
811.843	-36.52
812.022	67.92
812.201	-1.71
812.38	-52.91
812.559	-61.1
812.737	35.16
812.916	-69.29
813.095	-143.02
813.274	76.12
813.453	26.96
813.632	20.82
813.811	53.59
813.989	-61.1
814.168	16.73
814.347	-73.39
814.526	69.97
814.704	96.6
814.883	37.2
815.062	-22.19
815.24	53.59
815.419	-91.82
815.598	65.88
815.776	-89.77
815.955	-9.9
816.133	-112.3
816.312	-13.99
816.49	-48.81
816.669	45.4
816.847	-46.76
817.026	-61.1
817.204	2.39
817.383	45.4
817.561	29.01
817.74	88.4
817.918	20.82
818.097	41.3
818.275	-114.34
818.453	45.4
818.632	8.53
818.81	-42.67
818.988	37.2
819.167	-26.28
819.345	-59.05
819.523	-104.11
819.701	41.3
819.879	-9.9
820.058	14.68
820.236	29.01
820.414	-20.14
820.592	-87.72
820.77	0.34
820.948	12.63
821.127	-91.82
821.305	49.49
821.483	-108.2
821.661	76.12
821.839	-50.86
822.017	2.39
822.195	22.87
822.373	39.25
822.551	-9.9
822.729	94.55
822.907	-1.71
823.085	39.25
823.262	-46.76
823.44	-38.57
823.618	-30.38
823.796	80.21
823.974	-83.63
824.152	-61.1
824.329	-79.53
824.507	39.25
824.685	-18.09
824.863	-5.8
825.04	4.44
825.218	102.74
825.396	18.77
825.574	39.25
825.751	22.87
825.929	37.2
826.107	-188.07
826.284	22.87
826.462	2.39
826.639	-79.53
826.817	-73.39
826.994	39.25
827.172	-126.63
827.349	88.4
827.527	29.01
827.704	-18.09
827.882	69.97
828.059	6.49
828.237	-63.15
828.414	51.54
828.591	-79.53
828.769	-26.28
828.946	-38.57
829.124	55.64
829.301	121.17
829.478	-3.75
829.655	-3.75
829.833	-73.39
830.01	-106.15
830.187	2.39
830.364	10.58
830.542	-28.33
830.719	100.69
830.896	22.87
831.073	35.16
831.25	37.2
831.427	24.92
831.604	20.82
831.782	-83.63
831.959	104.79
832.136	-13.99
832.313	-9.9
832.49	-30.38
832.667	-11.95
832.844	-38.57
833.021	39.25
833.198	20.82
833.374	41.3
833.551	61.78
833.728	-42.67
833.905	86.36
834.082	-151.21
834.259	45.4
834.436	65.88
834.612	31.06
834.789	55.64
834.966	16.73
835.143	-28.33
835.319	-3.75
835.496	26.96
835.673	67.92
835.85	104.79
836.026	-5.8
836.203	57.68
836.38	-46.76
836.556	-42.67
836.733	-13.99
836.909	57.68
837.086	-28.33
837.262	-147.11
837.439	53.59
837.616	-61.1
837.792	29.01
837.968	31.06
838.145	-186.02
838.321	59.73
838.498	29.01
838.674	-28.33
838.851	49.49
839.027	-40.62
839.203	-7.85
839.38	72.02
839.556	6.49
839.732	-3.75
839.909	4.44
840.085	37.2
840.261	-153.26
840.437	-11.95
840.614	-54.95
840.79	14.68
840.966	88.4
841.142	-22.19
841.318	-34.47
841.494	35.16
841.671	-22.19
841.847	-59.05
842.023	-130.73
842.199	-28.33
842.375	92.5
842.551	-71.34
842.727	-44.71
842.903	112.98
843.079	-116.39
843.255	94.55
843.431	35.16
843.607	61.78
843.783	-173.74
843.959	14.68
844.134	-106.15
844.31	61.78
844.486	-20.14
844.662	-138.92
844.838	-59.05
845.013	-16.04
845.189	39.25
845.365	31.06
845.541	12.63
845.716	-7.85
845.892	102.74
846.068	-5.8
846.244	14.68
846.419	-54.95
846.595	-130.73
846.77	-91.82
846.946	74.07
847.122	-67.24
847.297	-36.52
847.473	102.74
847.648	-87.72
847.824	4.44
847.999	-159.4
848.175	-36.52
848.35	12.63
848.526	86.36
848.701	69.97
848.876	26.96
849.052	94.55
849.227	-30.38
849.403	-59.05
849.578	14.68
849.753	-36.52
849.929	-59.05
850.104	-81.58
850.279	-7.85
850.454	35.16
850.63	2.39
850.805	-40.62
850.98	-5.8
851.155	4.44
851.33	59.73
851.505	-167.59
851.681	176.47
851.856	-46.76
852.031	-65.19
852.206	-42.67
852.381	-30.38
852.556	29.01
852.731	55.64
852.906	72.02
853.081	41.3
853.256	123.22
853.431	-13.99
853.606	55.64
853.781	-77.48
853.956	-138.92
854.131	8.53
854.305	-87.72
854.48	-34.47
854.655	-73.39
854.83	-73.39
855.005	-26.28
855.18	-13.99
855.354	8.53
855.529	-38.57
855.704	-11.95
855.879	72.02
856.053	-59.05
856.228	-5.8
856.403	-128.68
856.577	22.87
856.752	-40.62
856.926	-48.81
857.101	-16.04
857.276	-118.44
857.45	-22.19
857.625	96.6
857.799	12.63
857.974	-28.33
858.148	-83.63
858.323	-24.23
858.497	-65.19
858.672	-91.82
858.846	-18.09
859.02	72.02
859.195	-116.39
859.369	-89.77
859.543	16.73
859.718	-9.9
859.892	-18.09
860.066	55.64
860.241	-73.39
860.415	-91.82
860.589	-46.76
860.763	-18.09
860.938	-75.43
861.112	31.06
861.286	-40.62
861.46	76.12
861.634	-44.71
861.808	0.34
861.982	-116.39
862.157	-16.04
862.331	-67.24
862.505	-128.68
862.679	-42.67
862.853	-48.81
863.027	-89.77
863.201	80.21
863.375	-97.96
863.549	22.87
863.722	-13.99
863.896	78.16
864.07	-95.91
864.244	-3.75
864.418	98.64
864.592	-16.04
864.766	-7.85
864.939	-81.58
865.113	-46.76
865.287	22.87
865.461	-34.47
865.634	4.44
865.808	-95.91
865.982	-67.24
866.156	-81.58
866.329	-91.82
866.503	47.44
866.676	45.4
866.85	45.4
867.024	-9.9
867.197	112.98
867.371	63.83
867.544	-28.33
867.718	-130.73
867.891	61.78
868.065	-132.78
868.238	-5.8
868.412	39.25
868.585	-7.85
868.759	-61.1
868.932	18.77
869.105	-145.06
869.279	2.39
869.452	-112.3
869.625	51.54
869.799	-9.9
869.972	-120.49
870.145	-81.58
870.319	8.53
870.492	-61.1
870.665	-16.04
870.838	-52.91
871.011	-165.54
871.185	-87.72
871.358	-120.49
871.531	-57
871.704	-67.24
871.877	-81.58
872.05	-22.19
872.223	-59.05
872.396	51.54
872.569	-34.47
872.742	-77.48
872.915	69.97
873.088	-85.67
873.261	-54.95
873.434	31.06
873.607	-83.63
873.78	121.17
873.953	-59.05
874.126	0.34
874.299	-22.19
874.471	-11.95
874.644	-81.58
874.817	22.87
874.99	141.65
875.163	-52.91
875.335	53.59
875.508	-71.34
875.681	94.55
875.853	-95.91
876.026	-67.24
876.199	61.78
876.371	16.73
876.544	-9.9
876.717	-22.19
876.889	-83.63
877.062	4.44
877.234	-73.39
877.407	-97.96
877.579	-11.95
877.752	-46.76
877.924	4.44
878.097	2.39
878.269	18.77
878.442	-54.95
878.614	26.96
878.786	-30.38
878.959	-32.43
879.131	-69.29
879.303	-147.11
879.476	-40.62
879.648	33.11
879.82	-5.8
879.993	4.44
880.165	-71.34
880.337	-159.4
880.509	22.87
880.681	-132.78
880.854	-104.11
881.026	-24.23
881.198	119.12
881.37	22.87
881.542	-50.86
881.714	-93.87
881.886	-30.38
882.058	-5.8
882.23	18.77
882.402	-22.19
882.574	18.77
882.746	63.83
882.918	63.83
883.09	-91.82
883.262	-34.47
883.434	-7.85
883.606	-87.72
883.778	-116.39
883.95	90.45
884.122	-42.67
884.293	100.69
884.465	-77.48
884.637	20.82
884.809	-34.47
884.98	-69.29
885.152	20.82
885.324	72.02
885.496	-102.06
885.667	-69.29
885.839	-30.38
886.011	119.12
886.182	-57
886.354	84.31
886.525	26.96
886.697	-44.71
886.869	-65.19
887.04	-24.23
887.212	90.45
887.383	96.6
887.555	-20.14
887.726	-85.67
887.897	59.73
888.069	-83.63
888.24	12.63
888.412	-28.33
888.583	-11.95
888.754	-75.43
888.926	-89.77
889.097	-71.34
889.268	-128.68
889.44	-7.85
889.611	-126.63
889.782	-102.06
889.953	-114.34
890.125	90.45
890.296	-81.58
890.467	-9.9
890.638	-38.57
890.809	2.39
890.98	-36.52
891.151	35.16
891.323	65.88
891.494	-50.86
891.665	-24.23
891.836	-118.44
892.007	4.44
892.178	-28.33
892.349	-73.39
892.52	-38.57
892.691	-38.57
892.862	-11.95
893.032	-165.54
893.203	-91.82
893.374	2.39
893.545	47.44
893.716	-97.96
893.887	35.16
894.057	-57
894.228	-59.05
894.399	-106.15
894.57	82.26
894.74	-85.67
894.911	-18.09
895.082	-52.91
895.253	-83.63
895.423	-24.23
895.594	53.59
895.764	-67.24
895.935	-155.3
896.106	4.44
896.276	-52.91
896.447	-50.86
896.617	-124.58
896.788	-87.72
896.958	-50.86
897.129	-63.15
897.299	-44.71
897.47	104.79
897.64	-13.99
897.81	2.39
897.981	35.16
898.151	-118.44
898.322	57.68
898.492	69.97
898.662	-73.39
898.832	-85.67
899.003	-57
899.173	-30.38
899.343	-87.72
899.513	-54.95
