Data from USB4F104151__53__10-25-57-430.txt Node

Date: Wed Feb 26 10:25:57 EST 2025
User: louis
Spectrometer: USB4F10415
Trigger mode: 4
Integration Time (sec): 1.000000E-1
Scans to average: 1
Electric dark correction enabled: true
Nonlinearity correction enabled: false
Boxcar width: 0
XAxis mode: Wavelengths
Number of Pixels in Spectrum: 3648
>>>>>Begin Spectral Data<<<<<
178.204	-441.34
178.424	-441.34
178.644	-441.34
178.864	-451.58
179.084	-406.52
179.304	44.03
179.524	50.18
179.744	5.12
179.964	37.89
180.184	1.02
180.404	11.26
180.624	-39.94
180.844	-68.61
181.064	-37.89
181.283	-11.26
181.503	-23.55
181.723	31.74
181.943	-70.65
182.163	189.44
182.383	48.13
182.602	74.75
182.822	107.52
183.042	91.13
183.262	62.46
183.482	44.03
183.701	72.7
183.921	46.08
184.141	-68.61
184.361	87.04
184.58	156.67
184.8	107.52
185.02	37.89
185.239	76.8
185.459	11.26
185.679	111.61
185.898	-21.5
186.118	91.13
186.338	64.51
186.557	84.99
186.777	-117.76
186.997	37.89
187.216	37.89
187.436	283.64
187.655	54.27
187.875	125.95
188.095	41.98
188.314	117.76
188.534	175.1
188.753	-15.36
188.973	70.65
189.192	205.82
189.412	9.22
189.631	48.13
189.851	136.19
190.07	179.2
190.29	-84.99
190.509	-44.03
190.729	21.5
190.948	218.11
191.168	263.16
191.387	58.37
191.607	21.5
191.826	44.03
192.045	119.81
192.265	-19.46
192.484	41.98
192.704	21.5
192.923	-3.07
193.142	173.05
193.362	82.94
193.581	146.43
193.8	9.22
194.02	171.01
194.239	97.28
194.458	66.56
194.678	41.98
194.897	44.03
195.116	29.7
195.335	33.79
195.555	66.56
195.774	7.17
195.993	95.23
196.212	35.84
196.432	62.46
196.651	5.12
196.87	9.22
197.089	281.6
197.308	99.33
197.528	62.46
197.747	-15.36
197.966	70.65
198.185	185.34
198.404	46.08
198.623	177.15
198.842	111.61
199.062	150.53
199.281	101.37
199.5	97.28
199.719	99.33
199.938	76.8
200.157	132.09
200.376	187.39
200.595	91.13
200.814	21.5
201.033	-56.32
201.252	228.35
201.471	82.94
201.69	144.38
201.909	48.13
202.128	160.77
202.347	21.5
202.566	66.56
202.785	-21.5
203.004	-17.41
203.223	297.98
203.442	39.94
203.661	9.22
203.879	60.42
204.098	48.13
204.317	-17.41
204.536	87.04
204.755	119.81
204.974	156.67
205.193	-70.65
205.411	181.25
205.63	99.33
205.849	119.81
206.068	87.04
206.287	-5.12
206.505	140.29
206.724	44.03
206.943	-58.37
207.162	-58.37
207.381	68.61
207.599	37.89
207.818	-1.02
208.037	-25.6
208.255	33.79
208.474	89.09
208.693	80.89
208.911	17.41
209.13	99.33
209.349	87.04
209.567	87.04
209.786	109.57
210.005	93.18
210.223	44.03
210.442	-82.94
210.661	-7.17
210.879	119.81
211.098	-3.07
211.316	58.37
211.535	87.04
211.753	105.47
211.972	41.98
212.191	52.22
212.409	39.94
212.628	134.14
212.846	-41.98
213.065	91.13
213.283	148.48
213.502	115.71
213.72	54.27
213.938	33.79
214.157	-37.89
214.375	103.42
214.594	33.79
214.812	140.29
215.031	89.09
215.249	15.36
215.467	84.99
215.686	58.37
215.904	46.08
216.122	3.07
216.341	117.76
216.559	89.09
216.778	117.76
216.996	115.71
217.214	25.6
217.432	-27.65
217.651	-23.55
217.869	58.37
218.087	15.36
218.306	-3.07
218.524	17.41
218.742	-27.65
218.96	89.09
219.179	15.36
219.397	46.08
219.615	316.41
219.833	60.42
220.051	17.41
220.27	50.18
220.488	125.95
220.706	142.33
220.924	-31.74
221.142	-46.08
221.36	35.84
221.578	56.32
221.796	5.12
222.015	11.26
222.233	17.41
222.451	183.29
222.669	-70.65
222.887	136.19
223.105	74.75
223.323	68.61
223.541	17.41
223.759	103.42
223.977	58.37
224.195	107.52
224.413	99.33
224.631	7.17
224.849	115.71
225.067	230.4
225.285	5.12
225.503	-9.22
225.721	-54.27
225.939	111.61
226.157	68.61
226.375	207.87
226.592	9.22
226.81	54.27
227.028	87.04
227.246	121.85
227.464	80.89
227.682	162.81
227.9	68.61
228.117	19.46
228.335	87.04
228.553	3.07
228.771	-23.55
228.989	80.89
229.206	125.95
229.424	23.55
229.642	-5.12
229.86	-19.46
230.077	107.52
230.295	76.8
230.513	121.85
230.731	74.75
230.948	101.37
231.166	248.83
231.384	50.18
231.601	60.42
231.819	189.44
232.037	19.46
232.254	-44.03
232.472	-3.07
232.689	54.27
232.907	113.66
233.125	-74.75
233.342	-37.89
233.56	111.61
233.777	-11.26
233.995	58.37
234.213	84.99
234.43	48.13
234.648	60.42
234.865	3.07
235.083	103.42
235.3	87.04
235.518	152.57
235.735	128
235.953	84.99
236.17	5.12
236.388	78.85
236.605	48.13
236.822	162.81
237.04	103.42
237.257	-3.07
237.475	-58.37
237.692	58.37
237.909	115.71
238.127	-50.18
238.344	87.04
238.562	64.51
238.779	-37.89
238.996	-9.22
239.214	107.52
239.431	60.42
239.648	-35.84
239.865	25.6
240.083	128
240.3	54.27
240.517	39.94
240.735	44.03
240.952	140.29
241.169	50.18
241.386	113.66
241.603	44.03
241.821	-3.07
242.038	70.65
242.255	130.05
242.472	3.07
242.689	125.95
242.907	41.98
243.124	44.03
243.341	41.98
243.558	33.79
243.775	-35.84
243.992	-41.98
244.209	109.57
244.426	134.14
244.643	50.18
244.86	29.7
245.078	103.42
245.295	119.81
245.512	35.84
245.729	35.84
245.946	78.85
246.163	44.03
246.38	19.46
246.597	142.33
246.814	46.08
247.031	37.89
247.248	29.7
247.464	107.52
247.681	62.46
247.898	128
248.115	91.13
248.332	-17.41
248.549	138.24
248.766	132.09
248.983	107.52
249.2	46.08
249.417	138.24
249.633	15.36
249.85	89.09
250.067	87.04
250.284	54.27
250.501	58.37
250.717	62.46
250.934	-31.74
251.151	80.89
251.368	-17.41
251.585	13.31
251.801	58.37
252.018	-82.94
252.235	46.08
252.451	-13.31
252.668	-33.79
252.885	80.89
253.102	140.29
253.318	62.46
253.535	-31.74
253.752	9.22
253.968	21.5
254.185	-13.31
254.401	91.13
254.618	46.08
254.835	11.26
255.051	76.8
255.268	76.8
255.484	50.18
255.701	31.74
255.917	97.28
256.134	-7.17
256.351	9.22
256.567	-56.32
256.784	93.18
257	9.22
257.217	113.66
257.433	107.52
257.65	54.27
257.866	160.77
258.082	-46.08
258.299	31.74
258.515	87.04
258.732	31.74
258.948	13.31
259.165	64.51
259.381	-52.22
259.597	44.03
259.814	33.79
260.03	46.08
260.246	13.31
260.463	234.49
260.679	130.05
260.895	68.61
261.112	44.03
261.328	41.98
261.544	-7.17
261.761	228.35
261.977	-11.26
262.193	-82.94
262.409	46.08
262.626	140.29
262.842	84.99
263.058	-70.65
263.274	105.47
263.49	-35.84
263.707	166.91
263.923	140.29
264.139	5.12
264.355	62.46
264.571	74.75
264.787	95.23
265.004	48.13
265.22	-19.46
265.436	-31.74
265.652	-7.17
265.868	72.7
266.084	-50.18
266.3	56.32
266.516	-19.46
266.732	29.7
266.948	3.07
267.164	-1.02
267.38	140.29
267.596	119.81
267.812	123.9
268.028	-7.17
268.244	78.85
268.46	54.27
268.676	-3.07
268.892	64.51
269.108	23.55
269.324	-17.41
269.54	-7.17
269.756	154.62
269.972	-68.61
270.188	41.98
270.403	-5.12
270.619	19.46
270.835	99.33
271.051	62.46
271.267	33.79
271.483	60.42
271.698	146.43
271.914	103.42
272.13	35.84
272.346	-11.26
272.562	62.46
272.777	25.6
272.993	-5.12
273.209	29.7
273.425	52.22
273.64	-76.8
273.856	60.42
274.072	-87.04
274.287	-3.07
274.503	70.65
274.719	78.85
274.934	13.31
275.15	-56.32
275.366	101.37
275.581	5.12
275.797	68.61
276.012	39.94
276.228	-5.12
276.444	62.46
276.659	160.77
276.875	97.28
277.09	-33.79
277.306	-9.22
277.521	111.61
277.737	82.94
277.952	95.23
278.168	31.74
278.383	97.28
278.599	111.61
278.814	128
279.03	37.89
279.245	193.53
279.461	58.37
279.676	95.23
279.892	-7.17
280.107	-33.79
280.322	-64.51
280.538	142.33
280.753	-9.22
280.969	62.46
281.184	15.36
281.399	142.33
281.615	76.8
281.83	25.6
282.045	-72.7
282.26	-29.7
282.476	115.71
282.691	89.09
282.906	33.79
283.122	46.08
283.337	76.8
283.552	89.09
283.767	-35.84
283.983	111.61
284.198	3.07
284.413	50.18
284.628	-101.37
284.843	130.05
285.058	72.7
285.274	33.79
285.489	-15.36
285.704	44.03
285.919	-1.02
286.134	101.37
286.349	17.41
286.564	29.7
286.779	128
286.995	-21.5
287.21	-31.74
287.425	113.66
287.64	25.6
287.855	56.32
288.07	-41.98
288.285	107.52
288.5	78.85
288.715	103.42
288.93	-1.02
289.145	29.7
289.36	44.03
289.575	-5.12
289.79	78.85
290.004	72.7
290.219	91.13
290.434	-7.17
290.649	-11.26
290.864	-7.17
291.079	-19.46
291.294	56.32
291.509	46.08
291.724	11.26
291.938	17.41
292.153	46.08
292.368	19.46
292.583	13.31
292.798	111.61
293.012	60.42
293.227	44.03
293.442	1.02
293.657	136.19
293.871	164.86
294.086	93.18
294.301	160.77
294.516	146.43
294.73	84.99
294.945	-31.74
295.16	50.18
295.374	66.56
295.589	87.04
295.804	-33.79
296.018	50.18
296.233	138.24
296.447	35.84
296.662	-9.22
296.877	109.57
297.091	31.74
297.306	56.32
297.52	9.22
297.735	15.36
297.949	1.02
298.164	31.74
298.378	99.33
298.593	-72.7
298.807	15.36
299.022	68.61
299.236	191.49
299.451	33.79
299.665	68.61
299.88	37.89
300.094	115.71
300.309	23.55
300.523	74.75
300.737	-103.42
300.952	31.74
301.166	1.02
301.381	-39.94
301.595	7.17
301.809	48.13
302.024	17.41
302.238	-29.7
302.452	111.61
302.667	70.65
302.881	209.92
303.095	70.65
303.309	11.26
303.524	-7.17
303.738	72.7
303.952	3.07
304.166	130.05
304.381	-115.71
304.595	101.37
304.809	11.26
305.023	-31.74
305.237	-58.37
305.452	39.94
305.666	70.65
305.88	166.91
306.094	87.04
306.308	87.04
306.522	87.04
306.736	58.37
306.95	91.13
307.164	27.65
307.379	21.5
307.593	150.53
307.807	66.56
308.021	78.85
308.235	7.17
308.449	-41.98
308.663	-15.36
308.877	177.15
309.091	21.5
309.305	64.51
309.519	-95.23
309.733	148.48
309.947	23.55
310.161	27.65
310.374	130.05
310.588	113.66
310.802	82.94
311.016	-11.26
311.23	46.08
311.444	17.41
311.658	-17.41
311.872	74.75
312.085	111.61
312.299	142.33
312.513	148.48
312.727	58.37
312.941	-21.5
313.154	60.42
313.368	-1.02
313.582	1.02
313.796	140.29
314.009	13.31
314.223	130.05
314.437	3.07
314.651	23.55
314.864	50.18
315.078	-48.13
315.292	-70.65
315.505	37.89
315.719	66.56
315.933	72.7
316.146	84.99
316.36	1.02
316.573	146.43
316.787	113.66
317.001	82.94
317.214	27.65
317.428	44.03
317.641	-17.41
317.855	1.02
318.068	35.84
318.282	97.28
318.495	168.96
318.709	84.99
318.922	-50.18
319.136	146.43
319.349	91.13
319.563	7.17
319.776	-5.12
319.99	-33.79
320.203	119.81
320.417	74.75
320.63	121.85
320.843	199.68
321.057	7.17
321.27	37.89
321.483	29.7
321.697	146.43
321.91	74.75
322.124	37.89
322.337	72.7
322.55	19.46
322.763	76.8
322.977	-11.26
323.19	-7.17
323.403	35.84
323.617	130.05
323.83	78.85
324.043	13.31
324.256	46.08
324.469	-33.79
324.683	80.89
324.896	33.79
325.109	23.55
325.322	-64.51
325.535	91.13
325.748	95.23
325.962	70.65
326.175	58.37
326.388	27.65
326.601	193.53
326.814	25.6
327.027	48.13
327.24	193.53
327.453	-46.08
327.666	109.57
327.879	211.96
328.092	187.39
328.305	97.28
328.518	41.98
328.731	23.55
328.944	19.46
329.157	82.94
329.37	-25.6
329.583	134.14
329.796	207.87
330.009	-31.74
330.222	113.66
330.435	97.28
330.648	68.61
330.861	74.75
331.073	78.85
331.286	136.19
331.499	21.5
331.712	60.42
331.925	21.5
332.138	-11.26
332.35	154.62
332.563	11.26
332.776	150.53
332.989	-64.51
333.202	150.53
333.414	95.23
333.627	21.5
333.84	15.36
334.053	58.37
334.265	29.7
334.478	76.8
334.691	50.18
334.903	128
335.116	-68.61
335.329	35.84
335.541	117.76
335.754	152.57
335.966	-7.17
336.179	29.7
336.392	74.75
336.604	21.5
336.817	93.18
337.029	82.94
337.242	121.85
337.454	128
337.667	105.47
337.88	134.14
338.092	54.27
338.305	37.89
338.517	-7.17
338.729	101.37
338.942	132.09
339.154	-62.46
339.367	-15.36
339.579	123.9
339.792	25.6
340.004	111.61
340.217	31.74
340.429	68.61
340.641	-35.84
340.854	-109.57
341.066	25.6
341.278	189.44
341.491	181.25
341.703	37.89
341.915	-33.79
342.128	60.42
342.34	46.08
342.552	-27.65
342.764	68.61
342.977	21.5
343.189	111.61
343.401	60.42
343.613	-11.26
343.826	68.61
344.038	1.02
344.25	113.66
344.462	-29.7
344.674	76.8
344.886	15.36
345.099	29.7
345.311	44.03
345.523	-13.31
345.735	-19.46
345.947	99.33
346.159	62.46
346.371	117.76
346.583	27.65
346.795	228.35
347.007	64.51
347.219	74.75
347.431	-25.6
347.643	84.99
347.855	-27.65
348.067	152.57
348.279	-31.74
348.491	46.08
348.703	134.14
348.915	27.65
349.127	9.22
349.339	37.89
349.551	46.08
349.763	150.53
349.975	5.12
350.187	103.42
350.399	101.37
350.61	113.66
350.822	-1.02
351.034	50.18
351.246	70.65
351.458	15.36
351.669	107.52
351.881	-3.07
352.093	117.76
352.305	105.47
352.517	80.89
352.728	99.33
352.94	89.09
353.152	95.23
353.363	-11.26
353.575	113.66
353.787	173.05
353.999	60.42
354.21	154.62
354.422	-64.51
354.633	68.61
354.845	-3.07
355.057	7.17
355.268	-27.65
355.48	25.6
355.692	-91.13
355.903	58.37
356.115	1.02
356.326	-11.26
356.538	119.81
356.749	41.98
356.961	209.92
357.172	95.23
357.384	-27.65
357.595	211.96
357.807	-56.32
358.018	15.36
358.23	70.65
358.441	205.82
358.653	60.42
358.864	23.55
359.075	-54.27
359.287	29.7
359.498	117.76
359.709	97.28
359.921	80.89
360.132	113.66
360.344	5.12
360.555	11.26
360.766	74.75
360.977	29.7
361.189	103.42
361.4	35.84
361.611	140.29
361.823	154.62
362.034	23.55
362.245	-72.7
362.456	109.57
362.667	66.56
362.879	54.27
363.09	99.33
363.301	91.13
363.512	152.57
363.723	-9.22
363.935	60.42
364.146	58.37
364.357	7.17
364.568	15.36
364.779	-72.7
364.99	171.01
365.201	21.5
365.412	136.19
365.623	-76.8
365.834	58.37
366.045	46.08
366.256	121.85
366.467	31.74
366.678	-23.55
366.889	60.42
367.1	-46.08
367.311	74.75
367.522	15.36
367.733	76.8
367.944	41.98
368.155	-1.02
368.366	66.56
368.577	105.47
368.788	35.84
368.999	-25.6
369.209	80.89
369.42	218.11
369.631	162.81
369.842	37.89
370.053	-35.84
370.264	76.8
370.474	-7.17
370.685	84.99
370.896	89.09
371.107	207.87
371.317	-1.02
371.528	9.22
371.739	144.38
371.95	70.65
372.16	74.75
372.371	-11.26
372.582	-3.07
372.792	97.28
373.003	113.66
373.214	171.01
373.424	117.76
373.635	-31.74
373.846	74.75
374.056	15.36
374.267	84.99
374.477	87.04
374.688	-41.98
374.898	64.51
375.109	35.84
375.319	78.85
375.53	128
375.74	56.32
375.951	15.36
376.161	54.27
376.372	103.42
376.582	33.79
376.793	50.18
377.003	31.74
377.214	-9.22
377.424	52.22
377.635	46.08
377.845	7.17
378.055	121.85
378.266	-74.75
378.476	64.51
378.686	89.09
378.897	33.79
379.107	140.29
379.317	11.26
379.528	29.7
379.738	87.04
379.948	39.94
380.158	68.61
380.369	11.26
380.579	103.42
380.789	25.6
380.999	132.09
381.21	152.57
381.42	199.68
381.63	84.99
381.84	93.18
382.05	60.42
382.261	87.04
382.471	89.09
382.681	50.18
382.891	175.1
383.101	84.99
383.311	-19.46
383.521	17.41
383.731	140.29
383.941	89.09
384.151	52.22
384.361	31.74
384.571	111.61
384.781	39.94
384.991	207.87
385.201	166.91
385.411	111.61
385.621	93.18
385.831	41.98
386.041	107.52
386.251	3.07
386.461	142.33
386.671	27.65
386.881	62.46
387.091	29.7
387.301	87.04
387.511	25.6
387.72	136.19
387.93	111.61
388.14	-33.79
388.35	-21.5
388.56	166.91
388.769	64.51
388.979	35.84
389.189	87.04
389.399	37.89
389.609	15.36
389.818	97.28
390.028	93.18
390.238	138.24
390.447	54.27
390.657	27.65
390.867	62.46
391.076	-68.61
391.286	27.65
391.496	78.85
391.705	58.37
391.915	183.29
392.125	80.89
392.334	91.13
392.544	99.33
392.753	-15.36
392.963	17.41
393.172	56.32
393.382	21.5
393.591	148.48
393.801	58.37
394.01	144.38
394.22	91.13
394.429	37.89
394.639	82.94
394.848	111.61
395.058	62.46
395.267	5.12
395.477	113.66
395.686	68.61
395.895	166.91
396.105	209.92
396.314	115.71
396.524	99.33
396.733	74.75
396.942	125.95
397.152	191.49
397.361	132.09
397.57	37.89
397.78	21.5
397.989	54.27
398.198	166.91
398.407	37.89
398.617	41.98
398.826	58.37
399.035	48.13
399.244	78.85
399.453	144.38
399.663	44.03
399.872	37.89
400.081	-19.46
400.29	160.77
400.499	23.55
400.708	150.53
400.917	37.89
401.127	46.08
401.336	15.36
401.545	162.81
401.754	144.38
401.963	146.43
402.172	15.36
402.381	37.89
402.59	-23.55
402.799	103.42
403.008	103.42
403.217	111.61
403.426	134.14
403.635	35.84
403.844	39.94
404.053	46.08
404.262	-39.94
404.471	138.24
404.68	76.8
404.888	80.89
405.097	27.65
405.306	117.76
405.515	35.84
405.724	46.08
405.933	105.47
406.142	101.37
406.35	154.62
406.559	5.12
406.768	105.47
406.977	156.67
407.185	119.81
407.394	52.22
407.603	-76.8
407.812	29.7
408.02	58.37
408.229	76.8
408.438	-13.31
408.646	-19.46
408.855	33.79
409.064	46.08
409.272	3.07
409.481	80.89
409.69	-1.02
409.898	-91.13
410.107	91.13
410.315	132.09
410.524	7.17
410.733	29.7
410.941	117.76
411.15	56.32
411.358	99.33
411.567	76.8
411.775	25.6
411.984	62.46
412.192	107.52
412.401	-44.03
412.609	99.33
412.818	111.61
413.026	64.51
413.234	76.8
413.443	91.13
413.651	3.07
413.86	-13.31
414.068	156.67
414.276	128
414.485	-11.26
414.693	191.49
414.901	295.93
415.11	54.27
415.318	99.33
415.526	60.42
415.734	173.05
415.943	80.89
416.151	138.24
416.359	58.37
416.567	91.13
416.776	76.8
416.984	105.47
417.192	160.77
417.4	60.42
417.608	35.84
417.817	1.02
418.025	99.33
418.233	136.19
418.441	-62.46
418.649	-7.17
418.857	105.47
419.065	181.25
419.273	15.36
419.481	136.19
419.689	-21.5
419.897	64.51
420.105	-44.03
420.313	128
420.521	87.04
420.729	144.38
420.937	15.36
421.145	-46.08
421.353	171.01
421.561	158.72
421.769	130.05
421.977	9.22
422.185	39.94
422.393	39.94
422.601	121.85
422.809	99.33
423.017	97.28
423.224	54.27
423.432	238.59
423.64	66.56
423.848	140.29
424.056	-50.18
424.263	97.28
424.471	52.22
424.679	146.43
424.887	1.02
425.094	132.09
425.302	105.47
425.51	82.94
425.718	136.19
425.925	111.61
426.133	68.61
426.341	222.2
426.548	64.51
426.756	58.37
426.964	84.99
427.171	25.6
427.379	171.01
427.586	89.09
427.794	162.81
428.001	123.9
428.209	56.32
428.417	115.71
428.624	177.15
428.832	62.46
429.039	115.71
429.247	171.01
429.454	111.61
429.662	297.98
429.869	183.29
430.076	41.98
430.284	121.85
430.491	250.88
430.699	117.76
430.906	232.44
431.114	168.96
431.321	185.34
431.528	138.24
431.736	189.44
431.943	181.25
432.15	222.2
432.358	242.68
432.565	355.32
432.772	-7.17
432.979	205.82
433.187	168.96
433.394	175.1
433.601	117.76
433.808	220.16
434.016	281.6
434.223	177.15
434.43	269.31
434.637	271.36
434.844	351.23
435.052	228.35
435.259	254.97
435.466	334.84
435.673	310.27
435.88	297.98
436.087	349.18
436.294	420.86
436.501	332.79
436.708	338.94
436.915	291.84
437.122	394.23
437.329	267.26
437.537	304.12
437.743	412.67
437.95	480.25
438.157	371.71
438.364	394.23
438.571	406.52
438.778	484.34
438.985	447.48
439.192	564.22
439.399	484.34
439.606	457.72
439.813	621.56
440.02	594.93
440.227	740.34
440.433	650.23
440.64	564.22
440.847	547.83
441.054	646.13
441.261	676.85
441.467	656.37
441.674	615.41
441.881	781.3
442.088	672.76
442.294	830.45
442.501	891.89
442.708	754.68
442.914	814.07
443.121	932.85
443.328	934.9
443.534	1065.97
443.741	984.05
443.948	855.03
444.154	1043.44
444.361	1264.62
444.568	1100.78
444.774	1119.21
444.981	949.23
445.187	1414.12
445.394	1301.48
445.6	1145.84
445.807	1504.23
446.013	1430.51
446.22	1326.06
446.426	1393.64
446.633	1661.93
446.839	1819.62
447.046	1518.57
447.252	1696.74
447.459	1688.55
447.665	1743.85
447.871	1938.4
448.078	2130.91
448.284	1991.65
448.491	2040.8
448.697	2274.27
448.903	2315.23
449.11	2317.28
449.316	2323.42
449.522	2497.5
449.728	2614.23
449.935	2849.75
450.141	2659.29
450.347	2917.33
450.553	2878.42
450.76	3009.49
450.966	3126.22
451.172	3199.95
451.378	3296.21
451.584	3521.48
451.791	3797.96
451.997	3802.05
452.203	3679.18
452.409	4064.19
452.615	4152.26
452.821	3974.08
453.027	4041.67
453.233	4760.5
453.44	4561.85
453.646	4856.76
453.852	5018.55
454.058	5174.19
454.264	5368.75
454.47	5761.96
454.676	5604.27
454.882	6175.65
455.088	5979.04
455.294	6464.41
455.5	6693.79
455.705	6962.07
455.911	7093.14
456.117	7289.74
456.323	7324.56
456.529	7426.96
456.735	8160.13
456.941	8295.3
457.147	8582.01
457.352	9044.85
457.558	9036.66
457.764	9749.36
457.97	9874.28
458.176	10242.92
458.381	10759
458.587	11000.66
458.793	11717.45
458.999	11797.32
459.204	12870.46
459.41	13566.77
459.616	13529.91
459.821	14289.7
460.027	14926.62
460.233	15399.7
460.438	15348.5
460.644	16284.42
460.85	16317.19
461.055	17281.78
461.261	17769.2
461.466	17560.31
461.672	18006.77
461.878	20161.23
462.083	19677.91
462.289	20064.97
462.494	21136.06
462.7	21093.05
462.905	21465.78
463.111	23323.29
463.316	24527.5
463.522	25004.67
463.727	25404.03
463.932	26573.42
464.138	27327.07
464.343	28242.51
464.549	28676.68
464.754	30585.39
464.959	31699.48
465.165	32051.73
465.37	31547.93
465.575	32143.89
465.781	33960.44
465.986	34900.46
466.191	34488.82
466.397	34724.33
466.602	34269.69
466.807	36170.2
467.012	36297.17
467.218	37159.37
467.423	37306.82
467.628	38500.79
467.833	40429.98
468.038	39731.62
468.244	39172.52
468.449	40114.59
468.654	39926.17
468.859	40114.59
469.064	40001.95
469.269	39160.23
469.474	39270.82
469.679	40556.95
469.885	39082.41
470.09	39960.99
470.295	40208.79
470.5	39020.97
470.705	39389.61
470.91	38451.64
471.115	37827.01
471.32	38515.12
471.525	38521.27
471.73	37089.74
471.935	36991.44
472.139	35785.18
472.344	35625.44
472.549	35627.49
472.754	34855.4
472.959	34349.56
473.164	33131.01
473.369	32535.06
473.574	33319.43
473.778	32942.6
473.983	32272.92
474.188	31924.76
474.393	29987.38
474.598	30315.06
474.802	29295.17
475.007	28850.76
475.212	28789.32
475.417	27740.76
475.621	27437.66
475.826	27030.12
476.031	26227.31
476.235	25750.14
476.44	26221.17
476.645	25287.29
476.849	25049.73
477.054	24707.72
477.259	23964.31
477.463	23962.26
477.668	23161.5
477.872	23249.57
478.077	22821.54
478.282	22125.23
478.486	21738.16
478.691	21510.84
478.895	21449.4
479.1	21013.18
479.304	20843.2
479.509	20212.43
479.713	20773.57
479.918	20439.75
480.122	19872.46
480.326	19868.37
480.531	19849.94
480.735	19768.02
480.94	19333.85
481.144	19868.37
481.348	19006.17
481.553	19045.09
481.757	18606.82
481.961	18725.6
482.166	18766.56
482.37	18692.83
482.574	17969.9
482.778	18193.13
482.983	18209.51
483.187	18029.29
483.391	17949.42
483.595	17527.54
483.8	17079.04
484.004	17494.77
484.208	17289.98
484.412	16878.33
484.616	16984.83
484.821	16792.32
485.025	16155.4
485.229	16413.45
485.433	16153.35
485.637	15733.52
485.841	15555.35
486.045	15604.5
486.249	15350.55
486.453	15057.69
486.657	14906.14
486.861	14787.36
487.065	14320.42
487.269	14222.12
487.473	13742.89
487.677	13703.98
487.881	13994.79
488.085	13261.62
488.289	13228.85
488.493	12790.59
488.697	13065.02
488.901	12555.07
489.105	12288.84
489.309	12225.35
489.512	12174.15
489.716	11705.17
489.92	11389.78
490.124	11326.29
490.328	11373.39
490.531	10838.87
490.735	10916.7
490.939	10572.64
491.143	10683.23
491.346	10138.47
491.55	10132.33
491.754	9966.44
491.958	9784.17
492.161	9868.14
492.365	9448.3
492.569	9302.9
492.772	9200.5
492.976	8977.27
493.18	8936.31
493.383	8852.34
493.587	8784.76
493.79	8844.15
493.994	8338.3
494.197	8483.71
494.401	8403.84
494.605	8487.81
494.808	8346.5
495.012	8291.2
495.215	8436.61
495.419	8180.61
495.622	7865.22
495.825	8100.74
496.029	7816.07
496.232	7951.24
496.436	7766.92
496.639	8043.4
496.843	7943.05
497.046	7918.47
497.249	8178.56
497.453	7889.8
497.656	8006.53
497.859	7955.33
498.063	7969.67
498.266	8168.32
498.469	7852.94
498.673	7869.32
498.876	8037.25
499.079	8215.43
499.282	8057.73
499.485	8186.76
499.689	8004.49
499.892	8313.73
500.095	8258.43
500.298	8487.81
500.501	8235.91
500.705	8547.2
500.908	8414.08
501.111	8610.68
501.314	8584.06
501.517	8876.92
501.72	8829.82
501.923	8948.6
502.126	9040.76
502.329	9145.2
502.532	9292.66
502.735	9182.07
502.938	9634.67
503.141	9487.22
503.344	9544.56
503.547	9755.5
503.75	9874.28
503.953	10103.65
504.156	10232.68
504.359	10414.95
504.562	10412.9
504.765	10511.2
504.968	10720.09
505.17	10763.1
505.373	10947.42
505.576	11416.4
505.779	11363.15
505.982	11674.45
506.185	11846.48
506.387	11844.43
506.59	12395.33
506.793	12428.1
506.996	12462.91
507.198	13089.59
507.401	13054.78
507.604	13355.83
507.807	13650.74
508.009	13947.69
508.212	14121.77
508.415	14414.63
508.617	14889.76
508.82	14830.37
509.022	15135.51
509.225	15455
509.428	16100.11
509.63	16202.5
509.833	16182.03
510.035	17068.8
510.238	16925.44
510.44	17541.88
510.643	18060.01
510.845	18469.61
511.048	18535.14
511.25	19131.1
511.453	19493.59
511.655	20085.45
511.858	20220.62
512.06	20941.5
512.262	21146.3
512.465	21523.13
512.667	22368.94
512.87	22608.55
513.072	22989.47
513.274	24027.79
513.477	24224.4
513.679	24662.66
513.881	25250.43
514.084	25875.06
514.286	26378.86
514.488	26731.11
514.69	27767.38
514.893	28023.38
515.095	28498.51
515.297	29067.84
515.499	29307.46
515.701	30222.9
515.904	30843.43
516.106	31472.16
516.308	32121.37
516.51	32909.83
516.712	33143.3
516.914	33913.34
517.116	34542.06
517.318	34929.13
517.52	35582.43
517.722	35793.37
517.925	37028.3
518.127	37624.26
518.329	38719.92
518.531	38478.26
518.733	39401.89
518.935	39811.49
519.136	40378.78
519.338	41124.24
519.54	41609.61
519.742	42735.99
519.944	42862.96
520.146	44005.73
520.348	44116.32
520.55	44214.62
520.752	44718.42
520.954	45742.41
521.155	45496.65
521.357	46723.38
521.559	46924.08
521.761	47589.67
521.963	47651.11
522.164	48163.11
522.366	48134.43
522.568	48953.62
522.77	49412.37
522.971	49950.98
523.173	49252.62
523.375	50125.06
523.576	50127.11
523.778	50563.32
523.98	51138.8
524.181	50999.54
524.383	50989.3
524.584	51681.52
524.786	51331.31
524.988	51054.84
525.189	51429.62
525.391	51976.42
525.592	51927.27
525.794	51775.72
525.995	51511.53
526.197	51298.55
526.398	50968.82
526.6	51540.21
526.801	51304.69
527.003	51147
527.204	50729.21
527.406	51181.81
527.607	50227.46
527.808	50393.34
528.01	49232.14
528.211	49572.11
528.412	50075.91
528.614	49219.86
528.815	48611.61
529.016	48732.44
529.218	48236.83
529.419	47976.74
529.62	47452.46
529.822	46831.93
530.023	46172.48
530.224	46049.6
530.425	45367.63
530.626	44839.25
530.828	43809.12
531.029	44616.02
531.23	43536.74
531.431	42936.69
531.632	42596.73
531.833	42183.04
532.035	41593.22
532.236	41077.13
532.437	40831.38
532.638	40161.69
532.839	39545.25
533.04	39479.72
533.241	38447.54
533.442	39039.4
533.643	37806.53
533.844	37194.18
534.045	37229
534.246	35822.05
534.447	35705.31
534.648	35303.91
534.849	35107.3
535.05	34089.46
535.251	34288.12
535.451	33303.04
535.652	33178.12
535.853	32598.54
536.054	32344.59
536.255	31828.51
536.456	31033.89
536.657	30806.57
536.857	30171.7
537.058	29956.66
537.259	29854.26
537.46	29069.89
537.66	28750.41
537.861	28555.85
538.062	28254.8
538.263	27396.7
538.463	27118.18
538.664	27030.12
538.865	26718.82
539.065	26616.43
539.266	26098.29
539.466	25813.62
539.667	25561.72
539.868	25498.23
540.068	24582.79
540.269	24498.83
540.469	24269.45
540.67	24023.7
540.87	23567
541.071	23444.12
541.271	23124.64
541.472	23003.81
541.672	22340.27
541.873	22274.73
542.073	21729.97
542.274	21918.39
542.474	21564.09
542.675	21254.84
542.875	21267.13
543.075	20458.18
543.276	20226.76
543.476	20722.37
543.676	20171.47
543.877	19860.18
544.077	19974.86
544.277	19440.34
544.478	19022.56
544.678	19393.24
544.878	18754.27
545.078	18864.86
545.279	18277.1
545.479	17924.85
545.679	17939.18
545.879	17869.55
546.079	17447.67
546.28	17404.66
546.48	17031.93
546.68	17079.04
546.88	16554.76
547.08	16591.62
547.28	16331.53
547.48	16057.1
547.68	15932.17
547.88	15762.19
548.081	15749.9
548.281	15467.28
548.481	15141.66
548.681	15133.47
548.881	14934.81
549.081	14883.61
549.28	14480.16
549.48	14549.79
549.68	13955.88
549.88	14082.86
550.08	13345.59
550.28	13413.17
550.48	13460.27
550.68	13388.6
550.88	12837.69
551.08	12548.93
551.279	12780.35
551.479	12424
551.679	12446.53
551.879	12006.22
552.079	12163.91
552.278	11715.41
552.478	11850.57
552.678	11400.02
552.878	11227.99
553.077	10982.23
553.277	10810.2
553.477	10902.36
553.676	10668.89
553.876	10455.9
554.076	10222.44
554.275	10136.42
554.475	9784.17
554.674	9952.1
554.874	9581.42
555.074	9476.98
555.273	9337.71
555.473	9155.44
555.672	8930.17
555.872	8702.84
556.071	8731.51
556.271	8995.7
556.47	8416.13
556.67	8317.83
556.869	8407.94
557.068	7953.29
557.268	7857.03
557.467	7517.07
557.667	7766.92
557.866	7824.26
558.065	7478.16
558.265	7222.16
558.464	7318.42
558.663	7074.71
558.863	7011.22
559.062	7050.13
559.261	6763.42
559.461	6816.66
559.66	6566.81
559.859	6335.39
560.058	6329.25
560.258	6132.64
560.457	6083.49
560.656	6216.61
560.855	5743.53
561.054	6042.53
561.253	5794.73
561.453	5897.13
561.652	5739.43
561.851	5632.94
562.05	5424.05
562.249	5295.02
562.448	5297.07
562.647	5092.27
562.846	4985.78
563.045	5180.34
563.244	4955.06
563.443	5016.5
563.642	4690.87
563.841	4715.45
564.04	4819.89
564.239	4731.83
564.438	4664.25
564.637	4475.84
564.836	4502.46
565.035	4555.71
565.234	4324.29
565.432	4244.42
565.631	4266.94
565.83	4166.59
566.029	4178.88
566.228	4150.21
566.427	4008.9
566.625	3718.09
566.824	3853.25
567.023	3900.36
567.222	3734.47
567.42	3775.43
567.619	3644.36
567.818	3713.99
568.016	3634.12
568.215	3527.63
568.414	3636.17
568.612	3464.14
568.811	3441.61
569.01	3210.19
569.208	3345.36
569.407	3251.15
569.605	3181.52
569.804	3097.55
570.002	3267.53
570.201	2952.15
570.4	3001.3
570.598	2839.51
570.797	2890.71
570.995	2741.21
571.193	2831.32
571.392	2894.8
571.59	2669.53
571.789	2841.56
571.987	2642.9
572.186	2757.59
572.384	2595.8
572.582	2474.97
572.781	2628.57
572.979	2386.91
573.177	2438.11
573.376	2524.12
573.574	2495.45
573.772	2376.67
573.971	2270.17
574.169	2114.53
574.367	2415.58
574.565	2071.52
574.763	2073.57
574.962	2075.62
575.16	2048.99
575.358	2036.7
575.556	2024.42
575.754	2030.56
575.952	1965.03
576.151	1913.83
576.349	1967.07
576.547	1848.29
576.745	2003.94
576.943	1885.16
577.141	1776.61
577.339	1795.04
577.537	1758.18
577.735	1733.61
577.933	1803.24
578.131	1684.45
578.329	1790.95
578.527	1663.97
578.725	1651.69
578.923	1569.77
579.121	1606.63
579.319	1500.14
579.516	1512.42
579.714	1694.69
579.912	1461.23
580.11	1397.74
580.308	1465.32
580.506	1364.97
580.704	1219.57
580.901	1299.44
581.099	1416.17
581.297	1326.06
581.495	1315.82
581.692	1199.09
581.89	1483.75
582.088	1223.66
582.285	1274.86
582.483	1141.74
582.681	1238
582.878	996.34
583.076	1229.81
583.274	1207.28
583.471	1252.33
583.669	1137.65
583.866	975.86
584.064	986.1
584.262	990.19
584.459	1018.86
584.657	1045.49
584.854	1053.68
585.052	1037.3
585.249	1094.64
585.447	904.18
585.644	949.23
585.841	1037.3
586.039	979.95
586.236	1094.64
586.434	863.22
586.631	766.96
586.828	898.03
587.026	920.56
587.223	795.64
587.42	822.26
587.618	840.69
587.815	932.85
588.012	787.44
588.21	926.71
588.407	922.61
588.604	822.26
588.801	852.98
588.999	785.4
589.196	900.08
589.393	760.82
589.59	707.57
589.787	797.68
589.984	766.96
590.182	801.78
590.379	642.04
590.576	752.63
590.773	728.05
590.97	693.24
591.167	728.05
591.364	711.67
591.561	672.76
591.758	846.84
591.955	715.77
592.152	734.2
592.349	695.29
592.546	650.23
592.743	654.33
592.94	771.06
593.137	713.72
593.334	803.83
593.531	744.44
593.727	730.1
593.924	785.4
594.121	781.3
594.318	650.23
594.515	726
594.712	891.89
594.908	807.92
595.105	672.76
595.302	871.41
595.499	781.3
595.696	865.27
595.892	779.25
596.089	865.27
596.286	754.68
596.482	844.79
596.679	900.08
596.876	850.93
597.072	908.27
597.269	918.51
597.466	992.24
597.662	951.28
597.859	994.29
598.055	971.76
598.252	936.95
598.448	1166.32
598.645	1197.04
598.841	1211.37
599.038	1186.8
599.234	1336.3
599.431	1309.68
599.627	1395.69
599.824	1364.97
600.02	1420.27
600.217	1373.16
600.413	1534.95
600.609	1496.04
600.806	1838.05
601.002	1692.65
601.198	1688.55
601.395	1973.22
601.591	1833.96
601.787	1928.16
601.984	2159.58
602.18	2141.15
602.376	2135.01
602.572	2276.32
602.769	2370.52
602.965	2307.04
603.161	2442.2
603.357	2675.67
603.553	2722.77
603.75	2792.41
603.946	2776.02
604.142	3060.69
604.338	3158.99
604.534	3232.72
604.73	3177.42
604.926	3242.96
605.122	3492.81
605.318	3566.54
605.514	3576.78
605.71	3791.81
605.906	3967.94
606.102	4010.95
606.298	4197.31
606.494	4240.32
606.69	4398.01
606.886	4584.38
607.082	4578.23
607.278	4758.46
607.474	4879.29
607.67	5045.17
607.866	5006.26
608.062	5346.22
608.257	5501.87
608.453	5448.62
608.649	5700.52
608.845	6034.34
609.041	5970.85
609.236	6194.08
609.432	6577.05
609.628	6564.76
609.824	6890.39
610.019	6783.9
610.215	7306.13
610.411	7535.5
610.606	7578.51
610.802	7678.86
610.998	8004.49
611.193	8190.85
611.389	8194.95
611.584	8539.01
611.78	8575.87
611.976	8956.79
612.171	9526.13
612.367	9337.71
612.562	9595.76
612.758	9775.98
612.953	9876.33
613.149	10468.19
613.344	10765.15
613.539	11152.21
613.735	11406.16
613.93	11860.81
614.126	11793.23
614.321	12286.79
614.517	12680
614.712	12835.64
614.907	13144.89
615.103	13691.7
615.298	13738.8
615.493	14353.19
615.688	14396.2
615.884	15119.13
616.079	15143.7
616.274	15889.17
616.47	16179.98
616.665	16495.36
616.86	16859.9
617.055	17433.33
617.25	17576.69
617.445	18191.08
617.641	18322.15
617.836	19210.97
618.031	19301.08
618.226	20030.16
618.421	20468.42
618.616	21281.47
618.811	21074.62
619.006	21940.91
619.201	22186.67
619.396	23003.81
619.591	23009.95
619.786	23739.03
619.981	24193.68
620.176	25277.05
620.371	25348.73
620.566	25766.52
620.761	26290.8
620.956	27284.06
621.151	27052.64
621.346	28222.03
621.541	28521.04
621.735	29381.18
621.93	29356.61
622.125	30214.71
622.32	30425.65
622.515	31089.19
622.709	31695.39
622.904	32078.36
623.099	32864.78
623.294	33565.18
623.488	33833.47
623.683	34785.77
623.878	34841.07
624.072	35758.56
624.267	36452.82
624.462	36827.6
624.656	37253.58
624.851	38021.56
625.046	37921.21
625.24	38521.27
625.435	38832.56
625.629	39944.61
625.824	40153.5
626.018	40972.69
626.213	40694.16
626.407	41834.88
626.602	41802.11
626.796	42867.06
626.991	43358.57
627.185	43536.74
627.38	44198.24
627.574	43915.62
627.768	44007.78
627.963	44353.88
628.157	44507.48
628.352	45320.52
628.546	44374.36
628.74	44910.93
628.935	44642.65
629.129	44624.22
629.323	44476.76
629.517	44470.62
629.712	44194.14
629.906	44095.84
630.1	43225.45
630.294	43501.93
630.489	42731.89
630.683	42774.9
630.877	41456.01
631.071	40946.06
631.265	40724.88
631.459	39930.27
631.653	38590.9
631.848	38341.05
632.042	37155.27
632.236	36571.6
632.43	35549.67
632.624	34392.56
632.818	33589.76
633.012	32672.27
633.206	31144.48
633.4	30675.5
633.594	29448.77
633.788	28715.59
633.982	27974.23
634.176	26649.19
634.369	25670.26
634.563	25041.54
634.757	23868.05
634.951	23315.1
635.145	22454.95
635.339	21330.62
635.533	20757.19
635.726	19768.02
635.92	18762.47
636.114	18090.73
636.308	17367.8
636.501	16536.32
636.695	16147.21
636.889	15317.78
637.083	14879.52
637.276	14226.21
637.47	13720.37
637.664	12946.23
637.857	12600.13
638.051	12002.12
638.244	11498.32
638.438	11107.16
638.632	10677.09
638.825	10429.28
639.019	9864.04
639.212	9358.19
639.406	9051
639.599	8723.32
639.793	8317.83
639.986	8168.32
640.18	7787.4
640.373	7373.71
640.567	7183.25
640.76	6896.53
640.954	6777.75
641.147	6310.82
641.34	6267.81
641.534	6081.44
641.727	5649.32
641.92	5553.07
642.114	5315.5
642.307	5174.19
642.5	4830.13
642.694	4635.58
642.887	4594.62
643.08	4363.2
643.273	4420.54
643.467	4004.8
643.66	3820.49
643.853	3693.51
644.046	3625.93
644.239	3482.57
644.432	3390.41
644.626	3103.7
644.819	3263.44
645.012	3034.07
645.205	2853.84
645.398	2780.12
645.591	2560.98
645.784	2479.07
645.977	2407.39
646.17	2444.25
646.363	2339.8
646.556	2077.66
646.749	2040.8
646.942	2005.99
647.135	2051.04
647.328	1702.89
647.521	1979.36
647.714	1768.42
647.907	1653.73
648.099	1571.82
648.292	1534.95
648.485	1608.68
648.678	1522.66
648.871	1375.21
649.064	1315.82
649.256	1133.55
649.449	1215.47
649.642	1190.89
649.835	1225.71
650.027	1057.78
650.22	1141.74
650.413	947.19
650.605	1086.45
650.798	934.9
650.991	887.79
651.183	814.07
651.376	916.47
651.568	855.03
651.761	773.11
651.954	836.6
652.146	701.43
652.339	814.07
652.531	756.72
652.724	721.91
652.916	619.51
653.109	664.57
653.301	642.04
653.494	646.13
653.686	631.8
653.879	699.38
654.071	648.18
654.263	607.22
654.456	568.31
654.648	642.04
654.84	623.61
655.033	472.06
655.225	613.37
655.417	390.14
655.61	633.85
655.802	572.41
655.994	556.02
656.186	390.14
656.379	496.63
656.571	338.94
656.763	398.33
656.955	326.65
657.148	383.99
657.34	529.4
657.532	357.37
657.724	340.99
657.916	404.47
658.108	484.34
658.3	435.19
658.492	328.7
658.684	297.98
658.876	517.11
659.068	265.21
659.26	164.86
659.452	193.53
659.644	189.44
659.836	404.47
660.028	269.31
660.22	240.64
660.412	291.84
660.604	314.36
660.796	250.88
660.988	316.41
661.18	320.51
661.372	322.56
661.563	222.2
661.755	257.02
661.947	164.86
662.139	138.24
662.331	191.49
662.522	216.06
662.714	181.25
662.906	134.14
663.097	211.96
663.289	230.4
663.481	60.42
663.673	236.54
663.864	134.14
664.056	234.49
664.247	183.29
664.439	302.08
664.631	222.2
664.822	252.92
665.014	144.38
665.205	154.62
665.397	156.67
665.588	177.15
665.78	197.63
665.971	179.2
666.163	166.91
666.354	181.25
666.546	109.57
666.737	144.38
666.929	136.19
667.12	68.61
667.311	166.91
667.503	150.53
667.694	168.96
667.885	144.38
668.077	171.01
668.268	99.33
668.459	121.85
668.651	125.95
668.842	125.95
669.033	125.95
669.224	78.85
669.416	295.93
669.607	91.13
669.798	107.52
669.989	257.02
670.18	166.91
670.371	214.01
670.563	33.79
670.754	248.83
670.945	216.06
671.136	140.29
671.327	117.76
671.518	187.39
671.709	242.68
671.9	185.34
672.091	220.16
672.282	183.29
672.473	189.44
672.664	95.23
672.855	177.15
673.046	123.9
673.237	248.83
673.428	95.23
673.619	259.07
673.809	62.46
674	205.82
674.191	164.86
674.382	101.37
674.573	154.62
674.764	105.47
674.954	248.83
675.145	64.51
675.336	105.47
675.527	97.28
675.717	138.24
675.908	103.42
676.099	60.42
676.289	119.81
676.48	128
676.671	82.94
676.861	58.37
677.052	164.86
677.243	128
677.433	93.18
677.624	222.2
677.814	181.25
678.005	121.85
678.195	267.26
678.386	140.29
678.576	119.81
678.767	74.75
678.957	142.33
679.148	130.05
679.338	259.07
679.529	142.33
679.719	166.91
679.909	332.79
680.1	224.25
680.29	138.24
680.481	201.72
680.671	234.49
680.861	185.34
681.052	175.1
681.242	101.37
681.432	189.44
681.622	273.4
681.813	119.81
682.003	214.01
682.193	105.47
682.383	189.44
682.573	187.39
682.764	144.38
682.954	171.01
683.144	287.74
683.334	168.96
683.524	177.15
683.714	193.53
683.904	254.97
684.094	207.87
684.284	254.97
684.474	300.03
684.664	293.88
684.854	177.15
685.044	214.01
685.234	160.77
685.424	216.06
685.614	134.14
685.804	318.46
685.994	314.36
686.184	156.67
686.374	218.11
686.564	209.92
686.753	164.86
686.943	144.38
687.133	130.05
687.323	101.37
687.513	261.12
687.702	181.25
687.892	162.81
688.082	355.32
688.272	283.64
688.461	216.06
688.651	359.42
688.841	220.16
689.03	175.1
689.22	236.54
689.41	265.21
689.599	265.21
689.789	179.2
689.979	343.03
690.168	240.64
690.358	240.64
690.547	193.53
690.737	211.96
690.926	166.91
691.116	209.92
691.305	191.49
691.495	265.21
691.684	115.71
691.874	224.25
692.063	187.39
692.252	277.5
692.442	211.96
692.631	154.62
692.82	136.19
693.01	230.4
693.199	152.57
693.388	177.15
693.578	201.72
693.767	228.35
693.956	193.53
694.146	177.15
694.335	191.49
694.524	177.15
694.713	154.62
694.902	91.13
695.092	-13.31
695.281	209.92
695.47	109.57
695.659	154.62
695.848	177.15
696.037	54.27
696.226	293.88
696.415	207.87
696.604	263.16
696.793	281.6
696.982	123.9
697.171	263.16
697.36	214.01
697.549	195.58
697.738	109.57
697.927	142.33
698.116	134.14
698.305	193.53
698.494	211.96
698.683	160.77
698.872	295.93
699.061	187.39
699.25	158.72
699.438	175.1
699.627	152.57
699.816	218.11
700.005	80.89
700.193	238.59
700.382	259.07
700.571	148.48
700.76	216.06
700.948	207.87
701.137	273.4
701.326	197.63
701.514	56.32
701.703	207.87
701.892	144.38
702.08	373.75
702.269	150.53
702.457	68.61
702.646	191.49
702.834	164.86
703.023	181.25
703.212	222.2
703.4	177.15
703.589	123.9
703.777	146.43
703.965	150.53
704.154	146.43
704.342	160.77
704.531	109.57
704.719	211.96
704.907	222.2
705.096	134.14
705.284	101.37
705.472	140.29
705.661	156.67
705.849	203.77
706.037	234.49
706.226	183.29
706.414	136.19
706.602	89.09
706.79	199.68
706.979	134.14
707.167	187.39
707.355	-72.7
707.543	218.11
707.731	154.62
707.919	166.91
708.107	150.53
708.296	37.89
708.484	60.42
708.672	140.29
708.86	193.53
709.048	109.57
709.236	148.48
709.424	238.59
709.612	226.3
709.8	115.71
709.988	207.87
710.176	166.91
710.364	263.16
710.551	179.2
710.739	230.4
710.927	144.38
711.115	93.18
711.303	275.45
711.491	199.68
711.679	111.61
711.866	234.49
712.054	203.77
712.242	203.77
712.43	207.87
712.617	72.7
712.805	207.87
712.993	193.53
713.181	107.52
713.368	197.63
713.556	168.96
713.744	123.9
713.931	297.98
714.119	279.55
714.306	203.77
714.494	181.25
714.682	195.58
714.869	60.42
715.057	156.67
715.244	168.96
715.432	234.49
715.619	132.09
715.807	168.96
715.994	123.9
716.182	148.48
716.369	191.49
716.556	214.01
716.744	76.8
716.931	68.61
717.119	242.68
717.306	181.25
717.493	166.91
717.681	185.34
717.868	62.46
718.055	222.2
718.242	175.1
718.43	240.64
718.617	332.79
718.804	119.81
718.991	343.03
719.179	191.49
719.366	175.1
719.553	203.77
719.74	205.82
719.927	160.77
720.114	168.96
720.301	183.29
720.488	130.05
720.676	158.72
720.863	328.7
721.05	361.47
721.237	138.24
721.424	246.78
721.611	287.74
721.798	123.9
721.985	185.34
722.172	183.29
722.358	248.83
722.545	357.37
722.732	187.39
722.919	279.55
723.106	222.2
723.293	199.68
723.48	232.44
723.667	171.01
723.853	287.74
724.04	300.03
724.227	267.26
724.414	236.54
724.6	271.36
724.787	310.27
724.974	408.57
725.161	273.4
725.347	142.33
725.534	209.92
725.72	248.83
725.907	263.16
726.094	287.74
726.28	150.53
726.467	222.2
726.653	183.29
726.84	314.36
727.027	312.32
727.213	207.87
727.4	314.36
727.586	275.45
727.773	259.07
727.959	234.49
728.145	254.97
728.332	279.55
728.518	207.87
728.705	300.03
728.891	273.4
729.077	205.82
729.264	173.05
729.45	205.82
729.636	443.39
729.823	244.73
730.009	263.16
730.195	314.36
730.382	302.08
730.568	177.15
730.754	316.41
730.94	261.12
731.126	259.07
731.313	343.03
731.499	199.68
731.685	248.83
731.871	285.69
732.057	248.83
732.243	441.34
732.429	351.23
732.615	316.41
732.801	367.61
732.987	195.58
733.173	265.21
733.359	277.5
733.545	332.79
733.731	275.45
733.917	300.03
734.103	324.6
734.289	330.75
734.475	330.75
734.661	531.45
734.847	287.74
735.033	326.65
735.219	308.22
735.404	267.26
735.59	353.27
735.776	302.08
735.962	269.31
736.148	377.85
736.333	513.02
736.519	308.22
736.705	345.08
736.89	220.16
737.076	326.65
737.262	265.21
737.447	314.36
737.633	252.92
737.819	379.9
738.004	340.99
738.19	334.84
738.375	300.03
738.561	322.56
738.747	254.97
738.932	203.77
739.118	390.14
739.303	373.75
739.489	373.75
739.674	267.26
739.859	248.83
740.045	390.14
740.23	375.8
740.416	183.29
740.601	289.79
740.786	304.12
740.972	277.5
741.157	246.78
741.342	218.11
741.528	261.12
741.713	332.79
741.898	343.03
742.084	297.98
742.269	300.03
742.454	400.38
742.639	297.98
742.824	289.79
743.01	429.05
743.195	394.23
743.38	371.71
743.565	277.5
743.75	187.39
743.935	410.62
744.12	381.95
744.305	207.87
744.49	306.17
744.675	244.73
744.86	285.69
745.045	289.79
745.23	254.97
745.415	322.56
745.6	357.37
745.785	252.92
745.97	435.19
746.155	367.61
746.34	369.66
746.525	347.13
746.71	410.62
746.895	220.16
747.079	197.63
747.264	236.54
747.449	379.9
747.634	257.02
747.819	312.32
748.003	310.27
748.188	261.12
748.373	304.12
748.557	281.6
748.742	263.16
748.927	355.32
749.111	254.97
749.296	230.4
749.481	289.79
749.665	265.21
749.85	277.5
750.034	275.45
750.219	252.92
750.404	283.64
750.588	254.97
750.773	140.29
750.957	222.2
751.141	265.21
751.326	304.12
751.51	222.2
751.695	191.49
751.879	207.87
752.064	326.65
752.248	216.06
752.432	353.27
752.617	273.4
752.801	306.17
752.985	293.88
753.17	322.56
753.354	267.26
753.538	277.5
753.722	220.16
753.907	254.97
754.091	265.21
754.275	289.79
754.459	179.2
754.643	177.15
754.828	242.68
755.012	230.4
755.196	123.9
755.38	179.2
755.564	263.16
755.748	279.55
755.932	361.47
756.116	234.49
756.3	293.88
756.484	246.78
756.668	240.64
756.852	166.91
757.036	205.82
757.22	183.29
757.404	209.92
757.588	187.39
757.772	199.68
757.956	203.77
758.14	312.32
758.323	166.91
758.507	148.48
758.691	201.72
758.875	207.87
759.059	283.64
759.242	185.34
759.426	257.02
759.61	150.53
759.794	140.29
759.977	191.49
760.161	375.8
760.345	222.2
760.528	197.63
760.712	220.16
760.895	230.4
761.079	168.96
761.263	74.75
761.446	91.13
761.63	183.29
761.813	189.44
761.997	109.57
762.18	209.92
762.364	84.99
762.547	74.75
762.731	185.34
762.914	154.62
763.098	187.39
763.281	132.09
763.464	107.52
763.648	54.27
763.831	87.04
764.015	25.6
764.198	119.81
764.381	173.05
764.564	224.25
764.748	166.91
764.931	203.77
765.114	93.18
765.297	283.64
765.481	91.13
765.664	130.05
765.847	56.32
766.03	201.72
766.213	138.24
766.397	130.05
766.58	54.27
766.763	173.05
766.946	125.95
767.129	119.81
767.312	82.94
767.495	203.77
767.678	80.89
767.861	164.86
768.044	111.61
768.227	103.42
768.41	119.81
768.593	156.67
768.776	164.86
768.959	150.53
769.142	201.72
769.324	140.29
769.507	148.48
769.69	130.05
769.873	123.9
770.056	279.55
770.239	121.85
770.421	179.2
770.604	236.54
770.787	115.71
770.97	205.82
771.152	107.52
771.335	197.63
771.518	103.42
771.7	154.62
771.883	230.4
772.066	128
772.248	185.34
772.431	148.48
772.613	168.96
772.796	166.91
772.978	168.96
773.161	216.06
773.343	19.46
773.526	78.85
773.708	19.46
773.891	46.08
774.073	52.22
774.256	107.52
774.438	197.63
774.621	113.66
774.803	121.85
774.985	95.23
775.168	193.53
775.35	160.77
775.532	160.77
775.715	113.66
775.897	80.89
776.079	156.67
776.261	177.15
776.444	35.84
776.626	111.61
776.808	140.29
776.99	17.41
777.173	136.19
777.355	23.55
777.537	101.37
777.719	179.2
777.901	7.17
778.083	74.75
778.265	7.17
778.447	160.77
778.629	48.13
778.811	154.62
778.993	136.19
779.175	123.9
779.357	93.18
779.539	41.98
779.721	109.57
779.903	175.1
780.085	84.99
780.267	64.51
780.449	74.75
780.631	195.58
780.812	166.91
780.994	93.18
781.176	121.85
781.358	27.65
781.54	31.74
781.721	80.89
781.903	121.85
782.085	-17.41
782.267	150.53
782.448	50.18
782.63	37.89
782.812	138.24
782.993	134.14
783.175	89.09
783.357	74.75
783.538	89.09
783.72	66.56
783.901	17.41
784.083	105.47
784.264	132.09
784.446	-44.03
784.627	-27.65
784.809	154.62
784.99	33.79
785.172	162.81
785.353	62.46
785.535	74.75
785.716	-48.13
785.897	35.84
786.079	62.46
786.26	54.27
786.441	216.06
786.623	-19.46
786.804	37.89
786.985	-1.02
787.167	99.33
787.348	84.99
787.529	37.89
787.71	211.96
787.891	76.8
788.073	29.7
788.254	-3.07
788.435	195.58
788.616	37.89
788.797	31.74
788.978	72.7
789.159	-29.7
789.34	123.9
789.522	3.07
789.703	-11.26
789.884	35.84
790.065	99.33
790.246	173.05
790.427	-1.02
790.607	158.72
790.788	111.61
790.969	-3.07
791.15	-7.17
791.331	-25.6
791.512	52.22
791.693	-3.07
791.874	72.7
792.054	197.63
792.235	23.55
792.416	-15.36
792.597	35.84
792.778	44.03
792.958	128
793.139	160.77
793.32	-17.41
793.5	-37.89
793.681	128
793.862	136.19
794.042	66.56
794.223	-11.26
794.404	11.26
794.584	-128
794.765	70.65
794.945	-39.94
795.126	-17.41
795.306	105.47
795.487	37.89
795.667	-7.17
795.848	11.26
796.028	-37.89
796.209	93.18
796.389	80.89
796.57	39.94
796.75	-56.32
796.93	54.27
797.111	-33.79
797.291	72.7
797.471	60.42
797.652	7.17
797.832	-46.08
798.012	109.57
798.192	29.7
798.373	5.12
798.553	89.09
798.733	21.5
798.913	-41.98
799.093	7.17
799.274	13.31
799.454	80.89
799.634	117.76
799.814	136.19
799.994	117.76
800.174	27.65
800.354	60.42
800.534	-35.84
800.714	78.85
800.894	-25.6
801.074	-60.42
801.254	-19.46
801.434	132.09
801.614	-13.31
801.794	-1.02
801.974	1690.6
802.154	17.41
802.334	35.84
802.514	-84.99
802.693	23.55
802.873	9.22
803.053	111.61
803.233	48.13
803.413	37.89
803.592	19.46
803.772	-3.07
803.952	27.65
804.131	-56.32
804.311	105.47
804.491	74.75
804.67	-15.36
804.85	-15.36
805.03	84.99
805.209	185.34
805.389	-13.31
805.568	50.18
805.748	-52.22
805.928	9.22
806.107	78.85
806.287	115.71
806.466	1.02
806.646	11.26
806.825	58.37
807.004	3.07
807.184	41.98
807.363	27.65
807.543	142.33
807.722	-46.08
807.901	109.57
808.081	134.14
808.26	-119.81
808.439	78.85
808.619	64.51
808.798	27.65
808.977	39.94
809.156	134.14
809.336	29.7
809.515	82.94
809.694	-37.89
809.873	19.46
810.052	80.89
810.231	148.48
810.411	-1.02
810.59	119.81
810.769	82.94
810.948	109.57
811.127	-76.8
811.306	27.65
811.485	41.98
811.664	134.14
811.843	-9.22
812.022	17.41
812.201	15.36
812.38	27.65
812.559	-29.7
812.737	93.18
812.916	-17.41
813.095	-44.03
813.274	23.55
813.453	-29.7
813.632	66.56
813.811	56.32
813.989	-97.28
814.168	-7.17
814.347	-39.94
814.526	52.22
814.704	173.05
814.883	152.57
815.062	-37.89
815.24	97.28
815.419	23.55
815.598	82.94
815.776	-82.94
815.955	-21.5
816.133	-171.01
816.312	78.85
816.49	-23.55
816.669	7.17
816.847	41.98
817.026	29.7
817.204	21.5
817.383	-33.79
817.561	-17.41
817.74	62.46
817.918	95.23
818.097	-7.17
818.275	-115.71
818.453	56.32
818.632	82.94
818.81	13.31
818.988	-33.79
819.167	-74.75
819.345	-17.41
819.523	-31.74
819.701	13.31
819.879	50.18
820.058	128
820.236	-35.84
820.414	1.02
820.592	-21.5
820.77	-29.7
820.948	7.17
821.127	31.74
821.305	68.61
821.483	-60.42
821.661	87.04
821.839	66.56
822.017	-95.23
822.195	31.74
822.373	93.18
822.551	99.33
822.729	117.76
822.907	-44.03
823.085	111.61
823.262	3.07
823.44	52.22
823.618	11.26
823.796	31.74
823.974	-52.22
824.152	-97.28
824.329	17.41
824.507	1.02
824.685	17.41
824.863	-15.36
825.04	7.17
825.218	115.71
825.396	62.46
825.574	48.13
825.751	44.03
825.929	54.27
826.107	-39.94
826.284	-7.17
826.462	72.7
826.639	-66.56
826.817	-101.37
826.994	-19.46
827.172	-91.13
827.349	97.28
827.527	-7.17
827.704	19.46
827.882	41.98
828.059	33.79
828.237	33.79
828.414	107.52
828.591	-109.57
828.769	-9.22
828.946	-66.56
829.124	56.32
829.301	125.95
829.478	-13.31
829.655	15.36
829.833	11.26
830.01	-115.71
830.187	5.12
830.364	15.36
830.542	13.31
830.719	166.91
830.896	78.85
831.073	109.57
831.25	37.89
831.427	39.94
831.604	1.02
831.782	1.02
831.959	9.22
832.136	-58.37
832.313	-23.55
832.49	-29.7
832.667	37.89
832.844	11.26
833.021	123.9
833.198	66.56
833.374	29.7
833.551	25.6
833.728	-87.04
833.905	89.09
834.082	-52.22
834.259	58.37
834.436	175.1
834.612	-54.27
834.789	93.18
834.966	3.07
835.143	35.84
835.319	-44.03
835.496	101.37
835.673	23.55
835.85	52.22
836.026	5.12
836.203	1.02
836.38	7.17
836.556	3.07
836.733	17.41
836.909	111.61
837.086	-41.98
837.262	-111.61
837.439	-13.31
837.616	48.13
837.792	-15.36
837.968	5.12
838.145	-128
838.321	-3.07
838.498	60.42
838.674	-1.02
838.851	48.13
839.027	23.55
839.203	23.55
839.38	62.46
839.556	23.55
839.732	89.09
839.909	60.42
840.085	21.5
840.261	-50.18
840.437	-7.17
840.614	-29.7
840.79	13.31
840.966	103.42
841.142	21.5
841.318	1.02
841.494	-25.6
841.671	17.41
841.847	-72.7
842.023	-31.74
842.199	166.91
842.375	146.43
842.551	-78.85
842.727	-66.56
842.903	158.72
843.079	-58.37
843.255	54.27
843.431	-37.89
843.607	89.09
843.783	-103.42
843.959	97.28
844.134	-56.32
844.31	183.29
844.486	-62.46
844.662	31.74
844.838	-5.12
845.013	46.08
845.189	54.27
845.365	27.65
845.541	48.13
845.716	33.79
845.892	-25.6
846.068	-66.56
846.244	-70.65
846.419	66.56
846.595	-89.09
846.77	-101.37
846.946	99.33
847.122	-66.56
847.297	-9.22
847.473	121.85
847.648	-54.27
847.824	-48.13
847.999	-82.94
848.175	-58.37
848.35	64.51
848.526	97.28
848.701	97.28
848.876	103.42
849.052	111.61
849.227	13.31
849.403	27.65
849.578	82.94
849.753	62.46
849.929	-9.22
850.104	-74.75
850.279	-109.57
850.454	87.04
850.63	78.85
850.805	-5.12
850.98	-19.46
851.155	-25.6
851.33	1.02
851.505	-48.13
851.681	144.38
851.856	-17.41
852.031	15.36
852.206	-13.31
852.381	-62.46
852.556	-41.98
852.731	41.98
852.906	84.99
853.081	80.89
853.256	115.71
853.431	-33.79
853.606	-9.22
853.781	-44.03
853.956	-76.8
854.131	27.65
854.305	39.94
854.48	-41.98
854.655	-44.03
854.83	-46.08
855.005	-37.89
855.18	160.77
855.354	-64.51
855.529	31.74
855.704	48.13
855.879	31.74
856.053	-13.31
856.228	25.6
856.403	-121.85
856.577	-1.02
856.752	-89.09
856.926	17.41
857.101	11.26
857.276	-80.89
857.45	-15.36
857.625	54.27
857.799	-105.47
857.974	17.41
858.148	-68.61
858.323	41.98
858.497	37.89
858.672	-105.47
858.846	-89.09
859.02	-13.31
859.195	-111.61
859.369	39.94
859.543	31.74
859.718	39.94
859.892	29.7
860.066	19.46
860.241	-97.28
860.415	-33.79
860.589	-52.22
860.763	-70.65
860.938	39.94
861.112	13.31
861.286	-9.22
861.46	41.98
861.634	44.03
861.808	31.74
861.982	-62.46
862.157	-113.66
862.331	-35.84
862.505	-80.89
862.679	-123.9
862.853	-78.85
863.027	-19.46
863.201	189.44
863.375	-60.42
863.549	27.65
863.722	-44.03
863.896	70.65
864.07	-117.76
864.244	-29.7
864.418	-15.36
864.592	9.22
864.766	-29.7
864.939	17.41
865.113	-13.31
865.287	105.47
865.461	-64.51
865.634	41.98
865.808	-107.52
865.982	13.31
866.156	-52.22
866.329	-101.37
866.503	25.6
866.676	84.99
866.85	58.37
867.024	-11.26
867.197	144.38
867.371	-27.65
867.544	-19.46
867.718	-62.46
867.891	130.05
868.065	-70.65
868.238	-27.65
868.412	119.81
868.585	80.89
868.759	-11.26
868.932	-23.55
869.105	-130.05
869.279	-29.7
869.452	-39.94
869.625	89.09
869.799	27.65
869.972	-84.99
870.145	-80.89
870.319	84.99
870.492	-72.7
870.665	5.12
870.838	-72.7
871.011	-58.37
871.185	-17.41
871.358	35.84
871.531	82.94
871.704	-17.41
871.877	97.28
872.05	-35.84
872.223	-29.7
872.396	9.22
872.569	-21.5
872.742	-136.19
872.915	115.71
873.088	-105.47
873.261	-17.41
873.434	11.26
873.607	-31.74
873.78	66.56
873.953	-41.98
874.126	-5.12
874.299	-27.65
874.471	-17.41
874.644	17.41
874.817	132.09
874.99	183.29
875.163	-15.36
875.335	27.65
875.508	21.5
875.681	95.23
875.853	-62.46
876.026	35.84
876.199	87.04
876.371	-17.41
876.544	-7.17
876.717	82.94
876.889	17.41
877.062	31.74
877.234	-136.19
877.407	9.22
877.579	-68.61
877.752	11.26
877.924	-39.94
878.097	54.27
878.269	3.07
878.442	74.75
878.614	76.8
878.786	13.31
878.959	-13.31
879.131	72.7
879.303	-97.28
879.476	13.31
879.648	62.46
879.82	-35.84
879.993	7.17
880.165	5.12
880.337	-41.98
880.509	46.08
880.681	-66.56
880.854	-93.18
881.026	29.7
881.198	142.33
881.37	3.07
881.542	-3.07
881.714	31.74
881.886	39.94
882.058	-29.7
882.23	23.55
882.402	-31.74
882.574	-89.09
882.746	64.51
882.918	95.23
883.09	44.03
883.262	29.7
883.434	-48.13
883.606	-111.61
883.778	-31.74
883.95	150.53
884.122	25.6
884.293	54.27
884.465	-13.31
884.637	93.18
884.809	-52.22
884.98	-9.22
885.152	31.74
885.324	-13.31
885.496	-19.46
885.667	-7.17
885.839	-17.41
886.011	35.84
886.182	21.5
886.354	3.07
886.525	-76.8
886.697	9.22
886.869	-39.94
887.04	5.12
887.212	93.18
887.383	148.48
887.555	-15.36
887.726	3.07
887.897	-23.55
888.069	-50.18
888.24	56.32
888.412	-23.55
888.583	-21.5
888.754	60.42
888.926	-93.18
889.097	5.12
889.268	-117.76
889.44	31.74
889.611	-60.42
889.782	-29.7
889.953	-60.42
890.125	1.02
890.296	-68.61
890.467	-50.18
890.638	37.89
890.809	-17.41
890.98	-50.18
891.151	-11.26
891.323	17.41
891.494	-23.55
891.665	-80.89
891.836	-121.85
892.007	25.6
892.178	41.98
892.349	21.5
892.52	-78.85
892.691	3.07
892.862	9.22
893.032	-68.61
893.203	13.31
893.374	66.56
893.545	44.03
893.716	-68.61
893.887	21.5
894.057	-33.79
894.228	89.09
894.399	35.84
894.57	140.29
894.74	-64.51
894.911	-9.22
895.082	-29.7
895.253	-29.7
895.423	-19.46
895.594	9.22
895.764	-46.08
895.935	-132.09
896.106	17.41
896.276	-58.37
896.447	25.6
896.617	-13.31
896.788	5.12
896.958	37.89
897.129	-13.31
897.299	-52.22
897.47	128
897.64	103.42
897.81	-15.36
897.981	41.98
898.151	-52.22
898.322	-39.94
898.492	41.98
898.662	-72.7
898.832	7.17
899.003	11.26
899.173	-1.02
899.343	-64.51
899.513	-97.28
