Data from USB4F104151__44__10-25-09-436.txt Node

Date: Wed Feb 26 10:25:09 EST 2025
User: louis
Spectrometer: USB4F10415
Trigger mode: 4
Integration Time (sec): 1.000000E-1
Scans to average: 1
Electric dark correction enabled: true
Nonlinearity correction enabled: false
Boxcar width: 0
XAxis mode: Wavelengths
Number of Pixels in Spectrum: 3648
>>>>>Begin Spectral Data<<<<<
178.204	-474.62
178.424	-474.62
178.644	-474.62
178.864	-382.46
179.084	-396.79
179.304	-26.11
179.524	10.75
179.744	31.23
179.964	76.29
180.184	-22.02
180.404	90.62
180.624	0.51
180.844	6.66
181.064	-69.12
181.283	-7.68
181.503	-65.02
181.723	-26.11
181.943	-134.65
182.163	135.68
182.383	-54.78
182.602	10.75
182.822	78.33
183.042	55.81
183.262	-95.74
183.482	-22.02
183.701	-44.54
183.921	-17.92
184.141	74.24
184.361	59.9
184.58	39.42
184.8	0.51
185.02	-75.26
185.239	92.67
185.459	6.66
185.679	78.33
185.898	-48.64
186.118	-89.6
186.338	29.18
186.557	74.24
186.777	-58.88
186.997	-32.26
187.216	31.23
187.436	158.21
187.655	68.09
187.875	-7.68
188.095	49.66
188.314	80.38
188.534	96.77
188.753	-26.11
188.973	139.77
189.192	115.2
189.412	-46.59
189.631	-13.82
189.851	70.14
190.07	102.91
190.29	-22.02
190.509	-17.92
190.729	55.81
190.948	166.4
191.168	219.64
191.387	20.99
191.607	-1.54
191.826	-28.16
192.045	-5.63
192.265	-36.35
192.484	31.23
192.704	-19.97
192.923	-15.87
193.142	94.72
193.362	94.72
193.581	141.82
193.8	33.28
194.02	82.43
194.239	59.9
194.458	109.05
194.678	-83.45
194.897	18.94
195.116	74.24
195.335	82.43
195.555	12.8
195.774	8.7
195.993	107.01
196.212	74.24
196.432	-136.7
196.651	-73.21
196.87	-34.3
197.089	207.36
197.308	-22.02
197.528	6.66
197.747	-42.5
197.966	27.14
198.185	100.86
198.404	6.66
198.623	49.66
198.842	47.62
199.062	107.01
199.281	68.09
199.5	12.8
199.719	61.95
199.938	39.42
200.157	53.76
200.376	68.09
200.595	115.2
200.814	76.29
201.033	-112.13
201.252	150.01
201.471	41.47
201.69	33.28
201.909	6.66
202.128	68.09
202.347	29.18
202.566	-34.3
202.785	-110.08
203.004	-32.26
203.223	201.21
203.442	37.38
203.661	-73.21
203.879	74.24
204.098	41.47
204.317	49.66
204.536	66.05
204.755	68.09
204.974	31.23
205.193	-56.83
205.411	172.54
205.63	64
205.849	18.94
206.068	23.04
206.287	-60.93
206.505	27.14
206.724	31.23
206.943	-83.45
207.162	-46.59
207.381	72.19
207.599	45.57
207.818	-3.58
208.037	-103.93
208.255	53.76
208.474	20.99
208.693	-32.26
208.911	66.05
209.13	45.57
209.349	-1.54
209.567	78.33
209.786	166.4
210.005	0.51
210.223	18.94
210.442	-148.99
210.661	20.99
210.879	80.38
211.098	78.33
211.316	2.56
211.535	47.62
211.753	82.43
211.972	-11.78
212.191	-11.78
212.409	45.57
212.628	-22.02
212.846	-1.54
213.065	39.42
213.283	33.28
213.502	16.9
213.72	18.94
213.938	2.56
214.157	12.8
214.375	35.33
214.594	8.7
214.812	88.57
215.031	27.14
215.249	-1.54
215.467	-28.16
215.686	4.61
215.904	33.28
216.122	33.28
216.341	76.29
216.559	64
216.778	61.95
216.996	139.77
217.214	53.76
217.432	-1.54
217.651	-103.93
217.869	10.75
218.087	-15.87
218.306	4.61
218.524	-24.06
218.742	-17.92
218.96	10.75
219.179	29.18
219.397	-75.26
219.615	209.4
219.833	141.82
220.051	-44.54
220.27	29.18
220.488	49.66
220.706	-19.97
220.924	-36.35
221.142	-9.73
221.36	92.67
221.578	90.62
221.796	-36.35
222.015	123.39
222.233	8.7
222.451	90.62
222.669	-83.45
222.887	51.71
223.105	-19.97
223.323	-42.5
223.541	-9.73
223.759	-58.88
223.977	53.76
224.195	111.1
224.413	64
224.631	-26.11
224.849	59.9
225.067	145.92
225.285	51.71
225.503	-46.59
225.721	-105.98
225.939	82.43
226.157	-9.73
226.375	246.27
226.592	6.66
226.81	33.28
227.028	25.09
227.246	88.57
227.464	33.28
227.682	74.24
227.9	41.47
228.117	55.81
228.335	74.24
228.553	20.99
228.771	104.96
228.989	10.75
229.206	31.23
229.424	-9.73
229.642	-5.63
229.86	-5.63
230.077	98.81
230.295	37.38
230.513	72.19
230.731	18.94
230.948	178.69
231.166	82.43
231.384	-26.11
231.601	27.14
231.819	178.69
232.037	8.7
232.254	-17.92
232.472	-46.59
232.689	14.85
232.907	76.29
233.125	-36.35
233.342	-38.4
233.56	23.04
233.777	27.14
233.995	-58.88
234.213	64
234.43	92.67
234.648	-15.87
234.865	-26.11
235.083	-5.63
235.3	59.9
235.518	107.01
235.735	68.09
235.953	145.92
236.17	-30.21
236.388	-15.87
236.605	43.52
236.822	33.28
237.04	94.72
237.257	31.23
237.475	-73.21
237.692	-11.78
237.909	66.05
238.127	16.9
238.344	-24.06
238.562	41.47
238.779	-28.16
238.996	-62.98
239.214	35.33
239.431	55.81
239.648	14.85
239.865	39.42
240.083	92.67
240.3	-62.98
240.517	-17.92
240.735	-24.06
240.952	78.33
241.169	84.48
241.386	72.19
241.603	-30.21
241.821	-42.5
242.038	25.09
242.255	35.33
242.472	-69.12
242.689	16.9
242.907	86.53
243.124	0.51
243.341	88.57
243.558	-3.58
243.775	-91.65
243.992	-54.78
244.209	-1.54
244.426	160.25
244.643	66.05
244.86	10.75
245.078	64
245.295	33.28
245.512	-58.88
245.729	-11.78
245.946	72.19
246.163	94.72
246.38	-79.36
246.597	37.38
246.814	88.57
247.031	-42.5
247.248	0.51
247.464	107.01
247.681	33.28
247.898	66.05
248.115	20.99
248.332	-75.26
248.549	84.48
248.766	131.58
248.983	162.3
249.2	-11.78
249.417	-7.68
249.633	10.75
249.85	18.94
250.067	-1.54
250.284	18.94
250.501	-5.63
250.717	4.61
250.934	-95.74
251.151	12.8
251.368	45.57
251.585	135.68
251.801	23.04
252.018	-77.31
252.235	100.86
252.451	-71.17
252.668	-17.92
252.885	137.73
253.102	-44.54
253.318	4.61
253.535	-15.87
253.752	12.8
253.968	-34.3
254.185	-71.17
254.401	20.99
254.618	-62.98
254.835	-44.54
255.051	57.86
255.268	111.1
255.484	-1.54
255.701	-42.5
255.917	37.38
256.134	-56.83
256.351	-5.63
256.567	-58.88
256.784	12.8
257	-81.41
257.217	68.09
257.433	86.53
257.65	37.38
257.866	94.72
258.082	-87.55
258.299	-11.78
258.515	2.56
258.732	-67.07
258.948	-46.59
259.165	31.23
259.381	-65.02
259.597	35.33
259.814	31.23
260.03	-22.02
260.246	-48.64
260.463	96.77
260.679	-7.68
260.895	6.66
261.112	104.96
261.328	-5.63
261.544	-58.88
261.761	111.1
261.977	-26.11
262.193	-52.74
262.409	68.09
262.626	31.23
262.842	-30.21
263.058	-19.97
263.274	86.53
263.49	23.04
263.707	74.24
263.923	43.52
264.139	-79.36
264.355	84.48
264.571	61.95
264.787	74.24
265.004	174.59
265.22	18.94
265.436	10.75
265.652	14.85
265.868	53.76
266.084	-77.31
266.3	-22.02
266.516	-34.3
266.732	33.28
266.948	39.42
267.164	-60.93
267.38	102.91
267.596	98.81
267.812	125.44
268.028	-56.83
268.244	4.61
268.46	92.67
268.676	-17.92
268.892	6.66
269.108	-48.64
269.324	-44.54
269.54	-24.06
269.756	51.71
269.972	-108.03
270.188	-30.21
270.403	-26.11
270.619	-34.3
270.835	64
271.051	43.52
271.267	16.9
271.483	14.85
271.698	68.09
271.914	80.38
272.13	10.75
272.346	64
272.562	66.05
272.777	35.33
272.993	-52.74
273.209	-15.87
273.425	172.54
273.64	29.18
273.856	27.14
274.072	-73.21
274.287	31.23
274.503	10.75
274.719	51.71
274.934	-46.59
275.15	-54.78
275.366	74.24
275.581	-40.45
275.797	45.57
276.012	-13.82
276.228	-26.11
276.444	-13.82
276.659	109.05
276.875	-58.88
277.09	74.24
277.306	31.23
277.521	61.95
277.737	-24.06
277.952	41.47
278.168	-19.97
278.383	16.9
278.599	8.7
278.814	64
279.03	31.23
279.245	90.62
279.461	12.8
279.676	41.47
279.892	-28.16
280.107	-77.31
280.322	-7.68
280.538	16.9
280.753	-38.4
280.969	31.23
281.184	-62.98
281.399	139.77
281.615	20.99
281.83	-13.82
282.045	2.56
282.26	-26.11
282.476	-5.63
282.691	68.09
282.906	18.94
283.122	66.05
283.337	-50.69
283.552	55.81
283.767	2.56
283.983	96.77
284.198	2.56
284.413	74.24
284.628	-28.16
284.843	-9.73
285.058	70.14
285.274	-30.21
285.489	-40.45
285.704	64
285.919	25.09
286.134	-11.78
286.349	-28.16
286.564	-48.64
286.779	145.92
286.995	-40.45
287.21	-101.89
287.425	2.56
287.64	-1.54
287.855	78.33
288.07	-83.45
288.285	90.62
288.5	70.14
288.715	-9.73
288.93	51.71
289.145	16.9
289.36	133.63
289.575	-87.55
289.79	100.86
290.004	6.66
290.219	59.9
290.434	-81.41
290.649	-52.74
290.864	-46.59
291.079	2.56
291.294	57.86
291.509	31.23
291.724	-7.68
291.938	37.38
292.153	23.04
292.368	-73.21
292.583	70.14
292.798	72.19
293.012	27.14
293.227	76.29
293.442	16.9
293.657	31.23
293.871	51.71
294.086	90.62
294.301	176.64
294.516	127.49
294.73	41.47
294.945	-95.74
295.16	-60.93
295.374	104.96
295.589	139.77
295.804	-9.73
296.018	59.9
296.233	94.72
296.447	-22.02
296.662	-13.82
296.877	127.49
297.091	14.85
297.306	94.72
297.52	-9.73
297.735	0.51
297.949	121.34
298.164	66.05
298.378	8.7
298.593	-52.74
298.807	-101.89
299.022	92.67
299.236	178.69
299.451	4.61
299.665	-79.36
299.88	-67.07
300.094	98.81
300.309	-5.63
300.523	12.8
300.737	-19.97
300.952	76.29
301.166	-1.54
301.381	-50.69
301.595	-13.82
301.809	-9.73
302.024	12.8
302.238	-28.16
302.452	96.77
302.667	12.8
302.881	119.29
303.095	64
303.309	80.38
303.524	-17.92
303.738	-1.54
303.952	-91.65
304.166	150.01
304.381	-136.7
304.595	164.35
304.809	-163.33
305.023	-38.4
305.237	-38.4
305.452	39.42
305.666	27.14
305.88	-9.73
306.094	31.23
306.308	27.14
306.522	72.19
306.736	27.14
306.95	68.09
307.164	-5.63
307.379	8.7
307.593	94.72
307.807	96.77
308.021	55.81
308.235	51.71
308.449	-75.26
308.663	-15.87
308.877	158.21
309.091	-24.06
309.305	-5.63
309.519	-163.33
309.733	139.77
309.947	-46.59
310.161	35.33
310.374	57.86
310.588	145.92
310.802	-9.73
311.016	23.04
311.23	53.76
311.444	-38.4
311.658	-44.54
311.872	20.99
312.085	166.4
312.299	53.76
312.513	94.72
312.727	92.67
312.941	-120.32
313.154	100.86
313.368	27.14
313.582	53.76
313.796	-26.11
314.009	-54.78
314.223	139.77
314.437	-3.58
314.651	72.19
314.864	-54.78
315.078	29.18
315.292	-103.93
315.505	6.66
315.719	57.86
315.933	72.19
316.146	-1.54
316.36	-48.64
316.573	131.58
316.787	49.66
317.001	47.62
317.214	-58.88
317.428	61.95
317.641	16.9
317.855	35.33
318.068	-19.97
318.282	111.1
318.495	104.96
318.709	51.71
318.922	-30.21
319.136	111.1
319.349	70.14
319.563	12.8
319.776	102.91
319.99	-81.41
320.203	88.57
320.417	-3.58
320.63	102.91
320.843	152.06
321.057	-26.11
321.27	-15.87
321.483	31.23
321.697	64
321.91	104.96
322.124	12.8
322.337	12.8
322.55	-40.45
322.763	78.33
322.977	-26.11
323.19	-48.64
323.403	-5.63
323.617	25.09
323.83	78.33
324.043	-22.02
324.256	129.53
324.469	-11.78
324.683	121.34
324.896	-1.54
325.109	27.14
325.322	-67.07
325.535	107.01
325.748	35.33
325.962	-17.92
326.175	-24.06
326.388	61.95
326.601	80.38
326.814	-44.54
327.027	121.34
327.24	94.72
327.453	-105.98
327.666	8.7
327.879	96.77
328.092	35.33
328.305	33.28
328.518	-67.07
328.731	-73.21
328.944	51.71
329.157	16.9
329.37	-17.92
329.583	176.64
329.796	193.02
330.009	-85.5
330.222	90.62
330.435	-24.06
330.648	-26.11
330.861	59.9
331.073	45.57
331.286	33.28
331.499	90.62
331.712	-26.11
331.925	-34.3
332.138	33.28
332.35	64
332.563	10.75
332.776	39.42
332.989	-99.84
333.202	-56.83
333.414	6.66
333.627	53.76
333.84	43.52
334.053	88.57
334.265	39.42
334.478	-52.74
334.691	-40.45
334.903	-3.58
335.116	-69.12
335.329	6.66
335.541	8.7
335.754	100.86
335.966	47.62
336.179	14.85
336.392	12.8
336.604	0.51
336.817	94.72
337.029	39.42
337.242	-24.06
337.454	90.62
337.667	-19.97
337.88	174.59
338.092	43.52
338.305	51.71
338.517	12.8
338.729	16.9
338.942	125.44
339.154	-44.54
339.367	-134.65
339.579	86.53
339.792	-34.3
340.004	6.66
340.217	-17.92
340.429	14.85
340.641	-60.93
340.854	-103.93
341.066	39.42
341.278	109.05
341.491	88.57
341.703	-22.02
341.915	-95.74
342.128	111.1
342.34	43.52
342.552	-110.08
342.764	-38.4
342.977	10.75
343.189	86.53
343.401	49.66
343.613	-50.69
343.826	49.66
344.038	8.7
344.25	61.95
344.462	-34.3
344.674	35.33
344.886	16.9
345.099	86.53
345.311	59.9
345.523	-13.82
345.735	-108.03
345.947	-28.16
346.159	31.23
346.371	-11.78
346.583	-42.5
346.795	143.87
347.007	29.18
347.219	74.24
347.431	43.52
347.643	70.14
347.855	49.66
348.067	213.5
348.279	-60.93
348.491	-3.58
348.703	20.99
348.915	-17.92
349.127	-46.59
349.339	45.57
349.551	-13.82
349.763	84.48
349.975	41.47
350.187	96.77
350.399	125.44
350.61	-7.68
350.822	92.67
351.034	35.33
351.246	10.75
351.458	121.34
351.669	94.72
351.881	23.04
352.093	96.77
352.305	57.86
352.517	-15.87
352.728	59.9
352.94	51.71
353.152	88.57
353.363	-87.55
353.575	41.47
353.787	162.3
353.999	74.24
354.21	72.19
354.422	-157.18
354.633	41.47
354.845	14.85
355.057	113.15
355.268	-19.97
355.48	59.9
355.692	-81.41
355.903	14.85
356.115	-44.54
356.326	-34.3
356.538	31.23
356.749	74.24
356.961	170.49
357.172	61.95
357.384	14.85
357.595	115.2
357.807	-3.58
358.018	-48.64
358.23	-3.58
358.441	98.81
358.653	59.9
358.864	61.95
359.075	-42.5
359.287	59.9
359.498	33.28
359.709	109.05
359.921	14.85
360.132	66.05
360.344	-9.73
360.555	14.85
360.766	53.76
360.977	-19.97
361.189	139.77
361.4	57.86
361.611	66.05
361.823	49.66
362.034	53.76
362.245	-89.6
362.456	35.33
362.667	51.71
362.879	-42.5
363.09	74.24
363.301	39.42
363.512	64
363.723	-40.45
363.935	80.38
364.146	80.38
364.357	-3.58
364.568	16.9
364.779	-124.41
364.99	107.01
365.201	6.66
365.412	33.28
365.623	-108.03
365.834	0.51
366.045	-42.5
366.256	102.91
366.467	86.53
366.678	2.56
366.889	35.33
367.1	-65.02
367.311	45.57
367.522	-38.4
367.733	47.62
367.944	10.75
368.155	-75.26
368.366	123.39
368.577	80.38
368.788	107.01
368.999	-7.68
369.209	-46.59
369.42	176.64
369.631	178.69
369.842	143.87
370.053	-13.82
370.264	14.85
370.474	-28.16
370.685	0.51
370.896	53.76
371.107	57.86
371.317	31.23
371.528	51.71
371.739	82.43
371.95	-3.58
372.16	4.61
372.371	-46.59
372.582	59.9
372.792	27.14
373.003	49.66
373.214	2.56
373.424	119.29
373.635	-65.02
373.846	137.73
374.056	94.72
374.267	-11.78
374.477	37.38
374.688	29.18
374.898	-26.11
375.109	72.19
375.319	96.77
375.53	43.52
375.74	41.47
375.951	-28.16
376.161	8.7
376.372	68.09
376.582	-26.11
376.793	72.19
377.003	-5.63
377.214	-48.64
377.424	20.99
377.635	-13.82
377.845	2.56
378.055	109.05
378.266	-54.78
378.476	66.05
378.686	37.38
378.897	47.62
379.107	102.91
379.317	59.9
379.528	-1.54
379.738	10.75
379.948	-42.5
380.158	66.05
380.369	66.05
380.579	98.81
380.789	55.81
380.999	80.38
381.21	96.77
381.42	125.44
381.63	-50.69
381.84	33.28
382.05	59.9
382.261	135.68
382.471	84.48
382.681	27.14
382.891	131.58
383.101	51.71
383.311	-85.5
383.521	86.53
383.731	115.2
383.941	150.01
384.151	66.05
384.361	-40.45
384.571	47.62
384.781	-28.16
384.991	139.77
385.201	121.34
385.411	72.19
385.621	76.29
385.831	72.19
386.041	47.62
386.251	2.56
386.461	72.19
386.671	-24.06
386.881	16.9
387.091	-22.02
387.301	-7.68
387.511	-11.78
387.72	74.24
387.93	109.05
388.14	-93.69
388.35	92.67
388.56	100.86
388.769	74.24
388.979	78.33
389.189	-42.5
389.399	8.7
389.609	51.71
389.818	70.14
390.028	-15.87
390.238	125.44
390.447	-52.74
390.657	66.05
390.867	12.8
391.076	-89.6
391.286	-1.54
391.496	20.99
391.705	-15.87
391.915	107.01
392.125	49.66
392.334	16.9
392.544	125.44
392.753	27.14
392.963	-42.5
393.172	76.29
393.382	-54.78
393.591	170.49
393.801	-32.26
394.01	125.44
394.22	113.15
394.429	35.33
394.639	16.9
394.848	-1.54
395.058	18.94
395.267	-13.82
395.477	55.81
395.686	78.33
395.895	94.72
396.105	150.01
396.314	41.47
396.524	23.04
396.733	16.9
396.942	82.43
397.152	78.33
397.361	166.4
397.57	-26.11
397.78	68.09
397.989	35.33
398.198	307.71
398.407	0.51
398.617	45.57
398.826	12.8
399.035	27.14
399.244	84.48
399.453	-42.5
399.663	0.51
399.872	18.94
400.081	-3.58
400.29	35.33
400.499	-48.64
400.708	80.38
400.917	37.38
401.127	-36.35
401.336	-71.17
401.545	98.81
401.754	107.01
401.963	90.62
402.172	12.8
402.381	-9.73
402.59	6.66
402.799	-24.06
403.008	129.53
403.217	186.88
403.426	123.39
403.635	-42.5
403.844	23.04
404.053	4.61
404.262	49.66
404.471	141.82
404.68	41.47
404.888	-73.21
405.097	-56.83
405.306	76.29
405.515	107.01
405.724	-77.31
405.933	27.14
406.142	31.23
406.35	102.91
406.559	27.14
406.768	47.62
406.977	133.63
407.185	20.99
407.394	143.87
407.603	-36.35
407.812	35.33
408.02	96.77
408.229	-77.31
408.438	64
408.646	-19.97
408.855	4.61
409.064	49.66
409.272	94.72
409.481	-22.02
409.69	-81.41
409.898	-75.26
410.107	4.61
410.315	92.67
410.524	-11.78
410.733	2.56
410.941	-22.02
411.15	37.38
411.358	115.2
411.567	102.91
411.775	-1.54
411.984	25.09
412.192	82.43
412.401	-7.68
412.609	182.78
412.818	68.09
413.026	47.62
413.234	43.52
413.443	23.04
413.651	-56.83
413.86	2.56
414.068	78.33
414.276	182.78
414.485	-71.17
414.693	123.39
414.901	158.21
415.11	47.62
415.318	45.57
415.526	43.52
415.734	41.47
415.943	18.94
416.151	90.62
416.359	31.23
416.567	59.9
416.776	72.19
416.984	102.91
417.192	164.35
417.4	2.56
417.608	20.99
417.817	-93.69
418.025	102.91
418.233	162.3
418.441	-120.32
418.649	-19.97
418.857	92.67
419.065	35.33
419.273	-3.58
419.481	2.56
419.689	57.86
419.897	20.99
420.105	-99.84
420.313	74.24
420.521	72.19
420.729	94.72
420.937	-42.5
421.145	-22.02
421.353	70.14
421.561	102.91
421.769	90.62
421.977	-7.68
422.185	-15.87
422.393	-19.97
422.601	70.14
422.809	76.29
423.017	61.95
423.224	25.09
423.432	111.1
423.64	74.24
423.848	164.35
424.056	16.9
424.263	90.62
424.471	51.71
424.679	111.1
424.887	-24.06
425.094	156.16
425.302	147.97
425.51	0.51
425.718	180.73
425.925	104.96
426.133	88.57
426.341	229.88
426.548	111.1
426.756	117.25
426.964	100.86
427.171	18.94
427.379	57.86
427.586	78.33
427.794	109.05
428.001	117.25
428.209	129.53
428.417	150.01
428.624	207.36
428.832	84.48
429.039	53.76
429.247	31.23
429.454	98.81
429.662	160.25
429.869	94.72
430.076	137.73
430.284	174.59
430.491	170.49
430.699	141.82
430.906	246.27
431.114	74.24
431.321	129.53
431.528	137.73
431.736	74.24
431.943	109.05
432.15	143.87
432.358	233.98
432.565	283.13
432.772	57.86
432.979	158.21
433.187	86.53
433.394	252.41
433.601	127.49
433.808	264.7
434.016	352.76
434.223	266.75
434.43	170.49
434.637	233.98
434.844	238.08
435.052	299.52
435.259	299.52
435.466	334.33
435.673	375.29
435.88	287.23
436.087	344.57
436.294	309.76
436.501	410.11
436.708	344.57
436.915	340.47
437.122	365.05
437.329	344.57
437.537	350.71
437.743	328.19
437.95	479.74
438.157	502.26
438.364	504.31
438.571	420.35
438.778	440.83
438.985	520.7
439.192	524.79
439.399	475.64
439.606	541.18
439.813	621.05
440.02	682.49
440.227	799.22
440.433	569.85
440.64	672.25
440.847	584.18
441.054	659.96
441.261	815.6
441.467	762.36
441.674	774.64
441.881	913.91
442.088	956.91
442.294	866.8
442.501	983.54
442.708	1145.33
442.914	829.94
443.121	1018.35
443.328	991.73
443.534	1221.1
443.741	1147.37
443.948	987.63
444.154	1233.39
444.361	1395.18
444.568	1247.72
444.774	1313.26
444.981	1200.62
445.187	1583.59
445.394	1436.14
445.6	1352.17
445.807	1661.41
446.013	1583.59
446.22	1571.3
446.426	1769.96
446.633	1802.72
446.839	2085.34
447.046	1759.72
447.252	2099.68
447.459	2050.53
447.665	2150.88
447.871	2257.37
448.078	2435.55
448.284	2402.78
448.491	2464.22
448.697	2544.09
448.903	2740.69
449.11	2705.88
449.316	2769.37
449.522	3008.98
449.728	3017.17
449.935	3174.86
450.141	3133.9
450.347	3498.44
450.553	3428.81
450.76	3424.72
450.966	3609.03
451.172	3740.1
451.378	4012.48
451.584	4131.26
451.791	4432.32
451.997	4422.08
452.203	4581.82
452.409	4794.81
452.615	4762.04
452.821	4762.04
453.027	4764.09
453.233	5599.66
453.44	5341.61
453.646	5511.6
453.852	5900.71
454.058	6056.36
454.264	6334.88
454.47	6885.78
454.676	6642.07
454.882	7174.55
455.088	6812.06
455.294	7428.49
455.5	7942.53
455.705	8536.45
455.911	8206.72
456.117	8745.34
456.323	8812.92
456.529	8921.46
456.735	9597.29
456.941	9830.76
457.147	10226.02
457.352	10555.74
457.558	10981.72
457.764	11624.78
457.97	11764.04
458.176	12335.43
458.381	12818.75
458.587	13461.81
458.793	13762.86
458.999	13865.26
459.204	15597.84
459.41	16175.37
459.616	15876.37
459.821	16707.84
460.027	17817.84
460.233	18303.21
460.438	18331.88
460.644	19273.95
460.85	19691.73
461.055	19968.21
461.261	21401.79
461.466	20584.65
461.672	21409.98
461.878	23910.55
462.083	23591.06
462.289	24250.51
462.494	24938.63
462.7	25114.75
462.905	25342.08
463.111	27445.34
463.316	28837.96
463.522	29276.23
463.727	30494.77
463.932	31457.31
464.138	32608.27
464.343	33624.06
464.549	34050.04
464.754	36106.2
464.959	37224.39
465.165	38174.65
465.37	37709.76
465.575	38092.73
465.781	40222.62
465.986	41455.5
466.191	41021.33
466.397	41316.23
466.602	40404.89
466.807	42563.45
467.012	43288.43
467.218	44416.86
467.423	44220.25
467.628	45199.18
467.833	47605.55
468.038	46669.62
468.244	45883.2
468.449	48101.15
468.654	47286.06
468.859	47300.4
469.064	47398.7
469.269	45854.53
469.474	46714.68
469.679	47382.32
469.885	46298.94
470.09	47064.88
470.295	47103.79
470.5	45965.12
470.705	46638.9
470.91	45227.85
471.115	45113.17
471.32	45881.16
471.525	44984.15
471.73	44037.98
471.935	43890.53
472.139	42284.92
472.344	42327.93
472.549	42186.62
472.754	40980.37
472.959	40325.02
473.164	38989.74
473.369	38629.3
473.574	39632.8
473.778	38707.12
473.983	38264.76
474.188	37248.97
474.393	35737.57
474.598	35641.31
474.802	34578.42
475.007	34537.46
475.212	34211.83
475.417	32651.28
475.621	32268.31
475.826	32051.22
476.031	31617.05
476.235	30621.74
476.44	30767.15
476.645	29968.44
476.849	30091.32
477.054	28852.3
477.259	28409.93
477.463	28543.05
477.668	27269.22
477.872	27553.88
478.077	27093.09
478.282	26128.5
478.486	25972.85
478.691	25665.66
478.895	25661.56
479.1	25395.32
479.304	25131.14
479.509	24121.49
479.713	24682.63
479.918	24051.86
480.122	23593.11
480.326	23853.2
480.531	23863.44
480.735	23269.53
480.94	22884.51
481.144	23552.15
481.348	22376.62
481.553	22640.81
481.757	21999.79
481.961	22358.19
482.166	22442.15
482.37	21858.48
482.574	21342.39
482.778	21651.64
482.983	21690.55
483.187	21452.98
483.391	21205.18
483.595	20533.45
483.8	20353.23
484.004	20752.58
484.208	20564.17
484.412	20598.98
484.616	19851.47
484.821	19841.23
485.025	18921.7
485.229	19484.89
485.433	19441.88
485.637	19009.76
485.841	18483.43
486.045	18362.6
486.249	18372.84
486.453	17815.79
486.657	17864.94
486.861	17471.73
487.065	16853.25
487.269	16900.35
487.473	16558.34
487.677	16552.2
487.881	16527.62
488.085	15989
488.289	15667.47
488.493	15044.89
488.697	15345.94
488.901	15005.98
489.105	14713.12
489.309	14145.83
489.512	14324.01
489.716	13906.22
489.92	13539.63
490.124	13125.94
490.328	13386.04
490.531	13089.08
490.735	12826.94
490.939	12536.13
491.143	12314.95
491.346	12085.58
491.55	12126.53
491.754	11663.69
491.958	11612.49
492.161	11376.98
492.365	11131.22
492.569	11000.15
492.772	10938.71
492.976	10856.79
493.18	10510.69
493.383	10672.48
493.587	10408.29
493.79	10303.84
493.994	9992.55
494.197	10174.82
494.401	10041.7
494.605	9632.11
494.808	9900.39
495.012	9765.23
495.215	9658.73
495.419	9662.83
495.622	9357.68
495.825	9249.14
496.029	9238.9
496.232	9367.92
496.436	9193.84
496.639	9519.47
496.843	9392.5
497.046	9423.22
497.249	9460.08
497.453	9472.37
497.656	9159.03
497.859	9439.6
498.063	9351.54
498.266	9542
498.469	9349.49
498.673	9320.82
498.876	9513.33
499.079	9521.52
499.282	9386.35
499.485	9560.43
499.689	9531.76
499.892	9634.16
500.095	9697.64
500.298	9906.54
500.501	9597.29
500.705	10031.46
500.908	10183.01
501.111	10207.59
501.314	10125.67
501.517	10533.22
501.72	10490.21
501.923	10475.87
502.126	10619.23
502.329	11047.26
502.532	10991.96
502.735	11057.5
502.938	11262.29
503.141	11387.22
503.344	11374.93
503.547	11618.64
503.75	11710.8
503.953	11819.34
504.156	12063.05
504.359	12200.26
504.562	12366.15
504.765	12501.31
504.968	12552.51
505.17	12820.8
505.373	12964.15
505.576	13267.25
505.779	13457.71
505.982	13576.5
506.185	13828.4
506.387	14287.14
506.59	14360.87
506.793	14598.43
506.996	14723.36
507.198	15511.83
507.401	15479.06
507.604	15829.26
507.807	15982.86
508.009	16433.41
508.212	16797.95
508.415	16910.59
508.617	17084.67
508.82	17699.06
509.022	17946.86
509.225	18385.13
509.428	18807.01
509.63	19083.48
509.833	19249.37
510.035	20109.52
510.238	20078.8
510.44	20502.73
510.643	21088.45
510.845	21495.99
511.048	22020.27
511.25	22517.93
511.453	22923.43
511.655	23855.25
511.858	23820.44
512.06	24563.85
512.262	24926.34
512.465	25442.43
512.667	26087.54
512.87	26640.49
513.072	27400.29
513.274	27852.89
513.477	28403.79
513.679	28932.17
513.881	29558.84
514.084	30451.76
514.286	30705.71
514.488	31166.5
514.69	32317.46
514.893	32866.31
515.095	33325.06
515.297	33935.35
515.499	34580.46
515.701	35672.03
515.904	36311
516.106	36960.2
516.308	37494.72
516.51	38533.04
516.712	38719.41
516.914	39829.41
517.116	40787.86
517.318	41133.96
517.52	41779.07
517.722	42401.66
517.925	42999.66
518.127	44244.83
518.329	44793.68
518.531	44949.33
518.733	46063.43
518.935	46630.71
519.136	47318.83
519.338	48320.29
519.54	48299.81
519.742	49471.25
519.944	49803.02
520.146	50794.23
520.348	51681
520.55	51689.2
520.752	52362.98
520.954	53282.51
521.155	52885.21
521.357	53812.94
521.559	54714.05
521.761	55330.48
521.963	55811.76
522.164	55770.8
522.366	56329.89
522.568	56989.34
522.77	57355.92
522.971	58064.52
523.173	57810.57
523.375	58072.71
523.576	58236.55
523.778	58177.16
523.98	59068.03
524.181	58984.06
524.383	59235.96
524.584	60118.63
524.786	59297.4
524.988	58828.41
525.189	59682.42
525.391	59870.83
525.592	59942.51
525.794	59678.32
525.995	59936.37
526.197	59285.11
526.398	59747.95
526.6	59625.07
526.801	59215.48
527.003	59000.44
527.204	58818.17
527.406	59203.19
527.607	58515.08
527.808	58115.72
528.01	57233.05
528.211	57390.74
528.412	57513.62
528.614	57147.03
528.815	56303.27
529.016	56739.49
529.218	55267
529.419	55273.14
529.62	55084.73
529.822	54521.54
530.023	53739.21
530.224	53767.88
530.425	52868.83
530.626	51928.81
530.828	51541.74
531.029	51932.9
531.23	50536.19
531.431	50097.92
531.632	50044.68
531.833	49229.58
532.035	48652.06
532.236	48183.07
532.437	48144.16
532.638	46624.57
532.839	46290.75
533.04	45745.99
533.241	45221.71
533.442	45385.55
533.643	44033.89
533.844	43540.33
534.045	42999.66
534.246	42164.09
534.447	41754.5
534.648	40824.72
534.849	40521.62
535.05	40038.3
535.251	39903.14
535.451	38932.4
535.652	38750.13
535.853	38170.55
536.054	37752.77
536.255	37281.74
536.456	36118.49
536.657	36458.45
536.857	35692.51
537.058	34863.08
537.259	34588.66
537.46	34494.45
537.66	33400.83
537.861	33429.51
538.062	32763.92
538.263	32458.77
538.463	31801.37
538.664	31617.05
538.865	31170.6
539.065	30941.22
539.266	30369.84
539.466	30261.3
539.667	29610.04
539.868	29583.42
540.068	29263.94
540.269	28797
540.469	28581.96
540.67	27846.74
540.87	27625.56
541.071	27127.91
541.271	27252.83
541.472	26949.73
541.672	26861.67
541.873	25858.17
542.073	25591.93
542.274	25520.25
542.474	25100.42
542.675	24733.83
542.875	25065.6
543.075	24236.17
543.276	23937.17
543.476	23986.32
543.676	23607.45
543.877	23619.74
544.077	23099.55
544.277	23015.58
544.478	22407.34
544.678	22483.11
544.878	22331.56
545.078	21741.75
545.279	21145.79
545.479	21467.32
545.679	21270.72
545.879	20824.26
546.079	20623.56
546.28	20422.86
546.48	20189.39
546.68	20156.62
546.88	19994.83
547.08	19562.71
547.28	19155.16
547.48	18661.6
547.68	18940.13
547.88	18557.16
548.081	18587.88
548.281	17791.22
548.481	17729.78
548.681	17922.29
548.881	17332.47
549.081	17373.43
549.28	17056
549.48	16705.79
549.68	16357.64
549.88	16617.73
550.08	15923.47
550.28	15978.76
550.48	15560.98
550.68	15677.71
550.88	14993.69
551.08	14850.33
551.279	15028.51
551.479	14604.58
551.679	14686.5
551.879	14047.53
552.079	13949.23
552.278	13599.02
552.478	13705.52
552.678	13277.49
552.878	13300.02
553.077	12859.71
553.277	12611.9
553.477	12951.87
553.676	12753.21
553.876	12151.11
554.076	11858.25
554.275	11819.34
554.475	11407.7
554.674	11667.79
554.874	11315.54
555.074	11006.3
555.273	11082.07
555.473	10854.75
555.672	10666.33
555.872	10529.12
556.071	10344.8
556.271	10502.5
556.47	10080.61
556.67	9838.95
556.869	9793.9
557.068	9406.83
557.268	9353.59
557.467	9152.88
557.667	9171.32
557.866	9064.82
558.065	8739.19
558.265	8423.81
558.464	8569.21
558.663	8450.43
558.863	8116.61
559.062	8194.43
559.261	7758.22
559.461	8071.56
559.66	7559.56
559.859	7651.72
560.058	7418.25
560.258	7383.44
560.457	7219.6
560.656	7408.01
560.855	6906.26
561.054	7086.48
561.253	6928.79
561.453	6670.75
561.652	6664.6
561.851	6603.16
562.05	6482.33
562.249	6236.58
562.448	6351.26
562.647	5992.87
562.846	6058.4
563.045	5937.57
563.244	5798.31
563.443	5892.52
563.642	5450.16
563.841	5659.05
564.04	5607.85
564.239	5581.23
564.438	5282.22
564.637	5120.43
564.836	5339.57
565.035	5102
565.234	5284.27
565.432	4850.1
565.631	4907.45
565.83	4919.73
566.029	4813.24
566.228	4559.29
566.427	4751.8
566.625	4415.93
566.824	4563.39
567.023	4497.85
567.222	4471.23
567.42	4295.1
567.619	4604.35
567.818	4356.54
568.016	4336.06
568.215	4123.07
568.414	4129.22
568.612	4002.24
568.811	4002.24
569.01	4018.63
569.208	3770.82
569.407	3944.9
569.605	3719.62
569.804	3662.28
570.002	3584.46
570.201	3602.89
570.4	3627.46
570.598	3459.53
570.797	3445.2
570.995	3373.52
571.193	3254.73
571.392	3371.47
571.59	3240.4
571.789	3123.66
571.987	3166.67
572.186	3232.21
572.384	3017.17
572.582	2980.31
572.781	3088.85
572.979	2869.72
573.177	2849.24
573.376	2935.25
573.574	2898.39
573.772	2689.49
573.971	2752.98
574.169	2537.95
574.367	2720.21
574.565	2599.38
574.763	2554.33
574.962	2408.92
575.16	2501.08
575.358	2308.57
575.556	2370.01
575.754	2370.01
575.952	2388.44
576.151	2390.49
576.349	2286.05
576.547	2089.44
576.745	2052.58
576.943	2095.58
577.141	2089.44
577.339	2011.62
577.537	2011.62
577.735	2015.71
577.933	2019.81
578.131	1810.92
578.329	2056.67
578.527	1827.3
578.725	1921.51
578.923	1710.57
579.121	1958.37
579.319	1661.41
579.516	1685.99
579.714	1923.55
579.912	1776.1
580.11	1485.29
580.308	1739.24
580.506	1616.36
580.704	1477.1
580.901	1470.95
581.099	1671.65
581.297	1522.15
581.495	1466.86
581.692	1567.21
581.89	1599.98
582.088	1425.9
582.285	1452.52
582.483	1329.64
582.681	1356.27
582.878	1325.55
583.076	1397.23
583.274	1323.5
583.471	1497.58
583.669	1253.87
583.866	1174
584.064	1200.62
584.262	1114.61
584.459	1169.9
584.657	1192.43
584.854	1245.68
585.052	1239.53
585.249	1288.68
585.447	1192.43
585.644	1108.46
585.841	1116.65
586.039	1200.62
586.236	1110.51
586.434	981.49
586.631	1098.22
586.828	1006.06
587.026	1018.35
587.223	899.57
587.42	965.11
587.618	995.82
587.815	1073.65
588.012	940.53
588.21	989.68
588.407	1010.16
588.604	979.44
588.801	852.47
588.999	870.9
589.196	1030.64
589.393	918
589.59	930.29
589.787	948.72
589.984	956.91
590.182	866.8
590.379	817.65
590.576	809.46
590.773	961.01
590.97	838.13
591.167	879.09
591.364	936.43
591.561	784.88
591.758	997.87
591.955	915.95
592.152	842.23
592.349	764.4
592.546	739.83
592.743	739.83
592.94	793.08
593.137	819.7
593.334	872.95
593.531	817.65
593.727	969.2
593.924	838.13
594.121	743.92
594.318	793.08
594.515	883.19
594.712	938.48
594.908	901.62
595.105	676.34
595.302	784.88
595.499	961.01
595.696	1042.93
595.892	840.18
596.089	934.39
596.286	864.75
596.482	1018.35
596.679	1028.59
596.876	991.73
597.072	1049.07
597.269	1094.13
597.466	1188.33
597.662	1157.61
597.859	1116.65
598.055	1155.57
598.252	1217.01
598.448	1264.11
598.645	1282.54
598.841	1468.91
599.038	1460.71
599.234	1499.63
599.431	1520.1
599.627	1561.06
599.824	1638.89
600.02	1604.07
600.217	1688.04
600.413	1784.29
600.609	1815.01
600.806	2107.87
601.002	1972.71
601.198	1929.7
601.395	2245.09
601.591	2218.46
601.787	2351.58
601.984	2439.64
602.18	2521.56
602.376	2499.03
602.572	2687.45
602.769	2798.04
602.965	2865.62
603.161	3056.08
603.357	3090.9
603.553	3260.88
603.75	3228.11
603.946	3561.93
604.142	3629.51
604.338	3834.31
604.534	3736.01
604.73	3926.47
604.926	4102.59
605.122	4166.08
605.318	4196.8
605.514	4532.67
605.71	4432.32
605.906	4737.46
606.102	4856.25
606.298	4958.64
606.494	5153.2
606.69	5573.03
606.886	5452.2
607.082	5577.13
607.278	5888.42
607.474	5855.65
607.67	6195.62
607.866	6242.72
608.062	6523.29
608.257	6906.26
608.453	6711.71
608.649	7045.52
608.845	7092.63
609.041	7322
609.236	7737.74
609.432	7934.34
609.628	8049.03
609.824	8212.87
610.019	8407.42
610.215	8601.98
610.411	8935.8
610.606	9232.76
610.802	9455.98
610.998	9668.97
611.193	10174.82
611.389	10174.82
611.584	10396
611.78	10494.3
611.976	10916.19
612.171	11235.67
612.367	11370.83
612.562	11985.23
612.758	12022.09
612.953	12409.15
613.149	12896.57
613.344	12837.18
613.539	13680.94
613.735	13797.68
613.93	14426.4
614.126	14274.85
614.321	14874.91
614.517	15546.64
614.712	15696.14
614.907	16210.18
615.103	16777.47
615.298	16822.53
615.493	17287.42
615.688	17567.99
615.884	18364.65
616.079	18729.19
616.274	19294.43
616.47	19536.09
616.665	20199.63
616.86	20504.78
617.055	21147.84
617.25	21676.21
617.445	22524.07
617.641	22773.92
617.836	23357.6
618.031	23632.02
618.226	24369.29
618.421	24805.51
618.616	26185.84
618.811	25892.98
619.006	27029.6
619.201	27209.82
619.396	28231.76
619.591	28278.86
619.786	29464.64
619.981	29749.31
620.176	30582.83
620.371	30664.75
620.566	31834.14
620.761	32399.38
620.956	33275.91
621.151	33394.69
621.346	34559.98
621.541	34441.2
621.735	35659.74
621.93	35997.66
622.125	36679.63
622.32	37457.86
622.515	38131.64
622.709	38932.4
622.904	39335.85
623.099	40267.67
623.294	41101.2
623.488	41342.86
623.683	42301.31
623.878	42307.45
624.072	43784.04
624.267	43900.77
624.462	44730.2
624.656	45164.37
624.851	46124.86
625.046	46808.89
625.24	47296.3
625.435	47773.48
625.629	48557.85
625.824	49182.48
626.018	50093.83
626.213	50036.48
626.407	51248.88
626.602	51048.18
626.796	52367.07
626.991	52805.34
627.185	52866.78
627.38	52803.29
627.574	53614.29
627.768	53571.28
627.963	53870.28
628.157	53857.99
628.352	54374.08
628.546	53937.86
628.74	54855.35
628.935	54296.26
629.129	54646.46
629.323	54021.83
629.517	54210.24
629.712	53710.54
629.906	53470.93
630.1	52639.45
630.294	52672.22
630.489	51547.89
630.683	51871.46
630.877	50095.88
631.071	49979.14
631.265	49211.15
631.459	47955.75
631.653	46896.95
631.848	46643
632.042	45469.51
632.236	44556.12
632.43	43272.04
632.624	42389.37
632.818	40613.78
633.012	39112.62
633.206	38447.03
633.4	37674.95
633.594	35610.59
633.788	35076.07
633.982	34144.25
634.176	32507.92
634.369	31150.12
634.563	30130.23
634.757	29212.74
634.951	28514.38
635.145	27258.98
635.339	26079.35
635.533	24961.16
635.726	24338.57
635.92	23058.59
636.114	22173.87
636.308	21156.03
636.501	20183.24
636.695	19642.58
636.889	18606.31
637.083	17862.9
637.276	17311.99
637.47	16490.76
637.664	15739.15
637.857	15245.59
638.051	14401.83
638.244	14057.77
638.438	13564.21
638.632	13011.26
638.825	12560.7
639.019	11825.48
639.212	11299.16
639.406	11102.55
639.599	10445.15
639.793	10367.33
639.986	9642.35
640.18	9525.61
640.373	9228.66
640.567	8622.46
640.76	8415.62
640.954	8098.18
641.147	7858.57
641.34	7317.9
641.534	7180.69
641.727	7010.71
641.92	6773.14
642.114	6439.33
642.307	6212
642.5	5945.77
642.694	5636.52
642.887	5499.31
643.08	5378.48
643.273	5188.02
643.467	5048.75
643.66	4608.44
643.853	4512.19
644.046	4377.02
644.239	4180.42
644.432	4102.59
644.626	3922.37
644.819	3805.64
645.012	3662.28
645.205	3611.08
645.398	3437
645.591	3043.79
645.784	3056.08
645.977	2824.66
646.17	2769.37
646.363	2689.49
646.556	2673.11
646.749	2404.83
646.942	2443.74
647.135	2410.97
647.328	2308.57
647.521	2165.21
647.714	2062.82
647.907	1950.18
648.099	1915.36
648.292	1927.65
648.485	1782.24
648.678	1581.54
648.871	1640.93
649.064	1624.55
649.256	1487.34
649.449	1524.2
649.642	1391.08
649.835	1438.19
650.027	1366.51
650.22	1386.99
650.413	1249.77
650.605	1145.33
650.798	1083.89
650.991	1128.94
651.183	1098.22
651.376	1137.13
651.568	1042.93
651.761	999.92
651.954	1047.02
652.146	823.8
652.339	979.44
652.531	879.09
652.724	801.27
652.916	745.97
653.109	645.62
653.301	836.08
653.494	774.64
653.686	731.64
653.879	860.66
654.071	680.44
654.263	571.9
654.456	659.96
654.648	657.91
654.84	559.61
655.033	446.97
655.225	639.48
655.417	432.63
655.61	692.73
655.802	563.7
655.994	586.23
656.186	426.49
656.379	526.84
656.571	461.3
656.763	444.92
656.955	389.63
657.148	475.64
657.34	510.46
657.532	358.91
657.724	354.81
657.916	375.29
658.108	459.26
658.3	426.49
658.492	436.73
658.684	428.54
658.876	363
659.068	262.65
659.26	274.94
659.452	164.35
659.644	303.61
659.836	420.35
660.028	301.56
660.22	254.46
660.412	229.88
660.604	203.26
660.796	281.08
660.988	287.23
661.18	260.6
661.372	287.23
661.563	293.37
661.755	268.8
661.947	258.56
662.139	166.4
662.331	260.6
662.522	143.87
662.714	154.11
662.906	131.58
663.097	248.32
663.289	195.07
663.481	129.53
663.673	150.01
663.864	111.1
664.056	201.21
664.247	199.16
664.439	250.36
664.631	195.07
664.822	260.6
665.014	121.34
665.205	133.63
665.397	147.97
665.588	166.4
665.78	111.1
665.971	164.35
666.163	74.24
666.354	162.3
666.546	117.25
666.737	92.67
666.929	82.43
667.12	125.44
667.311	233.98
667.503	137.73
667.694	137.73
667.885	82.43
668.077	129.53
668.268	139.77
668.459	184.83
668.651	129.53
668.842	107.01
669.033	-32.26
669.224	39.42
669.416	320
669.607	100.86
669.798	-34.3
669.989	190.97
670.18	94.72
670.371	129.53
670.563	43.52
670.754	244.22
670.945	197.12
671.136	178.69
671.327	51.71
671.518	176.64
671.709	150.01
671.9	129.53
672.091	260.6
672.282	145.92
672.473	154.11
672.664	51.71
672.855	14.85
673.046	211.45
673.237	170.49
673.428	96.77
673.619	131.58
673.809	70.14
674	197.12
674.191	166.4
674.382	162.3
674.573	78.33
674.764	166.4
674.954	221.69
675.145	68.09
675.336	102.91
675.527	39.42
675.717	100.86
675.908	74.24
676.099	129.53
676.289	150.01
676.48	4.61
676.671	113.15
676.861	123.39
677.052	145.92
677.243	188.93
677.433	47.62
677.624	231.93
677.814	199.16
678.005	117.25
678.195	223.74
678.386	59.9
678.576	143.87
678.767	64
678.957	199.16
679.148	207.36
679.338	162.3
679.529	197.12
679.719	143.87
679.909	131.58
680.1	168.45
680.29	158.21
680.481	6.66
680.671	166.4
680.861	166.4
681.052	162.3
681.242	129.53
681.432	139.77
681.622	168.45
681.813	125.44
682.003	211.45
682.193	55.81
682.383	133.63
682.573	160.25
682.764	121.34
682.954	150.01
683.144	254.46
683.334	45.57
683.524	195.07
683.714	279.04
683.904	283.13
684.094	119.29
684.284	209.4
684.474	289.28
684.664	223.74
684.854	233.98
685.044	147.97
685.234	158.21
685.424	276.99
685.614	18.94
685.804	258.56
685.994	168.45
686.184	201.21
686.374	215.55
686.564	231.93
686.753	178.69
686.943	143.87
687.133	178.69
687.323	193.02
687.513	221.69
687.702	152.06
687.892	90.62
688.082	266.75
688.272	197.12
688.461	158.21
688.651	346.62
688.841	279.04
689.03	145.92
689.22	117.25
689.41	215.55
689.599	186.88
689.789	174.59
689.979	303.61
690.168	84.48
690.358	276.99
690.547	100.86
690.737	236.03
690.926	141.82
691.116	111.1
691.305	244.22
691.495	166.4
691.684	-11.78
691.874	141.82
692.063	139.77
692.252	147.97
692.442	258.56
692.631	152.06
692.82	82.43
693.01	156.16
693.199	82.43
693.388	184.83
693.578	139.77
693.767	184.83
693.956	156.16
694.146	174.59
694.335	166.4
694.524	115.2
694.713	221.69
694.902	209.4
695.092	100.86
695.281	244.22
695.47	70.14
695.659	76.29
695.848	135.68
696.037	150.01
696.226	289.28
696.415	137.73
696.604	227.84
696.793	229.88
696.982	190.97
697.171	272.89
697.36	104.96
697.549	113.15
697.738	82.43
697.927	180.73
698.116	102.91
698.305	203.26
698.494	172.54
698.683	88.57
698.872	367.1
699.061	141.82
699.25	199.16
699.438	184.83
699.627	123.39
699.816	272.89
700.005	-30.21
700.193	86.53
700.382	229.88
700.571	193.02
700.76	207.36
700.948	201.21
701.137	147.97
701.326	193.02
701.514	90.62
701.703	109.05
701.892	221.69
702.08	281.08
702.269	135.68
702.457	195.07
702.646	158.21
702.834	121.34
703.023	166.4
703.212	188.93
703.4	121.34
703.589	123.39
703.777	129.53
703.965	158.21
704.154	90.62
704.342	109.05
704.531	96.77
704.719	100.86
704.907	137.73
705.096	145.92
705.284	78.33
705.472	152.06
705.661	80.38
705.849	199.16
706.037	180.73
706.226	160.25
706.414	168.45
706.602	31.23
706.79	227.84
706.979	59.9
707.167	174.59
707.355	98.81
707.543	92.67
707.731	242.17
707.919	90.62
708.107	88.57
708.296	92.67
708.484	41.47
708.672	150.01
708.86	141.82
709.048	219.64
709.236	39.42
709.424	150.01
709.612	205.31
709.8	80.38
709.988	162.3
710.176	231.93
710.364	150.01
710.551	131.58
710.739	150.01
710.927	27.14
711.115	127.49
711.303	225.79
711.491	250.36
711.679	59.9
711.866	133.63
712.054	166.4
712.242	154.11
712.43	221.69
712.617	119.29
712.805	233.98
712.993	180.73
713.181	170.49
713.368	285.18
713.556	172.54
713.744	104.96
713.931	188.93
714.119	225.79
714.306	129.53
714.494	64
714.682	123.39
714.869	107.01
715.057	174.59
715.244	25.09
715.432	227.84
715.619	125.44
715.807	45.57
715.994	190.97
716.182	186.88
716.369	160.25
716.556	242.17
716.744	-5.63
716.931	86.53
717.119	180.73
717.306	197.12
717.493	199.16
717.681	193.02
717.868	139.77
718.055	207.36
718.242	225.79
718.43	147.97
718.617	213.5
718.804	154.11
718.991	274.94
719.179	199.16
719.366	162.3
719.553	160.25
719.74	166.4
719.927	219.64
720.114	137.73
720.301	92.67
720.488	147.97
720.676	170.49
720.863	371.19
721.05	252.41
721.237	315.9
721.424	199.16
721.611	115.2
721.798	127.49
721.985	164.35
722.172	98.81
722.358	162.3
722.545	219.64
722.732	256.51
722.919	270.84
723.106	264.7
723.293	231.93
723.48	262.65
723.667	158.21
723.853	264.7
724.04	236.03
724.227	227.84
724.414	170.49
724.6	195.07
724.787	313.85
724.974	344.57
725.161	309.76
725.347	145.92
725.534	242.17
725.72	193.02
725.907	197.12
726.094	240.12
726.28	152.06
726.467	137.73
726.653	205.31
726.84	342.52
727.027	350.71
727.213	229.88
727.4	281.08
727.586	209.4
727.773	217.6
727.959	276.99
728.145	244.22
728.332	281.08
728.518	172.54
728.705	135.68
728.891	178.69
729.077	256.51
729.264	156.16
729.45	178.69
729.636	342.52
729.823	334.33
730.009	274.94
730.195	287.23
730.382	287.23
730.568	190.97
730.754	295.42
730.94	303.61
731.126	215.55
731.313	262.65
731.499	276.99
731.685	258.56
731.871	291.32
732.057	332.28
732.243	266.75
732.429	236.03
732.615	328.19
732.801	279.04
732.987	227.84
733.173	244.22
733.359	199.16
733.545	287.23
733.731	309.76
733.917	356.86
734.103	348.67
734.289	264.7
734.475	170.49
734.661	338.43
734.847	332.28
735.033	227.84
735.219	317.95
735.404	270.84
735.59	221.69
735.776	320
735.962	270.84
736.148	307.71
736.333	326.14
736.519	264.7
736.705	248.32
736.89	315.9
737.076	240.12
737.262	170.49
737.447	225.79
737.633	264.7
737.819	309.76
738.004	256.51
738.19	305.66
738.375	299.52
738.561	324.09
738.747	254.46
738.932	227.84
739.118	438.78
739.303	262.65
739.489	291.32
739.674	313.85
739.859	264.7
740.045	303.61
740.23	344.57
740.416	125.44
740.601	309.76
740.786	297.47
740.972	213.5
741.157	213.5
741.342	195.07
741.528	242.17
741.713	354.81
741.898	252.41
742.084	311.8
742.269	320
742.454	371.19
742.639	399.87
742.824	311.8
743.01	356.86
743.195	393.72
743.38	274.94
743.565	266.75
743.75	358.91
743.935	291.32
744.12	406.01
744.305	180.73
744.49	209.4
744.675	303.61
744.86	227.84
745.045	360.95
745.23	195.07
745.415	231.93
745.6	383.48
745.785	236.03
745.97	377.34
746.155	326.14
746.34	248.32
746.525	299.52
746.71	322.04
746.895	203.26
747.079	209.4
747.264	211.45
747.449	305.66
747.634	369.15
747.819	240.12
748.003	213.5
748.188	197.12
748.373	311.8
748.557	344.57
748.742	219.64
748.927	229.88
749.111	178.69
749.296	233.98
749.481	254.46
749.665	266.75
749.85	211.45
750.034	287.23
750.219	240.12
750.404	205.31
750.588	223.74
750.773	176.64
750.957	258.56
751.141	236.03
751.326	231.93
751.51	242.17
751.695	205.31
751.879	244.22
752.064	403.96
752.248	188.93
752.432	367.1
752.617	233.98
752.801	262.65
752.985	281.08
753.17	260.6
753.354	287.23
753.538	223.74
753.722	158.21
753.907	188.93
754.091	80.38
754.275	268.8
754.459	107.01
754.643	100.86
754.828	276.99
755.012	225.79
755.196	160.25
755.38	193.02
755.564	180.73
755.748	227.84
755.932	231.93
756.116	205.31
756.3	217.6
756.484	190.97
756.668	285.18
756.852	74.24
757.036	182.78
757.22	219.64
757.404	115.2
757.588	201.21
757.772	215.55
757.956	180.73
758.14	272.89
758.323	182.78
758.507	182.78
758.691	100.86
758.875	207.36
759.059	240.12
759.242	113.15
759.426	141.82
759.61	188.93
759.794	209.4
759.977	178.69
760.161	322.04
760.345	242.17
760.528	268.8
760.712	190.97
760.895	199.16
761.079	172.54
761.263	127.49
761.446	104.96
761.63	127.49
761.813	266.75
761.997	158.21
762.18	137.73
762.364	131.58
762.547	29.18
762.731	25.09
762.914	164.35
763.098	47.62
763.281	150.01
763.464	59.9
763.648	88.57
763.831	119.29
764.015	100.86
764.198	184.83
764.381	45.57
764.564	168.45
764.748	121.34
764.931	98.81
765.114	127.49
765.297	164.35
765.481	16.9
765.664	109.05
765.847	139.77
766.03	201.21
766.213	64
766.397	147.97
766.58	41.47
766.763	104.96
766.946	107.01
767.129	102.91
767.312	66.05
767.495	133.63
767.678	-13.82
767.861	31.23
768.044	137.73
768.227	59.9
768.41	100.86
768.593	131.58
768.776	90.62
768.959	64
769.142	137.73
769.324	27.14
769.507	55.81
769.69	18.94
769.873	20.99
770.056	270.84
770.239	109.05
770.421	170.49
770.604	117.25
770.787	84.48
770.97	70.14
771.152	109.05
771.335	147.97
771.518	76.29
771.7	213.5
771.883	209.4
772.066	47.62
772.248	100.86
772.431	158.21
772.613	158.21
772.796	117.25
772.978	143.87
773.161	207.36
773.343	74.24
773.526	-9.73
773.708	-81.41
773.891	31.23
774.073	49.66
774.256	100.86
774.438	184.83
774.621	20.99
774.803	119.29
774.985	39.42
775.168	178.69
775.35	39.42
775.532	150.01
775.715	45.57
775.897	145.92
776.079	66.05
776.261	88.57
776.444	53.76
776.626	57.86
776.808	72.19
776.99	-32.26
777.173	64
777.355	31.23
777.537	107.01
777.719	102.91
777.901	72.19
778.083	-1.54
778.265	-9.73
778.447	64
778.629	14.85
778.811	53.76
778.993	72.19
779.175	96.77
779.357	86.53
779.539	33.28
779.721	98.81
779.903	152.06
780.085	55.81
780.267	41.47
780.449	127.49
780.631	94.72
780.812	178.69
780.994	-7.68
781.176	66.05
781.358	55.81
781.54	70.14
781.721	45.57
781.903	162.3
782.085	49.66
782.267	86.53
782.448	47.62
782.63	-60.93
782.812	41.47
782.993	104.96
783.175	57.86
783.357	41.47
783.538	102.91
783.72	-7.68
783.901	33.28
784.083	158.21
784.264	66.05
784.446	-40.45
784.627	43.52
784.809	123.39
784.99	27.14
785.172	-15.87
785.353	18.94
785.535	41.47
785.716	-46.59
785.897	25.09
786.079	-69.12
786.26	18.94
786.441	115.2
786.623	-93.69
786.804	-91.65
786.985	41.47
787.167	55.81
787.348	6.66
787.529	-9.73
787.71	176.64
787.891	76.29
788.073	-9.73
788.254	-15.87
788.435	121.34
788.616	45.57
788.797	-77.31
788.978	96.77
789.159	23.04
789.34	12.8
789.522	2.56
789.703	20.99
789.884	16.9
790.065	27.14
790.246	150.01
790.427	-19.97
790.607	123.39
790.788	86.53
790.969	-30.21
791.15	33.28
791.331	-50.69
791.512	-38.4
791.693	-19.97
791.874	-81.41
792.054	123.39
792.235	70.14
792.416	-5.63
792.597	-40.45
792.778	8.7
792.958	57.86
793.139	107.01
793.32	64
793.5	4.61
793.681	92.67
793.862	-44.54
794.042	-19.97
794.223	-26.11
794.404	12.8
794.584	-97.79
794.765	4.61
794.945	-24.06
795.126	51.71
795.306	117.25
795.487	20.99
795.667	-28.16
795.848	8.7
796.028	-38.4
796.209	-5.63
796.389	119.29
796.57	-1.54
796.75	-15.87
796.93	-36.35
797.111	-50.69
797.291	25.09
797.471	86.53
797.652	-67.07
797.832	-79.36
798.012	64
798.192	-44.54
798.373	-5.63
798.553	-60.93
798.733	82.43
798.913	-52.74
799.093	31.23
799.274	23.04
799.454	92.67
799.634	145.92
799.814	20.99
799.994	84.48
800.174	43.52
800.354	59.9
800.534	-114.17
800.714	10.75
800.894	-7.68
801.074	-112.13
801.254	-34.3
801.434	117.25
801.614	-54.78
801.794	-58.88
801.974	1845.73
802.154	35.33
802.334	94.72
802.514	-87.55
802.693	-15.87
802.873	-71.17
803.053	156.16
803.233	66.05
803.413	2.56
803.592	-22.02
803.772	-73.21
803.952	-7.68
804.131	-62.98
804.311	-5.63
804.491	150.01
804.67	-79.36
804.85	-85.5
805.03	102.91
805.209	145.92
805.389	-9.73
805.568	-62.98
805.748	-46.59
805.928	47.62
806.107	-1.54
806.287	-19.97
806.466	88.57
806.646	-19.97
806.825	37.38
807.004	-67.07
807.184	20.99
807.363	104.96
807.543	37.38
807.722	-79.36
807.901	-3.58
808.081	55.81
808.26	-173.57
808.439	25.09
808.619	59.9
808.798	-85.5
808.977	31.23
809.156	109.05
809.336	-30.21
809.515	76.29
809.694	0.51
809.873	8.7
810.052	41.47
810.231	-22.02
810.411	-85.5
810.59	70.14
810.769	-22.02
810.948	92.67
811.127	-67.07
811.306	-91.65
811.485	16.9
811.664	59.9
811.843	-22.02
812.022	33.28
812.201	-65.02
812.38	-34.3
812.559	-99.84
812.737	47.62
812.916	-120.32
813.095	-38.4
813.274	18.94
813.453	-91.65
813.632	-5.63
813.811	-7.68
813.989	-67.07
814.168	2.56
814.347	-116.22
814.526	8.7
814.704	29.18
814.883	53.76
815.062	-196.09
815.24	35.33
815.419	-173.57
815.598	55.81
815.776	-103.93
815.955	-79.36
816.133	-85.5
816.312	39.42
816.49	-144.89
816.669	-30.21
816.847	-13.82
817.026	0.51
817.204	-5.63
817.383	-11.78
817.561	-50.69
817.74	-34.3
817.918	49.66
818.097	-34.3
818.275	-30.21
818.453	29.18
818.632	82.43
818.81	-62.98
818.988	-54.78
819.167	-1.54
819.345	-87.55
819.523	-79.36
819.701	-13.82
819.879	23.04
820.058	12.8
820.236	-26.11
820.414	31.23
820.592	-73.21
820.77	-7.68
820.948	-28.16
821.127	-69.12
821.305	6.66
821.483	-42.5
821.661	84.48
821.839	-5.63
822.017	-65.02
822.195	39.42
822.373	150.01
822.551	33.28
822.729	74.24
822.907	-79.36
823.085	35.33
823.262	31.23
823.44	-89.6
823.618	-46.59
823.796	-108.03
823.974	-105.98
824.152	-77.31
824.329	-58.88
824.507	43.52
824.685	10.75
824.863	-1.54
825.04	-65.02
825.218	64
825.396	8.7
825.574	-32.26
825.751	-17.92
825.929	-48.64
826.107	-108.03
826.284	39.42
826.462	82.43
826.639	-120.32
826.817	-81.41
826.994	16.9
827.172	-153.09
827.349	-1.54
827.527	53.76
827.704	-17.92
827.882	29.18
828.059	-24.06
828.237	-91.65
828.414	-17.92
828.591	-89.6
828.769	0.51
828.946	-32.26
829.124	33.28
829.301	68.09
829.478	-62.98
829.655	35.33
829.833	49.66
830.01	-120.32
830.187	16.9
830.364	-130.56
830.542	43.52
830.719	55.81
830.896	-48.64
831.073	-13.82
831.25	35.33
831.427	78.33
831.604	-65.02
831.782	-36.35
831.959	49.66
832.136	-40.45
832.313	-40.45
832.49	-15.87
832.667	16.9
832.844	-42.5
833.021	133.63
833.198	47.62
833.374	-38.4
833.551	57.86
833.728	-7.68
833.905	49.66
834.082	-105.98
834.259	0.51
834.436	102.91
834.612	-5.63
834.789	-17.92
834.966	14.85
835.143	-26.11
835.319	-161.28
835.496	45.57
835.673	-11.78
835.85	123.39
836.026	49.66
836.203	64
836.38	-54.78
836.556	-116.22
836.733	-120.32
836.909	125.44
837.086	-17.92
837.262	-118.27
837.439	-24.06
837.616	-7.68
837.792	-67.07
837.968	39.42
838.145	-83.45
838.321	-44.54
838.498	35.33
838.674	-17.92
838.851	-40.45
839.027	27.14
839.203	-79.36
839.38	33.28
839.556	-11.78
839.732	41.47
839.909	-46.59
840.085	66.05
840.261	-83.45
840.437	-52.74
840.614	-142.85
840.79	31.23
840.966	33.28
841.142	-36.35
841.318	-40.45
841.494	-46.59
841.671	14.85
841.847	-81.41
842.023	-65.02
842.199	-44.54
842.375	80.38
842.551	-120.32
842.727	-93.69
842.903	61.95
843.079	-114.17
843.255	68.09
843.431	2.56
843.607	51.71
843.783	-228.86
843.959	16.9
844.134	-103.93
844.31	139.77
844.486	-60.93
844.662	-110.08
844.838	-11.78
845.013	31.23
845.189	66.05
845.365	45.57
845.541	33.28
845.716	-30.21
845.892	80.38
846.068	-13.82
846.244	-169.47
846.419	8.7
846.595	-67.07
846.77	-122.37
846.946	0.51
847.122	-91.65
847.297	0.51
847.473	-1.54
847.648	-93.69
847.824	-3.58
847.999	-118.27
848.175	-97.79
848.35	74.24
848.526	61.95
848.701	10.75
848.876	66.05
849.052	4.61
849.227	-19.97
849.403	-26.11
849.578	-34.3
849.753	12.8
849.929	-44.54
850.104	-112.13
850.279	-42.5
850.454	20.99
850.63	-3.58
850.805	-122.37
850.98	-44.54
851.155	-101.89
851.33	-24.06
851.505	-112.13
851.681	147.97
851.856	-108.03
852.031	-5.63
852.206	59.9
852.381	-134.65
852.556	-85.5
852.731	-75.26
852.906	14.85
853.081	31.23
853.256	0.51
853.431	-60.93
853.606	-26.11
853.781	-44.54
853.956	-116.22
854.131	-40.45
854.305	-108.03
854.48	-120.32
854.655	-56.83
854.83	-97.79
855.005	-60.93
855.18	45.57
855.354	-34.3
855.529	20.99
855.704	-112.13
855.879	-58.88
856.053	-32.26
856.228	-26.11
856.403	-75.26
856.577	51.71
856.752	-171.52
856.926	25.09
857.101	6.66
857.276	-89.6
857.45	0.51
857.625	20.99
857.799	-38.4
857.974	-26.11
858.148	-140.8
858.323	41.47
858.497	-56.83
858.672	-56.83
858.846	-93.69
859.02	64
859.195	-38.4
859.369	-24.06
859.543	-22.02
859.718	-22.02
859.892	47.62
860.066	-71.17
860.241	-91.65
860.415	-83.45
860.589	6.66
860.763	25.09
860.938	-46.59
861.112	-5.63
861.286	-15.87
861.46	-67.07
861.634	55.81
861.808	14.85
861.982	-87.55
862.157	-130.56
862.331	-140.8
862.505	-99.84
862.679	-77.31
862.853	-79.36
863.027	-13.82
863.201	125.44
863.375	-99.84
863.549	10.75
863.722	-19.97
863.896	90.62
864.07	-95.74
864.244	-13.82
864.418	33.28
864.592	-30.21
864.766	-87.55
864.939	-9.73
865.113	-83.45
865.287	20.99
865.461	-75.26
865.634	12.8
865.808	-50.69
865.982	-71.17
866.156	-97.79
866.329	-161.28
866.503	39.42
866.676	43.52
866.85	-1.54
867.024	-46.59
867.197	59.9
867.371	-87.55
867.544	-15.87
867.718	-122.37
867.891	55.81
868.065	-122.37
868.238	-48.64
868.412	10.75
868.585	-46.59
868.759	-138.75
868.932	-9.73
869.105	-153.09
869.279	-40.45
869.452	-89.6
869.625	10.75
869.799	-17.92
869.972	-138.75
870.145	6.66
870.319	59.9
870.492	-85.5
870.665	-38.4
870.838	-73.21
871.011	-206.33
871.185	4.61
871.358	-69.12
871.531	8.7
871.704	-140.8
871.877	20.99
872.05	-79.36
872.223	-114.17
872.396	-24.06
872.569	-81.41
872.742	-87.55
872.915	-5.63
873.088	-3.58
873.261	-110.08
873.434	-1.54
873.607	-7.68
873.78	72.19
873.953	-69.12
874.126	47.62
874.299	49.66
874.471	18.94
874.644	-124.41
874.817	-50.69
874.99	88.57
875.163	-56.83
875.335	27.14
875.508	-9.73
875.681	113.15
875.853	-9.73
876.026	-9.73
876.199	14.85
876.371	-71.17
876.544	-46.59
876.717	72.19
876.889	-128.51
877.062	-7.68
877.234	-153.09
877.407	45.57
877.579	-67.07
877.752	-42.5
877.924	64
878.097	-22.02
878.269	-87.55
878.442	-54.78
878.614	-62.98
878.786	53.76
878.959	-48.64
879.131	-15.87
879.303	-116.22
879.476	-30.21
879.648	49.66
879.82	-40.45
879.993	-11.78
880.165	-44.54
880.337	-140.8
880.509	53.76
880.681	-114.17
880.854	-159.23
881.026	35.33
881.198	-5.63
881.37	-54.78
881.542	-60.93
881.714	-65.02
881.886	12.8
882.058	18.94
882.23	-17.92
882.402	-65.02
882.574	-50.69
882.746	31.23
882.918	121.34
883.09	-28.16
883.262	-62.98
883.434	-46.59
883.606	-171.52
883.778	-71.17
883.95	166.4
884.122	-112.13
884.293	-58.88
884.465	33.28
884.637	25.09
884.809	-101.89
884.98	53.76
885.152	29.18
885.324	35.33
885.496	-89.6
885.667	-124.41
885.839	-52.74
886.011	29.18
886.182	41.47
886.354	74.24
886.525	-60.93
886.697	16.9
886.869	-62.98
887.04	-114.17
887.212	23.04
887.383	35.33
887.555	37.38
887.726	-124.41
887.897	-60.93
888.069	-32.26
888.24	74.24
888.412	-54.78
888.583	-38.4
888.754	-7.68
888.926	-218.62
889.097	-58.88
889.268	-108.03
889.44	47.62
889.611	-144.89
889.782	-95.74
889.953	-56.83
890.125	51.71
890.296	-108.03
890.467	-140.8
890.638	-58.88
890.809	-34.3
890.98	-83.45
891.151	-77.31
891.323	98.81
891.494	-3.58
891.665	-60.93
891.836	-122.37
892.007	-9.73
892.178	2.56
892.349	-75.26
892.52	-130.56
892.691	-3.58
892.862	-128.51
893.032	-153.09
893.203	-87.55
893.374	-54.78
893.545	12.8
893.716	-62.98
893.887	0.51
894.057	-40.45
894.228	-124.41
894.399	-67.07
894.57	53.76
894.74	-44.54
894.911	27.14
895.082	53.76
895.253	-93.69
895.423	-40.45
895.594	39.42
895.764	-15.87
895.935	-81.41
896.106	6.66
896.276	-163.33
896.447	-54.78
896.617	-79.36
896.788	-44.54
896.958	-132.61
897.129	-73.21
897.299	-17.92
897.47	88.57
897.64	98.81
897.81	-9.73
897.981	-38.4
898.151	-110.08
898.322	-26.11
898.492	-81.41
898.662	-108.03
898.832	-11.78
899.003	-38.4
899.173	8.7
899.343	-77.31
899.513	-48.64
