Data from USB4F104151__105__10-35-50-726.txt Node

Date: Wed Feb 26 10:35:50 EST 2025
User: louis
Spectrometer: USB4F10415
Trigger mode: 4
Integration Time (sec): 1.000000E-1
Scans to average: 1
Electric dark correction enabled: true
Nonlinearity correction enabled: false
Boxcar width: 0
XAxis mode: Wavelengths
Number of Pixels in Spectrum: 3648
>>>>>Begin Spectral Data<<<<<
178.204	-435.36
178.424	-435.36
178.644	-435.36
178.864	-392.36
179.084	-394.4
179.304	9.05
179.524	-44.2
179.744	-31.91
179.964	58.2
180.184	4.95
180.404	-11.43
180.624	-33.96
180.844	60.24
181.064	-117.93
181.283	33.62
181.503	15.19
181.723	58.2
181.943	-54.44
182.163	191.31
182.383	-13.48
182.602	99.16
182.822	54.1
183.042	50
183.262	15.19
183.482	-25.77
183.701	-56.49
183.921	72.53
184.141	-85.16
184.361	84.82
184.58	86.87
184.8	21.33
185.02	72.53
185.239	37.72
185.459	86.87
185.679	113.49
185.898	-113.83
186.118	37.72
186.338	62.29
186.557	103.25
186.777	-7.34
186.997	4.95
187.216	21.33
187.436	144.21
187.655	129.88
187.875	150.36
188.095	43.86
188.314	123.73
188.534	125.78
188.753	-66.73
188.973	105.3
189.192	127.83
189.412	-27.82
189.631	50
189.851	58.2
190.07	148.31
190.29	21.33
190.509	-40.11
190.729	45.91
190.948	150.36
191.168	238.42
191.387	47.96
191.607	-31.91
191.826	56.15
192.045	-19.63
192.265	15.19
192.484	82.77
192.704	64.34
192.923	-33.96
193.142	183.12
193.362	115.54
193.581	64.34
193.8	54.1
194.02	99.16
194.239	37.72
194.458	226.13
194.678	-3.24
194.897	7
195.116	54.1
195.335	82.77
195.555	66.39
195.774	17.24
195.993	97.11
196.212	23.38
196.432	52.05
196.651	-60.59
196.87	41.81
197.089	213.84
197.308	27.48
197.528	88.92
197.747	-81.07
197.966	58.2
198.185	29.52
198.404	-58.54
198.623	70.48
198.842	205.65
199.062	21.33
199.281	113.49
199.5	-5.29
199.719	86.87
199.938	125.78
200.157	56.15
200.376	121.68
200.595	156.5
200.814	78.68
201.033	47.96
201.252	133.97
201.471	41.81
201.69	31.57
201.909	74.58
202.128	82.77
202.347	39.76
202.566	-23.72
202.785	-27.82
203.004	-19.63
203.223	226.13
203.442	78.68
203.661	-44.2
203.879	99.16
204.098	99.16
204.317	33.62
204.536	103.25
204.755	4.95
204.974	164.69
205.193	72.53
205.411	133.97
205.63	54.1
205.849	56.15
206.068	-17.58
206.287	15.19
206.505	164.69
206.724	0.85
206.943	88.92
207.162	-50.35
207.381	95.06
207.599	21.33
207.818	131.92
208.037	29.52
208.255	123.73
208.474	4.95
208.693	15.19
208.911	27.48
209.13	88.92
209.349	64.34
209.567	152.4
209.786	160.59
210.005	70.48
210.223	50
210.442	-107.69
210.661	52.05
210.879	74.58
211.098	31.57
211.316	47.96
211.535	131.92
211.753	33.62
211.972	33.62
212.191	39.76
212.409	25.43
212.628	197.46
212.846	-15.53
213.065	78.68
213.283	121.68
213.502	2.9
213.72	97.11
213.938	-27.82
214.157	60.24
214.375	156.5
214.594	9.05
214.812	76.63
215.031	103.25
215.249	111.44
215.467	9.05
215.686	56.15
215.904	39.76
216.122	117.59
216.341	203.6
216.559	35.67
216.778	138.07
216.996	138.07
217.214	-1.19
217.432	9.05
217.651	-38.06
217.869	15.19
218.087	80.72
218.306	13.14
218.524	31.57
218.742	-3.24
218.96	70.48
219.179	9.05
219.397	84.82
219.615	170.83
219.833	66.39
220.051	2.9
220.27	140.12
220.488	125.78
220.706	29.52
220.924	-5.29
221.142	13.14
221.36	90.96
221.578	84.82
221.796	21.33
222.015	19.29
222.233	-9.39
222.451	191.31
222.669	-85.16
222.887	181.07
223.105	58.2
223.323	-27.82
223.541	13.14
223.759	78.68
223.977	97.11
224.195	185.17
224.413	105.3
224.631	136.02
224.849	105.3
225.067	275.28
225.285	-17.58
225.503	27.48
225.721	-109.74
225.939	70.48
226.157	72.53
226.375	234.32
226.592	-48.3
226.81	-9.39
227.028	95.06
227.246	101.2
227.464	72.53
227.682	117.59
227.9	37.72
228.117	82.77
228.335	31.57
228.553	-15.53
228.771	-21.67
228.989	119.64
229.206	84.82
229.424	72.53
229.642	-56.49
229.86	-76.97
230.077	86.87
230.295	15.19
230.513	133.97
230.731	70.48
230.948	170.83
231.166	152.4
231.384	-25.77
231.601	-52.39
231.819	133.97
232.037	11.09
232.254	2.9
232.472	27.48
232.689	68.44
232.907	78.68
233.125	47.96
233.342	-68.78
233.56	58.2
233.777	-13.48
233.995	56.15
234.213	140.12
234.43	93.01
234.648	58.2
234.865	35.67
235.083	164.69
235.3	60.24
235.518	80.72
235.735	176.98
235.953	129.88
236.17	47.96
236.388	23.38
236.605	105.3
236.822	123.73
237.04	70.48
237.257	64.34
237.475	0.85
237.692	56.15
237.909	136.02
238.127	11.09
238.344	66.39
238.562	41.81
238.779	2.9
238.996	-52.39
239.214	93.01
239.431	90.96
239.648	35.67
239.865	123.73
240.083	93.01
240.3	7
240.517	-19.63
240.735	-17.58
240.952	162.64
241.169	86.87
241.386	133.97
241.603	-21.67
241.821	15.19
242.038	115.54
242.255	158.55
242.472	35.67
242.689	123.73
242.907	86.87
243.124	99.16
243.341	-1.19
243.558	29.52
243.775	-31.91
243.992	-66.73
244.209	146.26
244.426	133.97
244.643	111.44
244.86	93.01
245.078	115.54
245.295	101.2
245.512	86.87
245.729	-27.82
245.946	168.79
246.163	70.48
246.38	-15.53
246.597	162.64
246.814	2.9
247.031	70.48
247.248	47.96
247.464	138.07
247.681	52.05
247.898	4.95
248.115	95.06
248.332	70.48
248.549	117.59
248.766	127.83
248.983	131.92
249.2	54.1
249.417	136.02
249.633	2.9
249.85	107.35
250.067	-11.43
250.284	-3.24
250.501	70.48
250.717	35.67
250.934	45.91
251.151	27.48
251.368	72.53
251.585	45.91
251.801	99.16
252.018	-36.01
252.235	84.82
252.451	-87.21
252.668	27.48
252.885	109.4
253.102	152.4
253.318	15.19
253.535	25.43
253.752	41.81
253.968	47.96
254.185	-58.54
254.401	62.29
254.618	90.96
254.835	29.52
255.051	170.83
255.268	115.54
255.484	111.44
255.701	43.86
255.917	164.69
256.134	9.05
256.351	4.95
256.567	-1.19
256.784	13.14
257	-74.92
257.217	90.96
257.433	45.91
257.65	58.2
257.866	95.06
258.082	-91.31
258.299	-50.35
258.515	97.11
258.732	-31.91
258.948	21.33
259.165	52.05
259.381	-15.53
259.597	88.92
259.814	33.62
260.03	35.67
260.246	7
260.463	242.51
260.679	131.92
260.895	50
261.112	66.39
261.328	64.34
261.544	-31.91
261.761	170.83
261.977	41.81
262.193	-29.87
262.409	142.16
262.626	39.76
262.842	0.85
263.058	29.52
263.274	105.3
263.49	70.48
263.707	41.81
263.923	144.21
264.139	-76.97
264.355	13.14
264.571	58.2
264.787	66.39
265.004	162.64
265.22	-15.53
265.436	-56.49
265.652	45.91
265.868	90.96
266.084	9.05
266.3	23.38
266.516	-31.91
266.732	31.57
266.948	39.76
267.164	-13.48
267.38	109.4
267.596	93.01
267.812	199.51
268.028	52.05
268.244	23.38
268.46	103.25
268.676	15.19
268.892	115.54
269.108	15.19
269.324	-19.63
269.54	-3.24
269.756	90.96
269.972	-56.49
270.188	23.38
270.403	-15.53
270.619	-7.34
270.835	15.19
271.051	-21.67
271.267	86.87
271.483	70.48
271.698	181.07
271.914	97.11
272.13	39.76
272.346	80.72
272.562	109.4
272.777	195.41
272.993	-48.3
273.209	-19.63
273.425	52.05
273.64	-44.2
273.856	133.97
274.072	-15.53
274.287	-44.2
274.503	101.2
274.719	107.35
274.934	-25.77
275.15	-11.43
275.366	41.81
275.581	15.19
275.797	27.48
276.012	29.52
276.228	-74.92
276.444	21.33
276.659	166.74
276.875	-42.15
277.09	47.96
277.306	19.29
277.521	66.39
277.737	93.01
277.952	101.2
278.168	82.77
278.383	86.87
278.599	25.43
278.814	74.58
279.03	45.91
279.245	222.03
279.461	56.15
279.676	97.11
279.892	-40.11
280.107	70.48
280.322	-27.82
280.538	45.91
280.753	72.53
280.969	131.92
281.184	13.14
281.399	209.75
281.615	-11.43
281.83	107.35
282.045	-89.26
282.26	-11.43
282.476	19.29
282.691	33.62
282.906	107.35
283.122	66.39
283.337	-74.92
283.552	33.62
283.767	-9.39
283.983	84.82
284.198	-27.82
284.413	127.83
284.628	-3.24
284.843	80.72
285.058	125.78
285.274	19.29
285.489	70.48
285.704	103.25
285.919	-42.15
286.134	37.72
286.349	41.81
286.564	-74.92
286.779	93.01
286.995	47.96
287.21	-9.39
287.425	142.16
287.64	-64.68
287.855	47.96
288.07	-48.3
288.285	205.65
288.5	68.44
288.715	29.52
288.93	41.81
289.145	88.92
289.36	90.96
289.575	-33.96
289.79	117.59
290.004	-29.87
290.219	125.78
290.434	19.29
290.649	-79.02
290.864	25.43
291.079	84.82
291.294	60.24
291.509	66.39
291.724	56.15
291.938	-5.29
292.153	47.96
292.368	82.77
292.583	103.25
292.798	97.11
293.012	-38.06
293.227	19.29
293.442	-27.82
293.657	90.96
293.871	90.96
294.086	29.52
294.301	244.56
294.516	129.88
294.73	78.68
294.945	13.14
295.16	4.95
295.374	111.44
295.589	68.44
295.804	-36.01
296.018	66.39
296.233	127.83
296.447	21.33
296.662	39.76
296.877	80.72
297.091	70.48
297.306	23.38
297.52	45.91
297.735	88.92
297.949	62.29
298.164	72.53
298.378	121.68
298.593	27.48
298.807	-52.39
299.022	25.43
299.236	119.64
299.451	39.76
299.665	-13.48
299.88	29.52
300.094	62.29
300.309	0.85
300.523	105.3
300.737	-3.24
300.952	88.92
301.166	74.58
301.381	-56.49
301.595	31.57
301.809	41.81
302.024	7
302.238	9.05
302.452	138.07
302.667	35.67
302.881	66.39
303.095	88.92
303.309	76.63
303.524	60.24
303.738	90.96
303.952	17.24
304.166	54.1
304.381	-130.22
304.595	140.12
304.809	2.9
305.023	19.29
305.237	-31.91
305.452	17.24
305.666	133.97
305.88	93.01
306.094	136.02
306.308	33.62
306.522	99.16
306.736	56.15
306.95	127.83
307.164	9.05
307.379	33.62
307.593	72.53
307.807	117.59
308.021	82.77
308.235	101.2
308.449	2.9
308.663	37.72
308.877	152.4
309.091	58.2
309.305	27.48
309.519	-144.55
309.733	131.92
309.947	-44.2
310.161	105.3
310.374	99.16
310.588	148.31
310.802	-33.96
311.016	9.05
311.23	60.24
311.444	33.62
311.658	27.48
311.872	183.12
312.085	152.4
312.299	121.68
312.513	99.16
312.727	58.2
312.941	-13.48
313.154	47.96
313.368	80.72
313.582	39.76
313.796	123.73
314.009	23.38
314.223	150.36
314.437	68.44
314.651	105.3
314.864	-66.73
315.078	0.85
315.292	-76.97
315.505	45.91
315.719	156.5
315.933	78.68
316.146	19.29
316.36	-13.48
316.573	109.4
316.787	101.2
317.001	27.48
317.214	-40.11
317.428	56.15
317.641	7
317.855	19.29
318.068	13.14
318.282	17.24
318.495	156.5
318.709	150.36
318.922	23.38
319.136	242.51
319.349	68.44
319.563	7
319.776	76.63
319.99	50
320.203	168.79
320.417	45.91
320.63	45.91
320.843	228.18
321.057	54.1
321.27	-9.39
321.483	70.48
321.697	129.88
321.91	66.39
322.124	99.16
322.337	109.4
322.55	9.05
322.763	-11.43
322.977	-9.39
323.19	-15.53
323.403	23.38
323.617	9.05
323.83	125.78
324.043	39.76
324.256	43.86
324.469	21.33
324.683	127.83
324.896	31.57
325.109	123.73
325.322	-85.16
325.535	52.05
325.748	201.55
325.962	43.86
326.175	43.86
326.388	82.77
326.601	148.31
326.814	-46.25
327.027	107.35
327.24	142.16
327.453	-64.68
327.666	76.63
327.879	113.49
328.092	58.2
328.305	95.06
328.518	11.09
328.731	27.48
328.944	27.48
329.157	117.59
329.37	-36.01
329.583	179.03
329.796	101.2
330.009	33.62
330.222	62.29
330.435	-13.48
330.648	109.4
330.861	45.91
331.073	31.57
331.286	158.55
331.499	47.96
331.712	29.52
331.925	70.48
332.138	31.57
332.35	105.3
332.563	35.67
332.776	136.02
332.989	62.29
333.202	23.38
333.414	56.15
333.627	56.15
333.84	93.01
334.053	39.76
334.265	11.09
334.478	97.11
334.691	56.15
334.903	33.62
335.116	45.91
335.329	9.05
335.541	0.85
335.754	179.03
335.966	0.85
336.179	0.85
336.392	47.96
336.604	45.91
336.817	172.88
337.029	41.81
337.242	43.86
337.454	121.68
337.667	-15.53
337.88	95.06
338.092	74.58
338.305	93.01
338.517	25.43
338.729	54.1
338.942	203.6
339.154	-48.3
339.367	-54.44
339.579	17.24
339.792	-29.87
340.004	56.15
340.217	21.33
340.429	35.67
340.641	11.09
340.854	-56.49
341.066	13.14
341.278	140.12
341.491	144.21
341.703	25.43
341.915	-1.19
342.128	117.59
342.34	138.07
342.552	-87.21
342.764	4.95
342.977	21.33
343.189	144.21
343.401	88.92
343.613	-23.72
343.826	70.48
344.038	43.86
344.25	113.49
344.462	82.77
344.674	66.39
344.886	74.58
345.099	72.53
345.311	64.34
345.523	-3.24
345.735	-36.01
345.947	68.44
346.159	11.09
346.371	25.43
346.583	62.29
346.795	160.59
347.007	64.34
347.219	82.77
347.431	-23.72
347.643	90.96
347.855	-7.34
348.067	152.4
348.279	4.95
348.491	0.85
348.703	107.35
348.915	27.48
349.127	-46.25
349.339	250.71
349.551	35.67
349.763	119.64
349.975	64.34
350.187	148.31
350.399	154.45
350.61	82.77
350.822	11.09
351.034	60.24
351.246	35.67
351.458	-27.82
351.669	170.83
351.881	105.3
352.093	113.49
352.305	99.16
352.517	31.57
352.728	164.69
352.94	74.58
353.152	72.53
353.363	-38.06
353.575	133.97
353.787	125.78
353.999	117.59
354.21	195.41
354.422	39.76
354.633	-23.72
354.845	31.57
355.057	13.14
355.268	68.44
355.48	45.91
355.692	-9.39
355.903	97.11
356.115	-27.82
356.326	35.67
356.538	191.31
356.749	133.97
356.961	181.07
357.172	17.24
357.384	7
357.595	299.86
357.807	-40.11
358.018	37.72
358.23	43.86
358.441	117.59
358.653	78.68
358.864	99.16
359.075	17.24
359.287	62.29
359.498	150.36
359.709	90.96
359.921	119.64
360.132	29.52
360.344	-1.19
360.555	-25.77
360.766	-3.24
360.977	62.29
361.189	142.16
361.4	45.91
361.611	129.88
361.823	148.31
362.034	19.29
362.245	-85.16
362.456	72.53
362.667	90.96
362.879	-42.15
363.09	35.67
363.301	45.91
363.512	101.2
363.723	74.58
363.935	62.29
364.146	58.2
364.357	37.72
364.568	70.48
364.779	9.05
364.99	119.64
365.201	37.72
365.412	181.07
365.623	-27.82
365.834	80.72
366.045	45.91
366.256	86.87
366.467	66.39
366.678	19.29
366.889	27.48
367.1	41.81
367.311	152.4
367.522	-3.24
367.733	150.36
367.944	27.48
368.155	15.19
368.366	107.35
368.577	176.98
368.788	121.68
368.999	50
369.209	80.72
369.42	195.41
369.631	189.27
369.842	133.97
370.053	-21.67
370.264	60.24
370.474	-9.39
370.685	62.29
370.896	-11.43
371.107	62.29
371.317	64.34
371.528	33.62
371.739	179.03
371.95	119.64
372.16	25.43
372.371	19.29
372.582	-11.43
372.792	68.44
373.003	29.52
373.214	74.58
373.424	41.81
373.635	-36.01
373.846	146.26
374.056	68.44
374.267	66.39
374.477	29.52
374.688	97.11
374.898	127.83
375.109	127.83
375.319	52.05
375.53	101.2
375.74	113.49
375.951	-3.24
376.161	43.86
376.372	123.73
376.582	11.09
376.793	119.64
377.003	4.95
377.214	52.05
377.424	123.73
377.635	136.02
377.845	27.48
378.055	123.73
378.266	13.14
378.476	21.33
378.686	131.92
378.897	82.77
379.107	133.97
379.317	43.86
379.528	-36.01
379.738	152.4
379.948	-50.35
380.158	47.96
380.369	33.62
380.579	9.05
380.789	29.52
380.999	109.4
381.21	109.4
381.42	215.89
381.63	-27.82
381.84	62.29
382.05	76.63
382.261	78.68
382.471	187.22
382.681	56.15
382.891	262.99
383.101	35.67
383.311	-50.35
383.521	31.57
383.731	95.06
383.941	189.27
384.151	15.19
384.361	17.24
384.571	45.91
384.781	88.92
384.991	136.02
385.201	183.12
385.411	150.36
385.621	52.05
385.831	78.68
386.041	90.96
386.251	66.39
386.461	129.88
386.671	19.29
386.881	54.1
387.091	31.57
387.301	119.64
387.511	19.29
387.72	115.54
387.93	105.3
388.14	-66.73
388.35	4.95
388.56	88.92
388.769	56.15
388.979	17.24
389.189	-23.72
389.399	-11.43
389.609	99.16
389.818	136.02
390.028	52.05
390.238	113.49
390.447	-23.72
390.657	93.01
390.867	33.62
391.076	-46.25
391.286	39.76
391.496	7
391.705	88.92
391.915	101.2
392.125	129.88
392.334	-40.11
392.544	179.03
392.753	64.34
392.963	-83.11
393.172	50
393.382	37.72
393.591	111.44
393.801	76.63
394.01	152.4
394.22	111.44
394.429	58.2
394.639	29.52
394.848	103.25
395.058	103.25
395.267	-29.87
395.477	131.92
395.686	54.1
395.895	230.23
396.105	193.36
396.314	56.15
396.524	146.26
396.733	68.44
396.942	138.07
397.152	107.35
397.361	176.98
397.57	39.76
397.78	29.52
397.989	142.16
398.198	195.41
398.407	52.05
398.617	0.85
398.826	4.95
399.035	-29.87
399.244	111.44
399.453	41.81
399.663	117.59
399.872	54.1
400.081	-79.02
400.29	74.58
400.499	23.38
400.708	107.35
400.917	105.3
401.127	54.1
401.336	0.85
401.545	226.13
401.754	95.06
401.963	107.35
402.172	-17.58
402.381	-25.77
402.59	13.14
402.799	64.34
403.008	15.19
403.217	88.92
403.426	41.81
403.635	-25.77
403.844	41.81
404.053	2.9
404.262	7
404.471	166.74
404.68	29.52
404.888	50
405.097	50
405.306	50
405.515	144.21
405.724	72.53
405.933	162.64
406.142	144.21
406.35	160.59
406.559	117.59
406.768	50
406.977	211.79
407.185	127.83
407.394	86.87
407.603	54.1
407.812	90.96
408.02	74.58
408.229	86.87
408.438	21.33
408.646	29.52
408.855	27.48
409.064	121.68
409.272	68.44
409.481	111.44
409.69	-13.48
409.898	-91.31
410.107	78.68
410.315	123.73
410.524	-56.49
410.733	160.59
410.941	105.3
411.15	136.02
411.358	50
411.567	191.31
411.775	113.49
411.984	76.63
412.192	115.54
412.401	0.85
412.609	193.36
412.818	236.37
413.026	105.3
413.234	54.1
413.443	56.15
413.651	21.33
413.86	37.72
414.068	121.68
414.276	136.02
414.485	-11.43
414.693	127.83
414.901	195.41
415.11	9.05
415.318	72.53
415.526	72.53
415.734	88.92
415.943	156.5
416.151	162.64
416.359	64.34
416.567	62.29
416.776	144.21
416.984	99.16
417.192	131.92
417.4	64.34
417.608	58.2
417.817	31.57
418.025	140.12
418.233	99.16
418.441	9.05
418.649	-46.25
418.857	76.63
419.065	103.25
419.273	88.92
419.481	133.97
419.689	117.59
419.897	-11.43
420.105	21.33
420.313	179.03
420.521	166.74
420.729	129.88
420.937	88.92
421.145	-25.77
421.353	7
421.561	209.75
421.769	95.06
421.977	80.72
422.185	105.3
422.393	58.2
422.601	95.06
422.809	131.92
423.017	43.86
423.224	80.72
423.432	142.16
423.64	4.95
423.848	84.82
424.056	0.85
424.263	168.79
424.471	121.68
424.679	207.7
424.887	2.9
425.094	258.9
425.302	74.58
425.51	144.21
425.718	52.05
425.925	115.54
426.133	33.62
426.341	248.66
426.548	33.62
426.756	117.59
426.964	93.01
427.171	62.29
427.379	84.82
427.586	23.38
427.794	117.59
428.001	121.68
428.209	33.62
428.417	189.27
428.624	170.83
428.832	172.88
429.039	166.74
429.247	123.73
429.454	123.73
429.662	279.38
429.869	111.44
430.076	230.23
430.284	146.26
430.491	201.55
430.699	97.11
430.906	172.88
431.114	162.64
431.321	144.21
431.528	131.92
431.736	158.55
431.943	183.12
432.15	121.68
432.358	222.03
432.565	271.19
432.772	54.1
432.979	213.84
433.187	93.01
433.394	299.86
433.601	86.87
433.808	215.89
434.016	291.66
434.223	189.27
434.43	207.7
434.637	297.81
434.844	275.28
435.052	246.61
435.259	262.99
435.466	299.86
435.673	279.38
435.88	310.1
436.087	310.1
436.294	291.66
436.501	346.96
436.708	279.38
436.915	271.19
437.122	342.86
437.329	199.51
437.537	346.96
437.743	316.24
437.95	451.41
438.157	396.11
438.364	381.78
438.571	295.76
438.778	441.17
438.985	516.94
439.192	486.22
439.399	394.06
439.606	484.17
439.813	449.36
440.02	529.23
440.227	609.1
440.433	543.57
440.64	555.85
440.847	484.17
441.054	547.66
441.261	674.64
441.467	645.96
441.674	607.05
441.881	713.55
442.088	596.81
442.294	717.64
442.501	824.14
442.708	756.55
442.914	779.08
443.121	873.29
443.328	774.99
443.534	922.44
443.741	910.15
443.948	832.33
444.154	963.4
444.361	1186.63
444.568	985.93
444.774	1014.6
444.981	936.78
445.187	1121.09
445.394	1129.28
445.6	1256.26
445.807	1215.3
446.013	1313.6
446.22	1211.2
446.426	1366.85
446.633	1506.11
446.839	1669.95
447.046	1416
447.252	1641.28
447.459	1645.37
447.665	1639.23
447.871	1813.31
448.078	1925.94
448.284	1850.17
448.491	2018.1
448.697	2030.39
448.903	2130.74
449.11	2116.41
449.316	2083.64
449.522	2313.01
449.728	2452.27
449.935	2556.72
450.141	2544.43
450.347	2773.8
450.553	2646.83
450.76	2810.67
450.966	3017.51
451.172	2886.44
451.378	3091.24
451.584	3199.78
451.791	3373.86
451.997	3492.64
452.203	3613.47
452.409	3666.72
452.615	3873.56
452.821	3631.9
453.027	3783.45
453.233	4217.62
453.44	4281.11
453.646	4326.16
453.852	4664.08
454.058	4678.41
454.264	4915.98
454.47	5085.96
454.676	5221.13
454.882	5602.05
455.088	5432.07
455.294	5753.6
455.5	6243.06
455.705	6488.82
455.911	6476.53
456.117	6679.28
456.323	7043.82
456.529	6927.08
456.735	7475.94
456.941	7613.15
457.147	8080.09
457.352	8231.64
457.558	8354.52
457.764	8837.84
457.97	9210.57
458.176	9523.91
458.381	10144.44
458.587	10017.47
458.793	10666.67
458.999	10699.44
459.204	12018.33
459.41	12563.09
459.616	12325.53
459.821	13009.55
460.027	13716.1
460.233	14160.51
460.438	14301.82
460.644	15075.95
460.85	15299.18
461.055	15802.98
461.261	16415.32
461.466	16208.48
461.672	16407.13
461.878	18668.09
462.083	18326.08
462.289	18539.07
462.494	19583.53
462.7	19442.22
462.905	19868.2
463.111	21426.7
463.316	22227.46
463.522	22706.68
463.727	23421.42
463.932	24355.3
464.138	25164.25
464.343	26323.4
464.549	26360.26
464.754	28475.81
464.959	28961.18
465.165	29612.43
465.37	29157.78
465.575	28973.47
465.781	31312.25
465.986	32278.89
466.191	31625.59
466.397	32444.77
466.602	31248.76
466.807	32618.85
467.012	33347.93
467.218	34132.3
467.423	34468.17
467.628	35051.84
467.833	36952.35
468.038	36190.51
468.244	35428.66
468.449	37308.7
468.654	36385.07
468.859	36913.44
469.064	36804.9
469.269	35768.63
469.474	35973.42
469.679	37341.47
469.885	35944.75
470.09	36452.65
470.295	36499.75
470.5	35930.42
470.705	36071.73
470.91	35037.5
471.115	35019.07
471.32	35148.09
471.525	34804.03
471.73	33728.85
471.935	33421.66
472.139	32715.11
472.344	32852.32
472.549	32285.03
472.754	31603.06
472.959	30865.79
473.164	30132.62
473.369	29606.29
473.574	30427.53
473.778	29618.58
473.983	29270.42
474.188	28737.95
474.393	27165.11
474.598	27382.2
474.802	26720.7
475.007	26286.53
475.212	25960.91
475.417	25076.18
475.621	25162.2
475.826	24363.49
476.031	24181.22
476.235	23364.08
476.44	23615.98
476.645	22929.91
476.849	22540.8
477.054	22403.58
477.259	21740.04
477.463	21660.17
477.668	20974.1
477.872	20832.79
478.077	20396.57
478.282	19929.64
478.486	19710.5
478.691	19454.51
478.895	19489.32
479.1	19294.77
479.304	19573.29
479.509	18416.19
479.713	18831.93
479.918	18412.09
480.122	18027.07
480.326	17998.4
480.531	18162.24
480.735	17904.2
480.94	17529.42
481.144	18063.94
481.348	17320.53
481.553	17513.03
481.757	16476.76
481.961	16757.33
482.166	17005.14
482.37	16796.25
482.574	16515.67
482.778	16413.27
482.983	16773.72
483.187	16231.01
483.391	16202.33
483.595	15735.4
483.8	15977.06
484.004	15729.25
484.208	15633
484.412	15477.35
484.616	15368.81
484.821	15278.7
485.025	14865.01
485.229	14826.1
485.433	14473.85
485.637	14424.7
485.841	14267
486.045	13877.89
486.249	13947.52
486.453	13679.24
486.657	13658.76
486.861	13427.34
487.065	13021.84
487.269	12974.74
487.473	12343.96
487.677	12554.9
487.881	12399.26
488.085	12214.94
488.289	12071.58
488.493	11600.55
488.697	11737.76
488.901	11147.95
489.105	11096.75
489.309	11090.6
489.512	10740.4
489.716	10697.39
489.92	10291.9
490.124	10265.27
490.328	10394.29
490.531	9822.91
490.735	9743.04
490.939	9485
491.143	9390.79
491.346	9138.89
491.55	9243.34
491.754	8813.26
491.958	8872.65
492.161	8768.21
492.365	8434.39
492.569	8288.98
492.772	8413.91
492.976	8184.54
493.18	8026.84
493.383	8108.76
493.587	7955.16
493.79	7846.62
493.994	7836.38
494.197	7725.79
494.401	7586.53
494.605	7295.72
494.808	7666.4
495.012	7437.03
495.215	7369.44
495.419	7389.92
495.622	6980.33
495.825	7232.23
496.029	7156.46
496.232	7043.82
496.436	7178.98
496.639	7299.81
496.843	7129.83
497.046	7174.89
497.249	7230.18
497.453	7189.22
497.656	7123.69
497.859	7068.39
498.063	7308.01
498.266	7279.33
498.469	7185.13
498.673	7199.46
498.876	7144.17
499.079	7254.76
499.282	7271.14
499.485	7656.16
499.689	7256.81
499.892	7551.71
500.095	7461.6
500.298	7697.12
500.501	7305.96
500.705	7504.61
500.908	7621.35
501.111	7678.69
501.314	7807.71
501.517	8051.42
501.72	8067.8
501.923	7879.39
502.126	8061.66
502.329	8288.98
502.532	8360.66
502.735	8583.89
502.938	8563.41
503.141	8694.48
503.344	8594.13
503.547	9024.2
503.75	8850.13
503.953	9181.9
504.156	9011.92
504.359	9503.43
504.562	9597.63
504.765	9632.45
504.968	9716.42
505.17	9919.17
505.373	9996.99
505.576	10318.52
505.779	10414.77
505.982	10527.41
506.185	10681.01
506.387	10865.33
506.59	10904.24
506.793	11297.45
506.996	11291.31
507.198	11829.92
507.401	11924.13
507.604	12073.63
507.807	12339.87
508.009	12556.95
508.212	12966.54
508.415	12858
508.617	13447.82
508.82	13306.51
509.022	13791.87
509.225	14150.27
509.428	14402.17
509.63	14561.91
509.833	14637.69
510.035	15475.31
510.238	15491.69
510.44	15807.08
510.643	16360.03
510.845	16937.55
511.048	16935.51
511.25	17408.59
511.453	17601.1
511.655	18532.92
511.858	18793.01
512.06	19198.51
512.262	19352.11
512.465	19581.48
512.667	20423.2
512.87	20740.63
513.072	21107.22
513.274	21701.13
513.477	22120.96
513.679	22700.54
513.881	22923.77
514.084	23654.89
514.286	24031.72
514.488	24488.42
514.69	25186.77
514.893	25592.27
515.095	26333.64
515.297	27150.78
515.499	27236.79
515.701	27736.49
515.904	28297.64
516.106	28993.95
516.308	29440.4
516.51	30290.31
516.712	30534.02
516.914	31553.91
517.116	32246.12
517.318	32680.29
517.52	32831.84
517.722	33452.37
517.925	34498.89
518.127	34509.13
518.329	35502.39
518.531	36055.34
518.733	36956.45
518.935	37247.26
519.136	38005.01
519.338	38670.6
519.54	39106.82
519.742	39618.81
519.944	39756.02
520.146	41224.42
520.348	41253.09
520.55	42016.98
520.752	42326.22
520.954	43034.82
521.155	43182.27
521.357	43878.58
521.559	44429.49
521.761	45115.56
521.963	45009.06
522.164	45754.52
522.366	46084.25
522.568	46276.76
522.77	46876.81
522.971	47374.47
523.173	47026.31
523.375	47863.93
523.576	47751.29
523.778	48142.45
523.98	48191.61
524.181	48871.53
524.383	48789.61
524.584	49535.07
524.786	49090.66
524.988	49125.48
525.189	49477.73
525.391	49725.53
525.592	49563.75
525.794	49442.91
525.995	49055.85
526.197	49287.27
526.398	49225.83
526.6	49553.51
526.801	49428.58
527.003	49070.18
527.204	48855.15
527.406	49166.44
527.607	48595.06
527.808	48920.68
528.01	47480.96
528.211	47880.31
528.412	48703.6
528.614	47818.88
528.815	47427.71
529.016	47368.32
529.218	46200.98
529.419	46207.12
529.62	45738.14
529.822	45326.5
530.023	44937.38
530.224	44583.09
530.425	44488.88
530.626	43276.48
530.828	43239.62
531.029	43501.76
531.23	42078.42
531.431	41732.31
531.632	42146
531.833	41371.87
532.035	40190.19
532.236	40216.82
532.437	40136.94
532.638	38959.36
532.839	39149.82
533.04	38795.53
533.241	37810.45
533.442	37609.75
533.643	36616.49
533.844	36335.91
534.045	36086.06
534.246	35180.86
534.447	34928.96
534.648	34556.23
534.849	33778
535.05	33300.83
535.251	33128.8
535.451	32801.12
535.652	32127.34
535.853	31814
536.054	31357.3
536.255	31226.23
536.456	30464.39
536.657	30546.31
536.857	30105.99
537.058	29258.13
537.259	29075.87
537.46	28756.38
537.66	27627.95
537.861	27597.23
538.062	27480.5
538.263	27056.57
538.463	26620.35
538.664	26438.08
538.865	26493.38
539.065	25991.62
539.266	25383.38
539.466	25321.94
539.667	24416.74
539.868	24791.52
540.068	24207.84
540.269	23943.66
540.469	23853.55
540.67	23579.12
540.87	23351.79
541.071	22807.03
541.271	22565.37
541.472	22465.02
541.672	22157.83
541.873	21602.83
542.073	21498.38
542.274	21447.18
542.474	21187.09
542.675	20847.13
542.875	20638.23
543.075	20306.46
543.276	20095.52
543.476	19986.98
543.676	19515.95
543.877	19812.9
544.077	19356.21
544.277	19214.9
544.478	18637.37
544.678	18856.5
544.878	18434.62
545.078	18229.82
545.279	17928.77
545.479	17803.85
545.679	17672.78
545.879	17207.89
546.079	17326.67
546.28	17138.26
546.48	16667.22
546.68	16726.61
546.88	16419.42
547.08	16210.53
547.28	15907.43
547.48	15559.27
547.68	15907.43
547.88	15417.96
548.081	15329.9
548.281	15030.9
548.481	14600.82
548.681	14674.55
548.881	14600.82
549.081	14146.17
549.28	14035.58
549.48	14156.41
549.68	13720.2
549.88	13656.71
550.08	13410.95
550.28	12952.21
550.48	12991.12
550.68	13023.89
550.88	12626.58
551.08	12520.09
551.279	12442.26
551.479	11954.85
551.679	12098.2
551.879	11670.18
552.079	11641.51
552.278	11449
552.478	11756.19
552.678	11193
552.878	10959.53
553.077	10713.78
553.277	10527.41
553.477	10656.43
553.676	10386.1
553.876	10027.71
554.076	9910.97
554.275	9839.3
554.475	9474.76
554.674	9616.07
554.874	9554.63
555.074	9153.23
555.273	9099.98
555.473	9036.49
555.672	8594.13
555.872	8575.7
556.071	8747.73
556.271	8454.87
556.47	8463.06
556.67	8053.47
556.869	7820
557.068	7873.25
557.268	7621.35
557.467	7418.6
557.667	7672.54
557.866	7348.97
558.065	7074.54
558.265	6982.38
558.464	6892.27
558.663	7009
558.863	6804.21
559.062	6691.57
559.261	6607.6
559.461	6472.43
559.66	6220.53
559.859	6265.59
560.058	5913.34
560.258	6083.32
560.457	5991.16
560.656	6060.79
560.855	5763.84
561.054	5765.89
561.253	5661.44
561.453	5522.18
561.652	5509.89
561.851	5417.73
562.05	5227.27
562.249	5026.57
562.448	5171.97
562.647	5053.19
562.846	4934.41
563.045	4895.5
563.244	4717.33
563.443	4707.09
563.642	4676.37
563.841	4631.31
564.04	4367.12
564.239	4590.35
564.438	4461.33
564.637	4283.16
564.836	4246.29
565.035	4145.94
565.234	4127.51
565.432	4090.65
565.631	3969.82
565.83	4082.46
566.029	3748.64
566.228	3830.55
566.427	3795.74
566.625	3738.4
566.824	3715.87
567.023	3642.14
567.222	3642.14
567.42	3605.28
567.619	3554.08
567.818	3545.89
568.016	3490.59
568.215	3347.23
568.414	3257.12
568.612	3222.31
568.811	3210.02
569.01	3160.87
569.208	2966.31
569.407	3183.4
569.605	3095.33
569.804	2974.5
570.002	3009.32
570.201	2759.47
570.4	2958.12
570.598	2804.52
570.797	2734.89
570.995	2587.44
571.193	2616.11
571.392	2681.64
571.59	2491.18
571.789	2706.22
571.987	2591.53
572.186	2593.58
572.384	2407.22
572.582	2433.84
572.781	2374.45
572.979	2294.58
573.177	2274.1
573.376	2444.08
573.574	2337.59
573.772	2173.75
573.971	2132.79
574.169	2138.93
574.367	2095.93
574.565	2054.97
574.763	1979.19
574.962	1895.22
575.16	1852.22
575.358	1870.65
575.556	1805.11
575.754	1844.03
575.952	1723.2
576.151	1868.6
576.349	1878.84
576.547	1592.13
576.745	1770.3
576.943	1624.89
577.141	1645.37
577.339	1575.74
577.537	1604.41
577.735	1694.52
577.933	1667.9
578.131	1567.55
578.329	1641.28
578.527	1461.06
578.725	1530.69
578.923	1315.65
579.121	1502.01
579.319	1295.17
579.516	1303.36
579.714	1538.88
579.912	1321.79
580.11	1248.07
580.308	1313.6
580.506	1301.31
580.704	1151.81
580.901	1198.92
581.099	1301.31
581.297	1223.49
581.495	1178.44
581.692	1094.47
581.89	1246.02
582.088	1198.92
582.285	1049.41
582.483	1100.61
582.681	1041.22
582.878	1067.85
583.076	1180.48
583.274	1110.85
583.471	1186.63
583.669	1061.7
583.866	912.2
584.064	967.49
584.262	883.53
584.459	901.96
584.657	932.68
584.854	1012.55
585.052	992.07
585.249	947.01
585.447	1022.79
585.644	813.9
585.841	934.73
586.039	965.45
586.236	906.06
586.434	893.77
586.631	774.99
586.828	772.94
587.026	813.9
587.223	707.4
587.42	777.03
587.618	777.03
587.815	883.53
588.012	764.75
588.21	719.69
588.407	795.47
588.604	705.35
588.801	707.4
588.999	824.14
589.196	783.18
589.393	670.54
589.59	725.83
589.787	674.64
589.984	729.93
590.182	680.78
590.379	650.06
590.576	654.16
590.773	672.59
590.97	639.82
591.167	676.68
591.364	715.59
591.561	582.48
591.758	836.42
591.955	664.4
592.152	582.48
592.349	598.86
592.546	611.15
592.743	627.53
592.94	623.44
593.137	666.44
593.334	699.21
593.531	721.74
593.727	654.16
593.924	672.59
594.121	568.14
594.318	697.16
594.515	721.74
594.712	770.89
594.908	713.55
595.105	562
595.302	656.2
595.499	766.79
595.696	828.23
595.892	617.29
596.089	719.69
596.286	742.22
596.482	908.1
596.679	760.65
596.876	774.99
597.072	854.86
597.269	891.72
597.466	856.9
597.662	856.9
597.859	805.71
598.055	856.9
598.252	990.02
598.448	979.78
598.645	1123.14
598.841	967.49
599.038	1180.48
599.234	1215.3
599.431	1139.52
599.627	1198.92
599.824	1270.59
600.02	1258.31
600.217	1360.7
600.413	1463.1
600.609	1434.43
600.806	1637.18
601.002	1686.33
601.198	1530.69
601.395	1717.05
601.591	1770.3
601.787	1805.11
601.984	1805.11
602.18	2016.05
602.376	1907.51
602.572	2136.88
602.769	2249.52
602.965	2267.95
603.161	2308.91
603.357	2341.68
603.553	2507.57
603.75	2526
603.946	2646.83
604.142	2691.88
604.338	2816.81
604.534	2804.52
604.73	2892.59
604.926	3050.28
605.122	3261.22
605.318	3152.68
605.514	3326.75
605.71	3472.16
605.906	3531.55
606.102	3435.3
606.298	3885.85
606.494	3840.79
606.69	4043.54
606.886	4023.06
607.082	4166.42
607.278	4199.19
607.474	4490
607.67	4723.47
607.866	4528.91
608.062	4725.52
608.257	4844.3
608.453	4934.41
608.649	5325.57
608.845	5239.56
609.041	5466.88
609.236	5690.11
609.432	5769.98
609.628	5890.81
609.824	6290.17
610.019	6273.78
610.215	6406.9
610.411	6556.4
610.606	6918.89
610.802	6861.55
610.998	7111.4
611.193	7377.64
611.389	7246.57
611.584	7654.11
611.78	7582.43
611.976	7809.76
612.171	8510.16
612.367	8553.17
612.562	8745.68
612.758	8874.7
612.953	9091.79
613.149	9485
613.344	9601.73
613.539	9962.17
613.735	10197.69
613.93	10250.94
614.126	10742.45
614.321	10982.06
614.517	11313.83
614.712	11694.75
614.907	11907.74
615.103	12061.34
615.298	12198.56
615.493	12841.62
615.688	12937.87
615.884	13312.65
616.079	13548.17
616.274	14060.16
616.47	14426.75
616.665	14625.4
616.86	15293.04
617.055	15606.38
617.25	15782.5
617.445	16530.01
617.641	16425.56
617.836	16935.51
618.031	17058.39
618.226	17996.35
618.421	18321.98
618.616	18858.55
618.811	18768.44
619.006	19692.07
619.201	19726.89
619.396	20619.8
619.591	20609.56
619.786	21488.14
619.981	21424.65
620.176	22166.02
620.371	22372.86
620.566	23224.82
620.761	23663.08
620.956	24046.05
621.151	24189.41
621.346	24898.01
621.541	25090.52
621.735	26040.78
621.93	26327.49
622.125	26845.63
622.32	26866.11
622.515	27795.89
622.709	28228.01
622.904	28354.98
623.099	29143.45
623.294	29888.91
623.488	30077.32
623.683	30933.37
623.878	30906.75
624.072	31885.68
624.267	32405.86
624.462	33003.87
624.656	32924
624.851	33712.47
625.046	33765.71
625.24	34507.08
625.435	34890.05
625.629	35207.48
625.824	35770.68
626.018	36184.37
626.213	36264.24
626.407	37173.53
626.602	36966.69
626.796	37824.79
626.991	38398.22
627.185	38367.5
627.38	38254.86
627.574	38809.86
627.768	38480.14
627.963	38990.08
628.157	39198.98
628.352	39563.51
628.546	39622.9
628.74	39856.37
628.935	39110.91
629.129	39723.26
629.323	39350.52
629.517	38899.97
629.712	38605.06
629.906	38385.93
630.1	37755.16
630.294	37962
630.489	37189.92
630.683	37216.54
630.877	36092.21
631.071	35492.15
631.265	35068.22
631.459	34298.19
631.653	33835.35
631.848	32909.66
632.042	32108.91
632.236	31648.11
632.43	30282.12
632.624	29878.67
632.818	29174.17
633.012	27986.35
633.206	26943.93
633.4	26218.95
633.594	25352.66
633.788	24365.54
633.982	24146.4
634.176	23042.55
634.369	21490.19
634.563	21281.3
634.757	20488.73
634.951	19761.7
635.145	19079.73
635.339	18115.14
635.533	17529.42
635.726	16855.64
635.92	15985.25
636.114	15329.9
636.308	14393.98
636.501	14422.65
636.695	13705.86
636.889	12978.83
637.083	12520.09
637.276	12034.72
637.47	11541.16
637.664	11174.57
637.857	10488.5
638.051	10091.2
638.244	9935.55
638.438	9425.61
638.632	9089.74
638.825	8573.65
639.019	8510.16
639.212	8012.51
639.406	7713.5
639.599	7275.24
639.793	7123.69
639.986	6847.21
640.18	6707.95
640.373	6316.79
640.567	6017.79
640.76	5937.91
640.954	5724.93
641.147	5307.14
641.34	5178.12
641.534	4965.13
641.727	4981.51
641.92	4625.17
642.114	4469.52
642.307	4322.07
642.5	4363.03
642.694	3920.67
642.887	3902.23
643.08	3670.81
643.273	3566.37
643.467	3373.86
643.66	3263.27
643.853	3152.68
644.046	3021.61
644.239	2941.74
644.432	2732.84
644.626	2609.97
644.819	2624.3
645.012	2515.76
645.205	2482.99
645.398	2456.37
645.591	2204.47
645.784	2126.64
645.977	1964.86
646.17	1911.61
646.363	1911.61
646.556	1866.55
646.749	1719.1
646.942	1672
647.135	1600.32
647.328	1667.9
647.521	1542.97
647.714	1463.1
647.907	1440.58
648.099	1256.26
648.292	1370.94
648.485	1286.98
648.678	1309.51
648.871	1157.96
649.064	1164.1
649.256	1045.32
649.449	1010.5
649.642	975.69
649.835	975.69
650.027	955.21
650.22	844.62
650.413	912.2
650.605	1020.74
650.798	774.99
650.991	707.4
651.183	795.47
651.376	815.94
651.568	803.66
651.761	668.49
651.954	742.22
652.146	656.2
652.339	709.45
652.531	611.15
652.724	484.17
652.916	648.01
653.109	410.45
653.301	488.27
653.494	568.14
653.686	566.09
653.879	555.85
654.071	586.57
654.263	437.07
654.456	432.97
654.648	455.5
654.84	449.36
655.033	445.26
655.225	459.6
655.417	367.44
655.61	377.68
655.802	463.69
655.994	455.5
656.186	258.9
656.379	418.64
656.571	357.2
656.763	410.45
656.955	291.66
657.148	269.14
657.34	428.88
657.532	332.62
657.724	324.43
657.916	295.76
658.108	328.53
658.3	340.82
658.492	299.86
658.684	219.99
658.876	334.67
659.068	213.84
659.26	281.43
659.452	244.56
659.644	306
659.836	369.49
660.028	189.27
660.22	213.84
660.412	193.36
660.604	273.23
660.796	254.8
660.988	285.52
661.18	289.62
661.372	297.81
661.563	203.6
661.755	250.71
661.947	138.07
662.139	136.02
662.331	103.25
662.522	197.46
662.714	131.92
662.906	179.03
663.097	117.59
663.289	82.77
663.481	109.4
663.673	193.36
663.864	189.27
664.056	217.94
664.247	158.55
664.439	209.75
664.631	115.54
664.822	226.13
665.014	164.69
665.205	72.53
665.397	230.23
665.588	187.22
665.78	117.59
665.971	199.51
666.163	142.16
666.354	226.13
666.546	58.2
666.737	176.98
666.929	78.68
667.12	41.81
667.311	172.88
667.503	95.06
667.694	154.45
667.885	183.12
668.077	211.79
668.268	64.34
668.459	152.4
668.651	152.4
668.842	174.93
669.033	156.5
669.224	27.48
669.416	230.23
669.607	97.11
669.798	47.96
669.989	172.88
670.18	131.92
670.371	197.46
670.563	76.63
670.754	205.65
670.945	152.4
671.136	158.55
671.327	31.57
671.518	230.23
671.709	267.09
671.9	156.5
672.091	158.55
672.282	174.93
672.473	174.93
672.664	113.49
672.855	113.49
673.046	183.12
673.237	244.56
673.428	183.12
673.619	244.56
673.809	72.53
674	222.03
674.191	232.27
674.382	140.12
674.573	189.27
674.764	164.69
674.954	224.08
675.145	95.06
675.336	56.15
675.527	99.16
675.717	66.39
675.908	154.45
676.099	80.72
676.289	64.34
676.48	62.29
676.671	195.41
676.861	125.78
677.052	226.13
677.243	113.49
677.433	52.05
677.624	205.65
677.814	115.54
678.005	133.97
678.195	238.42
678.386	45.91
678.576	127.83
678.767	31.57
678.957	136.02
679.148	107.35
679.338	168.79
679.529	101.2
679.719	189.27
679.909	228.18
680.1	230.23
680.29	230.23
680.481	101.2
680.671	219.99
680.861	242.51
681.052	47.96
681.242	105.3
681.432	244.56
681.622	185.17
681.813	140.12
682.003	183.12
682.193	113.49
682.383	195.41
682.573	240.47
682.764	119.64
682.954	168.79
683.144	287.57
683.334	185.17
683.524	176.98
683.714	232.27
683.904	246.61
684.094	205.65
684.284	174.93
684.474	328.53
684.664	172.88
684.854	275.28
685.044	187.22
685.234	183.12
685.424	185.17
685.614	82.77
685.804	375.63
685.994	238.42
686.184	195.41
686.374	250.71
686.564	181.07
686.753	211.79
686.943	140.12
687.133	185.17
687.323	129.88
687.513	308.05
687.702	154.45
687.892	113.49
688.082	262.99
688.272	252.75
688.461	258.9
688.651	340.82
688.841	232.27
689.03	183.12
689.22	176.98
689.41	318.29
689.599	183.12
689.789	203.6
689.979	291.66
690.168	158.55
690.358	207.7
690.547	222.03
690.737	222.03
690.926	160.59
691.116	230.23
691.305	285.52
691.495	238.42
691.684	54.1
691.874	199.51
692.063	160.59
692.252	285.52
692.442	238.42
692.631	129.88
692.82	185.17
693.01	234.32
693.199	183.12
693.388	242.51
693.578	148.31
693.767	189.27
693.956	209.75
694.146	170.83
694.335	213.84
694.524	181.07
694.713	228.18
694.902	125.78
695.092	154.45
695.281	254.8
695.47	133.97
695.659	164.69
695.848	168.79
696.037	136.02
696.226	222.03
696.415	222.03
696.604	316.24
696.793	275.28
696.982	129.88
697.171	306
697.36	144.21
697.549	213.84
697.738	76.63
697.927	160.59
698.116	76.63
698.305	267.09
698.494	150.36
698.683	222.03
698.872	283.47
699.061	236.37
699.25	213.84
699.438	107.35
699.627	156.5
699.816	283.47
700.005	168.79
700.193	136.02
700.382	232.27
700.571	150.36
700.76	219.99
700.948	246.61
701.137	193.36
701.326	244.56
701.514	54.1
701.703	174.93
701.892	172.88
702.08	330.58
702.269	170.83
702.457	113.49
702.646	164.69
702.834	168.79
703.023	236.37
703.212	181.07
703.4	222.03
703.589	140.12
703.777	181.07
703.965	105.3
704.154	181.07
704.342	74.58
704.531	162.64
704.719	197.46
704.907	295.76
705.096	127.83
705.284	127.83
705.472	109.4
705.661	246.61
705.849	240.47
706.037	246.61
706.226	207.7
706.414	148.31
706.602	109.4
706.79	203.6
706.979	207.7
707.167	211.79
707.355	64.34
707.543	205.65
707.731	297.81
707.919	125.78
708.107	258.9
708.296	138.07
708.484	136.02
708.672	195.41
708.86	109.4
709.048	103.25
709.236	142.16
709.424	197.46
709.612	195.41
709.8	78.68
709.988	99.16
710.176	207.7
710.364	285.52
710.551	226.13
710.739	136.02
710.927	201.55
711.115	90.96
711.303	185.17
711.491	162.64
711.679	140.12
711.866	328.53
712.054	103.25
712.242	260.95
712.43	246.61
712.617	197.46
712.805	336.72
712.993	78.68
713.181	90.96
713.368	185.17
713.556	179.03
713.744	189.27
713.931	412.5
714.119	179.03
714.306	148.31
714.494	146.26
714.682	308.05
714.869	27.48
715.057	152.4
715.244	84.82
715.432	203.6
715.619	154.45
715.807	99.16
715.994	211.79
716.182	236.37
716.369	203.6
716.556	295.76
716.744	47.96
716.931	117.59
717.119	203.6
717.306	133.97
717.493	256.85
717.681	217.94
717.868	187.22
718.055	219.99
718.242	170.83
718.43	183.12
718.617	265.04
718.804	107.35
718.991	246.61
719.179	181.07
719.366	230.23
719.553	219.99
719.74	166.74
719.927	160.59
720.114	195.41
720.301	142.16
720.488	207.7
720.676	172.88
720.863	299.86
721.05	340.82
721.237	240.47
721.424	287.57
721.611	138.07
721.798	60.24
721.985	166.74
722.172	197.46
722.358	205.65
722.545	250.71
722.732	318.29
722.919	273.23
723.106	222.03
723.293	199.51
723.48	250.71
723.667	164.69
723.853	353.1
724.04	279.38
724.227	322.38
724.414	195.41
724.6	287.57
724.787	273.23
724.974	361.3
725.161	183.12
725.347	201.55
725.534	219.99
725.72	232.27
725.907	340.82
726.094	254.8
726.28	240.47
726.467	213.84
726.653	209.75
726.84	310.1
727.027	353.1
727.213	244.56
727.4	224.08
727.586	234.32
727.773	230.23
727.959	160.59
728.145	254.8
728.332	197.46
728.518	262.99
728.705	293.71
728.891	250.71
729.077	250.71
729.264	283.47
729.45	271.19
729.636	314.19
729.823	248.66
730.009	295.76
730.195	246.61
730.382	287.57
730.568	195.41
730.754	269.14
730.94	242.51
731.126	267.09
731.313	314.19
731.499	252.75
731.685	279.38
731.871	291.66
732.057	295.76
732.243	340.82
732.429	314.19
732.615	398.16
732.801	310.1
732.987	250.71
733.173	285.52
733.359	213.84
733.545	310.1
733.731	236.37
733.917	381.78
734.103	285.52
734.289	273.23
734.475	215.89
734.661	383.82
734.847	269.14
735.033	299.86
735.219	310.1
735.404	174.93
735.59	166.74
735.776	201.55
735.962	238.42
736.148	342.86
736.333	332.62
736.519	238.42
736.705	273.23
736.89	334.67
737.076	338.77
737.262	189.27
737.447	230.23
737.633	262.99
737.819	373.58
738.004	213.84
738.19	289.62
738.375	318.29
738.561	385.87
738.747	275.28
738.932	189.27
739.118	457.55
739.303	355.15
739.489	258.9
739.674	314.19
739.859	250.71
740.045	295.76
740.23	301.9
740.416	189.27
740.601	295.76
740.786	254.8
740.972	277.33
741.157	281.43
741.342	271.19
741.528	289.62
741.713	371.54
741.898	228.18
742.084	207.7
742.269	213.84
742.454	312.14
742.639	361.3
742.824	326.48
743.01	377.68
743.195	422.73
743.38	299.86
743.565	310.1
743.75	256.85
743.935	310.1
744.12	310.1
744.305	164.69
744.49	209.75
744.675	306
744.86	252.75
745.045	340.82
745.23	262.99
745.415	303.95
745.6	385.87
745.785	187.22
745.97	385.87
746.155	322.38
746.34	293.71
746.525	283.47
746.71	392.02
746.895	160.59
747.079	193.36
747.264	279.38
747.449	275.28
747.634	213.84
747.819	324.43
748.003	254.8
748.188	213.84
748.373	332.62
748.557	213.84
748.742	213.84
748.927	219.99
749.111	295.76
749.296	168.79
749.481	303.95
749.665	242.51
749.85	211.79
750.034	203.6
750.219	285.52
750.404	199.51
750.588	271.19
750.773	170.83
750.957	183.12
751.141	172.88
751.326	353.1
751.51	205.65
751.695	283.47
751.879	228.18
752.064	353.1
752.248	242.51
752.432	301.9
752.617	250.71
752.801	293.71
752.985	193.36
753.17	234.32
753.354	209.75
753.538	320.34
753.722	148.31
753.907	183.12
754.091	189.27
754.275	193.36
754.459	88.92
754.643	148.31
754.828	289.62
755.012	174.93
755.196	148.31
755.38	195.41
755.564	189.27
755.748	240.47
755.932	289.62
756.116	133.97
756.3	273.23
756.484	164.69
756.668	199.51
756.852	86.87
757.036	174.93
757.22	168.79
757.404	60.24
757.588	90.96
757.772	166.74
757.956	199.51
758.14	287.57
758.323	138.07
758.507	236.37
758.691	111.44
758.875	213.84
759.059	170.83
759.242	127.83
759.426	244.56
759.61	133.97
759.794	90.96
759.977	181.07
760.161	394.06
760.345	262.99
760.528	215.89
760.712	117.59
760.895	195.41
761.079	172.88
761.263	58.2
761.446	136.02
761.63	113.49
761.813	226.13
761.997	150.36
762.18	105.3
762.364	273.23
762.547	54.1
762.731	146.26
762.914	97.11
763.098	136.02
763.281	41.81
763.464	-3.24
763.648	140.12
763.831	31.57
764.015	129.88
764.198	217.94
764.381	68.44
764.564	99.16
764.748	133.97
764.931	168.79
765.114	60.24
765.297	99.16
765.481	74.58
765.664	240.47
765.847	93.01
766.03	234.32
766.213	72.53
766.397	146.26
766.58	72.53
766.763	117.59
766.946	39.76
767.129	97.11
767.312	82.77
767.495	172.88
767.678	66.39
767.861	101.2
768.044	115.54
768.227	129.88
768.41	82.77
768.593	170.83
768.776	95.06
768.959	41.81
769.142	154.45
769.324	93.01
769.507	193.36
769.69	146.26
769.873	150.36
770.056	226.13
770.239	103.25
770.421	207.7
770.604	166.74
770.787	121.68
770.97	174.93
771.152	50
771.335	203.6
771.518	50
771.7	185.17
771.883	142.16
772.066	76.63
772.248	97.11
772.431	181.07
772.613	131.92
772.796	86.87
772.978	131.92
773.161	215.89
773.343	66.39
773.526	80.72
773.708	9.05
773.891	54.1
774.073	101.2
774.256	50
774.438	148.31
774.621	4.95
774.803	103.25
774.985	43.86
775.168	62.29
775.35	93.01
775.532	179.03
775.715	74.58
775.897	86.87
776.079	88.92
776.261	101.2
776.444	90.96
776.626	66.39
776.808	64.34
776.99	-19.63
777.173	76.63
777.355	35.67
777.537	97.11
777.719	66.39
777.901	43.86
778.083	19.29
778.265	9.05
778.447	138.07
778.629	-48.3
778.811	119.64
778.993	86.87
779.175	84.82
779.357	76.63
779.539	9.05
779.721	115.54
779.903	146.26
780.085	60.24
780.267	64.34
780.449	58.2
780.631	88.92
780.812	179.03
780.994	62.29
781.176	47.96
781.358	99.16
781.54	17.24
781.721	154.45
781.903	129.88
782.085	88.92
782.267	127.83
782.448	39.76
782.63	45.91
782.812	133.97
782.993	39.76
783.175	109.4
783.357	101.2
783.538	99.16
783.72	-76.97
783.901	-1.19
784.083	107.35
784.264	74.58
784.446	-13.48
784.627	-1.19
784.809	78.68
784.99	9.05
785.172	62.29
785.353	80.72
785.535	-3.24
785.716	56.15
785.897	-40.11
786.079	-27.82
786.26	95.06
786.441	125.78
786.623	-62.63
786.804	-33.96
786.985	33.62
787.167	109.4
787.348	29.52
787.529	11.09
787.71	115.54
787.891	97.11
788.073	31.57
788.254	-62.63
788.435	232.27
788.616	76.63
788.797	4.95
788.978	86.87
789.159	21.33
789.34	41.81
789.522	41.81
789.703	-66.73
789.884	25.43
790.065	41.81
790.246	201.55
790.427	-36.01
790.607	162.64
790.788	103.25
790.969	68.44
791.15	4.95
791.331	43.86
791.512	-23.72
791.693	62.29
791.874	72.53
792.054	232.27
792.235	121.68
792.416	0.85
792.597	33.62
792.778	125.78
792.958	70.48
793.139	107.35
793.32	64.34
793.5	-27.82
793.681	203.6
793.862	37.72
794.042	70.48
794.223	-25.77
794.404	-23.72
794.584	-64.68
794.765	45.91
794.945	19.29
795.126	142.16
795.306	166.74
795.487	2.9
795.667	-13.48
795.848	56.15
796.028	86.87
796.209	-7.34
796.389	131.92
796.57	50
796.75	39.76
796.93	19.29
797.111	15.19
797.291	80.72
797.471	164.69
797.652	13.14
797.832	-89.26
798.012	47.96
798.192	-68.78
798.373	-46.25
798.553	7
798.733	166.74
798.913	0.85
799.093	2.9
799.274	72.53
799.454	152.4
799.634	131.92
799.814	107.35
799.994	74.58
800.174	109.4
800.354	54.1
800.534	-66.73
800.714	86.87
800.894	-87.21
801.074	-27.82
801.254	-29.87
801.434	199.51
801.614	-17.58
801.794	-27.82
801.974	1948.47
802.154	52.05
802.334	66.39
802.514	-64.68
802.693	62.29
802.873	-5.29
803.053	62.29
803.233	82.77
803.413	-9.39
803.592	-5.29
803.772	-15.53
803.952	35.67
804.131	-38.06
804.311	37.72
804.491	115.54
804.67	-54.44
804.85	35.67
805.03	105.3
805.209	90.96
805.389	-3.24
805.568	-1.19
805.748	-29.87
805.928	-3.24
806.107	58.2
806.287	21.33
806.466	17.24
806.646	23.38
806.825	-17.58
807.004	9.05
807.184	78.68
807.363	21.33
807.543	58.2
807.722	13.14
807.901	74.58
808.081	146.26
808.26	-124.07
808.439	76.63
808.619	88.92
808.798	15.19
808.977	2.9
809.156	90.96
809.336	25.43
809.515	117.59
809.694	-85.16
809.873	-27.82
810.052	66.39
810.231	123.73
810.411	58.2
810.59	140.12
810.769	78.68
810.948	113.49
811.127	-64.68
811.306	-1.19
811.485	-19.63
811.664	144.21
811.843	47.96
812.022	58.2
812.201	-17.58
812.38	33.62
812.559	-42.15
812.737	0.85
812.916	-83.11
813.095	-42.15
813.274	74.58
813.453	39.76
813.632	80.72
813.811	56.15
813.989	-76.97
814.168	15.19
814.347	-1.19
814.526	31.57
814.704	148.31
814.883	35.67
815.062	4.95
815.24	45.91
815.419	-58.54
815.598	74.58
815.776	-156.84
815.955	27.48
816.133	-89.26
816.312	60.24
816.49	-31.91
816.669	4.95
816.847	-36.01
817.026	-9.39
817.204	15.19
817.383	-1.19
817.561	-13.48
817.74	-23.72
817.918	-68.78
818.097	-79.02
818.275	-38.06
818.453	15.19
818.632	45.91
818.81	13.14
818.988	41.81
819.167	-79.02
819.345	2.9
819.523	-3.24
819.701	66.39
819.879	-15.53
820.058	-3.24
820.236	35.67
820.414	15.19
820.592	-13.48
820.77	-54.44
820.948	-46.25
821.127	-38.06
821.305	41.81
821.483	-76.97
821.661	45.91
821.839	27.48
822.017	4.95
822.195	11.09
822.373	45.91
822.551	-9.39
822.729	39.76
822.907	23.38
823.085	109.4
823.262	25.43
823.44	-58.54
823.618	-36.01
823.796	11.09
823.974	33.62
824.152	-74.92
824.329	-7.34
824.507	-23.72
824.685	41.81
824.863	-33.96
825.04	15.19
825.218	80.72
825.396	50
825.574	41.81
825.751	2.9
825.929	115.54
826.107	-91.31
826.284	11.09
826.462	95.06
826.639	-72.87
826.817	-11.43
826.994	52.05
827.172	-99.5
827.349	146.26
827.527	52.05
827.704	-25.77
827.882	121.68
828.059	-3.24
828.237	31.57
828.414	17.24
828.591	-152.74
828.769	-5.29
828.946	-52.39
829.124	39.76
829.301	82.77
829.478	-15.53
829.655	72.53
829.833	41.81
830.01	-42.15
830.187	68.44
830.364	101.2
830.542	-19.63
830.719	133.97
830.896	4.95
831.073	-15.53
831.25	25.43
831.427	56.15
831.604	78.68
831.782	-11.43
831.959	62.29
832.136	43.86
832.313	-7.34
832.49	-40.11
832.667	-46.25
832.844	-95.4
833.021	88.92
833.198	-3.24
833.374	-5.29
833.551	76.63
833.728	17.24
833.905	41.81
834.082	-107.69
834.259	-3.24
834.436	105.3
834.612	-58.54
834.789	62.29
834.966	-33.96
835.143	50
835.319	-38.06
835.496	17.24
835.673	78.68
835.85	54.1
836.026	72.53
836.203	127.83
836.38	-44.2
836.556	-40.11
836.733	-46.25
836.909	154.45
837.086	15.19
837.262	-19.63
837.439	54.1
837.616	-130.22
837.792	-111.78
837.968	-31.91
838.145	-48.3
838.321	-68.78
838.498	-64.68
838.674	29.52
838.851	-27.82
839.027	7
839.203	21.33
839.38	76.63
839.556	-1.19
839.732	103.25
839.909	29.52
840.085	23.38
840.261	29.52
840.437	11.09
840.614	-81.07
840.79	90.96
840.966	60.24
841.142	27.48
841.318	-5.29
841.494	21.33
841.671	11.09
841.847	-60.59
842.023	19.29
842.199	66.39
842.375	27.48
842.551	-124.07
842.727	-9.39
842.903	140.12
843.079	-50.35
843.255	111.44
843.431	0.85
843.607	-5.29
843.783	-144.55
843.959	113.49
844.134	-64.68
844.31	64.34
844.486	-27.82
844.662	-60.59
844.838	-5.29
845.013	33.62
845.189	58.2
845.365	58.2
845.541	-56.49
845.716	-3.24
845.892	11.09
846.068	-21.67
846.244	9.05
846.419	86.87
846.595	-44.2
846.77	-95.4
846.946	33.62
847.122	0.85
847.297	2.9
847.473	95.06
847.648	-50.35
847.824	29.52
847.999	-99.5
848.175	-42.15
848.35	43.86
848.526	103.25
848.701	117.59
848.876	127.83
849.052	54.1
849.227	-23.72
849.403	-36.01
849.578	19.29
849.753	-5.29
849.929	23.38
850.104	-113.83
850.279	-3.24
850.454	45.91
850.63	107.35
850.805	47.96
850.98	-38.06
851.155	-7.34
851.33	50
851.505	-122.02
851.681	144.21
851.856	-74.92
852.031	58.2
852.206	70.48
852.381	31.57
852.556	11.09
852.731	33.62
852.906	13.14
853.081	-76.97
853.256	78.68
853.431	-15.53
853.606	-27.82
853.781	25.43
853.956	-105.64
854.131	25.43
854.305	-25.77
854.48	17.24
854.655	-95.4
854.83	-21.67
855.005	35.67
855.18	-17.58
855.354	4.95
855.529	54.1
855.704	41.81
855.879	9.05
856.053	-13.48
856.228	-33.96
856.403	-134.31
856.577	15.19
856.752	21.33
856.926	27.48
857.101	68.44
857.276	-117.93
857.45	-48.3
857.625	78.68
857.799	39.76
857.974	58.2
858.148	-156.84
858.323	50
858.497	13.14
858.672	-40.11
858.846	-52.39
859.02	60.24
859.195	-79.02
859.369	-79.02
859.543	41.81
859.718	72.53
859.892	-3.24
860.066	50
860.241	17.24
860.415	-62.63
860.589	4.95
860.763	39.76
860.938	-68.78
861.112	23.38
861.286	-1.19
861.46	-5.29
861.634	60.24
861.808	66.39
861.982	-44.2
862.157	-107.69
862.331	-19.63
862.505	-13.48
862.679	-99.5
862.853	11.09
863.027	-89.26
863.201	154.45
863.375	-56.49
863.549	19.29
863.722	50
863.896	82.77
864.07	-38.06
864.244	88.92
864.418	95.06
864.592	-33.96
864.766	-19.63
864.939	-3.24
865.113	-17.58
865.287	70.48
865.461	-124.07
865.634	-21.67
865.808	-54.44
865.982	13.14
866.156	-87.21
866.329	-60.59
866.503	25.43
866.676	47.96
866.85	138.07
867.024	-99.5
867.197	33.62
867.371	-19.63
867.544	25.43
867.718	-62.63
867.891	131.92
868.065	-31.91
868.238	4.95
868.412	80.72
868.585	-25.77
868.759	-11.43
868.932	-48.3
869.105	-31.91
869.279	-19.63
869.452	-19.63
869.625	-33.96
869.799	-79.02
869.972	23.38
870.145	-38.06
870.319	47.96
870.492	-25.77
870.665	-64.68
870.838	-93.35
871.011	-144.55
871.185	-38.06
871.358	-66.73
871.531	50
871.704	25.43
871.877	39.76
872.05	-17.58
872.223	-33.96
872.396	47.96
872.569	-7.34
872.742	-130.22
872.915	62.29
873.088	-21.67
873.261	-33.96
873.434	78.68
873.607	-29.87
873.78	82.77
873.953	-162.98
874.126	-7.34
874.299	0.85
874.471	37.72
874.644	15.19
874.817	90.96
874.99	111.44
875.163	17.24
875.335	-3.24
875.508	-7.34
875.681	97.11
875.853	-54.44
876.026	-19.63
876.199	11.09
876.371	56.15
876.544	-11.43
876.717	-42.15
876.889	-52.39
877.062	84.82
877.234	-126.12
877.407	-42.15
877.579	117.59
877.752	19.29
877.924	68.44
878.097	70.48
878.269	31.57
878.442	21.33
878.614	50
878.786	4.95
878.959	13.14
879.131	33.62
879.303	-105.64
879.476	31.57
879.648	60.24
879.82	86.87
879.993	-19.63
880.165	-95.4
880.337	-76.97
880.509	-11.43
880.681	-19.63
880.854	-74.92
881.026	60.24
881.198	160.59
881.37	-76.97
881.542	17.24
881.714	4.95
881.886	-29.87
882.058	-17.58
882.23	-48.3
882.402	-17.58
882.574	35.67
882.746	60.24
882.918	45.91
883.09	-46.25
883.262	-13.48
883.434	33.62
883.606	-76.97
883.778	52.05
883.95	99.16
884.122	-68.78
884.293	76.63
884.465	35.67
884.637	47.96
884.809	-29.87
884.98	13.14
885.152	25.43
885.324	41.81
885.496	43.86
885.667	-11.43
885.839	-3.24
886.011	127.83
886.182	54.1
886.354	95.06
886.525	23.38
886.697	-33.96
886.869	-72.87
887.04	2.9
887.212	146.26
887.383	172.88
887.555	11.09
887.726	-7.34
887.897	-1.19
888.069	39.76
888.24	0.85
888.412	11.09
888.583	-25.77
888.754	4.95
888.926	-54.44
889.097	15.19
889.268	-79.02
889.44	-11.43
889.611	-111.78
889.782	-56.49
889.953	-48.3
890.125	70.48
890.296	-23.72
890.467	-46.25
890.638	-54.44
890.809	-87.21
890.98	-62.63
891.151	58.2
891.323	45.91
891.494	-31.91
891.665	-17.58
891.836	7
892.007	121.68
892.178	-33.96
892.349	-56.49
892.52	-85.16
892.691	-3.24
892.862	13.14
893.032	-72.87
893.203	13.14
893.374	-19.63
893.545	86.87
893.716	-66.73
893.887	-7.34
894.057	80.72
894.228	-27.82
894.399	-19.63
894.57	86.87
894.74	33.62
894.911	66.39
895.082	-1.19
895.253	-97.45
895.423	-60.59
895.594	64.34
895.764	58.2
895.935	-97.45
896.106	39.76
896.276	-3.24
896.447	-5.29
896.617	-105.64
896.788	-83.11
896.958	-50.35
897.129	-48.3
897.299	-101.55
897.47	111.44
897.64	70.48
897.81	23.38
897.981	60.24
898.151	-91.31
898.322	-1.19
898.492	117.59
898.662	9.05
898.832	-79.02
899.003	-7.34
899.173	70.48
899.343	-156.84
899.513	-111.78
