Data from USB4F104151__76__09-30-09-291.txt Node

Date: Wed Feb 26 09:30:09 EST 2025
User: louis
Spectrometer: USB4F10415
Trigger mode: 4
Integration Time (sec): 1.000000E-1
Scans to average: 1
Electric dark correction enabled: true
Nonlinearity correction enabled: false
Boxcar width: 0
XAxis mode: Wavelengths
Number of Pixels in Spectrum: 3648
>>>>>Begin Spectral Data<<<<<
178.204	-287.06
178.424	-287.06
178.644	-287.06
178.864	-276.82
179.084	-358.74
179.304	-84.31
179.524	-35.16
179.744	-2.39
179.964	93.87
180.184	28.33
180.404	-4.44
180.624	18.09
180.844	-59.73
181.064	-31.06
181.283	5.8
181.503	34.47
181.723	36.52
181.943	-37.2
182.163	192.17
182.383	73.39
182.602	151.21
182.822	95.91
183.042	87.72
183.262	18.09
183.482	38.57
183.701	38.57
183.921	85.67
184.141	-35.16
184.361	87.72
184.58	95.91
184.8	32.43
185.02	-18.77
185.239	108.2
185.459	153.26
185.679	63.15
185.898	-88.4
186.118	63.15
186.338	79.53
186.557	196.26
186.777	42.67
186.997	30.38
187.216	1.71
187.436	218.79
187.655	130.73
187.875	91.82
188.095	34.47
188.314	153.26
188.534	112.3
188.753	-43.35
188.973	200.36
189.192	134.82
189.412	-6.49
189.631	81.58
189.851	198.31
190.07	175.78
190.29	-43.35
190.509	38.57
190.729	-35.16
190.948	112.3
191.168	224.94
191.387	104.11
191.607	-26.96
191.826	48.81
192.045	22.19
192.265	-2.39
192.484	71.34
192.704	18.09
192.923	5.8
193.142	145.06
193.362	93.87
193.581	208.55
193.8	61.1
194.02	65.19
194.239	30.38
194.458	151.21
194.678	34.47
194.897	97.96
195.116	73.39
195.335	124.58
195.555	44.71
195.774	52.91
195.993	177.83
196.212	130.73
196.432	13.99
196.651	-8.53
196.87	140.97
197.089	177.83
197.308	63.15
197.528	67.24
197.747	-14.68
197.966	57
198.185	153.26
198.404	30.38
198.623	85.67
198.842	69.29
199.062	136.87
199.281	157.35
199.5	69.29
199.719	75.43
199.938	130.73
200.157	177.83
200.376	100.01
200.595	116.39
200.814	130.73
201.033	-22.87
201.252	202.41
201.471	130.73
201.69	93.87
201.909	34.47
202.128	75.43
202.347	118.44
202.566	3.75
202.785	-108.88
203.004	30.38
203.223	276.13
203.442	71.34
203.661	18.09
203.879	138.92
204.098	163.5
204.317	13.99
204.536	145.06
204.755	116.39
204.974	157.35
205.193	22.19
205.411	124.58
205.63	110.25
205.849	65.19
206.068	46.76
206.287	65.19
206.505	149.16
206.724	52.91
206.943	13.99
207.162	59.05
207.381	69.29
207.599	-35.16
207.818	63.15
208.037	-18.77
208.255	24.23
208.474	120.49
208.693	93.87
208.911	1.71
209.13	57
209.349	130.73
209.567	145.06
209.786	128.68
210.005	140.97
210.223	59.05
210.442	-106.84
210.661	87.72
210.879	147.11
211.098	44.71
211.316	22.19
211.535	126.63
211.753	24.23
211.972	48.81
212.191	116.39
212.409	-12.63
212.628	77.48
212.846	-45.4
213.065	83.63
213.283	202.41
213.502	145.06
213.72	34.47
213.938	67.24
214.157	44.71
214.375	165.54
214.594	18.09
214.812	89.77
215.031	46.76
215.249	-16.73
215.467	24.23
215.686	198.31
215.904	108.2
216.122	59.05
216.341	175.78
216.559	97.96
216.778	83.63
216.996	183.98
217.214	73.39
217.432	106.15
217.651	71.34
217.869	40.62
218.087	54.95
218.306	59.05
218.524	69.29
218.742	104.11
218.96	83.63
219.179	18.09
219.397	16.04
219.615	210.6
219.833	138.92
220.051	59.05
220.27	206.5
220.488	112.3
220.706	112.3
220.924	34.47
221.142	-6.49
221.36	104.11
221.578	18.09
221.796	100.01
222.015	38.57
222.233	59.05
222.451	188.07
222.669	22.19
222.887	112.3
223.105	52.91
223.323	28.33
223.541	-20.82
223.759	118.44
223.977	79.53
224.195	190.12
224.413	112.3
224.631	116.39
224.849	46.76
225.067	194.22
225.285	95.91
225.503	83.63
225.721	-59.73
225.939	44.71
226.157	52.91
226.375	224.94
226.592	-26.96
226.81	28.33
227.028	75.43
227.246	169.64
227.464	112.3
227.682	165.54
227.9	116.39
228.117	95.91
228.335	216.74
228.553	-6.49
228.771	20.14
228.989	143.02
229.206	116.39
229.424	26.28
229.642	46.76
229.86	26.28
230.077	128.68
230.295	79.53
230.513	155.3
230.731	73.39
230.948	169.64
231.166	116.39
231.384	11.95
231.601	-37.2
231.819	145.06
232.037	54.95
232.254	-4.44
232.472	89.77
232.689	11.95
232.907	138.92
233.125	50.86
233.342	-12.63
233.56	26.28
233.777	-14.68
233.995	85.67
234.213	91.82
234.43	165.54
234.648	57
234.865	18.09
235.083	26.28
235.3	-0.34
235.518	126.63
235.735	132.78
235.953	194.22
236.17	18.09
236.388	-10.58
236.605	91.82
236.822	71.34
237.04	145.06
237.257	34.47
237.475	3.75
237.692	104.11
237.909	87.72
238.127	-65.88
238.344	34.47
238.562	5.8
238.779	-8.53
238.996	40.62
239.214	136.87
239.431	46.76
239.648	30.38
239.865	108.2
240.083	95.91
240.3	40.62
240.517	26.28
240.735	61.1
240.952	116.39
241.169	118.44
241.386	163.5
241.603	89.77
241.821	13.99
242.038	87.72
242.255	102.06
242.472	-0.34
242.689	136.87
242.907	130.73
243.124	44.71
243.341	52.91
243.558	-12.63
243.775	3.75
243.992	-31.06
244.209	120.49
244.426	243.37
244.643	93.87
244.86	24.23
245.078	163.5
245.295	36.52
245.512	32.43
245.729	34.47
245.946	134.82
246.163	95.91
246.38	22.19
246.597	79.53
246.814	46.76
247.031	26.28
247.248	32.43
247.464	130.73
247.681	73.39
247.898	157.35
248.115	54.95
248.332	-14.68
248.549	175.78
248.766	87.72
248.983	79.53
249.2	71.34
249.417	149.16
249.633	-2.39
249.85	124.58
250.067	24.23
250.284	116.39
250.501	100.01
250.717	132.78
250.934	20.14
251.151	61.1
251.368	26.28
251.585	44.71
251.801	46.76
252.018	9.9
252.235	179.88
252.451	57
252.668	5.8
252.885	124.58
253.102	138.92
253.318	54.95
253.535	18.09
253.752	5.8
253.968	36.52
254.185	-45.4
254.401	79.53
254.618	50.86
254.835	36.52
255.051	134.82
255.268	30.38
255.484	87.72
255.701	9.9
255.917	54.95
256.134	-22.87
256.351	83.63
256.567	24.23
256.784	30.38
257	-63.83
257.217	87.72
257.433	-0.34
257.65	79.53
257.866	114.34
258.082	3.75
258.299	18.09
258.515	95.91
258.732	-35.16
258.948	-4.44
259.165	100.01
259.381	38.57
259.597	120.49
259.814	11.95
260.03	42.67
260.246	61.1
260.463	149.16
260.679	136.87
260.895	57
261.112	95.91
261.328	52.91
261.544	75.43
261.761	149.16
261.977	-18.77
262.193	11.95
262.409	130.73
262.626	163.5
262.842	28.33
263.058	20.14
263.274	65.19
263.49	102.06
263.707	81.58
263.923	65.19
264.139	-12.63
264.355	67.24
264.571	128.68
264.787	100.01
265.004	114.34
265.22	54.95
265.436	59.05
265.652	-39.25
265.868	118.44
266.084	44.71
266.3	67.24
266.516	24.23
266.732	120.49
266.948	71.34
267.164	34.47
267.38	126.63
267.596	28.33
267.812	161.45
268.028	63.15
268.244	1.71
268.46	104.11
268.676	57
268.892	145.06
269.108	59.05
269.324	-76.12
269.54	-4.44
269.756	104.11
269.972	-51.54
270.188	34.47
270.403	67.24
270.619	28.33
270.835	38.57
271.051	87.72
271.267	30.38
271.483	-2.39
271.698	93.87
271.914	134.82
272.13	32.43
272.346	38.57
272.562	95.91
272.777	175.78
272.993	1.71
273.209	24.23
273.425	122.54
273.64	-14.68
273.856	110.25
274.072	5.8
274.287	24.23
274.503	32.43
274.719	116.39
274.934	-8.53
275.15	-47.44
275.366	-2.39
275.581	9.9
275.797	36.52
276.012	22.19
276.228	87.72
276.444	65.19
276.659	216.74
276.875	-43.35
277.09	-2.39
277.306	30.38
277.521	102.06
277.737	93.87
277.952	100.01
278.168	50.86
278.383	1.71
278.599	63.15
278.814	95.91
279.03	-0.34
279.245	71.34
279.461	34.47
279.676	95.91
279.892	54.95
280.107	-78.16
280.322	69.29
280.538	91.82
280.753	3.75
280.969	44.71
281.184	48.81
281.399	153.26
281.615	44.71
281.83	118.44
282.045	13.99
282.26	22.19
282.476	108.2
282.691	145.06
282.906	36.52
283.122	57
283.337	-6.49
283.552	79.53
283.767	102.06
283.983	149.16
284.198	112.3
284.413	118.44
284.628	-35.16
284.843	118.44
285.058	52.91
285.274	-2.39
285.489	7.85
285.704	165.54
285.919	38.57
286.134	95.91
286.349	36.52
286.564	67.24
286.779	171.69
286.995	28.33
287.21	-10.58
287.425	87.72
287.64	48.81
287.855	157.35
288.07	-37.2
288.285	120.49
288.5	165.54
288.715	102.06
288.93	85.67
289.145	32.43
289.36	95.91
289.575	42.67
289.79	124.58
290.004	28.33
290.219	140.97
290.434	-49.49
290.649	20.14
290.864	36.52
291.079	22.19
291.294	65.19
291.509	190.12
291.724	52.91
291.938	18.09
292.153	71.34
292.368	67.24
292.583	22.19
292.798	81.58
293.012	124.58
293.227	108.2
293.442	63.15
293.657	87.72
293.871	102.06
294.086	28.33
294.301	251.56
294.516	59.05
294.73	83.63
294.945	18.09
295.16	-39.25
295.374	200.36
295.589	52.91
295.804	-26.96
296.018	50.86
296.233	40.62
296.447	81.58
296.662	13.99
296.877	77.48
297.091	102.06
297.306	50.86
297.52	-18.77
297.735	122.54
297.949	91.82
298.164	59.05
298.378	108.2
298.593	42.67
298.807	-22.87
299.022	5.8
299.236	128.68
299.451	1.71
299.665	138.92
299.88	-18.77
300.094	83.63
300.309	91.82
300.523	63.15
300.737	75.43
300.952	79.53
301.166	20.14
301.381	36.52
301.595	-16.73
301.809	73.39
302.024	32.43
302.238	89.77
302.452	149.16
302.667	106.15
302.881	95.91
303.095	18.09
303.309	71.34
303.524	-8.53
303.738	93.87
303.952	13.99
304.166	52.91
304.381	-18.77
304.595	151.21
304.809	61.1
305.023	69.29
305.237	75.43
305.452	52.91
305.666	100.01
305.88	59.05
306.094	89.77
306.308	22.19
306.522	65.19
306.736	97.96
306.95	124.58
307.164	83.63
307.379	46.76
307.593	67.24
307.807	143.02
308.021	114.34
308.235	163.5
308.449	-24.92
308.663	20.14
308.877	169.64
309.091	44.71
309.305	128.68
309.519	-74.07
309.733	202.41
309.947	7.85
310.161	75.43
310.374	87.72
310.588	130.73
310.802	46.76
311.016	34.47
311.23	65.19
311.444	30.38
311.658	54.95
311.872	159.4
312.085	102.06
312.299	95.91
312.513	128.68
312.727	50.86
312.941	-0.34
313.154	91.82
313.368	132.78
313.582	143.02
313.796	143.02
314.009	140.97
314.223	77.48
314.437	-24.92
314.651	126.63
314.864	22.19
315.078	38.57
315.292	-72.02
315.505	61.1
315.719	48.81
315.933	65.19
316.146	26.28
316.36	1.71
316.573	153.26
316.787	97.96
317.001	128.68
317.214	-20.82
317.428	71.34
317.641	-14.68
317.855	95.91
318.068	93.87
318.282	71.34
318.495	263.85
318.709	89.77
318.922	13.99
319.136	153.26
319.349	128.68
319.563	-12.63
319.776	120.49
319.99	-43.35
320.203	93.87
320.417	112.3
320.63	116.39
320.843	202.41
321.057	59.05
321.27	83.63
321.483	153.26
321.697	69.29
321.91	-14.68
322.124	100.01
322.337	75.43
322.55	9.9
322.763	30.38
322.977	1.71
323.19	-12.63
323.403	71.34
323.617	75.43
323.83	83.63
324.043	71.34
324.256	50.86
324.469	-22.87
324.683	140.97
324.896	34.47
325.109	36.52
325.322	9.9
325.535	128.68
325.748	67.24
325.962	87.72
326.175	-4.44
326.388	63.15
326.601	165.54
326.814	11.95
327.027	83.63
327.24	130.73
327.453	-41.3
327.666	95.91
327.879	9.9
328.092	108.2
328.305	32.43
328.518	67.24
328.731	40.62
328.944	57
329.157	134.82
329.37	-31.06
329.583	218.79
329.796	104.11
330.009	-12.63
330.222	32.43
330.435	145.06
330.648	18.09
330.861	77.48
331.073	91.82
331.286	93.87
331.499	52.91
331.712	-51.54
331.925	61.1
332.138	24.23
332.35	175.78
332.563	-4.44
332.776	50.86
332.989	-12.63
333.202	46.76
333.414	-22.87
333.627	140.97
333.84	54.95
334.053	5.8
334.265	22.19
334.478	11.95
334.691	50.86
334.903	87.72
335.116	42.67
335.329	22.19
335.541	83.63
335.754	120.49
335.966	-2.39
336.179	116.39
336.392	-37.2
336.604	9.9
336.817	120.49
337.029	161.45
337.242	34.47
337.454	116.39
337.667	13.99
337.88	122.54
338.092	87.72
338.305	93.87
338.517	30.38
338.729	36.52
338.942	54.95
339.154	-2.39
339.367	1.71
339.579	100.01
339.792	44.71
340.004	116.39
340.217	73.39
340.429	20.14
340.641	61.1
340.854	-63.83
341.066	-31.06
341.278	91.82
341.491	282.28
341.703	54.95
341.915	3.75
342.128	85.67
342.34	108.2
342.552	11.95
342.764	77.48
342.977	52.91
343.189	87.72
343.401	159.4
343.613	48.81
343.826	75.43
344.038	63.15
344.25	93.87
344.462	-0.34
344.674	81.58
344.886	-0.34
345.099	91.82
345.311	65.19
345.523	9.9
345.735	-59.73
345.947	30.38
346.159	114.34
346.371	151.21
346.583	28.33
346.795	208.55
347.007	44.71
347.219	87.72
347.431	18.09
347.643	171.69
347.855	36.52
348.067	192.17
348.279	9.9
348.491	114.34
348.703	91.82
348.915	149.16
349.127	61.1
349.339	91.82
349.551	-18.77
349.763	165.54
349.975	16.04
350.187	95.91
350.399	54.95
350.61	153.26
350.822	93.87
351.034	147.11
351.246	30.38
351.458	134.82
351.669	77.48
351.881	128.68
352.093	108.2
352.305	159.4
352.517	50.86
352.728	151.21
352.94	95.91
353.152	38.57
353.363	-29.01
353.575	173.74
353.787	149.16
353.999	79.53
354.21	169.64
354.422	30.38
354.633	-29.01
354.845	132.78
355.057	126.63
355.268	44.71
355.48	143.02
355.692	-69.97
355.903	65.19
356.115	-4.44
356.326	-20.82
356.538	214.7
356.749	120.49
356.961	120.49
357.172	28.33
357.384	46.76
357.595	241.32
357.807	44.71
358.018	26.28
358.23	87.72
358.441	177.83
358.653	108.2
358.864	32.43
359.075	28.33
359.287	100.01
359.498	138.92
359.709	57
359.921	38.57
360.132	71.34
360.344	50.86
360.555	20.14
360.766	97.96
360.977	87.72
361.189	130.73
361.4	69.29
361.611	104.11
361.823	63.15
362.034	46.76
362.245	-35.16
362.456	11.95
362.667	116.39
362.879	-14.68
363.09	95.91
363.301	65.19
363.512	34.47
363.723	22.19
363.935	61.1
364.146	218.79
364.357	18.09
364.568	114.34
364.779	9.9
364.99	186.02
365.201	73.39
365.412	145.06
365.623	3.75
365.834	87.72
366.045	104.11
366.256	93.87
366.467	54.95
366.678	52.91
366.889	46.76
367.1	79.53
367.311	145.06
367.522	-10.58
367.733	126.63
367.944	128.68
368.155	38.57
368.366	106.15
368.577	112.3
368.788	52.91
368.999	-61.78
369.209	28.33
369.42	220.84
369.631	212.65
369.842	128.68
370.053	28.33
370.264	147.11
370.474	63.15
370.685	11.95
370.896	95.91
371.107	186.02
371.317	57
371.528	69.29
371.739	151.21
371.95	38.57
372.16	118.44
372.371	-47.44
372.582	30.38
372.792	71.34
373.003	77.48
373.214	157.35
373.424	143.02
373.635	-24.92
373.846	124.58
374.056	83.63
374.267	34.47
374.477	81.58
374.688	46.76
374.898	59.05
375.109	40.62
375.319	59.05
375.53	153.26
375.74	91.82
375.951	40.62
376.161	134.82
376.372	69.29
376.582	-55.64
376.793	34.47
377.003	-47.44
377.214	126.63
377.424	38.57
377.635	22.19
377.845	-18.77
378.055	161.45
378.266	-18.77
378.476	-2.39
378.686	79.53
378.897	79.53
379.107	128.68
379.317	108.2
379.528	3.75
379.738	79.53
379.948	16.04
380.158	147.11
380.369	32.43
380.579	116.39
380.789	77.48
380.999	112.3
381.21	22.19
381.42	280.23
381.63	52.91
381.84	91.82
382.05	48.81
382.261	126.63
382.471	206.5
382.681	67.24
382.891	145.06
383.101	59.05
383.311	26.28
383.521	40.62
383.731	106.15
383.941	71.34
384.151	54.95
384.361	40.62
384.571	67.24
384.781	102.06
384.991	216.74
385.201	194.22
385.411	87.72
385.621	114.34
385.831	22.19
386.041	93.87
386.251	112.3
386.461	93.87
386.671	9.9
386.881	46.76
387.091	42.67
387.301	122.54
387.511	143.02
387.72	9.9
387.93	151.21
388.14	-45.4
388.35	93.87
388.56	143.02
388.769	132.78
388.979	112.3
389.189	-6.49
389.399	75.43
389.609	38.57
389.818	104.11
390.028	95.91
390.238	75.43
390.447	46.76
390.657	69.29
390.867	50.86
391.076	63.15
391.286	100.01
391.496	71.34
391.705	104.11
391.915	108.2
392.125	71.34
392.334	63.15
392.544	206.5
392.753	46.76
392.963	34.47
393.172	54.95
393.382	-26.96
393.591	124.58
393.801	-4.44
394.01	161.45
394.22	85.67
394.429	28.33
394.639	59.05
394.848	13.99
395.058	126.63
395.267	112.3
395.477	83.63
395.686	157.35
395.895	214.7
396.105	237.22
396.314	132.78
396.524	50.86
396.733	77.48
396.942	104.11
397.152	120.49
397.361	177.83
397.57	79.53
397.78	108.2
397.989	114.34
398.198	208.55
398.407	63.15
398.617	-2.39
398.826	73.39
399.035	22.19
399.244	169.64
399.453	112.3
399.663	11.95
399.872	69.29
400.081	-14.68
400.29	149.16
400.499	59.05
400.708	153.26
400.917	65.19
401.127	46.76
401.336	46.76
401.545	202.41
401.754	224.94
401.963	112.3
402.172	24.23
402.381	-16.73
402.59	50.86
402.799	52.91
403.008	102.06
403.217	63.15
403.426	89.77
403.635	-92.5
403.844	116.39
404.053	-35.16
404.262	11.95
404.471	243.37
404.68	85.67
404.888	-63.83
405.097	30.38
405.306	-0.34
405.515	130.73
405.724	26.28
405.933	87.72
406.142	77.48
406.35	128.68
406.559	77.48
406.768	81.58
406.977	145.06
407.185	112.3
407.394	157.35
407.603	-26.96
407.812	83.63
408.02	128.68
408.229	18.09
408.438	38.57
408.646	11.95
408.855	18.09
409.064	83.63
409.272	20.14
409.481	108.2
409.69	50.86
409.898	59.05
410.107	26.28
410.315	83.63
410.524	-47.44
410.733	52.91
410.941	36.52
411.15	77.48
411.358	40.62
411.567	132.78
411.775	54.95
411.984	130.73
412.192	161.45
412.401	-49.49
412.609	161.45
412.818	40.62
413.026	112.3
413.234	87.72
413.443	26.28
413.651	42.67
413.86	67.24
414.068	136.87
414.276	169.64
414.485	112.3
414.693	153.26
414.901	181.93
415.11	83.63
415.318	13.99
415.526	95.91
415.734	104.11
415.943	44.71
416.151	206.5
416.359	112.3
416.567	79.53
416.776	136.87
416.984	120.49
417.192	220.84
417.4	59.05
417.608	42.67
417.817	-41.3
418.025	77.48
418.233	224.94
418.441	-2.39
418.649	42.67
418.857	112.3
419.065	149.16
419.273	11.95
419.481	71.34
419.689	67.24
419.897	38.57
420.105	22.19
420.313	179.88
420.521	175.78
420.729	126.63
420.937	-14.68
421.145	38.57
421.353	128.68
421.561	210.6
421.769	143.02
421.977	100.01
422.185	140.97
422.393	13.99
422.601	136.87
422.809	128.68
423.017	65.19
423.224	128.68
423.432	161.45
423.64	114.34
423.848	177.83
424.056	48.81
424.263	116.39
424.471	24.23
424.679	165.54
424.887	32.43
425.094	52.91
425.302	118.44
425.51	63.15
425.718	128.68
425.925	97.96
426.133	16.04
426.341	239.27
426.548	65.19
426.756	-4.44
426.964	116.39
427.171	116.39
427.379	20.14
427.586	-4.44
427.794	161.45
428.001	153.26
428.209	122.54
428.417	110.25
428.624	169.64
428.832	112.3
429.039	87.72
429.247	87.72
429.454	85.67
429.662	177.83
429.869	136.87
430.076	130.73
430.284	130.73
430.491	212.65
430.699	102.06
430.906	186.02
431.114	159.4
431.321	169.64
431.528	104.11
431.736	143.02
431.943	136.87
432.15	224.94
432.358	224.94
432.565	249.51
432.772	16.04
432.979	214.7
433.187	128.68
433.394	196.26
433.601	95.91
433.808	243.37
434.016	202.41
434.223	272.04
434.43	212.65
434.637	169.64
434.844	333.48
435.052	179.88
435.259	310.95
435.466	294.57
435.673	292.52
435.88	362.15
436.087	339.62
436.294	353.96
436.501	216.74
436.708	331.43
436.915	247.46
437.122	267.94
437.329	358.05
437.537	284.33
437.743	417.44
437.95	382.63
438.157	286.37
438.364	341.67
438.571	433.83
438.778	435.88
438.985	407.2
439.192	419.49
439.399	349.86
439.606	478.88
439.813	538.27
440.02	622.24
440.227	571.04
440.433	421.54
440.64	579.23
440.847	394.92
441.054	507.55
441.261	663.2
441.467	521.89
441.674	421.54
441.881	646.82
442.088	683.68
442.294	710.3
442.501	710.3
442.708	888.48
442.914	761.5
443.121	814.75
443.328	771.74
443.534	868
443.741	784.03
443.948	677.54
444.154	908.96
444.361	1085.08
444.568	874.14
444.774	984.73
444.981	925.34
445.187	1035.93
445.394	968.35
445.6	1037.98
445.807	1267.35
446.013	1226.39
446.22	1113.75
446.426	1242.78
446.633	1289.88
446.839	1519.25
447.046	1300.12
447.252	1511.06
447.459	1336.98
447.665	1463.96
447.871	1619.6
448.078	1810.06
448.284	1771.15
448.491	1730.19
448.697	1928.85
448.903	1881.74
449.11	2010.76
449.316	1953.42
449.522	2141.83
449.728	2135.69
449.935	2338.44
450.141	2444.93
450.347	2473.6
450.553	2346.63
450.76	2512.52
450.966	2672.26
451.172	2762.37
451.378	2772.61
451.584	2938.49
451.791	3030.65
451.997	3079.8
452.203	3184.25
452.409	3497.59
452.615	3417.72
452.821	3462.77
453.027	3487.35
453.233	3933.81
453.44	3782.26
453.646	4175.47
453.852	4197.99
454.058	4249.19
454.264	4535.91
454.47	4822.63
454.676	4843.1
454.882	5172.83
455.088	4961.89
455.294	5238.36
455.5	5717.59
455.705	5963.34
455.911	5877.33
456.117	6168.14
456.323	6198.86
456.529	6090.32
456.735	7011.9
456.941	7009.86
457.147	7382.59
457.352	7628.34
457.558	7751.22
457.764	8209.97
457.97	8455.72
458.176	8558.12
458.381	8994.34
458.587	9311.77
458.793	9786.9
458.999	9592.34
459.204	11017.73
459.41	11351.55
459.616	11068.93
459.821	11654.65
460.027	12336.62
460.233	12809.7
460.438	12979.68
460.644	13747.67
460.85	13821.4
461.055	14218.71
461.261	15146.44
461.466	14919.11
461.672	15211.97
461.878	16766.38
462.083	16704.94
462.289	17051.05
462.494	17933.72
462.7	17946.01
462.905	18034.07
463.111	19244.42
463.316	20370.8
463.522	20852.08
463.727	21298.53
463.932	22076.76
464.138	23051.59
464.343	24128.83
464.549	24159.55
464.754	25931.04
464.959	26578.2
465.165	26967.31
465.37	26762.51
465.575	26639.64
465.781	28691.7
465.986	29402.35
466.191	28355.83
466.397	29463.79
466.602	28548.34
466.807	30065.89
467.012	30764.25
467.218	30915.79
467.423	31409.36
467.628	32128.19
467.833	33703.08
468.038	33301.68
468.244	32394.43
468.449	34086.05
468.654	33582.25
468.859	33361.07
469.064	33897.64
469.269	32853.17
469.474	33199.28
469.679	33918.12
469.885	33379.5
470.09	33504.43
470.295	33774.76
470.5	33068.21
470.705	32754.87
470.91	32419
471.115	31755.46
471.32	32509.11
471.525	32169.15
471.73	31136.98
471.935	31151.31
472.139	29895.91
472.344	30418.14
472.549	29932.77
472.754	29009.14
472.959	28564.73
473.164	27700.48
473.369	27415.82
473.574	28304.63
473.778	27366.67
473.983	27153.68
474.188	26682.64
474.393	25267.5
474.598	25361.7
474.802	24659.25
475.007	24472.89
475.212	24046.91
475.417	23244.1
475.621	22975.82
475.826	22721.87
476.031	22236.5
476.235	21796.19
476.44	21970.27
476.645	21192.04
476.849	21124.46
477.054	20546.93
477.259	20028.79
477.463	20051.32
477.668	19721.6
477.872	19647.87
478.077	18924.94
478.282	18560.4
478.486	18343.31
478.691	18150.81
478.895	17876.38
479.1	17806.75
479.304	17929.63
479.509	17178.02
479.713	17507.74
479.918	17075.62
480.122	16473.52
480.326	16553.39
480.531	16610.73
480.735	16438.7
480.94	16090.55
481.144	16614.83
481.348	15764.92
481.553	15797.69
481.757	15717.82
481.961	15740.35
482.166	15721.91
482.37	15482.3
482.574	15144.39
482.778	15115.72
482.983	15230.4
483.187	15119.81
483.391	15046.09
483.595	14706.12
483.8	14486.99
484.004	14691.79
484.208	14710.22
484.412	14478.8
484.616	14130.64
484.821	13954.52
485.025	13753.82
485.229	13856.22
485.433	13602.27
485.637	13430.24
485.841	13250.02
486.045	12940.77
486.249	12797.42
486.453	12611.05
486.657	12582.38
486.861	12371.44
487.065	11939.32
487.269	11818.49
487.473	11314.69
487.677	11814.39
487.881	11798.01
488.085	10976.77
488.289	11197.95
488.493	10841.61
488.697	11009.54
488.901	10712.58
489.105	10212.88
489.309	10204.69
489.512	10153.49
489.716	9879.06
489.92	9635.35
490.124	9672.22
490.328	9573.91
490.531	9125.41
490.735	9094.69
490.939	8889.89
491.143	8664.61
491.346	8562.22
491.55	8668.71
491.754	8166.96
491.958	8263.21
492.161	8099.38
492.365	7994.93
492.569	7771.7
492.772	7861.81
492.976	7745.08
493.18	7454.26
493.383	7591.48
493.587	7589.43
493.79	7433.79
493.994	7292.48
494.197	7220.8
494.401	7200.32
494.605	6893.12
494.808	7042.62
495.012	7001.66
495.215	7050.82
495.419	6927.94
495.622	6790.72
495.825	6784.58
496.029	6665.8
496.232	6821.44
496.436	6561.35
496.639	6923.84
496.843	6510.15
497.046	6555.21
497.249	6891.07
497.453	6684.23
497.656	6698.56
497.859	6659.65
498.063	6778.44
498.266	6872.64
498.469	6399.56
498.673	6600.26
498.876	6837.83
499.079	6919.75
499.282	6891.07
499.485	7272
499.689	7048.77
499.892	7097.92
500.095	7011.9
500.298	7145.02
500.501	7073.34
500.705	7339.58
500.908	7353.91
501.111	7282.24
501.314	7525.94
501.517	7468.6
501.72	7503.42
501.923	7487.03
502.126	7794.23
502.329	7898.67
502.532	7837.24
502.735	7775.8
502.938	8138.29
503.141	8314.41
503.344	8212.01
503.547	8199.73
503.75	8402.47
503.953	8631.85
504.156	8711.72
504.359	8586.79
504.562	8767.01
504.765	9201.18
504.968	9192.99
505.17	9485.85
505.373	9541.15
505.576	9698.84
505.779	9702.93
505.982	9877.01
506.185	10120.72
506.387	10311.18
506.59	10395.15
506.793	10520.07
506.996	10720.78
507.198	11030.02
507.401	11103.75
507.604	11513.34
507.807	11865.59
508.009	11750.9
508.212	11974.13
508.415	12275.18
508.617	12555.76
508.82	12609
509.022	12738.02
509.225	13403.61
509.428	13684.19
509.63	13874.65
509.833	13958.61
510.035	14648.78
510.238	14693.83
510.44	15158.72
510.643	15484.35
510.845	15627.71
511.048	15824.31
511.25	16221.62
511.453	16612.78
511.655	17345.95
511.858	17536.42
512.06	17773.98
512.262	18130.33
512.465	18523.54
512.667	19025.29
512.87	19357.06
513.072	19766.65
513.274	20503.92
513.477	20538.74
513.679	21267.81
513.881	21523.81
514.084	21927.26
514.286	22390.1
514.488	22965.58
514.69	23758.14
514.893	24087.87
515.095	24716.59
515.297	24923.44
515.499	25222.44
515.701	25947.42
515.904	26598.68
516.106	27000.08
516.308	27645.19
516.51	28419.32
516.712	28484.86
516.914	29150.45
517.116	29867.23
517.318	30000.35
517.52	30395.61
517.722	31118.54
517.925	31560.91
518.127	32814.26
518.329	32746.68
518.531	32982.2
518.733	34243.74
518.935	34686.11
519.136	34995.35
519.338	35529.87
519.54	36150.4
519.742	36308.1
519.944	37090.42
520.146	37602.41
520.348	38456.42
520.55	38605.92
520.752	38837.34
520.954	39425.11
521.155	39570.51
521.357	40324.16
521.559	40774.72
521.761	41352.24
521.963	41696.3
522.164	41706.54
522.366	41987.11
522.568	42286.12
522.77	42822.69
522.971	43818
523.173	43535.38
523.375	44209.16
523.576	43287.57
523.778	43693.07
523.98	44495.88
524.181	44456.96
524.383	44563.46
524.584	44737.54
524.786	44934.14
524.988	44841.98
525.189	44878.85
525.391	45292.54
525.592	45059.07
525.794	45077.5
525.995	44887.04
526.197	44712.96
526.398	44903.42
526.6	45046.78
526.801	44872.7
527.003	44829.69
527.204	44321.8
527.406	44839.93
527.607	44319.75
527.808	43850.77
528.01	43115.54
528.211	43129.88
528.412	43824.14
528.614	43486.23
528.815	42611.74
529.016	42929.18
529.218	41665.58
529.419	41696.3
529.62	41368.63
529.822	41225.27
530.023	40408.13
530.224	39996.49
530.425	39969.86
530.626	39470.16
530.828	38610.01
531.029	39070.81
531.23	38268
531.431	37495.92
531.632	37500.01
531.833	37129.33
532.035	36670.59
532.236	36007.05
532.437	35925.13
532.638	35126.42
532.839	35030.16
533.04	34344.09
533.241	33776.81
533.442	33950.88
533.643	33232.05
533.844	32414.91
534.045	32216.26
534.246	31775.94
534.447	31646.92
534.648	30743.77
534.849	30805.2
535.05	30156
535.251	29900
535.451	29549.8
535.652	29138.16
535.853	28374.27
536.054	28411.13
536.255	27958.53
536.456	27190.54
536.657	27522.31
536.857	26610.96
537.058	26184.99
537.259	26090.78
537.46	25748.77
537.66	25404.71
537.861	25161
538.062	24581.43
538.263	24407.35
538.463	23930.17
538.664	23541.06
538.865	23668.03
539.065	23332.17
539.266	22842.7
539.466	22828.37
539.667	22164.82
539.868	22201.69
540.068	21738.85
540.269	21302.63
540.469	21196.14
540.67	21024.11
540.87	20966.76
541.071	20637.04
541.271	20436.34
541.472	20215.16
541.672	19785.08
541.873	19426.69
542.073	19094.92
542.274	19445.12
542.474	19135.88
542.675	18460.05
542.875	18621.84
543.075	18314.64
543.276	18089.37
543.476	18173.33
543.676	17532.32
543.877	17487.26
544.077	17493.41
544.277	17325.47
544.478	16694.7
544.678	16840.11
544.878	16336.31
545.078	16397.74
545.279	16045.49
545.479	15769.02
545.679	15795.64
545.879	15472.06
546.079	15461.82
546.28	14974.41
546.48	15091.14
546.68	15128
546.88	14714.31
547.08	14730.7
547.28	14417.36
547.48	14142.93
547.68	14226.9
547.88	13628.89
548.081	13876.69
548.281	13409.76
548.481	13407.71
548.681	13245.92
548.881	12895.72
549.081	12957.16
549.28	12748.26
549.48	12662.25
549.68	12525.04
549.88	12211.7
550.08	11718.14
550.28	11752.95
550.48	11927.03
550.68	11505.15
550.88	11359.74
551.08	11279.87
551.279	11316.73
551.479	10831.37
551.679	11083.27
551.879	10622.47
552.079	10536.46
552.278	10464.78
552.478	10438.16
552.678	10079.76
552.878	9874.96
553.077	9606.68
553.277	9440.79
553.477	9549.34
553.676	9188.89
553.876	9102.88
554.076	8873.51
554.275	8945.19
554.475	8709.67
554.674	8728.1
554.874	8543.78
555.074	8302.12
555.273	8130.09
555.473	7968.31
555.672	7927.35
555.872	7900.72
556.071	7622.2
556.271	7841.33
556.47	7398.97
556.67	7317.05
556.869	7245.37
557.068	7112.25
557.268	6782.53
557.467	6866.5
557.667	6882.88
557.866	6805.06
558.065	6661.7
558.265	6526.54
558.464	6217.29
558.663	6317.64
558.863	6147.66
559.062	6186.57
559.261	5854.8
559.461	5992.02
559.66	5705.3
559.859	5561.94
560.058	5463.64
560.258	5451.35
560.457	5459.54
560.656	5461.59
560.855	5166.68
561.054	5289.56
561.253	5092.96
561.453	5023.33
561.652	4955.74
561.851	4925.02
562.05	4687.46
562.249	4521.57
562.448	4580.96
562.647	4609.64
562.846	4548.2
563.045	4548.2
563.244	4417.13
563.443	4472.42
563.642	4136.56
563.841	4310.63
564.04	4032.11
564.239	4081.26
564.438	3878.51
564.637	3905.14
564.836	3862.13
565.035	3817.07
565.234	3870.32
565.432	3683.95
565.631	3796.59
565.83	3698.29
566.029	3448.44
566.228	3579.51
566.427	3593.84
566.625	3225.21
566.824	3290.74
567.023	3475.06
567.222	3251.83
567.42	3266.17
567.619	3176.06
567.818	3120.76
568.016	3157.63
568.215	3024.51
568.414	3147.39
568.612	2952.83
568.811	3055.23
569.01	2877.05
569.208	2875.01
569.407	2856.58
569.605	2848.38
569.804	2709.12
570.002	2653.83
570.201	2612.87
570.4	2643.59
570.598	2559.62
570.797	2555.52
570.995	2479.75
571.193	2496.13
571.392	2487.94
571.59	2346.63
571.789	2463.37
571.987	2236.04
572.186	2389.64
572.384	2197.13
572.582	2309.77
572.781	2344.58
572.979	2221.7
573.177	2080.39
573.376	2203.27
573.574	2240.14
573.772	1978
573.971	2000.52
574.169	1873.55
574.367	1963.66
574.565	1863.31
574.763	1939.09
574.962	1861.26
575.16	1816.21
575.358	1689.23
575.556	1816.21
575.754	1689.23
575.952	1781.39
576.151	1625.75
576.349	1666.71
576.547	1549.97
576.745	1640.08
576.943	1660.56
577.141	1552.02
577.339	1517.2
577.537	1463.96
577.735	1582.74
577.933	1529.49
578.131	1396.37
578.329	1519.25
578.527	1343.13
578.725	1447.57
578.923	1334.93
579.121	1398.42
579.319	1214.1
579.516	1396.37
579.714	1545.88
579.912	1306.26
580.11	1107.61
580.308	1199.77
580.506	1263.26
580.704	1099.42
580.901	1083.03
581.099	1199.77
581.297	1126.04
581.495	1185.43
581.692	1021.6
581.89	1287.83
582.088	1046.17
582.285	1021.6
582.483	1119.9
582.681	1023.64
582.878	1052.31
583.076	1035.93
583.274	1103.51
583.471	1087.13
583.669	1044.12
583.866	923.29
584.064	1025.69
584.262	863.9
584.459	882.33
584.657	974.49
584.854	927.39
585.052	900.76
585.249	927.39
585.447	933.53
585.644	669.34
585.841	954.01
586.039	911
586.236	886.43
586.434	700.06
586.631	767.65
586.828	775.84
587.026	802.46
587.223	609.95
587.42	704.16
587.618	761.5
587.815	781.98
588.012	689.82
588.21	718.5
588.407	700.06
588.604	741.02
588.801	632.48
588.999	667.3
589.196	646.82
589.393	640.67
589.59	734.88
589.787	706.21
589.984	693.92
590.182	773.79
590.379	612
590.576	655.01
590.773	650.91
590.97	630.43
591.167	704.16
591.364	794.27
591.561	650.91
591.758	837.28
591.955	693.92
592.152	603.81
592.349	542.37
592.546	609.95
592.743	636.58
592.94	609.95
593.137	566.95
593.334	806.56
593.531	605.86
593.727	618.15
593.924	669.34
594.121	587.43
594.318	616.1
594.515	673.44
594.712	718.5
594.908	718.5
595.105	599.71
595.302	691.87
595.499	638.62
595.696	747.17
595.892	716.45
596.089	708.26
596.286	691.87
596.482	790.17
596.679	794.27
596.876	738.98
597.072	814.75
597.269	755.36
597.466	800.41
597.662	759.46
597.859	798.37
598.055	861.85
598.252	945.82
598.448	919.2
598.645	933.53
598.841	1007.26
599.038	1091.23
599.234	1111.71
599.431	1103.51
599.627	1105.56
599.824	1164.95
600.02	1169.05
600.217	1160.86
600.413	1316.5
600.609	1334.93
600.806	1527.44
601.002	1365.65
601.198	1463.96
601.395	1740.43
601.591	1463.96
601.787	1646.23
601.984	1681.04
602.18	1775.25
602.376	1840.78
602.572	1810.06
602.769	2031.24
602.965	1988.24
603.161	2145.93
603.357	2158.22
603.553	2211.46
603.75	2229.9
603.946	2317.96
604.142	2512.52
604.338	2748.03
604.534	2614.91
604.73	2780.8
604.926	2862.72
605.122	2928.25
605.318	2989.69
605.514	3266.17
605.71	3067.52
605.906	3538.55
606.102	3323.51
606.298	3643
606.494	3677.81
606.69	3649.14
606.886	3894.9
607.082	3767.92
607.278	3999.34
607.474	4032.11
607.67	4296.3
607.866	4224.62
608.062	4560.49
608.257	4707.94
608.453	4826.72
608.649	4949.6
608.845	4851.3
609.041	5031.52
609.236	5178.97
609.432	5461.59
609.628	5531.22
609.824	5690.96
610.019	5822.03
610.215	5957.2
610.411	6198.86
610.606	6321.74
610.802	6436.42
610.998	6743.62
611.193	6725.19
611.389	6764.1
611.584	7222.84
611.78	7173.69
611.976	7710.26
612.171	7843.38
612.367	7949.87
612.562	8076.85
612.758	8392.23
612.953	8334.89
613.149	8830.5
613.344	8807.97
613.539	9270.81
613.735	9508.38
613.93	9680.41
614.126	9811.48
614.321	10595.85
614.517	10653.19
614.712	10790.41
614.907	11116.03
615.103	11425.28
615.298	11492.86
615.493	11888.12
615.688	12223.98
615.884	12791.27
616.079	12834.28
616.274	12951.01
616.47	13565.4
616.665	13944.28
616.86	14083.54
617.055	14409.17
617.25	14751.18
617.445	15375.81
617.641	15420.86
617.836	16168.37
618.031	16172.47
618.226	16661.93
618.421	17151.4
618.616	17671.58
618.811	17786.27
619.006	18527.63
619.201	18490.77
619.396	19144.07
619.591	19137.93
619.786	20086.14
619.981	20000.12
620.176	20731.25
620.371	21054.83
620.566	21636.45
620.761	22041.95
620.956	22598.99
621.151	22783.31
621.346	23502.15
621.541	23764.29
621.735	24503.6
621.93	24550.71
622.125	25314.6
622.32	25605.41
622.515	26055.97
622.709	26590.48
622.904	27071.76
623.099	27559.17
623.294	27847.94
623.488	28235
623.683	28955.89
623.878	28925.17
624.072	29926.63
624.267	30201.05
624.462	30670.04
624.656	30962.9
624.851	31675.59
625.046	32001.22
625.24	32474.3
625.435	32666.81
625.629	33479.85
625.824	34081.95
626.018	34600.09
626.213	34356.38
626.407	35075.22
626.602	35019.92
626.796	35873.93
626.991	36342.91
627.185	36639.87
627.38	36340.86
627.574	37051.51
627.768	36838.52
627.963	37149.81
628.157	37362.8
628.352	37543.02
628.546	37229.68
628.74	37735.53
628.935	37260.4
629.129	37620.84
629.323	37317.75
629.517	37315.7
629.712	37067.89
629.906	36756.6
630.1	36222.08
630.294	36103.3
630.489	35564.68
630.683	35677.32
630.877	34741.4
631.071	34151.59
631.265	33836.2
631.459	33242.29
631.653	32300.22
631.848	31931.59
632.042	31513.8
632.236	30807.25
632.43	29523.18
632.624	29156.59
632.818	28189.95
633.012	27491.59
633.206	26373.4
633.4	25898.27
633.594	24536.37
633.788	24010.04
633.982	23000.4
634.176	22601.04
634.369	21634.4
634.563	21095.78
634.757	19842.43
634.951	19383.68
635.145	18517.39
635.339	18017.69
635.533	17298.85
635.726	16448.94
635.92	15799.74
636.114	15228.35
636.308	14740.94
636.501	14196.18
636.695	13741.53
636.889	12719.59
637.083	12598.76
637.276	11832.82
637.47	11476.48
637.664	10845.7
637.857	10409.48
638.051	10044.95
638.244	9879.06
638.438	9358.88
638.632	9027.1
638.825	8541.74
639.019	8351.28
639.212	7921.2
639.406	7532.09
639.599	7335.48
639.793	7118.4
639.986	6698.56
640.18	6491.72
640.373	6080.08
640.567	6133.33
640.76	5828.18
640.954	5520.98
641.147	5060.19
641.34	5236.31
641.534	4847.2
641.727	4920.93
641.92	4640.36
642.114	4490.85
642.307	4277.87
642.5	4058.73
642.694	3970.67
642.887	3712.63
643.08	3849.84
643.273	3659.38
643.467	3303.03
643.66	3341.94
643.853	3194.49
644.046	3083.9
644.239	2999.93
644.432	2838.14
644.626	2524.8
644.819	2553.48
645.012	2496.13
645.205	2440.84
645.398	2485.89
645.591	2176.65
645.784	2076.3
645.977	1967.76
646.17	2092.68
646.363	1969.8
646.556	1842.83
646.749	1734.29
646.942	1685.14
647.135	1765.01
647.328	1502.87
647.521	1597.07
647.714	1472.15
647.907	1367.7
648.099	1293.97
648.292	1439.38
648.485	1396.37
648.678	1144.47
648.871	1177.24
649.064	1099.42
649.256	1070.75
649.449	1037.98
649.642	966.3
649.835	951.96
650.027	935.58
650.22	1035.93
650.413	882.33
650.605	902.81
650.798	835.23
650.991	824.99
651.183	771.74
651.376	784.03
651.568	798.37
651.761	724.64
651.954	644.77
652.146	620.19
652.339	712.35
652.531	685.73
652.724	548.51
652.916	562.85
653.109	478.88
653.301	675.49
653.494	566.95
653.686	460.45
653.879	554.66
654.071	593.57
654.263	497.32
654.456	427.68
654.648	517.79
654.84	577.19
655.033	411.3
655.225	505.51
655.417	417.44
655.61	452.26
655.802	538.27
655.994	472.74
656.186	313
656.379	450.21
656.571	302.76
656.763	315.05
656.955	308.9
657.148	396.96
657.34	444.07
657.532	333.48
657.724	341.67
657.916	298.66
658.108	325.29
658.3	306.85
658.492	306.85
658.684	265.89
658.876	356.01
659.068	292.52
659.26	249.51
659.452	222.89
659.644	302.76
659.836	392.87
660.028	220.84
660.22	222.89
660.412	218.79
660.604	171.69
660.796	319.14
660.988	282.28
661.18	229.03
661.372	231.08
661.563	241.32
661.755	173.74
661.947	190.12
662.139	77.48
662.331	306.85
662.522	235.18
662.714	173.74
662.906	208.55
663.097	188.07
663.289	216.74
663.481	106.15
663.673	175.78
663.864	214.7
664.056	220.84
664.247	120.49
664.439	269.99
664.631	220.84
664.822	276.13
665.014	171.69
665.205	210.6
665.397	171.69
665.588	216.74
665.78	138.92
665.971	183.98
666.163	132.78
666.354	208.55
666.546	110.25
666.737	83.63
666.929	153.26
667.12	231.08
667.311	167.59
667.503	194.22
667.694	210.6
667.885	206.5
668.077	278.18
668.268	128.68
668.459	231.08
668.651	126.63
668.842	155.3
669.033	61.1
669.224	120.49
669.416	425.64
669.607	136.87
669.798	175.78
669.989	288.42
670.18	161.45
670.371	214.7
670.563	75.43
670.754	329.38
670.945	249.51
671.136	226.98
671.327	175.78
671.518	243.37
671.709	319.14
671.9	249.51
672.091	300.71
672.282	167.59
672.473	147.11
672.664	108.2
672.855	186.02
673.046	218.79
673.237	216.74
673.428	87.72
673.619	321.19
673.809	143.02
674	284.33
674.191	145.06
674.382	183.98
674.573	186.02
674.764	138.92
674.954	269.99
675.145	147.11
675.336	151.21
675.527	202.41
675.717	161.45
675.908	276.13
676.099	186.02
676.289	278.18
676.48	126.63
676.671	157.35
676.861	175.78
677.052	290.47
677.243	194.22
677.433	177.83
677.624	274.09
677.814	237.22
678.005	229.03
678.195	333.48
678.386	192.17
678.576	181.93
678.767	159.4
678.957	196.26
679.148	276.13
679.338	382.63
679.529	276.13
679.719	212.65
679.909	298.66
680.1	339.62
680.29	304.81
680.481	163.5
680.671	347.81
680.861	306.85
681.052	298.66
681.242	188.07
681.432	251.56
681.622	286.37
681.813	216.74
682.003	218.79
682.193	188.07
682.383	329.38
682.573	257.7
682.764	204.46
682.954	317.09
683.144	333.48
683.334	265.89
683.524	341.67
683.714	325.29
683.904	253.61
684.094	265.89
684.284	276.13
684.474	372.39
684.664	356.01
684.854	331.43
685.044	286.37
685.234	345.77
685.424	366.25
685.614	319.14
685.804	427.68
685.994	298.66
686.184	292.52
686.374	308.9
686.564	315.05
686.753	265.89
686.943	267.94
687.133	157.35
687.323	280.23
687.513	347.81
687.702	288.42
687.892	298.66
688.082	358.05
688.272	327.33
688.461	392.87
688.651	343.72
688.841	360.1
689.03	317.09
689.22	331.43
689.41	263.85
689.599	374.44
689.789	290.47
689.979	347.81
690.168	298.66
690.358	325.29
690.547	251.56
690.737	296.61
690.926	308.9
691.116	315.05
691.305	370.34
691.495	308.9
691.684	210.6
691.874	181.93
692.063	249.51
692.252	245.41
692.442	353.96
692.631	220.84
692.82	278.18
693.01	235.18
693.199	222.89
693.388	345.77
693.578	255.65
693.767	241.32
693.956	329.38
694.146	196.26
694.335	247.46
694.524	157.35
694.713	364.2
694.902	235.18
695.092	165.54
695.281	308.9
695.47	175.78
695.659	272.04
695.848	214.7
696.037	175.78
696.226	341.67
696.415	222.89
696.604	341.67
696.793	317.09
696.982	143.02
697.171	386.72
697.36	214.7
697.549	218.79
697.738	214.7
697.927	325.29
698.116	149.16
698.305	204.46
698.494	245.41
698.683	231.08
698.872	288.42
699.061	241.32
699.25	231.08
699.438	165.54
699.627	231.08
699.816	370.34
700.005	153.26
700.193	186.02
700.382	335.53
700.571	190.12
700.76	263.85
700.948	313
701.137	226.98
701.326	249.51
701.514	202.41
701.703	218.79
701.892	237.22
702.08	315.05
702.269	210.6
702.457	208.55
702.646	337.57
702.834	200.36
703.023	231.08
703.212	253.61
703.4	265.89
703.589	116.39
703.777	165.54
703.965	143.02
704.154	226.98
704.342	114.34
704.531	175.78
704.719	192.17
704.907	333.48
705.096	143.02
705.284	163.5
705.472	208.55
705.661	224.94
705.849	284.33
706.037	263.85
706.226	243.37
706.414	251.56
706.602	177.83
706.79	288.42
706.979	235.18
707.167	243.37
707.355	95.91
707.543	284.33
707.731	222.89
707.919	186.02
708.107	247.46
708.296	157.35
708.484	149.16
708.672	251.56
708.86	241.32
709.048	257.7
709.236	161.45
709.424	198.31
709.612	231.08
709.8	134.82
709.988	282.28
710.176	349.86
710.364	360.1
710.551	208.55
710.739	167.59
710.927	257.7
711.115	204.46
711.303	241.32
711.491	319.14
711.679	171.69
711.866	315.05
712.054	231.08
712.242	198.31
712.43	233.13
712.617	194.22
712.805	278.18
712.993	192.17
713.181	204.46
713.368	280.23
713.556	218.79
713.744	155.3
713.931	437.92
714.119	247.46
714.306	267.94
714.494	220.84
714.682	52.91
714.869	169.64
715.057	192.17
715.244	136.87
715.432	235.18
715.619	159.4
715.807	247.46
715.994	231.08
716.182	218.79
716.369	253.61
716.556	329.38
716.744	100.01
716.931	151.21
717.119	263.85
717.306	233.13
717.493	265.89
717.681	138.92
717.868	231.08
718.055	220.84
718.242	243.37
718.43	284.33
718.617	274.09
718.804	226.98
718.991	368.29
719.179	255.65
719.366	280.23
719.553	231.08
719.74	241.32
719.927	233.13
720.114	243.37
720.301	259.75
720.488	226.98
720.676	235.18
720.863	378.53
721.05	458.4
721.237	308.9
721.424	304.81
721.611	278.18
721.798	169.64
721.985	167.59
722.172	241.32
722.358	220.84
722.545	265.89
722.732	298.66
722.919	323.24
723.106	298.66
723.293	224.94
723.48	237.22
723.667	265.89
723.853	405.16
724.04	298.66
724.227	372.39
724.414	251.56
724.6	327.33
724.787	427.68
724.974	431.78
725.161	272.04
725.347	233.13
725.534	292.52
725.72	358.05
725.907	390.82
726.094	333.48
726.28	284.33
726.467	269.99
726.653	374.44
726.84	353.96
727.027	396.96
727.213	284.33
727.4	335.53
727.586	280.23
727.773	294.57
727.959	298.66
728.145	290.47
728.332	360.1
728.518	210.6
728.705	407.2
728.891	300.71
729.077	319.14
729.264	276.13
729.45	306.85
729.636	319.14
729.823	390.82
730.009	325.29
730.195	341.67
730.382	358.05
730.568	335.53
730.754	282.28
730.94	298.66
731.126	337.57
731.313	394.92
731.499	265.89
731.685	325.29
731.871	384.68
732.057	274.09
732.243	378.53
732.429	380.58
732.615	419.49
732.801	448.16
732.987	313
733.173	321.19
733.359	315.05
733.545	413.35
733.731	366.25
733.917	372.39
734.103	329.38
734.289	335.53
734.475	349.86
734.661	458.4
734.847	362.15
735.033	362.15
735.219	378.53
735.404	360.1
735.59	263.85
735.776	306.85
735.962	401.06
736.148	427.68
736.333	419.49
736.519	374.44
736.705	292.52
736.89	337.57
737.076	294.57
737.262	374.44
737.447	280.23
737.633	339.62
737.819	407.2
738.004	396.96
738.19	401.06
738.375	435.88
738.561	419.49
738.747	419.49
738.932	345.77
739.118	472.74
739.303	421.54
739.489	394.92
739.674	325.29
739.859	313
740.045	456.36
740.23	394.92
740.416	282.28
740.601	288.42
740.786	482.98
740.972	384.68
741.157	321.19
741.342	259.75
741.528	337.57
741.713	472.74
741.898	345.77
742.084	358.05
742.269	364.2
742.454	405.16
742.639	374.44
742.824	384.68
743.01	431.78
743.195	495.27
743.38	394.92
743.565	337.57
743.75	366.25
743.935	419.49
744.12	444.07
744.305	249.51
744.49	317.09
744.675	431.78
744.86	366.25
745.045	417.44
745.23	396.96
745.415	454.31
745.6	399.01
745.785	296.61
745.97	411.3
746.155	380.58
746.34	493.22
746.525	341.67
746.71	470.69
746.895	317.09
747.079	263.85
747.264	329.38
747.449	349.86
747.634	386.72
747.819	392.87
748.003	304.81
748.188	186.02
748.373	431.78
748.557	251.56
748.742	323.24
748.927	343.72
749.111	300.71
749.296	333.48
749.481	362.15
749.665	325.29
749.85	253.61
750.034	333.48
750.219	274.09
750.404	313
750.588	384.68
750.773	249.51
750.957	298.66
751.141	263.85
751.326	325.29
751.51	245.41
751.695	280.23
751.879	276.13
752.064	390.82
752.248	224.94
752.432	368.29
752.617	366.25
752.801	431.78
752.985	362.15
753.17	401.06
753.354	231.08
753.538	347.81
753.722	343.72
753.907	241.32
754.091	255.65
754.275	255.65
754.459	226.98
754.643	216.74
754.828	272.04
755.012	317.09
755.196	218.79
755.38	269.99
755.564	251.56
755.748	290.47
755.932	347.81
756.116	276.13
756.3	292.52
756.484	216.74
756.668	290.47
756.852	222.89
757.036	243.37
757.22	255.65
757.404	233.13
757.588	196.26
757.772	233.13
757.956	247.46
758.14	401.06
758.323	169.64
758.507	296.61
758.691	183.98
758.875	233.13
759.059	276.13
759.242	214.7
759.426	208.55
759.61	323.24
759.794	147.11
759.977	304.81
760.161	427.68
760.345	380.58
760.528	243.37
760.712	243.37
760.895	290.47
761.079	151.21
761.263	106.15
761.446	128.68
761.63	181.93
761.813	249.51
761.997	157.35
762.18	163.5
762.364	237.22
762.547	122.54
762.731	181.93
762.914	194.22
763.098	280.23
763.281	157.35
763.464	196.26
763.648	208.55
763.831	192.17
764.015	186.02
764.198	286.37
764.381	214.7
764.564	157.35
764.748	173.74
764.931	235.18
765.114	104.11
765.297	169.64
765.481	194.22
765.664	214.7
765.847	224.94
766.03	329.38
766.213	126.63
766.397	112.3
766.58	120.49
766.763	200.36
766.946	97.96
767.129	145.06
767.312	151.21
767.495	145.06
767.678	210.6
767.861	198.31
768.044	149.16
768.227	116.39
768.41	87.72
768.593	190.12
768.776	214.7
768.959	186.02
769.142	249.51
769.324	198.31
769.507	126.63
769.69	136.87
769.873	143.02
770.056	247.46
770.239	95.91
770.421	224.94
770.604	302.76
770.787	145.06
770.97	143.02
771.152	87.72
771.335	175.78
771.518	108.2
771.7	202.41
771.883	169.64
772.066	67.24
772.248	143.02
772.431	257.7
772.613	93.87
772.796	181.93
772.978	214.7
773.161	251.56
773.343	136.87
773.526	108.2
773.708	18.09
773.891	59.05
774.073	143.02
774.256	71.34
774.438	241.32
774.621	124.58
774.803	138.92
774.985	120.49
775.168	177.83
775.35	116.39
775.532	186.02
775.715	140.97
775.897	218.79
776.079	102.06
776.261	194.22
776.444	108.2
776.626	104.11
776.808	136.87
776.99	28.33
777.173	65.19
777.355	130.73
777.537	126.63
777.719	159.4
777.901	97.96
778.083	59.05
778.265	118.44
778.447	138.92
778.629	36.52
778.811	106.15
778.993	130.73
779.175	206.5
779.357	192.17
779.539	-14.68
779.721	83.63
779.903	128.68
780.085	165.54
780.267	81.58
780.449	118.44
780.631	177.83
780.812	218.79
780.994	108.2
781.176	57
781.358	46.76
781.54	112.3
781.721	179.88
781.903	157.35
782.085	87.72
782.267	143.02
782.448	122.54
782.63	63.15
782.812	118.44
782.993	87.72
783.175	67.24
783.357	18.09
783.538	126.63
783.72	143.02
783.901	104.11
784.083	95.91
784.264	159.4
784.446	52.91
784.627	65.19
784.809	89.77
784.99	20.14
785.172	54.95
785.353	93.87
785.535	104.11
785.716	28.33
785.897	32.43
786.079	63.15
786.26	126.63
786.441	116.39
786.623	69.29
786.804	75.43
786.985	34.47
787.167	95.91
787.348	79.53
787.529	73.39
787.71	153.26
787.891	87.72
788.073	36.52
788.254	22.19
788.435	169.64
788.616	77.48
788.797	36.52
788.978	69.29
789.159	22.19
789.34	77.48
789.522	9.9
789.703	38.57
789.884	97.96
790.065	83.63
790.246	145.06
790.427	67.24
790.607	179.88
790.788	93.87
790.969	18.09
791.15	108.2
791.331	67.24
791.512	30.38
791.693	-10.58
791.874	22.19
792.054	181.93
792.235	57
792.416	-20.82
792.597	71.34
792.778	77.48
792.958	73.39
793.139	38.57
793.32	61.1
793.5	9.9
793.681	179.88
793.862	136.87
794.042	44.71
794.223	-61.78
794.404	100.01
794.584	-31.06
794.765	1.71
794.945	30.38
795.126	118.44
795.306	120.49
795.487	65.19
795.667	13.99
795.848	181.93
796.028	71.34
796.209	65.19
796.389	134.82
796.57	79.53
796.75	32.43
796.93	-22.87
797.111	77.48
797.291	50.86
797.471	130.73
797.652	79.53
797.832	22.19
798.012	71.34
798.192	50.86
798.373	32.43
798.553	40.62
798.733	-12.63
798.913	3.75
799.093	-43.35
799.274	61.1
799.454	57
799.634	110.25
799.814	61.1
799.994	93.87
800.174	83.63
800.354	75.43
800.534	-69.97
800.714	30.38
800.894	-12.63
801.074	-29.01
801.254	-0.34
801.434	93.87
801.614	61.1
801.794	1.71
801.974	1709.71
802.154	65.19
802.334	108.2
802.514	9.9
802.693	147.11
802.873	18.09
803.053	104.11
803.233	34.47
803.413	63.15
803.592	16.04
803.772	1.71
803.952	116.39
804.131	-18.77
804.311	85.67
804.491	186.02
804.67	-26.96
804.85	-59.73
805.03	83.63
805.209	118.44
805.389	-35.16
805.568	54.95
805.748	-4.44
805.928	5.8
806.107	93.87
806.287	130.73
806.466	44.71
806.646	54.95
806.825	-2.39
807.004	79.53
807.184	81.58
807.363	95.91
807.543	65.19
807.722	-47.44
807.901	194.22
808.081	73.39
808.26	-67.92
808.439	87.72
808.619	-24.92
808.798	61.1
808.977	57
809.156	116.39
809.336	79.53
809.515	67.24
809.694	22.19
809.873	-53.59
810.052	75.43
810.231	67.24
810.411	5.8
810.59	59.05
810.769	67.24
810.948	71.34
811.127	-18.77
811.306	5.8
811.485	7.85
811.664	75.43
811.843	73.39
812.022	54.95
812.201	52.91
812.38	63.15
812.559	11.95
812.737	71.34
812.916	-76.12
813.095	-49.49
813.274	151.21
813.453	26.28
813.632	71.34
813.811	83.63
813.989	-14.68
814.168	-31.06
814.347	-43.35
814.526	40.62
814.704	155.3
814.883	110.25
815.062	61.1
815.24	46.76
815.419	-8.53
815.598	112.3
815.776	-125.27
815.955	63.15
816.133	-112.98
816.312	38.57
816.49	32.43
816.669	-10.58
816.847	-4.44
817.026	26.28
817.204	22.19
817.383	18.09
817.561	54.95
817.74	52.91
817.918	11.95
818.097	-35.16
818.275	11.95
818.453	54.95
818.632	73.39
818.81	-14.68
818.988	46.76
819.167	-59.73
819.345	32.43
819.523	-86.36
819.701	77.48
819.879	34.47
820.058	24.23
820.236	7.85
820.414	108.2
820.592	16.04
820.77	42.67
820.948	30.38
821.127	-20.82
821.305	73.39
821.483	-47.44
821.661	79.53
821.839	40.62
822.017	-26.96
822.195	79.53
822.373	54.95
822.551	54.95
822.729	42.67
822.907	57
823.085	50.86
823.262	9.9
823.44	-47.44
823.618	42.67
823.796	44.71
823.974	11.95
824.152	-14.68
824.329	13.99
824.507	9.9
824.685	36.52
824.863	44.71
825.04	18.09
825.218	-8.53
825.396	65.19
825.574	18.09
825.751	5.8
825.929	30.38
826.107	-67.92
826.284	54.95
826.462	61.1
826.639	-47.44
826.817	-129.36
826.994	44.71
827.172	-41.3
827.349	173.74
827.527	54.95
827.704	73.39
827.882	30.38
828.059	59.05
828.237	16.04
828.414	-37.2
828.591	-72.02
828.769	-18.77
828.946	-86.36
829.124	108.2
829.301	120.49
829.478	18.09
829.655	28.33
829.833	30.38
830.01	-59.73
830.187	40.62
830.364	28.33
830.542	9.9
830.719	136.87
830.896	87.72
831.073	67.24
831.25	81.58
831.427	151.21
831.604	52.91
831.782	-29.01
831.959	34.47
832.136	34.47
832.313	7.85
832.49	-22.87
832.667	16.04
832.844	-26.96
833.021	95.91
833.198	28.33
833.374	112.3
833.551	18.09
833.728	-4.44
833.905	63.15
834.082	-59.73
834.259	1.71
834.436	75.43
834.612	-8.53
834.789	71.34
834.966	75.43
835.143	34.47
835.319	-29.01
835.496	18.09
835.673	26.28
835.85	124.58
836.026	112.3
836.203	48.81
836.38	46.76
836.556	-35.16
836.733	38.57
836.909	175.78
837.086	28.33
837.262	-78.16
837.439	-22.87
837.616	-4.44
837.792	26.28
837.968	13.99
838.145	-131.41
838.321	40.62
838.498	-12.63
838.674	-0.34
838.851	38.57
839.027	9.9
839.203	5.8
839.38	11.95
839.556	28.33
839.732	83.63
839.909	28.33
840.085	112.3
840.261	-4.44
840.437	48.81
840.614	46.76
840.79	104.11
840.966	89.77
841.142	16.04
841.318	-22.87
841.494	30.38
841.671	73.39
841.847	-18.77
842.023	40.62
842.199	-6.49
842.375	114.34
842.551	-104.79
842.727	5.8
842.903	110.25
843.079	-4.44
843.255	159.4
843.431	-31.06
843.607	67.24
843.783	-108.88
843.959	-4.44
844.134	-37.2
844.31	102.06
844.486	-63.83
844.662	-43.35
844.838	63.15
845.013	83.63
845.189	38.57
845.365	1.71
845.541	89.77
845.716	61.1
845.892	108.2
846.068	50.86
846.244	-20.82
846.419	85.67
846.595	-4.44
846.77	-55.64
846.946	89.77
847.122	-22.87
847.297	-45.4
847.473	149.16
847.648	-59.73
847.824	67.24
847.999	-55.64
848.175	-53.59
848.35	114.34
848.526	91.82
848.701	-24.92
848.876	24.23
849.052	100.01
849.227	-41.3
849.403	48.81
849.578	-8.53
849.753	38.57
849.929	83.63
850.104	-59.73
850.279	69.29
850.454	26.28
850.63	48.81
850.805	48.81
850.98	18.09
851.155	-72.02
851.33	11.95
851.505	-78.16
851.681	126.63
851.856	-14.68
852.031	38.57
852.206	44.71
852.381	-29.01
852.556	22.19
852.731	83.63
852.906	75.43
853.081	22.19
853.256	63.15
853.431	9.9
853.606	11.95
853.781	-18.77
853.956	-80.21
854.131	75.43
854.305	-53.59
854.48	-0.34
854.655	3.75
854.83	-43.35
855.005	3.75
855.18	11.95
855.354	30.38
855.529	52.91
855.704	-20.82
855.879	1.71
856.053	-39.25
856.228	30.38
856.403	-26.96
856.577	42.67
856.752	-43.35
856.926	-55.64
857.101	18.09
857.276	-63.83
857.45	16.04
857.625	32.43
857.799	59.05
857.974	73.39
858.148	-61.78
858.323	95.91
858.497	-16.73
858.672	57
858.846	-6.49
859.02	161.45
859.195	-29.01
859.369	-2.39
859.543	9.9
859.718	40.62
859.892	50.86
860.066	-6.49
860.241	-0.34
860.415	-18.77
860.589	-10.58
860.763	36.52
860.938	61.1
861.112	67.24
861.286	13.99
861.46	63.15
861.634	-12.63
861.808	102.06
861.982	-55.64
862.157	-18.77
862.331	-55.64
862.505	-129.36
862.679	-53.59
862.853	40.62
863.027	-53.59
863.201	128.68
863.375	-18.77
863.549	-59.73
863.722	69.29
863.896	153.26
864.07	3.75
864.244	71.34
864.418	52.91
864.592	65.19
864.766	71.34
864.939	-20.82
865.113	20.14
865.287	63.15
865.461	-84.31
865.634	50.86
865.808	22.19
865.982	-2.39
866.156	-61.78
866.329	-90.45
866.503	46.76
866.676	40.62
866.85	-2.39
867.024	-26.96
867.197	50.86
867.371	30.38
867.544	46.76
867.718	36.52
867.891	69.29
868.065	-20.82
868.238	-2.39
868.412	116.39
868.585	20.14
868.759	-41.3
868.932	-41.3
869.105	-26.96
869.279	52.91
869.452	3.75
869.625	-18.77
869.799	-43.35
869.972	-59.73
870.145	-53.59
870.319	13.99
870.492	20.14
870.665	-4.44
870.838	-45.4
871.011	-88.4
871.185	26.28
871.358	38.57
871.531	24.23
871.704	-10.58
871.877	30.38
872.05	-55.64
872.223	-137.56
872.396	61.1
872.569	48.81
872.742	-67.92
872.915	20.14
873.088	9.9
873.261	-12.63
873.434	143.02
873.607	24.23
873.78	71.34
873.953	1.71
874.126	5.8
874.299	118.44
874.471	-31.06
874.644	-39.25
874.817	61.1
874.99	126.63
875.163	-39.25
875.335	120.49
875.508	-26.96
875.681	71.34
875.853	-35.16
876.026	1.71
876.199	54.95
876.371	36.52
876.544	32.43
876.717	116.39
876.889	-14.68
877.062	36.52
877.234	13.99
877.407	5.8
877.579	20.14
877.752	-14.68
877.924	48.81
878.097	18.09
878.269	-10.58
878.442	-72.02
878.614	57
878.786	89.77
878.959	-16.73
879.131	61.1
879.303	-41.3
879.476	9.9
879.648	161.45
879.82	-10.58
879.993	-10.58
880.165	-37.2
880.337	40.62
880.509	-2.39
880.681	-74.07
880.854	-22.87
881.026	13.99
881.198	214.7
881.37	-10.58
881.542	-26.96
881.714	28.33
881.886	-61.78
882.058	-49.49
882.23	24.23
882.402	-33.11
882.574	34.47
882.746	38.57
882.918	149.16
883.09	40.62
883.262	20.14
883.434	24.23
883.606	-55.64
883.778	-22.87
883.95	157.35
884.122	-14.68
884.293	16.04
884.465	71.34
884.637	128.68
884.809	-53.59
884.98	69.29
885.152	124.58
885.324	89.77
885.496	-20.82
885.667	-47.44
885.839	-10.58
886.011	120.49
886.182	71.34
886.354	190.12
886.525	77.48
886.697	1.71
886.869	-10.58
887.04	18.09
887.212	44.71
887.383	155.3
887.555	79.53
887.726	9.9
887.897	11.95
888.069	50.86
888.24	54.95
888.412	28.33
888.583	3.75
888.754	11.95
888.926	-117.08
889.097	11.95
889.268	-86.36
889.44	-18.77
889.611	-59.73
889.782	-8.53
889.953	-35.16
890.125	147.11
890.296	-26.96
890.467	-10.58
890.638	-2.39
890.809	-6.49
890.98	-18.77
891.151	75.43
891.323	79.53
891.494	38.57
891.665	28.33
891.836	34.47
892.007	48.81
892.178	20.14
892.349	-35.16
892.52	-41.3
892.691	7.85
892.862	-33.11
893.032	-67.92
893.203	22.19
893.374	-35.16
893.545	136.87
893.716	-96.6
893.887	63.15
894.057	-61.78
894.228	1.71
894.399	-33.11
894.57	106.15
894.74	7.85
894.911	40.62
895.082	-67.92
895.253	-24.92
895.423	-45.4
895.594	38.57
895.764	63.15
895.935	-37.2
896.106	-8.53
896.276	-22.87
896.447	-4.44
896.617	-14.68
896.788	-35.16
896.958	-18.77
897.129	13.99
897.299	-67.92
897.47	97.96
897.64	32.43
897.81	-37.2
897.981	110.25
898.151	-26.96
898.322	18.09
898.492	67.24
898.662	-53.59
898.832	-61.78
899.003	7.85
899.173	69.29
899.343	-59.73
899.513	-29.01
