Data from USB4F104151__36__09-27-20-509.txt Node

Date: Wed Feb 26 09:27:20 EST 2025
User: louis
Spectrometer: USB4F10415
Trigger mode: 4
Integration Time (sec): 1.000000E-1
Scans to average: 1
Electric dark correction enabled: true
Nonlinearity correction enabled: false
Boxcar width: 0
XAxis mode: Wavelengths
Number of Pixels in Spectrum: 3648
>>>>>Begin Spectral Data<<<<<
178.204	-383.48
178.424	-383.48
178.644	-383.48
178.864	-313.85
179.084	-301.56
179.304	3.58
179.524	1.54
179.744	42.5
179.964	30.21
180.184	38.4
180.404	-6.66
180.624	-70.14
180.844	1.54
181.064	-53.76
181.283	11.78
181.503	-76.29
181.723	77.31
181.943	-127.49
182.163	85.5
182.383	-14.85
182.602	75.26
182.822	58.88
183.042	60.93
183.262	-37.38
183.482	-4.61
183.701	3.58
183.921	44.54
184.141	-33.28
184.361	75.26
184.58	48.64
184.8	19.97
185.02	1.54
185.239	38.4
185.459	87.55
185.679	22.02
185.898	-53.76
186.118	19.97
186.338	79.36
186.557	54.78
186.777	-100.86
186.997	5.63
187.216	54.78
187.436	93.69
187.655	40.45
187.875	128.51
188.095	-47.62
188.314	24.06
188.534	36.35
188.753	3.58
188.973	112.13
189.192	200.19
189.412	44.54
189.631	30.21
189.851	36.35
190.07	99.84
190.29	-14.85
190.509	-35.33
190.729	56.83
190.948	187.9
191.168	214.52
191.387	157.18
191.607	-33.28
191.826	26.11
192.045	24.06
192.265	22.02
192.484	110.08
192.704	-2.56
192.923	-57.86
193.142	181.76
193.362	138.75
193.581	105.98
193.8	13.82
194.02	60.93
194.239	79.36
194.458	36.35
194.678	34.3
194.897	26.11
195.116	-2.56
195.335	5.63
195.555	40.45
195.774	1.54
195.993	22.02
196.212	17.92
196.432	-18.94
196.651	28.16
196.87	17.92
197.089	146.94
197.308	3.58
197.528	101.89
197.747	-39.42
197.966	75.26
198.185	144.89
198.404	-102.91
198.623	134.65
198.842	118.27
199.062	108.03
199.281	26.11
199.5	65.02
199.719	48.64
199.938	-20.99
200.157	79.36
200.376	34.3
200.595	60.93
200.814	-4.61
201.033	-29.18
201.252	99.84
201.471	40.45
201.69	120.32
201.909	-12.8
202.128	132.61
202.347	75.26
202.566	-29.18
202.785	5.63
203.004	-53.76
203.223	206.33
203.442	62.98
203.661	-47.62
203.879	-31.23
204.098	136.7
204.317	1.54
204.536	97.79
204.755	87.55
204.974	60.93
205.193	13.82
205.411	177.66
205.63	52.74
205.849	69.12
206.068	22.02
206.287	-10.75
206.505	58.88
206.724	19.97
206.943	-29.18
207.162	1.54
207.381	-0.51
207.599	-39.42
207.818	-14.85
208.037	11.78
208.255	-33.28
208.474	71.17
208.693	-59.9
208.911	-2.56
209.13	77.31
209.349	46.59
209.567	95.74
209.786	79.36
210.005	116.22
210.223	77.31
210.442	-98.81
210.661	38.4
210.879	73.21
211.098	15.87
211.316	13.82
211.535	58.88
211.753	13.82
211.972	19.97
212.191	-2.56
212.409	69.12
212.628	17.92
212.846	-23.04
213.065	101.89
213.283	130.56
213.502	-45.57
213.72	-29.18
213.938	1.54
214.157	36.35
214.375	134.65
214.594	34.3
214.812	79.36
215.031	-2.56
215.249	46.59
215.467	-23.04
215.686	-2.56
215.904	134.65
216.122	46.59
216.341	79.36
216.559	-12.8
216.778	83.45
216.996	120.32
217.214	-31.23
217.432	-53.76
217.651	-10.75
217.869	28.16
218.087	44.54
218.306	42.5
218.524	13.82
218.742	19.97
218.96	13.82
219.179	1.54
219.397	-31.23
219.615	167.42
219.833	44.54
220.051	-57.86
220.27	46.59
220.488	77.31
220.706	87.55
220.924	-104.96
221.142	22.02
221.36	-27.14
221.578	60.93
221.796	36.35
222.015	95.74
222.233	52.74
222.451	146.94
222.669	-37.38
222.887	28.16
223.105	-6.66
223.323	28.16
223.541	-27.14
223.759	13.82
223.977	1.54
224.195	151.04
224.413	62.98
224.631	75.26
224.849	1.54
225.067	239.1
225.285	-59.9
225.503	28.16
225.721	-119.29
225.939	40.45
226.157	42.5
226.375	241.15
226.592	-31.23
226.81	-104.96
227.028	110.08
227.246	58.88
227.464	46.59
227.682	83.45
227.9	46.59
228.117	15.87
228.335	60.93
228.553	36.35
228.771	42.5
228.989	60.93
229.206	52.74
229.424	-29.18
229.642	-23.04
229.86	54.78
230.077	62.98
230.295	-61.95
230.513	87.55
230.731	52.74
230.948	112.13
231.166	83.45
231.384	62.98
231.601	17.92
231.819	216.57
232.037	22.02
232.254	-61.95
232.472	-4.61
232.689	-2.56
232.907	110.08
233.125	-29.18
233.342	-41.47
233.56	-27.14
233.777	38.4
233.995	3.58
234.213	71.17
234.43	124.41
234.648	44.54
234.865	-59.9
235.083	22.02
235.3	17.92
235.518	85.5
235.735	120.32
235.953	110.08
236.17	11.78
236.388	-43.52
236.605	-29.18
236.822	81.41
237.04	122.37
237.257	54.78
237.475	-6.66
237.692	-10.75
237.909	17.92
238.127	7.68
238.344	56.83
238.562	71.17
238.779	-27.14
238.996	-29.18
239.214	62.98
239.431	58.88
239.648	28.16
239.865	-23.04
240.083	48.64
240.3	-43.52
240.517	1.54
240.735	-18.94
240.952	116.22
241.169	153.09
241.386	40.45
241.603	24.06
241.821	46.59
242.038	85.5
242.255	87.55
242.472	-55.81
242.689	101.89
242.907	38.4
243.124	77.31
243.341	24.06
243.558	-27.14
243.775	-33.28
243.992	-80.38
244.209	46.59
244.426	81.41
244.643	103.93
244.86	-10.75
245.078	13.82
245.295	75.26
245.512	50.69
245.729	60.93
245.946	60.93
246.163	-18.94
246.38	19.97
246.597	5.63
246.814	-2.56
247.031	19.97
247.248	40.45
247.464	132.61
247.681	52.74
247.898	-16.9
248.115	46.59
248.332	15.87
248.549	165.37
248.766	99.84
248.983	36.35
249.2	1.54
249.417	103.93
249.633	-35.33
249.85	85.5
250.067	91.65
250.284	3.58
250.501	83.45
250.717	71.17
250.934	-45.57
251.151	-12.8
251.368	26.11
251.585	85.5
251.801	22.02
252.018	-25.09
252.235	38.4
252.451	-0.51
252.668	3.58
252.885	116.22
253.102	-23.04
253.318	-88.57
253.535	-47.62
253.752	99.84
253.968	38.4
254.185	-68.09
254.401	42.5
254.618	9.73
254.835	-25.09
255.051	144.89
255.268	75.26
255.484	1.54
255.701	11.78
255.917	36.35
256.134	-57.86
256.351	13.82
256.567	-37.38
256.784	77.31
257	-20.99
257.217	34.3
257.433	48.64
257.65	54.78
257.866	17.92
258.082	-16.9
258.299	-37.38
258.515	40.45
258.732	32.26
258.948	36.35
259.165	28.16
259.381	-43.52
259.597	-31.23
259.814	-8.7
260.03	46.59
260.246	5.63
260.463	146.94
260.679	105.98
260.895	118.27
261.112	-6.66
261.328	1.54
261.544	-64
261.761	148.99
261.977	11.78
262.193	-109.05
262.409	93.69
262.626	65.02
262.842	60.93
263.058	-64
263.274	75.26
263.49	22.02
263.707	87.55
263.923	60.93
264.139	-59.9
264.355	34.3
264.571	105.98
264.787	79.36
265.004	28.16
265.22	-8.7
265.436	-47.62
265.652	30.21
265.868	-76.29
266.084	-41.47
266.3	7.68
266.516	-80.38
266.732	-2.56
266.948	52.74
267.164	34.3
267.38	69.12
267.596	114.17
267.812	169.47
268.028	112.13
268.244	-27.14
268.46	-14.85
268.676	-20.99
268.892	60.93
269.108	-4.61
269.324	-4.61
269.54	-92.67
269.756	71.17
269.972	-109.05
270.188	-88.57
270.403	-94.72
270.619	-43.52
270.835	24.06
271.051	40.45
271.267	30.21
271.483	-59.9
271.698	13.82
271.914	38.4
272.13	87.55
272.346	-53.76
272.562	69.12
272.777	95.74
272.993	54.78
273.209	-2.56
273.425	87.55
273.64	-72.19
273.856	95.74
274.072	-45.57
274.287	-23.04
274.503	87.55
274.719	-2.56
274.934	-10.75
275.15	-121.34
275.366	-27.14
275.581	-2.56
275.797	-31.23
276.012	50.69
276.228	48.64
276.444	60.93
276.659	60.93
276.875	-59.9
277.09	5.63
277.306	-33.28
277.521	42.5
277.737	13.82
277.952	69.12
278.168	56.83
278.383	38.4
278.599	11.78
278.814	48.64
279.03	-4.61
279.245	136.7
279.461	48.64
279.676	163.33
279.892	-41.47
280.107	-61.95
280.322	-43.52
280.538	34.3
280.753	-23.04
280.969	83.45
281.184	-41.47
281.399	87.55
281.615	22.02
281.83	28.16
282.045	-86.53
282.26	-61.95
282.476	97.79
282.691	97.79
282.906	44.54
283.122	95.74
283.337	-47.62
283.552	52.74
283.767	-14.85
283.983	99.84
284.198	1.54
284.413	60.93
284.628	-68.09
284.843	13.82
285.058	169.47
285.274	15.87
285.489	-68.09
285.704	22.02
285.919	7.68
286.134	-55.81
286.349	26.11
286.564	42.5
286.779	132.61
286.995	44.54
287.21	-64
287.425	50.69
287.64	28.16
287.855	5.63
288.07	-88.57
288.285	-20.99
288.5	28.16
288.715	46.59
288.93	56.83
289.145	30.21
289.36	144.89
289.575	-72.19
289.79	169.47
290.004	62.98
290.219	60.93
290.434	-98.81
290.649	-47.62
290.864	-59.9
291.079	-23.04
291.294	67.07
291.509	46.59
291.724	-59.9
291.938	-25.09
292.153	24.06
292.368	-14.85
292.583	48.64
292.798	34.3
293.012	87.55
293.227	56.83
293.442	-76.29
293.657	60.93
293.871	81.41
294.086	7.68
294.301	192
294.516	128.51
294.73	1.54
294.945	24.06
295.16	-14.85
295.374	67.07
295.589	71.17
295.804	-66.05
296.018	3.58
296.233	5.63
296.447	19.97
296.662	-59.9
296.877	134.65
297.091	58.88
297.306	-2.56
297.52	5.63
297.735	48.64
297.949	85.5
298.164	13.82
298.378	46.59
298.593	40.45
298.807	15.87
299.022	-70.14
299.236	87.55
299.451	-41.47
299.665	5.63
299.88	-76.29
300.094	62.98
300.309	28.16
300.523	1.54
300.737	-6.66
300.952	22.02
301.166	79.36
301.381	-49.66
301.595	42.5
301.809	-18.94
302.024	46.59
302.238	13.82
302.452	48.64
302.667	-27.14
302.881	114.17
303.095	91.65
303.309	60.93
303.524	-33.28
303.738	34.3
303.952	30.21
304.166	11.78
304.381	-98.81
304.595	15.87
304.809	-6.66
305.023	13.82
305.237	36.35
305.452	9.73
305.666	36.35
305.88	-4.61
306.094	118.27
306.308	95.74
306.522	99.84
306.736	-0.51
306.95	58.88
307.164	-2.56
307.379	-10.75
307.593	126.46
307.807	85.5
308.021	-4.61
308.235	116.22
308.449	-2.56
308.663	26.11
308.877	120.32
309.091	-4.61
309.305	112.13
309.519	-68.09
309.733	52.74
309.947	-111.1
310.161	44.54
310.374	97.79
310.588	46.59
310.802	-47.62
311.016	-45.57
311.23	-10.75
311.444	-74.24
311.658	-14.85
311.872	54.78
312.085	67.07
312.299	122.37
312.513	7.68
312.727	-53.76
312.941	-49.66
313.154	17.92
313.368	67.07
313.582	-25.09
313.796	-23.04
314.009	-8.7
314.223	165.37
314.437	50.69
314.651	38.4
314.864	46.59
315.078	-14.85
315.292	-55.81
315.505	-14.85
315.719	54.78
315.933	3.58
316.146	9.73
316.36	-35.33
316.573	73.21
316.787	40.45
317.001	38.4
317.214	-68.09
317.428	-2.56
317.641	-25.09
317.855	32.26
318.068	22.02
318.282	-0.51
318.495	103.93
318.709	44.54
318.922	13.82
319.136	116.22
319.349	83.45
319.563	46.59
319.776	67.07
319.99	-55.81
320.203	116.22
320.417	54.78
320.63	30.21
320.843	95.74
321.057	-12.8
321.27	56.83
321.483	89.6
321.697	138.75
321.91	3.58
322.124	95.74
322.337	15.87
322.55	-53.76
322.763	9.73
322.977	-16.9
323.19	11.78
323.403	71.17
323.617	34.3
323.83	93.69
324.043	-70.14
324.256	22.02
324.469	-41.47
324.683	-43.52
324.896	1.54
325.109	11.78
325.322	-109.05
325.535	28.16
325.748	22.02
325.962	112.13
326.175	50.69
326.388	28.16
326.601	-43.52
326.814	5.63
327.027	30.21
327.24	187.9
327.453	-78.33
327.666	62.98
327.879	99.84
328.092	52.74
328.305	91.65
328.518	22.02
328.731	13.82
328.944	-6.66
329.157	52.74
329.37	-27.14
329.583	99.84
329.796	99.84
330.009	-121.34
330.222	42.5
330.435	-14.85
330.648	13.82
330.861	22.02
331.073	69.12
331.286	97.79
331.499	17.92
331.712	1.54
331.925	54.78
332.138	44.54
332.35	58.88
332.563	-8.7
332.776	87.55
332.989	-45.57
333.202	-4.61
333.414	42.5
333.627	38.4
333.84	38.4
334.053	73.21
334.265	-18.94
334.478	-59.9
334.691	-25.09
334.903	19.97
335.116	-43.52
335.329	-53.76
335.541	5.63
335.754	140.8
335.966	-0.51
336.179	-94.72
336.392	11.78
336.604	-14.85
336.817	-16.9
337.029	77.31
337.242	30.21
337.454	128.51
337.667	56.83
337.88	151.04
338.092	-4.61
338.305	30.21
338.517	-61.95
338.729	54.78
338.942	148.99
339.154	-66.05
339.367	-53.76
339.579	-25.09
339.792	-16.9
340.004	71.17
340.217	42.5
340.429	67.07
340.641	-35.33
340.854	-39.42
341.066	-64
341.278	85.5
341.491	202.24
341.703	69.12
341.915	-39.42
342.128	75.26
342.34	36.35
342.552	-18.94
342.764	-2.56
342.977	46.59
343.189	48.64
343.401	101.89
343.613	-86.53
343.826	1.54
344.038	-27.14
344.25	7.68
344.462	-59.9
344.674	93.69
344.886	62.98
345.099	-27.14
345.311	118.27
345.523	7.68
345.735	-59.9
345.947	54.78
346.159	-18.94
346.371	-12.8
346.583	-33.28
346.795	159.23
347.007	-53.76
347.219	60.93
347.431	-41.47
347.643	62.98
347.855	-23.04
348.067	40.45
348.279	-4.61
348.491	32.26
348.703	91.65
348.915	-20.99
349.127	-104.96
349.339	54.78
349.551	-6.66
349.763	46.59
349.975	60.93
350.187	-18.94
350.399	151.04
350.61	71.17
350.822	-33.28
351.034	19.97
351.246	9.73
351.458	122.37
351.669	101.89
351.881	22.02
352.093	71.17
352.305	120.32
352.517	128.51
352.728	75.26
352.94	-2.56
353.152	36.35
353.363	-104.96
353.575	91.65
353.787	110.08
353.999	-2.56
354.21	-8.7
354.422	-10.75
354.633	-70.14
354.845	19.97
355.057	7.68
355.268	11.78
355.48	-18.94
355.692	-43.52
355.903	48.64
356.115	-35.33
356.326	-131.58
356.538	183.81
356.749	65.02
356.961	52.74
357.172	36.35
357.384	-12.8
357.595	155.13
357.807	3.58
358.018	-45.57
358.23	97.79
358.441	114.17
358.653	-18.94
358.864	17.92
359.075	3.58
359.287	9.73
359.498	105.98
359.709	22.02
359.921	22.02
360.132	26.11
360.344	-49.66
360.555	-51.71
360.766	22.02
360.977	-8.7
361.189	89.6
361.4	44.54
361.611	85.5
361.823	95.74
362.034	-2.56
362.245	-78.33
362.456	38.4
362.667	75.26
362.879	-16.9
363.09	34.3
363.301	38.4
363.512	30.21
363.723	-14.85
363.935	7.68
364.146	81.41
364.357	26.11
364.568	-2.56
364.779	-86.53
364.99	196.09
365.201	-18.94
365.412	124.41
365.623	-127.49
365.834	36.35
366.045	13.82
366.256	67.07
366.467	103.93
366.678	-43.52
366.889	17.92
367.1	22.02
367.311	69.12
367.522	-6.66
367.733	36.35
367.944	116.22
368.155	-84.48
368.366	28.16
368.577	67.07
368.788	42.5
368.999	67.07
369.209	-14.85
369.42	171.52
369.631	108.03
369.842	126.46
370.053	62.98
370.264	163.33
370.474	-27.14
370.685	56.83
370.896	85.5
371.107	89.6
371.317	-23.04
371.528	-10.75
371.739	40.45
371.95	58.88
372.16	95.74
372.371	-94.72
372.582	-43.52
372.792	-4.61
373.003	40.45
373.214	13.82
373.424	77.31
373.635	-35.33
373.846	146.94
374.056	42.5
374.267	118.27
374.477	81.41
374.688	24.06
374.898	40.45
375.109	13.82
375.319	28.16
375.53	93.69
375.74	120.32
375.951	-37.38
376.161	99.84
376.372	85.5
376.582	-10.75
376.793	52.74
377.003	3.58
377.214	17.92
377.424	71.17
377.635	-12.8
377.845	22.02
378.055	124.41
378.266	-76.29
378.476	58.88
378.686	30.21
378.897	103.93
379.107	3.58
379.317	81.41
379.528	-51.71
379.738	79.36
379.948	-18.94
380.158	40.45
380.369	13.82
380.579	77.31
380.789	-0.51
380.999	71.17
381.21	93.69
381.42	181.76
381.63	-0.51
381.84	9.73
382.05	50.69
382.261	101.89
382.471	138.75
382.681	22.02
382.891	140.8
383.101	13.82
383.311	42.5
383.521	-111.1
383.731	110.08
383.941	173.57
384.151	-14.85
384.361	-23.04
384.571	73.21
384.781	114.17
384.991	159.23
385.201	157.18
385.411	52.74
385.621	58.88
385.831	36.35
386.041	44.54
386.251	-25.09
386.461	34.3
386.671	-10.75
386.881	46.59
387.091	-23.04
387.301	99.84
387.511	5.63
387.72	54.78
387.93	136.7
388.14	-35.33
388.35	83.45
388.56	48.64
388.769	46.59
388.979	42.5
389.189	-12.8
389.399	15.87
389.609	122.37
389.818	99.84
390.028	58.88
390.238	9.73
390.447	44.54
390.657	22.02
390.867	-68.09
391.076	-70.14
391.286	-14.85
391.496	-10.75
391.705	22.02
391.915	85.5
392.125	56.83
392.334	-47.62
392.544	103.93
392.753	83.45
392.963	67.07
393.172	-2.56
393.382	-25.09
393.591	161.28
393.801	36.35
394.01	112.13
394.22	81.41
394.429	-0.51
394.639	-10.75
394.848	19.97
395.058	62.98
395.267	1.54
395.477	30.21
395.686	30.21
395.895	132.61
396.105	95.74
396.314	-25.09
396.524	1.54
396.733	26.11
396.942	77.31
397.152	128.51
397.361	103.93
397.57	40.45
397.78	3.58
397.989	48.64
398.198	144.89
398.407	-10.75
398.617	36.35
398.826	48.64
399.035	-20.99
399.244	-2.56
399.453	136.7
399.663	46.59
399.872	50.69
400.081	-57.86
400.29	83.45
400.499	38.4
400.708	44.54
400.917	-2.56
401.127	60.93
401.336	-2.56
401.545	110.08
401.754	175.61
401.963	28.16
402.172	-27.14
402.381	-14.85
402.59	22.02
402.799	42.5
403.008	112.13
403.217	42.5
403.426	17.92
403.635	-70.14
403.844	-68.09
404.053	22.02
404.262	1.54
404.471	204.28
404.68	67.07
404.888	-29.18
405.097	89.6
405.306	130.56
405.515	-29.18
405.724	-6.66
405.933	126.46
406.142	54.78
406.35	130.56
406.559	-96.77
406.768	32.26
406.977	89.6
407.185	75.26
407.394	69.12
407.603	-29.18
407.812	65.02
408.02	167.42
408.229	81.41
408.438	79.36
408.646	-70.14
408.855	3.58
409.064	83.45
409.272	77.31
409.481	48.64
409.69	-8.7
409.898	-70.14
410.107	62.98
410.315	161.28
410.524	36.35
410.733	112.13
410.941	46.59
411.15	67.07
411.358	105.98
411.567	204.28
411.775	-2.56
411.984	48.64
412.192	124.41
412.401	93.69
412.609	95.74
412.818	50.69
413.026	34.3
413.234	-39.42
413.443	46.59
413.651	24.06
413.86	38.4
414.068	108.03
414.276	151.04
414.485	-18.94
414.693	134.65
414.901	161.28
415.11	54.78
415.318	22.02
415.526	38.4
415.734	52.74
415.943	71.17
416.151	44.54
416.359	-31.23
416.567	9.73
416.776	83.45
416.984	19.97
417.192	159.23
417.4	-18.94
417.608	67.07
417.817	-39.42
418.025	95.74
418.233	165.37
418.441	-64
418.649	-43.52
418.857	75.26
419.065	122.37
419.273	-23.04
419.481	36.35
419.689	71.17
419.897	1.54
420.105	-2.56
420.313	101.89
420.521	54.78
420.729	62.98
420.937	46.59
421.145	79.36
421.353	140.8
421.561	17.92
421.769	58.88
421.977	-39.42
422.185	71.17
422.393	-0.51
422.601	60.93
422.809	110.08
423.017	69.12
423.224	103.93
423.432	128.51
423.64	-20.99
423.848	157.18
424.056	-18.94
424.263	165.37
424.471	77.31
424.679	167.42
424.887	-10.75
425.094	91.65
425.302	67.07
425.51	5.63
425.718	71.17
425.925	36.35
426.133	5.63
426.341	142.85
426.548	77.31
426.756	71.17
426.964	87.55
427.171	-6.66
427.379	-2.56
427.586	58.88
427.794	50.69
428.001	108.03
428.209	73.21
428.417	120.32
428.624	97.79
428.832	87.55
429.039	132.61
429.247	189.95
429.454	120.32
429.662	210.43
429.869	95.74
430.076	118.27
430.284	87.55
430.491	110.08
430.699	148.99
430.906	173.57
431.114	91.65
431.321	71.17
431.528	62.98
431.736	210.43
431.943	194.05
432.15	163.33
432.358	126.46
432.565	132.61
432.772	128.51
432.979	194.05
433.187	79.36
433.394	218.62
433.601	71.17
433.808	249.34
434.016	218.62
434.223	122.37
434.43	181.76
434.637	296.44
434.844	257.53
435.052	198.14
435.259	220.67
435.466	220.67
435.673	85.5
435.88	251.39
436.087	247.29
436.294	290.3
436.501	259.58
436.708	230.91
436.915	280.06
437.122	290.3
437.329	210.43
437.537	302.59
437.743	284.16
437.95	339.45
438.157	323.07
438.364	374.27
438.571	329.21
438.778	366.07
438.985	380.41
439.192	417.27
439.399	386.55
439.606	374.27
439.813	515.58
440.02	622.07
440.227	603.64
440.433	558.58
440.64	480.76
440.847	497.14
441.054	562.68
441.261	622.07
441.467	552.44
441.674	550.39
441.881	673.27
442.088	579.06
442.294	726.52
442.501	712.18
442.708	775.67
442.914	790
443.121	708.09
443.328	808.44
443.534	861.68
443.741	830.96
443.948	755.19
444.154	849.4
444.361	1140.21
444.568	816.63
444.774	931.31
444.981	1050.1
445.187	1132.01
445.394	1095.15
445.6	1021.42
445.807	1240.56
446.013	1226.22
446.22	1199.6
446.426	1345
446.633	1351.15
446.839	1537.51
447.046	1310.19
447.252	1545.7
447.459	1412.59
447.665	1461.74
447.871	1562.09
448.078	1779.17
448.284	1680.87
448.491	1803.75
448.697	1998.31
448.903	1996.26
449.11	2123.23
449.316	1943.01
449.522	2174.43
449.728	2250.21
449.935	2330.08
450.141	2373.08
450.347	2563.54
450.553	2520.54
450.76	2586.07
450.966	2762.2
451.172	2872.79
451.378	2901.46
451.584	2999.76
451.791	3204.56
451.997	3249.61
452.203	3378.64
452.409	3548.62
452.615	3560.91
452.821	3605.96
453.027	3620.3
453.233	4101.57
453.44	3851.72
453.646	4113.86
453.852	4347.33
454.058	4572.6
454.264	4636.09
454.47	5035.44
454.676	4967.86
454.882	5436.85
455.088	5152.18
455.294	5584.3
455.5	5846.44
455.705	6165.92
455.911	6028.71
456.117	6301.09
456.323	6561.18
456.529	6520.22
456.735	7062.93
456.941	7394.7
457.147	7525.77
457.352	7744.91
457.558	8021.38
457.764	8521.09
457.97	8611.2
458.176	9231.73
458.381	9571.69
458.587	9801.07
458.793	10028.39
458.999	10188.13
459.204	11425.11
459.41	11859.28
459.616	11851.08
459.821	12363.08
460.027	13153.59
460.233	13577.52
460.438	13673.78
460.644	14269.73
460.85	14484.77
461.055	14918.94
461.261	15904.01
461.466	15412.5
461.672	15791.38
461.878	17429.75
462.083	17210.62
462.289	17806.58
462.494	18535.65
462.7	18586.85
462.905	18791.65
463.111	20638.92
463.316	21398.71
463.522	21505.21
463.727	22205.61
463.932	23141.53
464.138	24085.65
464.343	24751.24
464.549	25105.54
464.754	26967.14
464.959	27597.91
465.165	28073.04
465.37	27692.12
465.575	27987.03
465.781	29785.15
465.986	30676.01
466.191	30065.72
466.397	30422.06
466.602	29625.4
466.807	31556.64
467.012	32054.29
467.218	32234.52
467.423	32586.77
467.628	33616.9
467.833	34933.74
468.038	34380.79
468.244	33700.86
468.449	35363.81
468.654	34651.12
468.859	34735.09
469.064	34753.52
469.269	33799.16
469.474	34262.01
469.679	35271.65
469.885	34323.44
470.09	34481.14
470.295	34612.21
470.5	34321.4
470.705	34243.57
470.91	33016.84
471.115	32898.06
471.32	33348.61
471.525	33156.1
471.73	32134.17
471.935	31982.62
472.139	30483.5
472.344	30997.54
472.549	30649.39
472.754	29971.51
472.959	29469.76
473.164	28443.73
473.369	28128.34
473.574	28644.43
473.778	28163.15
473.983	27649.11
474.188	27475.04
474.393	25611.39
474.598	25760.89
474.802	25273.47
475.007	25013.38
475.212	24679.56
475.417	23678.1
475.621	23530.65
475.826	23348.38
476.031	22488.23
476.235	22277.29
476.44	22295.72
476.645	21533.88
476.849	21445.82
477.054	21290.17
477.259	20796.61
477.463	20301
477.668	19977.42
477.872	19942.61
478.077	19596.5
478.282	19055.84
478.486	18654.44
478.691	18429.16
478.895	18314.47
479.1	18441.45
479.304	18238.7
479.509	17552.63
479.713	17624.31
479.918	17349.88
480.122	16958.72
480.326	17194.23
480.531	17229.05
480.735	16819.46
480.94	16659.71
481.144	16956.67
481.348	15963.4
481.553	16100.62
481.757	15910.16
481.961	15895.82
482.166	16086.28
482.37	15756.56
482.574	15310.1
482.778	15736.08
482.983	15682.83
483.187	15447.32
483.391	15357.21
483.595	15226.14
483.8	14617.89
484.004	14638.37
484.208	14820.64
484.412	14470.44
484.616	14634.27
484.821	14341.41
485.025	13839.66
485.229	13972.78
485.433	13501.75
485.637	13516.08
485.841	13276.47
486.045	13208.89
486.249	13262.13
486.453	12932.41
486.657	12911.93
486.861	12459.33
487.065	12080.46
487.269	11947.34
487.473	11674.96
487.677	11963.72
487.881	11916.62
488.085	11427.15
488.289	11185.49
488.493	11058.52
488.697	10863.96
488.901	10636.64
489.105	10480.99
489.309	10468.7
489.512	10093.93
489.716	9807.21
489.92	9696.62
490.124	9596.27
490.328	9655.66
490.531	9201.01
490.735	9342.32
490.939	8926.58
491.143	8676.73
491.346	8627.58
491.55	8355.2
491.754	8367.49
491.958	8295.81
492.161	7878.02
492.365	7931.27
492.569	7804.3
492.772	7677.32
492.976	7703.95
493.18	7343.5
493.383	7525.77
493.587	7456.14
493.79	7245.2
493.994	7107.99
494.197	7159.19
494.401	7026.07
494.605	6917.53
494.808	6903.19
495.012	6759.83
495.215	6866.33
495.419	6942.1
495.622	6548.89
495.825	6647.19
496.029	6520.22
496.232	6567.32
496.436	6682.01
496.639	6706.59
496.843	6419.87
497.046	6524.32
497.249	6417.82
497.453	6575.52
497.656	6493.6
497.859	6583.71
498.063	6489.5
498.266	6528.41
498.469	6561.18
498.673	6507.93
498.876	6540.7
499.079	6413.73
499.282	6491.55
499.485	6860.18
499.689	6704.54
499.892	6647.19
500.095	6604.19
500.298	6669.72
500.501	6653.34
500.705	6919.57
500.908	6987.16
501.111	6884.76
501.314	7185.81
501.517	7181.71
501.72	7064.98
501.923	7200.15
502.126	7177.62
502.329	7484.81
502.532	7427.47
502.735	7411.09
502.938	7705.99
503.141	7632.27
503.344	7724.43
503.547	7921.03
503.75	7923.08
503.953	8172.93
504.156	8088.96
504.359	8172.93
504.562	8097.16
504.765	8478.08
504.968	8576.38
505.17	8818.04
505.373	8762.75
505.576	9211.25
505.779	9188.72
505.982	9256.31
506.185	9319.79
506.387	9502.06
506.59	9915.75
506.793	9887.08
506.996	9930.09
507.198	10343.78
507.401	10397.03
507.604	10642.78
507.807	10802.52
508.009	10913.11
508.212	11242.84
508.415	11371.86
508.617	11511.12
508.82	12023.11
509.022	12045.64
509.225	12637.5
509.428	12586.3
509.63	12637.5
509.833	13215.03
510.035	13587.76
510.238	13835.56
510.44	13712.69
510.643	14576.93
510.845	14890.27
511.048	14929.18
511.25	15322.39
511.453	15455.51
511.655	16241.93
511.858	16356.61
512.06	16723.2
512.262	17011.96
512.465	17224.95
512.667	17908.97
512.87	18081
513.072	18472.17
513.274	19293.4
513.477	19459.29
513.679	20085.97
513.881	20360.39
514.084	21056.7
514.286	21087.42
514.488	21791.92
514.69	22453.42
514.893	22609.06
515.095	23346.33
515.297	23809.17
515.499	24044.69
515.701	24884.36
515.904	25465.98
516.106	25703.54
516.308	26246.26
516.51	26936.42
516.712	27290.72
516.914	27903.06
517.116	28566.6
517.318	28818.5
517.52	29561.92
517.722	29727.8
517.925	30688.3
518.127	31235.11
518.329	31818.78
518.531	31640.61
518.733	32893.96
518.935	33453.06
519.136	33799.16
519.338	34319.35
519.54	34681.84
519.742	35392.48
519.944	36021.21
520.146	36731.86
520.348	36719.57
520.55	37141.45
520.752	37811.14
520.954	38149.05
521.155	38900.65
521.357	39715.75
521.559	40080.28
521.761	40387.48
521.963	40440.73
522.164	41124.75
522.366	41335.69
522.568	41683.84
522.77	42152.83
522.971	42978.16
523.173	42425.21
523.375	43142
523.576	43166.57
523.778	43137.9
523.98	43948.9
524.181	43909.99
524.383	43940.71
524.584	44594.01
524.786	44620.63
524.988	44686.17
525.189	44632.92
525.391	45169.49
525.592	44510.04
525.794	45136.72
525.995	44964.69
526.197	44960.59
526.398	44653.4
526.6	44923.73
526.801	45032.27
527.003	44620.63
527.204	44620.63
527.406	44469.08
527.607	44100.45
527.808	44063.58
528.01	43547.5
528.211	43139.95
528.412	43711.33
528.614	43320.17
528.815	43072.37
529.016	43162.48
529.218	42251.13
529.419	42154.88
529.62	41909.12
529.822	41663.36
530.023	40942.48
530.224	40571.8
530.425	40608.66
530.626	39680.93
530.828	39150.51
531.029	39928.73
531.23	38558.64
531.431	38460.34
531.632	37962.68
531.833	37759.94
532.035	37276.62
532.236	37020.62
532.437	36656.08
532.638	35642.34
532.839	35654.62
533.04	35331.04
533.241	34327.54
533.442	34511.86
533.643	34036.73
533.844	33504.26
534.045	32885.77
534.246	32304.15
534.447	32474.13
534.648	31364.13
534.849	31308.83
535.05	30958.63
535.251	30483.5
535.451	29910.07
535.652	29865.02
535.853	28902.47
536.054	29078.6
536.255	28580.94
536.456	27630.68
536.657	27919.45
536.857	27274.34
537.058	27110.5
537.259	27053.16
537.46	26422.38
537.66	25648.25
537.861	25836.66
538.062	25166.98
538.263	24972.42
538.463	24616.07
538.664	24118.42
538.865	24005.78
539.065	24089.74
539.266	23205.02
539.466	23628.95
539.667	22602.92
539.868	22957.22
540.068	22226.09
540.269	22244.52
540.469	21927.09
540.67	21337.27
540.87	21265.6
541.071	20982.98
541.271	20952.26
541.472	20589.77
541.672	20683.97
541.873	20153.55
542.073	19764.43
542.274	19477.72
542.474	19590.36
542.675	19168.48
542.875	19119.32
543.075	18926.82
543.276	18496.74
543.476	18638.05
543.676	18306.28
543.877	18259.18
544.077	17841.39
544.277	17657.07
544.478	17325.3
544.678	17390.84
544.878	17167.61
545.078	16979.2
545.279	16493.83
545.479	16508.16
545.679	16254.22
545.879	16233.74
546.079	15848.72
546.28	15803.66
546.48	15463.7
546.68	15500.56
546.88	15222.04
547.08	14906.65
547.28	14916.89
547.48	14550.31
547.68	14382.37
547.88	13782.32
548.081	14015.79
548.281	13690.16
548.481	13675.82
548.681	13612.34
548.881	13610.29
549.081	13389.11
549.28	12965.18
549.48	12895.55
549.68	12584.26
549.88	12793.15
550.08	12320.07
550.28	12537.15
550.48	12105.03
550.68	12105.03
550.88	11480.4
551.08	11312.47
551.279	11590.99
551.479	10917.21
551.679	11275.6
551.879	10958.17
552.079	10929.5
552.278	10696.03
552.478	10528.1
552.678	10503.52
552.878	10386.79
553.077	10052.97
553.277	9651.56
553.477	9960.81
553.676	9704.81
553.876	9260.4
554.076	9196.92
554.275	9178.48
554.475	8875.38
554.674	8758.65
554.874	8578.43
555.074	8459.65
555.273	8371.58
555.473	8164.74
555.672	8242.56
555.872	7943.56
556.071	7898.5
556.271	7824.78
556.47	7740.81
556.67	7402.9
556.869	7400.85
557.068	7288.21
557.268	7036.31
557.467	7017.88
557.667	7044.5
557.866	6823.32
558.065	6565.28
558.265	6579.61
558.464	6393.25
558.663	6272.42
558.863	6137.25
559.062	6186.4
559.261	6067.62
559.461	6022.56
559.66	5871.01
559.859	5615.02
560.058	5588.39
560.258	5342.64
560.457	5406.13
560.656	5469.61
560.855	5117.36
561.054	5295.54
561.253	5227.95
561.453	5213.62
561.652	4976.05
561.851	4961.72
562.05	4707.77
562.249	4691.38
562.448	4900.28
562.647	4412.86
562.846	4523.45
563.045	4539.83
563.244	4423.1
563.443	4289.98
563.642	4285.89
563.841	4052.42
564.04	4154.82
564.239	4206.02
564.438	4036.03
564.637	3859.91
564.836	3859.91
565.035	3739.08
565.234	3798.47
565.432	3749.32
565.631	3734.98
565.83	3646.92
566.029	3538.38
566.228	3612.1
566.427	3446.22
566.625	3247.57
566.824	3362.25
567.023	3311.05
567.222	3227.09
567.42	3100.11
567.619	3098.06
567.818	3216.85
568.016	3134.93
568.215	3093.97
568.414	2942.42
568.612	2989.52
568.811	2942.42
569.01	2911.7
569.208	2678.23
569.407	2829.78
569.605	2606.55
569.804	2674.14
570.002	2760.15
570.201	2524.63
570.4	2635.22
570.598	2418.14
570.797	2403.8
570.995	2498.01
571.193	2416.09
571.392	2465.24
571.59	2194.91
571.789	2254.3
571.987	2217.44
572.186	2397.66
572.384	2137.57
572.582	2196.96
572.781	2174.43
572.979	1986.02
573.177	2008.55
573.376	2078.18
573.574	2072.03
573.772	2000.35
573.971	1938.91
574.169	1922.53
574.367	1938.91
574.565	1865.19
574.763	1820.13
574.962	1791.46
575.16	1748.45
575.358	1629.67
575.556	1801.7
575.754	1588.71
575.952	1770.98
576.151	1568.23
576.349	1625.58
576.547	1527.27
576.745	1627.62
576.943	1609.19
577.141	1449.45
577.339	1410.54
577.537	1426.92
577.735	1519.08
577.933	1390.06
578.131	1402.35
578.329	1510.89
578.527	1283.56
578.725	1502.7
578.923	1201.65
579.121	1263.08
579.319	1164.78
579.516	1168.88
579.714	1445.35
579.912	1189.36
580.11	1185.26
580.308	1150.45
580.506	1052.14
580.704	1027.57
580.901	1121.77
581.099	1228.27
581.297	1029.62
581.495	1037.81
581.692	1021.42
581.89	1111.54
582.088	1015.28
582.285	1002.99
582.483	968.18
582.681	939.51
582.878	935.41
583.076	914.93
583.274	945.65
583.471	1054.19
583.669	849.4
583.866	810.48
584.064	820.72
584.262	744.95
584.459	736.76
584.657	841.2
584.854	873.97
585.052	814.58
585.249	767.48
585.447	773.62
585.644	722.42
585.841	833.01
586.039	783.86
586.236	792.05
586.434	663.03
586.631	595.45
586.828	632.31
587.026	790
587.223	630.26
587.42	726.52
587.618	650.74
587.815	716.28
588.012	585.21
588.21	554.49
588.407	675.32
588.604	634.36
588.801	593.4
588.999	564.73
589.196	660.98
589.393	636.41
589.59	636.41
589.787	650.74
589.984	574.97
590.182	591.35
590.379	646.65
590.576	556.54
590.773	644.6
590.97	599.54
591.167	577.02
591.364	609.78
591.561	550.39
591.758	706.04
591.955	626.17
592.152	605.69
592.349	519.67
592.546	609.78
592.743	394.75
592.94	579.06
593.137	505.34
593.334	673.27
593.531	597.49
593.727	538.1
593.924	538.1
594.121	554.49
594.318	464.38
594.515	564.73
594.712	693.75
594.908	681.46
595.105	546.3
595.302	595.45
595.499	611.83
595.696	781.81
595.892	579.06
596.089	751.09
596.286	577.02
596.482	796.15
596.679	660.98
596.876	587.26
597.072	771.57
597.269	699.89
597.466	820.72
597.662	841.2
597.859	783.86
598.055	800.24
598.252	927.22
598.448	882.16
598.645	929.27
598.841	953.84
599.038	1021.42
599.234	1009.14
599.431	896.5
599.627	1082.86
599.824	1148.4
600.02	1107.44
600.217	1201.65
600.413	1269.23
600.609	1371.63
600.806	1605.1
601.002	1369.58
601.198	1369.58
601.395	1574.38
601.591	1578.47
601.787	1695.21
601.984	1756.65
602.18	1842.66
602.376	1789.41
602.572	1998.31
602.769	1924.58
602.965	2090.46
603.161	2196.96
603.357	2266.59
603.553	2393.56
603.75	2375.13
603.946	2311.64
604.142	2407.9
604.338	2686.42
604.534	2647.51
604.73	2778.58
604.926	2909.65
605.122	3220.94
605.318	2901.46
605.514	3143.12
605.71	3179.98
605.906	3284.43
606.102	3390.92
606.298	3659.21
606.494	3653.06
606.69	3782.09
606.886	3839.43
607.082	3892.68
607.278	4132.29
607.474	4165.06
607.67	4228.54
607.866	4283.84
608.062	4611.51
608.257	4621.75
608.453	4693.43
608.649	5103.03
608.845	5043.64
609.041	5123.51
609.236	5387.69
609.432	5428.65
609.628	5531.05
609.824	5727.66
610.019	5875.11
610.215	6129.06
610.411	6245.79
610.606	6464.93
610.802	6446.49
610.998	6806.94
611.193	7099.8
611.389	6821.27
611.584	7458.19
611.78	7361.94
611.976	7525.77
612.171	8138.12
612.367	7984.52
612.562	8357.25
612.758	8422.78
612.953	8441.22
613.149	9033.08
613.344	9098.61
613.539	9207.16
613.735	9557.36
613.93	9823.59
614.126	9958.76
614.321	10503.52
614.517	10507.62
614.712	10902.87
614.907	11195.73
615.103	11382.1
615.298	11785.55
615.493	12070.22
615.688	12318.02
615.884	12719.42
616.079	12782.91
616.274	13272.37
616.47	13434.16
616.665	13739.31
616.86	14267.69
617.055	14480.68
617.25	15095.07
617.445	15377.69
617.641	15508.76
617.836	16303.37
618.031	16393.48
618.226	17120.51
618.421	17161.47
618.616	17894.64
618.811	17849.58
619.006	18687.2
619.201	18558.18
619.396	19094.75
619.591	19113.18
619.786	20108.49
619.981	20462.79
620.176	21152.96
620.371	20911.3
620.566	21478.58
620.761	22060.21
620.956	22799.52
621.151	22922.4
621.346	23614.62
621.541	23438.49
621.735	24497.29
621.93	24601.74
622.125	25265.28
622.32	25496.7
622.515	26307.69
622.709	26250.35
622.904	27544.67
623.099	27589.72
623.294	28441.68
623.488	28398.67
623.683	29185.09
623.878	29457.47
624.072	29860.92
624.267	30340.15
624.462	31046.69
624.656	31347.75
624.851	31726.62
625.046	31900.7
625.24	32424.98
625.435	32781.32
625.629	33649.66
625.824	33870.84
626.018	34384.88
626.213	34071.54
626.407	35316.71
626.602	35113.96
626.796	35838.94
626.991	36639.7
627.185	36568.02
627.38	36555.73
627.574	36342.74
627.768	36649.94
627.963	36840.4
628.157	37086.15
628.352	37592
628.546	36840.4
628.74	37303.24
628.935	36998.09
629.129	37536.71
629.323	36897.74
629.517	37077.96
629.712	36875.21
629.906	36428.76
630.1	36060.12
630.294	35863.52
630.489	35073
630.683	34933.74
630.877	34169.85
631.071	33717.25
631.265	33735.68
631.459	32568.34
631.653	31937.56
631.848	31216.68
632.042	30237.75
632.236	29678.65
632.43	28587.08
632.624	27952.21
632.818	27655.26
633.012	26553.45
633.206	25764.98
633.4	25072.77
633.594	23862.42
633.788	23030.94
633.982	22453.42
634.176	21789.88
634.369	20757.7
634.563	20327.63
634.757	19018.97
634.951	18855.14
635.145	17704.18
635.339	17509.62
635.533	16409.86
635.726	15967.5
635.92	14800.16
636.114	14480.68
636.308	14032.17
636.501	13520.18
636.695	12893.5
636.889	12295.49
637.083	11941.19
637.276	11285.84
637.47	10782.04
637.664	10540.38
637.857	10110.31
638.051	9667.95
638.244	9225.59
638.438	8983.93
638.632	8492.41
638.825	7976.33
639.019	7964.04
639.212	7484.81
639.406	7220.63
639.599	6872.47
639.793	6757.78
639.986	6442.4
640.18	6182.31
640.373	6120.87
640.567	5588.39
640.76	5533.1
640.954	5279.15
641.147	5023.16
641.34	4949.43
641.534	4728.25
641.727	4652.47
641.92	4376
642.114	4244.93
642.307	4029.89
642.5	3937.73
642.694	3804.61
642.887	3489.23
643.08	3503.56
643.273	3401.16
643.467	3188.18
643.66	3044.82
643.853	2844.12
644.046	2895.32
644.239	2713.05
644.432	2479.58
644.626	2344.41
644.819	2409.95
645.012	2196.96
645.205	2192.86
645.398	2180.57
645.591	2035.17
645.784	2045.41
645.977	1910.24
646.17	1873.38
646.363	1781.22
646.556	1717.73
646.749	1574.38
646.942	1504.75
647.135	1588.71
647.328	1486.31
647.521	1488.36
647.714	1340.91
647.907	1373.68
648.099	1256.94
648.292	1254.89
648.485	1164.78
648.678	1127.92
648.871	1039.86
649.064	1095.15
649.256	855.54
649.449	888.31
649.642	828.92
649.835	826.87
650.027	800.24
650.22	792.05
650.413	792.05
650.605	812.53
650.798	763.38
650.991	683.51
651.183	703.99
651.376	775.67
651.568	681.46
651.761	593.4
651.954	679.41
652.146	620.02
652.339	550.39
652.531	558.58
652.724	509.43
652.916	534.01
653.109	341.5
653.301	525.82
653.494	517.62
653.686	437.75
653.879	435.71
654.071	404.99
654.263	366.07
654.456	374.27
654.648	562.68
654.84	456.19
655.033	318.97
655.225	407.03
655.417	349.69
655.61	441.85
655.802	484.86
655.994	462.33
656.186	241.15
656.379	312.83
656.571	243.2
656.763	306.68
656.955	284.16
657.148	278.01
657.34	337.4
657.532	245.24
657.724	265.72
657.916	257.53
658.108	304.64
658.3	304.64
658.492	228.86
658.684	194.05
658.876	300.54
659.068	230.91
659.26	179.71
659.452	253.44
659.644	259.58
659.836	230.91
660.028	216.57
660.22	132.61
660.412	255.48
660.604	228.86
660.796	167.42
660.988	239.1
661.18	216.57
661.372	151.04
661.563	120.32
661.755	161.28
661.947	146.94
662.139	136.7
662.331	183.81
662.522	161.28
662.714	163.33
662.906	118.27
663.097	144.89
663.289	140.8
663.481	34.3
663.673	136.7
663.864	62.98
664.056	144.89
664.247	75.26
664.439	175.61
664.631	165.37
664.822	163.33
665.014	165.37
665.205	91.65
665.397	79.36
665.588	146.94
665.78	165.37
665.971	226.81
666.163	54.78
666.354	198.14
666.546	22.02
666.737	151.04
666.929	67.07
667.12	62.98
667.311	175.61
667.503	161.28
667.694	134.65
667.885	93.69
668.077	87.55
668.268	36.35
668.459	175.61
668.651	114.17
668.842	105.98
669.033	116.22
669.224	19.97
669.416	165.37
669.607	75.26
669.798	108.03
669.989	183.81
670.18	155.13
670.371	148.99
670.563	38.4
670.754	216.57
670.945	97.79
671.136	87.55
671.327	48.64
671.518	146.94
671.709	183.81
671.9	200.19
672.091	116.22
672.282	50.69
672.473	122.37
672.664	50.69
672.855	153.09
673.046	247.29
673.237	200.19
673.428	87.55
673.619	151.04
673.809	114.17
674	210.43
674.191	99.84
674.382	108.03
674.573	52.74
674.764	95.74
674.954	181.76
675.145	99.84
675.336	50.69
675.527	116.22
675.717	58.88
675.908	132.61
676.099	87.55
676.289	126.46
676.48	52.74
676.671	105.98
676.861	112.13
677.052	132.61
677.243	142.85
677.433	87.55
677.624	181.76
677.814	108.03
678.005	44.54
678.195	183.81
678.386	95.74
678.576	118.27
678.767	101.89
678.957	103.93
679.148	177.66
679.338	257.53
679.529	128.51
679.719	196.09
679.909	259.58
680.1	153.09
680.29	116.22
680.481	50.69
680.671	177.66
680.861	134.65
681.052	189.95
681.242	116.22
681.432	232.96
681.622	243.2
681.813	54.78
682.003	202.24
682.193	120.32
682.383	194.05
682.573	138.75
682.764	93.69
682.954	169.47
683.144	247.29
683.334	89.6
683.524	185.85
683.714	226.81
683.904	161.28
684.094	198.14
684.284	105.98
684.474	341.5
684.664	181.76
684.854	124.41
685.044	112.13
685.234	93.69
685.424	194.05
685.614	173.57
685.804	273.92
685.994	230.91
686.184	151.04
686.374	189.95
686.564	189.95
686.753	128.51
686.943	122.37
687.133	155.13
687.323	187.9
687.513	204.28
687.702	230.91
687.892	171.52
688.082	218.62
688.272	220.67
688.461	241.15
688.651	265.72
688.841	183.81
689.03	120.32
689.22	157.18
689.41	144.89
689.599	177.66
689.789	148.99
689.979	308.73
690.168	177.66
690.358	167.42
690.547	161.28
690.737	198.14
690.926	247.29
691.116	253.44
691.305	235
691.495	214.52
691.684	99.84
691.874	116.22
692.063	187.9
692.252	142.85
692.442	220.67
692.631	108.03
692.82	204.28
693.01	196.09
693.199	173.57
693.388	216.57
693.578	165.37
693.767	171.52
693.956	208.38
694.146	87.55
694.335	116.22
694.524	148.99
694.713	194.05
694.902	165.37
695.092	46.59
695.281	157.18
695.47	198.14
695.659	126.46
695.848	144.89
696.037	138.75
696.226	251.39
696.415	208.38
696.604	275.96
696.793	159.23
696.982	181.76
697.171	263.68
697.36	105.98
697.549	214.52
697.738	83.45
697.927	189.95
698.116	144.89
698.305	200.19
698.494	99.84
698.683	249.34
698.872	226.81
699.061	140.8
699.25	116.22
699.438	136.7
699.627	116.22
699.816	241.15
700.005	62.98
700.193	163.33
700.382	257.53
700.571	239.1
700.76	175.61
700.948	251.39
701.137	206.33
701.326	192
701.514	148.99
701.703	198.14
701.892	161.28
702.08	355.83
702.269	140.8
702.457	71.17
702.646	224.76
702.834	144.89
703.023	169.47
703.212	175.61
703.4	161.28
703.589	181.76
703.777	159.23
703.965	134.65
704.154	144.89
704.342	173.57
704.531	77.31
704.719	87.55
704.907	214.52
705.096	105.98
705.284	71.17
705.472	128.51
705.661	167.42
705.849	263.68
706.037	181.76
706.226	167.42
706.414	243.2
706.602	112.13
706.79	218.62
706.979	132.61
707.167	169.47
707.355	124.41
707.543	118.27
707.731	173.57
707.919	208.38
708.107	140.8
708.296	93.69
708.484	79.36
708.672	200.19
708.86	155.13
709.048	226.81
709.236	110.08
709.424	218.62
709.612	210.43
709.8	110.08
709.988	95.74
710.176	214.52
710.364	194.05
710.551	194.05
710.739	157.18
710.927	173.57
711.115	128.51
711.303	235
711.491	202.24
711.679	169.47
711.866	192
712.054	108.03
712.242	222.72
712.43	124.41
712.617	206.33
712.805	224.76
712.993	153.09
713.181	91.65
713.368	196.09
713.556	216.57
713.744	151.04
713.931	292.35
714.119	235
714.306	151.04
714.494	189.95
714.682	161.28
714.869	112.13
715.057	196.09
715.244	95.74
715.432	93.69
715.619	112.13
715.807	136.7
715.994	173.57
716.182	239.1
716.369	247.29
716.556	165.37
716.744	153.09
716.931	91.65
717.119	255.48
717.306	91.65
717.493	210.43
717.681	108.03
717.868	185.85
718.055	265.72
718.242	232.96
718.43	189.95
718.617	292.35
718.804	216.57
718.991	222.72
719.179	222.72
719.366	206.33
719.553	181.76
719.74	189.95
719.927	175.61
720.114	206.33
720.301	132.61
720.488	161.28
720.676	177.66
720.863	292.35
721.05	282.11
721.237	247.29
721.424	202.24
721.611	194.05
721.798	144.89
721.985	171.52
722.172	163.33
722.358	189.95
722.545	208.38
722.732	220.67
722.919	275.96
723.106	181.76
723.293	204.28
723.48	120.32
723.667	255.48
723.853	312.83
724.04	265.72
724.227	275.96
724.414	202.24
724.6	220.67
724.787	280.06
724.974	329.21
725.161	132.61
725.347	87.55
725.534	235
725.72	232.96
725.907	218.62
726.094	247.29
726.28	71.17
726.467	275.96
726.653	142.85
726.84	253.44
727.027	366.07
727.213	185.85
727.4	200.19
727.586	198.14
727.773	239.1
727.959	151.04
728.145	153.09
728.332	161.28
728.518	232.96
728.705	235
728.891	194.05
729.077	361.98
729.264	218.62
729.45	163.33
729.636	339.45
729.823	173.57
730.009	267.77
730.195	300.54
730.382	312.83
730.568	198.14
730.754	241.15
730.94	202.24
731.126	218.62
731.313	335.35
731.499	210.43
731.685	284.16
731.871	278.01
732.057	271.87
732.243	341.5
732.429	267.77
732.615	308.73
732.801	202.24
732.987	271.87
733.173	192
733.359	224.76
733.545	202.24
733.731	230.91
733.917	353.79
734.103	275.96
734.289	316.92
734.475	204.28
734.661	407.03
734.847	273.92
735.033	243.2
735.219	292.35
735.404	230.91
735.59	251.39
735.776	169.47
735.962	261.63
736.148	267.77
736.333	275.96
736.519	235
736.705	212.48
736.89	235
737.076	210.43
737.262	208.38
737.447	202.24
737.633	288.25
737.819	284.16
738.004	304.64
738.19	224.76
738.375	300.54
738.561	316.92
738.747	230.91
738.932	165.37
739.118	292.35
739.303	206.33
739.489	337.4
739.674	224.76
739.859	142.85
740.045	257.53
740.23	237.05
740.416	110.08
740.601	257.53
740.786	275.96
740.972	200.19
741.157	183.81
741.342	103.93
741.528	177.66
741.713	247.29
741.898	275.96
742.084	275.96
742.269	251.39
742.454	265.72
742.639	204.28
742.824	245.24
743.01	325.12
743.195	380.41
743.38	171.52
743.565	224.76
743.75	263.68
743.935	306.68
744.12	353.79
744.305	177.66
744.49	206.33
744.675	183.81
744.86	151.04
745.045	224.76
745.23	257.53
745.415	243.2
745.6	255.48
745.785	230.91
745.97	323.07
746.155	220.67
746.34	323.07
746.525	214.52
746.71	294.4
746.895	151.04
747.079	228.86
747.264	181.76
747.449	282.11
747.634	267.77
747.819	284.16
748.003	269.82
748.188	146.94
748.373	257.53
748.557	251.39
748.742	249.34
748.927	243.2
749.111	181.76
749.296	251.39
749.481	257.53
749.665	161.28
749.85	157.18
750.034	241.15
750.219	200.19
750.404	173.57
750.588	171.52
750.773	116.22
750.957	241.15
751.141	144.89
751.326	232.96
751.51	173.57
751.695	196.09
751.879	202.24
752.064	255.48
752.248	136.7
752.432	251.39
752.617	247.29
752.801	251.39
752.985	228.86
753.17	278.01
753.354	175.61
753.538	181.76
753.722	151.04
753.907	142.85
754.091	128.51
754.275	134.65
754.459	75.26
754.643	159.23
754.828	157.18
755.012	212.48
755.196	169.47
755.38	263.68
755.564	77.31
755.748	163.33
755.932	189.95
756.116	192
756.3	230.91
756.484	126.46
756.668	208.38
756.852	30.21
757.036	144.89
757.22	122.37
757.404	116.22
757.588	103.93
757.772	175.61
757.956	210.43
758.14	265.72
758.323	112.13
758.507	230.91
758.691	130.56
758.875	185.85
759.059	263.68
759.242	128.51
759.426	120.32
759.61	110.08
759.794	77.31
759.977	165.37
760.161	280.06
760.345	206.33
760.528	212.48
760.712	71.17
760.895	101.89
761.079	140.8
761.263	38.4
761.446	62.98
761.63	99.84
761.813	251.39
761.997	91.65
762.18	148.99
762.364	110.08
762.547	91.65
762.731	67.07
762.914	169.47
763.098	114.17
763.281	89.6
763.464	28.16
763.648	161.28
763.831	116.22
764.015	136.7
764.198	185.85
764.381	140.8
764.564	103.93
764.748	67.07
764.931	198.14
765.114	58.88
765.297	155.13
765.481	48.64
765.664	142.85
765.847	155.13
766.03	202.24
766.213	36.35
766.397	101.89
766.58	65.02
766.763	73.21
766.946	71.17
767.129	54.78
767.312	7.68
767.495	65.02
767.678	73.21
767.861	128.51
768.044	91.65
768.227	81.41
768.41	173.57
768.593	79.36
768.776	89.6
768.959	71.17
769.142	167.42
769.324	114.17
769.507	128.51
769.69	22.02
769.873	-10.75
770.056	148.99
770.239	19.97
770.421	200.19
770.604	79.36
770.787	60.93
770.97	157.18
771.152	46.59
771.335	97.79
771.518	32.26
771.7	210.43
771.883	116.22
772.066	95.74
772.248	-0.51
772.431	144.89
772.613	128.51
772.796	114.17
772.978	161.28
773.161	218.62
773.343	7.68
773.526	-4.61
773.708	-18.94
773.891	-10.75
774.073	22.02
774.256	46.59
774.438	134.65
774.621	69.12
774.803	75.26
774.985	38.4
775.168	175.61
775.35	87.55
775.532	144.89
775.715	87.55
775.897	103.93
776.079	56.83
776.261	81.41
776.444	79.36
776.626	62.98
776.808	42.5
776.99	-74.24
777.173	85.5
777.355	114.17
777.537	38.4
777.719	93.69
777.901	26.11
778.083	67.07
778.265	-10.75
778.447	40.45
778.629	-35.33
778.811	24.06
778.993	9.73
779.175	124.41
779.357	91.65
779.539	-53.76
779.721	60.93
779.903	46.59
780.085	11.78
780.267	101.89
780.449	89.6
780.631	-0.51
780.812	134.65
780.994	11.78
781.176	95.74
781.358	-8.7
781.54	77.31
781.721	124.41
781.903	54.78
782.085	3.58
782.267	148.99
782.448	-29.18
782.63	46.59
782.812	46.59
782.993	71.17
783.175	132.61
783.357	-55.81
783.538	-27.14
783.72	-14.85
783.901	13.82
784.083	136.7
784.264	36.35
784.446	-29.18
784.627	32.26
784.809	34.3
784.99	-8.7
785.172	42.5
785.353	36.35
785.535	44.54
785.716	69.12
785.897	-84.48
786.079	3.58
786.26	-18.94
786.441	114.17
786.623	-47.62
786.804	-12.8
786.985	71.17
787.167	3.58
787.348	9.73
787.529	-20.99
787.71	87.55
787.891	89.6
788.073	-6.66
788.254	-23.04
788.435	196.09
788.616	-16.9
788.797	-86.53
788.978	19.97
789.159	17.92
789.34	5.63
789.522	-18.94
789.703	-35.33
789.884	144.89
790.065	-18.94
790.246	167.42
790.427	3.58
790.607	87.55
790.788	62.98
790.969	-47.62
791.15	28.16
791.331	34.3
791.512	7.68
791.693	-47.62
791.874	-4.61
792.054	103.93
792.235	42.5
792.416	-27.14
792.597	13.82
792.778	101.89
792.958	34.3
793.139	54.78
793.32	34.3
793.5	-111.1
793.681	108.03
793.862	54.78
794.042	30.21
794.223	-35.33
794.404	-0.51
794.584	-88.57
794.765	-35.33
794.945	79.36
795.126	103.93
795.306	58.88
795.487	-0.51
795.667	44.54
795.848	28.16
796.028	-80.38
796.209	85.5
796.389	128.51
796.57	-14.85
796.75	-70.14
796.93	-20.99
797.111	-16.9
797.291	9.73
797.471	91.65
797.652	-2.56
797.832	-18.94
798.012	95.74
798.192	-25.09
798.373	-53.76
798.553	-43.52
798.733	5.63
798.913	-64
799.093	-27.14
799.274	56.83
799.454	54.78
799.634	-16.9
799.814	22.02
799.994	62.98
800.174	95.74
800.354	-2.56
800.534	-35.33
800.714	28.16
800.894	-59.9
801.074	-92.67
801.254	-37.38
801.434	77.31
801.614	-16.9
801.794	-18.94
801.974	1684.97
802.154	28.16
802.334	38.4
802.514	-88.57
802.693	-10.75
802.873	-96.77
803.053	99.84
803.233	30.21
803.413	-18.94
803.592	-55.81
803.772	-12.8
803.952	-29.18
804.131	-43.52
804.311	60.93
804.491	153.09
804.67	1.54
804.85	-53.76
805.03	62.98
805.209	85.5
805.389	-35.33
805.568	-51.71
805.748	-59.9
805.928	32.26
806.107	19.97
806.287	17.92
806.466	-84.48
806.646	5.63
806.825	-0.51
807.004	-51.71
807.184	62.98
807.363	73.21
807.543	69.12
807.722	-115.2
807.901	44.54
808.081	128.51
808.26	-117.25
808.439	-10.75
808.619	-35.33
808.798	9.73
808.977	26.11
809.156	48.64
809.336	13.82
809.515	-6.66
809.694	26.11
809.873	9.73
810.052	1.54
810.231	52.74
810.411	38.4
810.59	22.02
810.769	42.5
810.948	83.45
811.127	-135.68
811.306	-6.66
811.485	-57.86
811.664	87.55
811.843	-23.04
812.022	-33.28
812.201	-4.61
812.38	-2.56
812.559	17.92
812.737	17.92
812.916	-133.63
813.095	-84.48
813.274	-76.29
813.453	7.68
813.632	-35.33
813.811	22.02
813.989	-35.33
814.168	34.3
814.347	-51.71
814.526	-72.19
814.704	85.5
814.883	175.61
815.062	-64
815.24	54.78
815.419	-104.96
815.598	24.06
815.776	-76.29
815.955	26.11
816.133	-160.25
816.312	-68.09
816.49	-0.51
816.669	-59.9
816.847	-10.75
817.026	34.3
817.204	17.92
817.383	-2.56
817.561	-43.52
817.74	3.58
817.918	62.98
818.097	-23.04
818.275	-4.61
818.453	-20.99
818.632	26.11
818.81	56.83
818.988	-76.29
819.167	34.3
819.345	9.73
819.523	-113.15
819.701	-51.71
819.879	42.5
820.058	17.92
820.236	22.02
820.414	-43.52
820.592	-6.66
820.77	-43.52
820.948	-39.42
821.127	-41.47
821.305	87.55
821.483	-100.86
821.661	-27.14
821.839	-2.56
822.017	-43.52
822.195	46.59
822.373	60.93
822.551	1.54
822.729	-18.94
822.907	34.3
823.085	120.32
823.262	95.74
823.44	-88.57
823.618	1.54
823.796	-37.38
823.974	-27.14
824.152	-59.9
824.329	-53.76
824.507	-8.7
824.685	-16.9
824.863	-31.23
825.04	46.59
825.218	-35.33
825.396	17.92
825.574	-37.38
825.751	-74.24
825.929	-27.14
826.107	-86.53
826.284	56.83
826.462	11.78
826.639	-43.52
826.817	-113.15
826.994	-4.61
827.172	-68.09
827.349	103.93
827.527	3.58
827.704	36.35
827.882	91.65
828.059	28.16
828.237	13.82
828.414	3.58
828.591	-113.15
828.769	-2.56
828.946	-20.99
829.124	71.17
829.301	71.17
829.478	-53.76
829.655	-6.66
829.833	79.36
830.01	-147.97
830.187	1.54
830.364	-10.75
830.542	-10.75
830.719	46.59
830.896	26.11
831.073	67.07
831.25	7.68
831.427	-0.51
831.604	36.35
831.782	-39.42
831.959	-14.85
832.136	-37.38
832.313	11.78
832.49	-18.94
832.667	-12.8
832.844	-88.57
833.021	28.16
833.198	-43.52
833.374	11.78
833.551	50.69
833.728	15.87
833.905	-6.66
834.082	-96.77
834.259	-31.23
834.436	17.92
834.612	-14.85
834.789	67.07
834.966	-86.53
835.143	28.16
835.319	-109.05
835.496	28.16
835.673	-14.85
835.85	-2.56
836.026	-41.47
836.203	50.69
836.38	-74.24
836.556	-86.53
836.733	-84.48
836.909	60.93
837.086	11.78
837.262	-55.81
837.439	22.02
837.616	-14.85
837.792	-25.09
837.968	-68.09
838.145	-113.15
838.321	-74.24
838.498	91.65
838.674	5.63
838.851	-8.7
839.027	-43.52
839.203	-2.56
839.38	-29.18
839.556	-78.33
839.732	19.97
839.909	50.69
840.085	46.59
840.261	-133.63
840.437	-6.66
840.614	-53.76
840.79	1.54
840.966	46.59
841.142	48.64
841.318	-49.66
841.494	50.69
841.671	38.4
841.847	46.59
842.023	-27.14
842.199	26.11
842.375	77.31
842.551	-88.57
842.727	-129.53
842.903	118.27
843.079	-109.05
843.255	44.54
843.431	-68.09
843.607	9.73
843.783	-166.4
843.959	5.63
844.134	46.59
844.31	58.88
844.486	-55.81
844.662	-47.62
844.838	-10.75
845.013	-10.75
845.189	42.5
845.365	114.17
845.541	42.5
845.716	1.54
845.892	44.54
846.068	-61.95
846.244	-76.29
846.419	1.54
846.595	-16.9
846.77	-47.62
846.946	71.17
847.122	-84.48
847.297	-10.75
847.473	65.02
847.648	-55.81
847.824	-35.33
847.999	-135.68
848.175	-29.18
848.35	7.68
848.526	69.12
848.701	97.79
848.876	17.92
849.052	97.79
849.227	-68.09
849.403	13.82
849.578	-53.76
849.753	22.02
849.929	22.02
850.104	-129.53
850.279	40.45
850.454	-43.52
850.63	34.3
850.805	-2.56
850.98	-39.42
851.155	-41.47
851.33	9.73
851.505	-76.29
851.681	40.45
851.856	-49.66
852.031	-25.09
852.206	-14.85
852.381	44.54
852.556	-10.75
852.731	1.54
852.906	-41.47
853.081	30.21
853.256	62.98
853.431	-31.23
853.606	-29.18
853.781	-66.05
853.956	-129.53
854.131	-31.23
854.305	-47.62
854.48	-45.57
854.655	-59.9
854.83	-33.28
855.005	-51.71
855.18	-25.09
855.354	-45.57
855.529	62.98
855.704	11.78
855.879	71.17
856.053	-86.53
856.228	-43.52
856.403	-2.56
856.577	52.74
856.752	-135.68
856.926	-64
857.101	83.45
857.276	-66.05
857.45	42.5
857.625	42.5
857.799	17.92
857.974	5.63
858.148	-78.33
858.323	3.58
858.497	-23.04
858.672	9.73
858.846	-10.75
859.02	-10.75
859.195	-164.35
859.369	9.73
859.543	-12.8
859.718	19.97
859.892	30.21
860.066	-25.09
860.241	30.21
860.415	5.63
860.589	-14.85
860.763	-78.33
860.938	-84.48
861.112	58.88
861.286	-150.01
861.46	-20.99
861.634	-18.94
861.808	7.68
861.982	-82.43
862.157	-125.44
862.331	-8.7
862.505	-168.45
862.679	-45.57
862.853	-12.8
863.027	-2.56
863.201	30.21
863.375	-23.04
863.549	-59.9
863.722	7.68
863.896	54.78
864.07	-55.81
864.244	26.11
864.418	73.21
864.592	36.35
864.766	-31.23
864.939	24.06
865.113	-43.52
865.287	101.89
865.461	-76.29
865.634	34.3
865.808	52.74
865.982	-45.57
866.156	-41.47
866.329	-90.62
866.503	-20.99
866.676	46.59
866.85	-41.47
867.024	-57.86
867.197	134.65
867.371	-47.62
867.544	5.63
867.718	-68.09
867.891	28.16
868.065	-150.01
868.238	-61.95
868.412	1.54
868.585	-117.25
868.759	-29.18
868.932	-84.48
869.105	-88.57
869.279	-31.23
869.452	-47.62
869.625	28.16
869.799	-57.86
869.972	-37.38
870.145	-57.86
870.319	1.54
870.492	-96.77
870.665	5.63
870.838	-113.15
871.011	-82.43
871.185	-100.86
871.358	-61.95
871.531	46.59
871.704	-43.52
871.877	-37.38
872.05	17.92
872.223	-64
872.396	44.54
872.569	30.21
872.742	-76.29
872.915	30.21
873.088	-43.52
873.261	-72.19
873.434	-51.71
873.607	24.06
873.78	79.36
873.953	-109.05
874.126	3.58
874.299	97.79
874.471	-61.95
874.644	-18.94
874.817	13.82
874.99	38.4
875.163	-57.86
875.335	-64
875.508	11.78
875.681	9.73
875.853	-53.76
876.026	7.68
876.199	40.45
876.371	28.16
876.544	-10.75
876.717	-76.29
876.889	9.73
877.062	1.54
877.234	-51.71
877.407	-23.04
877.579	-10.75
877.752	1.54
877.924	-2.56
878.097	34.3
878.269	13.82
878.442	7.68
878.614	46.59
878.786	5.63
878.959	-37.38
879.131	17.92
879.303	-111.1
879.476	-80.38
879.648	42.5
879.82	-41.47
879.993	-72.19
880.165	-29.18
880.337	-76.29
880.509	-37.38
880.681	-137.73
880.854	-74.24
881.026	83.45
881.198	52.74
881.37	-18.94
881.542	46.59
881.714	-2.56
881.886	-117.25
882.058	67.07
882.23	-33.28
882.402	-18.94
882.574	5.63
882.746	67.07
882.918	83.45
883.09	34.3
883.262	52.74
883.434	-33.28
883.606	-111.1
883.778	-2.56
883.95	85.5
884.122	28.16
884.293	34.3
884.465	-86.53
884.637	5.63
884.809	-102.91
884.98	5.63
885.152	-12.8
885.324	-2.56
885.496	-76.29
885.667	30.21
885.839	-41.47
886.011	85.5
886.182	-4.61
886.354	5.63
886.525	-2.56
886.697	-23.04
886.869	-76.29
887.04	-18.94
887.212	44.54
887.383	73.21
887.555	85.5
887.726	-23.04
887.897	-64
888.069	-10.75
888.24	93.69
888.412	36.35
888.583	-68.09
888.754	-16.9
888.926	-98.81
889.097	-76.29
889.268	-133.63
889.44	-55.81
889.611	-109.05
889.782	-100.86
889.953	-57.86
890.125	46.59
890.296	-107.01
890.467	-88.57
890.638	-4.61
890.809	-86.53
890.98	-80.38
891.151	-39.42
891.323	38.4
891.494	-51.71
891.665	-109.05
891.836	-39.42
892.007	-27.14
892.178	1.54
892.349	-6.66
892.52	-100.86
892.691	-37.38
892.862	-39.42
893.032	-51.71
893.203	-70.14
893.374	54.78
893.545	-0.51
893.716	-43.52
893.887	120.32
894.057	-64
894.228	5.63
894.399	-53.76
894.57	85.5
894.74	-2.56
894.911	-33.28
895.082	-47.62
895.253	-104.96
895.423	34.3
895.594	-14.85
895.764	1.54
895.935	-43.52
896.106	38.4
896.276	-109.05
896.447	-51.71
896.617	62.98
896.788	-61.95
896.958	-76.29
897.129	-141.82
897.299	-78.33
897.47	38.4
897.64	-16.9
897.81	-27.14
897.981	28.16
898.151	-61.95
898.322	40.45
898.492	13.82
898.662	-76.29
898.832	-47.62
899.003	-113.15
899.173	60.93
899.343	-68.09
899.513	-51.71
