Data from USB4F104151__49__10-25-27-933.txt Node

Date: Wed Feb 26 10:25:27 EST 2025
User: louis
Spectrometer: USB4F10415
Trigger mode: 4
Integration Time (sec): 1.000000E-1
Scans to average: 1
Electric dark correction enabled: true
Nonlinearity correction enabled: false
Boxcar width: 0
XAxis mode: Wavelengths
Number of Pixels in Spectrum: 3648
>>>>>Begin Spectral Data<<<<<
178.204	-364.37
178.424	-364.37
178.644	-364.37
178.864	-427.85
179.084	-339.79
179.304	2.22
179.524	-40.79
179.744	-48.98
179.964	39.08
180.184	34.99
180.404	49.32
180.624	30.89
180.844	18.6
181.064	-116.56
181.283	51.37
181.503	-81.75
181.723	61.61
181.943	-55.12
182.163	241.83
182.383	18.6
182.602	92.33
182.822	127.14
183.042	4.27
183.262	30.89
183.482	63.66
183.701	55.47
183.921	84.14
184.141	18.6
184.361	96.43
184.58	63.66
184.8	32.94
185.02	-42.84
185.239	86.19
185.459	135.34
185.679	129.19
185.898	-130.9
186.118	20.65
186.338	90.28
186.557	96.43
186.777	-34.64
186.997	20.65
187.216	45.23
187.436	143.53
187.655	71.85
187.875	108.71
188.095	53.42
188.314	118.95
188.534	125.1
188.753	-53.08
188.973	43.18
189.192	204.97
189.412	18.6
189.631	55.47
189.851	84.14
190.07	211.11
190.29	-36.69
190.509	-34.64
190.729	-8.02
190.948	182.44
191.168	211.11
191.387	112.81
191.607	39.08
191.826	55.47
192.045	28.84
192.265	-38.74
192.484	77.99
192.704	45.23
192.923	-42.84
193.142	223.4
193.362	71.85
193.581	69.8
193.8	88.23
194.02	71.85
194.239	8.36
194.458	28.84
194.678	-8.02
194.897	45.23
195.116	80.04
195.335	20.65
195.555	26.79
195.774	2.22
195.993	123.05
196.212	4.27
196.432	-16.21
196.651	20.65
196.87	43.18
197.089	200.87
197.308	198.82
197.528	71.85
197.747	-59.22
197.966	155.82
198.185	73.9
198.404	10.41
198.623	63.66
198.842	131.24
199.062	90.28
199.281	77.99
199.5	-8.02
199.719	129.19
199.938	69.8
200.157	77.99
200.376	39.08
200.595	92.33
200.814	180.39
201.033	53.42
201.252	108.71
201.471	106.67
201.69	80.04
201.909	112.81
202.128	161.96
202.347	102.57
202.566	39.08
202.785	-48.98
203.004	-28.5
203.223	272.55
203.442	18.6
203.661	-85.84
203.879	67.75
204.098	241.83
204.317	-20.31
204.536	65.71
204.755	88.23
204.974	159.91
205.193	-51.03
205.411	84.14
205.63	164.01
205.849	61.61
206.068	18.6
206.287	41.13
206.505	131.24
206.724	57.51
206.943	-18.26
207.162	14.51
207.381	159.91
207.599	-89.94
207.818	14.51
208.037	55.47
208.255	18.6
208.474	41.13
208.693	16.55
208.911	12.46
209.13	125.1
209.349	114.86
209.567	86.19
209.786	112.81
210.005	84.14
210.223	67.75
210.442	-108.37
210.661	6.31
210.879	57.51
211.098	45.23
211.316	121
211.535	53.42
211.753	37.03
211.972	112.81
212.191	45.23
212.409	37.03
212.628	84.14
212.846	0.17
213.065	-22.36
213.283	121
213.502	28.84
213.72	69.8
213.938	30.89
214.157	-5.97
214.375	94.38
214.594	110.76
214.812	10.41
215.031	10.41
215.249	39.08
215.467	30.89
215.686	20.65
215.904	125.1
216.122	63.66
216.341	110.76
216.559	30.89
216.778	145.58
216.996	88.23
217.214	16.55
217.432	-57.17
217.651	20.65
217.869	71.85
218.087	43.18
218.306	49.32
218.524	65.71
218.742	104.62
218.96	43.18
219.179	-18.26
219.397	14.51
219.615	223.4
219.833	145.58
220.051	-59.22
220.27	168.1
220.488	108.71
220.706	57.51
220.924	88.23
221.142	65.71
221.36	141.48
221.578	121
221.796	65.71
222.015	39.08
222.233	88.23
222.451	153.77
222.669	-81.75
222.887	110.76
223.105	-3.93
223.323	41.13
223.541	-59.22
223.759	157.86
223.977	22.7
224.195	116.9
224.413	112.81
224.631	-46.93
224.849	86.19
225.067	237.74
225.285	20.65
225.503	-94.04
225.721	-71.51
225.939	16.55
226.157	69.8
226.375	209.06
226.592	28.84
226.81	73.9
227.028	104.62
227.246	143.53
227.464	8.36
227.682	143.53
227.9	71.85
228.117	30.89
228.335	71.85
228.553	55.47
228.771	28.84
228.989	45.23
229.206	129.19
229.424	73.9
229.642	32.94
229.86	-42.84
230.077	59.56
230.295	88.23
230.513	82.09
230.731	22.7
230.948	198.82
231.166	161.96
231.384	-12.12
231.601	-26.45
231.819	114.86
232.037	-20.31
232.254	-38.74
232.472	8.36
232.689	37.03
232.907	176.3
233.125	24.75
233.342	8.36
233.56	-10.07
233.777	22.7
233.995	73.9
234.213	92.33
234.43	34.99
234.648	12.46
234.865	69.8
235.083	145.58
235.3	65.71
235.518	92.33
235.735	133.29
235.953	57.51
236.17	45.23
236.388	-8.02
236.605	51.37
236.822	102.57
237.04	135.34
237.257	-30.55
237.475	-14.17
237.692	73.9
237.909	161.96
238.127	20.65
238.344	71.85
238.562	77.99
238.779	-40.79
238.996	-20.31
239.214	49.32
239.431	77.99
239.648	30.89
239.865	166.06
240.083	20.65
240.3	98.47
240.517	2.22
240.735	84.14
240.952	121
241.169	125.1
241.386	75.95
241.603	53.42
241.821	-5.97
242.038	141.48
242.255	143.53
242.472	-102.23
242.689	96.43
242.907	73.9
243.124	82.09
243.341	0.17
243.558	51.37
243.775	8.36
243.992	-12.12
244.209	-14.17
244.426	219.3
244.643	100.52
244.86	-61.27
245.078	159.91
245.295	55.47
245.512	2.22
245.729	-28.5
245.946	16.55
246.163	63.66
246.38	96.43
246.597	71.85
246.814	49.32
247.031	110.76
247.248	-38.74
247.464	98.47
247.681	69.8
247.898	82.09
248.115	102.57
248.332	22.7
248.549	188.58
248.766	168.1
248.983	147.62
249.2	82.09
249.417	57.51
249.633	-12.12
249.85	102.57
250.067	59.56
250.284	18.6
250.501	22.7
250.717	43.18
250.934	-53.08
251.151	-16.21
251.368	-3.93
251.585	114.86
251.801	26.79
252.018	18.6
252.235	131.24
252.451	-40.79
252.668	-18.26
252.885	180.39
253.102	90.28
253.318	127.14
253.535	-14.17
253.752	-24.4
253.968	-3.93
254.185	-51.03
254.401	45.23
254.618	86.19
254.835	45.23
255.051	102.57
255.268	94.38
255.484	34.99
255.701	-8.02
255.917	102.57
256.134	6.31
256.351	28.84
256.567	-46.93
256.784	-53.08
257	-91.99
257.217	59.56
257.433	131.24
257.65	71.85
257.866	139.43
258.082	-26.45
258.299	49.32
258.515	67.75
258.732	90.28
258.948	22.7
259.165	37.03
259.381	49.32
259.597	118.95
259.814	-18.26
260.03	32.94
260.246	100.52
260.463	102.57
260.679	166.06
260.895	80.04
261.112	106.67
261.328	-28.5
261.544	-3.93
261.761	129.19
261.977	-14.17
262.193	-20.31
262.409	147.62
262.626	6.31
262.842	45.23
263.058	-28.5
263.274	104.62
263.49	57.51
263.707	71.85
263.923	22.7
264.139	-59.22
264.355	61.61
264.571	149.67
264.787	170.15
265.004	121
265.22	22.7
265.436	45.23
265.652	30.89
265.868	135.34
266.084	-16.21
266.3	-38.74
266.516	69.8
266.732	45.23
266.948	59.56
267.164	-24.4
267.38	143.53
267.596	92.33
267.812	213.16
268.028	69.8
268.244	22.7
268.46	26.79
268.676	-5.97
268.892	84.14
269.108	37.03
269.324	-85.84
269.54	-73.56
269.756	69.8
269.972	-12.12
270.188	88.23
270.403	-14.17
270.619	92.33
270.835	55.47
271.051	-8.02
271.267	-55.12
271.483	-38.74
271.698	94.38
271.914	129.19
272.13	4.27
272.346	-36.69
272.562	77.99
272.777	80.04
272.993	-38.74
273.209	-79.7
273.425	34.99
273.64	-53.08
273.856	108.71
274.072	20.65
274.287	-36.69
274.503	116.9
274.719	108.71
274.934	-36.69
275.15	-71.51
275.366	84.14
275.581	-51.03
275.797	-1.88
276.012	143.53
276.228	10.41
276.444	30.89
276.659	168.1
276.875	32.94
277.09	28.84
277.306	71.85
277.521	94.38
277.737	65.71
277.952	98.47
278.168	59.56
278.383	106.67
278.599	118.95
278.814	104.62
279.03	8.36
279.245	170.15
279.461	92.33
279.676	92.33
279.892	-5.97
280.107	47.27
280.322	-30.55
280.538	96.43
280.753	26.79
280.969	121
281.184	71.85
281.399	121
281.615	37.03
281.83	94.38
282.045	-46.93
282.26	0.17
282.476	59.56
282.691	69.8
282.906	77.99
283.122	37.03
283.337	71.85
283.552	51.37
283.767	4.27
283.983	198.82
284.198	-1.88
284.413	77.99
284.628	4.27
284.843	61.61
285.058	88.23
285.274	-14.17
285.489	-14.17
285.704	69.8
285.919	-26.45
286.134	14.51
286.349	59.56
286.564	41.13
286.779	104.62
286.995	16.55
287.21	39.08
287.425	-16.21
287.64	24.75
287.855	127.14
288.07	-77.65
288.285	159.91
288.5	157.86
288.715	116.9
288.93	32.94
289.145	-59.22
289.36	45.23
289.575	8.36
289.79	106.67
290.004	2.22
290.219	196.78
290.434	45.23
290.649	53.42
290.864	-14.17
291.079	55.47
291.294	-53.08
291.509	108.71
291.724	45.23
291.938	-3.93
292.153	39.08
292.368	8.36
292.583	98.47
292.798	49.32
293.012	-1.88
293.227	-12.12
293.442	8.36
293.657	39.08
293.871	161.96
294.086	94.38
294.301	161.96
294.516	190.63
294.73	49.32
294.945	-28.5
295.16	45.23
295.374	121
295.589	24.75
295.804	88.23
296.018	22.7
296.233	94.38
296.447	77.99
296.662	-3.93
296.877	129.19
297.091	135.34
297.306	98.47
297.52	-16.21
297.735	14.51
297.949	86.19
298.164	104.62
298.378	65.71
298.593	-3.93
298.807	-32.6
299.022	67.75
299.236	139.43
299.451	106.67
299.665	51.37
299.88	102.57
300.094	10.41
300.309	-30.55
300.523	10.41
300.737	51.37
300.952	57.51
301.166	73.9
301.381	-16.21
301.595	-51.03
301.809	75.95
302.024	16.55
302.238	10.41
302.452	131.24
302.667	53.42
302.881	155.82
303.095	53.42
303.309	61.61
303.524	57.51
303.738	63.66
303.952	0.17
304.166	180.39
304.381	-106.32
304.595	147.62
304.809	-63.32
305.023	57.51
305.237	-1.88
305.452	-3.93
305.666	6.31
305.88	69.8
306.094	-3.93
306.308	30.89
306.522	37.03
306.736	53.42
306.95	82.09
307.164	0.17
307.379	49.32
307.593	116.9
307.807	69.8
308.021	114.86
308.235	53.42
308.449	-55.12
308.663	43.18
308.877	213.16
309.091	59.56
309.305	114.86
309.519	-44.88
309.733	110.76
309.947	51.37
310.161	82.09
310.374	4.27
310.588	90.28
310.802	2.22
311.016	129.19
311.23	67.75
311.444	43.18
311.658	84.14
311.872	135.34
312.085	104.62
312.299	131.24
312.513	202.92
312.727	94.38
312.941	-48.98
313.154	88.23
313.368	125.1
313.582	67.75
313.796	129.19
314.009	84.14
314.223	92.33
314.437	57.51
314.651	131.24
314.864	51.37
315.078	65.71
315.292	-110.42
315.505	6.31
315.719	94.38
315.933	39.08
316.146	-10.07
316.36	-126.8
316.573	168.1
316.787	90.28
317.001	53.42
317.214	30.89
317.428	59.56
317.641	-40.79
317.855	-1.88
318.068	90.28
318.282	8.36
318.495	135.34
318.709	71.85
318.922	43.18
319.136	108.71
319.349	92.33
319.563	37.03
319.776	90.28
319.99	-71.51
320.203	118.95
320.417	71.85
320.63	51.37
320.843	188.58
321.057	41.13
321.27	57.51
321.483	118.95
321.697	145.58
321.91	20.65
322.124	22.7
322.337	39.08
322.55	0.17
322.763	71.85
322.977	69.8
323.19	-3.93
323.403	-36.69
323.617	82.09
323.83	86.19
324.043	49.32
324.256	137.38
324.469	-57.17
324.683	139.43
324.896	24.75
325.109	61.61
325.322	-36.69
325.535	102.57
325.748	211.11
325.962	69.8
326.175	75.95
326.388	88.23
326.601	164.01
326.814	10.41
327.027	63.66
327.24	211.11
327.453	28.84
327.666	30.89
327.879	121
328.092	143.53
328.305	90.28
328.518	4.27
328.731	84.14
328.944	45.23
329.157	26.79
329.37	-22.36
329.583	254.12
329.796	139.43
330.009	24.75
330.222	94.38
330.435	147.62
330.648	90.28
330.861	4.27
331.073	118.95
331.286	71.85
331.499	53.42
331.712	-24.4
331.925	61.61
332.138	96.43
332.35	100.52
332.563	-24.4
332.776	98.47
332.989	-16.21
333.202	37.03
333.414	-34.64
333.627	26.79
333.84	41.13
334.053	104.62
334.265	-28.5
334.478	71.85
334.691	49.32
334.903	49.32
335.116	41.13
335.329	-28.5
335.541	77.99
335.754	164.01
335.966	75.95
336.179	73.9
336.392	102.57
336.604	125.1
336.817	114.86
337.029	108.71
337.242	67.75
337.454	82.09
337.667	65.71
337.88	98.47
338.092	94.38
338.305	88.23
338.517	57.51
338.729	106.67
338.942	77.99
339.154	-53.08
339.367	-69.46
339.579	102.57
339.792	-30.55
340.004	118.95
340.217	18.6
340.429	75.95
340.641	-30.55
340.854	14.51
341.066	94.38
341.278	202.92
341.491	190.63
341.703	37.03
341.915	18.6
342.128	71.85
342.34	86.19
342.552	12.46
342.764	55.47
342.977	14.51
343.189	100.52
343.401	59.56
343.613	-36.69
343.826	4.27
344.038	-65.36
344.25	67.75
344.462	-75.6
344.674	32.94
344.886	37.03
345.099	47.27
345.311	55.47
345.523	30.89
345.735	-53.08
345.947	47.27
346.159	86.19
346.371	16.55
346.583	32.94
346.795	243.88
347.007	69.8
347.219	86.19
347.431	8.36
347.643	159.91
347.855	12.46
348.067	127.14
348.279	-73.56
348.491	49.32
348.703	98.47
348.915	12.46
349.127	-51.03
349.339	34.99
349.551	34.99
349.763	118.95
349.975	34.99
350.187	82.09
350.399	104.62
350.61	53.42
350.822	20.65
351.034	86.19
351.246	114.86
351.458	59.56
351.669	155.82
351.881	30.89
352.093	102.57
352.305	135.34
352.517	22.7
352.728	102.57
352.94	57.51
353.152	88.23
353.363	-114.52
353.575	61.61
353.787	127.14
353.999	37.03
354.21	211.11
354.422	-22.36
354.633	-40.79
354.845	34.99
355.057	28.84
355.268	22.7
355.48	118.95
355.692	51.37
355.903	41.13
356.115	-34.64
356.326	-38.74
356.538	155.82
356.749	92.33
356.961	118.95
357.172	67.75
357.384	-69.46
357.595	180.39
357.807	-5.97
358.018	45.23
358.23	30.89
358.441	123.05
358.653	88.23
358.864	53.42
359.075	-8.02
359.287	51.37
359.498	123.05
359.709	121
359.921	125.1
360.132	131.24
360.344	32.94
360.555	4.27
360.766	80.04
360.977	4.27
361.189	88.23
361.4	-42.84
361.611	110.76
361.823	145.58
362.034	90.28
362.245	43.18
362.456	61.61
362.667	77.99
362.879	4.27
363.09	108.71
363.301	164.01
363.512	6.31
363.723	43.18
363.935	-18.26
364.146	108.71
364.357	8.36
364.568	67.75
364.779	-10.07
364.99	100.52
365.201	-10.07
365.412	65.71
365.623	-26.45
365.834	2.22
366.045	26.79
366.256	49.32
366.467	112.81
366.678	-30.55
366.889	53.42
367.1	12.46
367.311	164.01
367.522	-51.03
367.733	39.08
367.944	28.84
368.155	55.47
368.366	102.57
368.577	92.33
368.788	114.86
368.999	65.71
369.209	125.1
369.42	211.11
369.631	247.97
369.842	51.37
370.053	30.89
370.264	104.62
370.474	20.65
370.685	86.19
370.896	16.55
371.107	133.29
371.317	114.86
371.528	-10.07
371.739	59.56
371.95	110.76
372.16	18.6
372.371	-46.93
372.582	30.89
372.792	39.08
373.003	2.22
373.214	73.9
373.424	135.34
373.635	37.03
373.846	125.1
374.056	90.28
374.267	114.86
374.477	110.76
374.688	57.51
374.898	82.09
375.109	2.22
375.319	73.9
375.53	92.33
375.74	8.36
375.951	2.22
376.161	71.85
376.372	88.23
376.582	-3.93
376.793	92.33
377.003	4.27
377.214	45.23
377.424	67.75
377.635	77.99
377.845	-30.55
378.055	86.19
378.266	-8.02
378.476	8.36
378.686	131.24
378.897	104.62
379.107	73.9
379.317	82.09
379.528	10.41
379.738	121
379.948	-61.27
380.158	145.58
380.369	30.89
380.579	-12.12
380.789	28.84
380.999	129.19
381.21	108.71
381.42	192.68
381.63	24.75
381.84	123.05
382.05	71.85
382.261	178.34
382.471	32.94
382.681	-48.98
382.891	235.69
383.101	102.57
383.311	-22.36
383.521	16.55
383.731	32.94
383.941	131.24
384.151	43.18
384.361	51.37
384.571	96.43
384.781	-1.88
384.991	157.86
385.201	114.86
385.411	86.19
385.621	49.32
385.831	118.95
386.041	110.76
386.251	67.75
386.461	106.67
386.671	32.94
386.881	82.09
387.091	10.41
387.301	18.6
387.511	80.04
387.72	22.7
387.93	164.01
388.14	-12.12
388.35	49.32
388.56	108.71
388.769	92.33
388.979	57.51
389.189	37.03
389.399	-5.97
389.609	16.55
389.818	133.29
390.028	-42.84
390.238	108.71
390.447	59.56
390.657	41.13
390.867	47.27
391.076	-63.32
391.286	41.13
391.496	45.23
391.705	63.66
391.915	174.25
392.125	139.43
392.334	129.19
392.544	127.14
392.753	65.71
392.963	-3.93
393.172	18.6
393.382	-3.93
393.591	170.15
393.801	86.19
394.01	133.29
394.22	102.57
394.429	-10.07
394.639	-10.07
394.848	80.04
395.058	153.77
395.267	0.17
395.477	135.34
395.686	98.47
395.895	153.77
396.105	196.78
396.314	32.94
396.524	-22.36
396.733	41.13
396.942	98.47
397.152	24.75
397.361	145.58
397.57	98.47
397.78	59.56
397.989	18.6
398.198	194.73
398.407	49.32
398.617	43.18
398.826	98.47
399.035	43.18
399.244	112.81
399.453	112.81
399.663	59.56
399.872	86.19
400.081	-34.64
400.29	168.1
400.499	14.51
400.708	102.57
400.917	12.46
401.127	88.23
401.336	6.31
401.545	235.69
401.754	106.67
401.963	65.71
402.172	28.84
402.381	0.17
402.59	61.61
402.799	37.03
403.008	147.62
403.217	114.86
403.426	24.75
403.635	26.79
403.844	98.47
404.053	20.65
404.262	88.23
404.471	161.96
404.68	67.75
404.888	63.66
405.097	22.7
405.306	77.99
405.515	145.58
405.724	47.27
405.933	84.14
406.142	82.09
406.35	49.32
406.559	51.37
406.768	80.04
406.977	237.74
407.185	57.51
407.394	110.76
407.603	-18.26
407.812	77.99
408.02	153.77
408.229	59.56
408.438	47.27
408.646	-34.64
408.855	39.08
409.064	77.99
409.272	73.9
409.481	135.34
409.69	-32.6
409.898	20.65
410.107	75.95
410.315	123.05
410.524	51.37
410.733	75.95
410.941	123.05
411.15	98.47
411.358	32.94
411.567	204.97
411.775	77.99
411.984	4.27
412.192	65.71
412.401	-18.26
412.609	211.11
412.818	149.67
413.026	166.06
413.234	8.36
413.443	12.46
413.651	-28.5
413.86	108.71
414.068	223.4
414.276	223.4
414.485	-12.12
414.693	75.95
414.901	164.01
415.11	57.51
415.318	59.56
415.526	75.95
415.734	98.47
415.943	94.38
416.151	198.82
416.359	143.53
416.567	37.03
416.776	166.06
416.984	161.96
417.192	170.15
417.4	59.56
417.608	77.99
417.817	-44.88
418.025	125.1
418.233	143.53
418.441	32.94
418.649	75.95
418.857	166.06
419.065	98.47
419.273	86.19
419.481	55.47
419.689	63.66
419.897	24.75
420.105	-20.31
420.313	196.78
420.521	73.9
420.729	141.48
420.937	-67.41
421.145	-16.21
421.353	204.97
421.561	159.91
421.769	32.94
421.977	-3.93
422.185	139.43
422.393	43.18
422.601	147.62
422.809	67.75
423.017	0.17
423.224	86.19
423.432	159.91
423.64	-40.79
423.848	198.82
424.056	16.55
424.263	133.29
424.471	127.14
424.679	159.91
424.887	-40.79
425.094	243.88
425.302	86.19
425.51	82.09
425.718	110.76
425.925	106.67
426.133	49.32
426.341	198.82
426.548	84.14
426.756	49.32
426.964	129.19
427.171	-87.89
427.379	137.38
427.586	49.32
427.794	135.34
428.001	157.86
428.209	129.19
428.417	178.34
428.624	168.1
428.832	129.19
429.039	45.23
429.247	116.9
429.454	145.58
429.662	209.06
429.869	108.71
430.076	180.39
430.284	159.91
430.491	188.58
430.699	155.82
430.906	258.21
431.114	96.43
431.321	127.14
431.528	104.62
431.736	233.64
431.943	112.81
432.15	102.57
432.358	176.3
432.565	290.98
432.772	32.94
432.979	282.79
433.187	149.67
433.394	202.92
433.601	172.2
433.808	239.78
434.016	227.5
434.223	217.26
434.43	151.72
434.637	303.27
434.844	336.04
435.052	213.16
435.259	356.52
435.466	307.37
435.673	270.5
435.88	389.28
436.087	338.09
436.294	395.43
436.501	290.98
436.708	247.97
436.915	303.27
437.122	391.33
437.329	237.74
437.537	358.57
437.743	288.93
437.95	477.35
438.157	319.65
438.364	350.37
438.571	372.9
438.778	360.61
438.985	446.63
439.192	546.98
439.399	389.28
439.606	487.59
439.813	573.6
440.02	676
440.227	731.3
440.433	649.38
440.64	489.64
440.847	446.63
441.054	569.51
441.261	796.83
441.467	684.19
441.674	616.61
441.881	704.67
442.088	673.95
442.294	772.25
442.501	823.45
442.708	823.45
442.914	872.61
443.121	809.12
443.328	915.61
443.534	893.09
443.741	938.14
443.948	872.61
444.154	884.89
444.361	1167.51
444.568	1028.25
444.774	1106.07
444.981	999.58
445.187	1151.13
445.394	1173.66
445.6	1171.61
445.807	1276.06
446.013	1376.41
446.22	1343.64
446.426	1429.65
446.633	1507.48
446.839	1687.7
447.046	1437.84
447.252	1661.07
447.459	1663.12
447.665	1634.45
447.871	1970.32
448.078	2058.38
448.284	1882.25
448.491	2107.53
448.697	2203.79
448.903	2271.37
449.11	2236.55
449.316	2232.46
449.522	2515.08
449.728	2467.97
449.935	2564.23
450.141	2640
450.347	2791.55
450.553	2758.78
450.76	2936.96
450.966	2922.62
451.172	3094.65
451.378	3176.57
451.584	3180.67
451.791	3512.44
451.997	3623.03
452.203	3668.08
452.409	3866.74
452.615	4112.49
452.821	3876.98
453.027	3950.7
453.233	4462.69
453.44	4393.06
453.646	4642.92
453.852	4616.29
454.058	4810.85
454.264	5064.8
454.47	5505.11
454.676	5290.07
454.882	5845.07
455.088	5752.91
455.294	5963.86
455.5	6150.22
455.705	6781
455.911	6508.62
456.117	6803.52
456.323	7108.67
456.529	6981.7
456.735	7714.87
456.941	7872.56
457.147	8355.88
457.352	8476.71
457.558	8575.02
457.764	9332.76
457.97	9685.01
458.176	9820.18
458.381	10317.84
458.587	10618.89
458.793	11100.16
458.999	11134.98
459.204	12531.69
459.41	12826.6
459.616	12423.15
459.821	13350.88
460.027	14149.59
460.233	14569.42
460.438	14782.41
460.644	15525.82
460.85	15599.55
461.055	16123.83
461.261	16940.97
461.466	16709.55
461.672	17131.43
461.878	18972.55
462.083	18837.39
462.289	19265.41
462.494	19781.5
462.7	20189.05
462.905	20567.92
463.111	22468.44
463.316	23052.11
463.522	23476.04
463.727	24289.08
463.932	24962.86
464.138	26208.03
464.343	27219.72
464.549	27025.17
464.754	29148.91
464.959	29761.25
465.165	30455.51
465.37	29980.39
465.575	30379.74
465.781	32091.84
465.986	33081.01
466.191	32874.17
466.397	33109.68
466.602	32241.34
466.807	33871.53
467.012	34758.3
467.218	35118.74
467.423	35425.93
467.628	36462.21
467.833	38172.26
468.038	37078.64
468.244	37000.82
468.449	38635.1
468.654	37609.07
468.859	38112.87
469.064	37799.53
469.269	37131.89
469.474	37078.64
469.679	38323.81
469.885	37287.54
470.09	37674.6
470.295	38086.25
470.5	36734.59
470.705	37555.82
470.91	36249.22
471.115	35827.34
471.32	36441.73
471.525	35937.93
471.73	35253.9
471.935	34973.33
472.139	33588.91
472.344	33926.82
472.549	33564.33
472.754	33210.03
472.959	32485.05
473.164	31211.21
473.369	30742.23
473.574	31682.25
473.778	30598.87
473.983	30344.92
474.188	29943.52
474.393	28292.86
474.598	28673.78
474.802	27494.15
475.007	27639.56
475.212	26930.96
475.417	26304.28
475.621	25739.04
475.826	25501.48
476.031	24661.81
476.235	24358.71
476.44	24485.69
476.645	23586.63
476.849	23379.78
477.054	23320.39
477.259	22644.56
477.463	22769.49
477.668	21874.52
477.872	21837.66
478.077	21450.6
478.282	20911.98
478.486	20563.82
478.691	20111.22
478.895	20318.07
479.1	20127.61
479.304	19900.28
479.509	19244.93
479.713	19484.55
479.918	19169.16
480.122	18849.68
480.326	19064.71
480.531	18913.16
480.735	18706.32
480.94	18204.56
481.144	18782.09
481.348	17723.29
481.553	17909.66
481.757	17276.84
481.961	17819.55
482.166	17897.37
482.37	17754.01
482.574	17180.58
482.778	17233.83
482.983	17356.71
483.187	16957.35
483.391	17098.66
483.595	16766.89
483.8	16449.46
484.004	16521.13
484.208	16302
484.412	16000.95
484.616	15949.75
484.821	15869.88
485.025	15376.32
485.229	15357.89
485.433	15114.18
485.637	15224.77
485.841	14575.56
486.045	14778.31
486.249	14723.02
486.453	14331.86
486.657	14272.46
486.861	13901.78
487.065	13473.76
487.269	13348.83
487.473	13078.5
487.677	13197.28
487.881	12974.05
488.085	12597.23
488.289	12486.64
488.493	12204.02
488.697	12455.92
488.901	12101.62
489.105	11757.56
489.309	11638.78
489.512	11304.96
489.716	11008
489.92	10768.39
490.124	10881.03
490.328	10842.12
490.531	10401.8
490.735	10317.84
490.939	10110.99
491.143	9918.48
491.346	9811.99
491.55	9852.95
491.754	9478.17
491.958	9459.74
492.161	9183.26
492.365	9000.99
492.569	8880.16
492.772	8679.46
492.976	8839.2
493.18	8669.22
493.383	8466.47
493.587	8470.57
493.79	8419.37
493.994	7974.96
494.197	8257.58
494.401	8196.14
494.605	7960.63
494.808	7993.39
495.012	7987.25
495.215	8069.17
495.419	7661.62
495.622	7723.06
495.825	7524.41
496.029	7800.88
496.232	7759.92
496.436	7544.89
496.639	7911.47
496.843	7508.02
497.046	7688.25
497.249	7827.51
497.453	7698.49
497.656	7602.23
497.859	7704.63
498.063	7737.4
498.266	7893.04
498.469	7745.59
498.673	7837.75
498.876	7741.49
499.079	7815.22
499.282	7872.56
499.485	8255.53
499.689	8226.86
499.892	7835.7
500.095	8103.98
500.298	8341.55
500.501	8149.04
500.705	8192.05
500.908	8482.86
501.111	8601.64
501.314	8620.07
501.517	8658.98
501.72	8716.33
501.923	8812.58
502.126	8851.49
502.329	9162.78
502.532	9230.37
502.735	9234.46
502.938	9429.02
503.141	9306.14
503.344	9613.34
503.547	9809.94
503.75	9799.7
503.953	9914.39
504.156	10131.47
504.359	10190.86
504.562	10379.28
504.765	10563.59
504.968	10819.59
505.17	10987.52
505.373	11022.34
505.576	11251.71
505.779	11612.15
505.982	11528.19
506.185	11755.51
506.387	12113.91
506.59	12290.03
506.793	12552.17
506.996	12658.67
507.198	12976.1
507.401	13105.12
507.604	13289.44
507.807	13621.21
508.009	13875.16
508.212	14225.36
508.415	14082
508.617	15077.32
508.82	15034.31
509.022	14888.9
509.225	15699.9
509.428	15984.57
509.63	16183.22
509.833	16457.65
510.035	17194.92
510.238	17244.07
510.44	17645.47
510.643	18139.03
510.845	18569.1
511.048	18732.94
511.25	19308.42
511.453	19482.5
511.655	20459.38
511.858	20297.59
512.06	20948.84
512.262	21340.01
512.465	21454.69
512.667	22212.44
512.87	23015.24
513.072	23308.1
513.274	24119.1
513.477	24182.59
513.679	24680.24
513.881	25511.72
514.084	25995.04
514.286	26242.84
514.488	27025.17
514.69	28051.2
514.893	28165.88
515.095	28669.69
515.297	29347.56
515.499	29896.42
515.701	30299.87
515.904	30942.93
516.106	31798.98
516.308	32272.06
516.51	33363.63
516.712	33490.6
516.914	34379.42
517.116	35153.55
517.318	35233.43
517.52	35899.01
517.722	36712.06
517.925	37146.23
518.127	37877.35
518.329	38725.21
518.531	38645.34
518.733	39937.61
518.935	40478.27
519.136	40832.57
519.338	41498.16
519.54	41819.69
519.742	42718.75
519.944	43275.8
520.146	44279.3
520.348	44058.12
520.55	44676.61
520.752	45061.63
520.954	46050.8
521.155	45852.14
521.357	46986.72
521.559	47261.15
521.761	48346.57
521.963	47873.49
522.164	48666.05
522.366	48616.9
522.568	49831.35
522.77	49769.91
522.971	50607.53
523.173	50003.38
523.375	50734.5
523.576	50466.22
523.778	50863.52
523.98	51295.64
524.181	51144.09
524.383	51864.98
524.584	52256.14
524.786	52166.03
524.988	51623.32
525.189	51920.27
525.391	52102.54
525.592	52053.39
525.794	52159.89
525.995	51709.33
526.197	51826.07
526.398	51821.97
526.6	51551.64
526.801	51690.9
527.003	51189.15
527.204	51488.15
527.406	51371.42
527.607	50615.72
527.808	51027.36
528.01	49941.94
528.211	50030
528.412	50302.38
528.614	49436.09
528.815	49522.1
529.016	49323.45
529.218	48494.02
529.419	48102.86
529.62	47353.3
529.822	47144.41
530.023	46726.63
530.224	46329.32
530.425	45782.51
530.626	45237.75
530.828	44398.09
531.029	44883.45
531.23	44025.35
531.431	43585.04
531.632	43486.74
531.833	42505.76
532.035	42489.38
532.236	41903.66
532.437	41211.45
532.638	40408.64
532.839	40109.64
533.04	39706.19
533.241	39026.26
533.442	39196.24
533.643	38405.73
533.844	37135.99
534.045	37310.07
534.246	36449.92
534.447	36310.66
534.648	35370.64
534.849	35192.47
535.05	34522.78
535.251	34064.03
535.451	33971.88
535.652	33345.2
535.853	32521.91
536.054	32685.75
536.255	32036.55
536.456	31631.05
536.657	31598.28
536.857	30691.03
537.058	29918.95
537.259	30013.15
537.46	29363.95
537.66	29243.12
537.861	28815.09
538.062	28364.54
538.263	27844.35
538.463	27598.6
538.664	27143.95
538.865	27158.28
539.065	26875.66
539.266	26128.16
539.466	26212.12
539.667	25401.13
539.868	25505.57
540.068	25077.55
540.269	24807.22
540.469	24801.07
540.67	23920.45
540.87	23912.25
541.071	23646.02
541.271	23373.64
541.472	22880.08
541.672	22918.99
541.873	22521.68
542.073	21958.49
542.274	22118.23
542.474	22021.98
542.675	21620.58
542.875	21485.41
543.075	21014.38
543.276	20524.91
543.476	20850.54
543.676	20481.91
543.877	20227.96
544.077	19920.76
544.277	19750.78
544.478	19500.93
544.678	19367.81
544.878	18921.35
545.078	18927.5
545.279	18370.45
545.479	17950.62
545.679	18284.44
545.879	18141.08
546.079	17739.68
546.28	17438.62
546.48	17387.43
546.68	17567.65
546.88	17287.07
547.08	16578.48
547.28	16623.53
547.48	16283.57
547.68	16224.18
547.88	15808.44
548.081	15847.35
548.281	15566.78
548.481	15212.48
548.681	15325.12
548.881	14970.82
549.081	14776.27
549.28	14587.85
549.48	14594
549.68	14401.49
549.88	14137.3
550.08	13801.43
550.28	13727.71
550.48	13447.13
550.68	13498.33
550.88	12935.14
551.08	12754.92
551.279	12718.06
551.479	12199.92
551.679	12462.06
551.879	12050.42
552.079	11978.74
552.278	11849.72
552.478	11845.62
552.678	11614.2
552.878	11591.67
553.077	11100.16
553.277	10727.43
553.477	10799.11
553.676	10821.64
553.876	10629.13
554.076	10311.69
554.275	10180.62
554.475	9943.06
554.674	9850.9
554.874	9773.08
555.074	9500.7
555.273	9291.8
555.473	9324.57
555.672	8931.36
555.872	9091.1
556.071	8968.23
556.271	8785.96
556.47	8474.67
556.67	8237.1
556.869	8314.92
557.068	8237.1
557.268	8007.73
557.467	7977.01
557.667	7936.05
557.866	7567.42
558.065	7284.8
558.265	7335.99
558.464	7200.83
558.663	7217.21
558.863	6973.5
559.062	7069.76
559.261	6877.25
559.461	6774.85
559.66	6543.43
559.859	6418.5
560.058	6391.88
560.258	6211.66
560.457	6203.47
560.656	6234.19
560.855	5894.22
561.054	5945.42
561.253	5814.35
561.453	5771.35
561.652	5781.59
561.851	5650.52
562.05	5521.49
562.249	5175.39
562.448	5394.52
562.647	5050.46
562.846	5070.94
563.045	5130.33
563.244	4993.12
563.443	5113.95
563.642	4788.32
563.841	4919.39
564.04	4753.51
564.239	4730.98
564.438	4620.39
564.637	4460.65
564.836	4446.31
565.035	4329.58
565.234	4411.5
565.432	4317.29
565.631	4259.95
565.83	4354.15
566.029	4073.58
566.228	3952.75
566.427	4120.68
566.625	3770.48
566.824	3958.89
567.023	3940.46
567.222	3815.54
567.42	3797.1
567.619	3657.84
567.818	3643.51
568.016	3661.94
568.215	3594.36
568.414	3537.01
568.612	3555.44
568.811	3432.57
569.01	3309.69
569.208	3281.02
569.407	3256.44
569.605	3092.6
569.804	3199.1
570.002	3154.04
570.201	2941.05
570.4	3070.08
570.598	2934.91
570.797	2893.95
570.995	2830.46
571.193	2803.84
571.392	2787.46
571.59	2683.01
571.789	2734.21
571.987	2824.32
572.186	2756.74
572.384	2613.38
572.582	2498.69
572.781	2676.87
572.979	2480.26
573.177	2463.88
573.376	2390.15
573.574	2472.07
573.772	2308.23
573.971	2277.51
574.169	2121.87
574.367	2187.4
574.565	2224.26
574.763	2054.28
574.962	2123.91
575.16	2154.63
575.358	2082.95
575.556	2003.08
575.754	2068.62
575.952	2013.32
576.151	2029.71
576.349	2027.66
576.547	1808.53
576.745	1851.53
576.943	1863.82
577.141	1929.36
577.339	1802.38
577.537	1824.91
577.735	1757.33
577.933	1767.57
578.131	1642.64
578.329	1792.14
578.527	1693.84
578.725	1753.23
578.923	1450.13
579.121	1661.07
579.319	1507.48
579.516	1349.78
579.714	1591.44
579.912	1532.05
580.11	1327.25
580.308	1413.27
580.506	1376.41
580.704	1411.22
580.901	1376.41
581.099	1433.75
581.297	1405.08
581.495	1380.5
581.692	1298.58
581.89	1274.01
582.088	1337.49
582.285	1280.15
582.483	1212.57
582.681	1198.23
582.878	1073.31
583.076	1249.43
583.274	1165.46
583.471	1249.43
583.669	1132.7
583.866	1046.68
584.064	1044.63
584.262	993.44
584.459	1069.21
584.657	1075.35
584.854	1040.54
585.052	1036.44
585.249	1032.35
585.447	1026.2
585.644	864.41
585.841	1013.92
586.039	995.48
586.236	1050.78
586.434	899.23
586.631	872.61
586.828	882.85
587.026	911.52
587.223	784.54
587.42	747.68
587.618	901.28
587.815	864.41
588.012	757.92
588.21	694.43
588.407	888.99
588.604	860.32
588.801	800.93
588.999	811.17
589.196	782.49
589.393	788.64
589.59	805.02
589.787	823.45
589.984	811.17
590.182	749.73
590.379	649.38
590.576	766.11
590.773	676
590.97	776.35
591.167	778.4
591.364	735.39
591.561	622.75
591.758	749.73
591.955	794.78
592.152	749.73
592.349	639.14
592.546	749.73
592.743	647.33
592.94	706.72
593.137	782.49
593.334	764.06
593.531	669.86
593.727	768.16
593.924	731.3
594.121	647.33
594.318	766.11
594.515	784.54
594.712	929.95
594.908	809.12
595.105	626.85
595.302	776.35
595.499	737.44
595.696	819.36
595.892	772.25
596.089	850.08
596.286	645.28
596.482	938.14
596.679	897.18
596.876	766.11
597.072	880.8
597.269	843.93
597.466	946.33
597.662	845.98
597.859	936.09
598.055	968.86
598.252	1056.92
598.448	1061.02
598.645	1069.21
598.841	1169.56
599.038	1327.25
599.234	1267.86
599.431	1216.66
599.627	1251.48
599.824	1370.26
600.02	1398.93
600.217	1357.97
600.413	1556.63
600.609	1544.34
600.806	1724.56
601.002	1630.35
601.198	1677.46
601.395	1843.34
601.591	1745.04
601.787	1990.8
601.984	1970.32
602.18	2013.32
602.376	2138.25
602.572	2121.87
602.769	2326.66
602.965	2412.68
603.161	2539.65
603.357	2492.55
603.553	2519.17
603.75	2674.82
603.946	2824.32
604.142	2961.53
604.338	3121.28
604.534	2990.21
604.73	3096.7
604.926	3158.14
605.122	3385.46
605.318	3391.61
605.514	3569.78
605.71	3596.4
605.906	3874.93
606.102	3858.54
606.298	4073.58
606.494	4182.12
606.69	4358.25
606.886	4339.82
607.082	4571.24
607.278	4499.56
607.474	4884.58
607.67	4923.49
607.866	4958.3
608.062	5257.31
608.257	5378.14
608.453	5220.44
608.649	5607.51
608.845	5605.46
609.041	5873.75
609.236	6094.93
609.432	6344.78
609.628	6309.96
609.824	6715.46
610.019	6635.59
610.215	7004.22
610.411	7116.86
610.606	7327.8
610.802	7534.65
610.998	7749.68
611.193	7774.26
611.389	7813.17
611.584	8286.25
611.78	8288.3
611.976	8712.23
612.171	9076.77
612.367	9095.2
612.562	9373.72
612.758	9441.31
612.953	9715.73
613.149	10033.17
613.344	10258.45
613.539	10756.1
613.735	10799.11
613.93	11257.85
614.126	11374.59
614.321	11878.39
614.517	12044.27
614.712	12500.97
614.907	12763.11
615.103	13148.13
615.298	13316.06
615.493	13776.86
615.688	14122.96
615.884	14583.76
616.079	14729.16
616.274	15151.04
616.47	15622.08
616.665	15974.33
616.86	16199.6
617.055	16566.19
617.25	17158.05
617.445	17803.16
617.641	17840.03
617.836	18302.87
618.031	18558.86
618.226	19550.08
618.421	19720.06
618.616	20414.32
618.811	20565.87
619.006	21303.14
619.201	21403.49
619.396	22306.65
619.591	22052.7
619.786	23103.31
619.981	23197.51
620.176	24229.69
620.371	24110.91
620.566	25007.92
620.761	25630.5
620.956	26050.33
621.151	26697.49
621.346	27113.23
621.541	27320.07
621.735	28649.21
621.93	28264.19
622.125	29245.16
622.32	29406.95
622.515	30158.56
622.709	30738.13
622.904	31172.3
623.099	31942.34
623.294	32550.59
623.488	33044.15
623.683	33300.14
623.878	33492.65
624.072	34393.76
624.267	34786.97
624.462	35237.52
624.656	35716.75
624.851	36218.5
625.046	36841.08
625.24	37576.3
625.435	37774.95
625.629	38610.53
625.824	38786.65
626.018	39974.47
626.213	39409.23
626.407	40193.61
626.602	40498.75
626.796	41578.03
626.991	41844.27
627.185	41674.29
627.38	42214.95
627.574	42350.12
627.768	42257.96
627.963	42665.5
628.157	42858.01
628.352	43449.88
628.546	42993.18
628.74	43890.19
628.935	43077.15
629.129	43640.34
629.323	42722.85
629.517	43064.86
629.712	42614.3
629.906	42327.59
630.1	41377.33
630.294	41979.43
630.489	40984.12
630.683	41049.66
630.877	39960.14
631.071	39007.83
631.265	38864.47
631.459	38553.18
631.653	37254.77
631.848	37025.4
632.042	35751.56
632.236	35157.65
632.43	33937.06
632.624	33281.71
632.818	32040.64
633.012	31119.06
633.206	30113.5
633.4	29523.69
633.594	28387.07
633.788	27768.58
633.982	26627.86
634.176	25796.39
634.369	24569.65
634.563	23574.34
634.757	22542.16
634.951	22304.6
635.145	21178.22
635.339	20647.79
635.533	19523.46
635.726	18831.24
635.92	18085.78
636.114	17338.27
636.308	16725.93
636.501	15943.61
636.695	15282.11
636.889	14505.93
637.083	14131.16
637.276	13545.44
637.47	12728.3
637.664	12443.63
637.857	12091.38
638.051	11517.95
638.244	11085.83
638.438	10786.82
638.632	10358.8
638.825	9578.52
639.019	9596.95
639.212	8833.06
639.406	8493.1
639.599	8253.48
639.793	8151.09
639.986	7739.44
640.18	7532.6
640.373	7180.35
640.567	7006.27
640.76	6664.26
640.954	6481.99
641.147	6084.69
641.34	5869.65
641.534	5847.12
641.727	5662.8
641.92	5351.51
642.114	5126.24
642.307	4804.71
642.5	4769.89
642.694	4491.37
642.887	4366.44
643.08	4380.78
643.273	4180.07
643.467	3907.7
643.66	3776.63
643.853	3577.97
644.046	3444.85
644.239	3350.65
644.432	3172.47
644.626	3131.51
644.819	2840.7
645.012	2932.86
645.205	2779.26
645.398	2789.5
645.591	2476.16
645.784	2470.02
645.977	2293.9
646.17	2336.9
646.363	2097.29
646.556	1945.74
646.749	1964.17
646.942	1964.17
647.135	2121.87
647.328	1894.54
647.521	1767.57
647.714	1738.9
647.907	1742.99
648.099	1532.05
648.292	1503.38
648.485	1431.7
648.678	1384.6
648.871	1228.95
649.064	1353.88
649.256	1167.51
649.449	1202.33
649.642	1153.18
649.835	1153.18
650.027	1101.98
650.22	1157.27
650.413	1065.11
650.605	1022.11
650.798	968.86
650.991	895.13
651.183	913.56
651.376	852.13
651.568	880.8
651.761	809.12
651.954	825.5
652.146	733.34
652.339	827.55
652.531	721.06
652.724	690.34
652.916	626.85
653.109	565.41
653.301	698.53
653.494	598.18
653.686	669.86
653.879	706.72
654.071	624.8
654.263	538.79
654.456	528.55
654.648	526.5
654.84	551.07
655.033	438.44
655.225	528.55
655.417	323.75
655.61	526.5
655.802	503.97
655.994	557.22
656.186	346.28
656.379	428.2
656.571	385.19
656.763	370.85
656.955	456.87
657.148	434.34
657.34	508.07
657.532	420
657.724	297.13
657.916	377
658.108	456.87
658.3	405.67
658.492	411.81
658.684	231.59
658.876	401.57
659.068	293.03
659.26	229.54
659.452	303.27
659.644	268.45
659.836	436.39
660.028	323.75
660.22	297.13
660.412	313.51
660.604	247.97
660.796	237.74
660.988	487.59
661.18	233.64
661.372	252.07
661.563	209.06
661.755	180.39
661.947	149.67
662.139	182.44
662.331	229.54
662.522	204.97
662.714	186.54
662.906	217.26
663.097	196.78
663.289	225.45
663.481	100.52
663.673	241.83
663.864	168.1
664.056	284.84
664.247	184.49
664.439	274.6
664.631	280.74
664.822	217.26
665.014	219.3
665.205	141.48
665.397	129.19
665.588	209.06
665.78	204.97
665.971	178.34
666.163	192.68
666.354	207.02
666.546	114.86
666.737	217.26
666.929	137.38
667.12	145.58
667.311	180.39
667.503	147.62
667.694	217.26
667.885	180.39
668.077	262.31
668.268	71.85
668.459	131.24
668.651	290.98
668.842	247.97
669.033	147.62
669.224	26.79
669.416	295.08
669.607	164.01
669.798	118.95
669.989	280.74
670.18	106.67
670.371	188.58
670.563	32.94
670.754	207.02
670.945	194.73
671.136	229.54
671.327	121
671.518	229.54
671.709	333.99
671.9	211.11
672.091	266.41
672.282	147.62
672.473	157.86
672.664	151.72
672.855	159.91
673.046	268.45
673.237	159.91
673.428	155.82
673.619	202.92
673.809	176.3
674	229.54
674.191	131.24
674.382	170.15
674.573	133.29
674.764	157.86
674.954	215.21
675.145	112.81
675.336	170.15
675.527	164.01
675.717	151.72
675.908	211.11
676.099	127.14
676.289	237.74
676.48	127.14
676.671	200.87
676.861	114.86
677.052	213.16
677.243	243.88
677.433	188.58
677.624	196.78
677.814	272.55
678.005	135.34
678.195	272.55
678.386	186.54
678.576	243.88
678.767	153.77
678.957	170.15
679.148	223.4
679.338	245.93
679.529	284.84
679.719	219.3
679.909	336.04
680.1	184.49
680.29	256.17
680.481	153.77
680.671	260.26
680.861	311.46
681.052	200.87
681.242	237.74
681.432	311.46
681.622	297.13
681.813	139.43
682.003	221.35
682.193	260.26
682.383	235.69
682.573	223.4
682.764	219.3
682.954	252.07
683.144	350.37
683.334	280.74
683.524	176.3
683.714	241.83
683.904	303.27
684.094	211.11
684.284	266.41
684.474	323.75
684.664	350.37
684.854	315.56
685.044	227.5
685.234	311.46
685.424	262.31
685.614	204.97
685.804	426.15
685.994	319.65
686.184	264.36
686.374	333.99
686.564	379.04
686.753	274.6
686.943	217.26
687.133	225.45
687.323	157.86
687.513	266.41
687.702	258.21
687.892	202.92
688.082	321.7
688.272	348.33
688.461	278.69
688.651	374.95
688.841	307.37
689.03	127.14
689.22	282.79
689.41	319.65
689.599	278.69
689.789	178.34
689.979	379.04
690.168	198.82
690.358	290.98
690.547	258.21
690.737	221.35
690.926	223.4
691.116	243.88
691.305	364.71
691.495	299.17
691.684	159.91
691.874	166.06
692.063	243.88
692.252	336.04
692.442	340.13
692.631	178.34
692.82	301.22
693.01	223.4
693.199	260.26
693.388	233.64
693.578	282.79
693.767	313.51
693.956	327.85
694.146	172.2
694.335	245.93
694.524	188.58
694.713	340.13
694.902	256.17
695.092	223.4
695.281	252.07
695.47	254.12
695.659	209.06
695.848	282.79
696.037	182.44
696.226	346.28
696.415	245.93
696.604	393.38
696.793	327.85
696.982	215.21
697.171	288.93
697.36	202.92
697.549	170.15
697.738	39.08
697.927	192.68
698.116	155.82
698.305	260.26
698.494	227.5
698.683	127.14
698.872	344.23
699.061	194.73
699.25	213.16
699.438	184.49
699.627	172.2
699.816	321.7
700.005	65.71
700.193	149.67
700.382	217.26
700.571	207.02
700.76	170.15
700.948	250.02
701.137	245.93
701.326	209.06
701.514	73.9
701.703	260.26
701.892	209.06
702.08	319.65
702.269	250.02
702.457	192.68
702.646	194.73
702.834	178.34
703.023	233.64
703.212	286.89
703.4	221.35
703.589	155.82
703.777	209.06
703.965	239.78
704.154	157.86
704.342	61.61
704.531	168.1
704.719	243.88
704.907	282.79
705.096	116.9
705.284	149.67
705.472	149.67
705.661	200.87
705.849	202.92
706.037	215.21
706.226	172.2
706.414	182.44
706.602	211.11
706.79	233.64
706.979	106.67
707.167	215.21
707.355	118.95
707.543	207.02
707.731	207.02
707.919	239.78
708.107	211.11
708.296	141.48
708.484	73.9
708.672	174.25
708.86	227.5
709.048	233.64
709.236	145.58
709.424	252.07
709.612	178.34
709.8	104.62
709.988	215.21
710.176	241.83
710.364	252.07
710.551	204.97
710.739	153.77
710.927	192.68
711.115	209.06
711.303	282.79
711.491	329.89
711.679	147.62
711.866	209.06
712.054	178.34
712.242	217.26
712.43	315.56
712.617	215.21
712.805	278.69
712.993	278.69
713.181	168.1
713.368	176.3
713.556	172.2
713.744	184.49
713.931	364.71
714.119	276.65
714.306	247.97
714.494	211.11
714.682	180.39
714.869	174.25
715.057	204.97
715.244	110.76
715.432	229.54
715.619	219.3
715.807	157.86
715.994	182.44
716.182	276.65
716.369	338.09
716.556	276.65
716.744	112.81
716.931	51.37
717.119	231.59
717.306	270.5
717.493	198.82
717.681	151.72
717.868	252.07
718.055	239.78
718.242	211.11
718.43	290.98
718.617	295.08
718.804	204.97
718.991	336.04
719.179	274.6
719.366	288.93
719.553	192.68
719.74	172.2
719.927	192.68
720.114	241.83
720.301	174.25
720.488	217.26
720.676	190.63
720.863	315.56
721.05	329.89
721.237	274.6
721.424	288.93
721.611	241.83
721.798	245.93
721.985	166.06
722.172	221.35
722.358	305.32
722.545	319.65
722.732	235.69
722.919	325.8
723.106	301.22
723.293	245.93
723.48	280.74
723.667	268.45
723.853	342.18
724.04	270.5
724.227	313.51
724.414	266.41
724.6	323.75
724.787	442.53
724.974	422.05
725.161	309.41
725.347	194.73
725.534	282.79
725.72	333.99
725.907	356.52
726.094	309.41
726.28	284.84
726.467	217.26
726.653	168.1
726.84	333.99
727.027	333.99
727.213	317.61
727.4	272.55
727.586	319.65
727.773	333.99
727.959	260.26
728.145	278.69
728.332	321.7
728.518	215.21
728.705	340.13
728.891	401.57
729.077	280.74
729.264	270.5
729.45	387.24
729.636	379.04
729.823	250.02
730.009	409.76
730.195	338.09
730.382	299.17
730.568	190.63
730.754	256.17
730.94	309.41
731.126	268.45
731.313	297.13
731.499	311.46
731.685	377
731.871	374.95
732.057	385.19
732.243	389.28
732.429	307.37
732.615	438.44
732.801	391.33
732.987	268.45
733.173	393.38
733.359	213.16
733.545	377
733.731	344.23
733.917	454.82
734.103	387.24
734.289	325.8
734.475	241.83
734.661	473.25
734.847	397.48
735.033	340.13
735.219	377
735.404	403.62
735.59	295.08
735.776	264.36
735.962	403.62
736.148	467.11
736.333	403.62
736.519	333.99
736.705	368.81
736.89	356.52
737.076	301.22
737.262	319.65
737.447	395.43
737.633	297.13
737.819	413.86
738.004	395.43
738.19	430.24
738.375	407.72
738.561	411.81
738.747	477.35
738.932	327.85
739.118	522.4
739.303	409.76
739.489	456.87
739.674	374.95
739.859	280.74
740.045	458.92
740.23	377
740.416	250.02
740.601	278.69
740.786	391.33
740.972	336.04
741.157	434.34
741.342	299.17
741.528	280.74
741.713	422.05
741.898	338.09
742.084	346.28
742.269	405.67
742.454	362.66
742.639	448.68
742.824	313.51
743.01	514.21
743.195	456.87
743.38	399.52
743.565	377
743.75	344.23
743.935	313.51
744.12	463.01
744.305	311.46
744.49	303.27
744.675	368.81
744.86	333.99
745.045	448.68
745.23	346.28
745.415	358.57
745.6	407.72
745.785	278.69
745.97	417.96
746.155	409.76
746.34	411.81
746.525	305.32
746.71	413.86
746.895	307.37
747.079	290.98
747.264	200.87
747.449	403.62
747.634	438.44
747.819	432.29
748.003	268.45
748.188	303.27
748.373	374.95
748.557	352.42
748.742	340.13
748.927	333.99
749.111	340.13
749.296	270.5
749.481	387.24
749.665	385.19
749.85	301.22
750.034	327.85
750.219	331.94
750.404	284.84
750.588	333.99
750.773	336.04
750.957	288.93
751.141	407.72
751.326	360.61
751.51	262.31
751.695	256.17
751.879	307.37
752.064	413.86
752.248	329.89
752.432	426.15
752.617	348.33
752.801	301.22
752.985	270.5
753.17	372.9
753.354	358.57
753.538	262.31
753.722	243.88
753.907	237.74
754.091	260.26
754.275	278.69
754.459	200.87
754.643	194.73
754.828	319.65
755.012	319.65
755.196	174.25
755.38	250.02
755.564	178.34
755.748	260.26
755.932	280.74
756.116	379.04
756.3	293.03
756.484	219.3
756.668	268.45
756.852	102.57
757.036	233.64
757.22	340.13
757.404	166.06
757.588	209.06
757.772	311.46
757.956	264.36
758.14	374.95
758.323	194.73
758.507	252.07
758.691	204.97
758.875	319.65
759.059	329.89
759.242	231.59
759.426	239.78
759.61	274.6
759.794	143.53
759.977	336.04
760.161	432.29
760.345	256.17
760.528	235.69
760.712	225.45
760.895	299.17
761.079	176.3
761.263	207.02
761.446	176.3
761.63	196.78
761.813	329.89
761.997	45.23
762.18	182.44
762.364	231.59
762.547	108.71
762.731	209.06
762.914	153.77
763.098	190.63
763.281	211.11
763.464	147.62
763.648	243.88
763.831	159.91
764.015	139.43
764.198	233.64
764.381	145.58
764.564	168.1
764.748	262.31
764.931	172.2
765.114	114.86
765.297	247.97
765.481	63.66
765.664	127.14
765.847	151.72
766.03	245.93
766.213	73.9
766.397	80.04
766.58	82.09
766.763	221.35
766.946	135.34
767.129	123.05
767.312	141.48
767.495	166.06
767.678	139.43
767.861	110.76
768.044	168.1
768.227	98.47
768.41	239.78
768.593	157.86
768.776	143.53
768.959	196.78
769.142	225.45
769.324	186.54
769.507	98.47
769.69	157.86
769.873	168.1
770.056	307.37
770.239	161.96
770.421	215.21
770.604	164.01
770.787	143.53
770.97	194.73
771.152	110.76
771.335	254.12
771.518	94.38
771.7	192.68
771.883	239.78
772.066	61.61
772.248	98.47
772.431	213.16
772.613	186.54
772.796	184.49
772.978	207.02
773.161	149.67
773.343	102.57
773.526	59.56
773.708	41.13
773.891	71.85
774.073	176.3
774.256	116.9
774.438	235.69
774.621	-12.12
774.803	174.25
774.985	112.81
775.168	143.53
775.35	80.04
775.532	166.06
775.715	112.81
775.897	182.44
776.079	16.55
776.261	168.1
776.444	125.1
776.626	104.62
776.808	135.34
776.99	14.51
777.173	94.38
777.355	75.95
777.537	202.92
777.719	196.78
777.901	121
778.083	45.23
778.265	18.6
778.447	100.52
778.629	8.36
778.811	174.25
778.993	98.47
779.175	198.82
779.357	71.85
779.539	69.8
779.721	84.14
779.903	166.06
780.085	53.42
780.267	143.53
780.449	82.09
780.631	186.54
780.812	194.73
780.994	96.43
781.176	98.47
781.358	-20.31
781.54	71.85
781.721	84.14
781.903	88.23
782.085	53.42
782.267	139.43
782.448	-38.74
782.63	-1.88
782.812	75.95
782.993	114.86
783.175	127.14
783.357	-20.31
783.538	102.57
783.72	-3.93
783.901	114.86
784.083	147.62
784.264	153.77
784.446	30.89
784.627	-20.31
784.809	194.73
784.99	-67.41
785.172	114.86
785.353	43.18
785.535	86.19
785.716	49.32
785.897	-34.64
786.079	8.36
786.26	104.62
786.441	106.67
786.623	39.08
786.804	-10.07
786.985	77.99
787.167	90.28
787.348	34.99
787.529	108.71
787.71	196.78
787.891	137.38
788.073	24.75
788.254	-96.08
788.435	172.2
788.616	41.13
788.797	-22.36
788.978	8.36
789.159	73.9
789.34	188.58
789.522	32.94
789.703	73.9
789.884	88.23
790.065	55.47
790.246	159.91
790.427	4.27
790.607	231.59
790.788	131.24
790.969	-16.21
791.15	49.32
791.331	-3.93
791.512	53.42
791.693	24.75
791.874	37.03
792.054	174.25
792.235	155.82
792.416	30.89
792.597	-14.17
792.778	63.66
792.958	12.46
793.139	86.19
793.32	8.36
793.5	12.46
793.681	145.58
793.862	80.04
794.042	14.51
794.223	-55.12
794.404	45.23
794.584	-32.6
794.765	49.32
794.945	86.19
795.126	86.19
795.306	80.04
795.487	57.51
795.667	112.81
795.848	65.71
796.028	16.55
796.209	69.8
796.389	127.14
796.57	24.75
796.75	8.36
796.93	24.75
797.111	51.37
797.291	18.6
797.471	209.06
797.652	-22.36
797.832	-5.97
798.012	59.56
798.192	-20.31
798.373	-5.97
798.553	-3.93
798.733	59.56
798.913	32.94
799.093	71.85
799.274	125.1
799.454	98.47
799.634	137.38
799.814	121
799.994	6.31
800.174	57.51
800.354	-59.22
800.534	10.41
800.714	112.81
800.894	-28.5
801.074	-69.46
801.254	34.99
801.434	75.95
801.614	-8.02
801.794	-65.36
801.974	1568.91
802.154	24.75
802.334	104.62
802.514	67.75
802.693	-14.17
802.873	-38.74
803.053	174.25
803.233	149.67
803.413	14.51
803.592	-16.21
803.772	-36.69
803.952	49.32
804.131	24.75
804.311	106.67
804.491	143.53
804.67	-69.46
804.85	-65.36
805.03	71.85
805.209	106.67
805.389	63.66
805.568	-32.6
805.748	-14.17
805.928	82.09
806.107	80.04
806.287	92.33
806.466	30.89
806.646	-46.93
806.825	-8.02
807.004	-8.02
807.184	63.66
807.363	51.37
807.543	53.42
807.722	-89.94
807.901	123.05
808.081	108.71
808.26	-112.47
808.439	39.08
808.619	43.18
808.798	-63.32
808.977	49.32
809.156	63.66
809.336	24.75
809.515	114.86
809.694	6.31
809.873	-14.17
810.052	16.55
810.231	121
810.411	61.61
810.59	69.8
810.769	61.61
810.948	10.41
811.127	-36.69
811.306	-96.08
811.485	-38.74
811.664	90.28
811.843	37.03
812.022	22.7
812.201	24.75
812.38	98.47
812.559	41.13
812.737	34.99
812.916	-110.42
813.095	-89.94
813.274	59.56
813.453	10.41
813.632	49.32
813.811	108.71
813.989	-36.69
814.168	43.18
814.347	-30.55
814.526	88.23
814.704	77.99
814.883	118.95
815.062	16.55
815.24	71.85
815.419	-79.7
815.598	137.38
815.776	-94.04
815.955	-71.51
816.133	-112.47
816.312	20.65
816.49	-67.41
816.669	51.37
816.847	-44.88
817.026	10.41
817.204	-48.98
817.383	53.42
817.561	-26.45
817.74	67.75
817.918	22.7
818.097	4.27
818.275	-128.85
818.453	57.51
818.632	65.71
818.81	8.36
818.988	75.95
819.167	-53.08
819.345	6.31
819.523	-85.84
819.701	22.7
819.879	51.37
820.058	100.52
820.236	67.75
820.414	6.31
820.592	18.6
820.77	10.41
820.948	4.27
821.127	22.7
821.305	77.99
821.483	-87.89
821.661	114.86
821.839	47.27
822.017	-85.84
822.195	6.31
822.373	61.61
822.551	-36.69
822.729	10.41
822.907	-28.5
823.085	24.75
823.262	71.85
823.44	-89.94
823.618	-55.12
823.796	34.99
823.974	6.31
824.152	-20.31
824.329	-42.84
824.507	90.28
824.685	112.81
824.863	-3.93
825.04	-59.22
825.218	49.32
825.396	-12.12
825.574	94.38
825.751	16.55
825.929	12.46
826.107	-65.36
826.284	69.8
826.462	116.9
826.639	-8.02
826.817	-73.56
826.994	30.89
827.172	-61.27
827.349	170.15
827.527	34.99
827.704	4.27
827.882	53.42
828.059	57.51
828.237	-30.55
828.414	61.61
828.591	-184.15
828.769	16.55
828.946	-79.7
829.124	121
829.301	114.86
829.478	61.61
829.655	39.08
829.833	26.79
830.01	-135
830.187	100.52
830.364	-46.93
830.542	-20.31
830.719	71.85
830.896	20.65
831.073	12.46
831.25	-51.03
831.427	77.99
831.604	-28.5
831.782	-53.08
831.959	37.03
832.136	-3.93
832.313	18.6
832.49	-32.6
832.667	39.08
832.844	-36.69
833.021	118.95
833.198	55.47
833.374	-38.74
833.551	-10.07
833.728	-42.84
833.905	4.27
834.082	-180.05
834.259	0.17
834.436	61.61
834.612	-12.12
834.789	63.66
834.966	118.95
835.143	-26.45
835.319	-85.84
835.496	53.42
835.673	82.09
835.85	123.05
836.026	16.55
836.203	49.32
836.38	-8.02
836.556	4.27
836.733	-40.79
836.909	209.06
837.086	-22.36
837.262	-89.94
837.439	-30.55
837.616	0.17
837.792	-71.51
837.968	57.51
838.145	-104.28
838.321	16.55
838.498	75.95
838.674	90.28
838.851	30.89
839.027	-38.74
839.203	8.36
839.38	-42.84
839.556	-40.79
839.732	39.08
839.909	-63.32
840.085	102.57
840.261	-69.46
840.437	71.85
840.614	-10.07
840.79	18.6
840.966	0.17
841.142	-14.17
841.318	-18.26
841.494	73.9
841.671	73.9
841.847	-57.17
842.023	-67.41
842.199	67.75
842.375	190.63
842.551	-79.7
842.727	-55.12
842.903	155.82
843.079	-100.18
843.255	127.14
843.431	24.75
843.607	28.84
843.783	-67.41
843.959	82.09
844.134	-24.4
844.31	90.28
844.486	-22.36
844.662	-1.88
844.838	26.79
845.013	55.47
845.189	16.55
845.365	86.19
845.541	45.23
845.716	8.36
845.892	53.42
846.068	-20.31
846.244	-51.03
846.419	41.13
846.595	-67.41
846.77	-28.5
846.946	98.47
847.122	-51.03
847.297	-12.12
847.473	123.05
847.648	-48.98
847.824	57.51
847.999	-3.93
848.175	-42.84
848.35	-51.03
848.526	137.38
848.701	106.67
848.876	98.47
849.052	57.51
849.227	47.27
849.403	-1.88
849.578	-36.69
849.753	80.04
849.929	45.23
850.104	-104.28
850.279	-44.88
850.454	59.56
850.63	43.18
850.805	49.32
850.98	-1.88
851.155	24.75
851.33	73.9
851.505	-94.04
851.681	139.43
851.856	-34.64
852.031	20.65
852.206	-51.03
852.381	-65.36
852.556	2.22
852.731	110.76
852.906	6.31
853.081	67.75
853.256	86.19
853.431	-22.36
853.606	-83.8
853.781	-10.07
853.956	-77.65
854.131	32.94
854.305	-12.12
854.48	43.18
854.655	-28.5
854.83	-8.02
855.005	-32.6
855.18	-18.26
855.354	-1.88
855.529	-53.08
855.704	43.18
855.879	-8.02
856.053	6.31
856.228	12.46
856.403	-132.95
856.577	32.94
856.752	-71.51
856.926	-42.84
857.101	84.14
857.276	-24.4
857.45	37.03
857.625	63.66
857.799	94.38
857.974	-5.97
858.148	-137.04
858.323	39.08
858.497	-26.45
858.672	-40.79
858.846	-38.74
859.02	-3.93
859.195	-102.23
859.369	-30.55
859.543	-18.26
859.718	18.6
859.892	45.23
860.066	4.27
860.241	-38.74
860.415	-3.93
860.589	-44.88
860.763	-65.36
860.938	-59.22
861.112	28.84
861.286	22.7
861.46	-24.4
861.634	-28.5
861.808	16.55
861.982	-135
862.157	4.27
862.331	-98.13
862.505	-96.08
862.679	-26.45
862.853	57.51
863.027	-16.21
863.201	204.97
863.375	-24.4
863.549	-40.79
863.722	4.27
863.896	141.48
864.07	-20.31
864.244	18.6
864.418	-34.64
864.592	59.56
864.766	28.84
864.939	-57.17
865.113	-38.74
865.287	94.38
865.461	-116.56
865.634	-32.6
865.808	41.13
865.982	-91.99
866.156	14.51
866.329	-42.84
866.503	61.61
866.676	22.7
866.85	69.8
867.024	-57.17
867.197	116.9
867.371	6.31
867.544	4.27
867.718	-83.8
867.891	114.86
868.065	-28.5
868.238	-40.79
868.412	135.34
868.585	28.84
868.759	-1.88
868.932	18.6
869.105	-96.08
869.279	24.75
869.452	-124.76
869.625	51.37
869.799	98.47
869.972	-98.13
870.145	-53.08
870.319	22.7
870.492	-10.07
870.665	-81.75
870.838	-12.12
871.011	-128.85
871.185	-30.55
871.358	-75.6
871.531	110.76
871.704	-8.02
871.877	45.23
872.05	-53.08
872.223	-71.51
872.396	73.9
872.569	116.9
872.742	-69.46
872.915	10.41
873.088	-46.93
873.261	0.17
873.434	86.19
873.607	-89.94
873.78	16.55
873.953	-24.4
874.126	-42.84
874.299	98.47
874.471	18.6
874.644	-3.93
874.817	127.14
874.99	184.49
875.163	-69.46
875.335	12.46
875.508	-51.03
875.681	112.81
875.853	-112.47
876.026	-8.02
876.199	43.18
876.371	39.08
876.544	-63.32
876.717	55.47
876.889	34.99
877.062	106.67
877.234	-53.08
877.407	-5.97
877.579	-102.23
877.752	-69.46
877.924	73.9
878.097	30.89
878.269	-53.08
878.442	32.94
878.614	12.46
878.786	-12.12
878.959	-18.26
879.131	43.18
879.303	-73.56
879.476	-18.26
879.648	47.27
879.82	-22.36
879.993	-59.22
880.165	12.46
880.337	-75.6
880.509	-63.32
880.681	-114.52
880.854	-53.08
881.026	18.6
881.198	155.82
881.37	-18.26
881.542	26.79
881.714	-8.02
881.886	-38.74
882.058	16.55
882.23	-22.36
882.402	-46.93
882.574	20.65
882.746	-48.98
882.918	88.23
883.09	45.23
883.262	-53.08
883.434	-5.97
883.606	-85.84
883.778	30.89
883.95	63.66
884.122	-10.07
884.293	90.28
884.465	-73.56
884.637	73.9
884.809	-100.18
884.98	-18.26
885.152	49.32
885.324	43.18
885.496	8.36
885.667	-40.79
885.839	26.79
886.011	84.14
886.182	6.31
886.354	73.9
886.525	28.84
886.697	32.94
886.869	-69.46
887.04	-75.6
887.212	75.95
887.383	114.86
887.555	57.51
887.726	-20.31
887.897	-73.56
888.069	-42.84
888.24	131.24
888.412	41.13
888.583	-20.31
888.754	6.31
888.926	-155.47
889.097	-85.84
889.268	-79.7
889.44	41.13
889.611	-124.76
889.782	-63.32
889.953	-36.69
890.125	127.14
890.296	-46.93
890.467	24.75
890.638	-51.03
890.809	16.55
890.98	-36.69
891.151	53.42
891.323	41.13
891.494	34.99
891.665	92.33
891.836	69.8
892.007	-5.97
892.178	-5.97
892.349	59.56
892.52	-16.21
892.691	12.46
892.862	26.79
893.032	-36.69
893.203	-28.5
893.374	14.51
893.545	88.23
893.716	-118.61
893.887	47.27
894.057	-53.08
894.228	-26.45
894.399	12.46
894.57	45.23
894.74	-3.93
894.911	34.99
895.082	43.18
895.253	4.27
895.423	-40.79
895.594	92.33
895.764	-40.79
895.935	-22.36
896.106	-30.55
896.276	-28.5
896.447	47.27
896.617	-102.23
896.788	-20.31
896.958	-69.46
897.129	-5.97
897.299	-38.74
897.47	67.75
897.64	102.57
897.81	-1.88
897.981	-1.88
898.151	-100.18
898.322	63.66
898.492	18.6
898.662	-38.74
898.832	-65.36
899.003	8.36
899.173	8.36
899.343	-102.23
899.513	-79.7
