Data from USB4F104151__0__11-23-53-739.txt Node

Date: Wed Feb 26 11:23:53 EST 2025
User: louis
Spectrometer: USB4F10415
Trigger mode: 4
Integration Time (sec): 1.000000E-1
Scans to average: 1
Electric dark correction enabled: true
Nonlinearity correction enabled: false
Boxcar width: 0
XAxis mode: Wavelengths
Number of Pixels in Spectrum: 3648
>>>>>Begin Spectral Data<<<<<
178.204	-371.02
178.424	-371.02
178.644	-371.02
178.864	-463.18
179.084	-403.79
179.304	48.81
179.524	-0.34
179.744	5.8
179.964	11.95
180.184	-22.87
180.404	22.19
180.624	-86.36
180.844	7.85
181.064	-41.3
181.283	-29.01
181.503	9.9
181.723	73.39
181.943	-98.64
182.163	210.6
182.383	-63.83
182.602	81.58
182.822	159.4
183.042	85.67
183.262	-10.58
183.482	38.57
183.701	73.39
183.921	52.91
184.141	-26.96
184.361	65.19
184.58	11.95
184.8	67.24
185.02	-22.87
185.239	138.92
185.459	165.54
185.679	83.63
185.898	54.95
186.118	52.91
186.338	11.95
186.557	149.16
186.777	-26.96
186.997	42.67
187.216	65.19
187.436	122.54
187.655	128.68
187.875	124.58
188.095	83.63
188.314	57
188.534	165.54
188.753	-2.39
188.973	75.43
189.192	132.78
189.412	-8.53
189.631	-2.39
189.851	138.92
190.07	104.11
190.29	-84.31
190.509	3.75
190.729	-51.54
190.948	179.88
191.168	290.47
191.387	116.39
191.607	34.47
191.826	13.99
192.045	89.77
192.265	32.43
192.484	30.38
192.704	34.47
192.923	7.85
193.142	202.41
193.362	106.15
193.581	186.02
193.8	48.81
194.02	87.72
194.239	79.53
194.458	108.2
194.678	46.76
194.897	11.95
195.116	85.67
195.335	73.39
195.555	114.34
195.774	-22.87
195.993	100.01
196.212	110.25
196.432	-45.4
196.651	-24.92
196.87	11.95
197.089	220.84
197.308	93.87
197.528	73.39
197.747	44.71
197.966	114.34
198.185	181.93
198.404	-4.44
198.623	75.43
198.842	161.45
199.062	50.86
199.281	91.82
199.5	-18.77
199.719	48.81
199.938	87.72
200.157	110.25
200.376	42.67
200.595	93.87
200.814	24.23
201.033	61.1
201.252	159.4
201.471	26.28
201.69	95.91
201.909	65.19
202.128	188.07
202.347	44.71
202.566	42.67
202.785	-67.92
203.004	-6.49
203.223	267.94
203.442	11.95
203.661	-31.06
203.879	93.87
204.098	128.68
204.317	-22.87
204.536	65.19
204.755	91.82
204.974	67.24
205.193	44.71
205.411	112.3
205.63	100.01
205.849	63.15
206.068	38.57
206.287	-22.87
206.505	145.06
206.724	59.05
206.943	-20.82
207.162	20.14
207.381	81.58
207.599	59.05
207.818	67.24
208.037	-16.73
208.255	65.19
208.474	48.81
208.693	95.91
208.911	11.95
209.13	52.91
209.349	54.95
209.567	116.39
209.786	149.16
210.005	122.54
210.223	5.8
210.442	-16.73
210.661	40.62
210.879	114.34
211.098	112.3
211.316	-14.68
211.535	147.11
211.753	83.63
211.972	75.43
212.191	59.05
212.409	32.43
212.628	75.43
212.846	32.43
213.065	106.15
213.283	75.43
213.502	97.96
213.72	85.67
213.938	-8.53
214.157	67.24
214.375	147.11
214.594	32.43
214.812	50.86
215.031	-26.96
215.249	38.57
215.467	132.78
215.686	22.19
215.904	44.71
216.122	159.4
216.341	214.7
216.559	100.01
216.778	157.35
216.996	128.68
217.214	-4.44
217.432	5.8
217.651	42.67
217.869	38.57
218.087	61.1
218.306	24.23
218.524	40.62
218.742	5.8
218.96	120.49
219.179	57
219.397	-0.34
219.615	302.76
219.833	177.83
220.051	-14.68
220.27	87.72
220.488	81.58
220.706	91.82
220.924	61.1
221.142	48.81
221.36	40.62
221.578	9.9
221.796	42.67
222.015	9.9
222.233	59.05
222.451	157.35
222.669	11.95
222.887	42.67
223.105	24.23
223.323	75.43
223.541	-59.73
223.759	34.47
223.977	100.01
224.195	212.65
224.413	143.02
224.631	79.53
224.849	42.67
225.067	237.22
225.285	-14.68
225.503	-4.44
225.721	-29.01
225.939	36.52
226.157	77.48
226.375	149.16
226.592	-6.49
226.81	57
227.028	77.48
227.246	116.39
227.464	79.53
227.682	77.48
227.9	75.43
228.117	85.67
228.335	175.78
228.553	59.05
228.771	-20.82
228.989	114.34
229.206	36.52
229.424	-24.92
229.642	13.99
229.86	-53.59
230.077	208.55
230.295	61.1
230.513	73.39
230.731	97.96
230.948	163.5
231.166	247.46
231.384	57
231.601	-74.07
231.819	188.07
232.037	20.14
232.254	9.9
232.472	36.52
232.689	46.76
232.907	128.68
233.125	-37.2
233.342	-2.39
233.56	61.1
233.777	-4.44
233.995	95.91
234.213	63.15
234.43	16.04
234.648	26.28
234.865	48.81
235.083	106.15
235.3	108.2
235.518	77.48
235.735	91.82
235.953	102.06
236.17	63.15
236.388	22.19
236.605	-2.39
236.822	93.87
237.04	153.26
237.257	42.67
237.475	-6.49
237.692	149.16
237.909	140.97
238.127	85.67
238.344	48.81
238.562	69.29
238.779	-49.49
238.996	-26.96
239.214	20.14
239.431	83.63
239.648	7.85
239.865	167.59
240.083	77.48
240.3	-14.68
240.517	63.15
240.735	77.48
240.952	151.21
241.169	118.44
241.386	171.69
241.603	13.99
241.821	-16.73
242.038	110.25
242.255	120.49
242.472	-6.49
242.689	153.26
242.907	-4.44
243.124	81.58
243.341	20.14
243.558	120.49
243.775	-35.16
243.992	-16.73
244.209	102.06
244.426	190.12
244.643	42.67
244.86	16.04
245.078	106.15
245.295	91.82
245.512	1.71
245.729	-6.49
245.946	145.06
246.163	-4.44
246.38	-51.54
246.597	91.82
246.814	7.85
247.031	24.23
247.248	18.09
247.464	1.71
247.681	63.15
247.898	46.76
248.115	42.67
248.332	-2.39
248.549	155.3
248.766	175.78
248.983	108.2
249.2	104.11
249.417	52.91
249.633	-0.34
249.85	89.77
250.067	46.76
250.284	69.29
250.501	11.95
250.717	89.77
250.934	-35.16
251.151	61.1
251.368	46.76
251.585	61.1
251.801	63.15
252.018	-31.06
252.235	73.39
252.451	-53.59
252.668	18.09
252.885	149.16
253.102	69.29
253.318	-20.82
253.535	24.23
253.752	-0.34
253.968	20.14
254.185	-33.11
254.401	46.76
254.618	36.52
254.835	28.33
255.051	149.16
255.268	32.43
255.484	155.3
255.701	34.47
255.917	34.47
256.134	5.8
256.351	57
256.567	-76.12
256.784	40.62
257	9.9
257.217	114.34
257.433	100.01
257.65	52.91
257.866	159.4
258.082	-22.87
258.299	-63.83
258.515	18.09
258.732	-0.34
258.948	-41.3
259.165	120.49
259.381	-78.16
259.597	132.78
259.814	-0.34
260.03	57
260.246	16.04
260.463	106.15
260.679	130.73
260.895	95.91
261.112	112.3
261.328	97.96
261.544	89.77
261.761	149.16
261.977	-10.58
262.193	-55.64
262.409	87.72
262.626	59.05
262.842	63.15
263.058	-16.73
263.274	85.67
263.49	28.33
263.707	91.82
263.923	87.72
264.139	-100.69
264.355	46.76
264.571	149.16
264.787	87.72
265.004	143.02
265.22	22.19
265.436	7.85
265.652	36.52
265.868	30.38
266.084	-65.88
266.3	48.81
266.516	-51.54
266.732	28.33
266.948	59.05
267.164	61.1
267.38	134.82
267.596	46.76
267.812	122.54
268.028	13.99
268.244	9.9
268.46	61.1
268.676	54.95
268.892	116.39
269.108	28.33
269.324	42.67
269.54	18.09
269.756	110.25
269.972	11.95
270.188	44.71
270.403	-121.17
270.619	67.24
270.835	61.1
271.051	22.19
271.267	59.05
271.483	46.76
271.698	114.34
271.914	130.73
272.13	34.47
272.346	-4.44
272.562	67.24
272.777	106.15
272.993	42.67
273.209	32.43
273.425	73.39
273.64	-59.73
273.856	71.34
274.072	-53.59
274.287	48.81
274.503	161.45
274.719	181.93
274.934	5.8
275.15	-18.77
275.366	38.57
275.581	-35.16
275.797	42.67
276.012	118.44
276.228	-61.78
276.444	75.43
276.659	218.79
276.875	-74.07
277.09	22.19
277.306	52.91
277.521	69.29
277.737	40.62
277.952	159.4
278.168	40.62
278.383	85.67
278.599	44.71
278.814	151.21
279.03	7.85
279.245	177.83
279.461	-20.82
279.676	124.58
279.892	-41.3
280.107	-57.68
280.322	-31.06
280.538	95.91
280.753	9.9
280.969	122.54
281.184	18.09
281.399	118.44
281.615	77.48
281.83	44.71
282.045	-100.69
282.26	20.14
282.476	73.39
282.691	73.39
282.906	95.91
283.122	108.2
283.337	-80.21
283.552	145.06
283.767	22.19
283.983	87.72
284.198	130.73
284.413	32.43
284.628	-16.73
284.843	57
285.058	22.19
285.274	24.23
285.489	-12.63
285.704	159.4
285.919	-39.25
286.134	34.47
286.349	9.9
286.564	-26.96
286.779	216.74
286.995	69.29
287.21	-16.73
287.425	73.39
287.64	54.95
287.855	71.34
288.07	1.71
288.285	120.49
288.5	97.96
288.715	52.91
288.93	57
289.145	-20.82
289.36	171.69
289.575	38.57
289.79	136.87
290.004	75.43
290.219	95.91
290.434	-24.92
290.649	-14.68
290.864	44.71
291.079	-37.2
291.294	79.53
291.509	34.47
291.724	89.77
291.938	-20.82
292.153	63.15
292.368	-14.68
292.583	75.43
292.798	138.92
293.012	93.87
293.227	44.71
293.442	32.43
293.657	132.78
293.871	134.82
294.086	85.67
294.301	214.7
294.516	128.68
294.73	73.39
294.945	28.33
295.16	130.73
295.374	93.87
295.589	65.19
295.804	-8.53
296.018	102.06
296.233	122.54
296.447	54.95
296.662	54.95
296.877	138.92
297.091	97.96
297.306	77.48
297.52	106.15
297.735	40.62
297.949	75.43
298.164	-16.73
298.378	106.15
298.593	-18.77
298.807	-22.87
299.022	5.8
299.236	153.26
299.451	63.15
299.665	-12.63
299.88	-29.01
300.094	104.11
300.309	-31.06
300.523	52.91
300.737	-6.49
300.952	97.96
301.166	59.05
301.381	-74.07
301.595	-37.2
301.809	91.82
302.024	32.43
302.238	-10.58
302.452	87.72
302.667	77.48
302.881	179.88
303.095	85.67
303.309	71.34
303.524	-22.87
303.738	5.8
303.952	-47.44
304.166	63.15
304.381	-135.51
304.595	145.06
304.809	46.76
305.023	5.8
305.237	-2.39
305.452	-31.06
305.666	132.78
305.88	87.72
306.094	128.68
306.308	116.39
306.522	57
306.736	48.81
306.95	124.58
307.164	32.43
307.379	91.82
307.593	165.54
307.807	85.67
308.021	224.94
308.235	155.3
308.449	44.71
308.663	40.62
308.877	200.36
309.091	97.96
309.305	42.67
309.519	-86.36
309.733	214.7
309.947	-39.25
310.161	81.58
310.374	134.82
310.588	95.91
310.802	69.29
311.016	7.85
311.23	87.72
311.444	-55.64
311.658	5.8
311.872	52.91
312.085	157.35
312.299	165.54
312.513	163.5
312.727	116.39
312.941	1.71
313.154	59.05
313.368	91.82
313.582	46.76
313.796	69.29
314.009	22.19
314.223	138.92
314.437	42.67
314.651	110.25
314.864	-8.53
315.078	7.85
315.292	-78.16
315.505	-2.39
315.719	95.91
315.933	48.81
316.146	71.34
316.36	-26.96
316.573	85.67
316.787	116.39
317.001	67.24
317.214	-55.64
317.428	106.15
317.641	-51.54
317.855	24.23
318.068	75.43
318.282	-24.92
318.495	173.74
318.709	143.02
318.922	65.19
319.136	116.39
319.349	67.24
319.563	-29.01
319.776	83.63
319.99	-98.64
320.203	79.53
320.417	52.91
320.63	85.67
320.843	208.55
321.057	159.4
321.27	24.23
321.483	116.39
321.697	149.16
321.91	20.14
322.124	126.63
322.337	7.85
322.55	-12.63
322.763	106.15
322.977	-12.63
323.19	-14.68
323.403	50.86
323.617	69.29
323.83	61.1
324.043	44.71
324.256	93.87
324.469	-65.88
324.683	79.53
324.896	-2.39
325.109	1.71
325.322	50.86
325.535	89.77
325.748	124.58
325.962	46.76
326.175	79.53
326.388	108.2
326.601	163.5
326.814	-59.73
327.027	16.04
327.24	153.26
327.453	-78.16
327.666	73.39
327.879	134.82
328.092	32.43
328.305	11.95
328.518	18.09
328.731	26.28
328.944	71.34
329.157	40.62
329.37	48.81
329.583	259.75
329.796	95.91
330.009	38.57
330.222	120.49
330.435	93.87
330.648	7.85
330.861	61.1
331.073	32.43
331.286	149.16
331.499	34.47
331.712	30.38
331.925	54.95
332.138	16.04
332.35	100.01
332.563	-29.01
332.776	116.39
332.989	-24.92
333.202	36.52
333.414	22.19
333.627	46.76
333.84	9.9
334.053	61.1
334.265	26.28
334.478	69.29
334.691	1.71
334.903	20.14
335.116	-43.35
335.329	20.14
335.541	108.2
335.754	243.37
335.966	36.52
336.179	28.33
336.392	-47.44
336.604	52.91
336.817	124.58
337.029	97.96
337.242	16.04
337.454	83.63
337.667	24.23
337.88	93.87
338.092	81.58
338.305	116.39
338.517	-0.34
338.729	126.63
338.942	102.06
339.154	22.19
339.367	-29.01
339.579	71.34
339.792	-10.58
340.004	114.34
340.217	3.75
340.429	97.96
340.641	-43.35
340.854	-18.77
341.066	71.34
341.278	83.63
341.491	210.6
341.703	38.57
341.915	67.24
342.128	145.06
342.34	48.81
342.552	63.15
342.764	-24.92
342.977	-14.68
343.189	71.34
343.401	28.33
343.613	28.33
343.826	52.91
344.038	-14.68
344.25	30.38
344.462	9.9
344.674	95.91
344.886	69.29
345.099	1.71
345.311	104.11
345.523	-18.77
345.735	-102.74
345.947	16.04
346.159	83.63
346.371	20.14
346.583	16.04
346.795	257.7
347.007	50.86
347.219	48.81
347.431	-18.77
347.643	202.41
347.855	36.52
348.067	75.43
348.279	-20.82
348.491	89.77
348.703	79.53
348.915	-0.34
349.127	7.85
349.339	36.52
349.551	-31.06
349.763	95.91
349.975	75.43
350.187	120.49
350.399	177.83
350.61	83.63
350.822	-18.77
351.034	11.95
351.246	63.15
351.458	120.49
351.669	67.24
351.881	116.39
352.093	93.87
352.305	149.16
352.517	124.58
352.728	136.87
352.94	57
353.152	140.97
353.363	-20.82
353.575	108.2
353.787	165.54
353.999	34.47
354.21	157.35
354.422	-14.68
354.633	-2.39
354.845	77.48
355.057	87.72
355.268	34.47
355.48	52.91
355.692	-12.63
355.903	104.11
356.115	-2.39
356.326	-57.68
356.538	126.63
356.749	130.73
356.961	69.29
357.172	24.23
357.384	-98.64
357.595	267.94
357.807	28.33
358.018	100.01
358.23	-10.58
358.441	114.34
358.653	77.48
358.864	34.47
359.075	50.86
359.287	91.82
359.498	136.87
359.709	151.21
359.921	16.04
360.132	34.47
360.344	30.38
360.555	71.34
360.766	34.47
360.977	63.15
361.189	87.72
361.4	46.76
361.611	140.97
361.823	50.86
362.034	71.34
362.245	-26.96
362.456	36.52
362.667	167.59
362.879	-22.87
363.09	54.95
363.301	32.43
363.512	-16.73
363.723	-43.35
363.935	34.47
364.146	95.91
364.357	44.71
364.568	11.95
364.779	-45.4
364.99	147.11
365.201	95.91
365.412	106.15
365.623	-8.53
365.834	57
366.045	24.23
366.256	122.54
366.467	145.06
366.678	-10.58
366.889	-18.77
367.1	-2.39
367.311	81.58
367.522	65.19
367.733	63.15
367.944	83.63
368.155	-6.49
368.366	75.43
368.577	93.87
368.788	112.3
368.999	9.9
369.209	-4.44
369.42	235.18
369.631	196.26
369.842	52.91
370.053	46.76
370.264	81.58
370.474	26.28
370.685	130.73
370.896	63.15
371.107	151.21
371.317	106.15
371.528	30.38
371.739	155.3
371.95	38.57
372.16	26.28
372.371	-37.2
372.582	-26.96
372.792	44.71
373.003	102.06
373.214	54.95
373.424	54.95
373.635	1.71
373.846	89.77
374.056	32.43
374.267	65.19
374.477	118.44
374.688	7.85
374.898	63.15
375.109	57
375.319	108.2
375.53	87.72
375.74	118.44
375.951	-6.49
376.161	67.24
376.372	52.91
376.582	-72.02
376.793	81.58
377.003	-20.82
377.214	28.33
377.424	175.78
377.635	83.63
377.845	-49.49
378.055	153.26
378.266	-35.16
378.476	16.04
378.686	95.91
378.897	44.71
379.107	87.72
379.317	32.43
379.528	-45.4
379.738	9.9
379.948	-41.3
380.158	69.29
380.369	-18.77
380.579	73.39
380.789	81.58
380.999	110.25
381.21	104.11
381.42	229.03
381.63	85.67
381.84	118.44
382.05	155.3
382.261	163.5
382.471	143.02
382.681	38.57
382.891	128.68
383.101	132.78
383.311	57
383.521	20.14
383.731	155.3
383.941	106.15
384.151	40.62
384.361	13.99
384.571	69.29
384.781	57
384.991	233.13
385.201	194.22
385.411	100.01
385.621	87.72
385.831	40.62
386.041	77.48
386.251	-6.49
386.461	83.63
386.671	61.1
386.881	30.38
387.091	89.77
387.301	124.58
387.511	108.2
387.72	59.05
387.93	85.67
388.14	-57.68
388.35	73.39
388.56	138.92
388.769	145.06
388.979	106.15
389.189	-67.92
389.399	30.38
389.609	153.26
389.818	91.82
390.028	24.23
390.238	22.19
390.447	48.81
390.657	91.82
390.867	-22.87
391.076	-43.35
391.286	34.47
391.496	-31.06
391.705	26.28
391.915	130.73
392.125	218.79
392.334	18.09
392.544	73.39
392.753	75.43
392.963	5.8
393.172	-22.87
393.382	1.71
393.591	181.93
393.801	24.23
394.01	183.98
394.22	175.78
394.429	1.71
394.639	40.62
394.848	95.91
395.058	63.15
395.267	-6.49
395.477	159.4
395.686	122.54
395.895	186.02
396.105	212.65
396.314	118.44
396.524	26.28
396.733	126.63
396.942	81.58
397.152	73.39
397.361	149.16
397.57	91.82
397.78	44.71
397.989	120.49
398.198	200.36
398.407	9.9
398.617	30.38
398.826	69.29
399.035	22.19
399.244	130.73
399.453	36.52
399.663	124.58
399.872	114.34
400.081	-45.4
400.29	204.46
400.499	28.33
400.708	79.53
400.917	44.71
401.127	73.39
401.336	16.04
401.545	177.83
401.754	104.11
401.963	89.77
402.172	16.04
402.381	34.47
402.59	50.86
402.799	32.43
403.008	163.5
403.217	104.11
403.426	65.19
403.635	-59.73
403.844	65.19
404.053	-39.25
404.262	5.8
404.471	200.36
404.68	95.91
404.888	5.8
405.097	132.78
405.306	93.87
405.515	153.26
405.724	38.57
405.933	128.68
406.142	73.39
406.35	204.46
406.559	36.52
406.768	73.39
406.977	151.21
407.185	57
407.394	95.91
407.603	-31.06
407.812	-0.34
408.02	112.3
408.229	48.81
408.438	13.99
408.646	-43.35
408.855	28.33
409.064	54.95
409.272	52.91
409.481	124.58
409.69	40.62
409.898	-63.83
410.107	71.34
410.315	157.35
410.524	-4.44
410.733	71.34
410.941	106.15
411.15	87.72
411.358	167.59
411.567	175.78
411.775	50.86
411.984	75.43
412.192	108.2
412.401	81.58
412.609	192.17
412.818	157.35
413.026	59.05
413.234	73.39
413.443	89.77
413.651	-2.39
413.86	102.06
414.068	151.21
414.276	212.65
414.485	26.28
414.693	95.91
414.901	138.92
415.11	77.48
415.318	42.67
415.526	26.28
415.734	143.02
415.943	46.76
416.151	63.15
416.359	48.81
416.567	83.63
416.776	85.67
416.984	106.15
417.192	177.83
417.4	97.96
417.608	81.58
417.817	-10.58
418.025	89.77
418.233	161.45
418.441	40.62
418.649	-10.58
418.857	120.49
419.065	200.36
419.273	30.38
419.481	134.82
419.689	48.81
419.897	-2.39
420.105	3.75
420.313	97.96
420.521	163.5
420.729	194.22
420.937	106.15
421.145	-33.11
421.353	220.84
421.561	116.39
421.769	143.02
421.977	-18.77
422.185	79.53
422.393	38.57
422.601	95.91
422.809	106.15
423.017	48.81
423.224	50.86
423.432	167.59
423.64	48.81
423.848	77.48
424.056	63.15
424.263	122.54
424.471	65.19
424.679	149.16
424.887	126.63
425.094	108.2
425.302	63.15
425.51	-4.44
425.718	183.98
425.925	95.91
426.133	5.8
426.341	237.22
426.548	97.96
426.756	59.05
426.964	136.87
427.171	93.87
427.379	138.92
427.586	20.14
427.794	179.88
428.001	138.92
428.209	67.24
428.417	186.02
428.624	204.46
428.832	140.97
429.039	138.92
429.247	97.96
429.454	147.11
429.662	198.31
429.869	175.78
430.076	102.06
430.284	247.46
430.491	151.21
430.699	183.98
430.906	294.57
431.114	138.92
431.321	163.5
431.528	81.58
431.736	177.83
431.943	126.63
432.15	233.13
432.358	198.31
432.565	329.38
432.772	34.47
432.979	239.27
433.187	114.34
433.394	243.37
433.601	124.58
433.808	173.74
434.016	237.22
434.223	212.65
434.43	226.98
434.637	265.89
434.844	196.26
435.052	169.64
435.259	302.76
435.466	382.63
435.673	315.05
435.88	284.33
436.087	337.57
436.294	259.75
436.501	319.14
436.708	220.84
436.915	327.33
437.122	347.81
437.329	280.23
437.537	313
437.743	362.15
437.95	474.79
438.157	386.72
438.364	466.6
438.571	378.53
438.778	411.3
438.985	360.1
439.192	493.22
439.399	394.92
439.606	419.49
439.813	560.8
440.02	622.24
440.227	628.39
440.433	505.51
440.64	532.13
440.847	470.69
441.054	534.18
441.261	714.4
441.467	523.94
441.674	677.54
441.881	710.3
442.088	620.19
442.294	736.93
442.501	812.7
442.708	741.02
442.914	868
443.121	822.94
443.328	818.85
443.534	968.35
443.741	790.17
443.948	716.45
444.154	927.39
444.361	1111.71
444.568	970.4
444.774	992.92
444.981	1017.5
445.187	1119.9
445.394	1103.51
445.6	1130.14
445.807	1246.87
446.013	1175.19
446.22	1228.44
446.426	1330.84
446.633	1519.25
446.839	1627.79
447.046	1312.41
447.252	1650.32
447.459	1670.8
447.665	1537.68
447.871	1851.02
448.078	1834.64
448.284	1758.86
448.491	1969.8
448.697	1988.24
448.903	2098.83
449.11	2145.93
449.316	1998.48
449.522	2262.66
449.728	2397.83
449.935	2485.89
450.141	2315.91
450.347	2565.76
450.553	2614.91
450.76	2698.88
450.966	2924.16
451.172	2860.67
451.378	3038.84
451.584	3020.41
451.791	3376.76
451.997	3329.66
452.203	3364.47
452.409	3677.81
452.615	3806.83
452.821	3653.23
453.027	3765.87
453.233	4226.67
453.44	4177.51
453.646	4339.3
453.852	4437.61
454.058	4779.62
454.264	4775.52
454.47	5015.13
454.676	5144.16
454.882	5729.88
455.088	5428.82
455.294	5568.09
455.5	6174.28
455.705	6383.18
455.911	6139.47
456.117	6432.33
456.323	6755.91
456.529	6637.13
456.735	7349.82
456.941	7433.79
457.147	8027.7
457.352	8232.49
457.558	8298.03
457.764	8947.23
457.97	9109.02
458.176	9139.74
458.381	9682.45
458.587	9954.83
458.793	10470.92
458.999	10386.96
459.204	11779.57
459.41	12248.56
459.616	11822.58
459.821	12738.02
460.027	13288.93
460.233	13542.88
460.438	14089.68
460.644	14644.68
460.85	14712.27
461.055	15412.67
461.261	16154.04
461.466	15642.04
461.672	15902.14
461.878	18003.35
462.083	17884.57
462.289	18075.03
462.494	19062.15
462.7	19076.49
462.905	19484.03
463.111	20866.41
463.316	21888.35
463.522	22508.88
463.727	23137.61
463.932	24012.09
464.138	24425.78
464.343	25525.54
464.549	25916.7
464.754	27731.2
464.959	28447.99
465.165	29013.23
465.37	28423.42
465.575	28691.7
465.781	30555.35
465.986	31341.77
466.191	31456.46
466.397	31343.82
466.602	30579.93
466.807	32472.25
467.012	32976.05
467.218	33336.49
467.423	33543.34
467.628	34620.57
467.833	36021.38
468.038	35214.48
468.244	34786.46
468.449	36494.46
468.654	36258.95
468.859	36011.14
469.064	36033.67
469.269	34804.89
469.474	35923.08
469.679	36369.54
469.885	35093.65
470.09	36058.24
470.295	36078.72
470.5	35167.38
470.705	35216.53
470.91	34626.71
471.115	34059.43
471.32	34735.26
471.525	34682.01
471.73	33655.98
471.935	32867.51
472.139	31808.71
472.344	32187.58
472.549	31780.04
472.754	31216.85
472.959	30649.56
473.164	29457.64
473.369	28988.66
473.574	29445.35
473.778	29357.29
473.983	28882.16
474.188	28343.55
474.393	26838.29
474.598	26748.18
474.802	26336.54
475.007	26137.88
475.212	25646.37
475.417	24761.65
475.621	24130.87
475.826	23899.45
476.031	23473.48
476.235	23283.02
476.44	23250.25
476.645	22480.21
476.849	22259.03
477.054	22013.27
477.259	21245.29
477.463	21417.32
477.668	20798.83
477.872	20780.4
478.077	20098.42
478.282	19737.98
478.486	19766.65
478.691	19258.76
478.895	19430.79
479.1	18894.22
479.304	19182.98
479.509	18259.35
479.713	18421.14
479.918	18152.85
480.122	17704.35
480.326	17757.6
480.531	17712.54
480.735	17421.73
480.94	17235.36
481.144	17737.12
481.348	16829.87
481.553	16987.56
481.757	16524.72
481.961	16772.52
482.166	17020.33
482.37	16502.19
482.574	16301.49
482.778	16242.1
482.983	16074.17
483.187	15775.16
483.391	15863.22
483.595	15386.05
483.8	15263.17
484.004	15365.57
484.208	15349.18
484.412	15363.52
484.616	15091.14
484.821	14896.58
485.025	14233.04
485.229	14462.41
485.433	14337.49
485.637	14169.55
485.841	14179.79
486.045	13735.39
486.249	13780.44
486.453	13293.02
486.657	13266.4
486.861	13202.91
487.065	12668.39
487.269	12733.93
487.473	12465.64
487.677	12496.36
487.881	12301.81
488.085	12060.15
488.289	11566.59
488.493	11341.31
488.697	11630.07
488.901	11138.56
489.105	11056.64
489.309	10806.79
489.512	10714.63
489.716	10417.68
489.92	10225.17
490.124	10081.81
490.328	10245.65
490.531	9604.63
490.735	9532.95
490.939	9418.27
491.143	9219.61
491.346	9131.55
491.55	8951.33
491.754	8777.25
491.958	8881.7
492.161	8461.87
492.365	8375.85
492.569	8154.67
492.772	8074.8
492.976	8238.64
493.18	7904.82
493.383	7951.92
493.587	7779.89
493.79	7884.34
493.994	7427.64
494.197	7446.07
494.401	7511.61
494.605	7458.36
494.808	7337.53
495.012	7239.23
495.215	7407.16
495.419	7312.96
495.622	6962.75
495.825	6915.65
496.029	7102.01
496.232	7145.02
496.436	6958.66
496.639	7224.89
496.843	7046.72
497.046	6919.75
497.249	7054.91
497.453	6972.99
497.656	6923.84
497.859	7013.95
498.063	7065.15
498.266	7022.14
498.469	6850.11
498.673	6891.07
498.876	7147.07
499.079	7112.25
499.282	7165.5
499.485	7396.92
499.689	7071.29
499.892	7396.92
500.095	7024.19
500.298	7368.25
500.501	7181.89
500.705	7523.9
500.908	7554.62
501.111	7620.15
501.314	7718.45
501.517	7845.43
501.72	7730.74
501.923	7765.56
502.126	8005.17
502.329	8173.1
502.532	8230.45
502.735	8214.06
502.938	8351.28
503.141	8406.57
503.344	8484.39
503.547	8910.37
503.75	8674.85
503.953	8816.16
504.156	8863.27
504.359	8975.91
504.562	9131.55
504.765	9541.15
504.968	9451.03
505.17	9747.99
505.373	9784.85
505.576	10108.43
505.779	10051.09
505.982	10118.67
506.185	10401.29
506.387	10518.03
506.59	10755.59
506.793	10952.2
506.996	11116.03
507.198	11394.56
507.401	11533.82
507.604	11914.74
507.807	12135.92
508.009	12219.89
508.212	12783.08
508.415	12807.66
508.617	12815.85
508.82	13381.09
509.022	13225.44
509.225	13954.52
509.428	14261.71
509.63	14527.95
509.833	14511.57
510.035	15197.63
510.238	15211.97
510.44	15693.24
510.643	16129.46
510.845	16620.97
511.048	16434.61
511.25	17196.45
511.453	17005.99
511.655	18351.51
511.858	18353.55
512.06	18808.2
512.262	19262.85
512.465	19697.02
512.667	20073.85
512.87	20182.39
513.072	20700.53
513.274	21466.47
513.477	21808.48
513.679	22406.48
513.881	22789.45
514.084	23250.25
514.286	23692.61
514.488	24251.7
514.69	25212.2
514.893	25531.69
515.095	25576.74
515.297	26324.25
515.499	27016.46
515.701	27790.59
515.904	28552.44
516.106	28972.27
516.308	29340.91
516.51	30153.95
516.712	30655.7
516.914	31298.77
517.116	31986.88
517.318	32169.15
517.52	32844.98
517.722	33533.1
517.925	34118.82
518.127	34747.54
518.329	35722.38
518.531	35712.14
518.733	36738.17
518.935	37348.46
519.136	37387.38
519.338	38591.58
519.54	39023.7
519.742	39547.98
519.944	40428.61
520.146	41665.58
520.348	41364.53
520.55	41868.33
520.752	42664.99
520.954	43205.66
521.155	43349.01
521.357	44370.95
521.559	44807.17
521.761	45132.79
521.963	45745.14
522.164	46175.21
522.366	46193.64
522.568	46765.03
522.77	46935.01
522.971	48128.97
523.173	47817.68
523.375	48634.82
523.576	48675.78
523.778	48485.32
523.98	49370.04
524.181	49288.12
524.383	49515.45
524.584	50121.65
524.786	50031.54
524.988	49703.86
525.189	50512.81
525.391	50482.09
525.592	50711.46
525.794	50731.94
525.995	50062.25
526.197	50064.3
526.398	50881.44
526.6	50389.93
526.801	50119.6
527.003	50320.3
527.204	50293.68
527.406	50299.82
527.607	50310.06
527.808	49974.19
528.01	49032.13
528.211	49222.59
528.412	49357.75
528.614	48825.28
528.815	48417.74
529.016	48849.86
529.218	47373.27
529.419	47477.72
529.62	46685.15
529.822	46470.12
530.023	46197.74
530.224	46046.19
530.425	44923.9
530.626	44463.11
530.828	44160.01
531.029	44940.28
531.23	43426.84
531.431	43095.07
531.632	42855.45
531.833	42472.48
532.035	41808.94
532.236	41774.13
532.437	41010.23
532.638	40369.22
532.839	40199.24
533.04	39687.25
533.241	38587.49
533.442	39040.09
533.643	38276.19
533.844	37606.51
534.045	37022.84
534.246	36377.73
534.447	36248.71
534.648	35601.55
534.849	35136.66
535.05	34561.18
535.251	34079.91
535.451	33768.62
535.652	33422.51
535.853	32744.63
536.054	32971.96
536.255	31911.11
536.456	31397.07
536.657	31528.14
536.857	30655.7
537.058	30387.42
537.259	30141.66
537.46	29752.55
537.66	28972.27
537.861	28988.66
538.062	28075.26
538.263	28022.02
538.463	27804.93
538.664	27495.69
538.865	27000.08
539.065	26959.12
539.266	26402.07
539.466	26373.4
539.667	25642.28
539.868	25402.66
540.068	25367.85
540.269	24835.38
540.469	24757.55
540.67	24108.35
540.87	24016.19
541.071	23717.18
541.271	23819.58
541.472	23280.97
541.672	22959.44
541.873	22865.23
542.073	22240.6
542.274	22580.56
542.474	22003.03
542.675	21769.57
542.875	21611.87
543.075	21476.71
543.276	20667.76
543.476	21163.37
543.676	20452.72
543.877	20241.78
544.077	20245.88
544.277	20133.24
544.478	19789.18
544.678	19752.32
544.878	19238.28
545.078	18945.42
545.279	18564.5
545.479	18388.37
545.679	18320.79
545.879	18044.31
546.079	18034.07
546.28	17501.6
546.48	17360.29
546.68	17448.35
546.88	17223.08
547.08	16895.4
547.28	16692.65
547.48	16522.67
547.68	16573.87
547.88	15873.46
548.081	16082.36
548.281	15848.89
548.481	15703.48
548.681	15551.93
548.881	14968.26
549.081	15091.14
549.28	14554.57
549.48	14663.11
549.68	14439.89
549.88	14480.85
550.08	13716.95
550.28	14106.07
550.48	13690.33
550.68	13450.72
550.88	13170.15
551.08	13053.41
551.279	13125.09
551.479	12652.01
551.679	12742.12
551.879	12232.18
552.079	12436.97
552.278	12115.44
552.478	12090.87
552.678	11802.1
552.878	11601.4
553.077	11333.12
553.277	11142.66
553.477	11204.1
553.676	10909.19
553.876	10745.35
554.076	10333.71
554.275	10382.86
554.475	10018.32
554.674	9995.79
554.874	9934.36
555.074	9596.44
555.273	9647.64
555.473	9418.27
555.672	9086.5
555.872	9164.32
556.071	8889.89
556.271	8836.64
556.47	8658.47
556.67	8451.63
556.869	8230.45
557.068	8267.31
557.268	8015.41
557.467	7892.53
557.667	8005.17
557.866	7689.78
558.065	7675.45
558.265	7474.74
558.464	7321.15
558.663	7384.63
558.863	6917.7
559.062	6970.94
559.261	6731.33
559.461	7032.38
559.66	6651.46
559.859	6499.91
560.058	6510.15
560.258	6305.35
560.457	6286.92
560.656	6248.01
560.855	5824.08
561.054	6094.41
561.253	5701.2
561.453	5803.6
561.652	5666.39
561.851	5760.59
562.05	5410.39
562.249	5373.53
562.448	5346.91
562.647	5207.64
562.846	5215.84
563.045	5156.44
563.244	5011.04
563.443	5068.38
563.642	4744.8
563.841	4789.86
564.04	4712.03
564.239	4615.78
564.438	4515.43
564.637	4322.92
564.836	4427.37
565.035	4361.83
565.234	4226.67
565.432	4251.24
565.631	4210.28
565.83	4183.66
566.029	3999.34
566.228	3956.33
566.427	4023.92
566.625	3819.12
566.824	3714.67
567.023	3724.91
567.222	3569.27
567.42	3692.15
567.619	3614.32
567.818	3513.97
568.016	3591.8
568.215	3505.78
568.414	3485.3
568.612	3372.66
568.811	3255.93
569.01	3204.73
569.208	3235.45
569.407	3165.82
569.605	3126.91
569.804	3169.91
570.002	3131
570.201	2811.52
570.4	2862.72
570.598	3001.98
570.797	2866.81
570.995	2844.29
571.193	2737.79
571.392	2743.94
571.59	2627.2
571.789	2635.39
571.987	2561.67
572.186	2698.88
572.384	2502.28
572.582	2586.24
572.781	2561.67
572.979	2412.17
573.177	2334.34
573.376	2367.11
573.574	2369.16
573.772	2279.05
573.971	2137.74
574.169	2121.35
574.367	2158.22
574.565	2229.9
574.763	2125.45
574.962	2090.63
575.16	1922.7
575.358	1988.24
575.556	1982.09
575.754	1887.89
575.952	1834.64
576.151	1918.61
576.349	1930.89
576.547	1678.99
576.745	1881.74
576.943	1853.07
577.141	1693.33
577.339	1638.03
577.537	1699.47
577.735	1697.42
577.933	1650.32
578.131	1603.22
578.329	1642.13
578.527	1562.26
578.725	1572.5
578.923	1369.75
579.121	1627.79
579.319	1478.29
579.516	1404.57
579.714	1556.11
579.912	1423
580.11	1281.69
580.308	1246.87
580.506	1371.8
580.704	1162.9
580.901	1281.69
581.099	1406.61
581.297	1291.93
581.495	1261.21
581.692	1160.86
581.89	1336.98
582.088	1214.1
582.285	1226.39
582.483	1058.46
582.681	1140.38
582.878	1107.61
583.076	1074.84
583.274	1103.51
583.471	1199.77
583.669	1109.66
583.866	949.92
584.064	1054.36
584.262	992.92
584.459	900.76
584.657	956.06
584.854	1066.65
585.052	931.48
585.249	1001.12
585.447	943.77
585.644	839.33
585.841	933.53
586.039	931.48
586.236	913.05
586.434	882.33
586.631	837.28
586.828	806.56
587.026	849.57
587.223	712.35
587.42	777.89
587.618	857.76
587.815	827.04
588.012	900.76
588.21	784.03
588.407	741.02
588.604	849.57
588.801	677.54
588.999	775.84
589.196	794.27
589.393	646.82
589.59	671.39
589.787	763.55
589.984	800.41
590.182	722.59
590.379	618.15
590.576	667.3
590.773	630.43
590.97	675.49
591.167	618.15
591.364	710.3
591.561	620.19
591.758	788.13
591.955	687.78
592.152	630.43
592.349	587.43
592.546	566.95
592.743	616.1
592.94	642.72
593.137	624.29
593.334	802.46
593.531	650.91
593.727	683.68
593.924	675.49
594.121	603.81
594.318	679.58
594.515	765.6
594.712	724.64
594.908	767.65
595.105	601.76
595.302	788.13
595.499	683.68
595.696	845.47
595.892	605.86
596.089	769.69
596.286	720.54
596.482	886.43
596.679	816.8
596.876	751.26
597.072	923.29
597.269	870.05
597.466	892.57
597.662	845.47
597.859	874.14
598.055	927.39
598.252	970.4
598.448	1011.36
598.645	1095.32
598.841	1113.75
599.038	1185.43
599.234	1285.78
599.431	1244.82
599.627	1228.44
599.824	1257.11
600.02	1269.4
600.217	1269.4
600.413	1398.42
600.609	1441.43
600.806	1699.47
601.002	1646.23
601.198	1592.98
601.395	1777.3
601.591	1789.58
601.787	1853.07
601.984	1994.38
602.18	2047.63
602.376	2021
602.572	2156.17
602.769	2246.28
602.965	2176.65
603.161	2369.16
603.357	2506.37
603.553	2647.68
603.75	2576
603.946	2719.36
604.142	2774.66
604.338	2944.64
604.534	2883.2
604.73	3151.48
604.926	3057.28
605.122	3346.04
605.318	3233.4
605.514	3481.21
605.71	3411.57
605.906	3716.72
606.102	3681.91
606.298	3884.66
606.494	3896.94
606.69	4150.89
606.886	4236.91
607.082	4294.25
607.278	4513.38
607.474	4609.64
607.67	4886.11
607.866	4677.22
608.062	5002.85
608.257	5148.25
608.453	4961.89
608.649	5498.45
608.845	5553.75
609.041	5719.64
609.236	5815.89
609.432	6006.35
609.628	6188.62
609.824	6372.94
610.019	6442.57
610.215	6581.83
610.411	7026.24
610.606	6970.94
610.802	7171.65
610.998	7312.96
611.193	7542.33
611.389	7603.77
611.584	8023.6
611.78	7929.39
611.976	8400.43
612.171	8605.22
612.367	8681
612.562	8910.37
612.758	9072.16
612.953	9279.01
613.149	9672.22
613.344	9960.98
613.539	10298.89
613.735	10524.17
613.93	10886.66
614.126	10894.85
614.321	11265.53
614.517	11484.67
614.712	11836.92
614.907	12082.67
615.103	12613.1
615.298	12615.15
615.493	13047.27
615.688	13303.26
615.884	14079.44
616.079	13925.85
616.274	14509.52
616.47	14671.31
616.665	14955.97
616.86	15384
617.055	15941.05
617.25	16135.6
617.445	16747.95
617.641	16618.93
617.836	17483.17
618.031	17640.86
618.226	18202
618.421	18863.5
618.616	19395.97
618.811	19420.55
619.006	20188.53
619.201	20419.96
619.396	20782.45
619.591	21245.29
619.786	21773.66
619.981	22035.8
620.176	22713.68
620.371	22934.86
620.566	23455.04
620.761	23944.51
620.956	24550.71
621.151	24925.49
621.346	25316.65
621.541	25494.82
621.735	26531.09
621.93	26733.84
622.125	27374.86
622.32	27503.88
622.515	28386.55
622.709	28894.45
622.904	29553.9
623.099	29803.75
623.294	30506.2
623.488	30553.3
623.683	31712.45
623.878	31521.99
624.072	32523.45
624.267	33078.45
624.462	33234.1
624.656	33561.77
624.851	34626.71
625.046	34929.81
625.24	35318.93
625.435	35996.81
625.629	36537.47
625.824	36476.03
626.018	37430.38
626.213	36779.13
626.407	38100.07
626.602	37803.11
626.796	39048.28
626.991	39150.68
627.185	39582.8
627.38	39677.01
627.574	39517.26
627.768	39840.84
627.963	40090.69
628.157	39914.57
628.352	40793.15
628.546	40057.93
628.74	40498.24
628.935	40379.46
629.129	40645.69
629.323	39914.57
629.517	40236.1
629.712	39640.14
629.906	39894.09
630.1	39416.91
630.294	39081.05
630.489	38345.83
630.683	37985.38
630.877	37147.76
631.071	36672.64
631.265	36365.44
631.459	35314.83
631.653	34426.01
631.848	34264.22
632.042	32906.42
632.236	32791.73
632.43	31313.1
632.624	31118.54
632.818	29582.57
633.012	29289.71
633.206	28171.52
633.4	27262.22
633.594	25928.99
633.788	25625.89
633.982	25029.93
634.176	23788.86
634.369	22805.84
634.563	22127.96
634.757	20987.24
634.951	20147.58
635.145	19746.17
635.339	19023.24
635.533	18132.37
635.726	17575.33
635.92	16537.01
636.114	15994.29
636.308	15345.09
636.501	14869.96
636.695	14173.65
636.889	13356.51
637.083	13080.04
637.276	12451.31
637.47	11980.28
637.664	11281.92
637.857	10917.38
638.051	10589.71
638.244	10247.69
638.438	9735.7
638.632	9420.31
638.825	8898.08
639.019	8699.43
639.212	8128.05
639.406	7984.69
639.599	7378.49
639.793	7272
639.986	6989.38
640.18	6964.8
640.373	6411.85
640.567	6116.94
640.76	5998.16
640.954	5801.55
641.147	5502.55
641.34	5248.6
641.534	5119.58
641.727	5084.77
641.92	4802.15
642.114	4748.9
642.307	4464.23
642.5	4324.97
642.694	4038.25
642.887	3950.19
643.08	3808.88
643.273	3772.02
643.467	3487.35
643.66	3319.42
643.853	3274.36
644.046	3196.54
644.239	3108.48
644.432	2827.9
644.626	2606.72
644.819	2563.72
645.012	2600.58
645.205	2551.43
645.398	2465.41
645.591	2317.96
645.784	2031.24
645.977	2066.06
646.17	2059.92
646.363	1990.28
646.556	1799.82
646.749	1799.82
646.942	1851.02
647.135	1898.13
647.328	1609.36
647.521	1715.86
647.714	1470.1
647.907	1449.62
648.099	1484.44
648.292	1496.72
648.485	1250.97
648.678	1224.34
648.871	1189.53
649.064	1175.19
649.256	1109.66
649.449	1060.51
649.642	1033.88
649.835	915.1
650.027	988.83
650.22	1060.51
650.413	913.05
650.605	902.81
650.798	814.75
650.991	827.04
651.183	802.46
651.376	837.28
651.568	704.16
651.761	712.35
651.954	747.17
652.146	605.86
652.339	695.97
652.531	693.92
652.724	517.79
652.916	620.19
653.109	433.83
653.301	583.33
653.494	663.2
653.686	507.55
653.879	642.72
654.071	558.75
654.263	429.73
654.456	523.94
654.648	544.42
654.84	478.88
655.033	423.59
655.225	444.07
655.417	327.33
655.61	556.71
655.802	532.13
655.994	544.42
656.186	362.15
656.379	384.68
656.571	329.38
656.763	306.85
656.955	302.76
657.148	319.14
657.34	403.11
657.532	272.04
657.724	403.11
657.916	356.01
658.108	403.11
658.3	378.53
658.492	345.77
658.684	251.56
658.876	317.09
659.068	85.67
659.26	212.65
659.452	276.13
659.644	214.7
659.836	413.35
660.028	222.89
660.22	259.75
660.412	220.84
660.604	239.27
660.796	255.65
660.988	386.72
661.18	261.8
661.372	274.09
661.563	263.85
661.755	239.27
661.947	163.5
662.139	220.84
662.331	233.13
662.522	194.22
662.714	173.74
662.906	153.26
663.097	218.79
663.289	95.91
663.481	108.2
663.673	229.03
663.864	175.78
664.056	202.41
664.247	155.3
664.439	280.23
664.631	136.87
664.822	265.89
665.014	198.31
665.205	188.07
665.397	210.6
665.588	226.98
665.78	222.89
665.971	306.85
666.163	200.36
666.354	226.98
666.546	61.1
666.737	188.07
666.929	194.22
667.12	198.31
667.311	272.04
667.503	155.3
667.694	226.98
667.885	198.31
668.077	237.22
668.268	65.19
668.459	149.16
668.651	229.03
668.842	231.08
669.033	106.15
669.224	118.44
669.416	280.23
669.607	130.73
669.798	157.35
669.989	245.41
670.18	161.45
670.371	208.55
670.563	151.21
670.754	265.89
670.945	243.37
671.136	247.46
671.327	186.02
671.518	233.13
671.709	272.04
671.9	263.85
672.091	286.37
672.282	233.13
672.473	192.17
672.664	140.97
672.855	253.61
673.046	249.51
673.237	304.81
673.428	233.13
673.619	286.37
673.809	202.41
674	300.71
674.191	272.04
674.382	196.26
674.573	233.13
674.764	235.18
674.954	257.7
675.145	149.16
675.336	196.26
675.527	218.79
675.717	204.46
675.908	173.74
676.099	202.41
676.289	278.18
676.48	145.06
676.671	269.99
676.861	188.07
677.052	198.31
677.243	278.18
677.433	235.18
677.624	294.57
677.814	261.8
678.005	165.54
678.195	263.85
678.386	229.03
678.576	255.65
678.767	165.54
678.957	288.42
679.148	323.24
679.338	403.11
679.529	317.09
679.719	267.94
679.909	331.43
680.1	315.05
680.29	306.85
680.481	147.11
680.671	308.9
680.861	253.61
681.052	321.19
681.242	206.5
681.432	306.85
681.622	247.46
681.813	276.13
682.003	294.57
682.193	257.7
682.383	343.72
682.573	294.57
682.764	249.51
682.954	310.95
683.144	356.01
683.334	313
683.524	315.05
683.714	331.43
683.904	339.62
684.094	333.48
684.284	374.44
684.474	343.72
684.664	380.58
684.854	343.72
685.044	306.85
685.234	450.21
685.424	396.96
685.614	222.89
685.804	482.98
685.994	378.53
686.184	399.01
686.374	341.67
686.564	356.01
686.753	356.01
686.943	237.22
687.133	267.94
687.323	388.77
687.513	353.96
687.702	382.63
687.892	374.44
688.082	480.93
688.272	401.06
688.461	386.72
688.651	462.5
688.841	407.2
689.03	394.92
689.22	349.86
689.41	335.53
689.599	388.77
689.789	274.09
689.979	417.44
690.168	333.48
690.358	343.72
690.547	349.86
690.737	327.33
690.926	302.76
691.116	319.14
691.305	409.25
691.495	366.25
691.684	278.18
691.874	274.09
692.063	310.95
692.252	323.24
692.442	429.73
692.631	335.53
692.82	351.91
693.01	308.9
693.199	302.76
693.388	313
693.578	313
693.767	405.16
693.956	374.44
694.146	333.48
694.335	374.44
694.524	253.61
694.713	386.72
694.902	267.94
695.092	267.94
695.281	362.15
695.47	292.52
695.659	388.77
695.848	259.75
696.037	259.75
696.226	300.71
696.415	282.28
696.604	310.95
696.793	382.63
696.982	300.71
697.171	433.83
697.36	257.7
697.549	319.14
697.738	220.84
697.927	229.03
698.116	229.03
698.305	278.18
698.494	304.81
698.683	272.04
698.872	519.84
699.061	378.53
699.25	349.86
699.438	349.86
699.627	333.48
699.816	368.29
700.005	196.26
700.193	255.65
700.382	394.92
700.571	458.4
700.76	343.72
700.948	360.1
701.137	339.62
701.326	323.24
701.514	356.01
701.703	276.13
701.892	347.81
702.08	470.69
702.269	313
702.457	202.41
702.646	392.87
702.834	315.05
703.023	343.72
703.212	372.39
703.4	237.22
703.589	308.9
703.777	296.61
703.965	259.75
704.154	292.52
704.342	251.56
704.531	249.51
704.719	310.95
704.907	349.86
705.096	253.61
705.284	208.55
705.472	300.71
705.661	284.33
705.849	290.47
706.037	382.63
706.226	409.25
706.414	335.53
706.602	210.6
706.79	304.81
706.979	200.36
707.167	349.86
707.355	229.03
707.543	265.89
707.731	265.89
707.919	304.81
708.107	278.18
708.296	177.83
708.484	317.09
708.672	315.05
708.86	317.09
709.048	392.87
709.236	255.65
709.424	329.38
709.612	315.05
709.8	247.46
709.988	349.86
710.176	341.67
710.364	329.38
710.551	306.85
710.739	276.13
710.927	229.03
711.115	300.71
711.303	347.81
711.491	358.05
711.679	235.18
711.866	460.45
712.054	319.14
712.242	288.42
712.43	284.33
712.617	337.57
712.805	323.24
712.993	327.33
713.181	229.03
713.368	317.09
713.556	382.63
713.744	358.05
713.931	468.64
714.119	411.3
714.306	337.57
714.494	280.23
714.682	247.46
714.869	257.7
715.057	278.18
715.244	194.22
715.432	300.71
715.619	272.04
715.807	280.23
715.994	288.42
716.182	284.33
716.369	368.29
716.556	425.64
716.744	276.13
716.931	224.94
717.119	362.15
717.306	362.15
717.493	351.91
717.681	276.13
717.868	358.05
718.055	333.48
718.242	376.48
718.43	372.39
718.617	462.5
718.804	292.52
718.991	497.32
719.179	378.53
719.366	413.35
719.553	409.25
719.74	331.43
719.927	351.91
720.114	337.57
720.301	319.14
720.488	327.33
720.676	382.63
720.863	409.25
721.05	513.7
721.237	298.66
721.424	435.88
721.611	362.15
721.798	310.95
721.985	255.65
722.172	364.2
722.358	370.34
722.545	409.25
722.732	401.06
722.919	470.69
723.106	411.3
723.293	388.77
723.48	401.06
723.667	366.25
723.853	489.12
724.04	435.88
724.227	448.16
724.414	411.3
724.6	448.16
724.787	493.22
724.974	511.65
725.161	415.4
725.347	386.72
725.534	421.54
725.72	390.82
725.907	446.12
726.094	472.74
726.28	366.25
726.467	329.38
726.653	364.2
726.84	458.4
727.027	566.95
727.213	366.25
727.4	439.97
727.586	366.25
727.773	353.96
727.959	421.54
728.145	396.96
728.332	409.25
728.518	425.64
728.705	482.98
728.891	374.44
729.077	464.55
729.264	362.15
729.45	384.68
729.636	509.6
729.823	378.53
730.009	454.31
730.195	450.21
730.382	427.68
730.568	399.01
730.754	478.88
730.94	360.1
731.126	362.15
731.313	411.3
731.499	396.96
731.685	446.12
731.871	423.59
732.057	413.35
732.243	487.08
732.429	491.17
732.615	544.42
732.801	523.94
732.987	493.22
733.173	372.39
733.359	442.02
733.545	419.49
733.731	427.68
733.917	525.99
734.103	507.55
734.289	515.75
734.475	415.4
734.661	614.05
734.847	532.13
735.033	409.25
735.219	523.94
735.404	429.73
735.59	388.77
735.776	495.27
735.962	503.46
736.148	491.17
736.333	585.38
736.519	485.03
736.705	429.73
736.89	401.06
737.076	478.88
737.262	339.62
737.447	403.11
737.633	401.06
737.819	478.88
738.004	460.45
738.19	515.75
738.375	458.4
738.561	562.85
738.747	521.89
738.932	323.24
739.118	587.43
739.303	476.84
739.489	511.65
739.674	380.58
739.859	489.12
740.045	478.88
740.23	472.74
740.416	349.86
740.601	491.17
740.786	368.29
740.972	446.12
741.157	364.2
741.342	341.67
741.528	394.92
741.713	493.22
741.898	396.96
742.084	507.55
742.269	411.3
742.454	409.25
742.639	532.13
742.824	407.2
743.01	513.7
743.195	525.99
743.38	468.64
743.565	433.83
743.75	503.46
743.935	577.19
744.12	573.09
744.305	345.77
744.49	401.06
744.675	439.97
744.86	429.73
745.045	499.36
745.23	431.78
745.415	476.84
745.6	577.19
745.785	396.96
745.97	571.04
746.155	419.49
746.34	480.93
746.525	448.16
746.71	546.47
746.895	315.05
747.079	351.91
747.264	388.77
747.449	413.35
747.634	505.51
747.819	382.63
748.003	427.68
748.188	347.81
748.373	499.36
748.557	415.4
748.742	407.2
748.927	333.48
749.111	380.58
749.296	462.5
749.481	366.25
749.665	427.68
749.85	294.57
750.034	419.49
750.219	401.06
750.404	382.63
750.588	343.72
750.773	345.77
750.957	388.77
751.141	335.53
751.326	439.97
751.51	370.34
751.695	335.53
751.879	304.81
752.064	429.73
752.248	394.92
752.432	474.79
752.617	403.11
752.801	407.2
752.985	329.38
753.17	460.45
753.354	374.44
753.538	341.67
753.722	323.24
753.907	276.13
754.091	276.13
754.275	433.83
754.459	329.38
754.643	265.89
754.828	304.81
755.012	388.77
755.196	292.52
755.38	335.53
755.564	235.18
755.748	253.61
755.932	288.42
756.116	294.57
756.3	409.25
756.484	208.55
756.668	300.71
756.852	161.45
757.036	325.29
757.22	308.9
757.404	183.98
757.588	267.94
757.772	302.76
757.956	292.52
758.14	329.38
758.323	206.5
758.507	370.34
758.691	239.27
758.875	257.7
759.059	405.16
759.242	229.03
759.426	259.75
759.61	243.37
759.794	198.31
759.977	300.71
760.161	462.5
760.345	380.58
760.528	351.91
760.712	183.98
760.895	329.38
761.079	241.32
761.263	93.87
761.446	128.68
761.63	220.84
761.813	341.67
761.997	222.89
762.18	208.55
762.364	341.67
762.547	114.34
762.731	259.75
762.914	175.78
763.098	239.27
763.281	263.85
763.464	155.3
763.648	274.09
763.831	165.54
764.015	128.68
764.198	278.18
764.381	116.39
764.564	198.31
764.748	282.28
764.931	302.76
765.114	173.74
765.297	253.61
765.481	91.82
765.664	216.74
765.847	204.46
766.03	261.8
766.213	194.22
766.397	235.18
766.58	114.34
766.763	325.29
766.946	188.07
767.129	171.69
767.312	87.72
767.495	237.22
767.678	157.35
767.861	161.45
768.044	249.51
768.227	186.02
768.41	216.74
768.593	226.98
768.776	161.45
768.959	140.97
769.142	249.51
769.324	218.79
769.507	196.26
769.69	126.63
769.873	93.87
770.056	327.33
770.239	233.13
770.421	261.8
770.604	229.03
770.787	138.92
770.97	177.83
771.152	100.01
771.335	233.13
771.518	130.73
771.7	251.56
771.883	286.37
772.066	159.4
772.248	130.73
772.431	173.74
772.613	226.98
772.796	149.16
772.978	222.89
773.161	274.09
773.343	87.72
773.526	108.2
773.708	124.58
773.891	81.58
774.073	95.91
774.256	46.76
774.438	204.46
774.621	134.82
774.803	253.61
774.985	102.06
775.168	138.92
775.35	112.3
775.532	198.31
775.715	102.06
775.897	161.45
776.079	67.24
776.261	145.06
776.444	149.16
776.626	75.43
776.808	118.44
776.99	63.15
777.173	130.73
777.355	89.77
777.537	108.2
777.719	126.63
777.901	59.05
778.083	36.52
778.265	54.95
778.447	192.17
778.629	54.95
778.811	63.15
778.993	179.88
779.175	192.17
779.357	93.87
779.539	-59.73
779.721	130.73
779.903	140.97
780.085	30.38
780.267	108.2
780.449	198.31
780.631	97.96
780.812	210.6
780.994	81.58
781.176	104.11
781.358	69.29
781.54	38.57
781.721	151.21
781.903	179.88
782.085	116.39
782.267	216.74
782.448	20.14
782.63	97.96
782.812	192.17
782.993	186.02
783.175	136.87
783.357	100.01
783.538	159.4
783.72	48.81
783.901	138.92
784.083	95.91
784.264	128.68
784.446	-4.44
784.627	57
784.809	188.07
784.99	50.86
785.172	153.26
785.353	77.48
785.535	87.72
785.716	61.1
785.897	83.63
786.079	104.11
786.26	81.58
786.441	112.3
786.623	-35.16
786.804	48.81
786.985	104.11
787.167	93.87
787.348	38.57
787.529	79.53
787.71	167.59
787.891	206.5
788.073	54.95
788.254	-84.31
788.435	269.99
788.616	57
788.797	13.99
788.978	79.53
789.159	3.75
789.34	91.82
789.522	30.38
789.703	54.95
789.884	42.67
790.065	110.25
790.246	110.25
790.427	5.8
790.607	169.64
790.788	91.82
790.969	-33.11
791.15	95.91
791.331	5.8
791.512	-20.82
791.693	-4.44
791.874	16.04
792.054	251.56
792.235	93.87
792.416	9.9
792.597	22.19
792.778	143.02
792.958	77.48
793.139	65.19
793.32	32.43
793.5	-31.06
793.681	132.78
793.862	81.58
794.042	65.19
794.223	-12.63
794.404	-31.06
794.584	-41.3
794.765	-2.39
794.945	153.26
795.126	102.06
795.306	126.63
795.487	93.87
795.667	26.28
795.848	85.67
796.028	112.3
796.209	87.72
796.389	122.54
796.57	44.71
796.75	24.23
796.93	24.23
797.111	-24.92
797.291	57
797.471	3.75
797.652	-10.58
797.832	89.77
798.012	136.87
798.192	59.05
798.373	-39.25
798.553	95.91
798.733	97.96
798.913	-16.73
799.093	75.43
799.274	79.53
799.454	93.87
799.634	77.48
799.814	169.64
799.994	81.58
800.174	57
800.354	40.62
800.534	-115.03
800.714	87.72
800.894	-41.3
801.074	3.75
801.254	-20.82
801.434	83.63
801.614	1.71
801.794	36.52
801.974	2000.52
802.154	-41.3
802.334	77.48
802.514	-94.55
802.693	30.38
802.873	11.95
803.053	114.34
803.233	42.67
803.413	-33.11
803.592	50.86
803.772	44.71
803.952	7.85
804.131	-57.68
804.311	46.76
804.491	120.49
804.67	-8.53
804.85	11.95
805.03	73.39
805.209	159.4
805.389	28.33
805.568	11.95
805.748	46.76
805.928	54.95
806.107	120.49
806.287	-12.63
806.466	-10.58
806.646	5.8
806.825	-10.58
807.004	65.19
807.184	44.71
807.363	100.01
807.543	24.23
807.722	7.85
807.901	89.77
808.081	75.43
808.26	-31.06
808.439	100.01
808.619	63.15
808.798	-0.34
808.977	-18.77
809.156	114.34
809.336	63.15
809.515	126.63
809.694	-10.58
809.873	7.85
810.052	69.29
810.231	93.87
810.411	69.29
810.59	104.11
810.769	-39.25
810.948	114.34
811.127	-104.79
811.306	32.43
811.485	-10.58
811.664	177.83
811.843	-31.06
812.022	-37.2
812.201	104.11
812.38	9.9
812.559	3.75
812.737	95.91
812.916	-92.5
813.095	-26.96
813.274	-0.34
813.453	67.24
813.632	63.15
813.811	104.11
813.989	-4.44
814.168	18.09
814.347	-49.49
814.526	-37.2
814.704	87.72
814.883	153.26
815.062	-63.83
815.24	32.43
815.419	-74.07
815.598	36.52
815.776	-86.36
815.955	42.67
816.133	-100.69
816.312	13.99
816.49	-24.92
816.669	-2.39
816.847	-119.12
817.026	54.95
817.204	-29.01
817.383	-10.58
817.561	-41.3
817.74	7.85
817.918	83.63
818.097	-0.34
818.275	-31.06
818.453	77.48
818.632	59.05
818.81	5.8
818.988	13.99
819.167	34.47
819.345	36.52
819.523	-59.73
819.701	-43.35
819.879	42.67
820.058	-10.58
820.236	28.33
820.414	65.19
820.592	-22.87
820.77	40.62
820.948	-41.3
821.127	7.85
821.305	65.19
821.483	-8.53
821.661	75.43
821.839	-24.92
822.017	-8.53
822.195	-6.49
822.373	122.54
822.551	36.52
822.729	128.68
822.907	32.43
823.085	16.04
823.262	-14.68
823.44	-20.82
823.618	-20.82
823.796	57
823.974	11.95
824.152	-33.11
824.329	18.09
824.507	65.19
824.685	73.39
824.863	95.91
825.04	100.01
825.218	91.82
825.396	32.43
825.574	1.71
825.751	54.95
825.929	81.58
826.107	-37.2
826.284	50.86
826.462	36.52
826.639	-24.92
826.817	13.99
826.994	9.9
827.172	-82.26
827.349	79.53
827.527	-18.77
827.704	22.19
827.882	69.29
828.059	11.95
828.237	-2.39
828.414	75.43
828.591	7.85
828.769	73.39
828.946	-20.82
829.124	67.24
829.301	102.06
829.478	36.52
829.655	7.85
829.833	-22.87
830.01	-145.75
830.187	79.53
830.364	-18.77
830.542	83.63
830.719	71.34
830.896	128.68
831.073	91.82
831.25	85.67
831.427	54.95
831.604	52.91
831.782	-78.16
831.959	67.24
832.136	48.81
832.313	34.47
832.49	-31.06
832.667	91.82
832.844	40.62
833.021	59.05
833.198	7.85
833.374	71.34
833.551	38.57
833.728	-41.3
833.905	38.57
834.082	-78.16
834.259	36.52
834.436	118.44
834.612	22.19
834.789	95.91
834.966	73.39
835.143	32.43
835.319	-84.31
835.496	20.14
835.673	104.11
835.85	71.34
836.026	24.23
836.203	59.05
836.38	-20.82
836.556	-45.4
836.733	32.43
836.909	95.91
837.086	16.04
837.262	-45.4
837.439	22.19
837.616	-72.02
837.792	30.38
837.968	1.71
838.145	-92.5
838.321	38.57
838.498	67.24
838.674	63.15
838.851	3.75
839.027	-43.35
839.203	-8.53
839.38	57
839.556	-29.01
839.732	97.96
839.909	-4.44
840.085	50.86
840.261	-47.44
840.437	-29.01
840.614	11.95
840.79	134.82
840.966	73.39
841.142	5.8
841.318	-31.06
841.494	36.52
841.671	122.54
841.847	-74.07
842.023	-65.88
842.199	61.1
842.375	79.53
842.551	-90.45
842.727	-69.97
842.903	100.01
843.079	-108.88
843.255	95.91
843.431	67.24
843.607	114.34
843.783	-104.79
843.959	16.04
844.134	-94.55
844.31	138.92
844.486	-57.68
844.662	-102.74
844.838	-6.49
845.013	40.62
845.189	16.04
845.365	-16.73
845.541	34.47
845.716	13.99
845.892	40.62
846.068	-35.16
846.244	-67.92
846.419	40.62
846.595	-2.39
846.77	-57.68
846.946	134.82
847.122	-10.58
847.297	-12.63
847.473	161.45
847.648	-119.12
847.824	42.67
847.999	-149.84
848.175	-20.82
848.35	-18.77
848.526	134.82
848.701	89.77
848.876	50.86
849.052	104.11
849.227	50.86
849.403	-0.34
849.578	32.43
849.753	7.85
849.929	32.43
850.104	-33.11
850.279	-2.39
850.454	69.29
850.63	71.34
850.805	42.67
850.98	67.24
851.155	28.33
851.33	44.71
851.505	-74.07
851.681	122.54
851.856	24.23
852.031	87.72
852.206	-57.68
852.381	-18.77
852.556	-2.39
852.731	22.19
852.906	140.97
853.081	77.48
853.256	181.93
853.431	85.67
853.606	-53.59
853.781	-67.92
853.956	-106.84
854.131	79.53
854.305	13.99
854.48	-26.96
854.655	-53.59
854.83	-24.92
855.005	-8.53
855.18	44.71
855.354	22.19
855.529	20.14
855.704	-33.11
855.879	54.95
856.053	-47.44
856.228	145.06
856.403	-74.07
856.577	75.43
856.752	-139.6
856.926	9.9
857.101	57
857.276	-84.31
857.45	-22.87
857.625	-31.06
857.799	-47.44
857.974	63.15
858.148	-41.3
858.323	95.91
858.497	-37.2
858.672	-12.63
858.846	32.43
859.02	102.06
859.195	-90.45
859.369	-18.77
859.543	36.52
859.718	5.8
859.892	24.23
860.066	-10.58
860.241	18.09
860.415	-86.36
860.589	-8.53
860.763	20.14
860.938	20.14
861.112	20.14
861.286	7.85
861.46	32.43
861.634	20.14
861.808	89.77
861.982	-26.96
862.157	-74.07
862.331	-18.77
862.505	-110.93
862.679	-22.87
862.853	-96.6
863.027	-4.44
863.201	112.3
863.375	-41.3
863.549	81.58
863.722	75.43
863.896	71.34
864.07	-49.49
864.244	20.14
864.418	102.06
864.592	46.76
864.766	59.05
864.939	54.95
865.113	-78.16
865.287	16.04
865.461	-31.06
865.634	5.8
865.808	83.63
865.982	-49.49
866.156	-12.63
866.329	-108.88
866.503	48.81
866.676	93.87
866.85	11.95
867.024	-72.02
867.197	44.71
867.371	18.09
867.544	77.48
867.718	-96.6
867.891	93.87
868.065	-149.84
868.238	3.75
868.412	73.39
868.585	48.81
868.759	-20.82
868.932	-24.92
869.105	-63.83
869.279	-43.35
869.452	-131.41
869.625	40.62
869.799	-74.07
869.972	-115.03
870.145	-18.77
870.319	57
870.492	67.24
870.665	26.28
870.838	-106.84
871.011	-184.66
871.185	42.67
871.358	-37.2
871.531	16.04
871.704	-4.44
871.877	16.04
872.05	11.95
872.223	-86.36
872.396	67.24
872.569	38.57
872.742	-96.6
872.915	71.34
873.088	-94.55
873.261	-14.68
873.434	59.05
873.607	32.43
873.78	118.44
873.953	-82.26
874.126	44.71
874.299	54.95
874.471	30.38
874.644	-96.6
874.817	34.47
874.99	165.54
875.163	-24.92
875.335	3.75
875.508	34.47
875.681	120.49
875.853	-59.73
876.026	69.29
876.199	13.99
876.371	77.48
876.544	-39.25
876.717	-57.68
876.889	-12.63
877.062	36.52
877.234	-65.88
877.407	-76.12
877.579	7.85
877.752	1.71
877.924	42.67
878.097	79.53
878.269	-6.49
878.442	36.52
878.614	130.73
878.786	61.1
878.959	7.85
879.131	89.77
879.303	-76.12
879.476	-88.4
879.648	106.15
879.82	1.71
879.993	-12.63
880.165	-69.97
880.337	-74.07
880.509	-0.34
880.681	-65.88
880.854	-45.4
881.026	120.49
881.198	202.41
881.37	-37.2
881.542	-29.01
881.714	-12.63
881.886	-39.25
882.058	9.9
882.23	-26.96
882.402	-31.06
882.574	-24.92
882.746	155.3
882.918	114.34
883.09	26.28
883.262	-53.59
883.434	42.67
883.606	-131.41
883.778	16.04
883.95	188.07
884.122	16.04
884.293	36.52
884.465	-92.5
884.637	81.58
884.809	-63.83
884.98	24.23
885.152	22.19
885.324	73.39
885.496	-78.16
885.667	-74.07
885.839	-16.73
886.011	87.72
886.182	20.14
886.354	24.23
886.525	32.43
886.697	-0.34
886.869	-65.88
887.04	-86.36
887.212	149.16
887.383	134.82
887.555	3.75
887.726	16.04
887.897	-18.77
888.069	40.62
888.24	67.24
888.412	54.95
888.583	-22.87
888.754	24.23
888.926	-33.11
889.097	-55.64
889.268	-45.4
889.44	67.24
889.611	-78.16
889.782	-47.44
889.953	-47.44
890.125	110.25
890.296	-80.21
890.467	38.57
890.638	-74.07
890.809	-0.34
890.98	-127.32
891.151	120.49
891.323	104.11
891.494	46.76
891.665	-4.44
891.836	40.62
892.007	-41.3
892.178	26.28
892.349	38.57
892.52	-29.01
892.691	30.38
892.862	-45.4
893.032	-80.21
893.203	54.95
893.374	124.58
893.545	71.34
893.716	-31.06
893.887	83.63
894.057	-100.69
894.228	-18.77
894.399	36.52
894.57	57
894.74	7.85
894.911	16.04
895.082	7.85
895.253	-49.49
895.423	-8.53
895.594	11.95
895.764	-20.82
895.935	9.9
896.106	18.09
896.276	-16.73
896.447	28.33
896.617	-20.82
896.788	-41.3
896.958	-10.58
897.129	7.85
897.299	1.71
897.47	136.87
897.64	89.77
897.81	-29.01
897.981	22.19
898.151	-39.25
898.322	-2.39
898.492	24.23
898.662	-37.2
898.832	-35.16
899.003	-55.64
899.173	95.91
899.343	-94.55
899.513	-112.98
