Data from USB4F104151__9__11-24-20-708.txt Node

Date: Wed Feb 26 11:24:20 EST 2025
User: louis
Spectrometer: USB4F10415
Trigger mode: 4
Integration Time (sec): 1.000000E-1
Scans to average: 1
Electric dark correction enabled: true
Nonlinearity correction enabled: false
Boxcar width: 0
XAxis mode: Wavelengths
Number of Pixels in Spectrum: 3648
>>>>>Begin Spectral Data<<<<<
178.204	-371.88
178.424	-371.88
178.644	-371.88
178.864	-416.93
179.084	-445.6
179.304	-52.39
179.524	-31.91
179.744	17.24
179.964	54.1
180.184	13.14
180.404	64.34
180.624	-68.78
180.844	2.9
181.064	-72.87
181.283	66.39
181.503	-60.59
181.723	68.44
181.943	-99.5
182.163	219.99
182.383	-36.01
182.602	41.81
182.822	101.2
183.042	15.19
183.262	-44.2
183.482	47.96
183.701	9.05
183.921	78.68
184.141	-122.02
184.361	78.68
184.58	37.72
184.8	-5.29
185.02	-79.02
185.239	101.2
185.459	66.39
185.679	103.25
185.898	-93.35
186.118	-7.34
186.338	60.24
186.557	101.2
186.777	-74.92
186.997	-25.77
187.216	15.19
187.436	154.45
187.655	148.31
187.875	72.53
188.095	-27.82
188.314	129.88
188.534	56.15
188.753	25.43
188.973	127.83
189.192	142.16
189.412	33.62
189.631	2.9
189.851	41.81
190.07	133.97
190.29	-111.78
190.509	-1.19
190.729	76.63
190.948	113.49
191.168	275.28
191.387	41.81
191.607	-23.72
191.826	54.1
192.045	-25.77
192.265	-15.53
192.484	-3.24
192.704	31.57
192.923	-68.78
193.142	215.89
193.362	121.68
193.581	101.2
193.8	70.48
194.02	84.82
194.239	29.52
194.458	45.91
194.678	-40.11
194.897	-3.24
195.116	15.19
195.335	27.48
195.555	-91.31
195.774	-42.15
195.993	93.01
196.212	-38.06
196.432	-89.26
196.651	11.09
196.87	35.67
197.089	250.71
197.308	62.29
197.528	62.29
197.747	-60.59
197.966	93.01
198.185	133.97
198.404	-50.35
198.623	78.68
198.842	52.05
199.062	78.68
199.281	58.2
199.5	-19.63
199.719	56.15
199.938	35.67
200.157	84.82
200.376	152.4
200.595	103.25
200.814	90.96
201.033	13.14
201.252	99.16
201.471	23.38
201.69	29.52
201.909	64.34
202.128	62.29
202.347	131.92
202.566	-3.24
202.785	9.05
203.004	-48.3
203.223	174.93
203.442	80.72
203.661	-48.3
203.879	64.34
204.098	99.16
204.317	-115.88
204.536	4.95
204.755	54.1
204.974	115.54
205.193	-46.25
205.411	156.5
205.63	99.16
205.849	90.96
206.068	21.33
206.287	-70.83
206.505	50
206.724	-46.25
206.943	19.29
207.162	25.43
207.381	7
207.599	2.9
207.818	-48.3
208.037	-79.02
208.255	-29.87
208.474	50
208.693	56.15
208.911	-42.15
209.13	47.96
209.349	45.91
209.567	58.2
209.786	33.62
210.005	84.82
210.223	37.72
210.442	-62.63
210.661	23.38
210.879	76.63
211.098	-19.63
211.316	-1.19
211.535	21.33
211.753	74.58
211.972	21.33
212.191	-81.07
212.409	62.29
212.628	25.43
212.846	-72.87
213.065	7
213.283	97.11
213.502	-7.34
213.72	-50.35
213.938	-33.96
214.157	-1.19
214.375	41.81
214.594	-23.72
214.812	43.86
215.031	-42.15
215.249	41.81
215.467	99.16
215.686	2.9
215.904	17.24
216.122	19.29
216.341	136.02
216.559	58.2
216.778	99.16
216.996	60.24
217.214	4.95
217.432	47.96
217.651	-97.45
217.869	25.43
218.087	-9.39
218.306	-60.59
218.524	111.44
218.742	19.29
218.96	84.82
219.179	15.19
219.397	15.19
219.615	207.7
219.833	68.44
220.051	15.19
220.27	107.35
220.488	58.2
220.706	27.48
220.924	-54.44
221.142	11.09
221.36	74.58
221.578	29.52
221.796	-1.19
222.015	29.52
222.233	84.82
222.451	107.35
222.669	-36.01
222.887	113.49
223.105	27.48
223.323	-17.58
223.541	-54.44
223.759	23.38
223.977	33.62
224.195	179.03
224.413	78.68
224.631	76.63
224.849	19.29
225.067	170.83
225.285	-25.77
225.503	-87.21
225.721	-95.4
225.939	19.29
226.157	-21.67
226.375	144.21
226.592	25.43
226.81	-25.77
227.028	109.4
227.246	119.64
227.464	60.24
227.682	115.54
227.9	64.34
228.117	72.53
228.335	88.92
228.553	33.62
228.771	-7.34
228.989	-52.39
229.206	70.48
229.424	17.24
229.642	-3.24
229.86	-105.64
230.077	144.21
230.295	13.14
230.513	39.76
230.731	-36.01
230.948	158.55
231.166	103.25
231.384	-23.72
231.601	-83.11
231.819	191.31
232.037	-42.15
232.254	-42.15
232.472	-9.39
232.689	-50.35
232.907	131.92
233.125	-25.77
233.342	43.86
233.56	-48.3
233.777	-1.19
233.995	47.96
234.213	43.86
234.43	47.96
234.648	-72.87
234.865	-44.2
235.083	60.24
235.3	-23.72
235.518	136.02
235.735	41.81
235.953	27.48
236.17	66.39
236.388	39.76
236.605	-33.96
236.822	62.29
237.04	64.34
237.257	4.95
237.475	-95.4
237.692	23.38
237.909	68.44
238.127	-7.34
238.344	15.19
238.562	19.29
238.779	-9.39
238.996	-17.58
239.214	52.05
239.431	-5.29
239.648	-7.34
239.865	-11.43
240.083	144.21
240.3	-72.87
240.517	-33.96
240.735	17.24
240.952	58.2
241.169	76.63
241.386	56.15
241.603	41.81
241.821	-99.5
242.038	27.48
242.255	11.09
242.472	-52.39
242.689	74.58
242.907	52.05
243.124	109.4
243.341	64.34
243.558	2.9
243.775	7
243.992	-56.49
244.209	154.45
244.426	93.01
244.643	19.29
244.86	9.05
245.078	23.38
245.295	50
245.512	60.24
245.729	4.95
245.946	31.57
246.163	-19.63
246.38	-27.82
246.597	17.24
246.814	56.15
247.031	27.48
247.248	-54.44
247.464	70.48
247.681	-7.34
247.898	74.58
248.115	31.57
248.332	-62.63
248.549	154.45
248.766	121.68
248.983	25.43
249.2	52.05
249.417	144.21
249.633	41.81
249.85	19.29
250.067	54.1
250.284	54.1
250.501	138.07
250.717	64.34
250.934	-44.2
251.151	27.48
251.368	11.09
251.585	64.34
251.801	33.62
252.018	-58.54
252.235	-5.29
252.451	-38.06
252.668	0.85
252.885	103.25
253.102	21.33
253.318	-36.01
253.535	2.9
253.752	-11.43
253.968	-19.63
254.185	-52.39
254.401	119.64
254.618	76.63
254.835	-97.45
255.051	123.73
255.268	25.43
255.484	82.77
255.701	-15.53
255.917	-1.19
256.134	-21.67
256.351	23.38
256.567	-70.83
256.784	27.48
257	-97.45
257.217	103.25
257.433	133.97
257.65	23.38
257.866	84.82
258.082	-95.4
258.299	-23.72
258.515	31.57
258.732	21.33
258.948	-21.67
259.165	-5.29
259.381	-68.78
259.597	66.39
259.814	-42.15
260.03	17.24
260.246	21.33
260.463	35.67
260.679	68.44
260.895	-15.53
261.112	88.92
261.328	-40.11
261.544	-68.78
261.761	70.48
261.977	2.9
262.193	-46.25
262.409	37.72
262.626	-7.34
262.842	78.68
263.058	29.52
263.274	123.73
263.49	31.57
263.707	97.11
263.923	68.44
264.139	-142.5
264.355	-62.63
264.571	99.16
264.787	45.91
265.004	166.74
265.22	2.9
265.436	-81.07
265.652	-46.25
265.868	37.72
266.084	-50.35
266.3	0.85
266.516	-42.15
266.732	62.29
266.948	-50.35
267.164	-42.15
267.38	93.01
267.596	29.52
267.812	168.79
268.028	-56.49
268.244	19.29
268.46	-5.29
268.676	-1.19
268.892	-31.91
269.108	-50.35
269.324	-17.58
269.54	-7.34
269.756	50
269.972	-160.94
270.188	13.14
270.403	-81.07
270.619	37.72
270.835	0.85
271.051	68.44
271.267	4.95
271.483	-52.39
271.698	88.92
271.914	95.06
272.13	45.91
272.346	-23.72
272.562	56.15
272.777	15.19
272.993	21.33
273.209	-5.29
273.425	64.34
273.64	-76.97
273.856	105.3
274.072	-54.44
274.287	-42.15
274.503	148.31
274.719	45.91
274.934	-36.01
275.15	-81.07
275.366	-1.19
275.581	7
275.797	-11.43
276.012	13.14
276.228	-52.39
276.444	56.15
276.659	119.64
276.875	19.29
277.09	-64.68
277.306	7
277.521	72.53
277.737	27.48
277.952	78.68
278.168	-11.43
278.383	37.72
278.599	56.15
278.814	93.01
279.03	9.05
279.245	117.59
279.461	35.67
279.676	68.44
279.892	-79.02
280.107	-46.25
280.322	-31.91
280.538	111.44
280.753	-7.34
280.969	68.44
281.184	74.58
281.399	162.64
281.615	-9.39
281.83	-40.11
282.045	-70.83
282.26	-13.48
282.476	-66.73
282.691	121.68
282.906	9.05
283.122	-17.58
283.337	-64.68
283.552	90.96
283.767	-46.25
283.983	86.87
284.198	33.62
284.413	4.95
284.628	-95.4
284.843	39.76
285.058	90.96
285.274	-42.15
285.489	-54.44
285.704	90.96
285.919	-48.3
286.134	-7.34
286.349	-89.26
286.564	-46.25
286.779	123.73
286.995	31.57
287.21	-122.02
287.425	86.87
287.64	-56.49
287.855	33.62
288.07	-81.07
288.285	60.24
288.5	148.31
288.715	97.11
288.93	15.19
289.145	-5.29
289.36	80.72
289.575	19.29
289.79	84.82
290.004	-19.63
290.219	37.72
290.434	-29.87
290.649	-3.24
290.864	90.96
291.079	-15.53
291.294	47.96
291.509	103.25
291.724	-19.63
291.938	37.72
292.153	-9.39
292.368	-50.35
292.583	-21.67
292.798	95.06
293.012	107.35
293.227	50
293.442	-25.77
293.657	95.06
293.871	86.87
294.086	113.49
294.301	140.12
294.516	113.49
294.73	80.72
294.945	-87.21
295.16	52.05
295.374	41.81
295.589	23.38
295.804	-72.87
296.018	121.68
296.233	90.96
296.447	21.33
296.662	107.35
296.877	74.58
297.091	66.39
297.306	19.29
297.52	-68.78
297.735	45.91
297.949	47.96
298.164	131.92
298.378	-31.91
298.593	-76.97
298.807	-62.63
299.022	27.48
299.236	138.07
299.451	23.38
299.665	-54.44
299.88	25.43
300.094	84.82
300.309	-17.58
300.523	33.62
300.737	84.82
300.952	103.25
301.166	-17.58
301.381	-72.87
301.595	-25.77
301.809	29.52
302.024	52.05
302.238	-27.82
302.452	123.73
302.667	31.57
302.881	99.16
303.095	168.79
303.309	54.1
303.524	-21.67
303.738	2.9
303.952	-40.11
304.166	72.53
304.381	-89.26
304.595	72.53
304.809	-44.2
305.023	-27.82
305.237	-44.2
305.452	-62.63
305.666	74.58
305.88	80.72
306.094	121.68
306.308	35.67
306.522	43.86
306.736	50
306.95	64.34
307.164	7
307.379	13.14
307.593	195.41
307.807	86.87
308.021	64.34
308.235	113.49
308.449	-109.74
308.663	-19.63
308.877	181.07
309.091	54.1
309.305	119.64
309.519	-134.31
309.733	74.58
309.947	-54.44
310.161	35.67
310.374	119.64
310.588	97.11
310.802	-72.87
311.016	29.52
311.23	-11.43
311.444	-15.53
311.658	17.24
311.872	15.19
312.085	70.48
312.299	105.3
312.513	103.25
312.727	29.52
312.941	-7.34
313.154	45.91
313.368	80.72
313.582	74.58
313.796	45.91
314.009	29.52
314.223	68.44
314.437	82.77
314.651	90.96
314.864	11.09
315.078	-68.78
315.292	-23.72
315.505	-11.43
315.719	37.72
315.933	78.68
316.146	21.33
316.36	-1.19
316.573	109.4
316.787	4.95
317.001	-27.82
317.214	-70.83
317.428	15.19
317.641	-60.59
317.855	0.85
318.068	4.95
318.282	93.01
318.495	156.5
318.709	-21.67
318.922	-48.3
319.136	72.53
319.349	115.54
319.563	17.24
319.776	66.39
319.99	-5.29
320.203	54.1
320.417	-7.34
320.63	37.72
320.843	140.12
321.057	70.48
321.27	17.24
321.483	86.87
321.697	164.69
321.91	7
322.124	107.35
322.337	158.55
322.55	-64.68
322.763	54.1
322.977	-19.63
323.19	7
323.403	-3.24
323.617	80.72
323.83	109.4
324.043	-15.53
324.256	103.25
324.469	-105.64
324.683	115.54
324.896	-17.58
325.109	60.24
325.322	-44.2
325.535	35.67
325.748	56.15
325.962	74.58
326.175	90.96
326.388	78.68
326.601	31.57
326.814	9.05
327.027	11.09
327.24	183.12
327.453	-60.59
327.666	125.78
327.879	115.54
328.092	64.34
328.305	97.11
328.518	2.9
328.731	-27.82
328.944	-27.82
329.157	72.53
329.37	90.96
329.583	195.41
329.796	99.16
330.009	-58.54
330.222	78.68
330.435	37.72
330.648	-1.19
330.861	45.91
331.073	21.33
331.286	136.02
331.499	-3.24
331.712	-109.74
331.925	13.14
332.138	62.29
332.35	58.2
332.563	-58.54
332.776	76.63
332.989	-89.26
333.202	-46.25
333.414	19.29
333.627	17.24
333.84	-29.87
334.053	-25.77
334.265	-64.68
334.478	0.85
334.691	-40.11
334.903	17.24
335.116	-95.4
335.329	17.24
335.541	15.19
335.754	144.21
335.966	-54.44
336.179	0.85
336.392	35.67
336.604	-23.72
336.817	52.05
337.029	31.57
337.242	-38.06
337.454	70.48
337.667	-3.24
337.88	50
338.092	127.83
338.305	76.63
338.517	41.81
338.729	86.87
338.942	78.68
339.154	-52.39
339.367	-19.63
339.579	33.62
339.792	-31.91
340.004	19.29
340.217	-87.21
340.429	68.44
340.641	-52.39
340.854	-64.68
341.066	-19.63
341.278	47.96
341.491	156.5
341.703	-17.58
341.915	2.9
342.128	47.96
342.34	9.05
342.552	-117.93
342.764	19.29
342.977	-11.43
343.189	58.2
343.401	2.9
343.613	-126.12
343.826	52.05
344.038	-50.35
344.25	45.91
344.462	-17.58
344.674	72.53
344.886	-1.19
345.099	99.16
345.311	86.87
345.523	-66.73
345.735	-101.55
345.947	11.09
346.159	27.48
346.371	-54.44
346.583	-27.82
346.795	176.98
347.007	15.19
347.219	60.24
347.431	-3.24
347.643	80.72
347.855	-62.63
348.067	158.55
348.279	-179.37
348.491	13.14
348.703	37.72
348.915	41.81
349.127	-38.06
349.339	74.58
349.551	-72.87
349.763	168.79
349.975	50
350.187	47.96
350.399	164.69
350.61	39.76
350.822	2.9
351.034	11.09
351.246	11.09
351.458	105.3
351.669	45.91
351.881	97.11
352.093	62.29
352.305	101.2
352.517	52.05
352.728	78.68
352.94	62.29
353.152	101.2
353.363	-68.78
353.575	23.38
353.787	121.68
353.999	54.1
354.21	162.64
354.422	-15.53
354.633	-7.34
354.845	29.52
355.057	43.86
355.268	-70.83
355.48	123.73
355.692	-27.82
355.903	23.38
356.115	-27.82
356.326	17.24
356.538	101.2
356.749	62.29
356.961	138.07
357.172	7
357.384	-52.39
357.595	211.79
357.807	-81.07
358.018	21.33
358.23	-42.15
358.441	193.36
358.653	111.44
358.864	-36.01
359.075	-68.78
359.287	101.2
359.498	-15.53
359.709	45.91
359.921	-38.06
360.132	74.58
360.344	-13.48
360.555	21.33
360.766	-15.53
360.977	-3.24
361.189	41.81
361.4	0.85
361.611	78.68
361.823	66.39
362.034	15.19
362.245	-21.67
362.456	35.67
362.667	119.64
362.879	-54.44
363.09	72.53
363.301	52.05
363.512	-21.67
363.723	-81.07
363.935	-7.34
364.146	13.14
364.357	-1.19
364.568	113.49
364.779	-54.44
364.99	119.64
365.201	-101.55
365.412	54.1
365.623	-144.55
365.834	-19.63
366.045	21.33
366.256	138.07
366.467	68.44
366.678	2.9
366.889	9.05
367.1	-33.96
367.311	72.53
367.522	-60.59
367.733	0.85
367.944	7
368.155	-11.43
368.366	76.63
368.577	146.26
368.788	70.48
368.999	-13.48
369.209	17.24
369.42	148.31
369.631	232.27
369.842	2.9
370.053	-36.01
370.264	58.2
370.474	9.05
370.685	-25.77
370.896	-25.77
371.107	127.83
371.317	64.34
371.528	47.96
371.739	115.54
371.95	86.87
372.16	64.34
372.371	-74.92
372.582	-83.11
372.792	4.95
373.003	19.29
373.214	19.29
373.424	41.81
373.635	-21.67
373.846	119.64
374.056	-38.06
374.267	25.43
374.477	29.52
374.688	-62.63
374.898	72.53
375.109	72.53
375.319	66.39
375.53	82.77
375.74	105.3
375.951	-50.35
376.161	150.36
376.372	17.24
376.582	13.14
376.793	29.52
377.003	-17.58
377.214	-33.96
377.424	82.77
377.635	47.96
377.845	23.38
378.055	23.38
378.266	-66.73
378.476	-31.91
378.686	-19.63
378.897	19.29
379.107	60.24
379.317	35.67
379.528	-48.3
379.738	105.3
379.948	-142.5
380.158	47.96
380.369	66.39
380.579	68.44
380.789	7
380.999	35.67
381.21	62.29
381.42	39.76
381.63	-68.78
381.84	84.82
382.05	19.29
382.261	119.64
382.471	115.54
382.681	-21.67
382.891	162.64
383.101	66.39
383.311	-44.2
383.521	-17.58
383.731	58.2
383.941	45.91
384.151	37.72
384.361	-25.77
384.571	86.87
384.781	-23.72
384.991	168.79
385.201	170.83
385.411	33.62
385.621	45.91
385.831	41.81
386.041	80.72
386.251	-42.15
386.461	101.2
386.671	-15.53
386.881	39.76
387.091	-68.78
387.301	156.5
387.511	13.14
387.72	-1.19
387.93	88.92
388.14	-23.72
388.35	60.24
388.56	45.91
388.769	70.48
388.979	19.29
389.189	-64.68
389.399	-21.67
389.609	25.43
389.818	97.11
390.028	4.95
390.238	84.82
390.447	-109.74
390.657	27.48
390.867	23.38
391.076	-33.96
391.286	72.53
391.496	64.34
391.705	0.85
391.915	138.07
392.125	136.02
392.334	-33.96
392.544	136.02
392.753	27.48
392.963	-13.48
393.172	45.91
393.382	-31.91
393.591	117.59
393.801	90.96
394.01	148.31
394.22	-38.06
394.429	-48.3
394.639	-19.63
394.848	2.9
395.058	52.05
395.267	-76.97
395.477	150.36
395.686	58.2
395.895	152.4
396.105	201.55
396.314	82.77
396.524	17.24
396.733	31.57
396.942	168.79
397.152	0.85
397.361	105.3
397.57	-25.77
397.78	19.29
397.989	-15.53
398.198	164.69
398.407	41.81
398.617	-40.11
398.826	-11.43
399.035	-17.58
399.244	129.88
399.453	64.34
399.663	-1.19
399.872	-1.19
400.081	-38.06
400.29	54.1
400.499	-27.82
400.708	15.19
400.917	31.57
401.127	27.48
401.336	-40.11
401.545	144.21
401.754	105.3
401.963	90.96
402.172	-33.96
402.381	-101.55
402.59	56.15
402.799	23.38
403.008	74.58
403.217	115.54
403.426	35.67
403.635	-124.07
403.844	64.34
404.053	-29.87
404.262	-36.01
404.471	193.36
404.68	35.67
404.888	35.67
405.097	11.09
405.306	31.57
405.515	39.76
405.724	-31.91
405.933	127.83
406.142	70.48
406.35	52.05
406.559	-9.39
406.768	107.35
406.977	140.12
407.185	-23.72
407.394	23.38
407.603	-48.3
407.812	35.67
408.02	146.26
408.229	21.33
408.438	60.24
408.646	-68.78
408.855	64.34
409.064	58.2
409.272	-74.92
409.481	121.68
409.69	27.48
409.898	-1.19
410.107	-13.48
410.315	95.06
410.524	-44.2
410.733	62.29
410.941	-31.91
411.15	31.57
411.358	105.3
411.567	168.79
411.775	-21.67
411.984	109.4
412.192	37.72
412.401	-15.53
412.609	82.77
412.818	107.35
413.026	52.05
413.234	-7.34
413.443	-1.19
413.651	23.38
413.86	-15.53
414.068	66.39
414.276	103.25
414.485	-7.34
414.693	103.25
414.901	105.3
415.11	99.16
415.318	37.72
415.526	4.95
415.734	123.73
415.943	47.96
416.151	68.44
416.359	99.16
416.567	2.9
416.776	109.4
416.984	154.45
417.192	174.93
417.4	-44.2
417.608	17.24
417.817	-9.39
418.025	58.2
418.233	183.12
418.441	21.33
418.649	-85.16
418.857	99.16
419.065	72.53
419.273	27.48
419.481	29.52
419.689	56.15
419.897	88.92
420.105	-27.82
420.313	101.2
420.521	82.77
420.729	125.78
420.937	-31.91
421.145	-128.17
421.353	66.39
421.561	136.02
421.769	-17.58
421.977	-23.72
422.185	105.3
422.393	15.19
422.601	131.92
422.809	17.24
423.017	39.76
423.224	60.24
423.432	19.29
423.64	43.86
423.848	170.83
424.056	4.95
424.263	66.39
424.471	45.91
424.679	158.55
424.887	-99.5
425.094	119.64
425.302	113.49
425.51	-48.3
425.718	113.49
425.925	93.01
426.133	-25.77
426.341	138.07
426.548	50
426.756	-72.87
426.964	54.1
427.171	-38.06
427.379	84.82
427.586	99.16
427.794	117.59
428.001	27.48
428.209	54.1
428.417	142.16
428.624	58.2
428.832	41.81
429.039	52.05
429.247	107.35
429.454	101.2
429.662	254.8
429.869	142.16
430.076	123.73
430.284	119.64
430.491	93.01
430.699	86.87
430.906	78.68
431.114	115.54
431.321	101.2
431.528	103.25
431.736	90.96
431.943	131.92
432.15	90.96
432.358	133.97
432.565	224.08
432.772	-17.58
432.979	160.59
433.187	101.2
433.394	158.55
433.601	19.29
433.808	232.27
434.016	275.28
434.223	136.02
434.43	181.07
434.637	148.31
434.844	172.88
435.052	158.55
435.259	224.08
435.466	271.19
435.673	99.16
435.88	283.47
436.087	267.09
436.294	230.23
436.501	250.71
436.708	201.55
436.915	138.07
437.122	279.38
437.329	164.69
437.537	230.23
437.743	271.19
437.95	418.64
438.157	283.47
438.364	271.19
438.571	254.8
438.778	291.66
438.985	400.21
439.192	441.17
439.399	342.86
439.606	295.76
439.813	435.02
440.02	494.41
440.227	465.74
440.433	418.64
440.64	402.26
440.847	457.55
441.054	566.09
441.261	578.38
441.467	516.94
441.674	465.74
441.881	582.48
442.088	455.5
442.294	711.5
442.501	578.38
442.708	625.48
442.914	635.72
443.121	639.82
443.328	707.4
443.534	760.65
443.741	768.84
443.948	654.16
444.154	811.85
444.361	975.69
444.568	826.18
444.774	858.95
444.981	754.51
445.187	1030.98
445.394	957.25
445.6	908.1
445.807	992.07
446.013	981.83
446.22	1006.41
446.426	1039.17
446.633	1145.67
446.839	1270.59
447.046	1065.8
447.252	1299.27
447.459	1221.44
447.665	1325.89
447.871	1434.43
448.078	1534.78
448.284	1424.19
448.491	1588.03
448.697	1669.95
448.903	1715
449.11	1682.24
449.316	1772.35
449.522	1919.8
449.728	1946.42
449.935	2097.97
450.141	1985.34
450.347	2183.99
450.553	2030.39
450.76	2210.61
450.966	2349.87
451.172	2280.24
451.378	2499.38
451.584	2587.44
451.791	2732.84
451.997	2751.28
452.203	2812.71
452.409	3052.33
452.615	3150.63
452.821	3044.13
453.027	3087.14
453.233	3447.58
453.44	3324.71
453.646	3517.22
453.852	3611.42
454.058	3769.12
454.264	3906.33
454.47	4098.84
454.676	4172.57
454.882	4502.29
455.088	4317.97
455.294	4553.49
455.5	4940.55
455.705	5194.5
455.911	5372.68
456.117	5272.32
456.323	5544.7
456.529	5536.51
456.735	6058.74
456.941	6238.97
457.147	6306.55
457.352	6677.23
457.558	6845.16
457.764	7205.61
457.97	7449.32
458.176	7711.46
458.381	8231.64
458.587	8270.55
458.793	8606.42
458.999	8383.19
459.204	9794.24
459.41	10029.76
459.616	9929.41
459.821	10476.21
460.027	10883.76
460.233	11471.53
460.438	11453.09
460.644	11946.66
460.85	12262.04
461.055	12819.09
461.261	13546.12
461.466	12978.83
461.672	13292.17
461.878	14846.58
462.083	14799.48
462.289	15082.1
462.494	15559.27
462.7	15706.73
462.905	15901.28
463.111	17351.24
463.316	18104.9
463.522	18373.18
463.727	19114.55
463.932	20005.41
464.138	20548.12
464.343	21146.13
464.549	21090.84
464.754	22798.84
464.959	23615.98
465.165	24066.53
465.37	23695.85
465.575	23826.92
465.781	25289.17
465.986	25915.85
466.191	25506.26
466.397	25743.82
466.602	25344.47
466.807	26542.53
467.012	27046.33
467.218	27519.41
467.423	27822.51
467.628	28305.83
467.833	30026.12
468.038	29272.47
468.244	28301.73
468.449	30466.44
468.654	29546.9
468.859	29837.71
469.064	30089.61
469.269	28688.8
469.474	29022.62
469.679	30030.22
469.885	29104.54
470.09	29749.65
470.295	29772.18
470.5	29186.46
470.705	28924.32
470.91	28676.51
471.115	28438.95
471.32	28506.53
471.525	28406.18
471.73	27744.69
471.935	27615.66
472.139	26280.39
472.344	26677.69
472.549	26311.11
472.754	25948.62
472.959	24949.21
473.164	24601.05
473.369	23908.84
473.574	24660.45
473.778	23841.26
473.983	23917.03
474.188	23392.75
474.393	22045.19
474.598	21916.17
474.802	21721.61
475.007	21340.69
475.212	21043.73
475.417	20285.98
475.621	20062.76
475.826	20081.19
476.031	19393.07
476.235	18797.11
476.44	19192.37
476.645	18571.83
476.849	18262.59
477.054	18221.63
477.259	17592.9
477.463	17750.6
477.668	17191.5
477.872	17318.48
478.077	16489.05
478.282	16001.63
478.486	15979.11
478.691	15782.5
478.895	15676.01
479.1	15688.29
479.304	15639.14
479.509	14899.83
479.713	15123.05
479.918	14686.84
480.122	14652.02
480.326	14635.64
480.531	14690.93
480.735	14617.21
480.94	13920.9
481.144	14740.08
481.348	13865.6
481.553	14113.41
481.757	13482.63
481.961	13793.92
482.166	13607.56
482.37	13474.44
482.574	13077.13
482.778	13226.64
482.983	13384.33
483.187	13111.95
483.391	13054.61
483.595	12874.38
483.8	12630.68
484.004	12741.27
484.208	12692.12
484.412	12550.81
484.616	12374.68
484.821	12237.47
485.025	11799.2
485.229	11985.57
485.433	11565.73
485.637	11678.37
485.841	11418.28
486.045	11225.77
486.249	11227.82
486.453	10971.82
486.657	10939.05
486.861	10572.47
487.065	10314.42
487.269	10377.91
487.473	9908.93
487.677	10142.39
487.881	10093.24
488.085	9861.82
488.289	9779.9
488.493	9267.91
488.697	9353.93
488.901	9077.45
489.105	8811.21
489.309	8628.95
489.512	8643.28
489.716	8469.2
489.92	8315.61
490.124	8127.19
490.328	8024.79
490.531	7824.09
490.735	7813.85
490.939	7572.19
491.143	7690.98
491.346	7445.22
491.55	7379.68
491.754	6988.52
491.958	7021.29
492.161	6710
492.365	6814.45
492.569	6497.01
492.772	6662.9
492.976	6669.04
493.18	6302.45
493.383	6386.42
493.587	6261.49
493.79	6021.88
493.994	6144.76
494.197	5937.91
494.401	5862.14
494.605	5776.13
494.808	5845.76
495.012	5714.69
495.215	5862.14
495.419	5802.75
495.622	5550.85
495.825	5446.4
496.029	5528.32
496.232	5546.75
496.436	5395.2
496.639	5681.92
496.843	5305.09
497.046	5464.83
497.249	5604.1
497.453	5352.2
497.656	5137.16
497.859	5360.39
498.063	5464.83
498.266	5573.38
498.469	5346.05
498.673	5274.37
498.876	5432.07
499.079	5524.23
499.282	5323.52
499.485	5655.3
499.689	5542.66
499.892	5554.94
500.095	5417.73
500.298	5651.2
500.501	5505.79
500.705	5749.5
500.908	5466.88
501.111	5659.39
501.314	5800.7
501.517	5901.05
501.72	5868.28
501.923	5868.28
502.126	5978.87
502.329	6120.18
502.532	6081.27
502.735	5987.07
502.938	6298.36
503.141	6269.69
503.344	6324.98
503.547	6724.33
503.75	6474.48
503.953	6486.77
504.156	6730.48
504.359	6613.74
504.562	6669.04
504.765	6896.36
504.968	7076.59
505.17	7195.37
505.373	7168.74
505.576	7326.44
505.779	7535.33
505.982	7326.44
506.185	7725.79
506.387	7662.3
506.59	7830.24
506.793	8180.44
506.996	8106.71
507.198	8592.08
507.401	8579.79
507.604	8667.86
507.807	8876.75
508.009	8891.09
508.212	9126.6
508.415	9075.4
508.617	9673.41
508.82	9689.79
509.022	9786.05
509.225	10058.43
509.428	10185.4
509.63	10435.25
509.833	10519.22
510.035	11004.59
510.238	10984.11
510.44	11340.46
510.643	11545.25
510.845	11850.4
511.048	11963.04
511.25	12509.85
511.453	12769.94
511.655	13079.18
511.858	13292.17
512.06	13636.23
512.262	13623.94
512.465	13879.94
512.667	14412.41
512.87	14641.78
513.072	14885.49
513.274	15495.78
513.477	15753.83
513.679	16147.04
513.881	16427.61
514.084	16726.61
514.286	17226.32
514.488	17373.77
514.69	18401.85
514.893	18258.49
515.095	18895.41
515.297	19204.66
515.499	19386.93
515.701	20073
515.904	20529.69
516.106	21412.37
516.308	21238.29
516.51	21965.32
516.712	22114.82
516.914	22458.88
517.116	23241.2
517.318	23421.42
517.52	24150.5
517.722	24289.76
517.925	24998.36
518.127	25598.41
518.329	26087.88
518.531	25991.62
518.733	26915.26
518.935	27384.24
519.136	28131.75
519.338	28125.61
519.54	29014.43
519.742	29202.84
519.944	29499.8
520.146	29956.49
520.348	30783.87
520.55	31007.1
520.752	31091.07
520.954	32108.91
521.155	31822.19
521.357	32631.14
521.559	33136.99
521.761	33593.68
521.963	33798.48
522.164	34269.51
522.366	34046.29
522.568	34974.02
522.77	35021.12
522.971	35445.05
523.173	35313.98
523.375	36000.05
523.576	36219.18
523.778	35961.14
523.98	36665.64
524.181	36655.4
524.383	36624.68
524.584	37425.43
524.786	37378.33
524.988	37146.91
525.189	37667.09
525.391	37624.09
525.592	37650.71
525.794	38045.97
525.995	37861.65
526.197	37245.21
526.398	37574.94
526.6	37783.83
526.801	37832.98
527.003	37898.52
527.204	37837.08
527.406	37521.69
527.607	37277.98
527.808	37466.39
528.01	36751.65
528.211	36813.09
528.412	37079.33
528.614	36833.57
528.815	36512.04
529.016	36581.67
529.218	35893.55
529.419	35533.11
529.62	35273.02
529.822	35105.09
530.023	34670.92
530.224	34566.47
530.425	33913.17
530.626	33349.98
530.828	33122.65
531.029	33786.19
531.23	32676.19
531.431	32422.25
531.632	32153.96
531.833	31850.86
532.035	31471.99
532.236	31019.39
532.437	30894.46
532.638	30278.02
532.839	30196.1
533.04	30046.6
533.241	29280.66
533.442	29307.29
533.643	28402.08
533.844	27896.24
534.045	27847.08
534.246	27601.33
534.447	27447.73
534.648	26845.63
534.849	26300.87
535.05	26341.83
535.251	25594.32
535.451	25596.37
535.652	25203.16
535.853	24963.54
536.054	24500.7
536.255	24152.55
536.456	23706.09
536.657	23689.71
536.857	23347.7
537.058	22712.83
537.259	22528.51
537.46	22403.58
537.66	22000.13
537.861	21680.65
538.062	21504.53
538.263	21193.23
538.463	20705.82
538.664	20701.72
538.865	20304.42
539.065	19984.93
539.266	20093.47
539.466	19780.14
539.667	19327.53
539.868	19503.66
540.068	18735.67
540.269	18782.77
540.469	18731.58
540.67	18346.56
540.87	18276.93
541.071	17791.56
541.271	17685.06
541.472	17435.21
541.672	17523.27
541.873	17183.31
542.073	16695.89
542.274	17103.44
542.474	16675.41
542.675	16261.73
542.875	16233.05
543.075	15647.33
543.276	15704.68
543.476	15743.59
543.676	15315.56
543.877	15168.11
544.077	15043.18
544.277	15034.99
544.478	14813.81
544.678	14690.93
544.878	14500.47
545.078	14264.96
545.279	14109.31
545.479	13857.41
545.679	13986.43
545.879	13435.53
546.079	13658.76
546.28	13281.93
546.48	13275.79
546.68	13296.27
546.88	12962.45
547.08	12720.79
547.28	12683.92
547.48	12389.02
547.68	12509.85
547.88	12227.23
548.081	12300.95
548.281	11629.22
548.481	11637.41
548.681	11522.73
548.881	11539.11
549.081	11197.1
549.28	11186.86
549.48	10996.4
549.68	10906.29
549.88	10898.1
550.08	10623.67
550.28	10433.21
550.48	10267.32
550.68	10054.33
550.88	9710.27
551.08	9788.1
551.279	9900.73
551.479	9345.73
551.679	9710.27
551.879	9075.4
552.079	9046.73
552.278	9001.68
552.478	8960.72
552.678	8790.74
552.878	8622.8
553.077	8590.03
553.277	8350.42
553.477	8307.41
553.676	8217.3
553.876	8004.32
554.076	7858.91
554.275	7713.5
554.475	7588.58
554.674	7473.89
554.874	7580.39
555.074	7107.3
555.273	7205.61
555.473	7062.25
555.672	6955.76
555.872	6841.07
556.071	6669.04
556.271	6544.11
556.47	6562.55
556.67	6210.29
556.869	6155
557.068	6257.4
557.268	6079.22
557.467	5905.15
557.667	5874.43
557.866	5870.33
558.065	5751.55
558.265	5595.9
558.464	5505.79
558.663	5516.03
558.863	5116.68
559.062	5280.52
559.261	5096.2
559.461	5116.68
559.66	4950.79
559.859	4838.16
560.058	4754.19
560.258	4633.36
560.457	4537.1
560.656	4821.77
560.855	4371.22
561.054	4602.64
561.253	4311.83
561.453	4381.46
561.652	4287.25
561.851	4285.2
562.05	4055.83
562.249	4100.89
562.448	4088.6
562.647	4021.02
562.846	3836.7
563.045	3744.54
563.244	3865.37
563.443	3797.79
563.642	3511.07
563.841	3734.3
564.04	3558.18
564.239	3547.94
564.438	3492.64
564.637	3236.64
564.836	3255.08
565.035	3242.79
565.234	3263.27
565.432	3134.25
565.631	3058.47
565.83	3109.67
566.029	2908.97
566.228	3033.9
566.427	3062.57
566.625	2765.61
566.824	2890.54
567.023	2804.52
567.222	2802.47
567.42	2808.62
567.619	2810.67
567.818	2515.76
568.016	2747.18
568.215	2632.49
568.414	2581.29
568.612	2558.77
568.811	2394.93
569.01	2407.22
569.208	2294.58
569.407	2341.68
569.605	2386.74
569.804	2169.65
570.002	2364.21
570.201	2100.02
570.4	2108.21
570.598	2175.8
570.797	2143.03
570.995	1993.53
571.193	2024.25
571.392	2003.77
571.59	1966.9
571.789	2036.53
571.987	1997.62
572.186	1975.1
572.384	1903.42
572.582	1868.6
572.781	1876.79
572.979	1672
573.177	1758.01
573.376	1737.53
573.574	1792.83
573.772	1715
573.971	1583.93
574.169	1540.93
574.367	1532.73
574.565	1516.35
574.763	1508.16
574.962	1469.25
575.16	1395.52
575.358	1409.86
575.556	1430.34
575.754	1416
575.952	1452.86
576.151	1411.9
576.349	1475.39
576.547	1182.53
576.745	1307.46
576.943	1246.02
577.141	1168.2
577.339	1233.73
577.537	1182.53
577.735	1266.5
577.933	1219.39
578.131	1110.85
578.329	1198.92
578.527	1162.05
578.725	1151.81
578.923	1069.89
579.121	1119.04
579.319	1014.6
579.516	998.21
579.714	1176.39
579.912	1061.7
580.11	815.94
580.308	987.97
580.506	959.3
580.704	760.65
580.901	840.52
581.099	973.64
581.297	918.34
581.495	938.82
581.692	865.1
581.89	877.38
582.088	748.36
582.285	856.9
582.483	758.6
582.681	848.71
582.878	740.17
583.076	811.85
583.274	791.37
583.471	889.67
583.669	736.07
583.866	625.48
584.064	635.72
584.262	582.48
584.459	557.9
584.657	648.01
584.854	781.13
585.052	670.54
585.249	625.48
585.447	666.44
585.644	637.77
585.841	688.97
586.039	668.49
586.236	684.87
586.434	523.09
586.631	557.9
586.828	582.48
587.026	590.67
587.223	414.54
587.42	555.85
587.618	539.47
587.815	672.59
588.012	512.85
588.21	445.26
588.407	551.76
588.604	572.24
588.801	459.6
588.999	445.26
589.196	643.92
589.393	502.61
589.59	521.04
589.787	465.74
589.984	539.47
590.182	533.33
590.379	428.88
590.576	432.97
590.773	428.88
590.97	457.55
591.167	553.8
591.364	426.83
591.561	371.54
591.758	516.94
591.955	459.6
592.152	508.75
592.349	494.41
592.546	435.02
592.743	463.69
592.94	420.69
593.137	549.71
593.334	555.85
593.531	467.79
593.727	559.95
593.924	455.5
594.121	486.22
594.318	494.41
594.515	537.42
594.712	557.9
594.908	627.53
595.105	365.39
595.302	557.9
595.499	502.61
595.696	582.48
595.892	465.74
596.089	619.34
596.286	514.89
596.482	586.57
596.679	605
596.876	566.09
597.072	590.67
597.269	623.44
597.466	703.31
597.662	682.83
597.859	539.47
598.055	680.78
598.252	688.97
598.448	801.61
598.645	703.31
598.841	824.14
599.038	883.53
599.234	901.96
599.431	897.86
599.627	883.53
599.824	1033.03
600.02	967.49
600.217	1047.37
600.413	1157.96
600.609	1067.85
600.806	1266.5
601.002	1286.98
601.198	1168.2
601.395	1325.89
601.591	1323.84
601.787	1274.69
601.984	1448.77
602.18	1626.94
602.376	1497.92
602.572	1657.66
602.769	1809.21
602.965	1731.39
603.161	1823.55
603.357	1932.09
603.553	1985.34
603.75	1968.95
603.946	2022.2
604.142	2190.13
604.338	2270
604.534	2356.02
604.73	2210.61
604.926	2362.16
605.122	2595.63
605.318	2499.38
605.514	2667.31
605.71	2671.4
605.906	2915.11
606.102	2941.74
606.298	3152.68
606.494	3048.23
606.69	3318.56
606.886	3083.05
607.082	3226.4
607.278	3527.46
607.474	3449.63
607.67	3580.7
607.866	3607.33
608.062	3926.81
608.257	3805.98
608.453	3937.05
608.649	4215.57
608.845	4125.46
609.041	4365.07
609.236	4485.9
609.432	4610.83
609.628	4889.35
609.824	4870.92
610.019	4848.4
610.215	5098.25
610.411	5446.4
610.606	5372.68
610.802	5550.85
610.998	5513.99
611.193	5702.4
611.389	5905.15
611.584	6271.73
611.78	6187.77
611.976	6548.21
612.171	6779.63
612.367	6615.79
612.562	6970.09
612.758	6824.69
612.953	7183.08
613.149	7723.74
613.344	7490.28
613.539	7875.29
613.735	8194.78
613.93	8309.46
614.126	8444.63
614.321	8555.22
614.517	8837.84
614.712	9052.88
614.907	9409.22
615.103	9652.93
615.298	9839.3
615.493	10134.2
615.688	10257.08
615.884	10764.98
616.079	10701.49
616.274	11283.11
616.47	11381.42
616.665	11817.63
616.86	11983.52
617.055	12186.27
617.25	12604.05
617.445	13140.62
617.641	13103.76
617.836	13400.71
618.031	13654.66
618.226	14428.79
618.421	14310.01
618.616	14793.33
618.811	14908.02
619.006	15671.91
619.201	15526.5
619.396	15972.96
619.591	16110.18
619.786	16673.37
619.981	17031.76
620.176	17734.21
620.371	17615.43
620.566	18297.41
620.761	18537.02
620.956	18874.93
621.151	19364.4
621.346	19837.48
621.541	19679.79
621.735	20560.41
621.93	20738.58
622.125	21248.53
622.32	21164.56
622.515	21860.87
622.709	22204.93
622.904	22977.01
623.099	23058.93
623.294	23589.36
623.488	23869.93
623.683	24205.8
623.878	24433.12
624.072	25160.15
624.267	25051.61
624.462	26020.3
624.656	26188.23
624.851	26714.56
625.046	27105.72
625.24	27722.16
625.435	27543.99
625.629	28209.57
625.824	28348.84
626.018	28991.9
626.213	28590.5
626.407	29299.09
626.602	29350.29
626.796	30300.55
626.991	30333.32
627.185	30292.36
627.38	30767.49
627.574	30630.27
627.768	31181.18
627.963	31242.62
628.157	31289.72
628.352	31682.93
628.546	31193.47
628.74	31588.72
628.935	31191.42
629.129	31299.96
629.323	31082.88
629.517	30777.73
629.712	30843.26
629.906	31021.44
630.1	30194.06
630.294	30304.65
630.489	29456.79
630.683	29450.64
630.877	28672.42
631.071	28531.11
631.265	28570.02
631.459	27507.12
631.653	27144.63
631.848	26745.28
632.042	25876.94
632.236	25164.25
632.43	24197.6
632.624	23921.13
632.818	23380.46
633.012	22094.34
633.206	21525
633.4	21133.84
633.594	20005.41
633.788	19706.41
633.982	18772.53
634.176	18211.39
634.369	17361.48
634.563	16939.6
634.757	16314.97
634.951	15555.18
635.145	15063.66
635.339	14375.55
635.533	13828.74
635.726	13316.75
635.92	12755.6
636.114	12348.06
636.308	11778.72
636.501	11342.5
636.695	11076.27
636.889	10336.95
637.083	10035.9
637.276	9485
637.47	9065.16
637.664	8966.86
637.857	8438.48
638.051	8168.15
638.244	7928.54
638.438	7615.2
638.632	7121.64
638.825	6834.93
639.019	6834.93
639.212	6183.67
639.406	6075.13
639.599	5774.08
639.793	5608.19
639.986	5473.03
640.18	5178.12
640.373	4999.95
640.567	4750.09
640.76	4651.79
640.954	4481.81
641.147	4346.64
641.34	4066.07
641.534	3961.62
641.727	3900.19
641.92	3664.67
642.114	3461.92
642.307	3273.51
642.5	3361.57
642.694	3097.38
642.887	3009.32
643.08	2984.74
643.273	2933.54
643.467	2562.86
643.66	2515.76
643.853	2450.22
644.046	2427.7
644.239	2351.92
644.432	2155.32
644.626	1973.05
644.819	1950.52
645.012	1979.19
645.205	2020.15
645.398	1946.42
645.591	1764.15
645.784	1655.61
645.977	1532.73
646.17	1522.49
646.363	1469.25
646.556	1375.04
646.749	1327.94
646.942	1344.32
647.135	1434.43
647.328	1133.38
647.521	1149.76
647.714	1108.8
647.907	1002.31
648.099	959.3
648.292	1051.46
648.485	1024.84
648.678	926.54
648.871	904.01
649.064	815.94
649.256	783.18
649.449	766.79
649.642	717.64
649.835	754.51
650.027	656.2
650.22	758.6
650.413	725.83
650.605	666.44
650.798	537.42
650.991	496.46
651.183	514.89
651.376	596.81
651.568	617.29
651.761	498.51
651.954	584.52
652.146	402.26
652.339	580.43
652.531	498.51
652.724	459.6
652.916	387.92
653.109	283.47
653.301	363.34
653.494	416.59
653.686	377.68
653.879	414.54
654.071	469.84
654.263	406.35
654.456	351.06
654.648	418.64
654.84	332.62
655.033	299.86
655.225	404.3
655.417	207.7
655.61	385.87
655.802	330.58
655.994	365.39
656.186	150.36
656.379	295.76
656.571	205.65
656.763	172.88
656.955	310.1
657.148	226.13
657.34	322.38
657.532	154.45
657.724	144.21
657.916	211.79
658.108	260.95
658.3	244.56
658.492	308.05
658.684	93.01
658.876	297.81
659.068	123.73
659.26	82.77
659.452	168.79
659.644	215.89
659.836	252.75
660.028	238.42
660.22	156.5
660.412	183.12
660.604	95.06
660.796	172.88
660.988	342.86
661.18	156.5
661.372	195.41
661.563	140.12
661.755	84.82
661.947	27.48
662.139	78.68
662.331	144.21
662.522	170.83
662.714	154.45
662.906	103.25
663.097	72.53
663.289	33.62
663.481	9.05
663.673	217.94
663.864	144.21
664.056	179.03
664.247	47.96
664.439	222.03
664.631	183.12
664.822	78.68
665.014	150.36
665.205	82.77
665.397	138.07
665.588	127.83
665.78	142.16
665.971	172.88
666.163	142.16
666.354	193.36
666.546	-17.58
666.737	154.45
666.929	47.96
667.12	25.43
667.311	156.5
667.503	101.2
667.694	181.07
667.885	156.5
668.077	70.48
668.268	95.06
668.459	115.54
668.651	105.3
668.842	113.49
669.033	64.34
669.224	-40.11
669.416	285.52
669.607	76.63
669.798	21.33
669.989	211.79
670.18	-7.34
670.371	82.77
670.563	15.19
670.754	211.79
670.945	129.88
671.136	164.69
671.327	43.86
671.518	172.88
671.709	209.75
671.9	142.16
672.091	125.78
672.282	127.83
672.473	131.92
672.664	37.72
672.855	58.2
673.046	82.77
673.237	181.07
673.428	56.15
673.619	127.83
673.809	115.54
674	183.12
674.191	168.79
674.382	52.05
674.573	39.76
674.764	84.82
674.954	129.88
675.145	45.91
675.336	68.44
675.527	146.26
675.717	41.81
675.908	60.24
676.099	68.44
676.289	119.64
676.48	-1.19
676.671	99.16
676.861	93.01
677.052	205.65
677.243	115.54
677.433	62.29
677.624	148.31
677.814	176.98
678.005	15.19
678.195	179.03
678.386	72.53
678.576	56.15
678.767	-1.19
678.957	109.4
679.148	97.11
679.338	215.89
679.529	142.16
679.719	99.16
679.909	236.37
680.1	152.4
680.29	136.02
680.481	80.72
680.671	209.75
680.861	185.17
681.052	119.64
681.242	127.83
681.432	201.55
681.622	154.45
681.813	68.44
682.003	119.64
682.193	95.06
682.383	254.8
682.573	35.67
682.764	195.41
682.954	131.92
683.144	232.27
683.334	168.79
683.524	222.03
683.714	136.02
683.904	197.46
684.094	179.03
684.284	150.36
684.474	287.57
684.664	246.61
684.854	131.92
685.044	185.17
685.234	156.5
685.424	103.25
685.614	76.63
685.804	283.47
685.994	211.79
686.184	150.36
686.374	213.84
686.564	191.31
686.753	176.98
686.943	-21.67
687.133	64.34
687.323	187.22
687.513	250.71
687.702	183.12
687.892	191.31
688.082	230.23
688.272	211.79
688.461	226.13
688.651	324.43
688.841	183.12
689.03	174.93
689.22	172.88
689.41	283.47
689.599	197.46
689.789	166.74
689.979	244.56
690.168	160.59
690.358	181.07
690.547	164.69
690.737	183.12
690.926	170.83
691.116	242.51
691.305	191.31
691.495	254.8
691.684	64.34
691.874	99.16
692.063	95.06
692.252	267.09
692.442	217.94
692.631	121.68
692.82	238.42
693.01	191.31
693.199	172.88
693.388	146.26
693.578	136.02
693.767	166.74
693.956	172.88
694.146	90.96
694.335	201.55
694.524	72.53
694.713	146.26
694.902	119.64
695.092	152.4
695.281	131.92
695.47	185.17
695.659	117.59
695.848	185.17
696.037	64.34
696.226	258.9
696.415	158.55
696.604	314.19
696.793	275.28
696.982	142.16
697.171	281.43
697.36	129.88
697.549	156.5
697.738	54.1
697.927	195.41
698.116	84.82
698.305	219.99
698.494	217.94
698.683	127.83
698.872	371.54
699.061	131.92
699.25	146.26
699.438	97.11
699.627	129.88
699.816	248.66
700.005	68.44
700.193	13.14
700.382	219.99
700.571	156.5
700.76	185.17
700.948	242.51
701.137	256.85
701.326	355.15
701.514	56.15
701.703	195.41
701.892	127.83
702.08	320.34
702.269	160.59
702.457	99.16
702.646	203.6
702.834	129.88
703.023	254.8
703.212	238.42
703.4	185.17
703.589	76.63
703.777	131.92
703.965	103.25
704.154	107.35
704.342	25.43
704.531	140.12
704.719	176.98
704.907	271.19
705.096	60.24
705.284	23.38
705.472	86.87
705.661	176.98
705.849	176.98
706.037	254.8
706.226	152.4
706.414	197.46
706.602	70.48
706.79	213.84
706.979	123.73
707.167	123.73
707.355	-1.19
707.543	277.33
707.731	201.55
707.919	205.65
708.107	119.64
708.296	58.2
708.484	39.76
708.672	156.5
708.86	154.45
709.048	185.17
709.236	80.72
709.424	238.42
709.612	142.16
709.8	15.19
709.988	205.65
710.176	228.18
710.364	287.57
710.551	185.17
710.739	123.73
710.927	127.83
711.115	109.4
711.303	209.75
711.491	230.23
711.679	95.06
711.866	207.7
712.054	189.27
712.242	150.36
712.43	246.61
712.617	156.5
712.805	224.08
712.993	123.73
713.181	76.63
713.368	226.13
713.556	150.36
713.744	64.34
713.931	310.1
714.119	187.22
714.306	117.59
714.494	156.5
714.682	129.88
714.869	103.25
715.057	185.17
715.244	142.16
715.432	297.81
715.619	111.44
715.807	144.21
715.994	164.69
716.182	160.59
716.369	234.32
716.556	219.99
716.744	43.86
716.931	45.91
717.119	209.75
717.306	142.16
717.493	181.07
717.681	179.03
717.868	97.11
718.055	222.03
718.242	105.3
718.43	197.46
718.617	275.28
718.804	158.55
718.991	228.18
719.179	213.84
719.366	279.38
719.553	242.51
719.74	172.88
719.927	156.5
720.114	146.26
720.301	166.74
720.488	142.16
720.676	170.83
720.863	299.86
721.05	301.9
721.237	201.55
721.424	328.53
721.611	170.83
721.798	170.83
721.985	174.93
722.172	131.92
722.358	174.93
722.545	197.46
722.732	234.32
722.919	246.61
723.106	226.13
723.293	162.64
723.48	201.55
723.667	115.54
723.853	228.18
724.04	166.74
724.227	222.03
724.414	103.25
724.6	146.26
724.787	328.53
724.974	303.95
725.161	289.62
725.347	164.69
725.534	197.46
725.72	205.65
725.907	308.05
726.094	219.99
726.28	168.79
726.467	228.18
726.653	88.92
726.84	283.47
727.027	291.66
727.213	181.07
727.4	256.85
727.586	226.13
727.773	262.99
727.959	228.18
728.145	209.75
728.332	246.61
728.518	203.6
728.705	322.38
728.891	254.8
729.077	240.47
729.264	156.5
729.45	207.7
729.636	287.57
729.823	187.22
730.009	262.99
730.195	203.6
730.382	324.43
730.568	88.92
730.754	174.93
730.94	176.98
731.126	236.37
731.313	179.03
731.499	170.83
731.685	301.9
731.871	234.32
732.057	234.32
732.243	254.8
732.429	162.64
732.615	400.21
732.801	285.52
732.987	252.75
733.173	152.4
733.359	197.46
733.545	211.79
733.731	195.41
733.917	295.76
734.103	228.18
734.289	224.08
734.475	181.07
734.661	418.64
734.847	219.99
735.033	234.32
735.219	359.25
735.404	152.4
735.59	164.69
735.776	199.51
735.962	287.57
736.148	295.76
736.333	295.76
736.519	207.7
736.705	174.93
736.89	283.47
737.076	240.47
737.262	176.98
737.447	230.23
737.633	238.42
737.819	318.29
738.004	281.43
738.19	236.37
738.375	242.51
738.561	330.58
738.747	271.19
738.932	185.17
739.118	414.54
739.303	236.37
739.489	273.23
739.674	224.08
739.859	207.7
740.045	213.84
740.23	293.71
740.416	125.78
740.601	287.57
740.786	201.55
740.972	203.6
741.157	174.93
741.342	240.47
741.528	117.59
741.713	371.54
741.898	222.03
742.084	281.43
742.269	326.48
742.454	289.62
742.639	291.66
742.824	269.14
743.01	344.91
743.195	355.15
743.38	301.9
743.565	246.61
743.75	381.78
743.935	324.43
744.12	306
744.305	246.61
744.49	176.98
744.675	269.14
744.86	213.84
745.045	252.75
745.23	217.94
745.415	254.8
745.6	303.95
745.785	236.37
745.97	349.01
746.155	222.03
746.34	293.71
746.525	269.14
746.71	412.5
746.895	193.36
747.079	199.51
747.264	236.37
747.449	336.72
747.634	338.77
747.819	240.47
748.003	236.37
748.188	160.59
748.373	246.61
748.557	170.83
748.742	185.17
748.927	211.79
749.111	152.4
749.296	193.36
749.481	334.67
749.665	185.17
749.85	250.71
750.034	271.19
750.219	226.13
750.404	222.03
750.588	183.12
750.773	162.64
750.957	267.09
751.141	205.65
751.326	234.32
751.51	115.54
751.695	142.16
751.879	199.51
752.064	238.42
752.248	205.65
752.432	299.86
752.617	283.47
752.801	236.37
752.985	117.59
753.17	324.43
753.354	185.17
753.538	195.41
753.722	160.59
753.907	174.93
754.091	115.54
754.275	238.42
754.459	90.96
754.643	121.68
754.828	172.88
755.012	174.93
755.196	170.83
755.38	189.27
755.564	109.4
755.748	166.74
755.932	172.88
756.116	203.6
756.3	158.55
756.484	129.88
756.668	195.41
756.852	90.96
757.036	217.94
757.22	160.59
757.404	105.3
757.588	138.07
757.772	213.84
757.956	174.93
758.14	299.86
758.323	152.4
758.507	230.23
758.691	4.95
758.875	244.56
759.059	226.13
759.242	97.11
759.426	97.11
759.61	121.68
759.794	78.68
759.977	172.88
760.161	387.92
760.345	287.57
760.528	154.45
760.712	228.18
760.895	138.07
761.079	136.02
761.263	84.82
761.446	119.64
761.63	70.48
761.813	205.65
761.997	21.33
762.18	54.1
762.364	219.99
762.547	70.48
762.731	168.79
762.914	52.05
763.098	35.67
763.281	43.86
763.464	66.39
763.648	238.42
763.831	58.2
764.015	31.57
764.198	187.22
764.381	109.4
764.564	97.11
764.748	144.21
764.931	185.17
765.114	78.68
765.297	146.26
765.481	101.2
765.664	29.52
765.847	31.57
766.03	156.5
766.213	41.81
766.397	-9.39
766.58	35.67
766.763	119.64
766.946	47.96
767.129	21.33
767.312	82.77
767.495	107.35
767.678	33.62
767.861	125.78
768.044	88.92
768.227	25.43
768.41	25.43
768.593	56.15
768.776	95.06
768.959	31.57
769.142	195.41
769.324	115.54
769.507	78.68
769.69	50
769.873	29.52
770.056	213.84
770.239	127.83
770.421	166.74
770.604	90.96
770.787	41.81
770.97	101.2
771.152	45.91
771.335	115.54
771.518	25.43
771.7	142.16
771.883	172.88
772.066	-11.43
772.248	62.29
772.431	84.82
772.613	105.3
772.796	29.52
772.978	209.75
773.161	183.12
773.343	52.05
773.526	50
773.708	-7.34
773.891	-52.39
774.073	31.57
774.256	93.01
774.438	191.31
774.621	21.33
774.803	76.63
774.985	64.34
775.168	158.55
775.35	-29.87
775.532	129.88
775.715	-25.77
775.897	93.01
776.079	64.34
776.261	111.44
776.444	52.05
776.626	33.62
776.808	74.58
776.99	-15.53
777.173	58.2
777.355	7
777.537	45.91
777.719	0.85
777.901	70.48
778.083	9.05
778.265	-7.34
778.447	99.16
778.629	9.05
778.811	54.1
778.993	43.86
779.175	207.7
779.357	56.15
779.539	-13.48
779.721	62.29
779.903	107.35
780.085	45.91
780.267	62.29
780.449	-36.01
780.631	56.15
780.812	185.17
780.994	29.52
781.176	103.25
781.358	-33.96
781.54	68.44
781.721	-40.11
781.903	76.63
782.085	-72.87
782.267	117.59
782.448	-17.58
782.63	2.9
782.812	2.9
782.993	2.9
783.175	64.34
783.357	-7.34
783.538	41.81
783.72	-38.06
783.901	45.91
784.083	84.82
784.264	90.96
784.446	-42.15
784.627	-7.34
784.809	60.24
784.99	47.96
785.172	19.29
785.353	4.95
785.535	64.34
785.716	-48.3
785.897	15.19
786.079	80.72
786.26	-52.39
786.441	50
786.623	15.19
786.804	33.62
786.985	39.76
787.167	74.58
787.348	-31.91
787.529	27.48
787.71	185.17
787.891	31.57
788.073	-48.3
788.254	-38.06
788.435	166.74
788.616	-19.63
788.797	-72.87
788.978	-27.82
789.159	-46.25
789.34	45.91
789.522	93.01
789.703	35.67
789.884	95.06
790.065	93.01
790.246	82.77
790.427	-46.25
790.607	129.88
790.788	158.55
790.969	37.72
791.15	113.49
791.331	9.05
791.512	-48.3
791.693	-64.68
791.874	4.95
792.054	170.83
792.235	50
792.416	-79.02
792.597	27.48
792.778	78.68
792.958	56.15
793.139	93.01
793.32	19.29
793.5	0.85
793.681	133.97
793.862	60.24
794.042	50
794.223	-44.2
794.404	54.1
794.584	-167.08
794.765	43.86
794.945	-27.82
795.126	37.72
795.306	54.1
795.487	-13.48
795.667	2.9
795.848	-9.39
796.028	-87.21
796.209	-21.67
796.389	50
796.57	-7.34
796.75	-11.43
796.93	19.29
797.111	-87.21
797.291	-23.72
797.471	19.29
797.652	-74.92
797.832	-36.01
798.012	33.62
798.192	17.24
798.373	-156.84
798.553	-52.39
798.733	109.4
798.913	17.24
799.093	-48.3
799.274	60.24
799.454	7
799.634	72.53
799.814	52.05
799.994	70.48
800.174	50
800.354	80.72
800.534	-66.73
800.714	35.67
800.894	-126.12
801.074	-62.63
801.254	-25.77
801.434	97.11
801.614	-111.78
801.794	-50.35
801.974	1735.48
802.154	-68.78
802.334	43.86
802.514	-91.31
802.693	31.57
802.873	-52.39
803.053	90.96
803.233	52.05
803.413	-27.82
803.592	-40.11
803.772	-72.87
803.952	70.48
804.131	-165.03
804.311	103.25
804.491	45.91
804.67	-76.97
804.85	-64.68
805.03	-3.24
805.209	88.92
805.389	-54.44
805.568	-46.25
805.748	-76.97
805.928	33.62
806.107	45.91
806.287	15.19
806.466	7
806.646	-9.39
806.825	-54.44
807.004	-105.64
807.184	47.96
807.363	13.14
807.543	0.85
807.722	-79.02
807.901	111.44
808.081	68.44
808.26	-119.98
808.439	29.52
808.619	70.48
808.798	-68.78
808.977	-50.35
809.156	74.58
809.336	-7.34
809.515	35.67
809.694	-103.59
809.873	-76.97
810.052	64.34
810.231	84.82
810.411	-5.29
810.59	17.24
810.769	-11.43
810.948	-1.19
811.127	-101.55
811.306	-58.54
811.485	-83.11
811.664	76.63
811.843	-29.87
812.022	-31.91
812.201	9.05
812.38	-64.68
812.559	-44.2
812.737	21.33
812.916	-93.35
813.095	-48.3
813.274	-7.34
813.453	7
813.632	19.29
813.811	52.05
813.989	-109.74
814.168	64.34
814.347	-130.22
814.526	-23.72
814.704	82.77
814.883	66.39
815.062	-87.21
815.24	74.58
815.419	-54.44
815.598	138.07
815.776	-60.59
815.955	7
816.133	-132.26
816.312	-5.29
816.49	-38.06
816.669	-29.87
816.847	-17.58
817.026	66.39
817.204	11.09
817.383	-29.87
817.561	-76.97
817.74	17.24
817.918	-38.06
818.097	-76.97
818.275	-64.68
818.453	0.85
818.632	7
818.81	0.85
818.988	-7.34
819.167	-29.87
819.345	-31.91
819.523	-29.87
819.701	-21.67
819.879	-11.43
820.058	-44.2
820.236	-3.24
820.414	31.57
820.592	9.05
820.77	-79.02
820.948	-40.11
821.127	-85.16
821.305	21.33
821.483	-15.53
821.661	70.48
821.839	33.62
822.017	-62.63
822.195	23.38
822.373	35.67
822.551	9.05
822.729	41.81
822.907	-89.26
823.085	47.96
823.262	-19.63
823.44	-72.87
823.618	-13.48
823.796	-60.59
823.974	-79.02
824.152	-91.31
824.329	-31.91
824.507	17.24
824.685	-7.34
824.863	-54.44
825.04	0.85
825.218	37.72
825.396	-5.29
825.574	4.95
825.751	-60.59
825.929	9.05
826.107	9.05
826.284	15.19
826.462	25.43
826.639	-72.87
826.817	-146.6
826.994	-50.35
827.172	-64.68
827.349	82.77
827.527	11.09
827.704	62.29
827.882	64.34
828.059	-5.29
828.237	-11.43
828.414	121.68
828.591	-167.08
828.769	-27.82
828.946	-103.59
829.124	97.11
829.301	25.43
829.478	-5.29
829.655	52.05
829.833	-81.07
830.01	-146.6
830.187	54.1
830.364	50
830.542	-9.39
830.719	66.39
830.896	72.53
831.073	60.24
831.25	-50.35
831.427	-11.43
831.604	54.1
831.782	-97.45
831.959	17.24
832.136	-76.97
832.313	-29.87
832.49	-56.49
832.667	-54.44
832.844	-58.54
833.021	33.62
833.198	11.09
833.374	9.05
833.551	37.72
833.728	-93.35
833.905	17.24
834.082	-158.89
834.259	-33.96
834.436	64.34
834.612	-56.49
834.789	25.43
834.966	-52.39
835.143	-1.19
835.319	-79.02
835.496	-15.53
835.673	33.62
835.85	-17.58
836.026	-19.63
836.203	-5.29
836.38	-15.53
836.556	-60.59
836.733	-64.68
836.909	80.72
837.086	-54.44
837.262	-74.92
837.439	-83.11
837.616	-15.53
837.792	47.96
837.968	7
838.145	-58.54
838.321	-29.87
838.498	78.68
838.674	9.05
838.851	-9.39
839.027	-23.72
839.203	43.86
839.38	-7.34
839.556	-36.01
839.732	95.06
839.909	-17.58
840.085	99.16
840.261	-76.97
840.437	-46.25
840.614	-72.87
840.79	103.25
840.966	9.05
841.142	19.29
841.318	-64.68
841.494	74.58
841.671	103.25
841.847	-64.68
842.023	-79.02
842.199	-3.24
842.375	76.63
842.551	-109.74
842.727	-50.35
842.903	78.68
843.079	-107.69
843.255	-1.19
843.431	-103.59
843.607	76.63
843.783	-197.8
843.959	54.1
844.134	35.67
844.31	47.96
844.486	-29.87
844.662	-81.07
844.838	11.09
845.013	29.52
845.189	17.24
845.365	11.09
845.541	-117.93
845.716	-13.48
845.892	56.15
846.068	-5.29
846.244	-117.93
846.419	-64.68
846.595	-79.02
846.77	-117.93
846.946	54.1
847.122	-83.11
847.297	-1.19
847.473	144.21
847.648	-103.59
847.824	43.86
847.999	-162.98
848.175	-42.15
848.35	23.38
848.526	86.87
848.701	47.96
848.876	31.57
849.052	97.11
849.227	-33.96
849.403	-17.58
849.578	-19.63
849.753	-74.92
849.929	-44.2
850.104	-107.69
850.279	-9.39
850.454	-11.43
850.63	64.34
850.805	119.64
850.98	9.05
851.155	25.43
851.33	-109.74
851.505	-111.78
851.681	88.92
851.856	-101.55
852.031	-76.97
852.206	-19.63
852.381	-103.59
852.556	-58.54
852.731	21.33
852.906	-9.39
853.081	2.9
853.256	125.78
853.431	-3.24
853.606	-89.26
853.781	-81.07
853.956	-99.5
854.131	-60.59
854.305	-101.55
854.48	-17.58
854.655	-171.18
854.83	-97.45
855.005	-89.26
855.18	-11.43
855.354	45.91
855.529	17.24
855.704	13.14
855.879	-3.24
856.053	-13.48
856.228	-60.59
856.403	-144.55
856.577	11.09
856.752	-23.72
856.926	-7.34
857.101	4.95
857.276	-66.73
857.45	-1.19
857.625	9.05
857.799	-11.43
857.974	-1.19
858.148	-115.88
858.323	-13.48
858.497	-25.77
858.672	72.53
858.846	-36.01
859.02	37.72
859.195	-107.69
859.369	-44.2
859.543	-44.2
859.718	-113.83
859.892	39.76
860.066	2.9
860.241	-58.54
860.415	-87.21
860.589	19.29
860.763	-5.29
860.938	-33.96
861.112	2.9
861.286	-76.97
861.46	13.14
861.634	-68.78
861.808	-11.43
861.982	-74.92
862.157	-165.03
862.331	-42.15
862.505	-44.2
862.679	-42.15
862.853	-101.55
863.027	-81.07
863.201	64.34
863.375	-64.68
863.549	-1.19
863.722	7
863.896	99.16
864.07	-25.77
864.244	-109.74
864.418	-36.01
864.592	-40.11
864.766	-27.82
864.939	-68.78
865.113	-58.54
865.287	0.85
865.461	-124.07
865.634	0.85
865.808	0.85
865.982	-42.15
866.156	-83.11
866.329	-97.45
866.503	9.05
866.676	-25.77
866.85	56.15
867.024	-130.22
867.197	66.39
867.371	11.09
867.544	43.86
867.718	-70.83
867.891	47.96
868.065	-97.45
868.238	-25.77
868.412	88.92
868.585	-52.39
868.759	-97.45
868.932	-70.83
869.105	-85.16
869.279	70.48
869.452	-107.69
869.625	64.34
869.799	-52.39
869.972	-38.06
870.145	-119.98
870.319	2.9
870.492	-79.02
870.665	15.19
870.838	-126.12
871.011	-140.46
871.185	-40.11
871.358	-31.91
871.531	-29.87
871.704	-48.3
871.877	0.85
872.05	-95.4
872.223	-158.89
872.396	-33.96
872.569	68.44
872.742	-105.64
872.915	39.76
873.088	-119.98
873.261	-101.55
873.434	60.24
873.607	-1.19
873.78	84.82
873.953	-93.35
874.126	4.95
874.299	107.35
874.471	-31.91
874.644	-36.01
874.817	13.14
874.99	93.01
875.163	-66.73
875.335	0.85
875.508	19.29
875.681	25.43
875.853	-66.73
876.026	-79.02
876.199	64.34
876.371	-31.91
876.544	-52.39
876.717	-40.11
876.889	11.09
877.062	11.09
877.234	-156.84
877.407	-50.35
877.579	19.29
877.752	-13.48
877.924	37.72
878.097	4.95
878.269	7
878.442	-25.77
878.614	-23.72
878.786	-44.2
878.959	23.38
879.131	-44.2
879.303	-126.12
879.476	-85.16
879.648	13.14
879.82	-31.91
879.993	-29.87
880.165	-109.74
880.337	-83.11
880.509	-17.58
880.681	-60.59
880.854	-7.34
881.026	-40.11
881.198	152.4
881.37	7
881.542	-50.35
881.714	-31.91
881.886	-97.45
882.058	7
882.23	-91.31
882.402	-1.19
882.574	19.29
882.746	-15.53
882.918	37.72
883.09	-19.63
883.262	25.43
883.434	-23.72
883.606	-38.06
883.778	0.85
883.95	74.58
884.122	4.95
884.293	-19.63
884.465	-3.24
884.637	37.72
884.809	-25.77
884.98	52.05
885.152	9.05
885.324	47.96
885.496	-64.68
885.667	-58.54
885.839	11.09
886.011	115.54
886.182	7
886.354	7
886.525	35.67
886.697	-1.19
886.869	-146.6
887.04	-17.58
887.212	29.52
887.383	62.29
887.555	35.67
887.726	-21.67
887.897	-62.63
888.069	-19.63
888.24	-5.29
888.412	-66.73
888.583	-50.35
888.754	-93.35
888.926	-85.16
889.097	-136.36
889.268	-142.5
889.44	-42.15
889.611	-128.17
889.782	-15.53
889.953	-17.58
890.125	-5.29
890.296	-93.35
890.467	-52.39
890.638	-44.2
890.809	50
890.98	-124.07
891.151	-15.53
891.323	35.67
891.494	45.91
891.665	-5.29
891.836	-5.29
892.007	-46.25
892.178	17.24
892.349	-3.24
892.52	-62.63
892.691	0.85
892.862	-91.31
893.032	-87.21
893.203	-162.98
893.374	-38.06
893.545	-9.39
893.716	-128.17
893.887	0.85
894.057	-105.64
894.228	-44.2
894.399	-95.4
894.57	50
894.74	-81.07
894.911	60.24
895.082	-134.31
895.253	-72.87
895.423	-31.91
895.594	-27.82
895.764	-66.73
895.935	-31.91
896.106	23.38
896.276	-93.35
896.447	-36.01
896.617	-113.83
896.788	-154.79
896.958	-27.82
897.129	-60.59
897.299	-50.35
897.47	66.39
897.64	-15.53
897.81	-46.25
897.981	-11.43
898.151	-7.34
898.322	-15.53
898.492	2.9
898.662	-181.42
898.832	-107.69
899.003	-23.72
899.173	-40.11
899.343	-103.59
899.513	-83.11
