Data from USB4F104151__47__10-25-21-135.txt Node

Date: Wed Feb 26 10:25:21 EST 2025
User: louis
Spectrometer: USB4F10415
Trigger mode: 4
Integration Time (sec): 1.000000E-1
Scans to average: 1
Electric dark correction enabled: true
Nonlinearity correction enabled: false
Boxcar width: 0
XAxis mode: Wavelengths
Number of Pixels in Spectrum: 3648
>>>>>Begin Spectral Data<<<<<
178.204	-400.04
178.424	-400.04
178.644	-400.04
178.864	-416.42
179.084	-340.65
179.304	3.41
179.524	-55.98
179.744	-39.59
179.964	91.48
180.184	101.72
180.404	-15.02
180.624	-29.35
180.844	-62.12
181.064	-43.69
181.283	54.61
181.503	-41.64
181.723	36.18
181.943	9.56
182.163	240.98
182.383	11.61
182.602	52.56
182.822	226.64
183.042	79.19
183.262	-53.93
183.482	27.99
183.701	7.51
183.921	15.7
184.141	-17.07
184.361	50.52
184.58	97.62
184.8	132.44
185.02	-15.02
185.239	120.15
185.459	-29.35
185.679	177.49
185.898	-96.94
186.118	-15.02
186.338	81.24
186.557	99.67
186.777	-17.07
186.997	-2.73
187.216	66.9
187.436	183.63
187.655	71
187.875	181.59
188.095	36.18
188.314	140.63
188.534	120.15
188.753	52.56
188.973	109.91
189.192	161.11
189.412	40.28
189.631	-25.26
189.851	17.75
190.07	157.01
190.29	-10.92
190.509	19.8
190.729	81.24
190.948	144.72
191.168	208.21
191.387	132.44
191.607	13.65
191.826	68.95
192.045	77.14
192.265	-51.88
192.484	103.76
192.704	38.23
192.923	-31.4
193.142	118.1
193.362	81.24
193.581	148.82
193.8	97.62
194.02	132.44
194.239	38.23
194.458	27.99
194.678	-19.11
194.897	7.51
195.116	87.38
195.335	56.66
195.555	68.95
195.774	13.65
195.993	159.06
196.212	89.43
196.432	105.81
196.651	-41.64
196.87	9.56
197.089	224.59
197.308	19.8
197.528	58.71
197.747	-6.83
197.966	83.28
198.185	71
198.404	-41.64
198.623	134.48
198.842	122.2
199.062	81.24
199.281	105.81
199.5	130.39
199.719	60.76
199.938	150.87
200.157	66.9
200.376	136.53
200.595	105.81
200.814	23.89
201.033	52.56
201.252	159.06
201.471	13.65
201.69	1.37
201.909	36.18
202.128	140.63
202.347	5.46
202.566	44.37
202.785	-55.98
203.004	11.61
203.223	212.31
203.442	120.15
203.661	38.23
203.879	89.43
204.098	77.14
204.317	-29.35
204.536	68.95
204.755	118.1
204.974	107.86
205.193	-8.87
205.411	208.21
205.63	144.72
205.849	68.95
206.068	13.65
206.287	-29.35
206.505	173.39
206.724	36.18
206.943	40.28
207.162	-23.21
207.381	157.01
207.599	21.85
207.818	68.95
208.037	44.37
208.255	11.61
208.474	95.57
208.693	56.66
208.911	36.18
209.13	58.71
209.349	36.18
209.567	79.19
209.786	134.48
210.005	124.24
210.223	71
210.442	-92.84
210.661	-45.74
210.879	38.23
211.098	83.28
211.316	93.52
211.535	66.9
211.753	27.99
211.972	132.44
212.191	42.32
212.409	87.38
212.628	23.89
212.846	-4.78
213.065	64.85
213.283	103.76
213.502	101.72
213.72	23.89
213.938	101.72
214.157	-4.78
214.375	81.24
214.594	32.08
214.812	105.81
215.031	-0.68
215.249	52.56
215.467	73.04
215.686	89.43
215.904	38.23
216.122	-8.87
216.341	181.59
216.559	38.23
216.778	103.76
216.996	109.91
217.214	46.42
217.432	38.23
217.651	-10.92
217.869	68.95
218.087	56.66
218.306	-51.88
218.524	32.08
218.742	-25.26
218.96	114
219.179	15.7
219.397	36.18
219.615	251.22
219.833	122.2
220.051	-19.11
220.27	109.91
220.488	116.05
220.706	97.62
220.924	32.08
221.142	-31.4
221.36	75.09
221.578	148.82
221.796	50.52
222.015	-2.73
222.233	75.09
222.451	224.59
222.669	-27.31
222.887	46.42
223.105	1.37
223.323	7.51
223.541	-41.64
223.759	-4.78
223.977	103.76
224.195	107.86
224.413	79.19
224.631	105.81
224.849	30.04
225.067	195.92
225.285	-80.55
225.503	21.85
225.721	-123.56
225.939	46.42
226.157	32.08
226.375	109.91
226.592	73.04
226.81	23.89
227.028	101.72
227.246	120.15
227.464	40.28
227.682	105.81
227.9	85.33
228.117	15.7
228.335	68.95
228.553	118.1
228.771	11.61
228.989	62.8
229.206	109.91
229.424	-15.02
229.642	21.85
229.86	-27.31
230.077	107.86
230.295	27.99
230.513	122.2
230.731	38.23
230.948	93.52
231.166	218.45
231.384	48.47
231.601	-21.16
231.819	175.44
232.037	1.37
232.254	-33.45
232.472	83.28
232.689	-27.31
232.907	122.2
233.125	34.13
233.342	-17.07
233.56	13.65
233.777	3.41
233.995	68.95
234.213	87.38
234.43	105.81
234.648	44.37
234.865	54.61
235.083	64.85
235.3	44.37
235.518	85.33
235.735	154.96
235.953	91.48
236.17	-4.78
236.388	64.85
236.605	40.28
236.822	120.15
237.04	144.72
237.257	87.38
237.475	7.51
237.692	81.24
237.909	21.85
238.127	87.38
238.344	81.24
238.562	58.71
238.779	-31.4
238.996	-8.87
239.214	56.66
239.431	99.67
239.648	-0.68
239.865	9.56
240.083	19.8
240.3	13.65
240.517	-35.5
240.735	109.91
240.952	154.96
241.169	111.96
241.386	36.18
241.603	48.47
241.821	-8.87
242.038	52.56
242.255	142.68
242.472	9.56
242.689	93.52
242.907	60.76
243.124	21.85
243.341	-12.97
243.558	-47.79
243.775	-45.74
243.992	-8.87
244.209	150.87
244.426	257.36
244.643	126.29
244.86	77.14
245.078	56.66
245.295	9.56
245.512	52.56
245.729	-0.68
245.946	114
246.163	48.47
246.38	66.9
246.597	30.04
246.814	50.52
247.031	62.8
247.248	15.7
247.464	128.34
247.681	21.85
247.898	83.28
248.115	46.42
248.332	-19.11
248.549	116.05
248.766	187.73
248.983	87.38
249.2	114
249.417	85.33
249.633	91.48
249.85	122.2
250.067	-15.02
250.284	64.85
250.501	34.13
250.717	62.8
250.934	3.41
251.151	-0.68
251.368	36.18
251.585	126.29
251.801	105.81
252.018	-8.87
252.235	81.24
252.451	-27.31
252.668	25.94
252.885	144.72
253.102	64.85
253.318	87.38
253.535	-21.16
253.752	46.42
253.968	-51.88
254.185	-35.5
254.401	132.44
254.618	56.66
254.835	-6.83
255.051	204.11
255.268	165.2
255.484	30.04
255.701	-0.68
255.917	87.38
256.134	58.71
256.351	-23.21
256.567	-58.03
256.784	25.94
257	-19.11
257.217	58.71
257.433	120.15
257.65	89.43
257.866	134.48
258.082	25.94
258.299	-131.75
258.515	38.23
258.732	-82.6
258.948	9.56
259.165	99.67
259.381	-23.21
259.597	1.37
259.814	87.38
260.03	27.99
260.246	-33.45
260.463	27.99
260.679	159.06
260.895	126.29
261.112	146.77
261.328	-25.26
261.544	-17.07
261.761	163.15
261.977	13.65
262.193	-58.03
262.409	148.82
262.626	38.23
262.842	79.19
263.058	-23.21
263.274	81.24
263.49	9.56
263.707	54.61
263.923	77.14
264.139	-47.79
264.355	23.89
264.571	66.9
264.787	91.48
265.004	165.2
265.22	23.89
265.436	-58.03
265.652	15.7
265.868	50.52
266.084	5.46
266.3	62.8
266.516	13.65
266.732	87.38
266.948	81.24
267.164	-10.92
267.38	93.52
267.596	142.68
267.812	152.92
268.028	75.09
268.244	-37.55
268.46	21.85
268.676	52.56
268.892	68.95
269.108	-8.87
269.324	-82.6
269.54	7.51
269.756	95.57
269.972	50.52
270.188	85.33
270.403	-8.87
270.619	56.66
270.835	105.81
271.051	140.63
271.267	-62.12
271.483	-58.03
271.698	97.62
271.914	83.28
272.13	75.09
272.346	66.9
272.562	56.66
272.777	220.5
272.993	-8.87
273.209	32.08
273.425	77.14
273.64	-64.17
273.856	97.62
274.072	-6.83
274.287	-27.31
274.503	101.72
274.719	126.29
274.934	15.7
275.15	-96.94
275.366	-4.78
275.581	-80.55
275.797	58.71
276.012	56.66
276.228	-8.87
276.444	27.99
276.659	93.52
276.875	-17.07
277.09	46.42
277.306	66.9
277.521	118.1
277.737	23.89
277.952	114
278.168	60.76
278.383	142.68
278.599	-4.78
278.814	48.47
279.03	38.23
279.245	93.52
279.461	60.76
279.676	122.2
279.892	-45.74
280.107	-35.5
280.322	-31.4
280.538	75.09
280.753	66.9
280.969	81.24
281.184	-4.78
281.399	169.3
281.615	56.66
281.83	21.85
282.045	15.7
282.26	23.89
282.476	124.24
282.691	130.39
282.906	68.95
283.122	120.15
283.337	-49.83
283.552	136.53
283.767	-0.68
283.983	40.28
284.198	58.71
284.413	17.75
284.628	-15.02
284.843	-27.31
285.058	157.01
285.274	109.91
285.489	-12.97
285.704	83.28
285.919	-37.55
286.134	40.28
286.349	75.09
286.564	21.85
286.779	165.2
286.995	-29.35
287.21	-27.31
287.425	136.53
287.64	9.56
287.855	66.9
288.07	-58.03
288.285	114
288.5	128.34
288.715	21.85
288.93	103.76
289.145	-96.94
289.36	93.52
289.575	71
289.79	167.25
290.004	-21.16
290.219	64.85
290.434	5.46
290.649	89.43
290.864	21.85
291.079	68.95
291.294	79.19
291.509	46.42
291.724	13.65
291.938	-66.22
292.153	83.28
292.368	13.65
292.583	107.86
292.798	56.66
293.012	44.37
293.227	171.35
293.442	32.08
293.657	87.38
293.871	134.48
294.086	93.52
294.301	150.87
294.516	124.24
294.73	95.57
294.945	11.61
295.16	79.19
295.374	126.29
295.589	99.67
295.804	73.04
296.018	101.72
296.233	150.87
296.447	91.48
296.662	42.32
296.877	189.78
297.091	19.8
297.306	60.76
297.52	95.57
297.735	-0.68
297.949	107.86
298.164	34.13
298.378	19.8
298.593	-17.07
298.807	-49.83
299.022	32.08
299.236	187.73
299.451	32.08
299.665	-35.5
299.88	71
300.094	60.76
300.309	56.66
300.523	52.56
300.737	-6.83
300.952	85.33
301.166	109.91
301.381	46.42
301.595	1.37
301.809	-6.83
302.024	-15.02
302.238	-8.87
302.452	187.73
302.667	-25.26
302.881	114
303.095	138.58
303.309	48.47
303.524	3.41
303.738	-12.97
303.952	-37.55
304.166	138.58
304.381	-146.09
304.595	187.73
304.809	38.23
305.023	19.8
305.237	15.7
305.452	-2.73
305.666	101.72
305.88	66.9
306.094	42.32
306.308	17.75
306.522	27.99
306.736	27.99
306.95	150.87
307.164	40.28
307.379	19.8
307.593	118.1
307.807	165.2
308.021	146.77
308.235	71
308.449	-45.74
308.663	-21.16
308.877	187.73
309.091	48.47
309.305	109.91
309.519	-111.27
309.733	152.92
309.947	-82.6
310.161	50.52
310.374	93.52
310.588	130.39
310.802	32.08
311.016	58.71
311.23	95.57
311.444	-92.84
311.658	64.85
311.872	75.09
312.085	99.67
312.299	109.91
312.513	140.63
312.727	42.32
312.941	11.61
313.154	48.47
313.368	32.08
313.582	5.46
313.796	109.91
314.009	25.94
314.223	105.81
314.437	85.33
314.651	136.53
314.864	-19.11
315.078	-2.73
315.292	-70.31
315.505	42.32
315.719	107.86
315.933	34.13
316.146	-31.4
316.36	-39.59
316.573	152.92
316.787	30.04
317.001	101.72
317.214	-21.16
317.428	105.81
317.641	-33.45
317.855	11.61
318.068	23.89
318.282	44.37
318.495	193.87
318.709	62.8
318.922	-15.02
319.136	181.59
319.349	157.01
319.563	50.52
319.776	36.18
319.99	1.37
320.203	126.29
320.417	25.94
320.63	177.49
320.843	240.98
321.057	30.04
321.27	38.23
321.483	177.49
321.697	220.5
321.91	23.89
322.124	-31.4
322.337	109.91
322.55	71
322.763	-41.64
322.977	13.65
323.19	38.23
323.403	25.94
323.617	97.62
323.83	144.72
324.043	54.61
324.256	93.52
324.469	-76.46
324.683	134.48
324.896	77.14
325.109	-4.78
325.322	5.46
325.535	107.86
325.748	118.1
325.962	-0.68
326.175	116.05
326.388	64.85
326.601	148.82
326.814	-74.41
327.027	44.37
327.24	142.68
327.453	-43.69
327.666	23.89
327.879	120.15
328.092	38.23
328.305	91.48
328.518	36.18
328.731	9.56
328.944	-47.79
329.157	21.85
329.37	38.23
329.583	191.83
329.796	146.77
330.009	-62.12
330.222	40.28
330.435	183.63
330.648	32.08
330.861	71
331.073	54.61
331.286	46.42
331.499	54.61
331.712	-31.4
331.925	85.33
332.138	23.89
332.35	142.68
332.563	7.51
332.776	138.58
332.989	-84.65
333.202	44.37
333.414	85.33
333.627	19.8
333.84	-31.4
334.053	77.14
334.265	40.28
334.478	7.51
334.691	38.23
334.903	81.24
335.116	99.67
335.329	93.52
335.541	81.24
335.754	124.24
335.966	-10.92
336.179	-29.35
336.392	25.94
336.604	11.61
336.817	140.63
337.029	44.37
337.242	66.9
337.454	73.04
337.667	38.23
337.88	132.44
338.092	101.72
338.305	99.67
338.517	-6.83
338.729	105.81
338.942	97.62
339.154	-21.16
339.367	-15.02
339.579	116.05
339.792	-2.73
340.004	71
340.217	44.37
340.429	64.85
340.641	30.04
340.854	-45.74
341.066	38.23
341.278	111.96
341.491	79.19
341.703	99.67
341.915	11.61
342.128	187.73
342.34	87.38
342.552	13.65
342.764	32.08
342.977	19.8
343.189	64.85
343.401	-6.83
343.613	-12.97
343.826	109.91
344.038	-25.26
344.25	15.7
344.462	5.46
344.674	77.14
344.886	19.8
345.099	122.2
345.311	30.04
345.523	-72.36
345.735	-62.12
345.947	23.89
346.159	34.13
346.371	62.8
346.583	-17.07
346.795	163.15
347.007	-43.69
347.219	83.28
347.431	23.89
347.643	120.15
347.855	21.85
348.067	118.1
348.279	-23.21
348.491	54.61
348.703	101.72
348.915	40.28
349.127	44.37
349.339	62.8
349.551	-109.22
349.763	66.9
349.975	103.76
350.187	167.25
350.399	169.3
350.61	71
350.822	23.89
351.034	103.76
351.246	99.67
351.458	85.33
351.669	154.96
351.881	212.31
352.093	60.76
352.305	136.53
352.517	58.71
352.728	130.39
352.94	120.15
353.152	30.04
353.363	15.7
353.575	27.99
353.787	154.96
353.999	134.48
354.21	171.35
354.422	-68.27
354.633	-10.92
354.845	30.04
355.057	99.67
355.268	11.61
355.48	97.62
355.692	-27.31
355.903	134.48
356.115	-6.83
356.326	-2.73
356.538	163.15
356.749	54.61
356.961	161.11
357.172	-10.92
357.384	25.94
357.595	202.07
357.807	5.46
358.018	-0.68
358.23	-76.46
358.441	152.92
358.653	128.34
358.864	50.52
359.075	122.2
359.287	40.28
359.498	56.66
359.709	23.89
359.921	13.65
360.132	91.48
360.344	99.67
360.555	-23.21
360.766	19.8
360.977	32.08
361.189	99.67
361.4	17.75
361.611	105.81
361.823	109.91
362.034	64.85
362.245	5.46
362.456	21.85
362.667	40.28
362.879	-17.07
363.09	95.57
363.301	19.8
363.512	-12.97
363.723	27.99
363.935	7.51
364.146	111.96
364.357	23.89
364.568	97.62
364.779	-98.99
364.99	99.67
365.201	-29.35
365.412	124.24
365.623	-66.22
365.834	73.04
366.045	44.37
366.256	111.96
366.467	38.23
366.678	32.08
366.889	85.33
367.1	17.75
367.311	105.81
367.522	44.37
367.733	101.72
367.944	124.24
368.155	27.99
368.366	126.29
368.577	89.43
368.788	181.59
368.999	-15.02
369.209	36.18
369.42	232.79
369.631	210.26
369.842	81.24
370.053	32.08
370.264	214.35
370.474	40.28
370.685	66.9
370.896	95.57
371.107	148.82
371.317	44.37
371.528	46.42
371.739	136.53
371.95	25.94
372.16	118.1
372.371	30.04
372.582	23.89
372.792	71
373.003	-8.87
373.214	103.76
373.424	118.1
373.635	-0.68
373.846	214.35
374.056	73.04
374.267	89.43
374.477	146.77
374.688	30.04
374.898	95.57
375.109	-0.68
375.319	40.28
375.53	77.14
375.74	169.3
375.951	73.04
376.161	93.52
376.372	109.91
376.582	-74.41
376.793	83.28
377.003	-37.55
377.214	-33.45
377.424	93.52
377.635	-25.26
377.845	-31.4
378.055	71
378.266	-47.79
378.476	17.75
378.686	23.89
378.897	44.37
379.107	185.68
379.317	9.56
379.528	-21.16
379.738	60.76
379.948	5.46
380.158	111.96
380.369	71
380.579	85.33
380.789	46.42
380.999	42.32
381.21	173.39
381.42	220.5
381.63	15.7
381.84	83.28
382.05	60.76
382.261	54.61
382.471	66.9
382.681	-10.92
382.891	187.73
383.101	-0.68
383.311	-15.02
383.521	11.61
383.731	46.42
383.941	77.14
384.151	71
384.361	62.8
384.571	105.81
384.781	87.38
384.991	179.54
385.201	224.59
385.411	52.56
385.621	68.95
385.831	77.14
386.041	7.51
386.251	13.65
386.461	101.72
386.671	30.04
386.881	105.81
387.091	60.76
387.301	99.67
387.511	58.71
387.72	138.58
387.93	9.56
388.14	-45.74
388.35	93.52
388.56	111.96
388.769	99.67
388.979	71
389.189	-31.4
389.399	75.09
389.609	107.86
389.818	122.2
390.028	-0.68
390.238	116.05
390.447	40.28
390.657	142.68
390.867	27.99
391.076	-29.35
391.286	38.23
391.496	120.15
391.705	68.95
391.915	169.3
392.125	206.16
392.334	42.32
392.544	173.39
392.753	71
392.963	-76.46
393.172	-27.31
393.382	-17.07
393.591	236.88
393.801	-12.97
394.01	173.39
394.22	52.56
394.429	48.47
394.639	73.04
394.848	52.56
395.058	54.61
395.267	15.7
395.477	140.63
395.686	77.14
395.895	185.68
396.105	218.45
396.314	44.37
396.524	27.99
396.733	101.72
396.942	140.63
397.152	87.38
397.361	99.67
397.57	19.8
397.78	97.62
397.989	68.95
398.198	193.87
398.407	-27.31
398.617	62.8
398.826	17.75
399.035	44.37
399.244	195.92
399.453	-4.78
399.663	23.89
399.872	99.67
400.081	23.89
400.29	214.35
400.499	-4.78
400.708	62.8
400.917	15.7
401.127	30.04
401.336	-35.5
401.545	220.5
401.754	136.53
401.963	111.96
402.172	64.85
402.381	-53.93
402.59	79.19
402.799	54.61
403.008	173.39
403.217	64.85
403.426	62.8
403.635	-41.64
403.844	71
404.053	128.34
404.262	13.65
404.471	191.83
404.68	152.92
404.888	75.09
405.097	3.41
405.306	138.58
405.515	128.34
405.724	1.37
405.933	79.19
406.142	46.42
406.35	138.58
406.559	-12.97
406.768	66.9
406.977	197.97
407.185	15.7
407.394	46.42
407.603	-51.88
407.812	66.9
408.02	126.29
408.229	103.76
408.438	138.58
408.646	1.37
408.855	34.13
409.064	116.05
409.272	-21.16
409.481	124.24
409.69	68.95
409.898	-27.31
410.107	21.85
410.315	148.82
410.524	-4.78
410.733	93.52
410.941	-58.03
411.15	175.44
411.358	134.48
411.567	159.06
411.775	79.19
411.984	30.04
412.192	146.77
412.401	5.46
412.609	165.2
412.818	118.1
413.026	81.24
413.234	5.46
413.443	56.66
413.651	34.13
413.86	25.94
414.068	152.92
414.276	179.54
414.485	3.41
414.693	181.59
414.901	247.12
415.11	87.38
415.318	-27.31
415.526	124.24
415.734	138.58
415.943	118.1
416.151	109.91
416.359	87.38
416.567	56.66
416.776	142.68
416.984	85.33
417.192	134.48
417.4	38.23
417.608	58.71
417.817	30.04
418.025	103.76
418.233	167.25
418.441	13.65
418.649	38.23
418.857	187.73
419.065	103.76
419.273	17.75
419.481	19.8
419.689	124.24
419.897	1.37
420.105	-21.16
420.313	120.15
420.521	99.67
420.729	142.68
420.937	48.47
421.145	11.61
421.353	103.76
421.561	230.74
421.769	89.43
421.977	3.41
422.185	101.72
422.393	62.8
422.601	71
422.809	85.33
423.017	25.94
423.224	23.89
423.432	159.06
423.64	109.91
423.848	66.9
424.056	44.37
424.263	71
424.471	-0.68
424.679	157.01
424.887	25.94
425.094	173.39
425.302	150.87
425.51	13.65
425.718	175.44
425.925	126.29
426.133	21.85
426.341	247.12
426.548	34.13
426.756	21.85
426.964	138.58
427.171	32.08
427.379	163.15
427.586	50.52
427.794	132.44
428.001	169.3
428.209	81.24
428.417	134.48
428.624	212.31
428.832	134.48
429.039	152.92
429.247	68.95
429.454	206.16
429.662	222.55
429.869	124.24
430.076	167.25
430.284	93.52
430.491	128.34
430.699	173.39
430.906	218.45
431.114	175.44
431.321	85.33
431.528	130.39
431.736	259.41
431.943	286.03
432.15	152.92
432.358	126.29
432.565	290.13
432.772	34.13
432.979	261.46
433.187	177.49
433.394	269.65
433.601	189.78
433.808	298.32
434.016	277.84
434.223	277.84
434.43	191.83
434.637	240.98
434.844	243.03
435.052	288.08
435.259	324.94
435.466	304.46
435.673	312.66
435.88	333.14
436.087	349.52
436.294	298.32
436.501	349.52
436.708	292.18
436.915	392.53
437.122	415.06
437.329	283.99
437.537	394.58
437.743	386.38
437.95	560.46
438.157	447.82
438.364	376.14
438.571	370
438.778	499.02
438.985	529.74
439.192	585.04
439.399	394.58
439.606	533.84
439.813	589.13
440.02	568.65
440.227	615.76
440.433	601.42
440.64	617.8
440.847	617.8
441.054	750.92
441.261	814.41
441.467	650.57
441.674	648.52
441.881	843.08
442.088	779.59
442.294	798.03
442.501	859.46
442.708	873.8
442.914	832.84
443.121	980.29
443.328	976.2
443.534	1006.92
443.741	1076.55
443.948	933.19
444.154	1123.65
444.361	1369.41
444.568	1172.8
444.774	1156.42
444.981	1086.79
445.187	1277.25
445.394	1215.81
445.6	1285.44
445.807	1500.48
446.013	1436.99
446.22	1297.73
446.426	1541.44
446.633	1582.4
446.839	1897.78
447.046	1576.25
447.252	1797.43
447.459	1803.58
447.665	1836.35
447.871	2039.09
448.078	2194.74
448.284	2166.07
448.491	2297.14
448.697	2374.96
448.903	2493.74
449.11	2385.2
449.316	2331.95
449.522	2602.29
449.728	2704.68
449.935	2868.52
450.141	2768.17
450.347	2975.02
450.553	3028.26
450.76	3038.5
450.966	3194.15
451.172	3314.98
451.378	3454.24
451.584	3642.65
451.791	3915.03
451.997	3912.99
452.203	3923.23
452.409	4185.37
452.615	4269.33
452.821	4312.34
453.027	4209.94
453.233	4771.08
453.44	4779.28
453.646	4928.78
453.852	5119.24
454.058	5299.46
454.264	5496.07
454.47	5926.14
454.676	5889.28
454.882	6354.16
455.088	6221.05
455.294	6345.97
455.5	7007.47
455.705	7326.95
455.911	7218.41
456.117	7372
456.323	7892.19
456.529	7738.59
456.735	8410.32
456.941	8375.51
457.147	9055.44
457.352	9114.83
457.558	9422.02
457.764	10192.06
457.97	10259.64
458.176	10638.51
458.381	11107.5
458.587	11334.82
458.793	12233.88
458.999	11842.72
459.204	13468.81
459.41	13806.72
459.616	13759.62
459.821	14703.73
460.027	15092.85
460.233	15807.59
460.438	16161.89
460.644	17075.28
460.85	16962.64
461.055	17742.92
461.261	18424.89
461.466	17933.38
461.672	18498.62
461.878	20919.32
462.083	20403.23
462.289	20587.55
462.494	22033.41
462.7	21672.97
462.905	22076.42
463.111	24007.65
463.316	25129.94
463.522	25875.4
463.727	26518.46
463.932	27227.06
464.138	27990.95
464.343	29342.61
464.549	29672.34
464.754	31755.12
464.959	32732
465.165	33094.49
465.37	32682.85
465.575	33157.98
465.781	35091.26
465.986	36258.6
466.191	35251
466.397	35951.41
466.602	34583.37
466.807	37303.07
467.012	37339.93
467.218	38404.88
467.423	38224.65
467.628	39439.1
467.833	41122.53
468.038	40923.88
468.244	40129.26
468.449	41886.42
468.654	41028.32
468.859	41186.02
469.064	41130.72
469.269	39981.81
469.474	40493.8
469.679	41388.77
469.885	40047.35
470.09	41282.27
470.295	41308.9
470.5	40436.46
470.705	40577.77
470.91	39150.34
471.115	38894.34
471.32	39682.81
471.525	38824.71
471.73	38069.01
471.935	37618.46
472.139	36475.69
472.344	36776.74
472.549	36436.78
472.754	35507
472.959	34612.04
473.164	33917.78
473.369	33461.08
473.574	34163.53
473.778	33698.64
473.983	33010.53
474.188	32168.81
474.393	31056.76
474.598	30718.85
474.802	29907.85
475.007	30094.22
475.212	29492.12
475.417	28214.18
475.621	28042.15
475.826	27683.76
476.031	26971.07
476.235	26731.45
476.44	26620.86
476.645	26000.33
476.849	25578.45
477.054	25175
477.259	24822.75
477.463	24765.4
477.668	23452.66
477.872	23464.94
478.077	23249.91
478.282	22938.62
478.486	22275.07
478.691	21875.72
478.895	21949.45
479.1	21765.13
479.304	21734.41
479.509	20718.62
479.713	21210.13
479.918	20618.27
480.122	20304.93
480.326	20587.55
480.531	20700.19
480.735	20128.8
480.94	20096.03
481.144	20407.33
481.348	19194.93
481.553	19504.17
481.757	18766.9
481.961	19430.44
482.166	19131.44
482.37	19070
482.574	18418.75
482.778	18590.78
482.983	18951.22
483.187	18400.32
483.391	18293.82
483.595	18230.34
483.8	17712.2
484.004	17783.88
484.208	17888.32
484.412	17417.29
484.616	17476.68
484.821	16893.01
485.025	16405.59
485.229	16725.08
485.433	16188.51
485.637	16421.98
485.841	16192.61
486.045	15596.65
486.249	15615.08
486.453	15371.37
486.657	15279.21
486.861	15006.83
487.065	14388.35
487.269	14615.67
487.473	14111.87
487.677	14310.52
487.881	13937.79
488.085	13638.79
488.289	13599.88
488.493	13028.49
488.697	13091.98
488.901	12997.77
489.105	12358.81
489.309	12319.9
489.512	12156.06
489.716	11918.5
489.92	11646.12
490.124	11482.28
490.328	11420.84
490.531	11107.5
490.735	10955.95
490.939	10953.9
491.143	10470.58
491.346	10398.9
491.55	10357.94
491.754	10192.06
491.958	10093.76
492.161	9764.03
492.365	9481.41
492.569	9286.86
492.772	9241.8
492.976	9399.49
493.18	9039.05
493.383	8920.27
493.587	8936.65
493.79	9006.28
493.994	8518.87
494.197	8604.88
494.401	8418.52
494.605	8244.44
494.808	8455.38
495.012	8330.45
495.215	8309.97
495.419	8219.86
495.622	7951.58
495.825	8096.99
496.029	7902.43
496.232	8099.03
496.436	7900.38
496.639	8031.45
496.843	7720.16
497.046	7967.96
497.249	8066.27
497.453	7738.59
497.656	7853.28
497.859	7724.26
498.063	7933.15
498.266	7871.71
498.469	7781.6
498.673	7814.37
498.876	7892.19
499.079	7808.22
499.282	7810.27
499.485	8240.34
499.689	8023.26
499.892	8248.54
500.095	7963.87
500.298	8393.94
500.501	8051.93
500.705	8422.61
500.908	8299.73
501.111	8500.44
501.314	8623.31
501.517	8651.99
501.72	8631.51
501.923	8641.75
502.126	8815.82
502.329	9059.53
502.532	9245.9
502.735	8975.56
502.938	9358.53
503.141	9239.75
503.344	9372.87
503.547	9630.91
503.75	9458.89
503.953	9815.23
504.156	9788.61
504.359	9940.16
504.562	9917.63
504.765	10308.79
504.968	10292.41
505.17	10417.33
505.373	10603.7
505.576	10714.29
505.779	11033.77
505.982	10996.91
506.185	11287.72
506.387	11535.53
506.59	11730.08
506.793	12018.85
506.996	11975.84
507.198	12627.09
507.401	12680.34
507.604	12891.28
507.807	12997.77
508.009	13216.91
508.212	13694.08
508.415	13839.49
508.617	13952.13
508.82	14240.89
509.022	14236.8
509.225	14892.15
509.428	15084.66
509.63	15494.25
509.833	15522.92
510.035	16299.1
510.238	16254.05
510.44	16698.45
510.643	17300.56
510.845	17505.35
511.048	17722.44
511.25	18113.6
511.453	18416.7
511.655	19629.1
511.858	19264.56
512.06	19901.48
512.262	20096.03
512.465	20425.76
512.667	21165.07
512.87	21660.68
513.072	21845
513.274	22549.5
513.477	22871.03
513.679	23765.99
513.881	24230.88
514.084	24703.96
514.286	24726.49
514.488	25357.27
514.69	26323.91
514.893	26506.18
515.095	27177.91
515.297	27466.67
515.499	28261.29
515.701	28828.57
515.904	29543.31
516.106	29825.93
516.308	30589.83
516.51	31144.83
516.712	31343.48
516.914	32498.53
517.116	33026.91
517.318	33383.26
517.52	34057.04
517.722	34415.43
517.925	34943.81
518.127	36209.45
518.329	36932.39
518.531	36496.17
518.733	37190.43
518.935	38218.51
519.136	38605.58
519.338	39152.38
519.54	39537.4
519.742	40714.98
519.944	40905.45
520.146	41661.15
520.348	42001.11
520.55	42648.27
520.752	42762.95
520.954	43737.79
521.155	43522.75
521.357	44196.53
521.559	45101.73
521.761	45742.75
521.963	45888.15
522.164	46226.07
522.366	46158.49
522.568	46940.81
522.77	47387.27
522.971	47866.49
523.173	47143.56
523.375	48358
523.576	48190.07
523.778	48261.75
523.98	48372.34
524.181	49099.37
524.383	48984.68
524.584	49353.32
524.786	49119.85
524.988	49082.98
525.189	49465.95
525.391	49750.62
525.592	49562.21
525.794	49511.01
525.995	49660.51
526.197	49586.78
526.398	49574.5
526.6	49222.25
526.801	49056.36
527.003	48956.01
527.204	48652.91
527.406	48706.16
527.607	48206.45
527.808	48398.96
528.01	47561.34
528.211	47624.83
528.412	48251.51
528.614	47454.85
528.815	47123.08
529.016	47164.04
529.218	45994.65
529.419	45816.47
529.62	45167.27
529.822	45118.12
530.023	44352.18
530.224	43844.28
530.425	43455.17
530.626	43090.63
530.828	42914.5
531.029	43094.72
531.23	41816.79
531.431	41296.61
531.632	41013.99
531.833	40915.69
532.035	40108.79
532.236	39658.23
532.437	39484.15
532.638	38257.42
532.839	38345.48
533.04	37696.28
533.241	37294.88
533.442	37184.29
533.643	36422.44
533.844	35851.06
534.045	35717.94
534.246	34587.46
534.447	34675.52
534.648	33647.44
534.849	33332.06
535.05	32940.89
535.251	32863.07
535.451	32168.81
535.652	32117.61
535.853	31298.42
536.054	31146.87
536.255	30858.11
536.456	29739.92
536.657	29854.61
536.857	29121.43
537.058	28984.22
537.259	28666.78
537.46	28263.33
537.66	27724.72
537.861	27347.89
538.062	26866.62
538.263	26827.71
538.463	26452.93
538.664	25938.89
538.865	25957.32
539.065	25637.84
539.266	25101.27
539.466	25093.08
539.667	24581.09
539.868	24484.83
540.068	23847.91
540.269	23423.98
540.469	23436.27
540.67	22991.86
540.87	22963.19
541.071	22576.12
541.271	22389.76
541.472	22023.17
541.672	22031.37
541.873	21478.41
542.073	21027.86
542.274	21384.21
542.474	20800.54
542.675	20648.99
542.875	20546.59
543.075	20012.07
543.276	19897.38
543.476	19889.19
543.676	19389.49
543.877	19182.64
544.077	18951.22
544.277	19006.52
544.478	18678.84
544.678	18816.05
544.878	18189.38
545.078	17988.67
545.279	17706.06
545.479	17466.44
545.679	17683.53
545.879	17226.83
546.079	16774.23
546.28	16659.54
546.48	16524.38
546.68	16532.57
546.88	16233.57
547.08	16024.67
547.28	15901.79
547.48	15535.21
547.68	15547.5
547.88	15275.12
548.081	15178.86
548.281	14673.01
548.481	14613.62
548.681	14675.06
548.881	14230.65
549.081	14111.87
549.28	13907.07
549.48	13737.09
549.68	13534.34
549.88	13442.18
550.08	13264.01
550.28	13214.86
550.48	13149.32
550.68	12520.6
550.88	12483.73
551.08	12532.89
551.279	12379.29
551.479	11869.34
551.679	11988.13
551.879	11574.44
552.079	11494.57
552.278	11226.28
552.478	11599.01
552.678	11130.03
552.878	10865.84
553.077	10583.22
553.277	10468.53
553.477	10376.38
553.676	10372.28
553.876	10235.07
554.076	10015.93
554.275	9678.02
554.475	9389.25
554.674	9657.54
554.874	9284.81
555.074	9049.29
555.273	9112.78
555.473	8918.22
555.672	8793.3
555.872	8772.82
556.071	8371.41
556.271	8432.85
556.47	8047.83
556.67	8137.95
556.869	8072.41
557.068	8010.97
557.268	7654.62
557.467	7544.03
557.667	7498.98
557.866	7351.53
558.065	7120.1
558.265	7036.14
558.464	6866.16
558.663	6976.75
558.863	6700.27
559.062	6649.07
559.261	6421.75
559.461	6565.11
559.66	6350.07
559.859	6008.06
560.058	6135.03
560.258	6024.44
560.457	5919.99
560.656	6036.73
560.855	5745.92
561.054	5758.21
561.253	5647.62
561.453	5481.73
561.652	5401.86
561.851	5451.01
562.05	5344.52
562.249	5025.03
562.448	5217.54
562.647	5123.34
562.846	4885.77
563.045	4957.45
563.244	4740.36
563.443	4695.31
563.642	4381.97
563.841	4627.73
564.04	4478.22
564.239	4474.13
564.438	4422.93
564.637	4193.56
564.836	4140.31
565.035	4193.56
565.234	4226.32
565.432	4011.29
565.631	3996.95
565.83	3910.94
566.029	3947.8
566.228	3757.34
566.427	3931.42
566.625	3609.89
566.824	3734.81
567.023	3646.75
567.222	3605.79
567.42	3579.17
567.619	3636.51
567.818	3468.58
568.016	3630.37
568.215	3435.81
568.414	3370.27
568.612	3345.7
568.811	3304.74
569.01	3169.57
569.208	3159.33
569.407	3058.98
569.605	3020.07
569.804	3061.03
570.002	3210.53
570.201	2889
570.4	2938.15
570.598	2809.13
570.797	2770.22
570.995	2821.42
571.193	2917.67
571.392	2753.84
571.59	2540.85
571.789	2655.53
571.987	2612.53
572.186	2688.3
572.384	2557.23
572.582	2409.78
572.781	2420.02
572.979	2389.3
573.177	2356.53
573.376	2368.82
573.574	2420.02
573.772	2284.85
573.971	2166.07
574.169	2141.49
574.367	2245.94
574.565	2090.29
574.763	2051.38
574.962	2035
575.16	1975.61
575.358	1979.7
575.556	2016.57
575.754	1981.75
575.952	1797.43
576.151	1938.74
576.349	1975.61
576.547	1725.76
576.745	1793.34
576.943	1836.35
577.141	1680.7
577.339	1729.85
577.537	1551.68
577.735	1770.81
577.933	1631.55
578.131	1553.73
578.329	1707.32
578.527	1432.9
578.725	1559.87
578.923	1365.31
579.121	1580.35
579.319	1416.51
579.516	1432.9
579.714	1600.83
579.912	1430.85
580.11	1330.5
580.308	1377.6
580.506	1377.6
580.704	1195.33
580.901	1332.55
581.099	1379.65
581.297	1281.35
581.495	1267.01
581.692	1256.77
581.89	1404.22
582.088	1152.32
582.285	1248.58
582.483	1140.04
582.681	1170.76
582.878	1142.08
583.076	1207.62
583.274	1166.66
583.471	1246.53
583.669	1082.69
583.866	972.1
584.064	984.39
584.262	953.67
584.459	947.53
584.657	1054.02
584.854	1054.02
585.052	984.39
585.249	1000.77
585.447	1013.06
585.644	847.18
585.841	961.86
586.039	955.72
586.236	1008.97
586.434	824.65
586.631	857.42
586.828	787.79
587.026	906.57
587.223	748.87
587.42	783.69
587.618	824.65
587.815	847.18
588.012	820.55
588.21	804.17
588.407	847.18
588.604	898.38
588.801	685.39
588.999	832.84
589.196	838.98
589.393	666.96
589.59	767.31
589.787	738.63
589.984	808.27
590.182	795.98
590.379	701.77
590.576	669
590.773	621.9
590.97	699.72
591.167	736.59
591.364	736.59
591.561	669
591.758	757.07
591.955	634.19
592.152	623.95
592.349	679.24
592.546	658.76
592.743	707.91
592.94	709.96
593.137	742.73
593.334	675.15
593.531	771.4
593.727	742.73
593.924	726.35
594.121	703.82
594.318	611.66
594.515	679.24
594.712	826.7
594.908	847.18
595.105	603.47
595.302	769.35
595.499	705.87
595.696	900.42
595.892	626
596.089	900.42
596.286	806.22
596.482	879.94
596.679	855.37
596.876	812.36
597.072	830.79
597.269	873.8
597.466	847.18
597.662	853.32
597.859	879.94
598.055	922.95
598.252	1019.21
598.448	1090.88
598.645	1142.08
598.841	1105.22
599.038	1344.83
599.234	1307.97
599.431	1260.87
599.627	1297.73
599.824	1353.02
600.02	1410.37
600.217	1418.56
600.413	1545.53
600.609	1568.06
600.806	1832.25
601.002	1611.07
601.198	1721.66
601.395	1824.06
601.591	1744.19
601.787	1928.5
601.984	2098.49
602.18	2217.27
602.376	2168.12
602.572	2098.49
602.769	2321.71
602.965	2405.68
603.161	2528.56
603.357	2546.99
603.553	2653.48
603.75	2684.2
603.946	2745.64
604.142	2934.06
604.338	3056.93
604.534	3056.93
604.73	3183.91
604.926	3376.42
605.122	3466.53
605.318	3525.92
605.514	3583.26
605.71	3579.17
605.906	4025.62
606.102	3894.55
606.298	4105.49
606.494	4285.72
606.69	4375.83
606.886	4476.18
607.082	4369.68
607.278	4615.44
607.474	4855.05
607.67	4992.27
607.866	5080.33
608.062	5266.69
608.257	5309.7
608.453	5590.27
608.649	5758.21
608.845	5692.67
609.041	6016.25
609.236	6194.42
609.432	6350.07
609.628	6474.99
609.824	6720.75
610.019	6812.91
610.215	7107.82
610.411	7367.91
610.606	7589.09
610.802	7619.81
610.998	7662.82
611.193	8275.16
611.389	8119.51
611.584	8584.4
611.78	8531.16
611.976	8733.9
612.171	9354.44
612.367	9293
612.562	9522.37
612.758	9821.38
612.953	10126.52
613.149	10357.94
613.344	10579.12
613.539	10902.7
613.735	11189.42
613.93	11644.07
614.126	11771.04
614.321	12360.86
614.517	12641.43
614.712	12606.61
614.907	13069.45
615.103	13616.26
615.298	13763.72
615.493	14148.73
615.688	14204.03
615.884	15021.17
616.079	15148.14
616.274	15686.76
616.47	15801.44
616.665	16276.57
616.86	16704.6
617.055	17011.79
617.25	17298.51
617.445	18152.51
617.641	18105.41
617.836	18879.54
618.031	19174.45
618.226	20067.36
618.421	20294.69
618.616	20759.58
618.811	21017.62
619.006	21851.14
619.201	21881.86
619.396	22758.39
619.591	22641.66
619.786	24011.75
619.981	24085.48
620.176	24943.58
620.371	25045.98
620.566	25625.55
620.761	26108.87
620.956	26850.24
621.151	26960.83
621.346	27972.52
621.541	28103.59
621.735	28994.46
621.93	29094.81
622.125	29940.62
622.32	29950.86
622.515	31144.83
622.709	31032.19
622.904	32013.16
623.099	32478.05
623.294	33084.25
623.488	33459.03
623.683	34548.55
623.878	34237.26
624.072	35459.9
624.267	35920.69
624.462	36176.69
624.656	36827.94
624.851	37595.93
625.046	37972.75
625.24	38290.19
625.435	38837
625.629	39559.93
625.824	39957.24
626.018	40596.2
626.213	40620.78
626.407	41525.98
626.602	41554.65
626.796	42234.58
626.991	43104.96
627.185	42865.35
627.38	43414.21
627.574	43821.75
627.768	43571.9
627.963	44303.03
628.157	44114.61
628.352	44659.37
628.546	43969.21
628.74	45126.31
628.935	44206.77
629.129	44372.66
629.323	43717.31
629.517	44051.13
629.712	43549.37
629.906	43422.4
630.1	42726.09
630.294	43102.92
630.489	42056.4
630.683	41855.7
630.877	40803.05
631.071	39940.85
631.265	40049.39
631.459	38937.35
631.653	38249.23
631.848	37108.51
632.042	36299.56
632.236	35836.72
632.43	35040.06
632.624	34206.54
632.818	32951.13
633.012	31648.63
633.206	30847.87
633.4	30368.65
633.594	28779.42
633.788	28431.27
633.982	27816.88
634.176	26297.28
634.369	24869.85
634.563	24345.57
634.757	23213.04
634.951	22770.68
635.145	21914.63
635.339	20880.41
635.533	20057.12
635.726	19489.84
635.92	18406.46
636.114	17579.08
636.308	16835.67
636.501	16444.51
636.695	15789.16
636.889	14967.92
637.083	14580.85
637.276	13896.83
637.47	13397.13
637.664	12575.89
637.857	12428.44
638.051	11967.65
638.244	11224.23
638.438	11039.92
638.632	10560.69
638.825	9807.04
639.019	9839.81
639.212	9241.8
639.406	8922.32
639.599	8551.63
639.793	8307.93
639.986	7967.96
640.18	7595.23
640.373	7283.94
640.567	6900.97
640.76	6683.89
640.954	6505.71
641.147	6276.34
641.34	5977.34
641.534	5772.54
641.727	5745.92
641.92	5393.67
642.114	4984.07
642.307	4812.04
642.5	4818.19
642.694	4678.93
642.887	4494.61
643.08	4439.31
643.273	4162.84
643.467	3976.47
643.66	3732.76
643.853	3507.49
644.046	3419.43
644.239	3460.38
644.432	3200.29
644.626	3003.69
644.819	2889
645.012	2782.51
645.205	2774.31
645.398	2782.51
645.591	2555.18
645.784	2604.33
645.977	2438.45
646.17	2295.09
646.363	2227.51
646.556	2030.9
646.749	1977.66
646.942	2006.33
647.135	1914.17
647.328	1789.24
647.521	1695.04
647.714	1656.12
647.907	1645.88
648.099	1535.29
648.292	1711.42
648.485	1512.77
648.678	1400.13
648.871	1387.84
649.064	1400.13
649.256	1199.43
649.449	1144.13
649.642	1146.18
649.835	1078.6
650.027	1047.88
650.22	1254.72
650.413	1072.45
650.605	1000.77
650.798	902.47
650.991	953.67
651.183	892.23
651.376	879.94
651.568	857.42
651.761	781.64
651.954	767.31
652.146	650.57
652.339	773.45
652.531	755.02
652.724	695.63
652.916	632.14
653.109	562.51
653.301	685.39
653.494	689.48
653.686	644.43
653.879	740.68
654.071	621.9
654.263	519.5
654.456	523.6
654.648	697.67
654.84	599.37
655.033	515.41
655.225	609.61
655.417	382.29
655.61	548.17
655.802	478.54
655.994	507.21
656.186	361.81
656.379	474.45
656.571	349.52
656.763	339.28
656.955	423.25
657.148	388.43
657.34	499.02
657.532	419.15
657.724	413.01
657.916	365.9
658.108	515.41
658.3	308.56
658.492	322.9
658.684	312.66
658.876	347.47
659.068	230.74
659.26	154.96
659.452	238.93
659.644	341.33
659.836	468.3
660.028	240.98
660.22	191.83
660.412	259.41
660.604	292.18
660.796	226.64
660.988	355.66
661.18	347.47
661.372	339.28
661.563	269.65
661.755	173.39
661.947	161.11
662.139	185.68
662.331	181.59
662.522	212.31
662.714	122.2
662.906	132.44
663.097	308.56
663.289	161.11
663.481	60.76
663.673	226.64
663.864	243.03
664.056	259.41
664.247	73.04
664.439	304.46
664.631	179.54
664.822	200.02
665.014	171.35
665.205	81.24
665.397	175.44
665.588	245.07
665.78	89.43
665.971	259.41
666.163	167.25
666.354	208.21
666.546	89.43
666.737	175.44
666.929	122.2
667.12	109.91
667.311	269.65
667.503	204.11
667.694	171.35
667.885	234.83
668.077	257.36
668.268	120.15
668.459	169.3
668.651	183.63
668.842	220.5
669.033	140.63
669.224	109.91
669.416	326.99
669.607	136.53
669.798	120.15
669.989	279.89
670.18	150.87
670.371	234.83
670.563	130.39
670.754	267.6
670.945	220.5
671.136	191.83
671.327	50.52
671.518	234.83
671.709	277.84
671.9	173.39
672.091	224.59
672.282	179.54
672.473	173.39
672.664	204.11
672.855	175.44
673.046	157.01
673.237	265.55
673.428	216.4
673.619	193.87
673.809	136.53
674	271.7
674.191	300.37
674.382	126.29
674.573	263.51
674.764	175.44
674.954	236.88
675.145	81.24
675.336	128.34
675.527	167.25
675.717	185.68
675.908	218.45
676.099	214.35
676.289	181.59
676.48	85.33
676.671	185.68
676.861	197.97
677.052	238.93
677.243	159.06
677.433	132.44
677.624	288.08
677.814	171.35
678.005	281.94
678.195	310.61
678.386	150.87
678.576	247.12
678.767	142.68
678.957	189.78
679.148	220.5
679.338	331.09
679.529	202.07
679.719	253.27
679.909	306.51
680.1	355.66
680.29	222.55
680.481	187.73
680.671	267.6
680.861	240.98
681.052	240.98
681.242	283.99
681.432	308.56
681.622	261.46
681.813	214.35
682.003	238.93
682.193	265.55
682.383	181.59
682.573	189.78
682.764	197.97
682.954	238.93
683.144	283.99
683.334	245.07
683.524	226.64
683.714	306.51
683.904	300.37
684.094	197.97
684.284	243.03
684.474	408.91
684.664	345.42
684.854	316.75
685.044	261.46
685.234	169.3
685.424	271.7
685.614	228.69
685.804	378.19
685.994	273.75
686.184	263.51
686.374	296.27
686.564	320.85
686.753	386.38
686.943	240.98
687.133	243.03
687.323	245.07
687.513	302.42
687.702	238.93
687.892	281.94
688.082	304.46
688.272	339.28
688.461	281.94
688.651	464.21
688.841	281.94
689.03	173.39
689.22	277.84
689.41	351.57
689.599	247.12
689.789	253.27
689.979	324.94
690.168	206.16
690.358	312.66
690.547	292.18
690.737	310.61
690.926	310.61
691.116	277.84
691.305	349.52
691.495	314.7
691.684	171.35
691.874	185.68
692.063	269.65
692.252	294.22
692.442	288.08
692.631	265.55
692.82	202.07
693.01	308.56
693.199	179.54
693.388	290.13
693.578	275.79
693.767	271.7
693.956	236.88
694.146	214.35
694.335	232.79
694.524	200.02
694.713	310.61
694.902	187.73
695.092	169.3
695.281	228.69
695.47	247.12
695.659	136.53
695.848	265.55
696.037	120.15
696.226	212.31
696.415	224.59
696.604	347.47
696.793	318.8
696.982	212.31
697.171	349.52
697.36	234.83
697.549	195.92
697.738	130.39
697.927	263.51
698.116	175.44
698.305	263.51
698.494	236.88
698.683	179.54
698.872	394.58
699.061	193.87
699.25	243.03
699.438	167.25
699.627	218.45
699.816	335.18
700.005	132.44
700.193	122.2
700.382	222.55
700.571	204.11
700.76	302.42
700.948	191.83
701.137	273.75
701.326	185.68
701.514	101.72
701.703	294.22
701.892	210.26
702.08	376.14
702.269	187.73
702.457	189.78
702.646	224.59
702.834	245.07
703.023	318.8
703.212	259.41
703.4	228.69
703.589	159.06
703.777	177.49
703.965	122.2
704.154	120.15
704.342	124.24
704.531	249.17
704.719	111.96
704.907	228.69
705.096	171.35
705.284	58.71
705.472	220.5
705.661	247.12
705.849	277.84
706.037	240.98
706.226	218.45
706.414	339.28
706.602	146.77
706.79	277.84
706.979	146.77
707.167	154.96
707.355	52.56
707.543	214.35
707.731	273.75
707.919	204.11
708.107	185.68
708.296	212.31
708.484	148.82
708.672	214.35
708.86	173.39
709.048	259.41
709.236	157.01
709.424	89.43
709.612	222.55
709.8	173.39
709.988	210.26
710.176	367.95
710.364	230.74
710.551	259.41
710.739	296.27
710.927	185.68
711.115	271.7
711.303	226.64
711.491	265.55
711.679	165.2
711.866	283.99
712.054	214.35
712.242	202.07
712.43	298.32
712.617	212.31
712.805	224.59
712.993	206.16
713.181	118.1
713.368	314.7
713.556	234.83
713.744	150.87
713.931	390.48
714.119	214.35
714.306	230.74
714.494	296.27
714.682	218.45
714.869	134.48
715.057	243.03
715.244	93.52
715.432	310.61
715.619	187.73
715.807	148.82
715.994	279.89
716.182	271.7
716.369	298.32
716.556	283.99
716.744	87.38
716.931	93.52
717.119	218.45
717.306	122.2
717.493	216.4
717.681	210.26
717.868	208.21
718.055	294.22
718.242	234.83
718.43	230.74
718.617	331.09
718.804	238.93
718.991	335.18
719.179	253.27
719.366	247.12
719.553	212.31
719.74	214.35
719.927	251.22
720.114	228.69
720.301	161.11
720.488	208.21
720.676	159.06
720.863	349.52
721.05	419.15
721.237	243.03
721.424	347.47
721.611	224.59
721.798	193.87
721.985	185.68
722.172	218.45
722.358	271.7
722.545	312.66
722.732	337.23
722.919	353.62
723.106	304.46
723.293	339.28
723.48	306.51
723.667	177.49
723.853	335.18
724.04	267.6
724.227	345.42
724.414	159.06
724.6	353.62
724.787	322.9
724.974	511.31
725.161	316.75
725.347	271.7
725.534	359.76
725.72	245.07
725.907	316.75
726.094	298.32
726.28	269.65
726.467	257.36
726.653	298.32
726.84	374.1
727.027	462.16
727.213	263.51
727.4	370
727.586	343.38
727.773	355.66
727.959	236.88
728.145	312.66
728.332	286.03
728.518	286.03
728.705	351.57
728.891	314.7
729.077	326.99
729.264	326.99
729.45	283.99
729.636	271.7
729.823	326.99
730.009	456.01
730.195	335.18
730.382	421.2
730.568	224.59
730.754	339.28
730.94	255.31
731.126	372.05
731.313	335.18
731.499	425.29
731.685	404.82
731.871	331.09
732.057	443.73
732.243	443.73
732.429	398.67
732.615	449.87
732.801	388.43
732.987	304.46
733.173	357.71
733.359	341.33
733.545	363.86
733.731	419.15
733.917	470.35
734.103	312.66
734.289	408.91
734.475	331.09
734.661	460.11
734.847	388.43
735.033	351.57
735.219	439.63
735.404	300.37
735.59	329.04
735.776	331.09
735.962	410.96
736.148	507.21
736.333	523.6
736.519	390.48
736.705	339.28
736.89	318.8
737.076	372.05
737.262	329.04
737.447	400.72
737.633	392.53
737.819	423.25
738.004	339.28
738.19	404.82
738.375	388.43
738.561	437.58
738.747	449.87
738.932	259.41
739.118	437.58
739.303	470.35
739.489	390.48
739.674	296.27
739.859	392.53
740.045	398.67
740.23	388.43
740.416	224.59
740.601	507.21
740.786	388.43
740.972	216.4
741.157	333.14
741.342	400.72
741.528	306.51
741.713	474.45
741.898	341.33
742.084	275.79
742.269	370
742.454	488.78
742.639	439.63
742.824	384.34
743.01	433.49
743.195	507.21
743.38	406.86
743.565	316.75
743.75	396.62
743.935	443.73
744.12	458.06
744.305	294.22
744.49	331.09
744.675	322.9
744.86	322.9
745.045	433.49
745.23	359.76
745.415	363.86
745.6	374.1
745.785	355.66
745.97	474.45
746.155	417.1
746.34	474.45
746.525	347.47
746.71	435.53
746.895	304.46
747.079	326.99
747.264	380.24
747.449	388.43
747.634	367.95
747.819	329.04
748.003	302.42
748.188	226.64
748.373	298.32
748.557	370
748.742	288.08
748.927	267.6
749.111	230.74
749.296	400.72
749.481	324.94
749.665	314.7
749.85	347.47
750.034	458.06
750.219	335.18
750.404	349.52
750.588	279.89
750.773	394.58
750.957	421.2
751.141	294.22
751.326	419.15
751.51	189.78
751.695	238.93
751.879	351.57
752.064	333.14
752.248	343.38
752.432	406.86
752.617	388.43
752.801	347.47
752.985	294.22
753.17	423.25
753.354	326.99
753.538	247.12
753.722	210.26
753.907	275.79
754.091	312.66
754.275	310.61
754.459	181.59
754.643	212.31
754.828	306.51
755.012	298.32
755.196	167.25
755.38	292.18
755.564	304.46
755.748	224.59
755.932	308.56
756.116	281.94
756.3	367.95
756.484	195.92
756.668	236.88
756.852	140.63
757.036	183.63
757.22	230.74
757.404	243.03
757.588	228.69
757.772	286.03
757.956	279.89
758.14	359.76
758.323	159.06
758.507	312.66
758.691	195.92
758.875	261.46
759.059	331.09
759.242	116.05
759.426	261.46
759.61	257.36
759.794	197.97
759.977	257.36
760.161	398.67
760.345	271.7
760.528	230.74
760.712	275.79
760.895	204.11
761.079	255.31
761.263	107.86
761.446	169.3
761.63	159.06
761.813	294.22
761.997	140.63
762.18	163.15
762.364	247.12
762.547	136.53
762.731	150.87
762.914	191.83
763.098	232.79
763.281	126.29
763.464	222.55
763.648	181.59
763.831	128.34
764.015	118.1
764.198	228.69
764.381	79.19
764.564	265.55
764.748	224.59
764.931	240.98
765.114	173.39
765.297	183.63
765.481	105.81
765.664	173.39
765.847	120.15
766.03	212.31
766.213	32.08
766.397	169.3
766.58	93.52
766.763	126.29
766.946	97.62
767.129	165.2
767.312	150.87
767.495	161.11
767.678	142.68
767.861	165.2
768.044	177.49
768.227	103.76
768.41	195.92
768.593	159.06
768.776	245.07
768.959	97.62
769.142	255.31
769.324	152.92
769.507	124.24
769.69	109.91
769.873	200.02
770.056	314.7
770.239	167.25
770.421	185.68
770.604	181.59
770.787	120.15
770.97	163.15
771.152	138.58
771.335	206.16
771.518	91.48
771.7	261.46
771.883	218.45
772.066	191.83
772.248	144.72
772.431	195.92
772.613	152.92
772.796	181.59
772.978	79.19
773.161	273.75
773.343	44.37
773.526	91.48
773.708	44.37
773.891	116.05
774.073	68.95
774.256	81.24
774.438	257.36
774.621	56.66
774.803	224.59
774.985	99.67
775.168	132.44
775.35	89.43
775.532	157.01
775.715	64.85
775.897	138.58
776.079	48.47
776.261	161.11
776.444	99.67
776.626	144.72
776.808	124.24
776.99	9.56
777.173	105.81
777.355	105.81
777.537	79.19
777.719	126.29
777.901	75.09
778.083	73.04
778.265	-39.59
778.447	132.44
778.629	87.38
778.811	103.76
778.993	167.25
779.175	116.05
779.357	114
779.539	-25.26
779.721	111.96
779.903	183.63
780.085	103.76
780.267	68.95
780.449	97.62
780.631	189.78
780.812	163.15
780.994	68.95
781.176	13.65
781.358	32.08
781.54	50.52
781.721	150.87
781.903	210.26
782.085	68.95
782.267	157.01
782.448	-17.07
782.63	56.66
782.812	73.04
782.993	128.34
783.175	128.34
783.357	13.65
783.538	56.66
783.72	71
783.901	89.43
784.083	130.39
784.264	81.24
784.446	21.85
784.627	-31.4
784.809	103.76
784.99	68.95
785.172	111.96
785.353	75.09
785.535	48.47
785.716	-10.92
785.897	32.08
786.079	40.28
786.26	120.15
786.441	83.28
786.623	-31.4
786.804	-2.73
786.985	126.29
787.167	27.99
787.348	54.61
787.529	58.71
787.71	157.01
787.891	71
788.073	30.04
788.254	50.52
788.435	101.72
788.616	13.65
788.797	-113.32
788.978	81.24
789.159	-8.87
789.34	58.71
789.522	93.52
789.703	52.56
789.884	-62.12
790.065	95.57
790.246	269.65
790.427	38.23
790.607	179.54
790.788	175.44
790.969	30.04
791.15	140.63
791.331	42.32
791.512	7.51
791.693	-4.78
791.874	71
792.054	265.55
792.235	210.26
792.416	-35.5
792.597	-6.83
792.778	116.05
792.958	34.13
793.139	54.61
793.32	21.85
793.5	40.28
793.681	60.76
793.862	52.56
794.042	81.24
794.223	-88.75
794.404	-4.78
794.584	-62.12
794.765	-15.02
794.945	71
795.126	42.32
795.306	56.66
795.487	-23.21
795.667	54.61
795.848	91.48
796.028	97.62
796.209	62.8
796.389	25.94
796.57	73.04
796.75	7.51
796.93	77.14
797.111	-19.11
797.291	95.57
797.471	105.81
797.652	-45.74
797.832	-33.45
798.012	120.15
798.192	-4.78
798.373	-121.51
798.553	128.34
798.733	38.23
798.913	40.28
799.093	-35.5
799.274	71
799.454	138.58
799.634	71
799.814	132.44
799.994	50.52
800.174	179.54
800.354	89.43
800.534	-55.98
800.714	120.15
800.894	-72.36
801.074	-68.27
801.254	-74.41
801.434	132.44
801.614	23.89
801.794	1.37
801.974	1598.78
802.154	54.61
802.334	87.38
802.514	-31.4
802.693	-15.02
802.873	40.28
803.053	157.01
803.233	17.75
803.413	83.28
803.592	3.41
803.772	48.47
803.952	3.41
804.131	-31.4
804.311	-21.16
804.491	179.54
804.67	-58.03
804.85	32.08
805.03	73.04
805.209	120.15
805.389	-6.83
805.568	13.65
805.748	21.85
805.928	-21.16
806.107	111.96
806.287	103.76
806.466	50.52
806.646	21.85
806.825	79.19
807.004	-25.26
807.184	50.52
807.363	52.56
807.543	122.2
807.722	-86.7
807.901	130.39
808.081	144.72
808.26	-41.64
808.439	95.57
808.619	-21.16
808.798	11.61
808.977	38.23
809.156	60.76
809.336	60.76
809.515	60.76
809.694	5.46
809.873	-47.79
810.052	85.33
810.231	58.71
810.411	34.13
810.59	101.72
810.769	5.46
810.948	101.72
811.127	-39.59
811.306	44.37
811.485	9.56
811.664	132.44
811.843	95.57
812.022	66.9
812.201	50.52
812.38	11.61
812.559	-21.16
812.737	9.56
812.916	-53.93
813.095	-47.79
813.274	19.8
813.453	5.46
813.632	56.66
813.811	93.52
813.989	-90.79
814.168	-6.83
814.347	-74.41
814.526	-10.92
814.704	103.76
814.883	83.28
815.062	-82.6
815.24	-2.73
815.419	27.99
815.598	71
815.776	-70.31
815.955	30.04
816.133	-94.89
816.312	50.52
816.49	-80.55
816.669	7.51
816.847	7.51
817.026	50.52
817.204	64.85
817.383	36.18
817.561	-80.55
817.74	42.32
817.918	50.52
818.097	44.37
818.275	-84.65
818.453	25.94
818.632	34.13
818.81	-37.55
818.988	-62.12
819.167	58.71
819.345	64.85
819.523	-4.78
819.701	77.14
819.879	-19.11
820.058	77.14
820.236	44.37
820.414	-15.02
820.592	99.67
820.77	9.56
820.948	-58.03
821.127	-19.11
821.305	50.52
821.483	-8.87
821.661	44.37
821.839	9.56
822.017	1.37
822.195	-21.16
822.373	93.52
822.551	103.76
822.729	73.04
822.907	-2.73
823.085	-76.46
823.262	46.42
823.44	-58.03
823.618	7.51
823.796	-4.78
823.974	44.37
824.152	1.37
824.329	56.66
824.507	44.37
824.685	21.85
824.863	-4.78
825.04	-15.02
825.218	50.52
825.396	32.08
825.574	32.08
825.751	-62.12
825.929	48.47
826.107	-90.79
826.284	48.47
826.462	23.89
826.639	-53.93
826.817	-92.84
826.994	-25.26
827.172	-123.56
827.349	71
827.527	73.04
827.704	40.28
827.882	56.66
828.059	-45.74
828.237	34.13
828.414	93.52
828.591	-115.37
828.769	21.85
828.946	-8.87
829.124	46.42
829.301	128.34
829.478	-25.26
829.655	25.94
829.833	56.66
830.01	-166.57
830.187	66.9
830.364	25.94
830.542	46.42
830.719	95.57
830.896	68.95
831.073	42.32
831.25	46.42
831.427	44.37
831.604	-10.92
831.782	15.7
831.959	73.04
832.136	-2.73
832.313	-8.87
832.49	-6.83
832.667	87.38
832.844	-53.93
833.021	99.67
833.198	89.43
833.374	40.28
833.551	7.51
833.728	42.32
833.905	99.67
834.082	-76.46
834.259	-41.64
834.436	36.18
834.612	25.94
834.789	30.04
834.966	-33.45
835.143	66.9
835.319	-103.08
835.496	109.91
835.673	27.99
835.85	77.14
836.026	64.85
836.203	91.48
836.38	-6.83
836.556	5.46
836.733	-8.87
836.909	93.52
837.086	-37.55
837.262	-84.65
837.439	-70.31
837.616	21.85
837.792	21.85
837.968	11.61
838.145	-86.7
838.321	25.94
838.498	105.81
838.674	71
838.851	27.99
839.027	-55.98
839.203	17.75
839.38	-12.97
839.556	23.89
839.732	116.05
839.909	3.41
840.085	99.67
840.261	-94.89
840.437	-29.35
840.614	-15.02
840.79	64.85
840.966	-8.87
841.142	1.37
841.318	-66.22
841.494	46.42
841.671	99.67
841.847	-66.22
842.023	-101.03
842.199	42.32
842.375	124.24
842.551	-111.27
842.727	-39.59
842.903	161.11
843.079	-84.65
843.255	146.77
843.431	32.08
843.607	64.85
843.783	-70.31
843.959	27.99
844.134	13.65
844.31	146.77
844.486	5.46
844.662	-76.46
844.838	75.09
845.013	77.14
845.189	71
845.365	-29.35
845.541	-15.02
845.716	-2.73
845.892	81.24
846.068	-78.51
846.244	-174.76
846.419	36.18
846.595	-129.7
846.77	34.13
846.946	66.9
847.122	-35.5
847.297	5.46
847.473	89.43
847.648	-131.75
847.824	-19.11
847.999	-115.37
848.175	-43.69
848.35	66.9
848.526	140.63
848.701	62.8
848.876	105.81
849.052	114
849.227	-39.59
849.403	21.85
849.578	-53.93
849.753	-31.4
849.929	60.76
850.104	-70.31
850.279	-37.55
850.454	73.04
850.63	64.85
850.805	-37.55
850.98	91.48
851.155	54.61
851.33	-4.78
851.505	-6.83
851.681	95.57
851.856	-29.35
852.031	73.04
852.206	54.61
852.381	-33.45
852.556	9.56
852.731	17.75
852.906	30.04
853.081	30.04
853.256	19.8
853.431	42.32
853.606	5.46
853.781	-15.02
853.956	-125.61
854.131	15.7
854.305	-21.16
854.48	23.89
854.655	-101.03
854.83	-31.4
855.005	-49.83
855.18	52.56
855.354	25.94
855.529	36.18
855.704	-74.41
855.879	38.23
856.053	-60.07
856.228	-37.55
856.403	-103.08
856.577	60.76
856.752	-158.38
856.926	32.08
857.101	64.85
857.276	-64.17
857.45	-2.73
857.625	44.37
857.799	48.47
857.974	97.62
858.148	-127.66
858.323	-6.83
858.497	44.37
858.672	-10.92
858.846	1.37
859.02	38.23
859.195	-27.31
859.369	-37.55
859.543	21.85
859.718	-15.02
859.892	-0.68
860.066	-12.97
860.241	5.46
860.415	-10.92
860.589	5.46
860.763	-10.92
860.938	-29.35
861.112	30.04
861.286	-15.02
861.46	-82.6
861.634	-0.68
861.808	11.61
861.982	-53.93
862.157	-64.17
862.331	-43.69
862.505	-86.7
862.679	-131.75
862.853	-17.07
863.027	56.66
863.201	64.85
863.375	21.85
863.549	27.99
863.722	25.94
863.896	48.47
864.07	-37.55
864.244	-0.68
864.418	46.42
864.592	32.08
864.766	36.18
864.939	64.85
865.113	-43.69
865.287	89.43
865.461	-41.64
865.634	-31.4
865.808	-74.41
865.982	-6.83
866.156	-10.92
866.329	-90.79
866.503	-17.07
866.676	85.33
866.85	-25.26
867.024	-51.88
867.197	81.24
867.371	-39.59
867.544	9.56
867.718	-25.26
867.891	103.76
868.065	-168.62
868.238	32.08
868.412	42.32
868.585	81.24
868.759	-70.31
868.932	-41.64
869.105	-66.22
869.279	21.85
869.452	-96.94
869.625	58.71
869.799	30.04
869.972	-109.22
870.145	93.52
870.319	93.52
870.492	1.37
870.665	-80.55
870.838	-27.31
871.011	-88.75
871.185	-41.64
871.358	7.51
871.531	58.71
871.704	-66.22
871.877	9.56
872.05	-64.17
872.223	-41.64
872.396	91.48
872.569	87.38
872.742	-35.5
872.915	9.56
873.088	1.37
873.261	9.56
873.434	120.15
873.607	15.7
873.78	42.32
873.953	-90.79
874.126	46.42
874.299	48.47
874.471	-29.35
874.644	-39.59
874.817	-0.68
874.99	105.81
875.163	-27.31
875.335	-55.98
875.508	-8.87
875.681	81.24
875.853	34.13
876.026	-29.35
876.199	85.33
876.371	-21.16
876.544	-98.99
876.717	-6.83
876.889	-47.79
877.062	3.41
877.234	-82.6
877.407	-64.17
877.579	-27.31
877.752	-25.26
877.924	118.1
878.097	30.04
878.269	32.08
878.442	62.8
878.614	58.71
878.786	-31.4
878.959	91.48
879.131	48.47
879.303	-70.31
879.476	5.46
879.648	71
879.82	19.8
879.993	-66.22
880.165	-33.45
880.337	-45.74
880.509	-6.83
880.681	-105.13
880.854	-62.12
881.026	75.09
881.198	171.35
881.37	-6.83
881.542	-105.13
881.714	-21.16
881.886	-23.21
882.058	-0.68
882.23	40.28
882.402	48.47
882.574	-41.64
882.746	152.92
882.918	93.52
883.09	32.08
883.262	56.66
883.434	-12.97
883.606	-105.13
883.778	-66.22
883.95	126.29
884.122	-27.31
884.293	30.04
884.465	-10.92
884.637	44.37
884.809	-58.03
884.98	3.41
885.152	52.56
885.324	30.04
885.496	-82.6
885.667	17.75
885.839	-37.55
886.011	165.2
886.182	-2.73
886.354	81.24
886.525	3.41
886.697	42.32
886.869	3.41
887.04	17.75
887.212	103.76
887.383	200.02
887.555	19.8
887.726	-64.17
887.897	-55.98
888.069	25.94
888.24	142.68
888.412	48.47
888.583	36.18
888.754	-10.92
888.926	-131.75
889.097	-19.11
889.268	-82.6
889.44	36.18
889.611	-98.99
889.782	-55.98
889.953	-117.42
890.125	62.8
890.296	-82.6
890.467	-45.74
890.638	27.99
890.809	21.85
890.98	-27.31
891.151	-21.16
891.323	93.52
891.494	-58.03
891.665	27.99
891.836	23.89
892.007	27.99
892.178	68.95
892.349	42.32
892.52	-64.17
892.691	13.65
892.862	-29.35
893.032	-131.75
893.203	-76.46
893.374	17.75
893.545	58.71
893.716	-2.73
893.887	21.85
894.057	-131.75
894.228	-10.92
894.399	-33.45
894.57	23.89
894.74	-70.31
894.911	11.61
895.082	-101.03
895.253	15.7
895.423	81.24
895.594	36.18
895.764	146.77
895.935	-60.07
896.106	138.58
896.276	-10.92
896.447	-12.97
896.617	-55.98
896.788	-39.59
896.958	32.08
897.129	-2.73
897.299	-4.78
897.47	62.8
897.64	25.94
897.81	3.41
897.981	23.89
898.151	-84.65
898.322	-12.97
898.492	38.23
898.662	-154.28
898.832	-10.92
899.003	-70.31
899.173	81.24
899.343	-53.93
899.513	-31.4
