Data from USB4F104151__71__11-31-01-663.txt Node

Date: Wed Feb 26 11:31:01 EST 2025
User: louis
Spectrometer: USB4F10415
Trigger mode: 4
Integration Time (sec): 1.000000E-1
Scans to average: 1
Electric dark correction enabled: true
Nonlinearity correction enabled: false
Boxcar width: 0
XAxis mode: Wavelengths
Number of Pixels in Spectrum: 3648
>>>>>Begin Spectral Data<<<<<
178.204	-364.88
178.424	-364.88
178.644	-364.88
178.864	-377.17
179.084	-364.88
179.304	11.95
179.524	3.75
179.744	36.52
179.964	65.19
180.184	22.19
180.404	-43.35
180.624	-16.73
180.844	7.85
181.064	-59.73
181.283	7.85
181.503	-100.69
181.723	65.19
181.943	-72.02
182.163	233.13
182.383	-0.34
182.602	67.24
182.822	218.79
183.042	52.91
183.262	11.95
183.482	5.8
183.701	18.09
183.921	124.58
184.141	-12.63
184.361	79.53
184.58	32.43
184.8	57
185.02	-67.92
185.239	97.96
185.459	30.38
185.679	73.39
185.898	-80.21
186.118	28.33
186.338	102.06
186.557	106.15
186.777	34.47
186.997	-67.92
187.216	40.62
187.436	169.64
187.655	145.06
187.875	151.21
188.095	-8.53
188.314	183.98
188.534	95.91
188.753	-31.06
188.973	50.86
189.192	171.69
189.412	63.15
189.631	75.43
189.851	50.86
190.07	204.46
190.29	-6.49
190.509	-41.3
190.729	-55.64
190.948	140.97
191.168	171.69
191.387	36.52
191.607	95.91
191.826	83.63
192.045	67.24
192.265	-10.58
192.484	122.54
192.704	73.39
192.923	-92.5
193.142	196.26
193.362	118.44
193.581	169.64
193.8	69.29
194.02	81.58
194.239	13.99
194.458	122.54
194.678	73.39
194.897	-26.96
195.116	75.43
195.335	112.3
195.555	26.28
195.774	1.71
195.993	163.5
196.212	9.9
196.432	89.77
196.651	34.47
196.87	20.14
197.089	247.46
197.308	59.05
197.528	77.48
197.747	-63.83
197.966	83.63
198.185	171.69
198.404	-4.44
198.623	120.49
198.842	126.63
199.062	140.97
199.281	36.52
199.5	26.28
199.719	34.47
199.938	83.63
200.157	38.57
200.376	91.82
200.595	57
200.814	61.1
201.033	46.76
201.252	151.21
201.471	143.02
201.69	59.05
201.909	-16.73
202.128	50.86
202.347	81.58
202.566	20.14
202.785	-45.4
203.004	52.91
203.223	253.61
203.442	-4.44
203.661	-69.97
203.879	69.29
204.098	183.98
204.317	16.04
204.536	122.54
204.755	147.11
204.974	102.06
205.193	38.57
205.411	155.3
205.63	186.02
205.849	97.96
206.068	52.91
206.287	59.05
206.505	153.26
206.724	20.14
206.943	-29.01
207.162	81.58
207.381	50.86
207.599	77.48
207.818	134.82
208.037	-24.92
208.255	-16.73
208.474	122.54
208.693	-4.44
208.911	7.85
209.13	91.82
209.349	136.87
209.567	32.43
209.786	112.3
210.005	110.25
210.223	-26.96
210.442	-37.2
210.661	48.81
210.879	63.15
211.098	50.86
211.316	108.2
211.535	118.44
211.753	118.44
211.972	134.82
212.191	11.95
212.409	48.81
212.628	110.25
212.846	63.15
213.065	63.15
213.283	87.72
213.502	110.25
213.72	114.34
213.938	34.47
214.157	16.04
214.375	124.58
214.594	-47.44
214.812	91.82
215.031	-51.54
215.249	83.63
215.467	83.63
215.686	42.67
215.904	67.24
216.122	65.19
216.341	102.06
216.559	77.48
216.778	126.63
216.996	169.64
217.214	57
217.432	28.33
217.651	28.33
217.869	-29.01
218.087	20.14
218.306	3.75
218.524	16.04
218.742	-6.49
218.96	175.78
219.179	-45.4
219.397	126.63
219.615	237.22
219.833	122.54
220.051	-2.39
220.27	114.34
220.488	106.15
220.706	61.1
220.924	24.23
221.142	77.48
221.36	30.38
221.578	28.33
221.796	36.52
222.015	132.78
222.233	75.43
222.451	155.3
222.669	-4.44
222.887	50.86
223.105	-39.25
223.323	26.28
223.541	-0.34
223.759	91.82
223.977	7.85
224.195	140.97
224.413	91.82
224.631	54.95
224.849	89.77
225.067	173.74
225.285	24.23
225.503	-14.68
225.721	-84.31
225.939	3.75
226.157	3.75
226.375	263.85
226.592	7.85
226.81	69.29
227.028	163.5
227.246	181.93
227.464	69.29
227.682	116.39
227.9	63.15
228.117	81.58
228.335	50.86
228.553	11.95
228.771	3.75
228.989	52.91
229.206	93.87
229.424	57
229.642	3.75
229.86	59.05
230.077	192.17
230.295	145.06
230.513	200.36
230.731	38.57
230.948	91.82
231.166	149.16
231.384	65.19
231.601	46.76
231.819	259.75
232.037	-6.49
232.254	-18.77
232.472	79.53
232.689	3.75
232.907	112.3
233.125	7.85
233.342	-43.35
233.56	-24.92
233.777	-47.44
233.995	63.15
234.213	18.09
234.43	149.16
234.648	26.28
234.865	-10.58
235.083	40.62
235.3	-16.73
235.518	52.91
235.735	134.82
235.953	134.82
236.17	38.57
236.388	93.87
236.605	124.58
236.822	93.87
237.04	81.58
237.257	159.4
237.475	-84.31
237.692	22.19
237.909	116.39
238.127	28.33
238.344	87.72
238.562	22.19
238.779	-59.73
238.996	-63.83
239.214	18.09
239.431	79.53
239.648	93.87
239.865	57
240.083	198.31
240.3	-6.49
240.517	28.33
240.735	75.43
240.952	143.02
241.169	97.96
241.386	32.43
241.603	75.43
241.821	-78.16
242.038	30.38
242.255	140.97
242.472	-61.78
242.689	95.91
242.907	61.1
243.124	5.8
243.341	44.71
243.558	46.76
243.775	-55.64
243.992	-61.78
244.209	122.54
244.426	130.73
244.643	116.39
244.86	20.14
245.078	145.06
245.295	36.52
245.512	20.14
245.729	44.71
245.946	13.99
246.163	32.43
246.38	30.38
246.597	54.95
246.814	91.82
247.031	26.28
247.248	69.29
247.464	95.91
247.681	153.26
247.898	73.39
248.115	79.53
248.332	16.04
248.549	145.06
248.766	188.07
248.983	65.19
249.2	89.77
249.417	192.17
249.633	5.8
249.85	42.67
250.067	30.38
250.284	13.99
250.501	91.82
250.717	73.39
250.934	-45.4
251.151	38.57
251.368	69.29
251.585	24.23
251.801	138.92
252.018	-45.4
252.235	145.06
252.451	11.95
252.668	42.67
252.885	149.16
253.102	77.48
253.318	102.06
253.535	7.85
253.752	20.14
253.968	112.3
254.185	-108.88
254.401	89.77
254.618	-2.39
254.835	1.71
255.051	153.26
255.268	63.15
255.484	81.58
255.701	7.85
255.917	181.93
256.134	-41.3
256.351	52.91
256.567	-12.63
256.784	26.28
257	-88.4
257.217	85.67
257.433	65.19
257.65	36.52
257.866	104.11
258.082	-24.92
258.299	61.1
258.515	38.57
258.732	-4.44
258.948	7.85
259.165	106.15
259.381	-78.16
259.597	63.15
259.814	-4.44
260.03	-4.44
260.246	-12.63
260.463	147.11
260.679	147.11
260.895	44.71
261.112	83.63
261.328	67.24
261.544	-69.97
261.761	239.27
261.977	46.76
262.193	18.09
262.409	93.87
262.626	71.34
262.842	50.86
263.058	-24.92
263.274	112.3
263.49	75.43
263.707	118.44
263.923	69.29
264.139	-45.4
264.355	120.49
264.571	91.82
264.787	167.59
265.004	83.63
265.22	5.8
265.436	24.23
265.652	36.52
265.868	69.29
266.084	-8.53
266.3	69.29
266.516	-18.77
266.732	102.06
266.948	36.52
267.164	-20.82
267.38	83.63
267.596	81.58
267.812	224.94
268.028	26.28
268.244	-16.73
268.46	120.49
268.676	24.23
268.892	20.14
269.108	-35.16
269.324	50.86
269.54	-0.34
269.756	73.39
269.972	-26.96
270.188	22.19
270.403	26.28
270.619	24.23
270.835	85.67
271.051	26.28
271.267	34.47
271.483	-4.44
271.698	28.33
271.914	28.33
272.13	38.57
272.346	18.09
272.562	136.87
272.777	183.98
272.993	9.9
273.209	81.58
273.425	173.74
273.64	-67.92
273.856	52.91
274.072	-24.92
274.287	20.14
274.503	79.53
274.719	79.53
274.934	-24.92
275.15	30.38
275.366	50.86
275.581	16.04
275.797	16.04
276.012	110.25
276.228	91.82
276.444	89.77
276.659	85.67
276.875	-10.58
277.09	30.38
277.306	1.71
277.521	54.95
277.737	28.33
277.952	81.58
278.168	59.05
278.383	106.15
278.599	28.33
278.814	126.63
279.03	79.53
279.245	169.64
279.461	81.58
279.676	120.49
279.892	-24.92
280.107	5.8
280.322	81.58
280.538	130.73
280.753	52.91
280.969	-10.58
281.184	40.62
281.399	110.25
281.615	11.95
281.83	97.96
282.045	-98.64
282.26	59.05
282.476	46.76
282.691	34.47
282.906	100.01
283.122	50.86
283.337	34.47
283.552	79.53
283.767	-6.49
283.983	44.71
284.198	114.34
284.413	104.11
284.628	7.85
284.843	38.57
285.058	192.17
285.274	54.95
285.489	-20.82
285.704	155.3
285.919	52.91
286.134	48.81
286.349	-35.16
286.564	-2.39
286.779	255.65
286.995	48.81
287.21	13.99
287.425	65.19
287.64	65.19
287.855	104.11
288.07	-96.6
288.285	118.44
288.5	124.58
288.715	108.2
288.93	-2.39
289.145	1.71
289.36	81.58
289.575	-108.88
289.79	110.25
290.004	28.33
290.219	130.73
290.434	40.62
290.649	18.09
290.864	-61.78
291.079	83.63
291.294	-0.34
291.509	95.91
291.724	-22.87
291.938	-0.34
292.153	30.38
292.368	48.81
292.583	77.48
292.798	57
293.012	36.52
293.227	83.63
293.442	-20.82
293.657	85.67
293.871	122.54
294.086	30.38
294.301	155.3
294.516	67.24
294.73	22.19
294.945	-16.73
295.16	-2.39
295.374	124.58
295.589	153.26
295.804	-10.58
296.018	97.96
296.233	40.62
296.447	67.24
296.662	61.1
296.877	159.4
297.091	93.87
297.306	-57.68
297.52	20.14
297.735	30.38
297.949	18.09
298.164	5.8
298.378	71.34
298.593	-8.53
298.807	26.28
299.022	61.1
299.236	210.6
299.451	102.06
299.665	24.23
299.88	87.72
300.094	75.43
300.309	42.67
300.523	34.47
300.737	7.85
300.952	106.15
301.166	100.01
301.381	28.33
301.595	18.09
301.809	59.05
302.024	108.2
302.238	-49.49
302.452	138.92
302.667	52.91
302.881	224.94
303.095	100.01
303.309	65.19
303.524	-59.73
303.738	-65.88
303.952	-33.11
304.166	65.19
304.381	-14.68
304.595	110.25
304.809	73.39
305.023	44.71
305.237	22.19
305.452	13.99
305.666	16.04
305.88	83.63
306.094	77.48
306.308	83.63
306.522	145.06
306.736	83.63
306.95	85.67
307.164	73.39
307.379	57
307.593	261.8
307.807	167.59
308.021	75.43
308.235	59.05
308.449	-31.06
308.663	36.52
308.877	220.84
309.091	-24.92
309.305	97.96
309.519	-0.34
309.733	104.11
309.947	-119.12
310.161	97.96
310.374	75.43
310.588	128.68
310.802	-22.87
311.016	-22.87
311.23	13.99
311.444	50.86
311.658	52.91
311.872	200.36
312.085	116.39
312.299	177.83
312.513	143.02
312.727	28.33
312.941	-2.39
313.154	89.77
313.368	85.67
313.582	46.76
313.796	18.09
314.009	50.86
314.223	186.02
314.437	85.67
314.651	91.82
314.864	-47.44
315.078	79.53
315.292	-24.92
315.505	42.67
315.719	91.82
315.933	63.15
316.146	71.34
316.36	-47.44
316.573	118.44
316.787	147.11
317.001	61.1
317.214	-4.44
317.428	79.53
317.641	30.38
317.855	26.28
318.068	71.34
318.282	-45.4
318.495	192.17
318.709	81.58
318.922	-45.4
319.136	95.91
319.349	112.3
319.563	-10.58
319.776	-2.39
319.99	-10.58
320.203	63.15
320.417	3.75
320.63	118.44
320.843	183.98
321.057	116.39
321.27	20.14
321.483	132.78
321.697	161.45
321.91	38.57
322.124	87.72
322.337	120.49
322.55	13.99
322.763	77.48
322.977	-4.44
323.19	52.91
323.403	75.43
323.617	59.05
323.83	77.48
324.043	-0.34
324.256	20.14
324.469	52.91
324.683	177.83
324.896	77.48
325.109	1.71
325.322	-43.35
325.535	95.91
325.748	140.97
325.962	63.15
326.175	71.34
326.388	136.87
326.601	73.39
326.814	48.81
327.027	106.15
327.24	153.26
327.453	-84.31
327.666	54.95
327.879	163.5
328.092	145.06
328.305	57
328.518	-0.34
328.731	-35.16
328.944	20.14
329.157	112.3
329.37	-8.53
329.583	128.68
329.796	134.82
330.009	-24.92
330.222	102.06
330.435	97.96
330.648	81.58
330.861	167.59
331.073	83.63
331.286	167.59
331.499	73.39
331.712	-49.49
331.925	91.82
332.138	9.9
332.35	155.3
332.563	-49.49
332.776	188.07
332.989	-72.02
333.202	-0.34
333.414	69.29
333.627	-4.44
333.84	7.85
334.053	89.77
334.265	24.23
334.478	-24.92
334.691	30.38
334.903	38.57
335.116	40.62
335.329	104.11
335.541	79.53
335.754	126.63
335.966	11.95
336.179	13.99
336.392	61.1
336.604	28.33
336.817	28.33
337.029	52.91
337.242	116.39
337.454	77.48
337.667	132.78
337.88	134.82
338.092	112.3
338.305	24.23
338.517	-16.73
338.729	132.78
338.942	149.16
339.154	7.85
339.367	-51.54
339.579	71.34
339.792	-20.82
340.004	83.63
340.217	-0.34
340.429	67.24
340.641	-20.82
340.854	-6.49
341.066	-4.44
341.278	122.54
341.491	100.01
341.703	9.9
341.915	-31.06
342.128	128.68
342.34	65.19
342.552	52.91
342.764	73.39
342.977	81.58
343.189	7.85
343.401	59.05
343.613	9.9
343.826	71.34
344.038	-37.2
344.25	71.34
344.462	-45.4
344.674	104.11
344.886	57
345.099	26.28
345.311	-35.16
345.523	5.8
345.735	-45.4
345.947	11.95
346.159	57
346.371	54.95
346.583	73.39
346.795	175.78
347.007	20.14
347.219	69.29
347.431	5.8
347.643	67.24
347.855	128.68
348.067	100.01
348.279	-72.02
348.491	77.48
348.703	183.98
348.915	-4.44
349.127	7.85
349.339	26.28
349.551	-0.34
349.763	208.55
349.975	11.95
350.187	138.92
350.399	194.22
350.61	173.74
350.822	65.19
351.034	73.39
351.246	1.71
351.458	75.43
351.669	61.1
351.881	128.68
352.093	100.01
352.305	136.87
352.517	50.86
352.728	67.24
352.94	59.05
353.152	57
353.363	-0.34
353.575	91.82
353.787	161.45
353.999	61.1
354.21	186.02
354.422	89.77
354.633	36.52
354.845	-2.39
355.057	34.47
355.268	73.39
355.48	81.58
355.692	-4.44
355.903	24.23
356.115	-6.49
356.326	-69.97
356.538	194.22
356.749	89.77
356.961	202.41
357.172	85.67
357.384	-82.26
357.595	222.89
357.807	-12.63
358.018	52.91
358.23	50.86
358.441	151.21
358.653	85.67
358.864	44.71
359.075	-16.73
359.287	1.71
359.498	112.3
359.709	118.44
359.921	79.53
360.132	140.97
360.344	44.71
360.555	-35.16
360.766	95.91
360.977	38.57
361.189	108.2
361.4	-24.92
361.611	91.82
361.823	175.78
362.034	32.43
362.245	-80.21
362.456	73.39
362.667	124.58
362.879	48.81
363.09	73.39
363.301	22.19
363.512	81.58
363.723	28.33
363.935	42.67
364.146	130.73
364.357	20.14
364.568	52.91
364.779	28.33
364.99	161.45
365.201	-63.83
365.412	126.63
365.623	-74.07
365.834	18.09
366.045	57
366.256	46.76
366.467	63.15
366.678	13.99
366.889	71.34
367.1	18.09
367.311	83.63
367.522	42.67
367.733	145.06
367.944	93.87
368.155	57
368.366	65.19
368.577	81.58
368.788	120.49
368.999	-4.44
369.209	128.68
369.42	222.89
369.631	233.13
369.842	110.25
370.053	28.33
370.264	89.77
370.474	-14.68
370.685	1.71
370.896	63.15
371.107	69.29
371.317	122.54
371.528	22.19
371.739	89.77
371.95	97.96
372.16	63.15
372.371	-49.49
372.582	-82.26
372.792	138.92
373.003	95.91
373.214	91.82
373.424	106.15
373.635	-29.01
373.846	122.54
374.056	7.85
374.267	97.96
374.477	48.81
374.688	7.85
374.898	-18.77
375.109	13.99
375.319	40.62
375.53	190.12
375.74	134.82
375.951	108.2
376.161	128.68
376.372	134.82
376.582	24.23
376.793	161.45
377.003	61.1
377.214	-65.88
377.424	157.35
377.635	112.3
377.845	5.8
378.055	143.02
378.266	-39.25
378.476	-16.73
378.686	97.96
378.897	87.72
379.107	124.58
379.317	149.16
379.528	77.48
379.738	77.48
379.948	-49.49
380.158	118.44
380.369	71.34
380.579	93.87
380.789	3.75
380.999	42.67
381.21	11.95
381.42	179.88
381.63	-2.39
381.84	69.29
382.05	87.72
382.261	134.82
382.471	126.63
382.681	5.8
382.891	110.25
383.101	75.43
383.311	44.71
383.521	-20.82
383.731	210.6
383.941	130.73
384.151	11.95
384.361	132.78
384.571	32.43
384.781	87.72
384.991	97.96
385.201	241.32
385.411	140.97
385.621	79.53
385.831	34.47
386.041	118.44
386.251	95.91
386.461	157.35
386.671	-8.53
386.881	-33.11
387.091	-4.44
387.301	132.78
387.511	54.95
387.72	151.21
387.93	102.06
388.14	-63.83
388.35	130.73
388.56	93.87
388.769	147.11
388.979	85.67
389.189	-12.63
389.399	-12.63
389.609	89.77
389.818	136.87
390.028	85.67
390.238	114.34
390.447	20.14
390.657	93.87
390.867	-10.58
391.076	18.09
391.286	61.1
391.496	18.09
391.705	26.28
391.915	167.59
392.125	159.4
392.334	-18.77
392.544	130.73
392.753	52.91
392.963	-14.68
393.172	104.11
393.382	36.52
393.591	167.59
393.801	-8.53
394.01	145.06
394.22	106.15
394.429	145.06
394.639	11.95
394.848	63.15
395.058	145.06
395.267	7.85
395.477	136.87
395.686	67.24
395.895	171.69
396.105	149.16
396.314	42.67
396.524	34.47
396.733	22.19
396.942	204.46
397.152	136.87
397.361	149.16
397.57	83.63
397.78	54.95
397.989	59.05
398.198	192.17
398.407	-4.44
398.617	67.24
398.826	112.3
399.035	-49.49
399.244	95.91
399.453	48.81
399.663	48.81
399.872	52.91
400.081	-41.3
400.29	97.96
400.499	-41.3
400.708	124.58
400.917	22.19
401.127	20.14
401.336	44.71
401.545	181.93
401.754	106.15
401.963	118.44
402.172	9.9
402.381	28.33
402.59	-69.97
402.799	63.15
403.008	202.41
403.217	59.05
403.426	85.67
403.635	-59.73
403.844	73.39
404.053	20.14
404.262	93.87
404.471	161.45
404.68	81.58
404.888	112.3
405.097	30.38
405.306	18.09
405.515	120.49
405.724	65.19
405.933	147.11
406.142	132.78
406.35	124.58
406.559	67.24
406.768	102.06
406.977	171.69
407.185	77.48
407.394	100.01
407.603	-37.2
407.812	-0.34
408.02	153.26
408.229	79.53
408.438	65.19
408.646	-67.92
408.855	1.71
409.064	73.39
409.272	100.01
409.481	151.21
409.69	54.95
409.898	-63.83
410.107	120.49
410.315	192.17
410.524	104.11
410.733	50.86
410.941	48.81
411.15	89.77
411.358	108.2
411.567	100.01
411.775	73.39
411.984	26.28
412.192	140.97
412.401	22.19
412.609	218.79
412.818	102.06
413.026	71.34
413.234	42.67
413.443	20.14
413.651	-33.11
413.86	69.29
414.068	147.11
414.276	190.12
414.485	-16.73
414.693	147.11
414.901	231.08
415.11	75.43
415.318	34.47
415.526	87.72
415.734	100.01
415.943	32.43
416.151	190.12
416.359	32.43
416.567	13.99
416.776	110.25
416.984	108.2
417.192	161.45
417.4	-67.92
417.608	13.99
417.817	-63.83
418.025	36.52
418.233	175.78
418.441	-72.02
418.649	-29.01
418.857	91.82
419.065	145.06
419.273	52.91
419.481	73.39
419.689	97.96
419.897	-39.25
420.105	77.48
420.313	145.06
420.521	61.1
420.729	91.82
420.937	-49.49
421.145	-8.53
421.353	102.06
421.561	167.59
421.769	97.96
421.977	46.76
422.185	128.68
422.393	32.43
422.601	126.63
422.809	81.58
423.017	16.04
423.224	-39.25
423.432	179.88
423.64	38.57
423.848	200.36
424.056	-20.82
424.263	30.38
424.471	93.87
424.679	183.98
424.887	-80.21
425.094	145.06
425.302	97.96
425.51	108.2
425.718	159.4
425.925	48.81
426.133	18.09
426.341	259.75
426.548	54.95
426.756	26.28
426.964	206.5
427.171	48.81
427.379	57
427.586	54.95
427.794	91.82
428.001	67.24
428.209	30.38
428.417	114.34
428.624	89.77
428.832	167.59
429.039	102.06
429.247	95.91
429.454	212.65
429.662	179.88
429.869	83.63
430.076	50.86
430.284	114.34
430.491	177.83
430.699	116.39
430.906	186.02
431.114	126.63
431.321	138.92
431.528	26.28
431.736	183.98
431.943	1.71
432.15	143.02
432.358	276.13
432.565	222.89
432.772	26.28
432.979	231.08
433.187	122.54
433.394	145.06
433.601	190.12
433.808	181.93
434.016	212.65
434.223	179.88
434.43	118.44
434.637	296.61
434.844	159.4
435.052	159.4
435.259	169.64
435.466	181.93
435.673	165.54
435.88	288.42
436.087	251.56
436.294	267.94
436.501	241.32
436.708	237.22
436.915	208.55
437.122	321.19
437.329	145.06
437.537	288.42
437.743	243.37
437.95	360.1
438.157	245.41
438.364	319.14
438.571	335.53
438.778	327.33
438.985	321.19
439.192	370.34
439.399	276.13
439.606	407.2
439.813	347.81
440.02	464.55
440.227	552.61
440.433	485.03
440.64	317.09
440.847	407.2
441.054	405.16
441.261	532.13
441.467	405.16
441.674	462.5
441.881	558.75
442.088	415.4
442.294	560.8
442.501	583.33
442.708	655.01
442.914	489.12
443.121	640.67
443.328	687.78
443.534	726.69
443.741	599.71
443.948	485.03
444.154	749.22
444.361	931.48
444.568	794.27
444.774	804.51
444.981	679.58
445.187	906.91
445.394	794.27
445.6	843.42
445.807	984.73
446.013	839.33
446.22	827.04
446.426	1037.98
446.633	1097.37
446.839	1201.82
447.046	1001.12
447.252	1119.9
447.459	1191.58
447.665	1259.16
447.871	1304.21
448.078	1509.01
448.284	1343.13
448.491	1412.76
448.697	1470.1
448.903	1580.69
449.11	1488.53
449.316	1543.83
449.522	1722
449.728	1799.82
449.935	1863.31
450.141	1812.11
450.347	2016.91
450.553	1957.52
450.76	2035.34
450.966	2074.25
451.172	2262.66
451.378	2197.13
451.584	2272.9
451.791	2522.76
451.997	2612.87
452.203	2594.44
452.409	2745.98
452.615	2903.68
452.821	2829.95
453.027	2705.03
453.233	3288.7
453.44	3071.61
453.646	3057.28
453.852	3380.86
454.058	3526.26
454.264	3554.93
454.47	3694.19
454.676	3804.78
454.882	4218.47
455.088	3860.08
455.294	4200.04
455.5	4492.9
455.705	4769.38
455.911	4865.63
456.117	5008.99
456.323	5228.12
456.529	4968.03
456.735	5451.35
456.941	5604.95
457.147	5787.22
457.352	6028.88
457.558	6278.73
457.764	6708.8
457.97	6780.48
458.176	7024.19
458.381	7378.49
458.587	7542.33
458.793	7964.21
458.999	7798.32
459.204	8969.76
459.41	9178.65
459.616	9096.74
459.821	9670.17
460.027	10077.71
460.233	10456.59
460.438	10456.59
460.644	11021.83
460.85	11292.16
461.055	11693.56
461.261	12080.63
461.466	12140.02
461.672	12266.99
461.878	13782.49
462.083	13602.27
462.289	14038.48
462.494	14304.72
462.7	14370.26
462.905	14730.7
463.111	15969.72
463.316	16893.35
463.522	16938.41
463.727	17667.49
463.932	18085.27
464.138	18845.07
464.343	19303.81
464.549	19441.03
464.754	21005.67
464.959	21497.19
465.165	22136.15
465.37	21785.95
465.575	21654.88
465.781	23086.41
465.986	23579.97
466.191	23518.53
466.397	24042.81
466.602	23346.5
466.807	24583.48
467.012	24952.11
467.218	25359.66
467.423	25328.94
467.628	26107.16
467.833	27360.52
468.038	26909.97
468.244	26363.16
468.449	27487.5
468.654	27043.09
468.859	27385.1
469.064	27069.71
469.269	26486.04
469.474	26653.97
469.679	27251.98
469.885	26674.45
470.09	27100.43
470.295	26940.69
470.5	26408.22
470.705	26613.01
470.91	25935.13
471.115	25701.67
471.32	26623.25
471.525	25914.66
471.73	25257.26
471.935	25128.24
472.139	23946.56
472.344	23964.99
472.549	23811.39
472.754	23561.54
472.959	22834.51
473.164	22250.84
473.369	21933.4
473.574	22492.5
473.778	21679.46
473.983	21691.74
474.188	21292.39
474.393	20311.41
474.598	20075.9
474.802	19606.91
475.007	19713.41
475.212	19330.44
475.417	18347.41
475.621	18572.69
475.826	18261.4
476.031	17743.26
476.235	17122.73
476.44	17360.29
476.645	16719.28
476.849	16811.43
477.054	16246.19
477.259	16039.35
477.463	15959.48
477.668	15545.79
477.872	15594.94
478.077	15252.93
478.282	14781.9
478.486	14640.59
478.691	14474.7
478.895	14333.39
479.1	14286.29
479.304	14194.13
479.509	13407.71
479.713	14003.67
479.918	13571.55
480.122	13284.83
480.326	13510.11
480.531	13542.88
480.735	13245.92
480.94	12844.52
481.144	13616.6
481.348	12674.54
481.553	12946.92
481.757	12443.12
481.961	12742.12
482.166	12758.5
482.37	12688.87
482.574	12271.09
482.778	12086.77
482.983	12355.05
483.187	12152.31
483.391	12105.2
483.595	11957.75
483.8	11783.67
484.004	11587.07
484.208	11910.64
484.412	11304.45
484.616	11603.45
484.821	11150.85
485.025	11019.78
485.229	10866.18
485.433	10892.8
485.637	10720.78
485.841	10499.59
486.045	10454.54
486.249	10341.9
486.453	10208.78
486.657	10114.58
486.861	9698.84
487.065	9674.26
487.269	9438.75
487.473	9201.18
487.677	9281.05
487.881	9414.17
488.085	9006.63
488.289	8828.45
488.493	8482.35
488.697	8750.63
488.901	8453.67
489.105	8111.66
489.309	8085.04
489.512	8076.85
489.716	7853.62
489.92	7814.71
490.124	7429.69
490.328	7685.69
490.531	7220.8
490.735	7362.11
490.939	6925.89
491.143	6864.45
491.346	6700.61
491.55	6712.9
491.754	6606.41
491.958	6493.77
492.161	6395.47
492.365	6299.21
492.569	6221.39
492.772	6297.16
492.976	5922.38
493.18	5893.71
493.383	6016.59
493.587	5875.28
493.79	5881.42
493.994	5594.71
494.197	5611.09
494.401	5498.45
494.605	5373.53
494.808	5428.82
495.012	5480.02
495.215	5422.68
495.419	5398.1
495.622	5205.6
495.825	5328.47
496.029	5027.42
496.232	5295.71
496.436	5103.2
496.639	5242.46
496.843	5250.65
497.046	5115.48
497.249	5344.86
497.453	5099.1
497.656	5072.48
497.859	5187.16
498.063	5355.1
498.266	5394.01
498.469	5035.61
498.673	5224.03
498.876	5234.27
499.079	5131.87
499.282	5269.08
499.485	5408.34
499.689	5197.4
499.892	5520.98
500.095	5234.27
500.298	5377.62
500.501	5340.76
500.705	5559.89
500.908	5430.87
501.111	5508.69
501.314	5662.29
501.517	5723.73
501.72	5848.66
501.923	5912.14
502.126	5779.03
502.329	5936.72
502.532	5873.23
502.735	5860.95
502.938	6248.01
503.141	6172.24
503.344	6217.29
503.547	6497.86
503.75	6309.45
503.953	6364.75
504.156	6581.83
504.359	6536.77
504.562	6581.83
504.765	6747.72
504.968	6940.22
505.17	7061.05
505.373	7030.34
505.576	7329.34
505.779	7362.11
505.982	7282.24
506.185	7614.01
506.387	7714.36
506.59	7900.72
506.793	7913.01
506.996	8058.42
507.198	8353.32
507.401	8396.33
507.604	8582.7
507.807	8848.93
508.009	8916.51
508.212	9072.16
508.415	9125.41
508.617	9332.25
508.82	9666.07
509.022	9539.1
509.225	10030.61
509.428	10401.29
509.63	10569.23
509.833	10540.55
510.035	11105.79
510.238	11075.07
510.44	11374.08
510.643	11783.67
510.845	11976.18
511.048	12029.43
511.25	12365.29
511.453	12592.62
511.655	13213.15
511.858	13481.44
512.06	13387.23
512.262	13815.26
512.465	13813.21
512.667	14321.1
512.87	14685.64
513.072	14904.78
513.274	15486.4
513.477	15850.94
513.679	16170.42
513.881	16625.07
514.084	16950.7
514.286	17126.82
514.488	17542.56
514.69	18048.41
514.893	18171.29
515.095	18818.44
515.297	19326.34
515.499	19604.86
515.701	19940.73
515.904	20678
516.106	21185.9
516.308	21435.75
516.51	21947.74
516.712	22005.08
516.914	22783.31
517.116	23119.18
517.318	23414.09
517.52	24102.2
517.722	24329.53
517.925	24872.24
518.127	25259.31
518.329	25928.99
518.531	26055.97
518.733	26754.32
518.935	27108.62
519.136	27452.68
519.338	28331.26
519.54	28300.54
519.742	28931.31
519.944	29351.15
520.146	30262.49
520.348	30295.26
520.55	30801.11
520.752	30704.85
520.954	31788.23
521.155	31558.86
521.357	32206.02
521.559	32863.41
521.761	33520.81
521.963	33303.73
522.164	33631.4
522.366	34098.34
522.568	34231.46
522.77	34276.51
522.971	35529.87
523.173	35003.54
523.375	35450
523.576	35763.34
523.778	35828.87
523.98	36224.13
524.181	36543.61
524.383	36271.23
524.584	36574.33
524.786	36299.9
524.988	36613.24
525.189	36992.12
525.391	36971.64
525.592	37004.41
525.794	37010.55
525.995	37127.28
526.197	37790.83
526.398	36779.13
526.6	36856.95
526.801	36893.82
527.003	37115
527.204	36643.96
527.406	36889.72
527.607	36377.73
527.808	36734.07
528.01	35808.39
528.211	36031.62
528.412	36369.54
528.614	35955.85
528.815	35689.61
529.016	35613.84
529.218	34538.65
529.419	35005.59
529.62	34567.32
529.822	33979.56
530.023	33942.69
530.224	33926.31
530.425	33469.61
530.626	32699.58
530.828	32535.74
531.029	32924.85
531.23	32132.29
531.431	31601.86
531.632	31544.52
531.833	31433.93
532.035	30672.09
532.236	30254.3
532.437	30280.92
532.638	29658.34
532.839	29609.19
533.04	29250.8
533.241	28220.67
533.442	28568.82
533.643	27952.38
533.844	27536.65
534.045	27602.18
534.246	26670.36
534.447	26330.39
534.648	26078.49
534.849	25879.84
535.05	25455.91
535.251	25230.63
535.451	24911.15
535.652	24702.26
535.853	24366.39
536.054	23729.47
536.255	23788.86
536.456	23170.38
536.657	23403.85
536.857	22664.53
537.058	22343
537.259	22234.46
537.46	21896.54
537.66	21306.73
537.861	21370.21
538.062	20903.28
538.263	20864.36
538.463	20614.51
538.664	20297.08
538.865	20020.6
539.065	19922.3
539.266	19455.36
539.466	19174.79
539.667	19074.44
539.868	18912.65
540.068	18482.58
540.269	18480.53
540.469	18306.45
540.67	17905.05
540.87	17640.86
541.071	17890.71
541.271	17323.43
541.472	17499.55
541.672	17218.98
541.873	16999.85
542.073	16606.64
542.274	16344.5
542.474	16186.8
542.675	15934.9
542.875	16080.31
543.075	15605.18
543.276	15420.86
543.476	15668.67
543.676	15134.15
543.877	15109.57
544.077	14976.45
544.277	14847.43
544.478	14845.38
544.678	14530
544.878	14216.66
545.078	14153.17
545.279	13991.38
545.479	13487.58
545.679	13741.53
545.879	13450.72
546.079	13327.84
546.28	13116.9
546.48	13178.34
546.68	12946.92
546.88	12873.19
547.08	12711.4
547.28	12627.43
547.48	12223.98
547.68	12506.6
547.88	11924.98
548.081	11961.84
548.281	11415.04
548.481	11443.71
548.681	11630.07
548.881	11140.61
549.081	11116.03
549.28	10917.38
549.48	10839.56
549.68	10798.6
549.88	10483.21
550.08	10389
550.28	10139.15
550.48	10284.56
550.68	10008.08
550.88	9834
551.08	9936.4
551.279	9891.35
551.479	9324.06
551.679	9563.67
551.879	9066.02
552.079	9270.81
552.278	9059.87
552.478	8943.14
552.678	8736.29
552.878	8633.89
553.077	8384.04
553.277	8183.34
553.477	8406.57
553.676	8042.03
553.876	7841.33
554.076	7810.61
554.275	7790.13
554.475	7466.55
554.674	7497.27
554.874	7214.65
555.074	7116.35
555.273	6985.28
555.473	7095.87
555.672	6907.46
555.872	6626.89
556.071	6594.12
556.271	6876.74
556.47	6399.56
556.67	6272.59
556.869	6245.96
557.068	6135.37
557.268	6016.59
557.467	6018.64
557.667	6008.4
557.866	5779.03
558.065	5604.95
558.265	5676.63
558.464	5305.95
558.663	5369.43
558.863	5189.21
559.062	5287.51
559.261	5084.77
559.461	5146.2
559.66	5082.72
559.859	4712.03
560.058	4642.4
560.258	4617.83
560.457	4576.87
560.656	4677.22
560.855	4468.33
561.054	4447.85
561.253	4273.77
561.453	4298.35
561.652	4290.15
561.851	4298.35
562.05	4023.92
562.249	3939.95
562.448	3974.77
562.647	3866.22
562.846	3810.93
563.045	3743.35
563.244	3686
563.443	3757.68
563.642	3579.51
563.841	3624.56
564.04	3399.29
564.239	3479.16
564.438	3458.68
564.637	3352.18
564.836	3229.31
565.035	3247.74
565.234	3206.78
565.432	3247.74
565.631	3163.77
565.83	3204.73
566.029	3034.75
566.228	2946.69
566.427	3053.18
566.625	2731.65
566.824	2909.82
567.023	2946.69
567.222	2614.91
567.42	2715.27
567.619	2659.97
567.818	2639.49
568.016	2805.38
568.215	2508.42
568.414	2522.76
568.612	2539.14
568.811	2444.93
569.01	2354.82
569.208	2377.35
569.407	2408.07
569.605	2346.63
569.804	2283.14
570.002	2279.05
570.201	2125.45
570.4	2215.56
570.598	2186.89
570.797	2197.13
570.995	1990.28
571.193	2029.2
571.392	2031.24
571.59	1838.73
571.789	2027.15
571.987	1984.14
572.186	1949.32
572.384	1920.65
572.582	1955.47
572.781	1877.65
572.979	1773.2
573.177	1713.81
573.376	1810.06
573.574	1756.82
573.772	1719.95
573.971	1642.13
574.169	1582.74
574.367	1676.95
574.565	1595.03
574.763	1476.24
574.962	1595.03
575.16	1404.57
575.358	1449.62
575.556	1386.13
575.754	1408.66
575.952	1336.98
576.151	1363.61
576.349	1435.28
576.547	1201.82
576.745	1400.47
576.943	1375.89
577.141	1199.77
577.339	1164.95
577.537	1240.73
577.735	1379.99
577.933	1316.5
578.131	1031.83
578.329	1304.21
578.527	1076.89
578.725	1226.39
578.923	1029.79
579.121	1205.91
579.319	1021.6
579.516	1007.26
579.714	1334.93
579.912	1040.03
580.11	911
580.308	986.78
580.506	1011.36
580.704	831.13
580.901	949.92
581.099	1101.47
581.297	958.11
581.495	943.77
581.692	929.44
581.89	1042.07
582.088	872.09
582.285	974.49
582.483	865.95
582.681	861.85
582.878	827.04
583.076	759.46
583.274	724.64
583.471	890.53
583.669	761.5
583.866	695.97
584.064	763.55
584.262	687.78
584.459	702.11
584.657	716.45
584.854	777.89
585.052	681.63
585.249	808.61
585.447	726.69
585.644	495.27
585.841	818.85
586.039	708.26
586.236	790.17
586.434	626.34
586.631	648.86
586.828	552.61
587.026	667.3
587.223	499.36
587.42	579.23
587.618	577.19
587.815	691.87
588.012	595.62
588.21	542.37
588.407	650.91
588.604	665.25
588.801	513.7
588.999	558.75
589.196	652.96
589.393	499.36
589.59	669.34
589.787	525.99
589.984	663.2
590.182	552.61
590.379	401.06
590.576	568.99
590.773	482.98
590.97	528.03
591.167	511.65
591.364	528.03
591.561	491.17
591.758	644.77
591.955	583.33
592.152	591.52
592.349	429.73
592.546	431.78
592.743	446.12
592.94	503.46
593.137	558.75
593.334	552.61
593.531	571.04
593.727	540.32
593.924	528.03
594.121	554.66
594.318	448.16
594.515	523.94
594.712	644.77
594.908	673.44
595.105	444.07
595.302	556.71
595.499	581.28
595.696	630.43
595.892	534.18
596.089	640.67
596.286	552.61
596.482	714.4
596.679	716.45
596.876	560.8
597.072	741.02
597.269	751.26
597.466	808.61
597.662	773.79
597.859	700.06
598.055	798.37
598.252	857.76
598.448	992.92
598.645	831.13
598.841	939.68
599.038	1040.03
599.234	1035.93
599.431	890.53
599.627	988.83
599.824	1066.65
600.02	1015.45
600.217	1097.37
600.413	1210.01
600.609	1164.95
600.806	1470.1
601.002	1361.56
601.198	1322.65
601.395	1357.46
601.591	1527.44
601.787	1453.72
601.984	1552.02
602.18	1549.97
602.376	1683.09
602.572	1883.79
602.769	1916.56
602.965	1795.73
603.161	2008.72
603.357	2018.96
603.553	2168.46
603.75	2037.39
603.946	2139.79
604.142	2363.01
604.338	2363.01
604.534	2440.84
604.73	2551.43
604.926	2606.72
605.122	2727.55
605.318	2805.38
605.514	2983.55
605.71	2961.02
605.906	3071.61
606.102	3038.84
606.298	3313.27
606.494	3462.77
606.69	3389.05
606.886	3485.3
607.082	3489.4
607.278	3726.96
607.474	3819.12
607.67	3833.46
607.866	3978.86
608.062	4329.06
608.257	4187.75
608.453	4224.62
608.649	4587.11
608.845	4554.34
609.041	4535.91
609.236	4773.47
609.432	4935.26
609.628	5076.57
609.824	5111.39
610.019	5391.96
610.215	5439.06
610.411	5611.09
610.606	5910.1
610.802	5783.12
610.998	6010.45
611.193	6295.11
611.389	6305.35
611.584	6667.84
611.78	6544.97
611.976	6872.64
612.171	7208.51
612.367	7296.57
612.562	7466.55
612.758	7441.98
612.953	7683.64
613.149	7804.47
613.344	8138.29
613.539	8576.55
613.735	8662.57
613.93	8963.62
614.126	8900.13
614.321	9430.55
614.517	9709.08
614.712	9772.57
614.907	10133.01
615.103	10464.78
615.298	10552.84
615.493	10872.32
615.688	11052.55
615.884	11458.04
616.079	11617.79
616.274	11935.22
616.47	11939.32
616.665	12719.59
616.86	12678.63
617.055	13426.14
617.25	13635.03
617.445	14081.49
617.641	14278.1
617.836	14583.24
618.031	14730.7
618.226	15302.08
618.421	15668.67
618.616	16022.97
618.811	16307.63
619.006	16907.69
619.201	16977.32
619.396	17378.72
619.591	17327.52
619.786	18279.83
619.981	18556.3
620.176	19264.9
620.371	19070.34
620.566	19592.58
620.761	20071.8
620.956	20491.63
621.151	20909.42
621.346	21591.39
621.541	21677.41
621.735	22365.53
621.93	22238.55
622.125	23043.4
622.32	23127.37
622.515	23584.07
622.709	24155.45
622.904	24603.96
623.099	25218.35
623.294	25859.36
623.488	25578.79
623.683	26144.03
623.878	26637.59
624.072	27438.34
624.267	27356.43
624.462	27882.75
624.656	28292.35
624.851	29019.38
625.046	29240.56
625.24	29527.27
625.435	29871.33
625.629	30477.53
625.824	30936.27
626.018	30883.03
626.213	30905.56
626.407	31884.48
626.602	31716.55
626.796	32554.17
626.991	32849.08
627.185	32318.65
627.38	33186.99
627.574	33137.84
627.768	33219.76
627.963	33371.31
628.157	33514.67
628.352	33590.44
628.546	33293.49
628.74	33629.35
628.935	33017.01
629.129	33647.79
629.323	33121.46
629.517	32904.37
629.712	32675
629.906	32255.17
630.1	31995.07
630.294	31724.74
630.489	31339.72
630.683	31116.5
630.877	29971.68
631.071	29521.13
631.265	29254.89
631.459	28484.86
631.653	27833.6
631.848	27016.46
632.042	26391.83
632.236	25978.14
632.43	24925.49
632.624	24528.18
632.818	23248.2
633.012	23014.73
633.206	22234.46
633.4	21671.26
633.594	20749.68
633.788	20120.95
633.982	19508.61
634.176	18412.95
634.369	17690.01
634.563	17081.77
634.757	16391.6
634.951	16084.41
635.145	15277.51
635.339	14656.97
635.533	14106.07
635.726	13594.08
635.92	12807.66
636.114	12615.15
636.308	12078.58
636.501	11378.17
636.695	11120.13
636.889	10440.2
637.083	9979.41
637.276	9664.02
637.47	9381.4
637.664	8844.84
637.857	8478.25
638.051	8246.83
638.244	8019.5
638.438	7372.35
638.632	7464.5
638.825	6876.74
639.019	6700.61
639.212	6471.24
639.406	6293.07
639.599	6037.07
639.793	5619.28
639.986	5363.29
640.18	5293.66
640.373	5068.38
640.567	4830.82
640.76	4748.9
640.954	4429.42
641.147	4066.92
641.34	4275.82
641.534	4081.26
641.727	4095.6
641.92	3737.2
642.114	3737.2
642.307	3448.44
642.5	3481.21
642.694	3049.08
642.887	3223.16
643.08	3114.62
643.273	3020.41
643.467	2795.14
643.66	2657.92
643.853	2610.82
644.046	2539.14
644.239	2315.91
644.432	2240.14
644.626	2066.06
644.819	1990.28
645.012	2061.96
645.205	1969.8
645.398	1984.14
645.591	1773.2
645.784	1631.89
645.977	1617.55
646.17	1588.88
646.363	1513.11
646.556	1502.87
646.749	1416.85
646.942	1498.77
647.135	1429.14
647.328	1265.3
647.521	1291.93
647.714	1203.86
647.907	1187.48
648.099	994.97
648.292	1152.67
648.485	1027.74
648.678	941.72
648.871	927.39
649.064	974.49
649.256	841.37
649.449	767.65
649.642	786.08
649.835	773.79
650.027	716.45
650.22	767.65
650.413	661.15
650.605	792.22
650.798	573.09
650.991	571.04
651.183	646.82
651.376	622.24
651.568	624.29
651.761	505.51
651.954	612
652.146	472.74
652.339	622.24
652.531	642.72
652.724	419.49
652.916	458.4
653.109	472.74
653.301	470.69
653.494	497.32
653.686	388.77
653.879	538.27
654.071	386.72
654.263	360.1
654.456	298.66
654.648	429.73
654.84	485.03
655.033	360.1
655.225	442.02
655.417	310.95
655.61	411.3
655.802	421.54
655.994	411.3
656.186	278.18
656.379	401.06
656.571	261.8
656.763	282.28
656.955	304.81
657.148	284.33
657.34	280.23
657.532	220.84
657.724	214.7
657.916	267.94
658.108	356.01
658.3	278.18
658.492	239.27
658.684	159.4
658.876	362.15
659.068	163.5
659.26	151.21
659.452	77.48
659.644	188.07
659.836	315.05
660.028	161.45
660.22	118.44
660.412	196.26
660.604	188.07
660.796	175.78
660.988	233.13
661.18	151.21
661.372	224.94
661.563	222.89
661.755	153.26
661.947	102.06
662.139	106.15
662.331	143.02
662.522	145.06
662.714	126.63
662.906	124.58
663.097	161.45
663.289	147.11
663.481	40.62
663.673	208.55
663.864	181.93
664.056	169.64
664.247	126.63
664.439	265.89
664.631	140.97
664.822	206.5
665.014	116.39
665.205	93.87
665.397	136.87
665.588	163.5
665.78	183.98
665.971	177.83
666.163	126.63
666.354	204.46
666.546	93.87
666.737	132.78
666.929	69.29
667.12	97.96
667.311	140.97
667.503	89.77
667.694	153.26
667.885	126.63
668.077	208.55
668.268	102.06
668.459	112.3
668.651	136.87
668.842	106.15
669.033	89.77
669.224	-33.11
669.416	292.52
669.607	91.82
669.798	69.29
669.989	331.43
670.18	112.3
670.371	231.08
670.563	44.71
670.754	181.93
670.945	157.35
671.136	190.12
671.327	52.91
671.518	245.41
671.709	231.08
671.9	83.63
672.091	196.26
672.282	126.63
672.473	130.73
672.664	38.57
672.855	69.29
673.046	159.4
673.237	134.82
673.428	124.58
673.619	151.21
673.809	120.49
674	257.7
674.191	130.73
674.382	77.48
674.573	163.5
674.764	75.43
674.954	134.82
675.145	42.67
675.336	36.52
675.527	116.39
675.717	128.68
675.908	77.48
676.099	97.96
676.289	147.11
676.48	73.39
676.671	112.3
676.861	87.72
677.052	169.64
677.243	36.52
677.433	63.15
677.624	147.11
677.814	220.84
678.005	112.3
678.195	226.98
678.386	75.43
678.576	151.21
678.767	24.23
678.957	134.82
679.148	169.64
679.338	194.22
679.529	233.13
679.719	175.78
679.909	165.54
680.1	259.75
680.29	274.09
680.481	32.43
680.671	175.78
680.861	212.65
681.052	106.15
681.242	114.34
681.432	173.74
681.622	130.73
681.813	42.67
682.003	218.79
682.193	42.67
682.383	138.92
682.573	196.26
682.764	110.25
682.954	216.74
683.144	267.94
683.334	173.74
683.524	159.4
683.714	190.12
683.904	229.03
684.094	104.11
684.284	167.59
684.474	317.09
684.664	231.08
684.854	202.41
685.044	214.7
685.234	257.7
685.424	224.94
685.614	77.48
685.804	323.24
685.994	171.69
686.184	173.74
686.374	249.51
686.564	267.94
686.753	226.98
686.943	97.96
687.133	161.45
687.323	100.01
687.513	241.32
687.702	237.22
687.892	265.89
688.082	304.81
688.272	272.04
688.461	194.22
688.651	251.56
688.841	202.41
689.03	145.06
689.22	190.12
689.41	167.59
689.599	259.75
689.789	134.82
689.979	243.37
690.168	216.74
690.358	298.66
690.547	188.07
690.737	282.28
690.926	226.98
691.116	214.7
691.305	263.85
691.495	218.79
691.684	83.63
691.874	200.36
692.063	204.46
692.252	284.33
692.442	315.05
692.631	179.88
692.82	198.31
693.01	224.94
693.199	233.13
693.388	188.07
693.578	216.74
693.767	237.22
693.956	214.7
694.146	183.98
694.335	259.75
694.524	226.98
694.713	294.57
694.902	155.3
695.092	155.3
695.281	290.47
695.47	235.18
695.659	198.31
695.848	208.55
696.037	149.16
696.226	310.95
696.415	245.41
696.604	302.76
696.793	239.27
696.982	224.94
697.171	380.58
697.36	251.56
697.549	229.03
697.738	97.96
697.927	204.46
698.116	93.87
698.305	257.7
698.494	304.81
698.683	159.4
698.872	349.86
699.061	229.03
699.25	222.89
699.438	218.79
699.627	220.84
699.816	341.67
700.005	116.39
700.193	196.26
700.382	302.76
700.571	243.37
700.76	198.31
700.948	220.84
701.137	331.43
701.326	239.27
701.514	71.34
701.703	243.37
701.892	253.61
702.08	364.2
702.269	229.03
702.457	163.5
702.646	280.23
702.834	222.89
703.023	278.18
703.212	253.61
703.4	208.55
703.589	220.84
703.777	181.93
703.965	157.35
704.154	159.4
704.342	163.5
704.531	145.06
704.719	222.89
704.907	263.85
705.096	173.74
705.284	108.2
705.472	286.37
705.661	222.89
705.849	229.03
706.037	349.86
706.226	253.61
706.414	145.06
706.602	179.88
706.79	233.13
706.979	136.87
707.167	233.13
707.355	231.08
707.543	147.11
707.731	183.98
707.919	226.98
708.107	179.88
708.296	202.41
708.484	128.68
708.672	171.69
708.86	220.84
709.048	186.02
709.236	134.82
709.424	198.31
709.612	245.41
709.8	122.54
709.988	188.07
710.176	284.33
710.364	194.22
710.551	186.02
710.739	190.12
710.927	196.26
711.115	188.07
711.303	245.41
711.491	317.09
711.679	149.16
711.866	304.81
712.054	216.74
712.242	214.7
712.43	298.66
712.617	229.03
712.805	284.33
712.993	198.31
713.181	102.06
713.368	243.37
713.556	200.36
713.744	175.78
713.931	394.92
714.119	288.42
714.306	233.13
714.494	153.26
714.682	196.26
714.869	147.11
715.057	259.75
715.244	102.06
715.432	288.42
715.619	192.17
715.807	235.18
715.994	235.18
716.182	155.3
716.369	269.99
716.556	321.19
716.744	200.36
716.931	122.54
717.119	304.81
717.306	282.28
717.493	249.51
717.681	226.98
717.868	224.94
718.055	315.05
718.242	280.23
718.43	272.04
718.617	267.94
718.804	251.56
718.991	304.81
719.179	292.52
719.366	337.57
719.553	306.85
719.74	218.79
719.927	278.18
720.114	237.22
720.301	145.06
720.488	163.5
720.676	136.87
720.863	327.33
721.05	388.77
721.237	290.47
721.424	229.03
721.611	259.75
721.798	157.35
721.985	233.13
722.172	233.13
722.358	253.61
722.545	265.89
722.732	272.04
722.919	323.24
723.106	337.57
723.293	239.27
723.48	269.99
723.667	257.7
723.853	265.89
724.04	308.9
724.227	331.43
724.414	274.09
724.6	349.86
724.787	386.72
724.974	323.24
725.161	194.22
725.347	202.41
725.534	317.09
725.72	364.2
725.907	390.82
726.094	349.86
726.28	183.98
726.467	306.85
726.653	200.36
726.84	370.34
727.027	331.43
727.213	278.18
727.4	358.05
727.586	226.98
727.773	306.85
727.959	269.99
728.145	255.65
728.332	327.33
728.518	263.85
728.705	313
728.891	233.13
729.077	288.42
729.264	218.79
729.45	245.41
729.636	405.16
729.823	296.61
730.009	341.67
730.195	290.47
730.382	364.2
730.568	245.41
730.754	265.89
730.94	313
731.126	331.43
731.313	378.53
731.499	290.47
731.685	468.64
731.871	370.34
732.057	325.29
732.243	394.92
732.429	286.37
732.615	411.3
732.801	337.57
732.987	210.6
733.173	247.46
733.359	339.62
733.545	351.91
733.731	368.29
733.917	380.58
734.103	304.81
734.289	319.14
734.475	335.53
734.661	390.82
734.847	290.47
735.033	304.81
735.219	435.88
735.404	321.19
735.59	362.15
735.776	317.09
735.962	353.96
736.148	403.11
736.333	470.69
736.519	315.05
736.705	343.72
736.89	315.05
737.076	343.72
737.262	255.65
737.447	308.9
737.633	347.81
737.819	417.44
738.004	335.53
738.19	276.13
738.375	339.62
738.561	405.16
738.747	319.14
738.932	290.47
739.118	493.22
739.303	444.07
739.489	343.72
739.674	341.67
739.859	351.91
740.045	403.11
740.23	394.92
740.416	183.98
740.601	347.81
740.786	259.75
740.972	274.09
741.157	356.01
741.342	247.46
741.528	290.47
741.713	411.3
741.898	278.18
742.084	269.99
742.269	278.18
742.454	380.58
742.639	282.28
742.824	304.81
743.01	362.15
743.195	497.32
743.38	351.91
743.565	333.48
743.75	319.14
743.935	351.91
744.12	323.24
744.305	214.7
744.49	274.09
744.675	214.7
744.86	325.29
745.045	321.19
745.23	335.53
745.415	290.47
745.6	366.25
745.785	315.05
745.97	437.92
746.155	335.53
746.34	442.02
746.525	351.91
746.71	370.34
746.895	249.51
747.079	239.27
747.264	280.23
747.449	329.38
747.634	360.1
747.819	276.13
748.003	222.89
748.188	212.65
748.373	325.29
748.557	249.51
748.742	288.42
748.927	274.09
749.111	280.23
749.296	337.57
749.481	321.19
749.665	374.44
749.85	233.13
750.034	325.29
750.219	253.61
750.404	282.28
750.588	370.34
750.773	179.88
750.957	267.94
751.141	259.75
751.326	253.61
751.51	126.63
751.695	237.22
751.879	255.65
752.064	288.42
752.248	331.43
752.432	382.63
752.617	274.09
752.801	272.04
752.985	138.92
753.17	339.62
753.354	233.13
753.538	208.55
753.722	177.83
753.907	186.02
754.091	194.22
754.275	306.85
754.459	204.46
754.643	171.69
754.828	226.98
755.012	276.13
755.196	161.45
755.38	247.46
755.564	175.78
755.748	233.13
755.932	319.14
756.116	224.94
756.3	226.98
756.484	159.4
756.668	257.7
756.852	110.25
757.036	196.26
757.22	190.12
757.404	204.46
757.588	87.72
757.772	186.02
757.956	198.31
758.14	288.42
758.323	81.58
758.507	329.38
758.691	138.92
758.875	280.23
759.059	200.36
759.242	97.96
759.426	235.18
759.61	249.51
759.794	69.29
759.977	267.94
760.161	396.96
760.345	329.38
760.528	200.36
760.712	210.6
760.895	210.6
761.079	251.56
761.263	73.39
761.446	106.15
761.63	114.34
761.813	192.17
761.997	100.01
762.18	143.02
762.364	149.16
762.547	61.1
762.731	157.35
762.914	167.59
763.098	118.44
763.281	128.68
763.464	79.53
763.648	147.11
763.831	212.65
764.015	93.87
764.198	274.09
764.381	179.88
764.564	155.3
764.748	206.5
764.931	210.6
765.114	81.58
765.297	208.55
765.481	69.29
765.664	114.34
765.847	169.64
766.03	196.26
766.213	69.29
766.397	114.34
766.58	24.23
766.763	194.22
766.946	102.06
767.129	106.15
767.312	104.11
767.495	155.3
767.678	73.39
767.861	149.16
768.044	155.3
768.227	83.63
768.41	159.4
768.593	140.97
768.776	134.82
768.959	134.82
769.142	104.11
769.324	145.06
769.507	128.68
769.69	118.44
769.873	153.26
770.056	308.9
770.239	165.54
770.421	194.22
770.604	138.92
770.787	89.77
770.97	202.41
771.152	108.2
771.335	120.49
771.518	118.44
771.7	145.06
771.883	253.61
772.066	128.68
772.248	181.93
772.431	183.98
772.613	183.98
772.796	108.2
772.978	91.82
773.161	261.8
773.343	97.96
773.526	151.21
773.708	-29.01
773.891	-18.77
774.073	151.21
774.256	73.39
774.438	214.7
774.621	42.67
774.803	128.68
774.985	183.98
775.168	296.61
775.35	50.86
775.532	116.39
775.715	54.95
775.897	167.59
776.079	61.1
776.261	81.58
776.444	116.39
776.626	128.68
776.808	30.38
776.99	-22.87
777.173	87.72
777.355	83.63
777.537	91.82
777.719	173.74
777.901	52.91
778.083	26.28
778.265	-20.82
778.447	196.26
778.629	48.81
778.811	147.11
778.993	120.49
779.175	140.97
779.357	112.3
779.539	38.57
779.721	46.76
779.903	145.06
780.085	-31.06
780.267	79.53
780.449	30.38
780.631	136.87
780.812	226.98
780.994	100.01
781.176	67.24
781.358	69.29
781.54	87.72
781.721	134.82
781.903	169.64
782.085	61.1
782.267	124.58
782.448	30.38
782.63	71.34
782.812	18.09
782.993	114.34
783.175	110.25
783.357	28.33
783.538	108.2
783.72	22.19
783.901	77.48
784.083	106.15
784.264	104.11
784.446	-8.53
784.627	-37.2
784.809	87.72
784.99	-20.82
785.172	106.15
785.353	50.86
785.535	59.05
785.716	26.28
785.897	18.09
786.079	52.91
786.26	26.28
786.441	108.2
786.623	3.75
786.804	32.43
786.985	89.77
787.167	85.67
787.348	34.47
787.529	34.47
787.71	175.78
787.891	120.49
788.073	52.91
788.254	-39.25
788.435	224.94
788.616	85.67
788.797	-29.01
788.978	-24.92
789.159	-6.49
789.34	85.67
789.522	-14.68
789.703	-6.49
789.884	104.11
790.065	83.63
790.246	149.16
790.427	3.75
790.607	106.15
790.788	143.02
790.969	26.28
791.15	77.48
791.331	89.77
791.512	61.1
791.693	-20.82
791.874	20.14
792.054	181.93
792.235	73.39
792.416	-47.44
792.597	-63.83
792.778	120.49
792.958	87.72
793.139	40.62
793.32	108.2
793.5	11.95
793.681	145.06
793.862	97.96
794.042	22.19
794.223	-2.39
794.404	-45.4
794.584	-74.07
794.765	11.95
794.945	59.05
795.126	67.24
795.306	83.63
795.487	-41.3
795.667	40.62
795.848	61.1
796.028	22.19
796.209	-76.12
796.389	149.16
796.57	-33.11
796.75	-24.92
796.93	71.34
797.111	-47.44
797.291	-0.34
797.471	75.43
797.652	52.91
797.832	5.8
798.012	3.75
798.192	9.9
798.373	-31.06
798.553	-24.92
798.733	69.29
798.913	-16.73
799.093	-6.49
799.274	16.04
799.454	69.29
799.634	95.91
799.814	167.59
799.994	-10.58
800.174	32.43
800.354	20.14
800.534	-39.25
800.714	104.11
800.894	-98.64
801.074	-59.73
801.254	20.14
801.434	124.58
801.614	-16.73
801.794	-88.4
801.974	1765.01
802.154	20.14
802.334	93.87
802.514	11.95
802.693	-6.49
802.873	-4.44
803.053	97.96
803.233	89.77
803.413	91.82
803.592	-24.92
803.772	-16.73
803.952	81.58
804.131	-39.25
804.311	77.48
804.491	132.78
804.67	-14.68
804.85	-45.4
805.03	87.72
805.209	104.11
805.389	-39.25
805.568	-59.73
805.748	-29.01
805.928	20.14
806.107	97.96
806.287	106.15
806.466	40.62
806.646	65.19
806.825	-37.2
807.004	28.33
807.184	93.87
807.363	124.58
807.543	108.2
807.722	-57.68
807.901	157.35
808.081	61.1
808.26	-26.96
808.439	18.09
808.619	-18.77
808.798	28.33
808.977	89.77
809.156	97.96
809.336	77.48
809.515	73.39
809.694	1.71
809.873	-47.44
810.052	126.63
810.231	136.87
810.411	34.47
810.59	167.59
810.769	16.04
810.948	75.43
811.127	-39.25
811.306	-65.88
811.485	32.43
811.664	108.2
811.843	18.09
812.022	5.8
812.201	20.14
812.38	24.23
812.559	-69.97
812.737	67.24
812.916	-88.4
813.095	-14.68
813.274	46.76
813.453	-0.34
813.632	120.49
813.811	104.11
813.989	-35.16
814.168	5.8
814.347	-67.92
814.526	30.38
814.704	102.06
814.883	87.72
815.062	-6.49
815.24	77.48
815.419	-88.4
815.598	36.52
815.776	-45.4
815.955	-20.82
816.133	-129.36
816.312	69.29
816.49	-63.83
816.669	-2.39
816.847	-12.63
817.026	46.76
817.204	57
817.383	11.95
817.561	-76.12
817.74	52.91
817.918	40.62
818.097	40.62
818.275	-57.68
818.453	97.96
818.632	48.81
818.81	-10.58
818.988	-67.92
819.167	-37.2
819.345	13.99
819.523	-2.39
819.701	97.96
819.879	38.57
820.058	97.96
820.236	65.19
820.414	-10.58
820.592	65.19
820.77	-72.02
820.948	-14.68
821.127	-41.3
821.305	16.04
821.483	-39.25
821.661	134.82
821.839	81.58
822.017	1.71
822.195	-82.26
822.373	87.72
822.551	44.71
822.729	75.43
822.907	104.11
823.085	73.39
823.262	20.14
823.44	-12.63
823.618	11.95
823.796	63.15
823.974	-76.12
824.152	1.71
824.329	-63.83
824.507	-0.34
824.685	9.9
824.863	-14.68
825.04	16.04
825.218	63.15
825.396	36.52
825.574	9.9
825.751	42.67
825.929	89.77
826.107	-80.21
826.284	50.86
826.462	42.67
826.639	-14.68
826.817	-26.96
826.994	11.95
827.172	-31.06
827.349	102.06
827.527	140.97
827.704	50.86
827.882	126.63
828.059	93.87
828.237	-43.35
828.414	42.67
828.591	-147.8
828.769	65.19
828.946	-69.97
829.124	67.24
829.301	130.73
829.478	3.75
829.655	79.53
829.833	89.77
830.01	-158.03
830.187	24.23
830.364	-39.25
830.542	40.62
830.719	81.58
830.896	63.15
831.073	69.29
831.25	102.06
831.427	118.44
831.604	3.75
831.782	-31.06
831.959	28.33
832.136	1.71
832.313	91.82
832.49	-20.82
832.667	9.9
832.844	-45.4
833.021	97.96
833.198	32.43
833.374	46.76
833.551	-0.34
833.728	-16.73
833.905	91.82
834.082	-45.4
834.259	114.34
834.436	26.28
834.612	-119.12
834.789	73.39
834.966	-39.25
835.143	79.53
835.319	-102.74
835.496	32.43
835.673	77.48
835.85	44.71
836.026	20.14
836.203	24.23
836.38	-67.92
836.556	-43.35
836.733	18.09
836.909	65.19
837.086	13.99
837.262	-201.04
837.439	-12.63
837.616	-29.01
837.792	-10.58
837.968	59.05
838.145	-133.46
838.321	1.71
838.498	18.09
838.674	73.39
838.851	124.58
839.027	-47.44
839.203	-20.82
839.38	-37.2
839.556	-98.64
839.732	1.71
839.909	46.76
840.085	44.71
840.261	-49.49
840.437	7.85
840.614	-18.77
840.79	97.96
840.966	52.91
841.142	77.48
841.318	54.95
841.494	16.04
841.671	118.44
841.847	-61.78
842.023	-74.07
842.199	132.78
842.375	91.82
842.551	-31.06
842.727	-47.44
842.903	59.05
843.079	-55.64
843.255	87.72
843.431	-2.39
843.607	46.76
843.783	-123.22
843.959	134.82
844.134	18.09
844.31	120.49
844.486	-63.83
844.662	-88.4
844.838	38.57
845.013	13.99
845.189	75.43
845.365	-33.11
845.541	-14.68
845.716	34.47
845.892	91.82
846.068	-53.59
846.244	-78.16
846.419	13.99
846.595	-20.82
846.77	-82.26
846.946	44.71
847.122	-80.21
847.297	-0.34
847.473	128.68
847.648	-59.73
847.824	71.34
847.999	-35.16
848.175	-33.11
848.35	5.8
848.526	48.81
848.701	9.9
848.876	40.62
849.052	77.48
849.227	-0.34
849.403	61.1
849.578	-26.96
849.753	24.23
849.929	73.39
850.104	-76.12
850.279	16.04
850.454	38.57
850.63	22.19
850.805	-0.34
850.98	7.85
851.155	-10.58
851.33	-14.68
851.505	-8.53
851.681	97.96
851.856	-24.92
852.031	-4.44
852.206	34.47
852.381	-57.68
852.556	-16.73
852.731	67.24
852.906	132.78
853.081	36.52
853.256	120.49
853.431	-2.39
853.606	-76.12
853.781	-80.21
853.956	-121.17
854.131	1.71
854.305	-92.5
854.48	-16.73
854.655	-4.44
854.83	-55.64
855.005	-41.3
855.18	-22.87
855.354	16.04
855.529	-2.39
855.704	59.05
855.879	63.15
856.053	-92.5
856.228	-10.58
856.403	-115.03
856.577	16.04
856.752	-63.83
856.926	28.33
857.101	7.85
857.276	-100.69
857.45	32.43
857.625	91.82
857.799	52.91
857.974	9.9
858.148	-84.31
858.323	34.47
858.497	-18.77
858.672	-51.54
858.846	-33.11
859.02	42.67
859.195	-49.49
859.369	-37.2
859.543	91.82
859.718	85.67
859.892	87.72
860.066	-10.58
860.241	-4.44
860.415	-39.25
860.589	-39.25
860.763	-2.39
860.938	-12.63
861.112	34.47
861.286	-41.3
861.46	63.15
861.634	-16.73
861.808	63.15
861.982	-63.83
862.157	-67.92
862.331	9.9
862.505	-96.6
862.679	-123.22
862.853	26.28
863.027	-22.87
863.201	143.02
863.375	-29.01
863.549	36.52
863.722	-20.82
863.896	59.05
864.07	-59.73
864.244	9.9
864.418	63.15
864.592	28.33
864.766	71.34
864.939	32.43
865.113	28.33
865.287	112.3
865.461	-16.73
865.634	71.34
865.808	16.04
865.982	-14.68
866.156	7.85
866.329	-45.4
866.503	13.99
866.676	16.04
866.85	79.53
867.024	-16.73
867.197	20.14
867.371	44.71
867.544	-41.3
867.718	-55.64
867.891	61.1
868.065	-61.78
868.238	22.19
868.412	153.26
868.585	44.71
868.759	-90.45
868.932	-26.96
869.105	36.52
869.279	28.33
869.452	-65.88
869.625	-16.73
869.799	48.81
869.972	-69.97
870.145	-63.83
870.319	136.87
870.492	-14.68
870.665	73.39
870.838	-31.06
871.011	-172.37
871.185	-4.44
871.358	-35.16
871.531	-10.58
871.704	-94.55
871.877	-0.34
872.05	-37.2
872.223	-65.88
872.396	73.39
872.569	34.47
872.742	-10.58
872.915	71.34
873.088	-45.4
873.261	-24.92
873.434	50.86
873.607	63.15
873.78	75.43
873.953	-82.26
874.126	7.85
874.299	54.95
874.471	-45.4
874.644	-35.16
874.817	50.86
874.99	134.82
875.163	-29.01
875.335	-47.44
875.508	44.71
875.681	50.86
875.853	-59.73
876.026	7.85
876.199	44.71
876.371	83.63
876.544	-45.4
876.717	-57.68
876.889	11.95
877.062	3.75
877.234	-127.32
877.407	-96.6
877.579	-24.92
877.752	40.62
877.924	40.62
878.097	65.19
878.269	38.57
878.442	-4.44
878.614	16.04
878.786	38.57
878.959	-12.63
879.131	-90.45
879.303	-92.5
879.476	-74.07
879.648	48.81
879.82	-45.4
879.993	-102.74
880.165	-90.45
880.337	-37.2
880.509	-24.92
880.681	-86.36
880.854	24.23
881.026	-18.77
881.198	140.97
881.37	40.62
881.542	-8.53
881.714	9.9
881.886	-14.68
882.058	-92.5
882.23	71.34
882.402	-55.64
882.574	63.15
882.746	28.33
882.918	20.14
883.09	26.28
883.262	42.67
883.434	5.8
883.606	-104.79
883.778	-22.87
883.95	85.67
884.122	-14.68
884.293	149.16
884.465	-2.39
884.637	52.91
884.809	-67.92
884.98	-24.92
885.152	-35.16
885.324	136.87
885.496	-43.35
885.667	-16.73
885.839	-26.96
886.011	140.97
886.182	30.38
886.354	50.86
886.525	-12.63
886.697	16.04
886.869	-14.68
887.04	-22.87
887.212	136.87
887.383	112.3
887.555	42.67
887.726	-39.25
887.897	-8.53
888.069	46.76
888.24	136.87
888.412	48.81
888.583	-53.59
888.754	-12.63
888.926	-125.27
889.097	-100.69
889.268	-47.44
889.44	-18.77
889.611	-57.68
889.782	-39.25
889.953	-57.68
890.125	63.15
890.296	-47.44
890.467	-94.55
890.638	-45.4
890.809	79.53
890.98	-49.49
891.151	83.63
891.323	192.17
891.494	11.95
891.665	106.15
891.836	16.04
892.007	24.23
892.178	61.1
892.349	-8.53
892.52	-35.16
892.691	44.71
892.862	-41.3
893.032	61.1
893.203	-24.92
893.374	9.9
893.545	77.48
893.716	-22.87
893.887	3.75
894.057	-121.17
894.228	-14.68
894.399	-41.3
894.57	81.58
894.74	-51.54
894.911	32.43
895.082	44.71
895.253	13.99
895.423	42.67
895.594	59.05
895.764	22.19
895.935	-104.79
896.106	46.76
896.276	-26.96
896.447	18.09
896.617	-74.07
896.788	-86.36
896.958	-88.4
897.129	3.75
897.299	50.86
897.47	120.49
897.64	-18.77
897.81	-33.11
897.981	-2.39
898.151	13.99
898.322	9.9
898.492	40.62
898.662	-39.25
898.832	-6.49
899.003	48.81
899.173	-4.44
899.343	-26.96
899.513	-86.36
