Data from USB4F104151__12__11-24-25-407.txt Node

Date: Wed Feb 26 11:24:25 EST 2025
User: louis
Spectrometer: USB4F10415
Trigger mode: 4
Integration Time (sec): 1.000000E-1
Scans to average: 1
Electric dark correction enabled: true
Nonlinearity correction enabled: false
Boxcar width: 0
XAxis mode: Wavelengths
Number of Pixels in Spectrum: 3648
>>>>>Begin Spectral Data<<<<<
178.204	-431.78
178.424	-431.78
178.644	-431.78
178.864	-415.4
179.084	-417.44
179.304	8.53
179.524	-1.71
179.744	-9.9
179.964	-13.99
180.184	-16.04
180.404	76.12
180.624	-100.01
180.844	24.92
181.064	-91.82
181.283	8.53
181.503	67.92
181.723	47.44
181.943	-159.4
182.163	151.89
182.383	12.63
182.602	67.92
182.822	178.51
183.042	29.01
183.262	-69.29
183.482	41.3
183.701	45.4
183.921	-13.99
184.141	-20.14
184.361	31.06
184.58	49.49
184.8	18.77
185.02	-38.57
185.239	63.83
185.459	86.36
185.679	131.41
185.898	-147.11
186.118	49.49
186.338	-13.99
186.557	119.12
186.777	-75.43
186.997	16.73
187.216	39.25
187.436	155.99
187.655	84.31
187.875	63.83
188.095	16.73
188.314	166.23
188.534	53.59
188.753	-63.15
188.973	117.08
189.192	246.1
189.412	-36.52
189.631	26.96
189.851	74.07
190.07	170.32
190.29	-75.43
190.509	-30.38
190.729	2.39
190.948	88.4
191.168	246.1
191.387	4.44
191.607	-11.95
191.826	145.75
192.045	29.01
192.265	-50.86
192.484	100.69
192.704	82.26
192.923	-46.76
193.142	143.7
193.362	100.69
193.581	147.8
193.8	6.49
194.02	63.83
194.239	20.82
194.458	139.6
194.678	-9.9
194.897	45.4
195.116	-3.75
195.335	41.3
195.555	100.69
195.774	-34.47
195.993	86.36
196.212	31.06
196.432	0.34
196.651	49.49
196.87	-34.47
197.089	272.72
197.308	92.5
197.528	16.73
197.747	-91.82
197.966	61.78
198.185	198.99
198.404	-73.39
198.623	141.65
198.842	22.87
199.062	117.08
199.281	155.99
199.5	63.83
199.719	72.02
199.938	55.64
200.157	22.87
200.376	57.68
200.595	117.08
200.814	37.2
201.033	-32.43
201.252	69.97
201.471	80.21
201.69	10.58
201.909	35.16
202.128	94.55
202.347	76.12
202.566	96.6
202.785	-87.72
203.004	-24.23
203.223	233.81
203.442	-11.95
203.661	-38.57
203.879	6.49
204.098	125.27
204.317	-52.91
204.536	121.17
204.755	67.92
204.974	61.78
205.193	74.07
205.411	153.94
205.63	57.68
205.849	41.3
206.068	-16.04
206.287	-44.71
206.505	100.69
206.724	84.31
206.943	-32.43
207.162	-20.14
207.381	92.5
207.599	16.73
207.818	59.73
208.037	41.3
208.255	74.07
208.474	84.31
208.693	14.68
208.911	-16.04
209.13	22.87
209.349	82.26
209.567	92.5
209.786	74.07
210.005	14.68
210.223	53.59
210.442	-95.91
210.661	4.44
210.879	84.31
211.098	12.63
211.316	26.96
211.535	133.46
211.753	45.4
211.972	43.35
212.191	-5.8
212.409	-42.67
212.628	94.55
212.846	12.63
213.065	80.21
213.283	84.31
213.502	59.73
213.72	33.11
213.938	76.12
214.157	33.11
214.375	41.3
214.594	-13.99
214.812	82.26
215.031	-30.38
215.249	110.93
215.467	90.45
215.686	-50.86
215.904	74.07
216.122	16.73
216.341	145.75
216.559	37.2
216.778	69.97
216.996	141.65
217.214	29.01
217.432	-16.04
217.651	-24.23
217.869	74.07
218.087	8.53
218.306	-48.81
218.524	86.36
218.742	-7.85
218.96	90.45
219.179	80.21
219.397	-1.71
219.615	229.71
219.833	127.32
220.051	-22.19
220.27	84.31
220.488	160.08
220.706	35.16
220.924	-75.43
221.142	2.39
221.36	94.55
221.578	20.82
221.796	45.4
222.015	29.01
222.233	35.16
222.451	192.85
222.669	-18.09
222.887	123.22
223.105	26.96
223.323	-7.85
223.541	-44.71
223.759	49.49
223.977	24.92
224.195	151.89
224.413	74.07
224.631	47.44
224.849	168.27
225.067	158.03
225.285	-61.1
225.503	-26.28
225.721	-93.87
225.939	22.87
226.157	51.54
226.375	221.52
226.592	-44.71
226.81	18.77
227.028	119.12
227.246	100.69
227.464	16.73
227.682	45.4
227.9	20.82
228.117	49.49
228.335	57.68
228.553	-11.95
228.771	45.4
228.989	90.45
229.206	155.99
229.424	8.53
229.642	18.77
229.86	-93.87
230.077	100.69
230.295	-18.09
230.513	104.79
230.731	151.89
230.948	158.03
231.166	164.18
231.384	-28.33
231.601	-110.25
231.819	166.23
232.037	-36.52
232.254	0.34
232.472	24.92
232.689	-7.85
232.907	115.03
233.125	-24.23
233.342	39.25
233.56	-40.62
233.777	-5.8
233.995	-3.75
234.213	69.97
234.43	112.98
234.648	82.26
234.865	-44.71
235.083	59.73
235.3	-40.62
235.518	162.13
235.735	151.89
235.953	63.83
236.17	94.55
236.388	4.44
236.605	86.36
236.822	106.84
237.04	59.73
237.257	-28.33
237.475	20.82
237.692	106.84
237.909	80.21
238.127	-38.57
238.344	80.21
238.562	33.11
238.779	-11.95
238.996	-34.47
239.214	49.49
239.431	65.88
239.648	51.54
239.865	86.36
240.083	45.4
240.3	-34.47
240.517	-46.76
240.735	35.16
240.952	143.7
241.169	35.16
241.386	104.79
241.603	90.45
241.821	-40.62
242.038	78.16
242.255	98.64
242.472	-24.23
242.689	59.73
242.907	90.45
243.124	14.68
243.341	10.58
243.558	16.73
243.775	-75.43
243.992	-116.39
244.209	147.8
244.426	96.6
244.643	72.02
244.86	-7.85
245.078	59.73
245.295	57.68
245.512	20.82
245.729	-34.47
245.946	69.97
246.163	100.69
246.38	51.54
246.597	82.26
246.814	88.4
247.031	53.59
247.248	35.16
247.464	51.54
247.681	14.68
247.898	-3.75
248.115	166.23
248.332	-3.75
248.549	98.64
248.766	117.08
248.983	37.2
249.2	78.16
249.417	158.03
249.633	41.3
249.85	37.2
250.067	-1.71
250.284	-11.95
250.501	41.3
250.717	74.07
250.934	-1.71
251.151	29.01
251.368	51.54
251.585	78.16
251.801	84.31
252.018	-32.43
252.235	147.8
252.451	-75.43
252.668	2.39
252.885	76.12
253.102	24.92
253.318	94.55
253.535	-18.09
253.752	37.2
253.968	-5.8
254.185	-67.24
254.401	14.68
254.618	26.96
254.835	-32.43
255.051	135.51
255.268	100.69
255.484	29.01
255.701	0.34
255.917	69.97
256.134	-1.71
256.351	-13.99
256.567	-11.95
256.784	-28.33
257	-79.53
257.217	149.84
257.433	98.64
257.65	51.54
257.866	246.1
258.082	-97.96
258.299	-11.95
258.515	69.97
258.732	141.65
258.948	-16.04
259.165	20.82
259.381	-24.23
259.597	53.59
259.814	31.06
260.03	29.01
260.246	0.34
260.463	127.32
260.679	14.68
260.895	6.49
261.112	20.82
261.328	59.73
261.544	-67.24
261.761	141.65
261.977	8.53
262.193	-97.96
262.409	67.92
262.626	84.31
262.842	18.77
263.058	-85.67
263.274	125.27
263.49	-13.99
263.707	86.36
263.923	14.68
264.139	-59.05
264.355	74.07
264.571	162.13
264.787	37.2
265.004	168.27
265.22	8.53
265.436	-57
265.652	47.44
265.868	63.83
266.084	-20.14
266.3	47.44
266.516	-5.8
266.732	72.02
266.948	-1.71
267.164	0.34
267.38	65.88
267.596	55.64
267.812	160.08
268.028	-36.52
268.244	26.96
268.46	69.97
268.676	-7.85
268.892	61.78
269.108	-44.71
269.324	-20.14
269.54	24.92
269.756	86.36
269.972	37.2
270.188	-59.05
270.403	0.34
270.619	65.88
270.835	74.07
271.051	88.4
271.267	74.07
271.483	-28.33
271.698	119.12
271.914	41.3
272.13	82.26
272.346	-30.38
272.562	-13.99
272.777	84.31
272.993	8.53
273.209	14.68
273.425	37.2
273.64	-50.86
273.856	127.32
274.072	-57
274.287	-42.67
274.503	112.98
274.719	155.99
274.934	-22.19
275.15	-57
275.366	12.63
275.581	-40.62
275.797	-20.14
276.012	29.01
276.228	2.39
276.444	80.21
276.659	106.84
276.875	-38.57
277.09	-3.75
277.306	74.07
277.521	-9.9
277.737	-38.57
277.952	55.64
278.168	33.11
278.383	47.44
278.599	57.68
278.814	98.64
279.03	74.07
279.245	84.31
279.461	-28.33
279.676	80.21
279.892	12.63
280.107	-61.1
280.322	-26.28
280.538	33.11
280.753	12.63
280.969	72.02
281.184	22.87
281.399	86.36
281.615	49.49
281.83	69.97
282.045	-85.67
282.26	-40.62
282.476	110.93
282.691	129.36
282.906	20.82
283.122	63.83
283.337	-26.28
283.552	135.51
283.767	-36.52
283.983	92.5
284.198	67.92
284.413	145.75
284.628	-54.95
284.843	39.25
285.058	49.49
285.274	110.93
285.489	-16.04
285.704	96.6
285.919	29.01
286.134	-38.57
286.349	31.06
286.564	-38.57
286.779	110.93
286.995	10.58
287.21	-32.43
287.425	-46.76
287.64	16.73
287.855	92.5
288.07	-89.77
288.285	196.95
288.5	88.4
288.715	65.88
288.93	-34.47
289.145	-44.71
289.36	153.94
289.575	-40.62
289.79	139.6
290.004	37.2
290.219	65.88
290.434	8.53
290.649	-9.9
290.864	6.49
291.079	14.68
291.294	41.3
291.509	92.5
291.724	-3.75
291.938	90.45
292.153	49.49
292.368	-54.95
292.583	18.77
292.798	14.68
293.012	20.82
293.227	-13.99
293.442	-63.15
293.657	76.12
293.871	92.5
294.086	74.07
294.301	176.47
294.516	129.36
294.73	96.6
294.945	-77.48
295.16	78.16
295.374	115.03
295.589	-44.71
295.804	-22.19
296.018	80.21
296.233	143.7
296.447	29.01
296.662	-50.86
296.877	131.41
297.091	51.54
297.306	67.92
297.52	-61.1
297.735	-36.52
297.949	33.11
298.164	0.34
298.378	117.08
298.593	-11.95
298.807	-36.52
299.022	0.34
299.236	82.26
299.451	-59.05
299.665	16.73
299.88	18.77
300.094	53.59
300.309	33.11
300.523	96.6
300.737	16.73
300.952	88.4
301.166	100.69
301.381	-97.96
301.595	-30.38
301.809	-42.67
302.024	-11.95
302.238	22.87
302.452	55.64
302.667	47.44
302.881	123.22
303.095	92.5
303.309	-67.24
303.524	-3.75
303.738	-13.99
303.952	8.53
304.166	-24.23
304.381	-143.02
304.595	186.71
304.809	37.2
305.023	33.11
305.237	4.44
305.452	41.3
305.666	41.3
305.88	37.2
306.094	133.46
306.308	-11.95
306.522	72.02
306.736	39.25
306.95	31.06
307.164	29.01
307.379	-9.9
307.593	182.61
307.807	133.46
308.021	108.88
308.235	98.64
308.449	-143.02
308.663	57.68
308.877	108.88
309.091	129.36
309.305	115.03
309.519	-63.15
309.733	155.99
309.947	-89.77
310.161	59.73
310.374	55.64
310.588	112.98
310.802	-34.47
311.016	69.97
311.23	65.88
311.444	-7.85
311.658	45.4
311.872	78.16
312.085	76.12
312.299	119.12
312.513	88.4
312.727	119.12
312.941	14.68
313.154	45.4
313.368	14.68
313.582	35.16
313.796	106.84
314.009	-11.95
314.223	88.4
314.437	35.16
314.651	84.31
314.864	8.53
315.078	-34.47
315.292	6.49
315.505	-46.76
315.719	35.16
315.933	8.53
316.146	-20.14
316.36	-22.19
316.573	239.95
316.787	69.97
317.001	63.83
317.214	74.07
317.428	45.4
317.641	-83.63
317.855	31.06
318.068	49.49
318.282	37.2
318.495	190.8
318.709	2.39
318.922	2.39
319.136	182.61
319.349	63.83
319.563	-24.23
319.776	135.51
319.99	-5.8
320.203	80.21
320.417	22.87
320.63	47.44
320.843	135.51
321.057	74.07
321.27	-5.8
321.483	117.08
321.697	76.12
321.91	76.12
322.124	65.88
322.337	6.49
322.55	29.01
322.763	20.82
322.977	72.02
323.19	22.87
323.403	14.68
323.617	45.4
323.83	61.78
324.043	-1.71
324.256	-24.23
324.469	-61.1
324.683	72.02
324.896	41.3
325.109	4.44
325.322	-11.95
325.535	94.55
325.748	106.84
325.962	47.44
326.175	55.64
326.388	33.11
326.601	90.45
326.814	0.34
327.027	125.27
327.24	172.37
327.453	-118.44
327.666	74.07
327.879	33.11
328.092	20.82
328.305	20.82
328.518	-83.63
328.731	-1.71
328.944	-32.43
329.157	72.02
329.37	-11.95
329.583	164.18
329.796	129.36
330.009	-65.19
330.222	160.08
330.435	47.44
330.648	14.68
330.861	65.88
331.073	55.64
331.286	78.16
331.499	31.06
331.712	-57
331.925	8.53
332.138	-46.76
332.35	72.02
332.563	-16.04
332.776	137.56
332.989	0.34
333.202	14.68
333.414	47.44
333.627	14.68
333.84	8.53
334.053	67.92
334.265	-5.8
334.478	-13.99
334.691	20.82
334.903	16.73
335.116	18.77
335.329	45.4
335.541	65.88
335.754	108.88
335.966	-13.99
336.179	6.49
336.392	59.73
336.604	41.3
336.817	108.88
337.029	63.83
337.242	6.49
337.454	76.12
337.667	41.3
337.88	153.94
338.092	35.16
338.305	86.36
338.517	57.68
338.729	86.36
338.942	96.6
339.154	-71.34
339.367	-16.04
339.579	53.59
339.792	-9.9
340.004	86.36
340.217	55.64
340.429	-1.71
340.641	-22.19
340.854	-5.8
341.066	-40.62
341.278	129.36
341.491	170.32
341.703	-24.23
341.915	-42.67
342.128	96.6
342.34	57.68
342.552	-1.71
342.764	88.4
342.977	22.87
343.189	45.4
343.401	47.44
343.613	18.77
343.826	57.68
344.038	-61.1
344.25	-44.71
344.462	-34.47
344.674	53.59
344.886	51.54
345.099	6.49
345.311	22.87
345.523	41.3
345.735	-9.9
345.947	35.16
346.159	57.68
346.371	39.25
346.583	14.68
346.795	151.89
347.007	-9.9
347.219	90.45
347.431	0.34
347.643	80.21
347.855	-52.91
348.067	127.32
348.279	-63.15
348.491	-28.33
348.703	14.68
348.915	-44.71
349.127	2.39
349.339	72.02
349.551	4.44
349.763	16.73
349.975	45.4
350.187	78.16
350.399	194.9
350.61	127.32
350.822	35.16
351.034	90.45
351.246	100.69
351.458	84.31
351.669	119.12
351.881	96.6
352.093	104.79
352.305	63.83
352.517	102.74
352.728	76.12
352.94	69.97
353.152	117.08
353.363	-36.52
353.575	88.4
353.787	151.89
353.999	74.07
354.21	166.23
354.422	22.87
354.633	49.49
354.845	-24.23
355.057	18.77
355.268	90.45
355.48	26.96
355.692	-11.95
355.903	53.59
356.115	0.34
356.326	-77.48
356.538	90.45
356.749	110.93
356.961	135.51
357.172	47.44
357.384	-52.91
357.595	201.04
357.807	53.59
358.018	22.87
358.23	8.53
358.441	139.6
358.653	14.68
358.864	22.87
359.075	35.16
359.287	117.08
359.498	96.6
359.709	39.25
359.921	61.78
360.132	-83.63
360.344	35.16
360.555	18.77
360.766	115.03
360.977	8.53
361.189	94.55
361.4	69.97
361.611	115.03
361.823	82.26
362.034	35.16
362.245	-38.57
362.456	59.73
362.667	0.34
362.879	-26.28
363.09	100.69
363.301	47.44
363.512	53.59
363.723	16.73
363.935	31.06
364.146	18.77
364.357	24.92
364.568	29.01
364.779	-73.39
364.99	141.65
365.201	-24.23
365.412	88.4
365.623	-40.62
365.834	127.32
366.045	35.16
366.256	41.3
366.467	106.84
366.678	12.63
366.889	12.63
367.1	29.01
367.311	100.69
367.522	-63.15
367.733	65.88
367.944	125.27
368.155	0.34
368.366	41.3
368.577	98.64
368.788	4.44
368.999	-65.19
369.209	-18.09
369.42	192.85
369.631	119.12
369.842	98.64
370.053	16.73
370.264	119.12
370.474	49.49
370.685	45.4
370.896	6.49
371.107	26.96
371.317	86.36
371.528	-7.85
371.739	106.84
371.95	151.89
372.16	67.92
372.371	-28.33
372.582	-63.15
372.792	47.44
373.003	-34.47
373.214	86.36
373.424	72.02
373.635	-3.75
373.846	182.61
374.056	39.25
374.267	29.01
374.477	162.13
374.688	-13.99
374.898	80.21
375.109	49.49
375.319	37.2
375.53	131.41
375.74	131.41
375.951	-18.09
376.161	-11.95
376.372	139.6
376.582	-30.38
376.793	74.07
377.003	-75.43
377.214	0.34
377.424	43.35
377.635	61.78
377.845	-22.19
378.055	67.92
378.266	-28.33
378.476	65.88
378.686	39.25
378.897	51.54
379.107	164.18
379.317	102.74
379.528	-38.57
379.738	45.4
379.948	-9.9
380.158	100.69
380.369	-36.52
380.579	84.31
380.789	84.31
380.999	88.4
381.21	147.8
381.42	151.89
381.63	29.01
381.84	180.56
382.05	35.16
382.261	67.92
382.471	88.4
382.681	-26.28
382.891	131.41
383.101	24.92
383.311	24.92
383.521	-22.19
383.731	26.96
383.941	102.74
384.151	41.3
384.361	24.92
384.571	51.54
384.781	18.77
384.991	162.13
385.201	131.41
385.411	24.92
385.621	26.96
385.831	88.4
386.041	110.93
386.251	-18.09
386.461	119.12
386.671	-46.76
386.881	12.63
387.091	-42.67
387.301	108.88
387.511	61.78
387.72	141.65
387.93	67.92
388.14	-28.33
388.35	88.4
388.56	155.99
388.769	127.32
388.979	8.53
389.189	-44.71
389.399	-5.8
389.609	43.35
389.818	131.41
390.028	80.21
390.238	-7.85
390.447	51.54
390.657	24.92
390.867	49.49
391.076	-93.87
391.286	82.26
391.496	35.16
391.705	49.49
391.915	47.44
392.125	137.56
392.334	-75.43
392.544	225.62
392.753	96.6
392.963	-26.28
393.172	29.01
393.382	-1.71
393.591	170.32
393.801	90.45
394.01	92.5
394.22	31.06
394.429	63.83
394.639	-18.09
394.848	2.39
395.058	63.83
395.267	86.36
395.477	94.55
395.686	-1.71
395.895	184.66
396.105	162.13
396.314	4.44
396.524	63.83
396.733	115.03
396.942	123.22
397.152	59.73
397.361	104.79
397.57	59.73
397.78	63.83
397.989	80.21
398.198	166.23
398.407	26.96
398.617	12.63
398.826	24.92
399.035	-11.95
399.244	108.88
399.453	20.82
399.663	69.97
399.872	84.31
400.081	-3.75
400.29	106.84
400.499	-13.99
400.708	100.69
400.917	14.68
401.127	-16.04
401.336	24.92
401.545	207.19
401.754	90.45
401.963	37.2
402.172	4.44
402.381	-95.91
402.59	74.07
402.799	88.4
403.008	125.27
403.217	-40.62
403.426	100.69
403.635	-54.95
403.844	47.44
404.053	31.06
404.262	-13.99
404.471	153.94
404.68	61.78
404.888	80.21
405.097	-9.9
405.306	57.68
405.515	108.88
405.724	12.63
405.933	20.82
406.142	100.69
406.35	135.51
406.559	49.49
406.768	45.4
406.977	129.36
407.185	41.3
407.394	2.39
407.603	-40.62
407.812	74.07
408.02	84.31
408.229	2.39
408.438	24.92
408.646	-69.29
408.855	24.92
409.064	82.26
409.272	29.01
409.481	102.74
409.69	-83.63
409.898	-79.53
410.107	47.44
410.315	49.49
410.524	-34.47
410.733	67.92
410.941	26.96
411.15	86.36
411.358	-5.8
411.567	92.5
411.775	43.35
411.984	26.96
412.192	45.4
412.401	0.34
412.609	96.6
412.818	76.12
413.026	86.36
413.234	37.2
413.443	90.45
413.651	-16.04
413.86	96.6
414.068	164.18
414.276	196.95
414.485	-38.57
414.693	172.37
414.901	115.03
415.11	115.03
415.318	43.35
415.526	98.64
415.734	141.65
415.943	112.98
416.151	98.64
416.359	10.58
416.567	69.97
416.776	123.22
416.984	237.91
417.192	139.6
417.4	-22.19
417.608	57.68
417.817	31.06
418.025	67.92
418.233	184.66
418.441	-16.04
418.649	-3.75
418.857	84.31
419.065	133.46
419.273	0.34
419.481	-32.43
419.689	57.68
419.897	26.96
420.105	-11.95
420.313	164.18
420.521	227.67
420.729	153.94
420.937	18.77
421.145	4.44
421.353	172.37
421.561	143.7
421.769	74.07
421.977	-36.52
422.185	100.69
422.393	33.11
422.601	90.45
422.809	82.26
423.017	112.98
423.224	84.31
423.432	168.27
423.64	-42.67
423.848	174.42
424.056	-5.8
424.263	94.55
424.471	45.4
424.679	110.93
424.887	-24.23
425.094	182.61
425.302	0.34
425.51	74.07
425.718	26.96
425.925	155.99
426.133	-89.77
426.341	194.9
426.548	74.07
426.756	41.3
426.964	153.94
427.171	31.06
427.379	65.88
427.586	14.68
427.794	80.21
428.001	155.99
428.209	49.49
428.417	147.8
428.624	196.95
428.832	119.12
429.039	104.79
429.247	110.93
429.454	172.37
429.662	237.91
429.869	18.77
430.076	104.79
430.284	139.6
430.491	178.51
430.699	78.16
430.906	180.56
431.114	96.6
431.321	41.3
431.528	0.34
431.736	129.36
431.943	135.51
432.15	137.56
432.358	235.86
432.565	211.28
432.772	14.68
432.979	229.71
433.187	170.32
433.394	233.81
433.601	135.51
433.808	182.61
434.016	258.39
434.223	262.48
434.43	211.28
434.637	319.82
434.844	293.2
435.052	254.29
435.259	305.49
435.466	303.44
435.673	309.58
435.88	395.6
436.087	411.98
436.294	348.5
436.501	315.73
436.708	301.39
436.915	334.16
437.122	405.84
437.329	348.5
437.537	356.69
437.743	371.02
437.95	438.61
438.157	381.26
438.364	325.97
438.571	356.69
438.778	493.9
438.985	592.2
439.192	551.24
439.399	416.08
439.606	487.76
439.813	600.4
440.02	536.91
440.227	682.31
440.433	569.68
440.64	524.62
440.847	516.43
441.054	567.63
441.261	710.99
441.467	604.49
441.674	657.74
441.881	694.6
442.088	684.36
442.294	821.58
442.501	760.14
442.708	829.77
442.914	825.67
443.121	907.59
443.328	827.72
443.534	1018.18
443.741	987.46
443.948	852.3
444.154	1053
444.361	1292.61
444.568	1001.8
444.774	1173.83
444.981	1044.81
445.187	1255.75
445.394	1214.79
445.6	1216.83
445.807	1370.43
446.013	1304.9
446.22	1274.18
446.426	1515.84
446.633	1530.17
446.839	1710.4
447.046	1511.74
447.252	1741.11
447.459	1792.31
447.665	1691.96
447.871	1884.47
448.078	2167.09
448.284	2091.32
448.491	2087.22
448.697	2271.54
448.903	2304.31
449.11	2355.51
449.316	2261.3
449.522	2462
449.728	2644.27
449.935	2658.6
450.141	2677.04
450.347	2937.13
450.553	2908.46
450.76	2898.22
450.966	3096.87
451.172	3076.39
451.378	3322.15
451.584	3442.98
451.791	3590.43
451.997	3768.6
452.203	3711.26
452.409	4020.5
452.615	4307.22
452.821	3985.69
453.027	4016.41
453.233	4686.09
453.44	4421.91
453.646	4661.52
453.852	4995.34
454.058	5341.44
454.264	5200.13
454.47	5656.83
454.676	5652.74
454.882	6072.57
455.088	5921.02
455.294	6201.59
455.5	6588.66
455.705	6818.03
455.911	6977.77
456.117	7196.9
456.323	7471.33
456.529	7602.4
456.735	7928.03
456.941	8366.29
457.147	8843.47
457.352	8716.5
457.558	9224.39
457.764	9715.91
457.97	10004.67
458.176	10117.31
458.381	10758.32
458.587	11137.2
458.793	11409.58
458.999	11597.99
459.204	13160.59
459.41	13750.4
459.616	13426.82
459.821	14086.27
460.027	14682.23
460.233	15423.59
460.438	15335.53
460.644	16083.04
460.85	16545.88
461.055	17088.59
461.261	17842.25
461.466	17539.15
461.672	17877.06
461.878	19992.61
462.083	20000.8
462.289	20518.94
462.494	21041.17
462.7	21305.36
462.905	21661.71
463.111	23148.53
463.316	24350.69
463.522	24469.47
463.727	25403.35
463.932	26673.09
464.138	27209.65
464.343	28575.65
464.549	28518.31
464.754	31082.36
464.959	31739.76
465.165	32087.92
465.37	31784.82
465.575	31676.27
465.781	34094.93
465.986	35419.96
466.191	34445.13
466.397	34895.68
466.602	33851.22
466.807	35878.71
467.012	36402.99
467.218	37359.39
467.423	37388.06
467.628	38217.49
467.833	40384.24
468.038	39622.39
468.244	38844.16
468.449	40787.69
468.654	40038.13
468.859	40064.75
469.064	40023.79
469.269	38569.74
469.474	39427.84
469.679	40498.92
469.885	39554.81
470.09	39870.2
470.295	40281.84
470.5	39376.64
470.705	39436.03
470.91	38227.73
471.115	38088.46
471.32	39012.1
471.525	38590.22
471.73	37197.6
471.935	37144.35
472.139	35426.1
472.344	35708.72
472.549	35383.1
472.754	34907.97
472.959	34060.11
473.164	33296.22
473.369	32163.69
473.574	33511.25
473.778	32745.31
473.983	32364.39
474.188	31680.37
474.393	30107.53
474.598	30054.28
474.802	29282.2
475.007	28884.89
475.212	28991.39
475.417	27574.19
475.621	27387.83
475.826	26886.08
476.031	26394.56
476.235	25694.16
476.44	26077.13
476.645	25593.81
476.849	25200.6
477.054	24815.58
477.259	23906.28
477.463	23758.83
477.668	23089.14
477.872	23099.38
478.077	22691.84
478.282	22030.34
478.486	21874.7
478.691	21649.42
478.895	21424.14
479.1	21587.98
479.304	21317.65
479.509	20295.71
479.713	21004.31
479.918	20267.04
480.122	19529.77
480.326	19970.08
480.531	19593.26
480.735	19736.62
480.94	19019.83
481.144	19648.55
481.348	18894.9
481.553	18962.48
481.757	18522.17
481.961	18843.7
482.166	18843.7
482.37	18356.29
482.574	18071.62
482.778	17942.6
482.983	18534.46
483.187	17688.65
483.391	17772.61
483.595	17619.02
483.8	17346.64
484.004	17315.92
484.208	17406.03
484.412	16996.43
484.616	16769.11
484.821	16795.73
485.025	16085.09
485.229	16212.06
485.433	16078.94
485.637	15982.69
485.841	15794.28
486.045	15575.14
486.249	15212.65
486.453	14919.79
486.657	14827.64
486.861	14620.79
487.065	14325.88
487.269	14143.61
487.473	13815.94
487.677	13760.64
487.881	13693.06
488.085	13408.39
488.289	13295.75
488.493	12855.44
488.697	13047.95
488.901	12671.12
489.105	12464.28
489.309	12081.31
489.512	11989.15
489.716	11720.87
489.92	11368.62
490.124	11178.15
490.328	11372.71
490.531	10752.18
490.735	10725.55
490.939	10543.28
491.143	10358.97
491.346	9976
491.55	10178.75
491.754	9765.06
491.958	9748.67
492.161	9502.92
492.365	9664.71
492.569	9306.31
492.772	9218.25
492.976	8929.49
493.18	9003.21
493.383	8911.05
493.587	8616.15
493.79	8831.18
493.994	8390.87
494.197	8392.92
494.401	8233.18
494.605	8179.93
494.808	8190.17
495.012	8130.78
495.215	8235.22
495.419	8161.5
495.622	8030.43
495.825	7971.04
496.029	7774.43
496.232	7964.89
496.436	7778.53
496.639	7989.47
496.843	7774.43
497.046	7913.69
497.249	7999.71
497.453	7897.31
497.656	7827.68
497.859	7839.97
498.063	7833.82
498.266	7872.73
498.469	7772.38
498.673	7856.35
498.876	7766.24
499.079	7948.51
499.282	7864.54
499.485	8308.95
499.689	7997.66
499.892	8257.75
500.095	8057.05
500.298	8360.15
500.501	8091.87
500.705	8270.04
500.908	8409.3
501.111	8366.29
501.314	8788.18
501.517	8665.3
501.72	8818.89
501.923	8724.69
502.126	8866
502.329	9171.15
502.532	9267.4
502.735	9322.7
502.938	9322.7
503.141	9480.39
503.344	9363.65
503.547	9631.94
503.75	9699.52
503.953	9728.19
504.156	9984.19
504.359	10174.65
504.562	10051.77
504.765	10617.01
504.968	10563.76
505.17	10627.25
505.373	10811.57
505.576	11169.96
505.779	11020.46
505.982	11221.16
506.185	11630.76
506.387	11593.89
506.59	11960.48
506.793	12286.11
506.996	12216.47
507.198	12980.37
507.401	12865.68
507.604	13066.38
507.807	13467.78
508.009	13758.6
508.212	13947.01
508.415	14192.76
508.617	14370.94
508.82	14708.85
509.022	14884.98
509.225	15442.03
509.428	15800.42
509.63	16013.41
509.833	16218.21
510.035	16867.41
510.238	16840.79
510.44	17498.19
510.643	17993.79
510.845	18270.27
511.048	18300.99
511.25	18733.11
511.453	19007.54
511.655	20058.15
511.858	20217.89
512.06	20678.68
512.262	21008.4
512.465	21319.7
512.667	22233.09
512.87	21993.48
513.072	22745.08
513.274	23181.3
513.477	23838.7
513.679	24082.41
513.881	24913.88
514.084	25657.29
514.286	25968.59
514.488	26441.67
514.69	27504.56
514.893	27625.39
515.095	28235.69
515.297	29013.91
515.499	29331.35
515.701	30093.19
515.904	30906.24
516.106	31035.26
516.308	32051.05
516.51	32626.53
516.712	33331.03
516.914	33531.73
517.116	34762.56
517.318	35002.18
517.52	35690.29
517.722	35764.02
517.925	36941.6
518.127	37695.25
518.329	38223.63
518.531	38305.55
518.733	39290.62
518.935	39925.49
519.136	40285.93
519.338	41230.05
519.54	42075.86
519.742	42346.19
519.944	42907.33
520.146	44005.05
520.348	44132.02
520.55	44715.69
520.752	44742.31
520.954	46182.04
521.155	45719.2
521.357	46716.56
521.559	47443.59
521.761	47912.57
521.963	47904.38
522.164	48799.34
522.366	48750.19
522.568	49694.3
522.77	49489.51
522.971	50423.38
523.173	50427.48
523.375	50894.41
523.576	50812.49
523.778	51060.3
523.98	51619.39
524.181	51613.25
524.383	51469.89
524.584	52049.47
524.786	51959.36
524.988	52065.85
525.189	52549.17
525.391	52569.65
525.592	52201.02
525.794	52155.96
525.995	52411.96
526.197	52246.07
526.398	52303.42
526.6	52633.14
526.801	52522.55
527.003	51904.06
527.204	51861.05
527.406	52315.7
527.607	51316.29
527.808	51521.09
528.01	50519.63
528.211	51035.72
528.412	51097.16
528.614	50335.32
528.815	50026.07
529.016	50214.49
529.218	49354.34
529.419	48764.53
529.62	48488.05
529.822	47814.27
530.023	47675.01
530.224	47087.24
530.425	47027.85
530.626	45569.69
530.828	45543.07
531.029	45754.01
531.23	44781.23
531.431	44392.11
531.632	43857.59
531.833	43245.25
532.035	42854.09
532.236	42247.89
532.437	42129.11
532.638	41572.06
532.839	40969.96
533.04	40322.8
533.241	39601.91
533.442	39804.66
533.643	38715.14
533.844	38541.07
534.045	38033.17
534.246	37041.95
534.447	36902.69
534.648	36568.87
534.849	35905.33
535.05	35262.27
535.251	34936.64
535.451	34764.61
535.652	33634.13
535.853	33523.54
536.054	33269.59
536.255	32710.5
536.456	31831.92
536.657	32196.46
536.857	31276.92
537.058	31025.02
537.259	30490.5
537.46	30218.12
537.66	29468.56
537.861	29650.83
538.062	29110.17
538.263	28735.39
538.463	28176.3
538.664	27908.01
538.865	27574.19
539.065	27385.78
539.266	26908.6
539.466	26638.27
539.667	26269.64
539.868	26191.81
540.068	25425.87
540.269	25497.55
540.469	25292.76
540.67	24748
540.87	24442.85
541.071	24119.27
541.271	24090.6
541.472	23547.89
541.672	23242.74
541.873	23064.57
542.073	22499.33
542.274	22591.48
542.474	22216.71
542.675	22052.87
542.875	22052.87
543.075	21444.62
543.276	21108.76
543.476	21135.38
543.676	20879.38
543.877	20394.01
544.077	20463.65
544.277	20027.43
544.478	19699.75
544.678	19892.26
544.878	19183.66
545.078	19169.33
545.279	18960.44
545.479	18692.15
545.679	18518.07
545.879	18532.41
546.079	18075.71
546.28	17741.89
546.48	17713.22
546.68	17655.88
546.88	17401.93
547.08	17268.81
547.28	16855.12
547.48	16461.91
547.68	16644.18
547.88	16212.06
548.081	16201.82
548.281	15683.69
548.481	15970.4
548.681	15710.31
548.881	15335.53
549.081	15175.79
549.28	14987.38
549.48	14735.48
549.68	14465.14
549.88	14426.23
550.08	13813.89
550.28	13987.97
550.48	13781.12
550.68	13719.68
550.88	13473.93
551.08	13148.3
551.279	12908.69
551.479	12818.58
551.679	12789.91
551.879	12454.04
552.079	12284.06
552.278	12486.81
552.478	11925.66
552.678	11698.34
552.878	11686.05
553.077	11368.62
553.277	11026.61
553.477	11141.29
553.676	10924.21
553.876	10756.27
554.076	10557.62
554.275	10358.97
554.475	10088.64
554.674	10152.12
554.874	9855.17
555.074	9738.43
555.273	9590.98
555.473	9314.5
555.672	9367.75
555.872	8939.72
556.071	9126.09
556.271	9208.01
556.47	8614.1
556.67	8653.01
556.869	8360.15
557.068	8437.97
557.268	8177.88
557.467	8032.47
557.667	7952.6
557.866	7932.12
558.065	7526.63
558.265	7454.95
558.464	7370.98
558.663	7366.88
558.863	7282.92
559.062	7309.54
559.261	6807.79
559.461	7127.27
559.66	6564.08
559.859	6521.07
560.058	6508.79
560.258	6297.85
560.457	6297.85
560.656	6367.48
560.855	6148.34
561.054	6080.76
561.253	5957.88
561.453	5622.02
561.652	5722.37
561.851	5665.02
562.05	5554.43
562.249	5308.68
562.448	5583.1
562.647	5265.67
562.846	5243.14
563.045	5210.37
563.244	5183.75
563.443	4995.34
563.642	4825.36
563.841	5032.2
564.04	4698.38
564.239	4722.96
564.438	4671.76
564.637	4552.98
564.836	4325.65
565.035	4335.89
565.234	4260.12
565.432	4237.59
565.631	4352.27
565.83	4256.02
566.029	4083.99
566.228	4108.57
566.427	4174.1
566.625	3864.86
566.824	3911.96
567.023	4079.9
567.222	3733.79
567.42	3735.84
567.619	3723.55
567.818	3664.16
568.016	3791.13
568.215	3442.98
568.414	3510.56
568.612	3416.35
568.811	3277.09
569.01	3488.03
569.208	3342.63
569.407	3232.04
569.605	3244.32
569.804	3109.16
570.002	3055.91
570.201	3141.93
570.4	3049.77
570.598	2969.9
570.797	3055.91
570.995	2869.55
571.193	2781.48
571.392	2748.72
571.59	2736.43
571.789	2634.03
571.987	2699.56
572.186	2838.83
572.384	2556.21
572.582	2482.48
572.781	2582.83
572.979	2394.42
573.177	2445.62
573.376	2423.09
573.574	2429.23
573.772	2281.78
573.971	2265.39
574.169	2173.24
574.367	2271.54
574.565	2152.76
574.763	2195.76
574.962	2083.13
575.16	2130.23
575.358	1972.54
575.556	2031.93
575.754	2025.78
575.952	2036.02
576.151	1952.06
576.349	1939.77
576.547	1775.93
576.745	1950.01
576.943	1855.8
577.141	1683.77
577.339	1687.87
577.537	1704.25
577.735	1902.9
577.933	1651
578.131	1626.43
578.329	1730.87
578.527	1739.07
578.725	1560.89
578.923	1470.78
579.121	1608
579.319	1411.39
579.516	1532.22
579.714	1726.78
579.912	1476.93
580.11	1347.9
580.308	1292.61
580.506	1431.87
580.704	1337.66
580.901	1319.23
581.099	1403.2
581.297	1306.95
581.495	1341.76
581.692	1204.55
581.89	1325.38
582.088	1257.79
582.285	1182.02
582.483	1169.73
582.681	1163.59
582.878	1151.3
583.076	1204.55
583.274	1100.1
583.471	1253.7
583.669	1114.44
583.866	954.69
584.064	1036.61
584.262	1026.37
584.459	928.07
584.657	1079.62
584.854	1061.19
585.052	1063.24
585.249	958.79
585.447	983.37
585.644	792.91
585.841	936.26
586.039	915.78
586.236	971.08
586.434	948.55
586.631	842.06
586.828	831.82
587.026	842.06
587.223	844.1
587.42	749.9
587.618	790.86
587.815	944.45
588.012	774.47
588.21	772.43
588.407	837.96
588.604	883.02
588.801	731.47
588.999	815.43
589.196	858.44
589.393	747.85
589.59	733.51
589.787	833.86
589.984	762.19
590.182	743.75
590.379	694.6
590.576	743.75
590.773	729.42
590.97	637.26
591.167	786.76
591.364	719.18
591.561	680.27
591.758	776.52
591.955	715.08
592.152	719.18
592.349	627.02
592.546	686.41
592.743	676.17
592.94	690.51
593.137	733.51
593.334	788.81
593.531	784.71
593.727	723.27
593.924	678.22
594.121	637.26
594.318	663.88
594.515	768.33
594.712	815.43
594.908	811.34
595.105	721.23
595.302	710.99
595.499	735.56
595.696	874.82
595.892	844.1
596.089	809.29
596.286	715.08
596.482	837.96
596.679	901.45
596.876	794.95
597.072	1009.99
597.269	862.54
597.466	891.21
597.662	874.82
597.859	928.07
598.055	893.26
598.252	1073.48
598.448	1153.35
598.645	1126.72
598.841	1186.12
599.038	1261.89
599.234	1313.09
599.431	1282.37
599.627	1249.6
599.824	1272.13
600.02	1331.52
600.217	1270.08
600.413	1569.09
600.609	1542.46
600.806	1771.83
601.002	1739.07
601.198	1677.63
601.395	1857.85
601.591	1741.11
601.787	2005.3
601.984	1952.06
602.18	2058.55
602.376	2117.94
602.572	2230.58
602.769	2443.57
602.965	2324.79
603.161	2459.95
603.357	2494.77
603.553	2804.01
603.75	2734.38
603.946	2769.2
604.142	2914.6
604.338	3070.25
604.534	3135.78
604.73	3264.8
604.926	3418.4
605.122	3445.02
605.318	3330.34
605.514	3731.74
605.71	3649.82
605.906	3889.43
606.102	4051.22
606.298	4213.01
606.494	4266.26
606.69	4399.38
606.886	4446.48
607.082	4595.98
607.278	4626.7
607.474	4837.64
607.67	4817.16
607.866	4976.91
608.062	5302.53
608.257	5402.88
608.453	5447.94
608.649	5556.48
608.845	5748.99
609.041	6015.23
609.236	6134.01
609.432	6080.76
609.628	6615.28
609.824	6637.81
610.019	6732.01
610.215	7018.73
610.411	7381.22
610.606	7567.59
610.802	7495.91
610.998	7749.86
611.193	8196.31
611.389	8167.64
611.584	8552.66
611.78	8671.44
611.976	8650.96
612.171	9212.1
612.367	9334.98
612.562	9466.05
612.758	9765.06
612.953	9881.79
613.149	10326.2
613.344	10477.75
613.539	10887.34
613.735	11079.85
613.93	11509.93
614.126	11770.02
614.321	12333.21
614.517	12517.53
614.712	12679.32
614.907	13093.01
615.103	13271.18
615.298	13330.57
615.493	14004.35
615.688	14239.87
615.884	14899.31
616.079	14868.59
616.274	15433.83
616.47	15933.54
616.665	16357.47
616.86	16541.78
617.055	17143.89
617.25	17592.39
617.445	18391.1
617.641	18313.28
617.836	18782.26
618.031	18917.43
618.226	20121.63
618.421	20097.06
618.616	20564
618.811	20793.37
619.006	21618.7
619.201	21825.54
619.396	22624.25
619.591	22771.71
619.786	23666.67
619.981	23740.4
620.176	24444.9
620.371	24535.01
620.566	25704.4
620.761	26007.5
620.956	26906.55
621.151	26552.26
621.346	27576.24
621.541	27887.53
621.735	28600.22
621.93	28592.03
622.125	29794.19
622.32	29757.33
622.515	30556.04
622.709	31182.71
622.904	31629.17
623.099	32331.62
623.294	32794.46
623.488	32921.44
623.683	34244.43
623.878	34088.78
624.072	34783.04
624.267	35528.5
624.462	36214.57
624.656	36302.64
624.851	37099.3
625.046	37609.24
625.24	38045.46
625.435	38457.1
625.629	39057.15
625.824	39808.76
626.018	40341.23
626.213	39999.22
626.407	41477.85
626.602	41076.45
626.796	41752.28
626.991	42555.08
627.185	42553.04
627.38	42712.78
627.574	43112.13
627.768	43335.36
627.963	43503.29
628.157	43409.09
628.352	43882.17
628.546	43443.9
628.74	44576.43
628.935	43482.81
629.129	43859.64
629.323	43613.88
629.517	43431.61
629.712	43024.07
629.906	42931.91
630.1	42383.05
630.294	42503.88
630.489	41498.33
630.683	41524.96
630.877	40396.52
631.071	40195.82
631.265	39704.31
631.459	38426.38
631.653	38033.17
631.848	37308.19
632.042	36103.98
632.236	35827.51
632.43	34232.14
632.624	33324.89
632.818	32540.52
633.012	31496.05
633.206	30457.73
633.4	29818.77
633.594	28790.69
633.788	27791.28
633.982	26970.04
634.176	26224.58
634.369	25090.01
634.563	24158.18
634.757	23001.08
634.951	22376.45
635.145	21712.91
635.339	20525.08
635.533	19517.48
635.726	19132.47
635.92	18022.47
636.114	17422.41
636.308	16605.27
636.501	16148.57
636.695	15530.09
636.889	14573.69
637.083	14094.46
637.276	13676.68
637.47	13062.29
637.664	12417.18
637.857	12239
638.051	11307.18
638.244	11327.66
638.438	10592.44
638.632	10447.03
638.825	9785.54
639.019	9560.26
639.212	8962.25
639.406	8747.22
639.599	8556.75
639.793	7954.65
639.986	7612.64
640.18	7567.59
640.373	7178.47
640.567	6977.77
640.76	6555.89
640.954	6406.39
641.147	6074.62
641.34	5906.68
641.534	5669.12
641.727	5546.24
641.92	5320.96
642.114	5202.18
642.307	4897.03
642.5	4776.2
642.694	4505.87
642.887	4247.83
643.08	4247.83
643.273	4106.52
643.467	3836.19
643.66	3881.24
643.853	3567.9
644.046	3483.94
644.239	3289.38
644.432	3186.98
644.626	2933.03
644.819	2916.65
645.012	2799.91
645.205	2691.37
645.398	2705.71
645.591	2498.86
645.784	2525.49
645.977	2349.36
646.17	2167.09
646.363	2060.6
646.556	1954.1
646.749	2001.21
646.942	2033.97
647.135	2050.36
647.328	1896.76
647.521	1718.59
647.714	1747.26
647.907	1640.76
648.099	1483.07
648.292	1610.04
648.485	1567.04
648.678	1278.27
648.871	1284.42
649.064	1298.75
649.256	1155.4
649.449	1210.69
649.642	1130.82
649.835	1128.77
650.027	1057.09
650.22	1139.01
650.413	1034.57
650.605	997.7
650.798	840.01
650.991	893.26
651.183	821.58
651.376	825.67
651.568	928.07
651.761	803.15
651.954	756.04
652.146	753.99
652.339	727.37
652.531	747.85
652.724	579.92
652.916	592.2
653.109	549.2
653.301	651.6
653.494	618.83
653.686	504.14
653.879	708.94
654.071	665.93
654.263	561.48
654.456	465.23
654.648	553.29
654.84	612.68
655.033	391.5
655.225	627.02
655.417	356.69
655.61	500.05
655.802	446.8
655.994	551.24
656.186	409.94
656.379	489.81
656.571	422.22
656.763	328.02
656.955	405.84
657.148	362.83
657.34	405.84
657.532	268.63
657.724	416.08
657.916	340.3
658.108	448.85
658.3	309.58
658.492	411.98
658.684	237.91
658.876	338.26
659.068	135.51
659.26	205.14
659.452	229.71
659.644	307.54
659.836	371.02
660.028	276.82
660.22	235.86
660.412	258.39
660.604	125.27
660.796	276.82
660.988	346.45
661.18	233.81
661.372	227.67
661.563	227.67
661.755	246.1
661.947	180.56
662.139	155.99
662.331	254.29
662.522	205.14
662.714	139.6
662.906	203.09
663.097	184.66
663.289	190.8
663.481	-7.85
663.673	176.47
663.864	250.19
664.056	149.84
664.247	121.17
664.439	289.1
664.631	145.75
664.822	270.67
665.014	147.8
665.205	137.56
665.397	160.08
665.588	184.66
665.78	98.64
665.971	211.28
666.163	176.47
666.354	145.75
666.546	94.55
666.737	155.99
666.929	131.41
667.12	90.45
667.311	143.7
667.503	78.16
667.694	123.22
667.885	133.46
668.077	211.28
668.268	76.12
668.459	108.88
668.651	143.7
668.842	100.69
669.033	141.65
669.224	-24.23
669.416	328.02
669.607	170.32
669.798	41.3
669.989	225.62
670.18	151.89
670.371	211.28
670.563	102.74
670.754	221.52
670.945	192.85
671.136	215.38
671.327	94.55
671.518	289.1
671.709	217.43
671.9	168.27
672.091	194.9
672.282	160.08
672.473	106.84
672.664	33.11
672.855	115.03
673.046	143.7
673.237	248.15
673.428	137.56
673.619	250.19
673.809	96.6
674	217.43
674.191	198.99
674.382	141.65
674.573	139.6
674.764	174.42
674.954	198.99
675.145	104.79
675.336	168.27
675.527	98.64
675.717	178.51
675.908	115.03
676.099	158.03
676.289	158.03
676.48	18.77
676.671	213.33
676.861	176.47
677.052	131.41
677.243	129.36
677.433	106.84
677.624	254.29
677.814	188.75
678.005	192.85
678.195	235.86
678.386	143.7
678.576	239.95
678.767	80.21
678.957	196.95
679.148	252.24
679.338	319.82
679.529	237.91
679.719	217.43
679.909	274.77
680.1	254.29
680.29	205.14
680.481	115.03
680.671	250.19
680.861	225.62
681.052	192.85
681.242	94.55
681.432	229.71
681.622	205.14
681.813	137.56
682.003	137.56
682.193	225.62
682.383	233.81
682.573	164.18
682.764	145.75
682.954	211.28
683.144	276.82
683.334	248.15
683.524	198.99
683.714	231.76
683.904	330.06
684.094	180.56
684.284	264.53
684.474	332.11
684.664	287.06
684.854	330.06
685.044	207.19
685.234	207.19
685.424	282.96
685.614	227.67
685.804	424.27
685.994	235.86
686.184	260.43
686.374	256.34
686.564	303.44
686.753	164.18
686.943	168.27
687.133	135.51
687.323	254.29
687.513	340.3
687.702	280.91
687.892	198.99
688.082	274.77
688.272	239.95
688.461	282.96
688.651	381.26
688.841	268.63
689.03	178.51
689.22	221.52
689.41	350.54
689.599	211.28
689.789	205.14
689.979	321.87
690.168	217.43
690.358	285.01
690.547	274.77
690.737	252.24
690.926	274.77
691.116	248.15
691.305	340.3
691.495	254.29
691.684	102.74
691.874	174.42
692.063	262.48
692.252	338.26
692.442	244.05
692.631	262.48
692.82	153.94
693.01	262.48
693.199	98.64
693.388	233.81
693.578	242
693.767	299.34
693.956	282.96
694.146	219.47
694.335	272.72
694.524	119.12
694.713	350.54
694.902	207.19
695.092	256.34
695.281	285.01
695.47	188.75
695.659	205.14
695.848	227.67
696.037	227.67
696.226	323.92
696.415	231.76
696.604	338.26
696.793	254.29
696.982	182.61
697.171	328.02
697.36	248.15
697.549	235.86
697.738	117.08
697.927	209.23
698.116	151.89
698.305	280.91
698.494	282.96
698.683	207.19
698.872	346.45
699.061	186.71
699.25	244.05
699.438	213.33
699.627	137.56
699.816	342.35
700.005	110.93
700.193	207.19
700.382	260.43
700.571	129.36
700.76	250.19
700.948	223.57
701.137	227.67
701.326	285.01
701.514	84.31
701.703	248.15
701.892	242
702.08	379.22
702.269	264.53
702.457	106.84
702.646	325.97
702.834	186.71
703.023	229.71
703.212	272.72
703.4	194.9
703.589	123.22
703.777	131.41
703.965	192.85
704.154	119.12
704.342	125.27
704.531	166.23
704.719	237.91
704.907	221.52
705.096	51.54
705.284	115.03
705.472	194.9
705.661	276.82
705.849	217.43
706.037	340.3
706.226	190.8
706.414	256.34
706.602	209.23
706.79	287.06
706.979	231.76
707.167	155.99
707.355	131.41
707.543	188.75
707.731	164.18
707.919	196.95
708.107	174.42
708.296	115.03
708.484	242
708.672	237.91
708.86	262.48
709.048	137.56
709.236	180.56
709.424	260.43
709.612	209.23
709.8	164.18
709.988	262.48
710.176	301.39
710.364	258.39
710.551	223.57
710.739	186.71
710.927	135.51
711.115	266.58
711.303	244.05
711.491	317.78
711.679	110.93
711.866	262.48
712.054	211.28
712.242	207.19
712.43	338.26
712.617	213.33
712.805	297.3
712.993	201.04
713.181	90.45
713.368	225.62
713.556	272.72
713.744	176.47
713.931	393.55
714.119	319.82
714.306	209.23
714.494	231.76
714.682	207.19
714.869	186.71
715.057	252.24
715.244	76.12
715.432	311.63
715.619	211.28
715.807	223.57
715.994	205.14
716.182	205.14
716.369	256.34
716.556	311.63
716.744	121.17
716.931	117.08
717.119	215.38
717.306	147.8
717.493	239.95
717.681	166.23
717.868	325.97
718.055	315.73
718.242	194.9
718.43	160.08
718.617	303.44
718.804	194.9
718.991	366.93
719.179	235.86
719.366	319.82
719.553	266.58
719.74	215.38
719.927	215.38
720.114	282.96
720.301	153.94
720.488	221.52
720.676	225.62
720.863	307.54
721.05	385.36
721.237	237.91
721.424	282.96
721.611	205.14
721.798	164.18
721.985	198.99
722.172	233.81
722.358	186.71
722.545	287.06
722.732	371.02
722.919	430.41
723.106	276.82
723.293	221.52
723.48	182.61
723.667	196.95
723.853	295.25
724.04	362.83
724.227	313.68
724.414	237.91
724.6	389.46
724.787	315.73
724.974	471.37
725.161	336.21
725.347	229.71
725.534	250.19
725.72	325.97
725.907	295.25
726.094	336.21
726.28	254.29
726.467	325.97
726.653	268.63
726.84	411.98
727.027	450.89
727.213	242
727.4	319.82
727.586	262.48
727.773	287.06
727.959	242
728.145	278.87
728.332	309.58
728.518	235.86
728.705	414.03
728.891	276.82
729.077	260.43
729.264	368.98
729.45	285.01
729.636	457.04
729.823	332.11
730.009	379.22
730.195	256.34
730.382	446.8
730.568	301.39
730.754	334.16
730.94	291.15
731.126	352.59
731.313	354.64
731.499	268.63
731.685	330.06
731.871	350.54
732.057	325.97
732.243	411.98
732.429	387.41
732.615	405.84
732.801	405.84
732.987	315.73
733.173	317.78
733.359	366.93
733.545	291.15
733.731	352.59
733.917	442.7
734.103	393.55
734.289	438.61
734.475	323.92
734.661	514.38
734.847	401.74
735.033	295.25
735.219	405.84
735.404	332.11
735.59	295.25
735.776	323.92
735.962	336.21
736.148	377.17
736.333	366.93
736.519	368.98
736.705	323.92
736.89	301.39
737.076	291.15
737.262	301.39
737.447	387.41
737.633	368.98
737.819	469.33
738.004	319.82
738.19	352.59
738.375	379.22
738.561	487.76
738.747	379.22
738.932	332.11
739.118	475.47
739.303	377.17
739.489	342.35
739.674	307.54
739.859	264.53
740.045	381.26
740.23	381.26
740.416	225.62
740.601	319.82
740.786	373.07
740.972	282.96
741.157	409.94
741.342	274.77
741.528	334.16
741.713	528.72
741.898	303.44
742.084	276.82
742.269	403.79
742.454	371.02
742.639	418.13
742.824	325.97
743.01	524.62
743.195	391.5
743.38	352.59
743.565	366.93
743.75	315.73
743.935	418.13
744.12	479.57
744.305	280.91
744.49	258.39
744.675	366.93
744.86	342.35
745.045	399.7
745.23	373.07
745.415	311.63
745.6	405.84
745.785	282.96
745.97	467.28
746.155	383.31
746.34	358.74
746.525	368.98
746.71	493.9
746.895	282.96
747.079	215.38
747.264	289.1
747.449	303.44
747.634	381.26
747.819	352.59
748.003	231.76
748.188	188.75
748.373	346.45
748.557	190.8
748.742	330.06
748.927	328.02
749.111	266.58
749.296	217.43
749.481	280.91
749.665	317.78
749.85	233.81
750.034	225.62
750.219	280.91
750.404	266.58
750.588	242
750.773	188.75
750.957	299.34
751.141	272.72
751.326	395.6
751.51	172.37
751.695	244.05
751.879	287.06
752.064	332.11
752.248	319.82
752.432	366.93
752.617	319.82
752.801	323.92
752.985	178.51
753.17	330.06
753.354	364.88
753.538	237.91
753.722	242
753.907	188.75
754.091	229.71
754.275	221.52
754.459	196.95
754.643	211.28
754.828	299.34
755.012	342.35
755.196	174.42
755.38	254.29
755.564	254.29
755.748	237.91
755.932	270.67
756.116	178.51
756.3	268.63
756.484	180.56
756.668	266.58
756.852	209.23
757.036	213.33
757.22	268.63
757.404	96.6
757.588	205.14
757.772	221.52
757.956	235.86
758.14	250.19
758.323	131.41
758.507	244.05
758.691	112.98
758.875	221.52
759.059	260.43
759.242	74.07
759.426	188.75
759.61	160.08
759.794	196.95
759.977	317.78
760.161	383.31
760.345	375.12
760.528	328.02
760.712	196.95
760.895	246.1
761.079	239.95
761.263	121.17
761.446	147.8
761.63	194.9
761.813	291.15
761.997	47.44
762.18	225.62
762.364	297.3
762.547	33.11
762.731	186.71
762.914	149.84
763.098	127.32
763.281	131.41
763.464	98.64
763.648	194.9
763.831	176.47
764.015	172.37
764.198	209.23
764.381	100.69
764.564	211.28
764.748	244.05
764.931	246.1
765.114	110.93
765.297	207.19
765.481	94.55
765.664	164.18
765.847	192.85
766.03	252.24
766.213	125.27
766.397	205.14
766.58	63.83
766.763	190.8
766.946	96.6
767.129	180.56
767.312	65.88
767.495	166.23
767.678	74.07
767.861	184.66
768.044	190.8
768.227	147.8
768.41	127.32
768.593	151.89
768.776	92.5
768.959	123.22
769.142	272.72
769.324	153.94
769.507	61.78
769.69	98.64
769.873	162.13
770.056	225.62
770.239	137.56
770.421	239.95
770.604	153.94
770.787	121.17
770.97	123.22
771.152	16.73
771.335	112.98
771.518	162.13
771.7	188.75
771.883	258.39
772.066	151.89
772.248	102.74
772.431	264.53
772.613	102.74
772.796	72.02
772.978	139.6
773.161	221.52
773.343	143.7
773.526	43.35
773.708	-52.91
773.891	49.49
774.073	155.99
774.256	10.58
774.438	225.62
774.621	43.35
774.803	166.23
774.985	0.34
775.168	127.32
775.35	29.01
775.532	155.99
775.715	59.73
775.897	112.98
776.079	106.84
776.261	211.28
776.444	192.85
776.626	35.16
776.808	72.02
776.99	33.11
777.173	133.46
777.355	98.64
777.537	102.74
777.719	131.41
777.901	82.26
778.083	112.98
778.265	86.36
778.447	162.13
778.629	12.63
778.811	72.02
778.993	74.07
779.175	158.03
779.357	151.89
779.539	12.63
779.721	63.83
779.903	72.02
780.085	94.55
780.267	84.31
780.449	63.83
780.631	102.74
780.812	162.13
780.994	72.02
781.176	24.92
781.358	63.83
781.54	151.89
781.721	121.17
781.903	164.18
782.085	72.02
782.267	125.27
782.448	-18.09
782.63	-20.14
782.812	24.92
782.993	31.06
783.175	139.6
783.357	84.31
783.538	65.88
783.72	-16.04
783.901	39.25
784.083	41.3
784.264	63.83
784.446	-32.43
784.627	-34.47
784.809	137.56
784.99	-18.09
785.172	90.45
785.353	76.12
785.535	10.58
785.716	22.87
785.897	47.44
786.079	43.35
786.26	16.73
786.441	35.16
786.623	-81.58
786.804	41.3
786.985	102.74
787.167	80.21
787.348	121.17
787.529	2.39
787.71	162.13
787.891	110.93
788.073	0.34
788.254	-59.05
788.435	160.08
788.616	26.96
788.797	-26.28
788.978	0.34
789.159	8.53
789.34	139.6
789.522	90.45
789.703	12.63
789.884	37.2
790.065	84.31
790.246	227.67
790.427	45.4
790.607	84.31
790.788	158.03
790.969	-16.04
791.15	100.69
791.331	35.16
791.512	45.4
791.693	-40.62
791.874	-20.14
792.054	205.14
792.235	143.7
792.416	4.44
792.597	-1.71
792.778	98.64
792.958	69.97
793.139	-1.71
793.32	96.6
793.5	-54.95
793.681	57.68
793.862	22.87
794.042	45.4
794.223	-36.52
794.404	-9.9
794.584	-1.71
794.765	135.51
794.945	76.12
795.126	92.5
795.306	168.27
795.487	20.82
795.667	-26.28
795.848	92.5
796.028	74.07
796.209	-7.85
796.389	117.08
796.57	20.82
796.75	39.25
796.93	10.58
797.111	29.01
797.291	0.34
797.471	53.59
797.652	-11.95
797.832	69.97
798.012	102.74
798.192	18.77
798.373	2.39
798.553	-20.14
798.733	51.54
798.913	0.34
799.093	0.34
799.274	31.06
799.454	78.16
799.634	92.5
799.814	41.3
799.994	33.11
800.174	41.3
800.354	39.25
800.534	-65.19
800.714	112.98
800.894	-32.43
801.074	-18.09
801.254	14.68
801.434	106.84
801.614	22.87
801.794	-65.19
801.974	1753.4
802.154	8.53
802.334	108.88
802.514	-42.67
802.693	-18.09
802.873	2.39
803.053	65.88
803.233	31.06
803.413	10.58
803.592	57.68
803.772	-48.81
803.952	4.44
804.131	-57
804.311	0.34
804.491	123.22
804.67	-3.75
804.85	-87.72
805.03	98.64
805.209	39.25
805.389	4.44
805.568	-3.75
805.748	4.44
805.928	4.44
806.107	145.75
806.287	72.02
806.466	29.01
806.646	12.63
806.825	-89.77
807.004	-59.05
807.184	104.79
807.363	94.55
807.543	29.01
807.722	16.73
807.901	22.87
808.081	49.49
808.26	-134.82
808.439	49.49
808.619	49.49
808.798	-34.47
808.977	20.82
809.156	145.75
809.336	108.88
809.515	104.79
809.694	-61.1
809.873	-9.9
810.052	20.82
810.231	22.87
810.411	29.01
810.59	121.17
810.769	-61.1
810.948	110.93
811.127	-104.11
811.306	69.97
811.485	-59.05
811.664	51.54
811.843	0.34
812.022	41.3
812.201	69.97
812.38	-20.14
812.559	-20.14
812.737	8.53
812.916	-87.72
813.095	-110.25
813.274	53.59
813.453	29.01
813.632	4.44
813.811	94.55
813.989	-42.67
814.168	35.16
814.347	-26.28
814.526	-69.29
814.704	76.12
814.883	43.35
815.062	-110.25
815.24	47.44
815.419	-71.34
815.598	69.97
815.776	-122.54
815.955	14.68
816.133	-69.29
816.312	59.73
816.49	4.44
816.669	18.77
816.847	12.63
817.026	65.88
817.204	-3.75
817.383	43.35
817.561	-59.05
817.74	65.88
817.918	55.64
818.097	-7.85
818.275	-46.76
818.453	78.16
818.632	74.07
818.81	35.16
818.988	-22.19
819.167	22.87
819.345	53.59
819.523	-73.39
819.701	53.59
819.879	20.82
820.058	14.68
820.236	57.68
820.414	41.3
820.592	-26.28
820.77	35.16
820.948	-50.86
821.127	14.68
821.305	12.63
821.483	-46.76
821.661	104.79
821.839	-16.04
822.017	-30.38
822.195	49.49
822.373	63.83
822.551	14.68
822.729	29.01
822.907	-34.47
823.085	16.73
823.262	43.35
823.44	-52.91
823.618	-65.19
823.796	16.73
823.974	-42.67
824.152	-32.43
824.329	-77.48
824.507	55.64
824.685	74.07
824.863	-13.99
825.04	4.44
825.218	151.89
825.396	20.82
825.574	-26.28
825.751	16.73
825.929	-1.71
826.107	-40.62
826.284	16.73
826.462	-13.99
826.639	-120.49
826.817	-7.85
826.994	61.78
827.172	-73.39
827.349	55.64
827.527	-28.33
827.704	-7.85
827.882	8.53
828.059	-16.04
828.237	24.92
828.414	33.11
828.591	-69.29
828.769	-34.47
828.946	-97.96
829.124	88.4
829.301	112.98
829.478	-87.72
829.655	45.4
829.833	-38.57
830.01	-102.06
830.187	141.65
830.364	61.78
830.542	29.01
830.719	22.87
830.896	69.97
831.073	26.96
831.25	33.11
831.427	80.21
831.604	47.44
831.782	-26.28
831.959	-18.09
832.136	18.77
832.313	4.44
832.49	-16.04
832.667	-18.09
832.844	39.25
833.021	65.88
833.198	-28.33
833.374	6.49
833.551	55.64
833.728	-32.43
833.905	78.16
834.082	-102.06
834.259	67.92
834.436	4.44
834.612	-151.21
834.789	37.2
834.966	24.92
835.143	-7.85
835.319	-95.91
835.496	61.78
835.673	33.11
835.85	49.49
836.026	26.96
836.203	14.68
836.38	-73.39
836.556	-26.28
836.733	-77.48
836.909	139.6
837.086	-57
837.262	-75.43
837.439	-40.62
837.616	-5.8
837.792	33.11
837.968	22.87
838.145	-83.63
838.321	16.73
838.498	-1.71
838.674	-18.09
838.851	-7.85
839.027	47.44
839.203	-28.33
839.38	37.2
839.556	-30.38
839.732	90.45
839.909	57.68
840.085	39.25
840.261	-69.29
840.437	14.68
840.614	18.77
840.79	4.44
840.966	76.12
841.142	-30.38
841.318	-7.85
841.494	51.54
841.671	-32.43
841.847	-16.04
842.023	-16.04
842.199	4.44
842.375	123.22
842.551	-132.78
842.727	-30.38
842.903	102.74
843.079	-134.82
843.255	53.59
843.431	-28.33
843.607	49.49
843.783	-97.96
843.959	39.25
844.134	-93.87
844.31	84.31
844.486	-3.75
844.662	-73.39
844.838	20.82
845.013	41.3
845.189	10.58
845.365	39.25
845.541	-32.43
845.716	35.16
845.892	-16.04
846.068	-71.34
846.244	-118.44
846.419	-9.9
846.595	-95.91
846.77	-28.33
846.946	141.65
847.122	-126.63
847.297	-50.86
847.473	78.16
847.648	-104.11
847.824	2.39
847.999	-132.78
848.175	29.01
848.35	-11.95
848.526	47.44
848.701	92.5
848.876	65.88
849.052	-9.9
849.227	20.82
849.403	24.92
849.578	31.06
849.753	-67.24
849.929	39.25
850.104	-85.67
850.279	-26.28
850.454	123.22
850.63	115.03
850.805	-52.91
850.98	6.49
851.155	-77.48
851.33	39.25
851.505	-40.62
851.681	123.22
851.856	-59.05
852.031	-1.71
852.206	-63.15
852.381	-48.81
852.556	-48.81
852.731	-3.75
852.906	35.16
853.081	100.69
853.256	-3.75
853.431	4.44
853.606	-30.38
853.781	-65.19
853.956	-138.92
854.131	33.11
854.305	-112.3
854.48	-20.14
854.655	-50.86
854.83	-65.19
855.005	-69.29
855.18	59.73
855.354	-3.75
855.529	74.07
855.704	14.68
855.879	76.12
856.053	-100.01
856.228	49.49
856.403	-81.58
856.577	18.77
856.752	-85.67
856.926	-13.99
857.101	-59.05
857.276	-57
857.45	53.59
857.625	61.78
857.799	-26.28
857.974	-73.39
858.148	-108.2
858.323	22.87
858.497	6.49
858.672	-81.58
858.846	-48.81
859.02	112.98
859.195	-18.09
859.369	-128.68
859.543	-13.99
859.718	-9.9
859.892	-11.95
860.066	-11.95
860.241	-20.14
860.415	-57
860.589	-85.67
860.763	-36.52
860.938	-143.02
861.112	14.68
861.286	-46.76
861.46	-40.62
861.634	-46.76
861.808	24.92
861.982	-124.58
862.157	-75.43
862.331	-65.19
862.505	-50.86
862.679	-24.23
862.853	-61.1
863.027	-1.71
863.201	67.92
863.375	-112.3
863.549	57.68
863.722	43.35
863.896	88.4
864.07	-63.15
864.244	-40.62
864.418	2.39
864.592	33.11
864.766	-50.86
864.939	-30.38
865.113	-46.76
865.287	88.4
865.461	-54.95
865.634	39.25
865.808	-11.95
865.982	-59.05
866.156	-63.15
866.329	-124.58
866.503	65.88
866.676	10.58
866.85	53.59
867.024	-40.62
867.197	86.36
867.371	37.2
867.544	24.92
867.718	-122.54
867.891	69.97
868.065	-81.58
868.238	-54.95
868.412	112.98
868.585	-36.52
868.759	-110.25
868.932	-87.72
869.105	-95.91
869.279	2.39
869.452	-24.23
869.625	8.53
869.799	24.92
869.972	-54.95
870.145	-1.71
870.319	92.5
870.492	-20.14
870.665	-38.57
870.838	-71.34
871.011	-169.64
871.185	10.58
871.358	-28.33
871.531	-16.04
871.704	-77.48
871.877	-20.14
872.05	-38.57
872.223	-116.39
872.396	112.98
872.569	-48.81
872.742	-30.38
872.915	2.39
873.088	20.82
873.261	12.63
873.434	6.49
873.607	-100.01
873.78	39.25
873.953	-85.67
874.126	-9.9
874.299	76.12
874.471	-138.92
874.644	-128.68
874.817	-1.71
874.99	141.65
875.163	-20.14
875.335	61.78
875.508	-48.81
875.681	94.55
875.853	-11.95
876.026	49.49
876.199	69.97
876.371	-54.95
876.544	-63.15
876.717	0.34
876.889	-73.39
877.062	41.3
877.234	-95.91
877.407	-89.77
877.579	18.77
877.752	35.16
877.924	57.68
878.097	10.58
878.269	-7.85
878.442	-3.75
878.614	20.82
878.786	-38.57
878.959	-26.28
879.131	8.53
879.303	-69.29
879.476	84.31
879.648	104.79
879.82	76.12
879.993	-20.14
880.165	-48.81
880.337	-122.54
880.509	-28.33
880.681	-100.01
880.854	-91.82
881.026	-3.75
881.198	135.51
881.37	-16.04
881.542	-52.91
881.714	-69.29
881.886	14.68
882.058	-54.95
882.23	-3.75
882.402	-42.67
882.574	-9.9
882.746	55.64
882.918	102.74
883.09	49.49
883.262	-26.28
883.434	12.63
883.606	-69.29
883.778	-1.71
883.95	102.74
884.122	-67.24
884.293	51.54
884.465	-24.23
884.637	26.96
884.809	-38.57
884.98	31.06
885.152	-13.99
885.324	-9.9
885.496	-28.33
885.667	-87.72
885.839	-73.39
886.011	78.16
886.182	43.35
886.354	92.5
886.525	59.73
886.697	-7.85
886.869	26.96
887.04	-69.29
887.212	22.87
887.383	131.41
887.555	29.01
887.726	-59.05
887.897	-85.67
888.069	-32.43
888.24	82.26
888.412	-100.01
888.583	-5.8
888.754	-67.24
888.926	-104.11
889.097	-30.38
889.268	-20.14
889.44	-59.05
889.611	-112.3
889.782	-59.05
889.953	-93.87
890.125	82.26
890.296	-63.15
890.467	-75.43
890.638	-93.87
890.809	-132.78
890.98	-46.76
891.151	51.54
891.323	82.26
891.494	-73.39
891.665	-9.9
891.836	12.63
892.007	-18.09
892.178	33.11
892.349	24.92
892.52	-110.25
892.691	67.92
892.862	-71.34
893.032	-153.26
893.203	-67.24
893.374	0.34
893.545	67.92
893.716	-67.24
893.887	-36.52
894.057	-3.75
894.228	63.83
894.399	-54.95
894.57	92.5
894.74	43.35
894.911	-1.71
895.082	0.34
895.253	2.39
895.423	-69.29
895.594	31.06
895.764	-46.76
895.935	-63.15
896.106	-18.09
896.276	-3.75
896.447	-11.95
896.617	-26.28
896.788	-100.01
896.958	12.63
897.129	-63.15
897.299	-91.82
897.47	80.21
897.64	39.25
897.81	22.87
897.981	-44.71
898.151	-5.8
898.322	96.6
898.492	-24.23
898.662	-3.75
898.832	-106.15
899.003	-13.99
899.173	-16.04
899.343	-65.19
899.513	-34.47
