Data from USB4F104151__31__09-26-49-912.txt Node

Date: Wed Feb 26 09:26:49 EST 2025
User: louis
Spectrometer: USB4F10415
Trigger mode: 4
Integration Time (sec): 1.000000E-1
Scans to average: 1
Electric dark correction enabled: true
Nonlinearity correction enabled: false
Boxcar width: 0
XAxis mode: Wavelengths
Number of Pixels in Spectrum: 3648
>>>>>Begin Spectral Data<<<<<
178.204	-335.53
178.424	-335.53
178.644	-335.53
178.864	-407.2
179.084	-384.68
179.304	65.88
179.524	-91.82
179.744	45.4
179.964	26.96
180.184	31.06
180.404	-7.85
180.624	-34.47
180.844	-24.23
181.064	-85.67
181.283	43.35
181.503	-9.9
181.723	41.3
181.943	-48.81
182.163	203.09
182.383	-91.82
182.602	41.3
182.822	135.51
183.042	112.98
183.262	-32.43
183.482	-18.09
183.701	-28.33
183.921	31.06
184.141	-28.33
184.361	74.07
184.58	12.63
184.8	92.5
185.02	-67.24
185.239	102.74
185.459	129.36
185.679	172.37
185.898	-91.82
186.118	143.7
186.338	84.31
186.557	37.2
186.777	-61.1
186.997	47.44
187.216	33.11
187.436	84.31
187.655	104.79
187.875	29.01
188.095	67.92
188.314	98.64
188.534	80.21
188.753	-7.85
188.973	139.6
189.192	143.7
189.412	10.58
189.631	24.92
189.851	72.02
190.07	102.74
190.29	-5.8
190.509	39.25
190.729	31.06
190.948	127.32
191.168	280.91
191.387	29.01
191.607	-44.71
191.826	65.88
192.045	16.73
192.265	-11.95
192.484	43.35
192.704	2.39
192.923	-81.58
193.142	178.51
193.362	127.32
193.581	133.46
193.8	35.16
194.02	65.88
194.239	26.96
194.458	51.54
194.678	-24.23
194.897	8.53
195.116	143.7
195.335	6.49
195.555	49.49
195.774	57.68
195.993	119.12
196.212	-52.91
196.432	59.73
196.651	-40.62
196.87	-69.29
197.089	174.42
197.308	110.93
197.528	80.21
197.747	-61.1
197.966	82.26
198.185	92.5
198.404	-48.81
198.623	41.3
198.842	176.47
199.062	65.88
199.281	106.84
199.5	43.35
199.719	47.44
199.938	22.87
200.157	82.26
200.376	39.25
200.595	57.68
200.814	33.11
201.033	-20.14
201.252	63.83
201.471	29.01
201.69	102.74
201.909	63.83
202.128	14.68
202.347	94.55
202.566	8.53
202.785	-24.23
203.004	0.34
203.223	219.47
203.442	49.49
203.661	-5.8
203.879	39.25
204.098	94.55
204.317	8.53
204.536	41.3
204.755	51.54
204.974	39.25
205.193	41.3
205.411	123.22
205.63	119.12
205.849	55.64
206.068	55.64
206.287	12.63
206.505	35.16
206.724	96.6
206.943	14.68
207.162	-71.34
207.381	76.12
207.599	31.06
207.818	61.78
208.037	-42.67
208.255	61.78
208.474	33.11
208.693	39.25
208.911	-7.85
209.13	104.79
209.349	61.78
209.567	80.21
209.786	59.73
210.005	153.94
210.223	49.49
210.442	-18.09
210.661	51.54
210.879	55.64
211.098	35.16
211.316	-13.99
211.535	24.92
211.753	98.64
211.972	80.21
212.191	-7.85
212.409	33.11
212.628	88.4
212.846	-40.62
213.065	86.36
213.283	139.6
213.502	6.49
213.72	78.16
213.938	-26.28
214.157	-42.67
214.375	-5.8
214.594	-50.86
214.812	41.3
215.031	-36.52
215.249	45.4
215.467	24.92
215.686	10.58
215.904	43.35
216.122	90.45
216.341	153.94
216.559	10.58
216.778	78.16
216.996	80.21
217.214	-26.28
217.432	39.25
217.651	-83.63
217.869	29.01
218.087	14.68
218.306	14.68
218.524	-18.09
218.742	45.4
218.96	57.68
219.179	16.73
219.397	29.01
219.615	233.81
219.833	43.35
220.051	8.53
220.27	37.2
220.488	6.49
220.706	55.64
220.924	26.96
221.142	-59.05
221.36	94.55
221.578	20.82
221.796	63.83
222.015	123.22
222.233	63.83
222.451	24.92
222.669	6.49
222.887	61.78
223.105	-1.71
223.323	-28.33
223.541	-20.14
223.759	43.35
223.977	-7.85
224.195	123.22
224.413	129.36
224.631	33.11
224.849	90.45
225.067	141.65
225.285	6.49
225.503	-61.1
225.721	-48.81
225.939	20.82
226.157	22.87
226.375	186.71
226.592	-7.85
226.81	14.68
227.028	72.02
227.246	90.45
227.464	96.6
227.682	45.4
227.9	22.87
228.117	63.83
228.335	82.26
228.553	104.79
228.771	-73.39
228.989	47.44
229.206	82.26
229.424	43.35
229.642	74.07
229.86	20.82
230.077	98.64
230.295	59.73
230.513	106.84
230.731	102.74
230.948	137.56
231.166	117.08
231.384	-40.62
231.601	-13.99
231.819	123.22
232.037	-48.81
232.254	-61.1
232.472	0.34
232.689	0.34
232.907	16.73
233.125	76.12
233.342	72.02
233.56	37.2
233.777	37.2
233.995	92.5
234.213	47.44
234.43	115.03
234.648	24.92
234.865	-11.95
235.083	45.4
235.3	16.73
235.518	104.79
235.735	76.12
235.953	63.83
236.17	39.25
236.388	-5.8
236.605	10.58
236.822	72.02
237.04	24.92
237.257	51.54
237.475	8.53
237.692	-16.04
237.909	72.02
238.127	-20.14
238.344	100.69
238.562	18.77
238.779	-38.57
238.996	37.2
239.214	39.25
239.431	49.49
239.648	-24.23
239.865	65.88
240.083	131.41
240.3	-26.28
240.517	-63.15
240.735	-26.28
240.952	123.22
241.169	61.78
241.386	72.02
241.603	57.68
241.821	-11.95
242.038	133.46
242.255	53.59
242.472	-20.14
242.689	61.78
242.907	29.01
243.124	47.44
243.341	41.3
243.558	-50.86
243.775	-42.67
243.992	-93.87
244.209	33.11
244.426	137.56
244.643	49.49
244.86	8.53
245.078	57.68
245.295	37.2
245.512	29.01
245.729	-73.39
245.946	72.02
246.163	-13.99
246.38	-18.09
246.597	80.21
246.814	47.44
247.031	57.68
247.248	22.87
247.464	115.03
247.681	88.4
247.898	80.21
248.115	78.16
248.332	-36.52
248.549	121.17
248.766	176.47
248.983	129.36
249.2	41.3
249.417	65.88
249.633	22.87
249.85	2.39
250.067	-36.52
250.284	14.68
250.501	-13.99
250.717	49.49
250.934	-116.39
251.151	-32.43
251.368	0.34
251.585	61.78
251.801	82.26
252.018	4.44
252.235	178.51
252.451	-75.43
252.668	22.87
252.885	72.02
253.102	24.92
253.318	0.34
253.535	33.11
253.752	41.3
253.968	-9.9
254.185	-24.23
254.401	55.64
254.618	90.45
254.835	-77.48
255.051	117.08
255.268	86.36
255.484	-22.19
255.701	37.2
255.917	31.06
256.134	33.11
256.351	12.63
256.567	-44.71
256.784	-30.38
257	-134.82
257.217	88.4
257.433	47.44
257.65	74.07
257.866	155.99
258.082	-40.62
258.299	-44.71
258.515	104.79
258.732	12.63
258.948	18.77
259.165	82.26
259.381	-69.29
259.597	8.53
259.814	-1.71
260.03	4.44
260.246	41.3
260.463	39.25
260.679	24.92
260.895	-18.09
261.112	37.2
261.328	-16.04
261.544	-63.15
261.761	166.23
261.977	14.68
262.193	-24.23
262.409	55.64
262.626	47.44
262.842	94.55
263.058	39.25
263.274	57.68
263.49	88.4
263.707	88.4
263.923	47.44
264.139	-143.02
264.355	57.68
264.571	65.88
264.787	-36.52
265.004	18.77
265.22	22.87
265.436	-67.24
265.652	12.63
265.868	104.79
266.084	8.53
266.3	24.92
266.516	-50.86
266.732	53.59
266.948	72.02
267.164	31.06
267.38	39.25
267.596	98.64
267.812	145.75
268.028	57.68
268.244	-22.19
268.46	33.11
268.676	-20.14
268.892	49.49
269.108	-57
269.324	-22.19
269.54	-95.91
269.756	49.49
269.972	14.68
270.188	-3.75
270.403	-79.53
270.619	-20.14
270.835	47.44
271.051	-7.85
271.267	16.73
271.483	-30.38
271.698	76.12
271.914	129.36
272.13	76.12
272.346	-24.23
272.562	63.83
272.777	153.94
272.993	-3.75
273.209	10.58
273.425	-34.47
273.64	-52.91
273.856	98.64
274.072	8.53
274.287	41.3
274.503	115.03
274.719	47.44
274.934	-59.05
275.15	2.39
275.366	31.06
275.581	-46.76
275.797	41.3
276.012	24.92
276.228	-18.09
276.444	12.63
276.659	57.68
276.875	-104.11
277.09	82.26
277.306	-67.24
277.521	74.07
277.737	-11.95
277.952	55.64
278.168	55.64
278.383	16.73
278.599	16.73
278.814	69.97
279.03	49.49
279.245	184.66
279.461	57.68
279.676	86.36
279.892	-69.29
280.107	-69.29
280.322	-57
280.538	45.4
280.753	47.44
280.969	41.3
281.184	2.39
281.399	78.16
281.615	8.53
281.83	61.78
282.045	-87.72
282.26	-75.43
282.476	10.58
282.691	39.25
282.906	-1.71
283.122	29.01
283.337	-7.85
283.552	47.44
283.767	-36.52
283.983	90.45
284.198	33.11
284.413	57.68
284.628	-18.09
284.843	2.39
285.058	82.26
285.274	-26.28
285.489	-38.57
285.704	37.2
285.919	-50.86
286.134	-63.15
286.349	-34.47
286.564	10.58
286.779	49.49
286.995	35.16
287.21	-110.25
287.425	57.68
287.64	-9.9
287.855	53.59
288.07	-61.1
288.285	104.79
288.5	74.07
288.715	76.12
288.93	24.92
289.145	-38.57
289.36	4.44
289.575	-3.75
289.79	31.06
290.004	-87.72
290.219	88.4
290.434	-3.75
290.649	-89.77
290.864	12.63
291.079	41.3
291.294	61.78
291.509	76.12
291.724	26.96
291.938	-42.67
292.153	4.44
292.368	-7.85
292.583	110.93
292.798	96.6
293.012	29.01
293.227	33.11
293.442	-18.09
293.657	121.17
293.871	145.75
294.086	49.49
294.301	135.51
294.516	98.64
294.73	14.68
294.945	-85.67
295.16	74.07
295.374	139.6
295.589	88.4
295.804	-50.86
296.018	-16.04
296.233	39.25
296.447	33.11
296.662	-52.91
296.877	76.12
297.091	57.68
297.306	51.54
297.52	-22.19
297.735	-7.85
297.949	-7.85
298.164	-57
298.378	63.83
298.593	-42.67
298.807	-65.19
299.022	74.07
299.236	47.44
299.451	-11.95
299.665	20.82
299.88	18.77
300.094	-9.9
300.309	4.44
300.523	-9.9
300.737	-22.19
300.952	55.64
301.166	18.77
301.381	57.68
301.595	4.44
301.809	47.44
302.024	45.4
302.238	14.68
302.452	51.54
302.667	4.44
302.881	147.8
303.095	49.49
303.309	82.26
303.524	-34.47
303.738	24.92
303.952	-3.75
304.166	33.11
304.381	-48.81
304.595	172.37
304.809	-32.43
305.023	59.73
305.237	-28.33
305.452	78.16
305.666	57.68
305.88	98.64
306.094	61.78
306.308	92.5
306.522	102.74
306.736	31.06
306.95	51.54
307.164	8.53
307.379	-9.9
307.593	164.18
307.807	74.07
308.021	41.3
308.235	14.68
308.449	-89.77
308.663	33.11
308.877	131.41
309.091	-71.34
309.305	80.21
309.519	-100.01
309.733	98.64
309.947	-85.67
310.161	88.4
310.374	72.02
310.588	147.8
310.802	-26.28
311.016	-85.67
311.23	29.01
311.444	-18.09
311.658	-32.43
311.872	115.03
312.085	86.36
312.299	65.88
312.513	55.64
312.727	53.59
312.941	33.11
313.154	45.4
313.368	-63.15
313.582	63.83
313.796	53.59
314.009	43.35
314.223	65.88
314.437	63.83
314.651	104.79
314.864	-7.85
315.078	-42.67
315.292	-93.87
315.505	8.53
315.719	47.44
315.933	-20.14
316.146	-40.62
316.36	18.77
316.573	102.74
316.787	24.92
317.001	-28.33
317.214	-24.23
317.428	-30.38
317.641	4.44
317.855	45.4
318.068	-57
318.282	-44.71
318.495	121.17
318.709	24.92
318.922	106.84
319.136	119.12
319.349	47.44
319.563	51.54
319.776	72.02
319.99	-18.09
320.203	168.27
320.417	35.16
320.63	24.92
320.843	151.89
321.057	86.36
321.27	-50.86
321.483	98.64
321.697	155.99
321.91	18.77
322.124	8.53
322.337	24.92
322.55	-75.43
322.763	8.53
322.977	31.06
323.19	2.39
323.403	0.34
323.617	61.78
323.83	100.69
324.043	-32.43
324.256	41.3
324.469	-22.19
324.683	86.36
324.896	16.73
325.109	16.73
325.322	-52.91
325.535	96.6
325.748	39.25
325.962	-46.76
326.175	-32.43
326.388	41.3
326.601	35.16
326.814	-36.52
327.027	90.45
327.24	90.45
327.453	-59.05
327.666	51.54
327.879	6.49
328.092	49.49
328.305	14.68
328.518	-30.38
328.731	-7.85
328.944	4.44
329.157	4.44
329.37	8.53
329.583	104.79
329.796	139.6
330.009	-73.39
330.222	-32.43
330.435	16.73
330.648	33.11
330.861	106.84
331.073	-24.23
331.286	72.02
331.499	18.77
331.712	33.11
331.925	24.92
332.138	53.59
332.35	37.2
332.563	-7.85
332.776	149.84
332.989	-30.38
333.202	-1.71
333.414	33.11
333.627	22.87
333.84	82.26
334.053	94.55
334.265	-42.67
334.478	16.73
334.691	24.92
334.903	98.64
335.116	-54.95
335.329	-22.19
335.541	57.68
335.754	102.74
335.966	-38.57
336.179	-57
336.392	78.16
336.604	-18.09
336.817	41.3
337.029	24.92
337.242	24.92
337.454	78.16
337.667	24.92
337.88	125.27
338.092	57.68
338.305	123.22
338.517	-22.19
338.729	47.44
338.942	106.84
339.154	-42.67
339.367	-34.47
339.579	-18.09
339.792	-44.71
340.004	78.16
340.217	-52.91
340.429	41.3
340.641	-65.19
340.854	43.35
341.066	-26.28
341.278	61.78
341.491	112.98
341.703	16.73
341.915	0.34
342.128	80.21
342.34	-11.95
342.552	-106.15
342.764	18.77
342.977	31.06
343.189	12.63
343.401	45.4
343.613	-16.04
343.826	88.4
344.038	41.3
344.25	14.68
344.462	24.92
344.674	55.64
344.886	26.96
345.099	86.36
345.311	20.82
345.523	-16.04
345.735	8.53
345.947	2.39
346.159	106.84
346.371	-9.9
346.583	-7.85
346.795	119.12
347.007	-7.85
347.219	86.36
347.431	63.83
347.643	49.49
347.855	14.68
348.067	137.56
348.279	-73.39
348.491	-57
348.703	90.45
348.915	-9.9
349.127	-44.71
349.339	-24.23
349.551	-57
349.763	72.02
349.975	57.68
350.187	20.82
350.399	106.84
350.61	67.92
350.822	29.01
351.034	133.46
351.246	102.74
351.458	4.44
351.669	29.01
351.881	115.03
352.093	129.36
352.305	65.88
352.517	-24.23
352.728	92.5
352.94	74.07
353.152	82.26
353.363	-28.33
353.575	123.22
353.787	168.27
353.999	98.64
354.21	90.45
354.422	16.73
354.633	-7.85
354.845	12.63
355.057	-32.43
355.268	26.96
355.48	139.6
355.692	-54.95
355.903	57.68
356.115	-26.28
356.326	-59.05
356.538	8.53
356.749	41.3
356.961	61.78
357.172	-16.04
357.384	-40.62
357.595	143.7
357.807	-57
358.018	-63.15
358.23	-5.8
358.441	172.37
358.653	29.01
358.864	-38.57
359.075	20.82
359.287	-3.75
359.498	55.64
359.709	47.44
359.921	-5.8
360.132	31.06
360.344	4.44
360.555	29.01
360.766	41.3
360.977	84.31
361.189	178.51
361.4	14.68
361.611	96.6
361.823	65.88
362.034	39.25
362.245	-52.91
362.456	29.01
362.667	51.54
362.879	20.82
363.09	0.34
363.301	16.73
363.512	43.35
363.723	2.39
363.935	-54.95
364.146	12.63
364.357	61.78
364.568	69.97
364.779	-9.9
364.99	24.92
365.201	-46.76
365.412	31.06
365.623	-36.52
365.834	33.11
366.045	29.01
366.256	39.25
366.467	74.07
366.678	-36.52
366.889	-1.71
367.1	-32.43
367.311	139.6
367.522	-81.58
367.733	153.94
367.944	-3.75
368.155	-26.28
368.366	72.02
368.577	72.02
368.788	67.92
368.999	4.44
369.209	53.59
369.42	194.9
369.631	117.08
369.842	67.92
370.053	-85.67
370.264	57.68
370.474	8.53
370.685	41.3
370.896	8.53
371.107	88.4
371.317	8.53
371.528	-20.14
371.739	86.36
371.95	47.44
372.16	51.54
372.371	-26.28
372.582	-75.43
372.792	33.11
373.003	2.39
373.214	22.87
373.424	57.68
373.635	-42.67
373.846	145.75
374.056	-24.23
374.267	18.77
374.477	20.82
374.688	-44.71
374.898	78.16
375.109	67.92
375.319	92.5
375.53	41.3
375.74	31.06
375.951	53.59
376.161	14.68
376.372	82.26
376.582	-20.14
376.793	39.25
377.003	-44.71
377.214	-11.95
377.424	-7.85
377.635	-18.09
377.845	-42.67
378.055	69.97
378.266	-7.85
378.476	16.73
378.686	-9.9
378.897	53.59
379.107	20.82
379.317	-18.09
379.528	-20.14
379.738	145.75
379.948	-5.8
380.158	65.88
380.369	22.87
380.579	31.06
380.789	-9.9
380.999	82.26
381.21	102.74
381.42	129.36
381.63	61.78
381.84	94.55
382.05	78.16
382.261	112.98
382.471	0.34
382.681	-40.62
382.891	201.04
383.101	24.92
383.311	-54.95
383.521	-28.33
383.731	90.45
383.941	86.36
384.151	10.58
384.361	-11.95
384.571	88.4
384.781	88.4
384.991	108.88
385.201	141.65
385.411	76.12
385.621	20.82
385.831	18.77
386.041	41.3
386.251	-11.95
386.461	22.87
386.671	-32.43
386.881	57.68
387.091	-9.9
387.301	57.68
387.511	31.06
387.72	119.12
387.93	153.94
388.14	-48.81
388.35	72.02
388.56	72.02
388.769	72.02
388.979	22.87
389.189	-30.38
389.399	16.73
389.609	65.88
389.818	78.16
390.028	74.07
390.238	82.26
390.447	-9.9
390.657	72.02
390.867	-3.75
391.076	-130.73
391.286	0.34
391.496	24.92
391.705	49.49
391.915	104.79
392.125	98.64
392.334	0.34
392.544	57.68
392.753	65.88
392.963	-50.86
393.172	53.59
393.382	-50.86
393.591	129.36
393.801	-102.06
394.01	117.08
394.22	94.55
394.429	45.4
394.639	-36.52
394.848	94.55
395.058	16.73
395.267	43.35
395.477	69.97
395.686	47.44
395.895	137.56
396.105	147.8
396.314	-5.8
396.524	49.49
396.733	-63.15
396.942	153.94
397.152	29.01
397.361	98.64
397.57	53.59
397.78	-7.85
397.989	110.93
398.198	254.29
398.407	-26.28
398.617	35.16
398.826	53.59
399.035	-11.95
399.244	8.53
399.453	6.49
399.663	12.63
399.872	67.92
400.081	12.63
400.29	178.51
400.499	-81.58
400.708	90.45
400.917	-28.33
401.127	-63.15
401.336	-11.95
401.545	186.71
401.754	94.55
401.963	43.35
402.172	33.11
402.381	-32.43
402.59	-18.09
402.799	106.84
403.008	37.2
403.217	139.6
403.426	20.82
403.635	-50.86
403.844	33.11
404.053	12.63
404.262	16.73
404.471	151.89
404.68	119.12
404.888	0.34
405.097	35.16
405.306	39.25
405.515	63.83
405.724	16.73
405.933	86.36
406.142	41.3
406.35	110.93
406.559	-24.23
406.768	74.07
406.977	166.23
407.185	82.26
407.394	41.3
407.603	-30.38
407.812	45.4
408.02	110.93
408.229	-28.33
408.438	67.92
408.646	-34.47
408.855	57.68
409.064	145.75
409.272	29.01
409.481	74.07
409.69	61.78
409.898	-93.87
410.107	47.44
410.315	74.07
410.524	-9.9
410.733	61.78
410.941	0.34
411.15	55.64
411.358	104.79
411.567	119.12
411.775	45.4
411.984	0.34
412.192	61.78
412.401	-7.85
412.609	201.04
412.818	69.97
413.026	-7.85
413.234	8.53
413.443	-22.19
413.651	-3.75
413.86	41.3
414.068	115.03
414.276	106.84
414.485	8.53
414.693	82.26
414.901	192.85
415.11	45.4
415.318	67.92
415.526	-20.14
415.734	31.06
415.943	39.25
416.151	162.13
416.359	-26.28
416.567	0.34
416.776	22.87
416.984	131.41
417.192	135.51
417.4	-11.95
417.608	37.2
417.817	-57
418.025	98.64
418.233	115.03
418.441	-50.86
418.649	-54.95
418.857	72.02
419.065	162.13
419.273	-7.85
419.481	0.34
419.689	-5.8
419.897	51.54
420.105	-81.58
420.313	94.55
420.521	184.66
420.729	94.55
420.937	0.34
421.145	18.77
421.353	39.25
421.561	67.92
421.769	74.07
421.977	-48.81
422.185	94.55
422.393	-44.71
422.601	-13.99
422.809	26.96
423.017	45.4
423.224	33.11
423.432	78.16
423.64	16.73
423.848	98.64
424.056	35.16
424.263	-9.9
424.471	16.73
424.679	112.98
424.887	-57
425.094	143.7
425.302	24.92
425.51	-83.63
425.718	112.98
425.925	-59.05
426.133	29.01
426.341	143.7
426.548	88.4
426.756	0.34
426.964	8.53
427.171	-48.81
427.379	74.07
427.586	39.25
427.794	0.34
428.001	137.56
428.209	88.4
428.417	94.55
428.624	104.79
428.832	88.4
429.039	104.79
429.247	37.2
429.454	92.5
429.662	123.22
429.869	84.31
430.076	33.11
430.284	106.84
430.491	59.73
430.699	90.45
430.906	82.26
431.114	43.35
431.321	82.26
431.528	14.68
431.736	92.5
431.943	153.94
432.15	39.25
432.358	41.3
432.565	141.65
432.772	-83.63
432.979	155.99
433.187	49.49
433.394	94.55
433.601	-18.09
433.808	186.71
434.016	115.03
434.223	112.98
434.43	94.55
434.637	244.05
434.844	131.41
435.052	135.51
435.259	170.32
435.466	170.32
435.673	237.91
435.88	227.67
436.087	180.56
436.294	205.14
436.501	231.76
436.708	102.74
436.915	235.86
437.122	248.15
437.329	213.33
437.537	102.74
437.743	223.57
437.95	346.45
438.157	205.14
438.364	168.27
438.571	149.84
438.778	276.82
438.985	352.59
439.192	319.82
439.399	172.37
439.606	336.21
439.813	289.1
440.02	383.31
440.227	489.81
440.433	450.89
440.64	311.63
440.847	285.01
441.054	391.5
441.261	405.84
441.467	440.65
441.674	342.35
441.881	538.96
442.088	375.12
442.294	399.7
442.501	450.89
442.708	508.24
442.914	438.61
443.121	543.05
443.328	504.14
443.534	536.91
443.741	565.58
443.948	457.04
444.154	579.92
444.361	696.65
444.568	614.73
444.774	573.77
444.981	631.12
445.187	768.33
445.394	717.13
445.6	555.34
445.807	729.42
446.013	792.91
446.22	745.8
446.426	829.77
446.633	893.26
446.839	989.51
447.046	809.29
447.252	989.51
447.459	960.84
447.665	889.16
447.871	1139.01
448.078	1153.35
448.284	1171.78
448.491	1261.89
448.697	1227.07
448.903	1311.04
449.11	1270.08
449.316	1347.9
449.522	1515.84
449.728	1513.79
449.935	1532.22
450.141	1495.36
450.347	1683.77
450.553	1702.2
450.76	1663.29
450.966	1780.03
451.172	1782.07
451.378	1958.2
451.584	1866.04
451.791	2152.76
451.997	2079.03
452.203	2214.2
452.409	2236.72
452.615	2335.03
452.821	2269.49
453.027	2349.36
453.233	2550.06
453.44	2449.71
453.646	2726.19
453.852	2842.92
454.058	2918.7
454.264	2912.55
454.47	3158.31
454.676	3152.17
454.882	3399.97
455.088	3143.97
455.294	3424.55
455.5	3653.92
455.705	3864.86
455.911	4004.12
456.117	3950.87
456.323	4221.2
456.529	4167.96
456.735	4567.31
456.941	4634.89
457.147	4786.44
457.352	4997.39
457.558	4989.19
457.764	5482.75
457.97	5652.74
458.176	5677.31
458.381	6121.72
458.587	6146.3
458.793	6387.96
458.999	6351.09
459.204	7196.9
459.41	7422.18
459.616	7309.54
459.821	7758.05
460.027	8153.3
460.233	8503.51
460.438	8460.5
460.644	8818.89
460.85	9328.84
461.055	9625.79
461.261	10027.2
461.466	9758.91
461.672	9877.69
461.878	11227.31
462.083	10967.21
462.289	11172.01
462.494	11622.56
462.7	11763.87
462.905	11868.32
463.111	12900.5
463.316	13590.66
463.522	13670.53
463.727	14063.74
463.932	14581.88
464.138	15294.57
464.343	15716.45
464.549	15810.66
464.754	17221.71
464.959	17541.19
465.165	17762.37
465.37	17481.8
465.575	17668.17
465.781	18835.51
465.986	19662.89
466.191	19226.67
466.397	19193.9
466.602	18827.32
466.807	20209.7
467.012	20348.96
467.218	20611.1
467.423	20643.87
467.628	21422.09
467.833	22478.85
468.038	21889.03
468.244	21573.64
468.449	22829.05
468.654	22343.68
468.859	22218.75
469.064	22294.53
469.269	21727.24
469.474	21977.09
469.679	22636.54
469.885	22110.21
470.09	22581.24
470.295	22458.37
470.5	21628.94
470.705	22194.18
470.91	21374.99
471.115	21284.88
471.32	21704.71
471.525	21309.46
471.73	20934.68
471.935	20674.59
472.139	20070.44
472.344	19685.42
472.549	19968.04
472.754	19365.93
472.959	18810.93
473.164	18460.73
473.369	18077.76
473.574	18579.51
473.778	18206.78
473.983	18038.85
474.188	17651.78
474.393	16697.43
474.598	16848.98
474.802	16482.39
475.007	16271.45
475.212	16175.2
475.417	15296.62
475.621	15384.68
475.826	15093.87
476.031	14542.97
476.235	14379.13
476.44	14471.29
476.645	13998.21
476.849	13883.52
477.054	13875.33
477.259	13400.2
477.463	13279.37
477.668	13099.15
477.872	12990.61
478.077	12570.77
478.282	12341.4
478.486	12017.82
478.691	12114.08
478.895	12036.25
479.1	11589.8
479.304	11802.79
479.509	11350.18
479.713	11624.61
479.918	11393.19
480.122	11030.7
480.326	11034.8
480.531	10850.48
480.735	10834.1
480.94	10629.3
481.144	11118.76
481.348	10494.13
481.553	10684.59
481.757	10338.49
481.961	10487.99
482.166	10397.88
482.37	10408.12
482.574	10019
482.778	9988.28
482.983	10342.58
483.187	9918.65
483.391	10125.5
483.595	9787.58
483.8	9535.68
484.004	9726.14
484.208	9783.49
484.412	9459.91
484.616	9445.57
484.821	9355.46
485.025	9146.57
485.229	9093.32
485.433	9056.46
485.637	8927.44
485.841	8655.06
486.045	8749.26
486.249	8708.3
486.453	8466.64
486.657	8181.98
486.861	8315.09
487.065	7876.83
487.269	8171.74
487.473	7665.89
487.677	7823.58
487.881	7708.9
488.085	7457
488.289	7600.35
488.493	7135.46
488.697	7272.68
488.901	6893.8
489.105	6799.6
489.309	6815.98
489.512	6750.45
489.716	6760.69
489.92	6502.64
490.124	6418.68
490.328	6490.35
490.531	6174.97
490.735	6291.7
490.939	6035.71
491.143	5832.96
491.346	5685.5
491.55	5792
491.754	5456.13
491.958	5644.54
492.161	5521.67
492.365	5468.42
492.569	5150.98
492.772	5261.57
492.976	5265.67
493.18	4966.67
493.383	5193.99
493.587	5079.3
493.79	5011.72
493.994	4923.66
494.197	4821.26
494.401	4759.82
494.605	4901.13
494.808	4890.89
495.012	4667.66
495.215	4757.77
495.419	4858.12
495.622	4833.55
495.825	4641.04
496.029	4493.58
496.232	4505.87
496.436	4632.85
496.639	4753.68
496.843	4489.49
497.046	4587.79
497.249	4759.82
497.453	4743.44
497.656	4616.46
497.859	4763.92
498.063	4718.86
498.266	4782.35
498.469	4507.92
498.673	4712.72
498.876	4813.07
499.079	4851.98
499.282	4874.51
499.485	5038.34
499.689	4950.28
499.892	4935.95
500.095	4962.57
500.298	5021.96
500.501	4897.03
500.705	5142.79
500.908	5087.5
501.111	5259.53
501.314	5370.12
501.517	5398.79
501.72	5544.19
501.923	5382.4
502.126	5337.35
502.329	5636.35
502.532	5617.92
502.735	5560.58
502.938	5843.2
503.141	5783.81
503.344	5722.37
503.547	6119.67
503.75	5992.7
503.953	6095.1
504.156	6437.11
504.359	6211.83
504.562	6449.39
504.765	6531.31
504.968	6719.73
505.17	7012.59
505.373	6957.29
505.576	6977.77
505.779	7010.54
505.982	7262.44
506.185	7352.55
506.387	7465.19
506.59	7715.04
506.793	7719.14
506.996	7919.84
507.198	8143.07
507.401	8024.28
507.604	8397.01
507.807	8495.32
508.009	8765.65
508.212	8976.59
508.415	9058.51
508.617	9330.89
508.82	9523.4
509.022	9498.82
509.225	10008.76
509.428	10047.68
509.63	10367.16
509.833	10451.13
510.035	10655.92
510.238	10959.02
510.44	11239.59
510.643	11411.62
510.845	11929.76
511.048	11987.1
511.25	12036.25
511.453	12568.73
511.655	13207.69
511.858	13287.56
512.06	13596.81
512.262	13787.27
512.465	13895.81
512.667	14444.66
512.87	14545.02
513.072	15134.83
513.274	15446.12
513.477	15767.65
513.679	16095.33
513.881	16552.02
514.084	16842.84
514.286	17074.26
514.488	17449.04
514.69	18192.45
514.893	18323.52
515.095	18921.52
515.297	19306.54
515.499	19507.24
515.701	20021.28
515.904	20660.25
516.106	21157.91
516.308	21276.69
516.51	21753.87
516.712	21790.73
516.914	22519.81
517.116	23160.82
517.318	23666.67
517.52	24111.08
517.722	24313.83
517.925	24881.11
518.127	25532.37
518.329	25909.19
518.531	25972.68
518.733	26845.12
518.935	27350.96
519.136	27778.99
519.338	28340.13
519.54	28819.36
519.742	29048.73
519.944	29450.13
520.146	30433.16
520.348	30410.63
520.55	30703.49
520.752	31213.43
520.954	31563.64
521.155	31819.63
521.357	32522.09
521.559	32941.92
521.761	33300.31
521.963	33488.73
522.164	33865.55
522.366	34185.04
522.568	34338.63
522.77	34801.47
522.971	35477.3
523.173	35469.11
523.375	35673.91
523.576	35776.31
523.778	36087.6
523.98	36386.6
524.181	36771.62
524.383	36757.28
524.584	37328.67
524.786	37111.58
524.988	36980.51
525.189	37353.24
525.391	37564.18
525.592	37824.28
525.794	37492.51
525.995	37521.18
526.197	37140.25
526.398	37396.25
526.6	37564.18
526.801	37316.38
527.003	37375.77
527.204	37304.09
527.406	37637.91
527.607	37113.63
527.808	37291.8
528.01	36316.97
528.211	36472.62
528.412	36712.23
528.614	36554.54
528.815	36142.89
529.016	36349.74
529.218	35170.11
529.419	35372.86
529.62	34924.35
529.822	35012.42
530.023	34361.16
530.224	34295.63
530.425	34051.92
530.626	33763.15
530.828	33083.23
531.029	33202.01
531.23	32917.34
531.431	32159.59
531.632	32028.52
531.833	31829.87
532.035	31487.86
532.236	30801.79
532.437	30705.54
532.638	30015.37
532.839	29501.33
533.04	29714.32
533.241	29177.75
533.442	28966.81
533.643	28262.31
533.844	28151.72
534.045	27723.69
534.246	27387.83
534.447	27013.05
534.648	26748.86
534.849	26146.76
535.05	25831.37
535.251	25335.76
535.451	25124.82
535.652	24793.05
535.853	24768.48
536.054	24369.12
536.255	23879.66
536.456	23535.6
536.657	23631.85
536.857	23371.76
537.058	22857.72
537.259	22601.72
537.46	22120.45
537.66	21800.97
537.861	21565.45
538.062	21346.32
538.263	20897.81
538.463	20813.85
538.664	20549.66
538.865	20242.46
539.065	20154.4
539.266	19470.38
539.466	19570.73
539.667	19255.34
539.868	19251.25
540.068	18700.34
540.269	18546.75
540.469	18753.59
540.67	18268.22
540.87	18075.71
541.071	17475.66
541.271	17731.65
541.472	17469.51
541.672	16957.52
541.873	17166.42
542.073	16470.11
542.274	17006.67
542.474	16441.43
542.675	16117.86
542.875	15945.83
543.075	15741.03
543.276	15386.73
543.476	15698.02
543.676	15222.89
543.877	15077.49
544.077	15124.59
544.277	14975.09
544.478	14669.94
544.678	14534.78
544.878	14323.83
545.078	14483.58
545.279	13895.81
545.479	13688.96
545.679	13813.89
545.879	13449.35
546.079	13432.97
546.28	12894.35
546.48	12912.78
546.68	13060.24
546.88	12742.8
547.08	12646.55
547.28	12513.43
547.48	12224.67
547.68	12429.46
547.88	12157.08
548.081	11837.6
548.281	11632.8
548.481	11557.03
548.681	11522.21
548.881	11395.24
549.081	11235.5
549.28	11034.8
549.48	11042.99
549.68	10760.37
549.88	10649.78
550.08	10375.35
550.28	10512.56
550.48	10141.88
550.68	10186.94
550.88	9803.97
551.08	9822.4
551.279	9744.58
551.479	9486.53
551.679	9433.29
551.879	8992.97
552.079	8947.92
552.278	8872.14
552.478	8980.68
552.678	8607.95
552.878	8777.94
553.077	8403.16
553.277	8261.85
553.477	8286.42
553.676	8048.86
553.876	7944.41
554.076	7651.55
554.275	7450.85
554.475	7420.13
554.674	7577.83
554.874	7131.37
555.074	6981.87
555.273	7022.83
555.473	6994.15
555.672	6846.7
555.872	6738.16
556.071	6777.07
556.271	6570.23
556.47	6390
556.67	6347
556.869	6201.59
557.068	6004.99
557.268	5992.7
557.467	5857.53
557.667	5816.57
557.866	5644.54
558.065	5615.87
558.265	5634.3
558.464	5353.73
558.663	5259.53
558.863	5259.53
559.062	5171.46
559.261	5015.82
559.461	5093.64
559.66	4856.08
559.859	4784.4
560.058	4800.78
560.258	4731.15
560.457	4583.7
560.656	4792.59
560.855	4430.1
561.054	4448.53
561.253	4292.88
561.453	4260.12
561.652	4170.01
561.851	4147.48
562.05	4006.17
562.249	3979.54
562.448	3944.73
562.647	3803.42
562.846	3801.37
563.045	3879.19
563.244	3701.02
563.443	3690.78
563.642	3596.57
563.841	3610.91
564.04	3406.11
564.239	3457.31
564.438	3186.98
564.637	3195.17
564.836	3277.09
565.035	3242.28
565.234	3121.45
565.432	3182.88
565.631	3107.11
565.83	2988.33
566.029	2992.42
566.228	2855.21
566.427	2965.8
566.625	2754.86
566.824	2871.59
567.023	2820.39
567.222	2801.96
567.42	2732.33
567.619	2742.57
567.818	2548.01
568.016	2654.51
568.215	2437.42
568.414	2531.63
568.612	2535.73
568.811	2306.35
569.01	2406.7
569.208	2298.16
569.407	2384.18
569.605	2353.46
569.804	2242.87
570.002	2138.42
570.201	2201.91
570.4	2220.34
570.598	2087.22
570.797	2066.74
570.995	2007.35
571.193	2044.21
571.392	2050.36
571.59	1909.05
571.789	2019.64
571.987	1962.3
572.186	1950.01
572.384	1792.31
572.582	1933.62
572.781	1898.81
572.979	1669.44
573.177	1659.2
573.376	1737.02
573.574	1669.44
573.772	1696.06
573.971	1610.04
574.169	1483.07
574.367	1601.85
574.565	1571.13
574.763	1370.43
574.962	1452.35
575.16	1440.06
575.358	1534.27
575.556	1376.58
575.754	1374.53
575.952	1362.24
576.151	1380.67
576.349	1356.1
576.547	1139.01
576.745	1378.62
576.943	1247.55
577.141	1141.06
577.339	1110.34
577.537	1284.42
577.735	1265.99
577.933	1220.93
578.131	1134.92
578.329	1192.26
578.527	1007.94
578.725	1218.88
578.923	1016.13
579.121	1120.58
579.319	909.64
579.516	977.22
579.714	1257.79
579.912	1009.99
580.11	856.39
580.308	1075.52
580.506	932.17
580.704	661.84
580.901	878.92
581.099	983.37
581.297	811.34
581.495	911.69
581.692	786.76
581.89	1034.57
582.088	860.49
582.285	751.95
582.483	801.1
582.681	827.72
582.878	762.19
583.076	680.27
583.274	745.8
583.471	852.3
583.669	710.99
583.866	620.88
584.064	622.92
584.262	637.26
584.459	635.21
584.657	727.37
584.854	729.42
585.052	694.6
585.249	735.56
585.447	643.4
585.644	514.38
585.841	631.12
586.039	590.16
586.236	612.68
586.434	567.63
586.631	541.01
586.828	532.81
587.026	526.67
587.223	500.05
587.42	483.66
587.618	614.73
587.815	651.6
588.012	491.85
588.21	530.77
588.407	598.35
588.604	555.34
588.801	510.29
588.999	512.33
589.196	536.91
589.393	465.23
589.59	440.65
589.787	467.28
589.984	573.77
590.182	463.18
590.379	442.7
590.576	401.74
590.773	479.57
590.97	483.66
591.167	448.85
591.364	504.14
591.561	477.52
591.758	618.83
591.955	506.19
592.152	399.7
592.349	405.84
592.546	448.85
592.743	362.83
592.94	454.99
593.137	411.98
593.334	411.98
593.531	489.81
593.727	477.52
593.924	491.85
594.121	377.17
594.318	483.66
594.515	450.89
594.712	512.33
594.908	555.34
595.105	481.61
595.302	426.32
595.499	450.89
595.696	557.39
595.892	459.09
596.089	541.01
596.286	514.38
596.482	543.05
596.679	526.67
596.876	538.96
597.072	649.55
597.269	600.4
597.466	516.43
597.662	504.14
597.859	524.62
598.055	598.35
598.252	633.16
598.448	663.88
598.645	680.27
598.841	719.18
599.038	733.51
599.234	745.8
599.431	854.34
599.627	805.19
599.824	831.82
600.02	813.38
600.217	917.83
600.413	893.26
600.609	883.02
600.806	1147.2
601.002	1059.14
601.198	966.98
601.395	1161.54
601.591	1143.11
601.787	1128.77
601.984	1237.31
602.18	1323.33
602.376	1257.79
602.572	1327.43
602.769	1468.73
602.965	1401.15
603.161	1487.17
603.357	1669.44
603.553	1634.62
603.75	1538.37
603.946	1704.25
604.142	1739.07
604.338	1911.1
604.534	1810.75
604.73	1962.3
604.926	1943.86
605.122	2109.75
605.318	2038.07
605.514	2249.01
605.71	2163
605.906	2363.7
606.102	2326.83
606.298	2484.53
606.494	2552.11
606.69	2562.35
606.886	2582.83
607.082	2640.17
607.278	2832.68
607.474	2918.7
607.67	2955.56
607.866	2978.09
608.062	3363.11
608.257	3154.21
608.453	3113.25
608.649	3434.78
608.845	3391.78
609.041	3348.77
609.236	3578.14
609.432	3729.69
609.628	3950.87
609.824	3875.1
610.019	3946.78
610.215	3993.88
610.411	4135.19
610.606	4411.67
610.802	4479.25
610.998	4569.36
611.193	4825.36
611.389	4823.31
611.584	4970.76
611.78	5044.49
611.976	5163.27
612.171	5388.55
612.367	5587.2
612.562	5632.26
612.758	5636.35
612.953	5599.49
613.149	5908.73
613.344	6193.4
613.539	6310.13
613.735	6525.17
613.93	6709.49
614.126	6781.17
614.321	7217.38
614.517	7379.17
614.712	7422.18
614.907	7586.02
615.103	7848.16
615.298	7925.98
615.493	8360.15
615.688	8300.76
615.884	8798.42
616.079	8771.79
616.274	8999.12
616.47	9107.66
616.665	9404.61
616.86	9603.27
617.055	10080.44
617.25	10215.61
617.445	10676.4
617.641	10477.75
617.836	10928.3
618.031	11008.17
618.226	11352.23
618.421	11567.27
618.616	12013.73
618.811	12089.5
619.006	12587.16
619.201	12658.84
619.396	13131.92
619.591	13021.33
619.786	13725.83
619.981	13768.84
620.176	14301.31
620.371	14327.93
620.566	14590.07
620.761	15192.17
620.956	15630.44
621.151	15444.07
621.346	15990.88
621.541	15974.5
621.735	16644.18
621.93	16883.8
622.125	17217.61
622.32	17229.9
622.515	17745.99
622.709	17956.93
622.904	18194.5
623.099	18645.05
623.294	19163.18
623.488	19304.49
623.683	19709.99
623.878	19689.51
624.072	20318.24
624.267	20516.89
624.462	20883.48
624.656	21106.71
624.851	21557.26
625.046	21729.29
625.24	22009.86
625.435	22247.43
625.629	22835.19
625.824	23054.33
626.018	23457.78
626.213	23263.22
626.407	23992.3
626.602	24016.87
626.796	24483.81
626.991	24623.07
627.185	24827.87
627.38	25057.24
627.574	25128.92
627.768	25294.8
627.963	25272.28
628.157	25522.13
628.352	25987.02
628.546	25157.59
628.74	25446.35
628.935	25618.38
629.129	25638.86
629.323	25444.31
629.517	25239.51
629.712	25165.78
629.906	25262.04
630.1	24604.64
630.294	24786.91
630.489	24389.6
630.683	24291.3
630.877	23594.99
631.071	23449.58
631.265	23140.34
631.459	22663.16
631.653	21983.24
631.848	21624.84
632.042	21100.56
632.236	20813.85
632.43	20000.8
632.624	19804.2
632.818	19146.8
633.012	18577.47
633.206	18044.99
633.4	17432.65
633.594	16730.2
633.788	16576.6
633.982	15882.34
634.176	15564.9
634.369	14549.11
634.563	14057.6
634.757	13629.57
634.951	13090.96
635.145	12710.04
635.339	12247.19
635.533	11448.49
635.726	11286.7
635.92	10830
636.114	10420.41
636.308	9889.98
636.501	9421
636.695	9314.5
636.889	8884.43
637.083	8347.86
637.276	8020.19
637.47	7610.59
637.664	7500
637.857	7149.8
638.051	6887.66
638.244	6570.23
638.438	6299.89
638.632	6215.93
638.825	5632.26
639.019	5533.95
639.212	5335.3
639.406	5241.09
639.599	4839.69
639.793	4821.26
639.986	4634.89
640.18	4501.78
640.373	4217.11
640.567	3973.4
640.76	3948.83
640.954	3825.95
641.147	3604.77
641.34	3404.07
641.534	3234.08
641.727	3258.66
641.92	3119.4
642.114	2902.31
642.307	2910.5
642.5	2703.66
642.694	2666.8
642.887	2595.12
643.08	2531.63
643.273	2431.28
643.467	2236.72
643.66	2210.1
643.853	1952.06
644.046	2062.65
644.239	1917.24
644.432	1808.7
644.626	1671.48
644.819	1708.35
645.012	1724.73
645.205	1638.72
645.398	1603.9
645.591	1454.4
645.784	1360.19
645.977	1337.66
646.17	1292.61
646.363	1216.83
646.556	1151.3
646.749	1050.95
646.942	1093.96
647.135	1147.2
647.328	1055.05
647.521	948.55
647.714	1012.04
647.907	946.5
648.099	868.68
648.292	983.37
648.485	815.43
648.678	842.06
648.871	741.71
649.064	801.1
649.256	751.95
649.449	631.12
649.642	536.91
649.835	512.33
650.027	545.1
650.22	629.07
650.413	575.82
650.605	516.43
650.798	522.57
650.991	557.39
651.183	489.81
651.376	532.81
651.568	500.05
651.761	416.08
651.954	495.95
652.146	373.07
652.339	530.77
652.531	403.79
652.724	323.92
652.916	409.94
653.109	258.39
653.301	389.46
653.494	362.83
653.686	342.35
653.879	430.41
654.071	373.07
654.263	266.58
654.456	233.81
654.648	323.92
654.84	221.52
655.033	205.14
655.225	289.1
655.417	137.56
655.61	332.11
655.802	285.01
655.994	311.63
656.186	149.84
656.379	303.44
656.571	147.8
656.763	147.8
656.955	180.56
657.148	178.51
657.34	313.68
657.532	203.09
657.724	143.7
657.916	180.56
658.108	155.99
658.3	225.62
658.492	225.62
658.684	104.79
658.876	180.56
659.068	178.51
659.26	82.26
659.452	94.55
659.644	123.22
659.836	213.33
660.028	188.75
660.22	155.99
660.412	149.84
660.604	153.94
660.796	145.75
660.988	246.1
661.18	172.37
661.372	143.7
661.563	117.08
661.755	147.8
661.947	37.2
662.139	94.55
662.331	37.2
662.522	164.18
662.714	33.11
662.906	-32.43
663.097	76.12
663.289	119.12
663.481	0.34
663.673	164.18
663.864	147.8
664.056	153.94
664.247	86.36
664.439	139.6
664.631	80.21
664.822	104.79
665.014	170.32
665.205	24.92
665.397	72.02
665.588	153.94
665.78	135.51
665.971	125.27
666.163	74.07
666.354	88.4
666.546	96.6
666.737	65.88
666.929	102.74
667.12	108.88
667.311	137.56
667.503	49.49
667.694	80.21
667.885	147.8
668.077	186.71
668.268	41.3
668.459	80.21
668.651	90.45
668.842	184.66
669.033	59.73
669.224	-11.95
669.416	158.03
669.607	106.84
669.798	31.06
669.989	121.17
670.18	112.98
670.371	94.55
670.563	35.16
670.754	153.94
670.945	188.75
671.136	45.4
671.327	69.97
671.518	205.14
671.709	229.71
671.9	41.3
672.091	65.88
672.282	98.64
672.473	57.68
672.664	10.58
672.855	53.59
673.046	160.08
673.237	147.8
673.428	123.22
673.619	143.7
673.809	69.97
674	205.14
674.191	201.04
674.382	104.79
674.573	74.07
674.764	98.64
674.954	227.67
675.145	33.11
675.336	55.64
675.527	53.59
675.717	143.7
675.908	94.55
676.099	139.6
676.289	158.03
676.48	39.25
676.671	123.22
676.861	80.21
677.052	244.05
677.243	80.21
677.433	72.02
677.624	174.42
677.814	110.93
678.005	45.4
678.195	217.43
678.386	37.2
678.576	108.88
678.767	22.87
678.957	110.93
679.148	155.99
679.338	198.99
679.529	168.27
679.719	78.16
679.909	194.9
680.1	162.13
680.29	201.04
680.481	55.64
680.671	155.99
680.861	172.37
681.052	131.41
681.242	110.93
681.432	115.03
681.622	110.93
681.813	55.64
682.003	151.89
682.193	96.6
682.383	102.74
682.573	127.32
682.764	104.79
682.954	135.51
683.144	174.42
683.334	207.19
683.524	135.51
683.714	182.61
683.904	231.76
684.094	164.18
684.284	151.89
684.474	254.29
684.664	188.75
684.854	192.85
685.044	155.99
685.234	102.74
685.424	115.03
685.614	145.75
685.804	235.86
685.994	180.56
686.184	143.7
686.374	239.95
686.564	211.28
686.753	178.51
686.943	170.32
687.133	133.46
687.323	237.91
687.513	219.47
687.702	131.41
687.892	160.08
688.082	164.18
688.272	219.47
688.461	203.09
688.651	254.29
688.841	235.86
689.03	78.16
689.22	155.99
689.41	166.23
689.599	225.62
689.789	106.84
689.979	235.86
690.168	178.51
690.358	225.62
690.547	69.97
690.737	127.32
690.926	266.58
691.116	227.67
691.305	248.15
691.495	147.8
691.684	164.18
691.874	78.16
692.063	100.69
692.252	180.56
692.442	205.14
692.631	119.12
692.82	143.7
693.01	145.75
693.199	129.36
693.388	201.04
693.578	133.46
693.767	198.99
693.956	180.56
694.146	158.03
694.335	217.43
694.524	143.7
694.713	266.58
694.902	215.38
695.092	172.37
695.281	164.18
695.47	59.73
695.659	135.51
695.848	133.46
696.037	184.66
696.226	244.05
696.415	127.32
696.604	194.9
696.793	153.94
696.982	110.93
697.171	209.23
697.36	100.69
697.549	190.8
697.738	106.84
697.927	151.89
698.116	74.07
698.305	219.47
698.494	211.28
698.683	131.41
698.872	207.19
699.061	155.99
699.25	112.98
699.438	180.56
699.627	98.64
699.816	244.05
700.005	37.2
700.193	139.6
700.382	125.27
700.571	110.93
700.76	168.27
700.948	219.47
701.137	170.32
701.326	198.99
701.514	151.89
701.703	104.79
701.892	242
702.08	270.67
702.269	115.03
702.457	98.64
702.646	164.18
702.834	131.41
703.023	201.04
703.212	188.75
703.4	178.51
703.589	123.22
703.777	112.98
703.965	14.68
704.154	139.6
704.342	82.26
704.531	117.08
704.719	147.8
704.907	196.95
705.096	47.44
705.284	59.73
705.472	121.17
705.661	194.9
705.849	147.8
706.037	84.31
706.226	61.78
706.414	205.14
706.602	90.45
706.79	252.24
706.979	90.45
707.167	209.23
707.355	49.49
707.543	188.75
707.731	198.99
707.919	147.8
708.107	90.45
708.296	188.75
708.484	137.56
708.672	145.75
708.86	209.23
709.048	170.32
709.236	137.56
709.424	151.89
709.612	229.71
709.8	45.4
709.988	139.6
710.176	203.09
710.364	211.28
710.551	153.94
710.739	100.69
710.927	104.79
711.115	115.03
711.303	258.39
711.491	246.1
711.679	80.21
711.866	209.23
712.054	98.64
712.242	209.23
712.43	182.61
712.617	127.32
712.805	244.05
712.993	162.13
713.181	16.73
713.368	231.76
713.556	100.69
713.744	82.26
713.931	360.78
714.119	137.56
714.306	117.08
714.494	119.12
714.682	254.29
714.869	92.5
715.057	155.99
715.244	115.03
715.432	174.42
715.619	139.6
715.807	104.79
715.994	151.89
716.182	123.22
716.369	203.09
716.556	233.81
716.744	94.55
716.931	96.6
717.119	188.75
717.306	194.9
717.493	260.43
717.681	123.22
717.868	106.84
718.055	235.86
718.242	151.89
718.43	180.56
718.617	196.95
718.804	82.26
718.991	285.01
719.179	180.56
719.366	227.67
719.553	180.56
719.74	194.9
719.927	164.18
720.114	145.75
720.301	65.88
720.488	172.37
720.676	211.28
720.863	287.06
721.05	231.76
721.237	217.43
721.424	231.76
721.611	172.37
721.798	147.8
721.985	176.47
722.172	160.08
722.358	172.37
722.545	315.73
722.732	117.08
722.919	266.58
723.106	153.94
723.293	155.99
723.48	221.52
723.667	184.66
723.853	242
724.04	229.71
724.227	311.63
724.414	205.14
724.6	229.71
724.787	209.23
724.974	352.59
725.161	172.37
725.347	147.8
725.534	221.52
725.72	219.47
725.907	219.47
726.094	338.26
726.28	121.17
726.467	194.9
726.653	180.56
726.84	303.44
727.027	301.39
727.213	201.04
727.4	285.01
727.586	192.85
727.773	258.39
727.959	145.75
728.145	266.58
728.332	266.58
728.518	192.85
728.705	244.05
728.891	307.54
729.077	254.29
729.264	207.19
729.45	225.62
729.636	311.63
729.823	229.71
730.009	295.25
730.195	180.56
730.382	196.95
730.568	151.89
730.754	235.86
730.94	221.52
731.126	198.99
731.313	262.48
731.499	205.14
731.685	254.29
731.871	254.29
732.057	227.67
732.243	303.44
732.429	254.29
732.615	401.74
732.801	180.56
732.987	225.62
733.173	258.39
733.359	123.22
733.545	237.91
733.731	190.8
733.917	299.34
734.103	256.34
734.289	264.53
734.475	229.71
734.661	319.82
734.847	229.71
735.033	229.71
735.219	311.63
735.404	211.28
735.59	188.75
735.776	178.51
735.962	188.75
736.148	258.39
736.333	295.25
736.519	244.05
736.705	229.71
736.89	192.85
737.076	252.24
737.262	133.46
737.447	266.58
737.633	268.63
737.819	282.96
738.004	254.29
738.19	201.04
738.375	276.82
738.561	293.2
738.747	278.87
738.932	219.47
739.118	352.59
739.303	313.68
739.489	321.87
739.674	178.51
739.859	196.95
740.045	219.47
740.23	262.48
740.416	112.98
740.601	321.87
740.786	235.86
740.972	201.04
741.157	229.71
741.342	164.18
741.528	244.05
741.713	309.58
741.898	233.81
742.084	235.86
742.269	237.91
742.454	409.94
742.639	270.67
742.824	235.86
743.01	352.59
743.195	379.22
743.38	250.19
743.565	211.28
743.75	282.96
743.935	313.68
744.12	350.54
744.305	174.42
744.49	295.25
744.675	213.33
744.86	184.66
745.045	303.44
745.23	252.24
745.415	155.99
745.6	360.78
745.785	131.41
745.97	360.78
746.155	328.02
746.34	360.78
746.525	209.23
746.71	332.11
746.895	213.33
747.079	180.56
747.264	217.43
747.449	237.91
747.634	287.06
747.819	260.43
748.003	207.19
748.188	135.51
748.373	196.95
748.557	194.9
748.742	184.66
748.927	227.67
749.111	151.89
749.296	198.99
749.481	260.43
749.665	102.74
749.85	188.75
750.034	246.1
750.219	209.23
750.404	196.95
750.588	184.66
750.773	147.8
750.957	160.08
751.141	160.08
751.326	225.62
751.51	155.99
751.695	166.23
751.879	219.47
752.064	282.96
752.248	201.04
752.432	219.47
752.617	237.91
752.801	184.66
752.985	160.08
753.17	282.96
753.354	244.05
753.538	153.94
753.722	131.41
753.907	119.12
754.091	90.45
754.275	260.43
754.459	82.26
754.643	139.6
754.828	178.51
755.012	153.94
755.196	104.79
755.38	125.27
755.564	110.93
755.748	135.51
755.932	182.61
756.116	188.75
756.3	225.62
756.484	98.64
756.668	174.42
756.852	125.27
757.036	129.36
757.22	88.4
757.404	133.46
757.588	188.75
757.772	219.47
757.956	147.8
758.14	289.1
758.323	201.04
758.507	147.8
758.691	139.6
758.875	147.8
759.059	225.62
759.242	63.83
759.426	207.19
759.61	162.13
759.794	80.21
759.977	225.62
760.161	266.58
760.345	196.95
760.528	196.95
760.712	168.27
760.895	106.84
761.079	127.32
761.263	115.03
761.446	112.98
761.63	172.37
761.813	176.47
761.997	59.73
762.18	102.74
762.364	94.55
762.547	24.92
762.731	153.94
762.914	41.3
763.098	125.27
763.281	86.36
763.464	198.99
763.648	47.44
763.831	49.49
764.015	26.96
764.198	86.36
764.381	98.64
764.564	90.45
764.748	96.6
764.931	135.51
765.114	12.63
765.297	182.61
765.481	65.88
765.664	67.92
765.847	90.45
766.03	102.74
766.213	108.88
766.397	88.4
766.58	29.01
766.763	155.99
766.946	43.35
767.129	63.83
767.312	59.73
767.495	55.64
767.678	6.49
767.861	26.96
768.044	131.41
768.227	20.82
768.41	67.92
768.593	94.55
768.776	106.84
768.959	92.5
769.142	102.74
769.324	94.55
769.507	69.97
769.69	127.32
769.873	8.53
770.056	180.56
770.239	-11.95
770.421	192.85
770.604	115.03
770.787	110.93
770.97	125.27
771.152	53.59
771.335	61.78
771.518	8.53
771.7	63.83
771.883	162.13
772.066	72.02
772.248	90.45
772.431	98.64
772.613	106.84
772.796	33.11
772.978	61.78
773.161	155.99
773.343	82.26
773.526	0.34
773.708	8.53
773.891	2.39
774.073	10.58
774.256	24.92
774.438	141.65
774.621	96.6
774.803	53.59
774.985	0.34
775.168	115.03
775.35	22.87
775.532	94.55
775.715	92.5
775.897	100.69
776.079	78.16
776.261	192.85
776.444	57.68
776.626	16.73
776.808	115.03
776.99	-20.14
777.173	61.78
777.355	45.4
777.537	31.06
777.719	67.92
777.901	98.64
778.083	-9.9
778.265	39.25
778.447	96.6
778.629	-5.8
778.811	0.34
778.993	67.92
779.175	115.03
779.357	67.92
779.539	-73.39
779.721	57.68
779.903	82.26
780.085	-24.23
780.267	72.02
780.449	35.16
780.631	47.44
780.812	119.12
780.994	39.25
781.176	39.25
781.358	10.58
781.54	100.69
781.721	53.59
781.903	51.54
782.085	31.06
782.267	172.37
782.448	-11.95
782.63	12.63
782.812	80.21
782.993	78.16
783.175	90.45
783.357	53.59
783.538	41.3
783.72	-13.99
783.901	16.73
784.083	90.45
784.264	47.44
784.446	-48.81
784.627	4.44
784.809	69.97
784.99	-69.29
785.172	121.17
785.353	-16.04
785.535	65.88
785.716	49.49
785.897	2.39
786.079	-24.23
786.26	41.3
786.441	123.22
786.623	-106.15
786.804	-48.81
786.985	-11.95
787.167	139.6
787.348	47.44
787.529	31.06
787.71	123.22
787.891	92.5
788.073	-42.67
788.254	-34.47
788.435	147.8
788.616	26.96
788.797	6.49
788.978	33.11
789.159	82.26
789.34	49.49
789.522	-42.67
789.703	-32.43
789.884	33.11
790.065	57.68
790.246	72.02
790.427	-34.47
790.607	168.27
790.788	29.01
790.969	-9.9
791.15	-22.19
791.331	39.25
791.512	-30.38
791.693	-24.23
791.874	-26.28
792.054	139.6
792.235	104.79
792.416	0.34
792.597	-34.47
792.778	86.36
792.958	51.54
793.139	-11.95
793.32	8.53
793.5	-32.43
793.681	78.16
793.862	33.11
794.042	39.25
794.223	8.53
794.404	-73.39
794.584	-71.34
794.765	35.16
794.945	63.83
795.126	139.6
795.306	100.69
795.487	-26.28
795.667	-50.86
795.848	33.11
796.028	16.73
796.209	41.3
796.389	63.83
796.57	-40.62
796.75	-73.39
796.93	20.82
797.111	-75.43
797.291	0.34
797.471	123.22
797.652	-52.91
797.832	12.63
798.012	49.49
798.192	-20.14
798.373	-73.39
798.553	-20.14
798.733	47.44
798.913	-93.87
799.093	-48.81
799.274	-3.75
799.454	98.64
799.634	41.3
799.814	119.12
799.994	24.92
800.174	33.11
800.354	20.82
800.534	-79.53
800.714	-28.33
800.894	-69.29
801.074	22.87
801.254	-81.58
801.434	102.74
801.614	-3.75
801.794	-75.43
801.974	1507.65
802.154	-52.91
802.334	47.44
802.514	4.44
802.693	12.63
802.873	39.25
803.053	137.56
803.233	18.77
803.413	8.53
803.592	-81.58
803.772	-20.14
803.952	43.35
804.131	-104.11
804.311	74.07
804.491	24.92
804.67	12.63
804.85	-40.62
805.03	41.3
805.209	31.06
805.389	-9.9
805.568	-16.04
805.748	-44.71
805.928	-7.85
806.107	55.64
806.287	29.01
806.466	-54.95
806.646	-16.04
806.825	-42.67
807.004	-75.43
807.184	12.63
807.363	137.56
807.543	8.53
807.722	-7.85
807.901	151.89
808.081	8.53
808.26	-108.2
808.439	65.88
808.619	-24.23
808.798	0.34
808.977	2.39
809.156	31.06
809.336	-16.04
809.515	63.83
809.694	-63.15
809.873	-81.58
810.052	-1.71
810.231	4.44
810.411	33.11
810.59	8.53
810.769	-16.04
810.948	24.92
811.127	-57
811.306	-67.24
811.485	-11.95
811.664	102.74
811.843	-22.19
812.022	-3.75
812.201	-30.38
812.38	74.07
812.559	-13.99
812.737	-32.43
812.916	-89.77
813.095	-59.05
813.274	45.4
813.453	-85.67
813.632	88.4
813.811	74.07
813.989	-93.87
814.168	106.84
814.347	-34.47
814.526	-38.57
814.704	16.73
814.883	108.88
815.062	-20.14
815.24	72.02
815.419	-81.58
815.598	49.49
815.776	-48.81
815.955	-30.38
816.133	-44.71
816.312	-93.87
816.49	-46.76
816.669	-24.23
816.847	-13.99
817.026	8.53
817.204	-24.23
817.383	-24.23
817.561	-40.62
817.74	51.54
817.918	-9.9
818.097	-3.75
818.275	-28.33
818.453	16.73
818.632	106.84
818.81	-42.67
818.988	24.92
819.167	-93.87
819.345	24.92
819.523	-106.15
819.701	-36.52
819.879	55.64
820.058	-1.71
820.236	22.87
820.414	-32.43
820.592	-69.29
820.77	6.49
820.948	8.53
821.127	-32.43
821.305	18.77
821.483	-81.58
821.661	39.25
821.839	26.96
822.017	-89.77
822.195	4.44
822.373	-40.62
822.551	-3.75
822.729	-24.23
822.907	-73.39
823.085	-3.75
823.262	0.34
823.44	-54.95
823.618	-46.76
823.796	4.44
823.974	-65.19
824.152	-46.76
824.329	-18.09
824.507	26.96
824.685	18.77
824.863	-30.38
825.04	-28.33
825.218	-34.47
825.396	-59.05
825.574	-16.04
825.751	0.34
825.929	53.59
826.107	-44.71
826.284	-54.95
826.462	49.49
826.639	-63.15
826.817	-67.24
826.994	49.49
827.172	-30.38
827.349	57.68
827.527	-67.24
827.704	16.73
827.882	16.73
828.059	8.53
828.237	-20.14
828.414	20.82
828.591	-106.15
828.769	-52.91
828.946	-59.05
829.124	29.01
829.301	112.98
829.478	-63.15
829.655	14.68
829.833	-38.57
830.01	-59.05
830.187	61.78
830.364	-40.62
830.542	-11.95
830.719	82.26
830.896	53.59
831.073	8.53
831.25	14.68
831.427	33.11
831.604	90.45
831.782	-100.01
831.959	86.36
832.136	-48.81
832.313	33.11
832.49	-1.71
832.667	-46.76
832.844	0.34
833.021	78.16
833.198	20.82
833.374	14.68
833.551	47.44
833.728	-69.29
833.905	26.96
834.082	-114.34
834.259	29.01
834.436	67.92
834.612	-28.33
834.789	22.87
834.966	0.34
835.143	-40.62
835.319	-81.58
835.496	-26.28
835.673	-30.38
835.85	16.73
836.026	14.68
836.203	53.59
836.38	-52.91
836.556	92.5
836.733	22.87
836.909	72.02
837.086	-46.76
837.262	-108.2
837.439	-91.82
837.616	-57
837.792	-61.1
837.968	63.83
838.145	-171.69
838.321	22.87
838.498	-7.85
838.674	-11.95
838.851	43.35
839.027	-26.28
839.203	-13.99
839.38	-26.28
839.556	-42.67
839.732	82.26
839.909	-22.19
840.085	31.06
840.261	-30.38
840.437	10.58
840.614	-18.09
840.79	53.59
840.966	33.11
841.142	57.68
841.318	-26.28
841.494	-7.85
841.671	-7.85
841.847	-85.67
842.023	-48.81
842.199	-5.8
842.375	35.16
842.551	-65.19
842.727	-75.43
842.903	72.02
843.079	-165.54
843.255	51.54
843.431	14.68
843.607	39.25
843.783	-136.87
843.959	10.58
844.134	-83.63
844.31	137.56
844.486	-59.05
844.662	-69.29
844.838	-11.95
845.013	-30.38
845.189	121.17
845.365	-30.38
845.541	94.55
845.716	8.53
845.892	24.92
846.068	-20.14
846.244	-16.04
846.419	2.39
846.595	-95.91
846.77	0.34
846.946	90.45
847.122	-81.58
847.297	-7.85
847.473	121.17
847.648	-73.39
847.824	20.82
847.999	-46.76
848.175	-50.86
848.35	-26.28
848.526	84.31
848.701	24.92
848.876	-54.95
849.052	47.44
849.227	10.58
849.403	-20.14
849.578	-1.71
849.753	24.92
849.929	-3.75
850.104	-32.43
850.279	29.01
850.454	0.34
850.63	16.73
850.805	-34.47
850.98	-7.85
851.155	-38.57
851.33	14.68
851.505	-36.52
851.681	57.68
851.856	-69.29
852.031	-16.04
852.206	65.88
852.381	-69.29
852.556	-63.15
852.731	119.12
852.906	-20.14
853.081	-22.19
853.256	59.73
853.431	-63.15
853.606	-7.85
853.781	-106.15
853.956	-102.06
854.131	-30.38
854.305	-5.8
854.48	-16.04
854.655	-73.39
854.83	-52.91
855.005	-3.75
855.18	-36.52
855.354	-11.95
855.529	-11.95
855.704	6.49
855.879	102.74
856.053	-59.05
856.228	-38.57
856.403	-157.35
856.577	-24.23
856.752	-75.43
856.926	-93.87
857.101	-7.85
857.276	-79.53
857.45	-26.28
857.625	8.53
857.799	16.73
857.974	-38.57
858.148	-69.29
858.323	49.49
858.497	-44.71
858.672	-81.58
858.846	-52.91
859.02	33.11
859.195	-77.48
859.369	35.16
859.543	53.59
859.718	51.54
859.892	-40.62
860.066	6.49
860.241	-38.57
860.415	-28.33
860.589	-20.14
860.763	-38.57
860.938	51.54
861.112	16.73
861.286	-71.34
861.46	4.44
861.634	-73.39
861.808	29.01
861.982	-67.24
862.157	-59.05
862.331	-46.76
862.505	-69.29
862.679	-108.2
862.853	-61.1
863.027	-67.24
863.201	39.25
863.375	-13.99
863.549	31.06
863.722	-28.33
863.896	37.2
864.07	-81.58
864.244	-13.99
864.418	86.36
864.592	22.87
864.766	-73.39
864.939	29.01
865.113	-81.58
865.287	12.63
865.461	-97.96
865.634	-22.19
865.808	14.68
865.982	-32.43
866.156	-40.62
866.329	-114.34
866.503	-3.75
866.676	16.73
866.85	33.11
867.024	-65.19
867.197	43.35
867.371	-26.28
867.544	-28.33
867.718	-52.91
867.891	55.64
868.065	-83.63
868.238	-9.9
868.412	65.88
868.585	2.39
868.759	-16.04
868.932	-61.1
869.105	-59.05
869.279	41.3
869.452	-42.67
869.625	69.97
869.799	-40.62
869.972	-110.25
870.145	-42.67
870.319	33.11
870.492	12.63
870.665	-48.81
870.838	-65.19
871.011	-114.34
871.185	-50.86
871.358	-30.38
871.531	12.63
871.704	-1.71
871.877	82.26
872.05	-59.05
872.223	-93.87
872.396	8.53
872.569	20.82
872.742	-106.15
872.915	-26.28
873.088	-24.23
873.261	-73.39
873.434	-30.38
873.607	-7.85
873.78	94.55
873.953	-69.29
874.126	-28.33
874.299	-46.76
874.471	-22.19
874.644	-36.52
874.817	-61.1
874.99	57.68
875.163	-57
875.335	57.68
875.508	61.78
875.681	57.68
875.853	-79.53
876.026	18.77
876.199	-22.19
876.371	2.39
876.544	33.11
876.717	6.49
876.889	14.68
877.062	69.97
877.234	-65.19
877.407	-108.2
877.579	-3.75
877.752	29.01
877.924	26.96
878.097	33.11
878.269	-7.85
878.442	0.34
878.614	-9.9
878.786	12.63
878.959	-24.23
879.131	-20.14
879.303	-151.21
879.476	-16.04
879.648	69.97
879.82	-9.9
879.993	-11.95
880.165	-110.25
880.337	-73.39
880.509	18.77
880.681	-122.54
880.854	24.92
881.026	80.21
881.198	47.44
881.37	-48.81
881.542	-40.62
881.714	-46.76
881.886	-81.58
882.058	-28.33
882.23	22.87
882.402	-91.82
882.574	72.02
882.746	31.06
882.918	39.25
883.09	37.2
883.262	8.53
883.434	14.68
883.606	-46.76
883.778	-40.62
883.95	63.83
884.122	-18.09
884.293	123.22
884.465	-24.23
884.637	115.03
884.809	-34.47
884.98	-5.8
885.152	-3.75
885.324	31.06
885.496	-79.53
885.667	-85.67
885.839	-16.04
886.011	98.64
886.182	37.2
886.354	6.49
886.525	-52.91
886.697	-1.71
886.869	4.44
887.04	-57
887.212	24.92
887.383	115.03
887.555	10.58
887.726	-108.2
887.897	-1.71
888.069	-36.52
888.24	51.54
888.412	-57
888.583	-3.75
888.754	8.53
888.926	-83.63
889.097	-32.43
889.268	-89.77
889.44	-7.85
889.611	-77.48
889.782	-61.1
889.953	-32.43
890.125	98.64
890.296	-85.67
890.467	-59.05
890.638	-16.04
890.809	-46.76
890.98	-9.9
891.151	0.34
891.323	84.31
891.494	-59.05
891.665	-32.43
891.836	-73.39
892.007	29.01
892.178	41.3
892.349	55.64
892.52	-38.57
892.691	41.3
892.862	-44.71
893.032	-149.16
893.203	12.63
893.374	-16.04
893.545	26.96
893.716	-52.91
893.887	-3.75
894.057	16.73
894.228	-59.05
894.399	-46.76
894.57	24.92
894.74	16.73
894.911	59.73
895.082	-71.34
895.253	-130.73
895.423	61.78
895.594	65.88
895.764	-20.14
895.935	-20.14
896.106	0.34
896.276	-24.23
896.447	-83.63
896.617	-1.71
896.788	-16.04
896.958	-75.43
897.129	-77.48
897.299	-95.91
897.47	47.44
897.64	-11.95
897.81	-65.19
897.981	39.25
898.151	-36.52
898.322	49.49
898.492	8.53
898.662	-40.62
898.832	-67.24
899.003	-13.99
899.173	53.59
899.343	2.39
899.513	16.73
