Data from USB4F104151__1__09-24-11-830.txt Node

Date: Wed Feb 26 09:24:11 EST 2025
User: louis
Spectrometer: USB4F10415
Trigger mode: 4
Integration Time (sec): 1.000000E-1
Scans to average: 1
Electric dark correction enabled: true
Nonlinearity correction enabled: false
Boxcar width: 0
XAxis mode: Wavelengths
Number of Pixels in Spectrum: 3648
>>>>>Begin Spectral Data<<<<<
178.204	-306.17
178.424	-306.17
178.644	-306.17
178.864	-371.71
179.084	-394.23
179.304	27.65
179.524	-5.12
179.744	52.22
179.964	37.89
180.184	-44.03
180.404	33.79
180.624	9.22
180.844	-19.46
181.064	-11.26
181.283	5.12
181.503	-56.32
181.723	-29.7
181.943	-64.51
182.163	146.43
182.383	-56.32
182.602	93.18
182.822	29.7
183.042	46.08
183.262	-13.31
183.482	7.17
183.701	-27.65
183.921	54.27
184.141	5.12
184.361	95.23
184.58	37.89
184.8	-5.12
185.02	58.37
185.239	72.7
185.459	119.81
185.679	93.18
185.898	-105.47
186.118	29.7
186.338	52.22
186.557	70.65
186.777	-52.22
186.997	5.12
187.216	29.7
187.436	152.57
187.655	21.5
187.875	41.98
188.095	13.31
188.314	125.95
188.534	80.89
188.753	41.98
188.973	99.33
189.192	62.46
189.412	60.42
189.631	39.94
189.851	17.41
190.07	119.81
190.29	-25.6
190.509	-25.6
190.729	68.61
190.948	107.52
191.168	273.4
191.387	-7.17
191.607	54.27
191.826	39.94
192.045	72.7
192.265	-29.7
192.484	41.98
192.704	13.31
192.923	-68.61
193.142	209.92
193.362	-19.46
193.581	107.52
193.8	103.42
194.02	62.46
194.239	-35.84
194.458	101.37
194.678	21.5
194.897	-19.46
195.116	35.84
195.335	46.08
195.555	29.7
195.774	-7.17
195.993	91.13
196.212	54.27
196.432	13.31
196.651	-15.36
196.87	-19.46
197.089	209.92
197.308	82.94
197.528	44.03
197.747	21.5
197.966	37.89
198.185	179.2
198.404	-44.03
198.623	29.7
198.842	21.5
199.062	48.13
199.281	48.13
199.5	33.79
199.719	97.28
199.938	191.49
200.157	33.79
200.376	74.75
200.595	58.37
200.814	25.6
201.033	-27.65
201.252	201.72
201.471	58.37
201.69	111.61
201.909	76.8
202.128	121.85
202.347	58.37
202.566	-41.98
202.785	-27.65
203.004	44.03
203.223	171.01
203.442	113.66
203.661	-31.74
203.879	125.95
204.098	103.42
204.317	-56.32
204.536	41.98
204.755	111.61
204.974	66.56
205.193	-29.7
205.411	111.61
205.63	27.65
205.849	5.12
206.068	21.5
206.287	-72.7
206.505	87.04
206.724	31.74
206.943	-41.98
207.162	-31.74
207.381	132.09
207.599	82.94
207.818	117.76
208.037	-13.31
208.255	68.61
208.474	33.79
208.693	37.89
208.911	82.94
209.13	52.22
209.349	80.89
209.567	117.76
209.786	29.7
210.005	48.13
210.223	33.79
210.442	-3.07
210.661	1.02
210.879	134.14
211.098	11.26
211.316	9.22
211.535	52.22
211.753	128
211.972	95.23
212.191	13.31
212.409	-25.6
212.628	19.46
212.846	-29.7
213.065	152.57
213.283	-3.07
213.502	17.41
213.72	109.57
213.938	-21.5
214.157	48.13
214.375	70.65
214.594	1.02
214.812	54.27
215.031	21.5
215.249	39.94
215.467	5.12
215.686	5.12
215.904	76.8
216.122	62.46
216.341	78.85
216.559	84.99
216.778	46.08
216.996	60.42
217.214	-27.65
217.432	-29.7
217.651	25.6
217.869	13.31
218.087	-19.46
218.306	50.18
218.524	7.17
218.742	-5.12
218.96	107.52
219.179	41.98
219.397	27.65
219.615	189.44
219.833	58.37
220.051	52.22
220.27	134.14
220.488	27.65
220.706	19.46
220.924	15.36
221.142	25.6
221.36	21.5
221.578	62.46
221.796	-21.5
222.015	33.79
222.233	95.23
222.451	111.61
222.669	-52.22
222.887	70.65
223.105	-5.12
223.323	37.89
223.541	17.41
223.759	54.27
223.977	97.28
224.195	95.23
224.413	99.33
224.631	62.46
224.849	-60.42
225.067	125.95
225.285	-19.46
225.503	82.94
225.721	-19.46
225.939	25.6
226.157	25.6
226.375	220.16
226.592	-15.36
226.81	-7.17
227.028	78.85
227.246	87.04
227.464	1.02
227.682	72.7
227.9	76.8
228.117	39.94
228.335	-9.22
228.553	107.52
228.771	5.12
228.989	5.12
229.206	66.56
229.424	-37.89
229.642	5.12
229.86	19.46
230.077	33.79
230.295	50.18
230.513	111.61
230.731	95.23
230.948	78.85
231.166	50.18
231.384	62.46
231.601	-78.85
231.819	93.18
232.037	35.84
232.254	-56.32
232.472	-3.07
232.689	5.12
232.907	46.08
233.125	-66.56
233.342	54.27
233.56	-56.32
233.777	27.65
233.995	37.89
234.213	93.18
234.43	68.61
234.648	-27.65
234.865	9.22
235.083	-9.22
235.3	76.8
235.518	93.18
235.735	199.68
235.953	74.75
236.17	11.26
236.388	93.18
236.605	1.02
236.822	93.18
237.04	29.7
237.257	21.5
237.475	-27.65
237.692	74.75
237.909	80.89
238.127	23.55
238.344	93.18
238.562	70.65
238.779	-7.17
238.996	-101.37
239.214	97.28
239.431	76.8
239.648	1.02
239.865	89.09
240.083	17.41
240.3	76.8
240.517	3.07
240.735	-19.46
240.952	132.09
241.169	52.22
241.386	50.18
241.603	-35.84
241.821	-48.13
242.038	93.18
242.255	82.94
242.472	5.12
242.689	111.61
242.907	64.51
243.124	-15.36
243.341	-5.12
243.558	-5.12
243.775	-58.37
243.992	-29.7
244.209	46.08
244.426	148.48
244.643	68.61
244.86	-58.37
245.078	125.95
245.295	95.23
245.512	9.22
245.729	3.07
245.946	97.28
246.163	1.02
246.38	11.26
246.597	19.46
246.814	-48.13
247.031	9.22
247.248	60.42
247.464	103.42
247.681	54.27
247.898	93.18
248.115	74.75
248.332	-7.17
248.549	119.81
248.766	138.24
248.983	-7.17
249.2	41.98
249.417	136.19
249.633	103.42
249.85	113.66
250.067	3.07
250.284	50.18
250.501	95.23
250.717	21.5
250.934	-27.65
251.151	60.42
251.368	82.94
251.585	54.27
251.801	37.89
252.018	-21.5
252.235	123.9
252.451	-13.31
252.668	-17.41
252.885	97.28
253.102	21.5
253.318	29.7
253.535	11.26
253.752	46.08
253.968	-68.61
254.185	-56.32
254.401	64.51
254.618	33.79
254.835	1.02
255.051	107.52
255.268	134.14
255.484	76.8
255.701	23.55
255.917	62.46
256.134	-19.46
256.351	-87.04
256.567	-31.74
256.784	-9.22
257	-72.7
257.217	136.19
257.433	87.04
257.65	87.04
257.866	103.42
258.082	-70.65
258.299	105.47
258.515	37.89
258.732	62.46
258.948	-21.5
259.165	111.61
259.381	-39.94
259.597	76.8
259.814	46.08
260.03	58.37
260.246	-52.22
260.463	46.08
260.679	97.28
260.895	-48.13
261.112	82.94
261.328	97.28
261.544	-54.27
261.761	144.38
261.977	84.99
262.193	-54.27
262.409	87.04
262.626	138.24
262.842	68.61
263.058	-95.23
263.274	150.53
263.49	-37.89
263.707	87.04
263.923	70.65
264.139	-105.47
264.355	9.22
264.571	134.14
264.787	68.61
265.004	107.52
265.22	31.74
265.436	-25.6
265.652	15.36
265.868	25.6
266.084	44.03
266.3	35.84
266.516	-11.26
266.732	39.94
266.948	-9.22
267.164	27.65
267.38	70.65
267.596	19.46
267.812	101.37
268.028	41.98
268.244	3.07
268.46	-35.84
268.676	7.17
268.892	39.94
269.108	-62.46
269.324	-60.42
269.54	-31.74
269.756	99.33
269.972	-109.57
270.188	44.03
270.403	13.31
270.619	56.32
270.835	91.13
271.051	5.12
271.267	66.56
271.483	-68.61
271.698	119.81
271.914	-3.07
272.13	123.9
272.346	9.22
272.562	70.65
272.777	89.09
272.993	-33.79
273.209	17.41
273.425	62.46
273.64	-48.13
273.856	58.37
274.072	-54.27
274.287	19.46
274.503	39.94
274.719	44.03
274.934	29.7
275.15	-80.89
275.366	25.6
275.581	-25.6
275.797	-11.26
276.012	52.22
276.228	52.22
276.444	31.74
276.659	25.6
276.875	-35.84
277.09	-7.17
277.306	5.12
277.521	3.07
277.737	44.03
277.952	80.89
278.168	-46.08
278.383	37.89
278.599	44.03
278.814	52.22
279.03	-1.02
279.245	119.81
279.461	66.56
279.676	117.76
279.892	-29.7
280.107	-27.65
280.322	58.37
280.538	74.75
280.753	23.55
280.969	27.65
281.184	46.08
281.399	144.38
281.615	-62.46
281.83	50.18
282.045	-27.65
282.26	-72.7
282.476	23.55
282.691	50.18
282.906	48.13
283.122	15.36
283.337	-7.17
283.552	93.18
283.767	-7.17
283.983	-3.07
284.198	70.65
284.413	-48.13
284.628	-11.26
284.843	13.31
285.058	-5.12
285.274	82.94
285.489	-9.22
285.704	-21.5
285.919	-84.99
286.134	37.89
286.349	11.26
286.564	-5.12
286.779	87.04
286.995	-17.41
287.21	19.46
287.425	48.13
287.64	95.23
287.855	9.22
288.07	-15.36
288.285	76.8
288.5	158.72
288.715	76.8
288.93	1.02
289.145	-19.46
289.36	80.89
289.575	29.7
289.79	162.81
290.004	-5.12
290.219	107.52
290.434	60.42
290.649	52.22
290.864	-52.22
291.079	-21.5
291.294	33.79
291.509	13.31
291.724	66.56
291.938	52.22
292.153	93.18
292.368	35.84
292.583	13.31
292.798	123.9
293.012	-15.36
293.227	97.28
293.442	-93.18
293.657	80.89
293.871	105.47
294.086	41.98
294.301	150.53
294.516	78.85
294.73	-84.99
294.945	-21.5
295.16	-1.02
295.374	80.89
295.589	134.14
295.804	17.41
296.018	54.27
296.233	78.85
296.447	-9.22
296.662	19.46
296.877	54.27
297.091	117.76
297.306	-72.7
297.52	-39.94
297.735	7.17
297.949	-19.46
298.164	72.7
298.378	21.5
298.593	-84.99
298.807	25.6
299.022	-19.46
299.236	115.71
299.451	-60.42
299.665	-9.22
299.88	21.5
300.094	64.51
300.309	-13.31
300.523	66.56
300.737	-54.27
300.952	29.7
301.166	29.7
301.381	-44.03
301.595	35.84
301.809	35.84
302.024	-23.55
302.238	-5.12
302.452	128
302.667	37.89
302.881	80.89
303.095	17.41
303.309	87.04
303.524	-48.13
303.738	50.18
303.952	-109.57
304.166	37.89
304.381	-48.13
304.595	119.81
304.809	-31.74
305.023	54.27
305.237	-3.07
305.452	19.46
305.666	66.56
305.88	91.13
306.094	152.57
306.308	1.02
306.522	39.94
306.736	89.09
306.95	109.57
307.164	-11.26
307.379	25.6
307.593	148.48
307.807	70.65
308.021	211.96
308.235	19.46
308.449	-25.6
308.663	27.65
308.877	203.77
309.091	58.37
309.305	70.65
309.519	-46.08
309.733	58.37
309.947	-25.6
310.161	74.75
310.374	17.41
310.588	91.13
310.802	-5.12
311.016	-19.46
311.23	48.13
311.444	-52.22
311.658	-11.26
311.872	41.98
312.085	160.77
312.299	138.24
312.513	144.38
312.727	41.98
312.941	-62.46
313.154	117.76
313.368	-39.94
313.582	52.22
313.796	54.27
314.009	5.12
314.223	70.65
314.437	-11.26
314.651	148.48
314.864	15.36
315.078	58.37
315.292	-52.22
315.505	41.98
315.719	-1.02
315.933	33.79
316.146	-80.89
316.36	39.94
316.573	82.94
316.787	-13.31
317.001	27.65
317.214	5.12
317.428	1.02
317.641	-39.94
317.855	39.94
318.068	1.02
318.282	82.94
318.495	191.49
318.709	27.65
318.922	-37.89
319.136	68.61
319.349	107.52
319.563	54.27
319.776	62.46
319.99	-70.65
320.203	82.94
320.417	37.89
320.63	62.46
320.843	119.81
321.057	60.42
321.27	-7.17
321.483	84.99
321.697	144.38
321.91	7.17
322.124	62.46
322.337	56.32
322.55	-84.99
322.763	33.79
322.977	-19.46
323.19	84.99
323.403	-60.42
323.617	50.18
323.83	66.56
324.043	-35.84
324.256	21.5
324.469	5.12
324.683	78.85
324.896	-11.26
325.109	60.42
325.322	-119.81
325.535	56.32
325.748	29.7
325.962	15.36
326.175	9.22
326.388	50.18
326.601	111.61
326.814	19.46
327.027	54.27
327.24	99.33
327.453	-84.99
327.666	17.41
327.879	152.57
328.092	11.26
328.305	78.85
328.518	-50.18
328.731	15.36
328.944	-39.94
329.157	97.28
329.37	-58.37
329.583	144.38
329.796	76.8
330.009	-103.42
330.222	39.94
330.435	29.7
330.648	72.7
330.861	41.98
331.073	-5.12
331.286	35.84
331.499	-35.84
331.712	-52.22
331.925	39.94
332.138	-27.65
332.35	54.27
332.563	58.37
332.776	89.09
332.989	-15.36
333.202	33.79
333.414	68.61
333.627	50.18
333.84	29.7
334.053	54.27
334.265	5.12
334.478	37.89
334.691	84.99
334.903	7.17
335.116	48.13
335.329	39.94
335.541	78.85
335.754	50.18
335.966	-31.74
336.179	125.95
336.392	80.89
336.604	-44.03
336.817	44.03
337.029	66.56
337.242	-11.26
337.454	117.76
337.667	44.03
337.88	76.8
338.092	78.85
338.305	95.23
338.517	-25.6
338.729	128
338.942	152.57
339.154	-39.94
339.367	13.31
339.579	60.42
339.792	-84.99
340.004	136.19
340.217	-11.26
340.429	21.5
340.641	-78.85
340.854	-41.98
341.066	5.12
341.278	125.95
341.491	132.09
341.703	31.74
341.915	-5.12
342.128	171.01
342.34	15.36
342.552	-44.03
342.764	62.46
342.977	-11.26
343.189	78.85
343.401	27.65
343.613	-19.46
343.826	31.74
344.038	-46.08
344.25	87.04
344.462	-5.12
344.674	70.65
344.886	-46.08
345.099	7.17
345.311	91.13
345.523	-11.26
345.735	-62.46
345.947	-21.5
346.159	62.46
346.371	48.13
346.583	15.36
346.795	119.81
347.007	76.8
347.219	-25.6
347.431	11.26
347.643	136.19
347.855	-21.5
348.067	56.32
348.279	9.22
348.491	-25.6
348.703	-39.94
348.915	29.7
349.127	-64.51
349.339	66.56
349.551	-84.99
349.763	128
349.975	-58.37
350.187	46.08
350.399	123.9
350.61	7.17
350.822	1.02
351.034	35.84
351.246	29.7
351.458	9.22
351.669	62.46
351.881	87.04
352.093	66.56
352.305	23.55
352.517	74.75
352.728	70.65
352.94	41.98
353.152	82.94
353.363	9.22
353.575	82.94
353.787	68.61
353.999	60.42
354.21	128
354.422	-29.7
354.633	-35.84
354.845	-1.02
355.057	46.08
355.268	7.17
355.48	109.57
355.692	-50.18
355.903	50.18
356.115	48.13
356.326	-101.37
356.538	84.99
356.749	62.46
356.961	132.09
357.172	82.94
357.384	11.26
357.595	168.96
357.807	62.46
358.018	33.79
358.23	48.13
358.441	64.51
358.653	58.37
358.864	52.22
359.075	-50.18
359.287	97.28
359.498	148.48
359.709	41.98
359.921	-62.46
360.132	70.65
360.344	25.6
360.555	-27.65
360.766	-58.37
360.977	29.7
361.189	115.71
361.4	19.46
361.611	84.99
361.823	60.42
362.034	39.94
362.245	-50.18
362.456	93.18
362.667	31.74
362.879	-37.89
363.09	72.7
363.301	101.37
363.512	76.8
363.723	-25.6
363.935	7.17
364.146	70.65
364.357	52.22
364.568	-3.07
364.779	-89.09
364.99	152.57
365.201	-23.55
365.412	113.66
365.623	17.41
365.834	54.27
366.045	117.76
366.256	21.5
366.467	54.27
366.678	13.31
366.889	52.22
367.1	78.85
367.311	62.46
367.522	35.84
367.733	35.84
367.944	101.37
368.155	68.61
368.366	140.29
368.577	76.8
368.788	123.9
368.999	-60.42
369.209	-39.94
369.42	240.64
369.631	171.01
369.842	136.19
370.053	-39.94
370.264	125.95
370.474	-52.22
370.685	84.99
370.896	60.42
371.107	91.13
371.317	60.42
371.528	19.46
371.739	105.47
371.95	115.71
372.16	7.17
372.371	-37.89
372.582	13.31
372.792	78.85
373.003	3.07
373.214	56.32
373.424	19.46
373.635	-80.89
373.846	113.66
374.056	1.02
374.267	68.61
374.477	72.7
374.688	-48.13
374.898	-44.03
375.109	39.94
375.319	21.5
375.53	68.61
375.74	72.7
375.951	27.65
376.161	82.94
376.372	111.61
376.582	35.84
376.793	48.13
377.003	29.7
377.214	31.74
377.424	1.02
377.635	13.31
377.845	17.41
378.055	201.72
378.266	-35.84
378.476	-13.31
378.686	68.61
378.897	54.27
379.107	5.12
379.317	97.28
379.528	5.12
379.738	3.07
379.948	-27.65
380.158	128
380.369	66.56
380.579	91.13
380.789	21.5
380.999	111.61
381.21	97.28
381.42	95.23
381.63	-29.7
381.84	115.71
382.05	66.56
382.261	109.57
382.471	54.27
382.681	5.12
382.891	164.86
383.101	52.22
383.311	19.46
383.521	46.08
383.731	111.61
383.941	138.24
384.151	-39.94
384.361	5.12
384.571	50.18
384.781	13.31
384.991	144.38
385.201	199.68
385.411	128
385.621	72.7
385.831	-44.03
386.041	50.18
386.251	21.5
386.461	84.99
386.671	44.03
386.881	29.7
387.091	19.46
387.301	136.19
387.511	29.7
387.72	113.66
387.93	160.77
388.14	5.12
388.35	56.32
388.56	119.81
388.769	27.65
388.979	35.84
389.189	-58.37
389.399	5.12
389.609	25.6
389.818	54.27
390.028	37.89
390.238	13.31
390.447	29.7
390.657	44.03
390.867	-19.46
391.076	-21.5
391.286	66.56
391.496	13.31
391.705	101.37
391.915	52.22
392.125	119.81
392.334	15.36
392.544	80.89
392.753	-19.46
392.963	-7.17
393.172	62.46
393.382	-78.85
393.591	107.52
393.801	19.46
394.01	89.09
394.22	41.98
394.429	-19.46
394.639	37.89
394.848	41.98
395.058	-25.6
395.267	9.22
395.477	144.38
395.686	66.56
395.895	142.33
396.105	160.77
396.314	68.61
396.524	19.46
396.733	-27.65
396.942	166.91
397.152	95.23
397.361	60.42
397.57	52.22
397.78	70.65
397.989	107.52
398.198	187.39
398.407	74.75
398.617	-5.12
398.826	95.23
399.035	117.76
399.244	89.09
399.453	64.51
399.663	76.8
399.872	89.09
400.081	-29.7
400.29	117.76
400.499	46.08
400.708	37.89
400.917	1.02
401.127	25.6
401.336	52.22
401.545	64.51
401.754	33.79
401.963	95.23
402.172	5.12
402.381	-27.65
402.59	13.31
402.799	35.84
403.008	29.7
403.217	82.94
403.426	21.5
403.635	-27.65
403.844	27.65
404.053	-19.46
404.262	-35.84
404.471	95.23
404.68	13.31
404.888	41.98
405.097	48.13
405.306	58.37
405.515	107.52
405.724	23.55
405.933	80.89
406.142	103.42
406.35	84.99
406.559	21.5
406.768	-9.22
406.977	33.79
407.185	17.41
407.394	128
407.603	-3.07
407.812	87.04
408.02	123.9
408.229	54.27
408.438	37.89
408.646	-7.17
408.855	41.98
409.064	-17.41
409.272	52.22
409.481	70.65
409.69	5.12
409.898	-19.46
410.107	68.61
410.315	117.76
410.524	62.46
410.733	-5.12
410.941	-11.26
411.15	66.56
411.358	173.05
411.567	60.42
411.775	21.5
411.984	33.79
412.192	109.57
412.401	-78.85
412.609	160.77
412.818	142.33
413.026	70.65
413.234	62.46
413.443	21.5
413.651	-19.46
413.86	58.37
414.068	111.61
414.276	201.72
414.485	-11.26
414.693	74.75
414.901	171.01
415.11	-17.41
415.318	-23.55
415.526	62.46
415.734	70.65
415.943	37.89
416.151	91.13
416.359	21.5
416.567	15.36
416.776	95.23
416.984	87.04
417.192	93.18
417.4	31.74
417.608	-27.65
417.817	-27.65
418.025	134.14
418.233	173.05
418.441	9.22
418.649	-9.22
418.857	80.89
419.065	201.72
419.273	-60.42
419.481	52.22
419.689	103.42
419.897	-52.22
420.105	7.17
420.313	-1.02
420.521	132.09
420.729	123.9
420.937	-46.08
421.145	37.89
421.353	52.22
421.561	70.65
421.769	39.94
421.977	5.12
422.185	123.9
422.393	-27.65
422.601	117.76
422.809	62.46
423.017	-3.07
423.224	-23.55
423.432	91.13
423.64	21.5
423.848	91.13
424.056	-13.31
424.263	99.33
424.471	-56.32
424.679	158.72
424.887	-48.13
425.094	132.09
425.302	136.19
425.51	103.42
425.718	31.74
425.925	68.61
426.133	-52.22
426.341	128
426.548	5.12
426.756	95.23
426.964	87.04
427.171	21.5
427.379	60.42
427.586	119.81
427.794	78.85
428.001	128
428.209	44.03
428.417	156.67
428.624	111.61
428.832	99.33
429.039	62.46
429.247	87.04
429.454	84.99
429.662	183.29
429.869	177.15
430.076	76.8
430.284	80.89
430.491	218.11
430.699	91.13
430.906	201.72
431.114	107.52
431.321	101.37
431.528	39.94
431.736	121.85
431.943	179.2
432.15	121.85
432.358	121.85
432.565	248.83
432.772	-15.36
432.979	189.44
433.187	52.22
433.394	142.33
433.601	132.09
433.808	218.11
434.016	158.72
434.223	203.77
434.43	224.25
434.637	119.81
434.844	257.02
435.052	144.38
435.259	226.3
435.466	357.37
435.673	183.29
435.88	181.25
436.087	291.84
436.294	250.88
436.501	244.73
436.708	187.39
436.915	300.03
437.122	275.45
437.329	267.26
437.537	265.21
437.743	353.27
437.95	422.91
438.157	289.79
438.364	316.41
438.571	375.8
438.778	396.28
438.985	437.24
439.192	400.38
439.399	365.56
439.606	422.91
439.813	482.3
440.02	494.58
440.227	488.44
440.433	484.34
440.64	519.16
440.847	515.06
441.054	601.08
441.261	644.09
441.467	525.3
441.674	427
441.881	703.48
442.088	562.17
442.294	699.38
442.501	685.05
442.708	740.34
442.914	648.18
443.121	781.3
443.328	791.54
443.534	814.07
443.741	795.64
443.948	744.44
444.154	893.94
444.361	938.99
444.568	953.33
444.774	1002.48
444.981	844.79
445.187	1145.84
445.394	1059.82
445.6	1076.21
445.807	1149.93
446.013	1147.89
446.22	1158.13
446.426	1338.35
446.633	1289.2
446.839	1477.61
447.046	1231.85
447.252	1522.66
447.459	1522.66
447.665	1518.57
447.871	1717.22
448.078	1838.05
448.284	1715.17
448.491	1913.83
448.697	1860.58
448.903	1924.07
449.11	1993.7
449.316	2012.13
449.522	2163.68
449.728	2251.74
449.935	2374.62
450.141	2366.43
450.347	2536.41
450.553	2466.78
450.76	2534.36
450.966	2722.77
451.172	2788.31
451.378	2898.9
451.584	2925.52
451.791	3175.38
451.997	3101.65
452.203	3236.81
452.409	3648.46
452.615	3652.55
452.821	3494.86
453.027	3511.24
453.233	4099.01
453.44	4019.14
453.646	4015.04
453.852	4256.7
454.058	4461.5
454.264	4565.95
454.47	5006.26
454.676	5002.16
454.882	5428.14
455.088	5163.95
455.294	5444.52
455.5	5948.33
455.705	6165.41
455.911	6071.2
456.117	6310.82
456.323	6515.61
456.529	6460.32
456.735	7009.17
456.941	7271.31
457.147	7666.57
457.352	7621.52
457.558	7795.59
457.764	8475.52
457.97	8657.79
458.176	9085.81
458.381	9716.59
458.587	9536.37
458.793	10034.02
458.999	9974.63
459.204	11307.86
459.41	11848.52
459.616	11395.92
459.821	12333.89
460.027	12989.24
460.233	13103.93
460.438	13620.02
460.644	14199.59
460.85	14361.38
461.055	14850.85
461.261	15659.79
461.466	15575.83
461.672	15835.92
461.878	17707.76
462.083	17408.76
462.289	17625.84
462.494	18580.2
462.7	18316.01
462.905	18934.5
463.111	20280.01
463.316	21265.08
463.522	21781.17
463.727	22360.75
463.932	23046.82
464.138	23710.36
464.343	24537.74
464.549	25041.54
464.754	26432.11
464.959	27284.06
465.165	27732.57
465.37	27847.26
465.575	27355.74
465.781	29547.07
465.986	30360.11
466.191	29835.83
466.397	30126.64
466.602	29475.39
466.807	31046.18
467.012	31492.64
467.218	32301.59
467.423	32162.33
467.628	33165.83
467.833	34710
468.038	34101.75
468.244	33737.21
468.449	35295.72
468.654	34793.97
468.859	34114.04
469.064	34413.04
469.269	33546.75
469.474	33780.22
469.679	35101.16
469.885	33661.44
470.09	34497.01
470.295	34519.54
470.5	33401.35
470.705	33851.9
470.91	32938.51
471.115	32739.85
471.32	32893.45
471.525	32676.37
471.73	31601.18
471.935	31416.86
472.139	30335.54
472.344	30247.47
472.549	30343.73
472.754	29903.42
472.959	29303.36
473.164	27968.09
473.369	27638.36
473.574	28328.53
473.778	27703.9
473.983	27132.51
474.188	26831.46
474.393	25508.47
474.598	25713.27
474.802	24894.08
475.007	24656.52
475.212	24353.42
475.417	23505.56
475.621	23022.24
475.826	22858.4
476.031	22287.02
476.235	21990.06
476.44	21955.25
476.645	21258.94
476.849	21050.05
477.054	21037.76
477.259	19987.15
477.463	20310.73
477.668	19569.37
477.872	19649.24
478.077	19309.27
478.282	18834.14
478.486	18559.72
478.691	18193.13
478.895	17988.33
479.1	18098.92
479.304	18008.81
479.509	17468.15
479.713	17599.22
479.918	17101.56
480.122	16816.9
480.326	16947.97
480.531	16771.84
480.735	16573.19
480.94	16255.75
481.144	17011.45
481.348	16253.7
481.553	16151.31
481.757	15690.51
481.961	15805.2
482.166	15708.94
482.37	15868.69
482.574	15112.99
482.778	15332.12
482.983	15528.72
483.187	15266.58
483.391	14916.38
483.595	14957.34
483.8	14652.19
484.004	14994.2
484.208	14754.59
484.412	14762.78
484.616	14437.16
484.821	14281.51
485.025	13583.15
485.229	13833
485.433	13636.4
485.637	13607.73
485.841	13079.35
486.045	12968.76
486.249	12919.61
486.453	12784.44
486.657	12616.51
486.861	12413.76
487.065	11932.49
487.269	11948.87
487.473	11692.88
487.677	11821.9
487.881	11559.76
488.085	11141.97
488.289	11008.86
488.493	11043.67
488.697	10761.05
488.901	10662.75
489.105	10156.9
489.309	10255.2
489.512	9995.11
489.716	9876.33
489.92	9814.89
490.124	9390.96
490.328	9431.92
490.531	9038.71
490.735	8905.59
490.939	8926.07
491.143	8678.27
491.346	8440.7
491.55	8332.16
491.754	8295.3
491.958	7955.33
492.161	8072.07
492.365	7852.94
492.569	7496.59
492.772	7422.86
492.976	7525.26
493.18	7426.96
493.383	7381.9
493.587	7191.44
493.79	7080.85
493.994	6955.93
494.197	6931.35
494.401	6888.34
494.605	6697.88
494.808	6951.83
495.012	6706.07
495.215	6638.49
495.419	6808.47
495.622	6353.82
495.825	6460.32
496.029	6325.15
496.232	6593.44
496.436	6325.15
496.639	6517.66
496.843	6230.94
497.046	6366.11
497.249	6366.11
497.453	6319.01
497.656	6319.01
497.859	6278.05
498.063	6425.5
498.266	6417.31
498.469	6374.3
498.673	6224.8
498.876	6407.07
499.079	6296.48
499.282	6364.06
499.485	6636.44
499.689	6374.3
499.892	6577.05
500.095	6585.24
500.298	6661.02
500.501	6402.97
500.705	6615.96
500.908	6880.15
501.111	6669.21
501.314	6824.86
501.517	6988.69
501.72	6914.97
501.923	6998.93
502.126	7003.03
502.329	7195.54
502.532	7336.85
502.735	7252.88
502.938	7222.16
503.141	7609.23
503.344	7449.49
503.547	7623.56
503.75	7863.18
503.953	7652.24
504.156	8000.39
504.359	8029.06
504.562	8151.94
504.765	8315.78
504.968	8428.42
505.17	8493.95
505.373	8620.92
505.576	8594.3
505.779	8983.41
505.982	8852.34
506.185	9196.4
506.387	9057.14
506.59	9395.06
506.793	9610.09
506.996	9644.91
507.198	10138.47
507.401	10070.89
507.604	10378.08
507.807	10546.02
508.009	10677.09
508.212	10885.98
508.415	11066.2
508.617	11250.52
508.82	11457.36
509.022	11758.41
509.225	12137.29
509.428	12272.45
509.63	12538.69
509.833	12630.85
510.035	13282.1
510.238	13230.9
510.44	13722.41
510.643	13947.69
510.845	14250.79
511.048	14338.85
511.25	14848.8
511.453	15479.57
511.655	15876.88
511.858	16057.1
512.06	16089.87
512.262	16775.94
512.465	16978.68
512.667	17414.9
512.87	17818.35
513.072	18186.99
513.274	18721.51
513.477	19122.91
513.679	19413.72
513.881	19960.53
514.084	20241.1
514.286	20527.81
514.488	21226.17
514.69	21951.15
514.893	22262.44
515.095	22760.1
515.297	23429.79
515.499	23872.15
515.701	24267.41
515.904	24609.42
516.106	25455.23
516.308	26020.47
516.51	26280.56
516.712	26544.75
516.914	27634.27
517.116	28228.18
517.318	28461.65
517.52	29174.34
517.722	29514.3
517.925	30394.93
518.127	30884.39
518.329	31449.63
518.531	31812.12
518.733	32596.49
518.935	33073.67
519.136	33493.5
519.338	34044.41
519.54	34540.02
519.742	35477.99
519.944	35557.86
520.146	36643.28
520.348	36604.37
520.55	37396.93
520.752	37505.48
520.954	38627.76
521.155	38533.56
521.357	39305.64
521.559	39895.46
521.761	40538.52
521.963	40714.64
522.164	40870.29
522.366	41146.76
522.568	41961.86
522.77	42297.72
522.971	43166.06
523.173	42609.01
523.375	43497.83
523.576	43530.6
523.778	43465.06
523.98	44263.77
524.181	44427.61
524.383	44699.99
524.584	45199.69
524.786	45066.58
524.988	44433.75
525.189	45105.49
525.391	45250.89
525.592	45359.44
525.794	45644.1
525.995	45394.25
526.197	45341
526.398	45402.44
526.6	45390.16
526.801	45201.74
527.003	45562.18
527.204	44853.59
527.406	45203.79
527.607	44863.83
527.808	44620.12
528.01	43841.89
528.211	44351.84
528.412	44425.56
528.614	43958.63
528.815	43587.94
529.016	43575.66
529.218	42887.54
529.419	42584.44
529.62	42383.74
529.822	41998.72
530.023	41988.48
530.224	41384.33
530.425	40880.53
530.626	40419.74
530.828	39754.15
531.029	40497.56
531.23	39223.72
531.431	38863.28
531.632	38896.05
531.833	38261.18
532.035	37779.9
532.236	37546.44
532.437	37274.06
532.638	36446.68
532.839	36239.83
533.04	35973.6
533.241	35183.08
533.442	35506.66
533.643	34662.9
533.844	34091.51
534.045	33511.94
534.246	33233.41
534.447	32606.73
534.648	32522.77
534.849	31828.51
535.05	31341.09
535.251	31046.18
535.451	30808.62
535.652	30544.43
535.853	30036.53
536.054	29280.83
536.255	29250.11
536.456	28383.82
536.657	28445.26
536.857	27660.89
537.058	27443.81
537.259	27435.61
537.46	26962.53
537.66	26706.54
537.861	26266.22
538.062	25825.91
538.263	25707.13
538.463	25066.11
538.664	25010.82
538.865	24578.7
539.065	24486.54
539.266	24070.8
539.466	23792.28
539.667	23599.77
539.868	23579.29
540.068	23102.11
540.269	22835.88
540.469	22713
540.67	22520.49
540.87	21936.82
541.071	21858.99
541.271	21756.6
541.472	21297.85
541.672	21195.45
541.873	20812.48
542.073	20202.19
542.274	20312.78
542.474	20226.76
542.675	19817.17
542.875	19868.37
543.075	19190.49
543.276	18846.43
543.476	19174.11
543.676	18887.39
543.877	18643.68
544.077	18240.23
544.277	18098.92
544.478	18080.49
544.678	17879.79
544.878	17859.31
545.078	17363.7
545.279	17163
545.479	16849.66
545.679	16749.31
545.879	16491.27
546.079	16280.33
546.28	16012.04
546.48	15745.81
546.68	16010
546.88	15713.04
547.08	15624.98
547.28	15434.52
547.48	14908.19
547.68	15029.02
547.88	14502.69
548.081	14750.49
548.281	14295.85
548.481	13929.26
548.681	14207.78
548.881	13515.57
549.081	13667.12
549.28	13318.96
549.48	13316.92
549.68	13226.81
549.88	13044.54
550.08	12749.63
550.28	12493.63
550.48	12491.59
550.68	12505.92
550.88	12016.46
551.08	11803.47
551.279	11897.67
551.479	11373.39
551.679	11621.2
551.879	11176.79
552.079	11248.47
552.278	10900.31
552.478	10810.2
552.678	10537.82
552.878	10595.17
553.077	10330.98
553.277	10130.28
553.477	10167.14
553.676	9849.71
553.876	9712.49
554.076	9679.72
554.275	9196.4
554.475	9161.59
554.674	9180.02
554.874	8995.7
555.074	8885.11
555.273	8698.75
555.473	8696.7
555.672	8524.67
555.872	8219.52
556.071	8123.27
556.271	8088.45
556.47	7848.84
556.67	7719.82
556.869	7429.01
557.068	7476.11
557.268	7328.66
557.467	7162.77
557.667	7168.91
557.866	7089.04
558.065	6933.4
558.265	6736.79
558.464	6607.77
558.663	6599.58
558.863	6366.11
559.062	6497.18
559.261	6319.01
559.461	6237.09
559.66	5979.04
559.859	5733.29
560.058	5688.23
560.258	5680.04
560.457	5573.55
560.656	5764.01
560.855	5424.05
561.054	5647.27
561.253	5266.35
561.453	5231.54
561.652	5092.27
561.851	5061.55
562.05	4975.54
562.249	4723.64
562.448	4776.89
562.647	4813.75
562.846	4748.22
563.045	4699.06
563.244	4498.36
563.443	4475.84
563.642	4215.74
563.841	4383.68
564.04	4248.51
564.239	4295.61
564.438	4176.83
564.637	3969.99
564.836	3853.25
565.035	3795.91
565.234	3867.59
565.432	3797.96
565.631	3812.29
565.83	3804.1
566.029	3584.97
566.228	3638.22
566.427	3666.89
566.625	3392.46
566.824	3423.18
567.023	3402.7
567.222	3283.92
567.42	3263.44
567.619	3140.56
567.818	3265.49
568.016	3347.4
568.215	3232.72
568.414	3095.5
568.612	3107.79
568.811	2993.11
569.01	2905.04
569.208	2804.69
569.407	2839.51
569.605	2714.58
569.804	2741.21
570.002	2679.77
570.201	2614.23
570.4	2632.66
570.598	2470.87
570.797	2524.12
570.995	2372.57
571.193	2487.26
571.392	2509.79
571.59	2388.96
571.789	2378.72
571.987	2395.1
572.186	2380.76
572.384	2315.23
572.582	2167.77
572.781	2237.41
572.979	2180.06
573.177	2108.38
573.376	2075.62
573.574	2102.24
573.772	1983.46
573.971	1883.11
574.169	1965.03
574.367	1938.4
574.565	1889.25
574.763	1854.44
574.962	1850.34
575.16	1696.74
575.358	1725.41
575.556	1776.61
575.754	1586.15
575.952	1680.36
576.151	1635.3
576.349	1598.44
576.547	1577.96
576.745	1616.87
576.943	1526.76
577.141	1514.47
577.339	1405.93
577.537	1510.38
577.735	1475.56
577.933	1422.31
578.131	1364.97
578.329	1465.32
578.527	1317.87
578.725	1405.93
578.923	1219.57
579.121	1412.07
579.319	1176.56
579.516	1137.65
579.714	1412.07
579.912	1174.51
580.11	1119.21
580.308	1244.14
580.506	1098.74
580.704	928.75
580.901	1059.82
581.099	1082.35
581.297	1080.3
581.495	1061.87
581.692	1035.25
581.89	1090.54
582.088	1125.36
582.285	1051.63
582.483	1035.25
582.681	934.9
582.878	986.1
583.076	1022.96
583.274	959.47
583.471	1018.86
583.669	902.13
583.866	883.7
584.064	840.69
584.262	824.31
584.459	783.35
584.657	875.51
584.854	865.27
585.052	859.12
585.249	830.45
585.447	857.07
585.644	699.38
585.841	809.97
586.039	816.12
586.236	816.12
586.434	726
586.631	672.76
586.828	715.77
587.026	703.48
587.223	644.09
587.42	603.13
587.618	726
587.815	779.25
588.012	721.91
588.21	625.65
588.407	705.53
588.604	680.95
588.801	637.94
588.999	680.95
589.196	689.14
589.393	633.85
589.59	664.57
589.787	592.89
589.984	746.48
590.182	611.32
590.379	545.78
590.576	609.27
590.773	603.13
590.97	533.5
591.167	639.99
591.364	615.41
591.561	549.88
591.758	672.76
591.955	601.08
592.152	592.89
592.349	556.02
592.546	578.55
592.743	484.34
592.94	613.37
593.137	576.5
593.334	560.12
593.531	711.67
593.727	611.32
593.924	570.36
594.121	506.87
594.318	513.02
594.515	601.08
594.712	650.23
594.908	693.24
595.105	644.09
595.302	715.77
595.499	742.39
595.696	752.63
595.892	619.51
596.089	793.59
596.286	637.94
596.482	732.15
596.679	762.87
596.876	705.53
597.072	775.16
597.269	734.2
597.466	840.69
597.662	769.01
597.859	822.26
598.055	828.4
598.252	873.46
598.448	984.05
598.645	996.34
598.841	1049.58
599.038	1074.16
599.234	1190.89
599.431	1190.89
599.627	1217.52
599.824	1100.78
600.02	1205.23
600.217	1281
600.413	1326.06
600.609	1336.3
600.806	1598.44
601.002	1549.29
601.198	1403.88
601.395	1676.26
601.591	1678.31
601.787	1803.24
601.984	1772.52
602.18	1838.05
602.376	1969.12
602.572	2042.85
602.769	2110.43
602.965	2141.15
603.161	2208.73
603.357	2395.1
603.553	2458.59
603.75	2448.35
603.946	2538.46
604.142	2534.36
604.338	2673.62
604.534	2778.07
604.73	2776.02
604.926	2974.67
605.122	3324.88
605.318	3181.52
605.514	3273.68
605.71	3369.93
605.906	3603.4
606.102	3568.59
606.298	3797.96
606.494	3871.68
606.69	4103.11
606.886	3974.08
607.082	4121.54
607.278	4162.5
607.474	4244.42
607.67	4457.4
607.866	4539.32
608.062	4848.57
608.257	4948.92
608.453	4862.9
608.649	5184.43
608.845	5321.65
609.041	5264.3
609.236	5567.4
609.432	5788.58
609.628	5878.69
609.824	6077.35
610.019	6222.75
610.215	6345.63
610.411	6597.53
610.606	6726.55
610.802	6730.65
610.998	6984.6
611.193	7256.98
611.389	7388.05
611.584	7590.8
611.78	7877.51
611.976	8078.21
612.171	8340.35
612.367	8381.31
612.562	8661.88
612.758	8727.42
612.953	8989.56
613.149	9118.58
613.344	9335.67
613.539	9866.09
613.735	10074.98
613.93	10199.91
614.126	10593.12
614.321	10867.55
614.517	11264.85
614.712	11412.31
614.907	11631.44
615.103	12043.08
615.298	12256.07
615.493	12714.81
615.688	12657.47
615.884	13359.92
616.079	13452.08
616.274	13949.74
616.47	13978.41
616.665	14740.26
616.86	15061.79
617.055	15444.76
617.25	15653.65
617.445	16063.24
617.641	16145.16
617.836	16943.87
618.031	16839.42
618.226	17697.52
618.421	17810.16
618.616	18410.22
618.811	18586.34
619.006	19483.35
619.201	19403.48
619.396	19999.44
619.591	20335.31
619.786	21119.68
619.981	21002.94
620.176	21629.62
620.371	22096.56
620.566	22807.2
620.761	23014.05
620.956	23812.76
621.151	23704.21
621.346	24572.55
621.541	24771.21
621.735	25649.78
621.93	25533.05
622.125	26237.55
622.32	26686.06
622.515	27439.71
622.709	27556.44
622.904	28256.85
623.099	28811.85
623.294	29213.25
623.488	29260.35
623.683	30300.72
623.878	30151.22
624.072	31369.76
624.267	31648.29
624.462	32168.47
624.656	32143.89
624.851	33061.38
625.046	33276.42
625.24	34034.17
625.435	34171.38
625.629	34830.83
625.824	35232.23
626.018	35641.82
626.213	35389.92
626.407	36438.48
626.602	36651.47
626.796	37073.35
626.991	37349.83
627.185	37411.27
627.38	37882.3
627.574	38130.11
627.768	37804.48
627.963	38070.72
628.157	38261.18
628.352	38898.09
628.546	38248.89
628.74	38521.27
628.935	38177.21
629.129	38676.91
629.323	37716.42
629.517	37853.63
629.712	37663.17
629.906	37173.7
630.1	37024.2
630.294	36762.06
630.489	36196.82
630.683	35764.7
630.877	35205.61
631.071	34574.83
631.265	34574.83
631.459	33233.41
631.653	32776.72
631.848	32080.41
632.042	31091.24
632.236	30526
632.43	29356.61
632.624	28981.83
632.818	27675.23
633.012	26892.9
633.206	26370.67
633.4	25393.79
633.594	24361.61
633.788	23528.09
633.982	22891.17
634.176	21865.14
634.369	21238.46
634.563	20171.47
634.757	19317.47
634.951	18797.28
635.145	18139.88
635.339	17365.75
635.533	16704.26
635.726	16079.63
635.92	15231.77
636.114	14650.14
636.308	13925.16
636.501	13593.39
636.695	13062.97
636.889	12297.03
637.083	11979.59
637.276	11391.83
637.47	10955.61
637.664	10492.77
637.857	10193.76
638.051	9536.37
638.244	9278.32
638.438	8872.82
638.632	8762.23
638.825	8117.12
639.019	7895.94
639.212	7476.11
639.406	7377.81
639.599	6962.07
639.793	6761.37
639.986	6323.1
640.18	6206.37
640.373	5938.09
640.567	5884.84
640.76	5583.79
640.954	5288.88
641.147	4971.44
641.34	4922.29
641.534	4506.56
641.727	4506.56
641.92	4371.39
642.114	4248.51
642.307	3943.36
642.5	4096.96
642.694	3533.77
642.887	3564.49
643.08	3593.16
643.273	3345.36
643.467	3109.84
643.66	3150.8
643.853	2919.38
644.046	2864.08
644.239	2730.97
644.432	2569.18
644.626	2485.21
644.819	2427.87
645.012	2321.37
645.205	2274.27
645.398	2106.34
645.591	2089.95
645.784	1938.4
645.977	1895.4
646.17	1872.87
646.363	1758.18
646.556	1629.16
646.749	1592.3
646.942	1549.29
647.135	1537
647.328	1510.38
647.521	1401.83
647.714	1315.82
647.907	1321.96
648.099	1264.62
648.292	1256.43
648.485	1328.11
648.678	1131.5
648.871	1061.87
649.064	975.86
649.256	1004.53
649.449	857.07
649.642	893.94
649.835	842.74
650.027	914.42
650.22	951.28
650.413	836.6
650.605	873.46
650.798	723.96
650.991	721.91
651.183	795.64
651.376	691.19
651.568	701.43
651.761	576.5
651.954	642.04
652.146	590.84
652.339	689.14
652.531	639.99
652.724	488.44
652.916	590.84
653.109	351.23
653.301	592.89
653.494	580.6
653.686	525.3
653.879	570.36
654.071	543.74
654.263	427
654.456	439.29
654.648	582.65
654.84	322.56
655.033	316.41
655.225	467.96
655.417	261.12
655.61	416.76
655.802	420.86
655.994	375.8
656.186	257.02
656.379	424.95
656.571	269.31
656.763	314.36
656.955	345.08
657.148	214.01
657.34	259.07
657.532	252.92
657.724	289.79
657.916	322.56
658.108	332.79
658.3	279.55
658.492	263.16
658.684	242.68
658.876	275.45
659.068	199.68
659.26	207.87
659.452	263.16
659.644	254.97
659.836	287.74
660.028	218.11
660.22	175.1
660.412	158.72
660.604	242.68
660.796	156.67
660.988	285.69
661.18	187.39
661.372	287.74
661.563	242.68
661.755	228.35
661.947	158.72
662.139	160.77
662.331	222.2
662.522	203.77
662.714	134.14
662.906	222.2
663.097	211.96
663.289	150.53
663.481	54.27
663.673	150.53
663.864	150.53
664.056	246.78
664.247	103.42
664.439	285.69
664.631	224.25
664.822	250.88
665.014	156.67
665.205	207.87
665.397	119.81
665.588	193.53
665.78	146.43
665.971	168.96
666.163	70.65
666.354	248.83
666.546	136.19
666.737	173.05
666.929	189.44
667.12	132.09
667.311	209.92
667.503	177.15
667.694	166.91
667.885	199.68
668.077	177.15
668.268	25.6
668.459	144.38
668.651	211.96
668.842	183.29
669.033	78.85
669.224	84.99
669.416	312.32
669.607	44.03
669.798	197.63
669.989	273.4
670.18	130.05
670.371	289.79
670.563	48.13
670.754	263.16
670.945	242.68
671.136	220.16
671.327	111.61
671.518	230.4
671.709	300.03
671.9	267.26
672.091	252.92
672.282	201.72
672.473	250.88
672.664	74.75
672.855	179.2
673.046	193.53
673.237	259.07
673.428	201.72
673.619	257.02
673.809	134.14
674	226.3
674.191	189.44
674.382	173.05
674.573	113.66
674.764	117.76
674.954	216.06
675.145	152.57
675.336	193.53
675.527	203.77
675.717	228.35
675.908	232.44
676.099	191.49
676.289	222.2
676.48	160.77
676.671	277.5
676.861	209.92
677.052	297.98
677.243	238.59
677.433	209.92
677.624	322.56
677.814	236.54
678.005	246.78
678.195	318.46
678.386	195.58
678.576	312.32
678.767	171.01
678.957	320.51
679.148	306.17
679.338	367.61
679.529	295.93
679.719	254.97
679.909	332.79
680.1	275.45
680.29	314.36
680.481	297.98
680.671	412.67
680.861	287.74
681.052	379.9
681.242	338.94
681.432	379.9
681.622	297.98
681.813	267.26
682.003	328.7
682.193	287.74
682.383	336.89
682.573	218.11
682.764	214.01
682.954	312.32
683.144	394.23
683.334	351.23
683.524	338.94
683.714	283.64
683.904	439.29
684.094	281.6
684.284	355.32
684.474	388.09
684.664	392.19
684.854	476.15
685.044	310.27
685.234	429.05
685.424	441.34
685.614	343.03
685.804	504.82
685.994	463.86
686.184	392.19
686.374	353.27
686.564	392.19
686.753	365.56
686.943	271.36
687.133	373.75
687.323	330.75
687.513	447.48
687.702	433.15
687.892	283.64
688.082	408.57
688.272	422.91
688.461	336.89
688.651	508.92
688.841	424.95
689.03	306.17
689.22	330.75
689.41	461.82
689.599	320.51
689.789	308.22
689.979	418.81
690.168	359.42
690.358	455.67
690.547	314.36
690.737	408.57
690.926	383.99
691.116	322.56
691.305	422.91
691.495	361.47
691.684	345.08
691.874	332.79
692.063	273.4
692.252	388.09
692.442	517.11
692.631	306.17
692.82	349.18
693.01	453.63
693.199	357.37
693.388	386.04
693.578	349.18
693.767	386.04
693.956	398.33
694.146	332.79
694.335	386.04
694.524	330.75
694.713	404.47
694.902	275.45
695.092	361.47
695.281	377.85
695.47	316.41
695.659	250.88
695.848	324.6
696.037	254.97
696.226	453.63
696.415	363.51
696.604	398.33
696.793	359.42
696.982	359.42
697.171	472.06
697.36	328.7
697.549	357.37
697.738	300.03
697.927	244.73
698.116	316.41
698.305	392.19
698.494	326.65
698.683	381.95
698.872	431.1
699.061	306.17
699.25	316.41
699.438	431.1
699.627	230.4
699.816	437.24
700.005	289.79
700.193	308.22
700.382	377.85
700.571	371.71
700.76	345.08
700.948	343.03
701.137	390.14
701.326	433.15
701.514	234.49
701.703	357.37
701.892	422.91
702.08	461.82
702.269	314.36
702.457	308.22
702.646	390.14
702.834	254.97
703.023	373.75
703.212	320.51
703.4	320.51
703.589	283.64
703.777	267.26
703.965	433.15
704.154	226.3
704.342	248.83
704.531	293.88
704.719	340.99
704.907	349.18
705.096	226.3
705.284	254.97
705.472	355.32
705.661	330.75
705.849	357.37
706.037	304.12
706.226	242.68
706.414	302.08
706.602	216.06
706.79	306.17
706.979	234.49
707.167	357.37
707.355	224.25
707.543	336.89
707.731	302.08
707.919	330.75
708.107	297.98
708.296	271.36
708.484	218.11
708.672	447.48
708.86	320.51
709.048	340.99
709.236	336.89
709.424	365.56
709.612	363.51
709.8	257.02
709.988	386.04
710.176	345.08
710.364	351.23
710.551	390.14
710.739	332.79
710.927	312.32
711.115	377.85
711.303	347.13
711.491	365.56
711.679	308.22
711.866	412.67
712.054	314.36
712.242	373.75
712.43	355.32
712.617	316.41
712.805	365.56
712.993	367.61
713.181	207.87
713.368	439.29
713.556	324.6
713.744	304.12
713.931	437.24
714.119	398.33
714.306	320.51
714.494	277.5
714.682	277.5
714.869	175.1
715.057	445.43
715.244	297.98
715.432	295.93
715.619	340.99
715.807	283.64
715.994	398.33
716.182	324.6
716.369	447.48
716.556	482.3
716.744	353.27
716.931	185.34
717.119	306.17
717.306	398.33
717.493	392.19
717.681	340.99
717.868	295.93
718.055	340.99
718.242	330.75
718.43	355.32
718.617	404.47
718.804	336.89
718.991	363.51
719.179	343.03
719.366	365.56
719.553	291.84
719.74	363.51
719.927	347.13
720.114	304.12
720.301	283.64
720.488	318.46
720.676	308.22
720.863	433.15
721.05	451.58
721.237	420.86
721.424	400.38
721.611	398.33
721.798	304.12
721.985	394.23
722.172	340.99
722.358	349.18
722.545	420.86
722.732	388.09
722.919	429.05
723.106	390.14
723.293	379.9
723.48	412.67
723.667	359.42
723.853	486.39
724.04	381.95
724.227	451.58
724.414	328.7
724.6	482.3
724.787	533.5
724.974	435.19
725.161	412.67
725.347	330.75
725.534	377.85
725.72	472.06
725.907	363.51
726.094	406.52
726.28	300.03
726.467	371.71
726.653	379.9
726.84	527.35
727.027	535.54
727.213	437.24
727.4	513.02
727.586	392.19
727.773	414.71
727.959	467.96
728.145	459.77
728.332	420.86
728.518	347.13
728.705	437.24
728.891	439.29
729.077	412.67
729.264	347.13
729.45	414.71
729.636	480.25
729.823	519.16
730.009	455.67
730.195	445.43
730.382	476.15
730.568	332.79
730.754	478.2
730.94	363.51
731.126	410.62
731.313	396.28
731.499	431.1
731.685	422.91
731.871	504.82
732.057	422.91
732.243	500.73
732.429	472.06
732.615	502.78
732.801	404.47
732.987	474.1
733.173	484.34
733.359	437.24
733.545	455.67
733.731	435.19
733.917	502.78
734.103	533.5
734.289	420.86
734.475	369.66
734.661	562.17
734.847	455.67
735.033	398.33
735.219	467.96
735.404	508.92
735.59	418.81
735.776	445.43
735.962	459.77
736.148	498.68
736.333	480.25
736.519	422.91
736.705	439.29
736.89	427
737.076	476.15
737.262	476.15
737.447	427
737.633	377.85
737.819	517.11
738.004	467.96
738.19	437.24
738.375	445.43
738.561	523.26
738.747	447.48
738.932	324.6
739.118	556.02
739.303	490.49
739.489	455.67
739.674	390.14
739.859	496.63
740.045	422.91
740.23	556.02
740.416	355.32
740.601	472.06
740.786	420.86
740.972	519.16
741.157	404.47
741.342	388.09
741.528	365.56
741.713	472.06
741.898	480.25
742.084	410.62
742.269	472.06
742.454	515.06
742.639	439.29
742.824	465.91
743.01	488.44
743.195	556.02
743.38	488.44
743.565	513.02
743.75	412.67
743.935	488.44
744.12	543.74
744.305	316.41
744.49	427
744.675	396.28
744.86	324.6
745.045	443.39
745.23	510.97
745.415	373.75
745.6	513.02
745.785	414.71
745.97	447.48
746.155	410.62
746.34	353.27
746.525	521.21
746.71	431.1
746.895	353.27
747.079	340.99
747.264	261.12
747.449	480.25
747.634	439.29
747.819	488.44
748.003	390.14
748.188	332.79
748.373	412.67
748.557	427
748.742	347.13
748.927	447.48
749.111	345.08
749.296	359.42
749.481	408.57
749.665	332.79
749.85	416.76
750.034	355.32
750.219	406.52
750.404	259.07
750.588	353.27
750.773	304.12
750.957	433.15
751.141	345.08
751.326	422.91
751.51	246.78
751.695	363.51
751.879	273.4
752.064	408.57
752.248	242.68
752.432	416.76
752.617	461.82
752.801	347.13
752.985	367.61
753.17	314.36
753.354	328.7
753.538	334.84
753.722	257.02
753.907	281.6
754.091	279.55
754.275	390.14
754.459	320.51
754.643	232.44
754.828	283.64
755.012	347.13
755.196	324.6
755.38	289.79
755.564	297.98
755.748	306.17
755.932	306.17
756.116	259.07
756.3	328.7
756.484	259.07
756.668	259.07
756.852	148.48
757.036	271.36
757.22	306.17
757.404	269.31
757.588	230.4
757.772	291.84
757.956	218.11
758.14	330.75
758.323	228.35
758.507	306.17
758.691	177.15
758.875	275.45
759.059	252.92
759.242	277.5
759.426	232.44
759.61	242.68
759.794	134.14
759.977	291.84
760.161	390.14
760.345	316.41
760.528	234.49
760.712	261.12
760.895	273.4
761.079	179.2
761.263	166.91
761.446	246.78
761.63	214.01
761.813	267.26
761.997	128
762.18	218.11
762.364	351.23
762.547	111.61
762.731	168.96
762.914	273.4
763.098	238.59
763.281	238.59
763.464	146.43
763.648	189.44
763.831	175.1
764.015	191.49
764.198	300.03
764.381	279.55
764.564	173.05
764.748	316.41
764.931	230.4
765.114	189.44
765.297	121.85
765.481	152.57
765.664	189.44
765.847	148.48
766.03	197.63
766.213	99.33
766.397	173.05
766.58	84.99
766.763	226.3
766.946	148.48
767.129	187.39
767.312	152.57
767.495	211.96
767.678	189.44
767.861	265.21
768.044	166.91
768.227	107.52
768.41	175.1
768.593	246.78
768.776	201.72
768.959	136.19
769.142	250.88
769.324	144.38
769.507	89.09
769.69	173.05
769.873	150.53
770.056	281.6
770.239	183.29
770.421	168.96
770.604	271.36
770.787	150.53
770.97	179.2
771.152	70.65
771.335	189.44
771.518	35.84
771.7	234.49
771.883	257.02
772.066	91.13
772.248	152.57
772.431	216.06
772.613	150.53
772.796	207.87
772.978	148.48
773.161	267.26
773.343	117.76
773.526	91.13
773.708	48.13
773.891	23.55
774.073	95.23
774.256	140.29
774.438	168.96
774.621	101.37
774.803	148.48
774.985	138.24
775.168	148.48
775.35	105.47
775.532	166.91
775.715	70.65
775.897	154.62
776.079	132.09
776.261	132.09
776.444	156.67
776.626	78.85
776.808	93.18
776.99	91.13
777.173	146.43
777.355	101.37
777.537	82.94
777.719	107.52
777.901	35.84
778.083	66.56
778.265	78.85
778.447	130.05
778.629	44.03
778.811	60.42
778.993	136.19
779.175	156.67
779.357	115.71
779.539	29.7
779.721	87.04
779.903	101.37
780.085	44.03
780.267	99.33
780.449	142.33
780.631	140.29
780.812	87.04
780.994	140.29
781.176	78.85
781.358	44.03
781.54	54.27
781.721	146.43
781.903	187.39
782.085	87.04
782.267	164.86
782.448	-13.31
782.63	58.37
782.812	113.66
782.993	111.61
783.175	76.8
783.357	70.65
783.538	113.66
783.72	-1.02
783.901	97.28
784.083	132.09
784.264	119.81
784.446	74.75
784.627	-21.5
784.809	148.48
784.99	80.89
785.172	70.65
785.353	82.94
785.535	84.99
785.716	-7.17
785.897	-13.31
786.079	13.31
786.26	78.85
786.441	84.99
786.623	19.46
786.804	87.04
786.985	35.84
787.167	74.75
787.348	-11.26
787.529	58.37
787.71	107.52
787.891	140.29
788.073	50.18
788.254	-66.56
788.435	166.91
788.616	154.62
788.797	-3.07
788.978	-7.17
789.159	76.8
789.34	44.03
789.522	13.31
789.703	62.46
789.884	95.23
790.065	68.61
790.246	183.29
790.427	-23.55
790.607	93.18
790.788	134.14
790.969	13.31
791.15	134.14
791.331	58.37
791.512	29.7
791.693	-64.51
791.874	13.31
792.054	201.72
792.235	33.79
792.416	-33.79
792.597	-62.46
792.778	74.75
792.958	3.07
793.139	48.13
793.32	62.46
793.5	54.27
793.681	56.32
793.862	101.37
794.042	33.79
794.223	-19.46
794.404	7.17
794.584	-15.36
794.765	17.41
794.945	27.65
795.126	37.89
795.306	164.86
795.487	11.26
795.667	1.02
795.848	17.41
796.028	27.65
796.209	80.89
796.389	-15.36
796.57	25.6
796.75	-33.79
796.93	37.89
797.111	68.61
797.291	25.6
797.471	27.65
797.652	5.12
797.832	-44.03
798.012	19.46
798.192	1.02
798.373	50.18
798.553	-15.36
798.733	144.38
798.913	-5.12
799.093	37.89
799.274	144.38
799.454	66.56
799.634	37.89
799.814	50.18
799.994	70.65
800.174	25.6
800.354	29.7
800.534	-35.84
800.714	87.04
800.894	-76.8
801.074	60.42
801.254	-54.27
801.434	54.27
801.614	-35.84
801.794	-56.32
801.974	1381.35
802.154	21.5
802.334	84.99
802.514	-9.22
802.693	29.7
802.873	29.7
803.053	109.57
803.233	93.18
803.413	58.37
803.592	-39.94
803.772	-74.75
803.952	35.84
804.131	-5.12
804.311	91.13
804.491	119.81
804.67	-58.37
804.85	29.7
805.03	76.8
805.209	113.66
805.389	-50.18
805.568	13.31
805.748	-29.7
805.928	-11.26
806.107	5.12
806.287	150.53
806.466	54.27
806.646	23.55
806.825	-35.84
807.004	-15.36
807.184	68.61
807.363	9.22
807.543	13.31
807.722	-56.32
807.901	132.09
808.081	82.94
808.26	-62.46
808.439	52.22
808.619	91.13
808.798	-13.31
808.977	62.46
809.156	115.71
809.336	60.42
809.515	21.5
809.694	-23.55
809.873	9.22
810.052	46.08
810.231	201.72
810.411	82.94
810.59	84.99
810.769	54.27
810.948	160.77
811.127	-93.18
811.306	-13.31
811.485	-60.42
811.664	119.81
811.843	5.12
812.022	78.85
812.201	-35.84
812.38	-52.22
812.559	-54.27
812.737	70.65
812.916	-56.32
813.095	-70.65
813.274	11.26
813.453	5.12
813.632	62.46
813.811	50.18
813.989	-46.08
814.168	60.42
814.347	-84.99
814.526	-13.31
814.704	87.04
814.883	113.66
815.062	-68.61
815.24	76.8
815.419	-56.32
815.598	29.7
815.776	-31.74
815.955	-37.89
816.133	-160.77
816.312	-13.31
816.49	-21.5
816.669	21.5
816.847	-21.5
817.026	21.5
817.204	37.89
817.383	52.22
817.561	-52.22
817.74	1.02
817.918	13.31
818.097	-74.75
818.275	31.74
818.453	35.84
818.632	9.22
818.81	68.61
818.988	13.31
819.167	-9.22
819.345	70.65
819.523	25.6
819.701	-37.89
819.879	-5.12
820.058	37.89
820.236	101.37
820.414	-48.13
820.592	29.7
820.77	-3.07
820.948	5.12
821.127	48.13
821.305	-7.17
821.483	-52.22
821.661	52.22
821.839	-11.26
822.017	23.55
822.195	9.22
822.373	27.65
822.551	-27.65
822.729	111.61
822.907	-27.65
823.085	54.27
823.262	-64.51
823.44	-23.55
823.618	-23.55
823.796	-11.26
823.974	-9.22
824.152	-54.27
824.329	-27.65
824.507	7.17
824.685	-7.17
824.863	1.02
825.04	46.08
825.218	76.8
825.396	70.65
825.574	62.46
825.751	1.02
825.929	17.41
826.107	-128
826.284	87.04
826.462	21.5
826.639	-140.29
826.817	-84.99
826.994	-54.27
827.172	-72.7
827.349	52.22
827.527	46.08
827.704	11.26
827.882	70.65
828.059	-25.6
828.237	-3.07
828.414	31.74
828.591	-60.42
828.769	11.26
828.946	-78.85
829.124	87.04
829.301	93.18
829.478	15.36
829.655	-54.27
829.833	-27.65
830.01	-19.46
830.187	60.42
830.364	-44.03
830.542	-13.31
830.719	74.75
830.896	48.13
831.073	-121.85
831.25	44.03
831.427	29.7
831.604	-5.12
831.782	-3.07
831.959	54.27
832.136	-7.17
832.313	95.23
832.49	-46.08
832.667	21.5
832.844	-29.7
833.021	62.46
833.198	29.7
833.374	-17.41
833.551	-19.46
833.728	82.94
833.905	56.32
834.082	-93.18
834.259	17.41
834.436	62.46
834.612	-60.42
834.789	95.23
834.966	-52.22
835.143	50.18
835.319	-11.26
835.496	105.47
835.673	58.37
835.85	50.18
836.026	-15.36
836.203	105.47
836.38	-50.18
836.556	27.65
836.733	-19.46
836.909	132.09
837.086	-35.84
837.262	-1.02
837.439	-29.7
837.616	-21.5
837.792	5.12
837.968	-3.07
838.145	-52.22
838.321	5.12
838.498	-7.17
838.674	1.02
838.851	25.6
839.027	-74.75
839.203	44.03
839.38	25.6
839.556	-58.37
839.732	66.56
839.909	-37.89
840.085	62.46
840.261	-23.55
840.437	27.65
840.614	-78.85
840.79	27.65
840.966	70.65
841.142	11.26
841.318	-68.61
841.494	5.12
841.671	70.65
841.847	-19.46
842.023	-27.65
842.199	33.79
842.375	21.5
842.551	-76.8
842.727	-134.14
842.903	70.65
843.079	3.07
843.255	46.08
843.431	-37.89
843.607	80.89
843.783	-58.37
843.959	54.27
844.134	-21.5
844.31	48.13
844.486	-78.85
844.662	-27.65
844.838	9.22
845.013	46.08
845.189	-15.36
845.365	-31.74
845.541	-3.07
845.716	-3.07
845.892	31.74
846.068	-105.47
846.244	-72.7
846.419	39.94
846.595	-37.89
846.77	-80.89
846.946	-13.31
847.122	21.5
847.297	-29.7
847.473	82.94
847.648	-97.28
847.824	-29.7
847.999	-91.13
848.175	-54.27
848.35	33.79
848.526	62.46
848.701	25.6
848.876	25.6
849.052	25.6
849.227	-17.41
849.403	19.46
849.578	15.36
849.753	-11.26
849.929	44.03
850.104	-31.74
850.279	-46.08
850.454	-15.36
850.63	-19.46
850.805	-23.55
850.98	-80.89
851.155	-3.07
851.33	62.46
851.505	-23.55
851.681	80.89
851.856	-87.04
852.031	13.31
852.206	-23.55
852.381	-15.36
852.556	-29.7
852.731	11.26
852.906	-7.17
853.081	111.61
853.256	101.37
853.431	-62.46
853.606	-84.99
853.781	-70.65
853.956	-56.32
854.131	-17.41
854.305	-93.18
854.48	-97.28
854.655	-17.41
854.83	-56.32
855.005	-31.74
855.18	-17.41
855.354	-19.46
855.529	19.46
855.704	-68.61
855.879	52.22
856.053	-11.26
856.228	72.7
856.403	-64.51
856.577	60.42
856.752	-35.84
856.926	5.12
857.101	33.79
857.276	-11.26
857.45	-19.46
857.625	142.33
857.799	1.02
857.974	3.07
858.148	-70.65
858.323	-11.26
858.497	-46.08
858.672	-84.99
858.846	-78.85
859.02	52.22
859.195	-52.22
859.369	9.22
859.543	-13.31
859.718	-17.41
859.892	-46.08
860.066	-11.26
860.241	-11.26
860.415	-68.61
860.589	-3.07
860.763	29.7
860.938	-64.51
861.112	62.46
861.286	-25.6
861.46	70.65
861.634	-62.46
861.808	119.81
861.982	-84.99
862.157	-76.8
862.331	-21.5
862.505	-72.7
862.679	-121.85
862.853	15.36
863.027	-29.7
863.201	64.51
863.375	-84.99
863.549	-23.55
863.722	25.6
863.896	-11.26
864.07	-19.46
864.244	9.22
864.418	54.27
864.592	58.37
864.766	35.84
864.939	95.23
865.113	-60.42
865.287	109.57
865.461	-70.65
865.634	7.17
865.808	5.12
865.982	-72.7
866.156	-27.65
866.329	-95.23
866.503	-9.22
866.676	33.79
866.85	-15.36
867.024	-50.18
867.197	84.99
867.371	52.22
867.544	9.22
867.718	-62.46
867.891	33.79
868.065	-29.7
868.238	-31.74
868.412	103.42
868.585	5.12
868.759	-123.9
868.932	-39.94
869.105	-64.51
869.279	-13.31
869.452	-29.7
869.625	-58.37
869.799	76.8
869.972	-46.08
870.145	-7.17
870.319	27.65
870.492	17.41
870.665	-23.55
870.838	-105.47
871.011	-146.43
871.185	-74.75
871.358	-19.46
871.531	35.84
871.704	-39.94
871.877	-80.89
872.05	-39.94
872.223	-78.85
872.396	80.89
872.569	-23.55
872.742	-91.13
872.915	66.56
873.088	39.94
873.261	-21.5
873.434	41.98
873.607	-89.09
873.78	5.12
873.953	-60.42
874.126	5.12
874.299	84.99
874.471	39.94
874.644	-21.5
874.817	-5.12
874.99	89.09
875.163	19.46
875.335	13.31
875.508	48.13
875.681	29.7
875.853	-119.81
876.026	-23.55
876.199	37.89
876.371	-11.26
876.544	-33.79
876.717	-31.74
876.889	-3.07
877.062	-46.08
877.234	-56.32
877.407	5.12
877.579	-35.84
877.752	54.27
877.924	25.6
878.097	54.27
878.269	-21.5
878.442	-27.65
878.614	97.28
878.786	-35.84
878.959	39.94
879.131	-3.07
879.303	-152.57
879.476	-37.89
879.648	44.03
879.82	39.94
879.993	-21.5
880.165	-35.84
880.337	-101.37
880.509	-50.18
880.681	-52.22
880.854	-52.22
881.026	5.12
881.198	78.85
881.37	9.22
881.542	-58.37
881.714	-23.55
881.886	-41.98
882.058	-3.07
882.23	5.12
882.402	-5.12
882.574	70.65
882.746	-21.5
882.918	46.08
883.09	3.07
883.262	-15.36
883.434	-1.02
883.606	-99.33
883.778	5.12
883.95	119.81
884.122	-31.74
884.293	117.76
884.465	-66.56
884.637	29.7
884.809	-109.57
884.98	35.84
885.152	27.65
885.324	62.46
885.496	-117.76
885.667	-19.46
885.839	-72.7
886.011	84.99
886.182	58.37
886.354	41.98
886.525	33.79
886.697	37.89
886.869	-142.33
887.04	29.7
887.212	68.61
887.383	97.28
887.555	3.07
887.726	-35.84
887.897	-25.6
888.069	54.27
888.24	72.7
888.412	-44.03
888.583	-41.98
888.754	-76.8
888.926	-48.13
889.097	35.84
889.268	-89.09
889.44	35.84
889.611	-89.09
889.782	-11.26
889.953	-84.99
890.125	140.29
890.296	-5.12
890.467	-46.08
890.638	-58.37
890.809	-78.85
890.98	-46.08
891.151	-13.31
891.323	19.46
891.494	17.41
891.665	-29.7
891.836	-25.6
892.007	3.07
892.178	13.31
892.349	-21.5
892.52	-99.33
892.691	-17.41
892.862	-44.03
893.032	-76.8
893.203	-95.23
893.374	-80.89
893.545	109.57
893.716	-121.85
893.887	37.89
894.057	-56.32
894.228	17.41
894.399	23.55
894.57	46.08
894.74	-46.08
894.911	-31.74
895.082	-31.74
895.253	-52.22
895.423	-3.07
895.594	-25.6
895.764	-31.74
895.935	-93.18
896.106	62.46
896.276	-93.18
896.447	-1.02
896.617	7.17
896.788	-54.27
896.958	52.22
897.129	-97.28
897.299	-70.65
897.47	41.98
897.64	29.7
897.81	-13.31
897.981	-25.6
898.151	-25.6
898.322	33.79
898.492	54.27
898.662	-95.23
898.832	11.26
899.003	-48.13
899.173	48.13
899.343	-39.94
899.513	-56.32
