Data from USB4F104151__4__11-24-13-508.txt Node

Date: Wed Feb 26 11:24:13 EST 2025
User: louis
Spectrometer: USB4F10415
Trigger mode: 4
Integration Time (sec): 1.000000E-1
Scans to average: 1
Electric dark correction enabled: true
Nonlinearity correction enabled: false
Boxcar width: 0
XAxis mode: Wavelengths
Number of Pixels in Spectrum: 3648
>>>>>Begin Spectral Data<<<<<
178.204	-390.48
178.424	-390.48
178.644	-390.48
178.864	-359.76
179.084	-367.95
179.304	15.02
179.524	-23.89
179.744	68.27
179.964	60.07
180.184	8.87
180.404	35.5
180.624	-30.04
180.844	-19.8
181.064	-97.62
181.283	17.07
181.503	-89.43
181.723	55.98
181.943	-42.32
182.163	156.33
182.383	66.22
182.602	72.36
182.822	125.61
183.042	109.23
183.262	12.97
183.482	90.79
183.701	-3.41
183.921	103.08
184.141	-34.13
184.361	60.07
184.58	66.22
184.8	86.7
185.02	-58.71
185.239	41.64
185.459	109.23
185.679	105.13
185.898	-13.65
186.118	45.74
186.338	66.22
186.557	127.66
186.777	12.97
186.997	-17.75
187.216	107.18
187.436	144.04
187.655	25.26
187.875	72.36
188.095	129.7
188.314	88.75
188.534	170.66
188.753	0.68
188.973	115.37
189.192	131.75
189.412	-23.89
189.631	-9.56
189.851	76.46
190.07	119.46
190.29	29.35
190.509	12.97
190.729	33.45
190.948	154.28
191.168	262.82
191.387	33.45
191.607	35.5
191.826	88.75
192.045	92.84
192.265	10.92
192.484	82.6
192.704	90.79
192.923	-89.43
193.142	187.05
193.362	62.12
193.581	119.46
193.8	39.59
194.02	98.99
194.239	117.42
194.458	90.79
194.678	21.16
194.897	-23.89
195.116	98.99
195.335	86.7
195.555	137.9
195.774	-5.46
195.993	197.29
196.212	-17.75
196.432	12.97
196.651	-60.76
196.87	33.45
197.089	242.34
197.308	74.41
197.528	68.27
197.747	2.73
197.966	129.7
198.185	139.94
198.404	49.83
198.623	96.94
198.842	135.85
199.062	125.61
199.281	162.47
199.5	23.21
199.719	64.17
199.938	62.12
200.157	131.75
200.376	78.51
200.595	137.9
200.814	68.27
201.033	-1.37
201.252	84.65
201.471	119.46
201.69	88.75
201.909	41.64
202.128	51.88
202.347	58.03
202.566	53.93
202.785	-71
203.004	-48.47
203.223	342.69
203.442	-21.84
203.661	-58.71
203.879	101.03
204.098	158.38
204.317	-11.61
204.536	144.04
204.755	105.13
204.974	60.07
205.193	33.45
205.411	201.38
205.63	150.18
205.849	84.65
206.068	60.07
206.287	-30.04
206.505	193.19
206.724	53.93
206.943	41.64
207.162	-27.99
207.381	-3.41
207.599	88.75
207.818	86.7
208.037	-30.04
208.255	33.45
208.474	133.8
208.693	92.84
208.911	-71
209.13	88.75
209.349	84.65
209.567	55.98
209.786	70.31
210.005	82.6
210.223	49.83
210.442	-25.94
210.661	68.27
210.879	47.79
211.098	78.51
211.316	17.07
211.535	98.99
211.753	109.23
211.972	156.33
212.191	23.21
212.409	29.35
212.628	47.79
212.846	-1.37
213.065	12.97
213.283	101.03
213.502	53.93
213.72	131.75
213.938	39.59
214.157	29.35
214.375	199.34
214.594	-11.61
214.812	29.35
215.031	90.79
215.249	49.83
215.467	94.89
215.686	-60.76
215.904	111.27
216.122	-19.8
216.341	187.05
216.559	154.28
216.778	58.03
216.996	88.75
217.214	-34.13
217.432	-19.8
217.651	-17.75
217.869	90.79
218.087	6.83
218.306	-13.65
218.524	92.84
218.742	8.87
218.96	111.27
219.179	19.11
219.397	4.78
219.615	211.62
219.833	123.56
220.051	19.11
220.27	131.75
220.488	66.22
220.706	96.94
220.924	4.78
221.142	25.26
221.36	70.31
221.578	90.79
221.796	19.11
222.015	80.55
222.233	37.55
222.451	217.77
222.669	-46.42
222.887	70.31
223.105	-13.65
223.323	4.78
223.541	31.4
223.759	158.38
223.977	105.13
224.195	137.9
224.413	115.37
224.631	74.41
224.849	98.99
225.067	152.23
225.285	72.36
225.503	-130.39
225.721	-52.56
225.939	64.17
226.157	92.84
226.375	232.1
226.592	35.5
226.81	96.94
227.028	148.14
227.246	125.61
227.464	144.04
227.682	47.79
227.9	62.12
228.117	0.68
228.335	19.11
228.553	127.66
228.771	39.59
228.989	96.94
229.206	62.12
229.424	98.99
229.642	-21.84
229.86	-44.37
230.077	193.19
230.295	43.69
230.513	115.37
230.731	98.99
230.948	266.92
231.166	197.29
231.384	8.87
231.601	-116.05
231.819	209.58
232.037	-73.04
232.254	-79.19
232.472	6.83
232.689	-52.56
232.907	72.36
233.125	0.68
233.342	25.26
233.56	-13.65
233.777	80.55
233.995	111.27
234.213	55.98
234.43	101.03
234.648	-11.61
234.865	-7.51
235.083	39.59
235.3	72.36
235.518	55.98
235.735	180.9
235.953	162.47
236.17	103.08
236.388	60.07
236.605	47.79
236.822	111.27
237.04	82.6
237.257	107.18
237.475	66.22
237.692	64.17
237.909	103.08
238.127	10.92
238.344	94.89
238.562	10.92
238.779	-9.56
238.996	-15.7
239.214	117.42
239.431	162.47
239.648	35.5
239.865	123.56
240.083	115.37
240.3	4.78
240.517	-9.56
240.735	10.92
240.952	101.03
241.169	96.94
241.386	49.83
241.603	62.12
241.821	-66.9
242.038	154.28
242.255	123.56
242.472	-32.08
242.689	27.31
242.907	131.75
243.124	31.4
243.341	62.12
243.558	29.35
243.775	-71
243.992	-11.61
244.209	80.55
244.426	105.13
244.643	51.88
244.86	137.9
245.078	156.33
245.295	-58.71
245.512	8.87
245.729	-79.19
245.946	144.04
246.163	4.78
246.38	15.02
246.597	58.03
246.814	43.69
247.031	4.78
247.248	53.93
247.464	58.03
247.681	72.36
247.898	88.75
248.115	82.6
248.332	19.11
248.549	119.46
248.766	170.66
248.983	123.56
249.2	4.78
249.417	90.79
249.633	21.16
249.85	131.75
250.067	45.74
250.284	103.08
250.501	107.18
250.717	33.45
250.934	78.51
251.151	74.41
251.368	41.64
251.585	60.07
251.801	55.98
252.018	-62.8
252.235	125.61
252.451	23.21
252.668	-13.65
252.885	109.23
253.102	25.26
253.318	2.73
253.535	66.22
253.752	-9.56
253.968	-11.61
254.185	-42.32
254.401	94.89
254.618	60.07
254.835	-32.08
255.051	8.87
255.268	121.51
255.484	90.79
255.701	-17.75
255.917	113.32
256.134	-36.18
256.351	53.93
256.567	-34.13
256.784	80.55
257	10.92
257.217	174.76
257.433	60.07
257.65	33.45
257.866	86.7
258.082	92.84
258.299	60.07
258.515	121.51
258.732	25.26
258.948	25.26
259.165	53.93
259.381	-58.71
259.597	160.42
259.814	68.27
260.03	-11.61
260.246	6.83
260.463	92.84
260.679	182.95
260.895	27.31
261.112	96.94
261.328	25.26
261.544	2.73
261.761	232.1
261.977	53.93
262.193	-17.75
262.409	78.51
262.626	23.21
262.842	27.31
263.058	6.83
263.274	86.7
263.49	80.55
263.707	76.46
263.923	125.61
264.139	-93.52
264.355	129.7
264.571	137.9
264.787	123.56
265.004	119.46
265.22	41.64
265.436	31.4
265.652	-15.7
265.868	10.92
266.084	-79.19
266.3	17.07
266.516	-32.08
266.732	51.88
266.948	74.41
267.164	74.41
267.38	193.19
267.596	90.79
267.812	170.66
268.028	29.35
268.244	19.11
268.46	98.99
268.676	-32.08
268.892	4.78
269.108	-56.66
269.324	-3.41
269.54	8.87
269.756	135.85
269.972	2.73
270.188	70.31
270.403	10.92
270.619	-19.8
270.835	64.17
271.051	51.88
271.267	37.55
271.483	-3.41
271.698	25.26
271.914	117.42
272.13	35.5
272.346	12.97
272.562	31.4
272.777	162.47
272.993	96.94
273.209	-42.32
273.425	137.9
273.64	-11.61
273.856	84.65
274.072	-34.13
274.287	21.16
274.503	90.79
274.719	68.27
274.934	51.88
275.15	-58.71
275.366	101.03
275.581	6.83
275.797	103.08
276.012	84.65
276.228	21.16
276.444	62.12
276.659	242.34
276.875	35.5
277.09	43.69
277.306	70.31
277.521	111.27
277.737	60.07
277.952	127.66
278.168	96.94
278.383	27.31
278.599	58.03
278.814	148.14
279.03	35.5
279.245	137.9
279.461	0.68
279.676	105.13
279.892	-42.32
280.107	6.83
280.322	-32.08
280.538	90.79
280.753	35.5
280.969	23.21
281.184	82.6
281.399	144.04
281.615	72.36
281.83	135.85
282.045	29.35
282.26	2.73
282.476	25.26
282.691	86.7
282.906	109.23
283.122	55.98
283.337	-56.66
283.552	82.6
283.767	4.78
283.983	121.51
284.198	84.65
284.413	55.98
284.628	-27.99
284.843	90.79
285.058	121.51
285.274	51.88
285.489	-52.56
285.704	127.66
285.919	8.87
286.134	19.11
286.349	76.46
286.564	-32.08
286.779	135.85
286.995	6.83
287.21	-34.13
287.425	49.83
287.64	58.03
287.855	82.6
288.07	-54.61
288.285	191.14
288.5	88.75
288.715	125.61
288.93	6.83
289.145	4.78
289.36	176.81
289.575	23.21
289.79	189.1
290.004	29.35
290.219	182.95
290.434	-50.52
290.649	6.83
290.864	-46.42
291.079	-17.75
291.294	84.65
291.509	158.38
291.724	49.83
291.938	-3.41
292.153	27.31
292.368	-21.84
292.583	152.23
292.798	49.83
293.012	17.07
293.227	127.66
293.442	33.45
293.657	103.08
293.871	160.42
294.086	82.6
294.301	170.66
294.516	133.8
294.73	129.7
294.945	-81.24
295.16	6.83
295.374	137.9
295.589	113.32
295.804	-50.52
296.018	72.36
296.233	123.56
296.447	41.64
296.662	-40.28
296.877	123.56
297.091	148.14
297.306	15.02
297.52	53.93
297.735	-5.46
297.949	35.5
298.164	19.11
298.378	88.75
298.593	-71
298.807	31.4
299.022	96.94
299.236	135.85
299.451	-68.95
299.665	66.22
299.88	86.7
300.094	21.16
300.309	-15.7
300.523	-11.61
300.737	88.75
300.952	129.7
301.166	35.5
301.381	-7.51
301.595	-15.7
301.809	80.55
302.024	-17.75
302.238	-95.57
302.452	62.12
302.667	-3.41
302.881	178.86
303.095	98.99
303.309	49.83
303.524	-58.71
303.738	2.73
303.952	62.12
304.166	55.98
304.381	-89.43
304.595	160.42
304.809	-52.56
305.023	6.83
305.237	17.07
305.452	23.21
305.666	107.18
305.88	88.75
306.094	129.7
306.308	70.31
306.522	172.71
306.736	-5.46
306.95	105.13
307.164	39.59
307.379	-38.23
307.593	236.2
307.807	158.38
308.021	88.75
308.235	131.75
308.449	-15.7
308.663	10.92
308.877	199.34
309.091	41.64
309.305	129.7
309.519	-17.75
309.733	129.7
309.947	-56.66
310.161	127.66
310.374	74.41
310.588	60.07
310.802	25.26
311.016	125.61
311.23	176.81
311.444	-15.7
311.658	62.12
311.872	115.37
312.085	113.32
312.299	78.51
312.513	119.46
312.727	82.6
312.941	2.73
313.154	6.83
313.368	129.7
313.582	51.88
313.796	119.46
314.009	12.97
314.223	107.18
314.437	23.21
314.651	82.6
314.864	23.21
315.078	23.21
315.292	-68.95
315.505	49.83
315.719	58.03
315.933	90.79
316.146	19.11
316.36	-66.9
316.573	203.43
316.787	101.03
317.001	68.27
317.214	8.87
317.428	19.11
317.641	-46.42
317.855	55.98
318.068	19.11
318.282	86.7
318.495	164.52
318.709	60.07
318.922	37.55
319.136	160.42
319.349	131.75
319.563	113.32
319.776	66.22
319.99	-25.94
320.203	103.08
320.417	82.6
320.63	185
320.843	203.43
321.057	68.27
321.27	53.93
321.483	115.37
321.697	119.46
321.91	82.6
322.124	121.51
322.337	62.12
322.55	-75.09
322.763	98.99
322.977	19.11
323.19	53.93
323.403	31.4
323.617	88.75
323.83	111.27
324.043	39.59
324.256	49.83
324.469	-34.13
324.683	109.23
324.896	-1.37
325.109	64.17
325.322	-30.04
325.535	121.51
325.748	113.32
325.962	109.23
326.175	39.59
326.388	78.51
326.601	121.51
326.814	39.59
327.027	-5.46
327.24	158.38
327.453	-87.38
327.666	45.74
327.879	170.66
328.092	111.27
328.305	133.8
328.518	74.41
328.731	37.55
328.944	74.41
329.157	90.79
329.37	4.78
329.583	193.19
329.796	111.27
330.009	-73.04
330.222	160.42
330.435	146.09
330.648	94.89
330.861	80.55
331.073	31.4
331.286	125.61
331.499	15.02
331.712	-21.84
331.925	-1.37
332.138	117.42
332.35	98.99
332.563	-13.65
332.776	166.57
332.989	-9.56
333.202	27.31
333.414	74.41
333.627	51.88
333.84	107.18
334.053	129.7
334.265	78.51
334.478	23.21
334.691	-3.41
334.903	72.36
335.116	-1.37
335.329	0.68
335.541	129.7
335.754	207.53
335.966	-64.85
336.179	-52.56
336.392	-27.99
336.604	37.55
336.817	43.69
337.029	55.98
337.242	43.69
337.454	96.94
337.667	35.5
337.88	172.71
338.092	15.02
338.305	82.6
338.517	-13.65
338.729	62.12
338.942	135.85
339.154	84.65
339.367	-5.46
339.579	86.7
339.792	-19.8
340.004	96.94
340.217	72.36
340.429	90.79
340.641	82.6
340.854	19.11
341.066	41.64
341.278	94.89
341.491	203.43
341.703	96.94
341.915	-11.61
342.128	148.14
342.34	6.83
342.552	-13.65
342.764	92.84
342.977	43.69
343.189	154.28
343.401	70.31
343.613	-75.09
343.826	33.45
344.038	-15.7
344.25	60.07
344.462	-38.23
344.674	80.55
344.886	15.02
345.099	8.87
345.311	103.08
345.523	70.31
345.735	4.78
345.947	17.07
346.159	72.36
346.371	-5.46
346.583	64.17
346.795	205.48
347.007	51.88
347.219	164.52
347.431	-3.41
347.643	158.38
347.855	53.93
348.067	164.52
348.279	-7.51
348.491	66.22
348.703	131.75
348.915	23.21
349.127	10.92
349.339	60.07
349.551	8.87
349.763	107.18
349.975	101.03
350.187	141.99
350.399	168.62
350.61	90.79
350.822	55.98
351.034	45.74
351.246	72.36
351.458	78.51
351.669	133.8
351.881	88.75
352.093	117.42
352.305	80.55
352.517	88.75
352.728	135.85
352.94	119.46
353.152	129.7
353.363	98.99
353.575	117.42
353.787	164.52
353.999	31.4
354.21	139.94
354.422	-103.76
354.633	-3.41
354.845	94.89
355.057	84.65
355.268	72.36
355.48	103.08
355.692	-50.52
355.903	76.46
356.115	-99.67
356.326	17.07
356.538	88.75
356.749	92.84
356.961	137.9
357.172	64.17
357.384	12.97
357.595	291.49
357.807	-9.56
358.018	33.45
358.23	-9.56
358.441	160.42
358.653	180.9
358.864	45.74
359.075	-36.18
359.287	101.03
359.498	170.66
359.709	96.94
359.921	82.6
360.132	25.26
360.344	-13.65
360.555	60.07
360.766	80.55
360.977	74.41
361.189	76.46
361.4	-13.65
361.611	131.75
361.823	115.37
362.034	133.8
362.245	-95.57
362.456	103.08
362.667	0.68
362.879	33.45
363.09	45.74
363.301	90.79
363.512	27.31
363.723	29.35
363.935	49.83
364.146	94.89
364.357	41.64
364.568	76.46
364.779	-27.99
364.99	168.62
365.201	25.26
365.412	156.33
365.623	-101.72
365.834	125.61
366.045	53.93
366.256	98.99
366.467	68.27
366.678	84.65
366.889	43.69
367.1	17.07
367.311	90.79
367.522	41.64
367.733	94.89
367.944	111.27
368.155	35.5
368.366	94.89
368.577	123.56
368.788	105.13
368.999	21.16
369.209	10.92
369.42	182.95
369.631	260.77
369.842	144.04
370.053	10.92
370.264	176.81
370.474	-81.24
370.685	98.99
370.896	41.64
371.107	121.51
371.317	-5.46
371.528	-3.41
371.739	150.18
371.95	137.9
372.16	49.83
372.371	-54.61
372.582	21.16
372.792	41.64
373.003	88.75
373.214	41.64
373.424	123.56
373.635	37.55
373.846	189.1
374.056	25.26
374.267	127.66
374.477	64.17
374.688	96.94
374.898	148.14
375.109	43.69
375.319	98.99
375.53	33.45
375.74	92.84
375.951	4.78
376.161	88.75
376.372	105.13
376.582	-1.37
376.793	139.94
377.003	-21.84
377.214	31.4
377.424	92.84
377.635	10.92
377.845	35.5
378.055	146.09
378.266	-40.28
378.476	-30.04
378.686	98.99
378.897	53.93
379.107	123.56
379.317	64.17
379.528	41.64
379.738	70.31
379.948	-13.65
380.158	111.27
380.369	68.27
380.579	141.99
380.789	47.79
380.999	68.27
381.21	125.61
381.42	238.25
381.63	-1.37
381.84	137.9
382.05	41.64
382.261	96.94
382.471	109.23
382.681	2.73
382.891	127.66
383.101	115.37
383.311	-34.13
383.521	-32.08
383.731	146.09
383.941	119.46
384.151	23.21
384.361	78.51
384.571	27.31
384.781	70.31
384.991	209.58
385.201	174.76
385.411	154.28
385.621	137.9
385.831	60.07
386.041	58.03
386.251	2.73
386.461	135.85
386.671	-9.56
386.881	-25.94
387.091	33.45
387.301	205.48
387.511	131.75
387.72	121.51
387.93	62.12
388.14	-7.51
388.35	62.12
388.56	162.47
388.769	201.38
388.979	-1.37
389.189	-15.7
389.399	39.59
389.609	103.08
389.818	123.56
390.028	133.8
390.238	76.46
390.447	39.59
390.657	88.75
390.867	2.73
391.076	-7.51
391.286	74.41
391.496	90.79
391.705	12.97
391.915	107.18
392.125	137.9
392.334	31.4
392.544	137.9
392.753	29.35
392.963	-34.13
393.172	58.03
393.382	41.64
393.591	158.38
393.801	45.74
394.01	170.66
394.22	160.42
394.429	45.74
394.639	58.03
394.848	33.45
395.058	58.03
395.267	8.87
395.477	88.75
395.686	115.37
395.895	185
396.105	228.01
396.314	117.42
396.524	35.5
396.733	53.93
396.942	154.28
397.152	45.74
397.361	78.51
397.57	66.22
397.78	17.07
397.989	64.17
398.198	182.95
398.407	-40.28
398.617	37.55
398.826	60.07
399.035	10.92
399.244	131.75
399.453	107.18
399.663	92.84
399.872	121.51
400.081	-40.28
400.29	117.42
400.499	-40.28
400.708	152.23
400.917	-52.56
401.127	31.4
401.336	94.89
401.545	203.43
401.754	131.75
401.963	115.37
402.172	78.51
402.381	-95.57
402.59	49.83
402.799	49.83
403.008	62.12
403.217	68.27
403.426	98.99
403.635	8.87
403.844	82.6
404.053	-11.61
404.262	-11.61
404.471	242.34
404.68	105.13
404.888	-17.75
405.097	2.73
405.306	98.99
405.515	125.61
405.724	15.02
405.933	98.99
406.142	121.51
406.35	170.66
406.559	39.59
406.768	113.32
406.977	156.33
407.185	76.46
407.394	53.93
407.603	49.83
407.812	137.9
408.02	160.42
408.229	12.97
408.438	117.42
408.646	72.36
408.855	70.31
409.064	76.46
409.272	90.79
409.481	76.46
409.69	35.5
409.898	10.92
410.107	51.88
410.315	66.22
410.524	60.07
410.733	-1.37
410.941	101.03
411.15	49.83
411.358	86.7
411.567	144.04
411.775	131.75
411.984	105.13
412.192	129.7
412.401	31.4
412.609	225.96
412.818	119.46
413.026	53.93
413.234	41.64
413.443	-13.65
413.651	39.59
413.86	84.65
414.068	185
414.276	154.28
414.485	27.31
414.693	152.23
414.901	176.81
415.11	-1.37
415.318	37.55
415.526	74.41
415.734	150.18
415.943	8.87
416.151	144.04
416.359	10.92
416.567	68.27
416.776	180.9
416.984	127.66
417.192	178.86
417.4	-32.08
417.608	-30.04
417.817	31.4
418.025	70.31
418.233	168.62
418.441	6.83
418.649	-21.84
418.857	60.07
419.065	187.05
419.273	-9.56
419.481	74.41
419.689	66.22
419.897	-7.51
420.105	-62.8
420.313	148.14
420.521	223.91
420.729	178.86
420.937	35.5
421.145	25.26
421.353	109.23
421.561	170.66
421.769	117.42
421.977	64.17
422.185	74.41
422.393	111.27
422.601	187.05
422.809	168.62
423.017	88.75
423.224	94.89
423.432	178.86
423.64	96.94
423.848	86.7
424.056	117.42
424.263	88.75
424.471	86.7
424.679	187.05
424.887	-5.46
425.094	197.29
425.302	121.51
425.51	27.31
425.718	141.99
425.925	53.93
426.133	62.12
426.341	170.66
426.548	121.51
426.756	23.21
426.964	64.17
427.171	103.08
427.379	74.41
427.586	94.89
427.794	74.41
428.001	158.38
428.209	146.09
428.417	158.38
428.624	205.48
428.832	223.91
429.039	101.03
429.247	197.29
429.454	154.28
429.662	207.53
429.869	74.41
430.076	131.75
430.284	195.24
430.491	215.72
430.699	182.95
430.906	219.82
431.114	203.43
431.321	178.86
431.528	82.6
431.736	160.42
431.943	264.87
432.15	232.1
432.358	252.58
432.565	262.82
432.772	82.6
432.979	176.81
433.187	164.52
433.394	217.77
433.601	146.09
433.808	291.49
434.016	275.11
434.223	309.93
434.43	230.06
434.637	281.25
434.844	266.92
435.052	209.58
435.259	228.01
435.466	303.78
435.673	236.2
435.88	281.25
436.087	326.31
436.294	371.37
436.501	354.98
436.708	305.83
436.915	328.36
437.122	369.32
437.329	328.36
437.537	318.12
437.743	443.04
437.95	522.91
438.157	375.46
438.364	471.72
438.571	537.25
438.778	475.81
438.985	561.83
439.192	451.24
439.399	445.09
439.606	518.82
439.813	567.97
440.02	625.31
440.227	725.66
440.433	625.31
440.64	529.06
440.847	529.06
441.054	635.55
441.261	645.79
441.467	572.07
441.674	647.84
441.881	725.66
442.088	758.43
442.294	703.14
442.501	848.54
442.708	860.83
442.914	740
443.121	873.12
443.328	893.6
443.534	963.23
443.741	977.56
443.948	840.35
444.154	957.08
444.361	1174.17
444.568	1059.48
444.774	1088.15
444.981	1067.67
445.187	1219.22
445.394	1206.94
445.6	1145.5
445.807	1344.15
446.013	1450.64
446.22	1249.94
446.426	1428.12
446.633	1505.94
446.839	1634.96
447.046	1655.44
447.252	1645.2
447.459	1655.44
447.665	1747.6
447.871	1956.49
448.078	2032.27
448.284	1917.58
448.491	2185.87
448.697	2216.58
448.903	2189.96
449.11	2284.17
449.316	2196.11
449.522	2419.33
449.728	2572.93
449.935	2753.15
450.141	2534.02
450.347	2867.84
450.553	2816.64
450.76	2716.29
450.966	3000.96
451.172	3156.6
451.378	3228.28
451.584	3299.96
451.791	3521.14
451.997	3453.56
452.203	3781.23
452.409	3848.82
452.615	3906.16
452.821	3766.9
453.027	3920.49
453.233	4522.6
453.44	4420.2
453.646	4674.15
453.852	4594.28
454.058	4905.57
454.264	4975.2
454.47	5567.06
454.676	5352.03
454.882	5913.17
455.088	5673.56
455.294	6013.52
455.5	6539.85
455.705	6783.56
455.911	6738.5
456.117	7068.22
456.323	7207.48
456.529	7197.24
456.735	7985.71
456.941	8038.96
457.147	8364.59
457.352	8337.96
457.558	8925.73
457.764	9255.45
457.97	9380.38
458.176	9779.73
458.381	10478.09
458.587	10740.23
458.793	11256.32
458.999	11235.84
459.204	12573.16
459.41	12945.89
459.616	12653.03
459.821	13316.58
460.027	14369.23
460.233	14744.01
460.438	14600.65
460.644	15626.68
460.85	15776.19
461.055	16308.66
461.261	17033.64
461.466	16746.92
461.672	17093.03
461.878	19452.29
462.083	18956.68
462.289	19304.84
462.494	20078.97
462.7	20287.86
462.905	20547.95
463.111	22024.54
463.316	23351.62
463.522	23759.17
463.727	24629.55
463.932	25266.47
464.138	26331.42
464.343	27363.59
464.549	27566.34
464.754	29530.34
464.959	30175.45
465.165	31035.6
465.37	30460.12
465.575	30509.27
465.781	32514.23
465.986	33810.6
466.191	33171.63
466.397	33558.7
466.602	32733.37
466.807	34748.57
467.012	35281.04
467.218	35397.77
467.423	35885.19
467.628	36917.37
467.833	38551.65
468.038	38074.47
468.244	37013.62
468.449	39358.55
468.654	38350.95
468.859	38363.23
469.064	38717.53
469.269	37468.27
469.474	37986.41
469.679	39479.38
469.885	37763.18
470.09	38377.57
470.295	38600.8
470.5	37630.06
470.705	38080.61
470.91	36943.99
471.115	36739.19
471.32	36982.9
471.525	36776.06
471.73	35815.56
471.935	35901.57
472.139	34212
472.344	34232.48
472.549	34627.74
472.754	33849.51
472.959	32987.32
473.164	31838.4
473.369	31445.19
473.574	31996.1
473.778	31531.21
473.983	31109.33
474.188	30306.52
474.393	29030.64
474.598	29141.23
474.802	28496.12
475.007	27857.15
475.212	27904.26
475.417	26839.31
475.621	26333.46
475.826	26351.9
476.031	25317.67
476.235	24822.06
476.44	25131.31
476.645	24287.54
476.849	24041.79
477.054	23732.54
477.259	22782.29
477.463	23198.02
477.668	22378.84
477.872	22471
478.077	21713.25
478.282	21139.82
478.486	20957.55
478.691	20785.52
478.895	20513.14
479.1	20394.36
479.304	20365.68
479.509	19485.06
479.713	19706.24
479.918	19556.74
480.122	19081.61
480.326	19349.89
480.531	19097.99
480.735	18612.62
480.94	18651.53
481.144	19026.31
481.348	17901.98
481.553	18260.37
481.757	17701.28
481.961	17879.45
482.166	18051.48
482.37	17643.93
482.574	17389.99
482.778	17353.12
482.983	17623.45
483.187	17201.57
483.391	17240.48
483.595	17017.25
483.8	16812.46
484.004	16615.85
484.208	16554.41
484.412	16181.68
484.616	16228.79
484.821	15985.08
485.025	15530.43
485.229	15831.48
485.433	15514.05
485.637	15403.46
485.841	14985.67
486.045	14723.53
486.249	14850.5
486.453	14219.73
486.657	14328.27
486.861	13998.55
487.065	13658.59
487.269	13527.52
487.473	13117.92
487.677	13425.12
487.881	13185.51
488.085	13005.28
488.289	12962.28
488.493	12317.17
488.697	12433.9
488.901	11909.62
489.105	11733.5
489.309	11727.35
489.512	11549.18
489.716	11248.13
489.92	11088.39
490.124	10762.76
490.328	10820.1
490.531	10441.23
490.735	10594.83
490.939	10131.98
491.143	9865.75
491.346	9794.07
491.55	9746.97
491.754	9546.26
491.958	9540.12
492.161	9228.83
492.365	9108
492.569	8794.66
492.772	8753.7
492.976	8688.17
493.18	8491.56
493.383	8368.68
493.587	8413.74
493.79	8524.33
493.994	8133.17
494.197	8116.78
494.401	8053.3
494.605	7733.81
494.808	7848.5
495.012	7791.16
495.215	7584.31
495.419	7737.91
495.622	7707.19
495.825	7512.63
496.029	7608.89
496.232	7465.53
496.436	7533.11
496.639	7727.67
496.843	7297.6
497.046	7494.2
497.249	7709.24
497.453	7473.72
497.656	7660.09
497.859	7402.04
498.063	7535.16
498.266	7606.84
498.469	7541.3
498.673	7514.68
498.876	7502.39
499.079	7465.53
499.282	7494.2
499.485	8008.24
499.689	7834.16
499.892	7920.18
500.095	7756.34
500.298	7840.31
500.501	7690.81
500.705	7995.95
500.908	7985.71
501.111	8061.49
501.314	8219.18
501.517	8258.09
501.72	8231.47
501.923	8256.04
502.126	8337.96
502.329	8651.3
502.532	8774.18
502.735	8632.87
502.938	8960.55
503.141	8929.83
503.344	9083.42
503.547	9212.45
503.75	9275.93
503.953	9198.11
504.156	9308.7
504.359	9464.35
504.562	9619.99
504.765	10207.76
504.968	9865.75
505.17	10088.98
505.373	10326.54
505.576	10605.06
505.779	10809.86
505.982	10625.54
506.185	11096.58
506.387	11026.95
506.59	11409.92
506.793	11704.82
506.996	11747.83
507.198	12081.65
507.401	12081.65
507.604	12409.33
507.807	12890.6
508.009	12972.52
508.212	13017.57
508.415	13318.62
508.617	13451.74
508.82	13840.86
509.022	14076.37
509.225	14543.31
509.428	14514.64
509.63	15104.45
509.833	15249.86
510.035	16132.53
510.238	16224.69
510.44	16339.38
510.643	16691.63
510.845	17367.46
511.048	17441.18
511.25	17832.35
511.453	18229.65
511.655	19081.61
511.858	18903.43
512.06	19472.77
512.262	19794.3
512.465	20162.93
512.667	21254.5
512.87	20963.69
513.072	21555.55
513.274	22276.44
513.477	22524.24
513.679	23232.84
513.881	24052.03
514.084	24414.52
514.286	24506.68
514.488	25235.75
514.69	26372.38
514.893	26458.39
515.095	26736.91
515.297	27388.17
515.499	27889.92
515.701	28705.01
515.904	29020.4
516.106	29790.44
516.308	30462.17
516.51	30996.69
516.712	31256.78
516.914	31944.9
517.116	33046.71
517.318	33460.4
517.52	34279.58
517.722	34543.77
517.925	35387.53
518.127	35860.62
518.329	36583.55
518.531	36929.66
518.733	37789.8
518.935	38166.63
519.136	38731.87
519.338	39622.73
519.54	40069.19
519.742	40554.56
519.944	41146.42
520.146	42096.68
520.348	42829.85
520.55	42901.53
520.752	43266.07
520.954	44156.94
521.155	44296.2
521.357	45355
521.559	45690.87
521.761	46741.47
521.963	46720.99
522.164	47200.22
522.366	47083.48
522.568	47904.72
522.77	47912.91
522.971	49090.49
523.173	48437.19
523.375	49309.63
523.576	49254.33
523.778	49551.29
523.98	49708.98
524.181	50372.52
524.383	49815.47
524.584	50505.64
524.786	50642.85
524.988	50462.63
525.189	51242.91
525.391	51085.22
525.592	50706.34
525.794	51175.33
525.995	51105.69
526.197	50679.72
526.398	51120.03
526.6	51212.19
526.801	51003.3
527.003	50630.57
527.204	50565.03
527.406	50675.62
527.607	50603.94
527.808	50202.54
528.01	48996.29
528.211	49227.71
528.412	49618.87
528.614	49035.2
528.815	48926.66
529.016	48674.76
529.218	47894.48
529.419	47937.49
529.62	47552.47
529.822	46903.26
530.023	46217.19
530.224	46534.63
530.425	45887.47
530.626	44976.12
530.828	44199.94
531.029	44658.69
531.23	44187.66
531.431	43423.76
531.632	43393.04
531.833	42934.3
532.035	41988.14
532.236	41687.09
532.437	41431.09
532.638	40341.57
532.839	40259.65
533.04	39675.98
533.241	39182.42
533.442	39209.04
533.643	38264.93
533.844	37781.61
534.045	37150.84
534.246	36475.01
534.447	36171.91
534.648	35616.91
534.849	35532.94
535.05	34887.83
535.251	34261.15
535.451	33849.51
535.652	33591.47
535.853	32927.92
536.054	32745.65
536.255	32075.97
536.456	31523.02
536.657	31537.35
536.857	30750.93
537.058	30116.06
537.259	30413.02
537.46	29937.89
537.66	29069.55
537.861	28940.53
538.062	28203.26
538.263	28082.43
538.463	27906.3
538.664	27603.21
538.865	27265.29
539.065	26816.79
539.266	26444.06
539.466	26386.71
539.667	25897.25
539.868	26056.99
540.068	25440.55
540.269	24977.71
540.469	24545.59
540.67	24416.57
540.87	23972.16
541.071	23593.28
541.271	23527.75
541.472	23247.18
541.672	22948.17
541.873	22528.34
542.073	22411.6
542.274	21918.04
542.474	21770.59
542.675	21729.63
542.875	21528.93
543.075	21141.86
543.276	20689.26
543.476	20953.45
543.676	20332.92
543.877	19923.32
544.077	20001.15
544.277	19779.96
544.478	19472.77
544.678	19407.23
544.878	19057.03
545.078	19147.14
545.279	18594.19
545.479	18686.35
545.679	18536.85
545.879	18229.65
546.079	17934.74
546.28	17605.02
546.48	17353.12
546.68	17424.8
546.88	16984.49
547.08	16882.09
547.28	16636.33
547.48	16335.28
547.68	16511.41
547.88	15946.17
548.081	16220.6
548.281	15755.71
548.481	15335.87
548.681	15483.33
548.881	15210.95
549.081	15075.78
549.28	14594.51
549.48	14666.19
549.68	14248.4
549.88	14528.97
550.08	13824.47
550.28	13816.28
550.48	13763.03
550.68	13427.17
550.88	13079.01
551.08	13048.29
551.279	12925.41
551.479	12618.22
551.679	12462.57
551.879	12278.26
552.079	12278.26
552.278	11837.94
552.478	11921.91
552.678	11649.53
552.878	11440.64
553.077	11295.23
553.277	11057.67
553.477	10945.03
553.676	10820.1
553.876	10670.6
554.076	10328.59
554.275	10285.58
554.475	10072.59
554.674	10037.78
554.874	9685.53
555.074	9568.79
555.273	9435.67
555.473	9284.12
555.672	9093.66
555.872	9044.51
556.071	8884.77
556.271	8923.68
556.47	8653.35
556.67	8493.61
556.869	8409.64
557.068	8356.4
557.268	8139.31
557.467	8174.13
557.667	8002.1
557.866	7674.42
558.065	7737.91
558.265	7600.69
558.464	7236.16
558.663	7100.99
558.863	6976.06
559.062	6955.58
559.261	6836.8
559.461	6877.76
559.66	6486.6
559.859	6455.88
560.058	6365.77
560.258	6259.28
560.457	6234.7
560.656	6294.09
560.855	5947.98
561.054	6001.23
561.253	5917.26
561.453	5909.07
561.652	5927.5
561.851	5663.32
562.05	5474.9
562.249	5261.91
562.448	5380.7
562.647	5100.12
562.846	5237.34
563.045	5294.68
563.244	5077.6
563.443	5038.69
563.642	4964.96
563.841	4788.83
564.04	4782.69
564.239	4747.87
564.438	4731.49
564.637	4483.69
564.836	4467.3
565.035	4332.14
565.234	4354.66
565.432	4196.97
565.631	4233.83
565.83	4070
566.029	4074.09
566.228	4080.24
566.427	4055.66
566.625	3756.66
566.824	3965.55
567.023	3738.23
567.222	3779.19
567.42	3670.64
567.619	3695.22
567.818	3572.34
568.016	3795.57
568.215	3482.23
568.414	3431.03
568.612	3498.61
568.811	3259
569.01	3424.89
569.208	3078.78
569.407	3306.1
569.605	3250.81
569.804	2976.38
570.002	3074.68
570.201	3074.68
570.4	2957.95
570.598	2945.66
570.797	2966.14
570.995	2785.92
571.193	2865.79
571.392	2851.46
571.59	2732.67
571.789	2794.11
571.987	2775.68
572.186	2669.19
572.384	2499.2
572.582	2536.07
572.781	2757.25
572.979	2376.33
573.177	2409.09
573.376	2488.96
573.574	2435.72
573.772	2337.42
573.971	2230.92
574.169	2140.81
574.367	2185.87
574.565	2257.54
574.763	2058.89
574.962	2142.86
575.16	2085.51
575.358	1915.53
575.556	2009.74
575.754	1983.12
575.952	1927.82
576.151	1946.25
576.349	2001.55
576.547	1747.6
576.745	1845.9
576.943	1821.33
577.141	1757.84
577.339	1720.98
577.537	1770.13
577.735	1774.22
577.933	1639.06
578.131	1534.61
578.329	1688.21
578.527	1608.34
578.725	1577.62
578.923	1438.36
579.121	1594
579.319	1358.49
579.516	1415.83
579.714	1690.26
579.912	1481.36
580.11	1376.92
580.308	1344.15
580.506	1323.67
580.704	1243.8
580.901	1292.95
581.099	1450.64
581.297	1231.51
581.495	1362.58
581.692	1303.19
581.89	1333.91
582.088	1258.14
582.285	1151.64
582.483	1168.02
582.681	1077.91
582.878	1178.26
583.076	1200.79
583.274	1180.31
583.471	1239.7
583.669	1012.38
583.866	1045.15
584.064	952.99
584.262	985.76
584.459	909.98
584.657	969.37
584.854	983.71
585.052	985.76
585.249	1034.91
585.447	948.89
585.644	795.29
585.841	1071.77
586.039	985.76
586.236	952.99
586.434	930.46
586.631	860.83
586.828	756.38
587.026	952.99
587.223	877.21
587.42	834.21
587.618	805.53
587.815	957.08
588.012	805.53
588.21	848.54
588.407	858.78
588.604	846.49
588.801	647.84
588.999	789.15
589.196	768.67
589.393	731.81
589.59	752.29
589.787	752.29
589.984	801.44
590.182	692.9
590.379	678.56
590.576	744.1
590.773	627.36
590.97	596.64
591.167	807.58
591.364	723.62
591.561	635.55
591.758	819.87
591.955	717.47
592.152	821.92
592.349	592.55
592.546	615.07
592.743	735.9
592.94	647.84
593.137	733.86
593.334	813.73
593.531	713.38
593.727	694.94
593.924	762.53
594.121	754.34
594.318	613.03
594.515	729.76
594.712	789.15
594.908	797.34
595.105	629.41
595.302	692.9
595.499	791.2
595.696	852.64
595.892	731.81
596.089	912.03
596.286	783.01
596.482	832.16
596.679	961.18
596.876	727.71
597.072	869.02
597.269	776.86
597.466	875.17
597.662	955.04
597.859	885.41
598.055	926.36
598.252	971.42
598.448	1077.91
598.645	1071.77
598.841	1168.02
599.038	1127.07
599.234	1262.23
599.431	1317.53
599.627	1217.18
599.824	1362.58
600.02	1303.19
600.217	1258.14
600.413	1407.64
600.609	1520.28
600.806	1616.53
601.002	1616.53
601.198	1487.51
601.395	1751.7
601.591	1837.71
601.787	1821.33
601.984	1884.81
602.18	2017.93
602.376	2024.08
602.572	2173.58
602.769	2329.22
602.965	2232.97
603.161	2390.66
603.357	2349.7
603.553	2599.56
603.75	2603.65
603.946	2640.51
604.142	2716.29
604.338	3054.2
604.534	2855.55
604.73	3039.87
604.926	3152.51
605.122	3385.98
605.318	3361.4
605.514	3467.89
605.71	3308.15
605.906	3654.26
606.102	3551.86
606.298	3998.32
606.494	3936.88
606.69	4158.06
606.886	4276.84
607.082	4221.55
607.278	4325.99
607.474	4592.23
607.67	4659.81
607.866	4643.43
608.062	4950.62
608.257	5001.82
608.453	5055.07
608.649	5419.61
608.845	5417.56
609.041	5634.64
609.236	5978.7
609.432	5950.03
609.628	6203.98
609.824	6244.94
610.019	6345.29
610.215	6623.81
610.411	6939.2
610.606	7121.47
610.802	7199.29
610.998	7483.96
611.193	7682.61
611.389	7660.09
611.584	7815.73
611.78	8045.1
611.976	8327.72
612.171	8630.82
612.367	8694.31
612.562	8895.01
612.758	9155.1
612.953	9357.85
613.149	9677.34
613.344	9925.14
613.539	10099.22
613.735	10498.57
613.93	10787.33
614.126	10846.73
614.321	11241.98
614.517	11594.23
614.712	11870.71
614.907	12190.19
615.103	12278.26
615.298	12622.31
615.493	13117.92
615.688	13240.8
615.884	13916.63
616.079	13828.57
616.274	14590.41
616.47	14449.1
616.665	15200.71
616.86	15587.77
617.055	15571.39
617.25	16339.38
617.445	16560.56
617.641	16964.01
617.836	17631.65
618.031	17435.04
618.226	18475.41
618.421	18821.52
618.616	19362.18
618.811	19562.88
619.006	20269.43
619.201	20578.67
619.396	20957.55
619.591	21164.39
619.786	22040.92
619.981	22391.12
620.176	22837.58
620.371	23097.67
620.566	23900.48
620.761	24295.74
620.956	24774.96
621.151	25121.07
621.346	25729.31
621.541	25825.57
621.735	26757.39
621.93	26890.51
622.125	27562.25
622.32	27560.2
622.515	28543.22
622.709	28950.77
622.904	29470.95
623.099	29989.09
623.294	30697.69
623.488	30906.58
623.683	31785.16
623.878	31422.67
624.072	32700.6
624.267	33265.84
624.462	33804.45
624.656	34160.8
624.851	34955.41
625.046	35192.98
625.24	35592.33
625.435	35725.45
625.629	36429.95
625.824	36808.82
626.018	38010.98
626.213	37417.07
626.407	38266.98
626.602	38701.15
626.796	39139.41
626.991	39370.83
627.185	39624.78
627.38	40198.21
627.574	40466.5
627.768	40187.97
627.963	40661.05
628.157	40872
628.352	41332.79
628.546	40722.49
628.74	41404.47
628.935	40745.02
629.129	41232.44
629.323	40437.83
629.517	41039.93
629.712	40323.14
629.906	40374.34
630.1	40144.97
630.294	39667.79
630.489	39090.26
630.683	38987.86
630.877	37427.31
631.071	37251.19
631.265	37163.12
631.459	36501.63
631.653	35438.73
631.848	34807.96
632.042	33720.49
632.236	33566.89
632.43	32217.28
632.624	31719.62
632.818	30501.08
633.012	29559.02
633.206	28721.4
633.4	27996.42
633.594	26738.96
633.788	26175.77
633.982	25180.46
634.176	24451.38
634.369	23040.33
634.563	22669.65
634.757	21838.17
634.951	21272.93
635.145	20259.19
635.339	19507.58
635.533	18893.19
635.726	17961.37
635.92	17441.18
636.114	16476.59
636.308	15694.27
636.501	15413.7
636.695	14985.67
636.889	13912.53
637.083	13474.27
637.276	12935.65
637.47	12253.68
637.664	11999.73
637.857	11422.2
638.051	11080.19
638.244	10332.68
638.438	10191.38
638.632	9734.68
638.825	9339.42
639.019	9013.79
639.212	8348.2
639.406	8292.91
639.599	7881.27
639.793	7727.67
639.986	7313.98
640.18	7248.44
640.373	6812.23
640.567	6490.7
640.76	6416.97
640.954	6165.07
641.147	5833.3
641.34	5423.7
641.534	5311.07
641.727	5235.29
641.92	4919.9
642.114	4749.92
642.307	4543.08
642.5	4405.86
642.694	4260.46
642.887	4039.28
643.08	4055.66
643.273	3893.87
643.467	3541.62
643.66	3383.93
643.853	3334.78
644.046	3369.59
644.239	3132.03
644.432	3029.63
644.626	2755.2
644.819	2701.95
645.012	2679.43
645.205	2683.52
645.398	2570.88
645.591	2392.71
645.784	2161.29
645.977	2149
646.17	2232.97
646.363	2071.18
646.556	1936.01
646.749	1835.66
646.942	1778.32
647.135	1882.77
647.328	1677.97
647.521	1751.7
647.714	1630.87
647.907	1645.2
648.099	1399.45
648.292	1585.81
648.485	1348.25
648.678	1331.86
648.871	1256.09
649.064	1237.66
649.256	1063.58
649.449	1176.22
649.642	1034.91
649.835	1006.24
650.027	1016.48
650.22	983.71
650.413	897.69
650.605	963.23
650.798	780.96
650.991	830.11
651.183	871.07
651.376	758.43
651.568	871.07
651.761	668.32
651.954	748.19
652.146	740
652.339	785.05
652.531	770.72
652.724	567.97
652.916	486.05
653.109	498.34
653.301	670.37
653.494	613.03
653.686	613.03
653.879	662.18
654.071	637.6
654.263	500.39
654.456	484
654.648	559.78
654.84	520.87
655.033	354.98
655.225	672.42
655.417	328.36
655.61	545.44
655.802	516.77
655.994	490.15
656.186	318.12
656.379	490.15
656.571	385.7
656.763	361.13
656.955	301.73
657.148	283.3
657.34	408.23
657.532	367.27
657.724	307.88
657.916	338.6
658.108	395.94
658.3	393.89
658.492	346.79
658.684	219.82
658.876	350.89
659.068	170.66
659.26	225.96
659.452	271.01
659.644	346.79
659.836	443.04
660.028	316.07
660.22	236.2
660.412	320.17
660.604	256.68
660.796	268.97
660.988	248.49
661.18	146.09
661.372	295.59
661.563	213.67
661.755	230.06
661.947	166.57
662.139	205.48
662.331	207.53
662.522	281.25
662.714	148.14
662.906	86.7
663.097	176.81
663.289	107.18
663.481	55.98
663.673	230.06
663.864	219.82
664.056	273.06
664.247	144.04
664.439	291.49
664.631	182.95
664.822	250.53
665.014	168.62
665.205	154.28
665.397	98.99
665.588	207.53
665.78	109.23
665.971	228.01
666.163	129.7
666.354	232.1
666.546	121.51
666.737	191.14
666.929	96.94
667.12	125.61
667.311	238.25
667.503	182.95
667.694	209.58
667.885	162.47
668.077	166.57
668.268	-11.61
668.459	150.18
668.651	154.28
668.842	144.04
669.033	98.99
669.224	125.61
669.416	379.56
669.607	111.27
669.798	205.48
669.989	223.91
670.18	195.24
670.371	215.72
670.563	90.79
670.754	301.73
670.945	158.38
671.136	170.66
671.327	205.48
671.518	305.83
671.709	219.82
671.9	240.3
672.091	256.68
672.282	207.53
672.473	107.18
672.664	74.41
672.855	168.62
673.046	197.29
673.237	205.48
673.428	223.91
673.619	336.55
673.809	127.66
674	187.05
674.191	139.94
674.382	170.66
674.573	119.46
674.764	109.23
674.954	252.58
675.145	74.41
675.336	141.99
675.527	197.29
675.717	115.37
675.908	129.7
676.099	133.8
676.289	158.38
676.48	121.51
676.671	141.99
676.861	43.69
677.052	197.29
677.243	156.33
677.433	166.57
677.624	322.21
677.814	215.72
678.005	160.42
678.195	275.11
678.386	166.57
678.576	260.77
678.767	121.51
678.957	195.24
679.148	244.39
679.338	338.6
679.529	211.62
679.719	252.58
679.909	275.11
680.1	219.82
680.29	275.11
680.481	170.66
680.671	252.58
680.861	273.06
681.052	256.68
681.242	119.46
681.432	303.78
681.622	262.82
681.813	131.75
682.003	275.11
682.193	189.1
682.383	246.44
682.573	287.4
682.764	297.64
682.954	262.82
683.144	426.66
683.334	211.62
683.524	266.92
683.714	230.06
683.904	371.37
684.094	295.59
684.284	215.72
684.474	354.98
684.664	295.59
684.854	238.25
685.044	228.01
685.234	225.96
685.424	252.58
685.614	217.77
685.804	338.6
685.994	260.77
686.184	242.34
686.374	262.82
686.564	254.63
686.753	293.54
686.943	219.82
687.133	230.06
687.323	285.35
687.513	307.88
687.702	254.63
687.892	258.73
688.082	389.8
688.272	387.75
688.461	252.58
688.651	385.7
688.841	252.58
689.03	285.35
689.22	236.2
689.41	266.92
689.599	256.68
689.789	236.2
689.979	412.32
690.168	260.77
690.358	293.54
690.547	264.87
690.737	295.59
690.926	350.89
691.116	262.82
691.305	342.69
691.495	326.31
691.684	211.62
691.874	213.67
692.063	301.73
692.252	305.83
692.442	250.53
692.631	217.77
692.82	250.53
693.01	311.97
693.199	158.38
693.388	354.98
693.578	262.82
693.767	352.93
693.956	268.97
694.146	223.91
694.335	320.17
694.524	234.15
694.713	271.01
694.902	225.96
695.092	230.06
695.281	185
695.47	205.48
695.659	223.91
695.848	262.82
696.037	180.9
696.226	287.4
696.415	234.15
696.604	379.56
696.793	250.53
696.982	279.21
697.171	395.94
697.36	223.91
697.549	250.53
697.738	166.57
697.927	303.78
698.116	207.53
698.305	197.29
698.494	254.63
698.683	217.77
698.872	438.95
699.061	164.52
699.25	242.34
699.438	293.54
699.627	328.36
699.816	371.37
700.005	172.71
700.193	205.48
700.382	209.58
700.571	289.45
700.76	293.54
700.948	264.87
701.137	309.93
701.326	352.93
701.514	154.28
701.703	297.64
701.892	246.44
702.08	367.27
702.269	250.53
702.457	168.62
702.646	244.39
702.834	146.09
703.023	387.75
703.212	246.44
703.4	187.05
703.589	166.57
703.777	271.01
703.965	160.42
704.154	240.3
704.342	174.76
704.531	207.53
704.719	219.82
704.907	324.26
705.096	152.23
705.284	172.71
705.472	254.63
705.661	324.26
705.849	264.87
706.037	242.34
706.226	268.97
706.414	256.68
706.602	219.82
706.79	234.15
706.979	178.86
707.167	244.39
707.355	115.37
707.543	234.15
707.731	199.34
707.919	205.48
708.107	113.32
708.296	185
708.484	154.28
708.672	271.01
708.86	295.59
709.048	223.91
709.236	211.62
709.424	273.06
709.612	295.59
709.8	113.32
709.988	260.77
710.176	332.45
710.364	275.11
710.551	256.68
710.739	246.44
710.927	154.28
711.115	260.77
711.303	170.66
711.491	262.82
711.679	170.66
711.866	283.3
712.054	139.94
712.242	281.25
712.43	299.69
712.617	250.53
712.805	297.64
712.993	285.35
713.181	168.62
713.368	258.73
713.556	195.24
713.744	252.58
713.931	348.84
714.119	377.51
714.306	162.47
714.494	182.95
714.682	332.45
714.869	174.76
715.057	262.82
715.244	144.04
715.432	242.34
715.619	217.77
715.807	203.43
715.994	187.05
716.182	207.53
716.369	252.58
716.556	256.68
716.744	193.19
716.931	137.9
717.119	348.84
717.306	244.39
717.493	311.97
717.681	219.82
717.868	219.82
718.055	314.02
718.242	205.48
718.43	289.45
718.617	422.56
718.804	277.16
718.991	293.54
719.179	264.87
719.366	268.97
719.553	260.77
719.74	285.35
719.927	324.26
720.114	271.01
720.301	221.86
720.488	320.17
720.676	266.92
720.863	330.41
721.05	428.71
721.237	320.17
721.424	334.5
721.611	293.54
721.798	219.82
721.985	277.16
722.172	252.58
722.358	223.91
722.545	293.54
722.732	307.88
722.919	426.66
723.106	344.74
723.293	266.92
723.48	283.3
723.667	303.78
723.853	307.88
724.04	334.5
724.227	402.08
724.414	215.72
724.6	271.01
724.787	383.65
724.974	436.9
725.161	322.21
725.347	213.67
725.534	242.34
725.72	340.65
725.907	314.02
726.094	326.31
726.28	320.17
726.467	252.58
726.653	170.66
726.84	363.17
727.027	467.62
727.213	314.02
727.4	350.89
727.586	430.76
727.773	289.45
727.959	199.34
728.145	291.49
728.332	252.58
728.518	180.9
728.705	412.32
728.891	363.17
729.077	314.02
729.264	311.97
729.45	268.97
729.636	340.65
729.823	416.42
730.009	326.31
730.195	217.77
730.382	426.66
730.568	232.1
730.754	283.3
730.94	252.58
731.126	344.74
731.313	371.37
731.499	252.58
731.685	367.27
731.871	414.37
732.057	311.97
732.243	342.69
732.429	330.41
732.615	561.83
732.801	395.94
732.987	303.78
733.173	373.41
733.359	297.64
733.545	365.22
733.731	248.49
733.917	492.2
734.103	316.07
734.289	418.47
734.475	348.84
734.661	490.15
734.847	391.84
735.033	359.08
735.219	359.08
735.404	293.54
735.59	268.97
735.776	365.22
735.962	299.69
736.148	379.56
736.333	459.43
736.519	373.41
736.705	303.78
736.89	311.97
737.076	397.99
737.262	342.69
737.447	324.26
737.633	397.99
737.819	359.08
738.004	381.6
738.19	334.5
738.375	391.84
738.561	340.65
738.747	432.8
738.932	311.97
739.118	537.25
739.303	477.86
739.489	369.32
739.674	283.3
739.859	266.92
740.045	414.37
740.23	418.47
740.416	277.16
740.601	293.54
740.786	393.89
740.972	305.83
741.157	320.17
741.342	281.25
741.528	223.91
741.713	342.69
741.898	346.79
742.084	348.84
742.269	387.75
742.454	397.99
742.639	395.94
742.824	344.74
743.01	451.24
743.195	512.67
743.38	330.41
743.565	305.83
743.75	506.53
743.935	342.69
744.12	465.57
744.305	213.67
744.49	289.45
744.675	453.28
744.86	316.07
745.045	432.8
745.23	316.07
745.415	326.31
745.6	457.38
745.785	346.79
745.97	430.76
746.155	316.07
746.34	381.6
746.525	418.47
746.71	410.28
746.895	285.35
747.079	305.83
747.264	303.78
747.449	320.17
747.634	420.52
747.819	309.93
748.003	252.58
748.188	228.01
748.373	404.13
748.557	297.64
748.742	383.65
748.927	379.56
749.111	279.21
749.296	301.73
749.481	441
749.665	344.74
749.85	252.58
750.034	303.78
750.219	246.44
750.404	217.77
750.588	359.08
750.773	305.83
750.957	326.31
751.141	238.25
751.326	371.37
751.51	252.58
751.695	256.68
751.879	246.44
752.064	326.31
752.248	281.25
752.432	371.37
752.617	316.07
752.801	295.59
752.985	287.4
753.17	383.65
753.354	242.34
753.538	303.78
753.722	277.16
753.907	258.73
754.091	129.7
754.275	338.6
754.459	119.46
754.643	244.39
754.828	332.45
755.012	311.97
755.196	197.29
755.38	354.98
755.564	164.52
755.748	266.92
755.932	322.21
756.116	291.49
756.3	293.54
756.484	277.16
756.668	309.93
756.852	166.57
757.036	201.38
757.22	201.38
757.404	144.04
757.588	156.33
757.772	250.53
757.956	275.11
758.14	424.61
758.323	172.71
758.507	260.77
758.691	236.2
758.875	250.53
759.059	297.64
759.242	228.01
759.426	197.29
759.61	254.63
759.794	119.46
759.977	271.01
760.161	471.72
760.345	275.11
760.528	250.53
760.712	215.72
760.895	277.16
761.079	187.05
761.263	98.99
761.446	127.66
761.63	141.99
761.813	264.87
761.997	146.09
762.18	225.96
762.364	232.1
762.547	-30.04
762.731	180.9
762.914	228.01
763.098	98.99
763.281	152.23
763.464	121.51
763.648	242.34
763.831	162.47
764.015	166.57
764.198	223.91
764.381	168.62
764.564	185
764.748	180.9
764.931	144.04
765.114	111.27
765.297	219.82
765.481	144.04
765.664	156.33
765.847	166.57
766.03	209.58
766.213	78.51
766.397	144.04
766.58	131.75
766.763	180.9
766.946	113.32
767.129	131.75
767.312	43.69
767.495	176.81
767.678	144.04
767.861	94.89
768.044	164.52
768.227	166.57
768.41	164.52
768.593	207.53
768.776	123.56
768.959	129.7
769.142	268.97
769.324	68.27
769.507	166.57
769.69	160.42
769.873	141.99
770.056	311.97
770.239	146.09
770.421	207.53
770.604	201.38
770.787	154.28
770.97	105.13
771.152	53.93
771.335	207.53
771.518	-64.85
771.7	201.38
771.883	260.77
772.066	-5.46
772.248	201.38
772.431	160.42
772.613	268.97
772.796	109.23
772.978	187.05
773.161	238.25
773.343	88.75
773.526	60.07
773.708	-27.99
773.891	76.46
774.073	123.56
774.256	115.37
774.438	242.34
774.621	113.32
774.803	146.09
774.985	152.23
775.168	228.01
775.35	135.85
775.532	103.08
775.715	72.36
775.897	107.18
776.079	88.75
776.261	137.9
776.444	135.85
776.626	160.42
776.808	129.7
776.99	-27.99
777.173	133.8
777.355	117.42
777.537	45.74
777.719	178.86
777.901	125.61
778.083	-15.7
778.265	33.45
778.447	187.05
778.629	64.17
778.811	146.09
778.993	107.18
779.175	187.05
779.357	66.22
779.539	-7.51
779.721	78.51
779.903	131.75
780.085	96.94
780.267	94.89
780.449	90.79
780.631	133.8
780.812	195.24
780.994	60.07
781.176	53.93
781.358	39.59
781.54	76.46
781.721	125.61
781.903	92.84
782.085	115.37
782.267	135.85
782.448	39.59
782.63	-1.37
782.812	55.98
782.993	45.74
783.175	109.23
783.357	82.6
783.538	76.46
783.72	-50.52
783.901	88.75
784.083	127.66
784.264	72.36
784.446	-19.8
784.627	-58.71
784.809	182.95
784.99	4.78
785.172	62.12
785.353	10.92
785.535	39.59
785.716	74.41
785.897	2.73
786.079	-11.61
786.26	0.68
786.441	84.65
786.623	-25.94
786.804	58.03
786.985	60.07
787.167	105.13
787.348	76.46
787.529	70.31
787.71	43.69
787.891	154.28
788.073	66.22
788.254	-27.99
788.435	228.01
788.616	72.36
788.797	-38.23
788.978	96.94
789.159	84.65
789.34	125.61
789.522	55.98
789.703	6.83
789.884	45.74
790.065	82.6
790.246	168.62
790.427	27.31
790.607	125.61
790.788	154.28
790.969	12.97
791.15	68.27
791.331	96.94
791.512	62.12
791.693	8.87
791.874	60.07
792.054	217.77
792.235	80.55
792.416	-40.28
792.597	55.98
792.778	135.85
792.958	82.6
793.139	98.99
793.32	84.65
793.5	-19.8
793.681	105.13
793.862	66.22
794.042	35.5
794.223	-13.65
794.404	121.51
794.584	-87.38
794.765	39.59
794.945	45.74
795.126	115.37
795.306	101.03
795.487	47.79
795.667	-38.23
795.848	62.12
796.028	19.11
796.209	35.5
796.389	72.36
796.57	88.75
796.75	29.35
796.93	39.59
797.111	41.64
797.291	-44.37
797.471	131.75
797.652	-19.8
797.832	-19.8
798.012	84.65
798.192	6.83
798.373	-52.56
798.553	-36.18
798.733	53.93
798.913	-15.7
799.093	-15.7
799.274	-34.13
799.454	27.31
799.634	94.89
799.814	119.46
799.994	68.27
800.174	41.64
800.354	-25.94
800.534	-21.84
800.714	101.03
800.894	-15.7
801.074	-15.7
801.254	-93.52
801.434	111.27
801.614	62.12
801.794	39.59
801.974	1686.16
802.154	-1.37
802.334	101.03
802.514	19.11
802.693	-7.51
802.873	-60.76
803.053	174.76
803.233	41.64
803.413	37.55
803.592	-71
803.772	15.02
803.952	2.73
804.131	-1.37
804.311	88.75
804.491	103.08
804.67	66.22
804.85	-91.48
805.03	62.12
805.209	119.46
805.389	10.92
805.568	58.03
805.748	-15.7
805.928	51.88
806.107	84.65
806.287	35.5
806.466	60.07
806.646	-1.37
806.825	103.08
807.004	-27.99
807.184	-17.75
807.363	88.75
807.543	49.83
807.722	55.98
807.901	109.23
808.081	98.99
808.26	-134.48
808.439	35.5
808.619	72.36
808.798	-3.41
808.977	43.69
809.156	137.9
809.336	10.92
809.515	113.32
809.694	-34.13
809.873	10.92
810.052	76.46
810.231	135.85
810.411	10.92
810.59	129.7
810.769	135.85
810.948	137.9
811.127	-40.28
811.306	-87.38
811.485	64.17
811.664	166.57
811.843	17.07
812.022	-13.65
812.201	-13.65
812.38	2.73
812.559	60.07
812.737	154.28
812.916	-81.24
813.095	-23.89
813.274	-19.8
813.453	55.98
813.632	49.83
813.811	78.51
813.989	-103.76
814.168	2.73
814.347	-21.84
814.526	-30.04
814.704	139.94
814.883	78.51
815.062	-3.41
815.24	19.11
815.419	-38.23
815.598	60.07
815.776	-191.83
815.955	29.35
816.133	-136.53
816.312	88.75
816.49	-40.28
816.669	72.36
816.847	-13.65
817.026	45.74
817.204	-19.8
817.383	-21.84
817.561	-19.8
817.74	31.4
817.918	60.07
818.097	-79.19
818.275	4.78
818.453	51.88
818.632	74.41
818.81	-25.94
818.988	31.4
819.167	-56.66
819.345	64.17
819.523	58.03
819.701	109.23
819.879	10.92
820.058	60.07
820.236	113.32
820.414	80.55
820.592	-7.51
820.77	-40.28
820.948	-54.61
821.127	-44.37
821.305	41.64
821.483	-50.52
821.661	19.11
821.839	15.02
822.017	-25.94
822.195	-62.8
822.373	55.98
822.551	-17.75
822.729	25.26
822.907	0.68
823.085	70.31
823.262	84.65
823.44	-13.65
823.618	31.4
823.796	33.45
823.974	-58.71
824.152	66.22
824.329	-34.13
824.507	15.02
824.685	-15.7
824.863	-34.13
825.04	-1.37
825.218	129.7
825.396	15.02
825.574	88.75
825.751	66.22
825.929	78.51
826.107	-81.24
826.284	121.51
826.462	82.6
826.639	-32.08
826.817	-32.08
826.994	72.36
827.172	-48.47
827.349	123.56
827.527	98.99
827.704	-1.37
827.882	60.07
828.059	27.31
828.237	31.4
828.414	58.03
828.591	-134.48
828.769	43.69
828.946	-44.37
829.124	80.55
829.301	37.55
829.478	-19.8
829.655	72.36
829.833	-73.04
830.01	-120.15
830.187	-17.75
830.364	17.07
830.542	8.87
830.719	105.13
830.896	8.87
831.073	41.64
831.25	72.36
831.427	29.35
831.604	-19.8
831.782	-42.32
831.959	8.87
832.136	80.55
832.313	39.59
832.49	-46.42
832.667	-23.89
832.844	-19.8
833.021	103.08
833.198	21.16
833.374	21.16
833.551	78.51
833.728	33.45
833.905	74.41
834.082	-34.13
834.259	-15.7
834.436	135.85
834.612	0.68
834.789	82.6
834.966	19.11
835.143	-40.28
835.319	-126.29
835.496	47.79
835.673	51.88
835.85	47.79
836.026	113.32
836.203	74.41
836.38	-46.42
836.556	45.74
836.733	53.93
836.909	141.99
837.086	6.83
837.262	-58.71
837.439	66.22
837.616	-58.71
837.792	60.07
837.968	64.17
838.145	-103.76
838.321	10.92
838.498	111.27
838.674	27.31
838.851	10.92
839.027	-23.89
839.203	-44.37
839.38	101.03
839.556	-36.18
839.732	-50.52
839.909	-7.51
840.085	-32.08
840.261	39.59
840.437	-15.7
840.614	-5.46
840.79	154.28
840.966	43.69
841.142	25.26
841.318	17.07
841.494	37.55
841.671	47.79
841.847	-36.18
842.023	-17.75
842.199	43.69
842.375	166.57
842.551	-126.29
842.727	-105.81
842.903	88.75
843.079	6.83
843.255	131.75
843.431	27.31
843.607	109.23
843.783	-111.96
843.959	-13.65
844.134	39.59
844.31	68.27
844.486	-58.71
844.662	-77.14
844.838	27.31
845.013	86.7
845.189	101.03
845.365	62.12
845.541	-15.7
845.716	-36.18
845.892	39.59
846.068	-27.99
846.244	-58.71
846.419	17.07
846.595	-17.75
846.77	-3.41
846.946	80.55
847.122	-77.14
847.297	-56.66
847.473	152.23
847.648	-40.28
847.824	-32.08
847.999	-62.8
848.175	39.59
848.35	39.59
848.526	55.98
848.701	41.64
848.876	35.5
849.052	90.79
849.227	10.92
849.403	41.64
849.578	23.21
849.753	2.73
849.929	-15.7
850.104	-62.8
850.279	-23.89
850.454	-9.56
850.63	47.79
850.805	53.93
850.98	23.21
851.155	-46.42
851.33	-25.94
851.505	-140.63
851.681	60.07
851.856	0.68
852.031	-36.18
852.206	-23.89
852.381	-36.18
852.556	2.73
852.731	2.73
852.906	23.21
853.081	25.26
853.256	141.99
853.431	25.26
853.606	10.92
853.781	-83.28
853.956	-50.52
854.131	-3.41
854.305	-54.61
854.48	-54.61
854.655	25.26
854.83	23.21
855.005	-66.9
855.18	-3.41
855.354	4.78
855.529	25.26
855.704	-48.47
855.879	43.69
856.053	-73.04
856.228	6.83
856.403	-34.13
856.577	62.12
856.752	-48.47
856.926	-52.56
857.101	-17.75
857.276	-23.89
857.45	53.93
857.625	29.35
857.799	64.17
857.974	-75.09
858.148	-17.75
858.323	-3.41
858.497	33.45
858.672	-142.68
858.846	-77.14
859.02	-46.42
859.195	-62.8
859.369	-50.52
859.543	-50.52
859.718	4.78
859.892	8.87
860.066	51.88
860.241	8.87
860.415	-25.94
860.589	53.93
860.763	-5.46
860.938	8.87
861.112	-5.46
861.286	-52.56
861.46	35.5
861.634	39.59
861.808	55.98
861.982	-3.41
862.157	-71
862.331	-60.76
862.505	-42.32
862.679	-68.95
862.853	-62.8
863.027	33.45
863.201	74.41
863.375	-11.61
863.549	78.51
863.722	55.98
863.896	8.87
864.07	-9.56
864.244	-32.08
864.418	125.61
864.592	21.16
864.766	0.68
864.939	49.83
865.113	-21.84
865.287	17.07
865.461	-48.47
865.634	49.83
865.808	31.4
865.982	-85.33
866.156	6.83
866.329	-34.13
866.503	-11.61
866.676	123.56
866.85	58.03
867.024	-107.86
867.197	66.22
867.371	39.59
867.544	70.31
867.718	-42.32
867.891	123.56
868.065	-85.33
868.238	-64.85
868.412	164.52
868.585	10.92
868.759	-13.65
868.932	-38.23
869.105	-105.81
869.279	-27.99
869.452	-38.23
869.625	113.32
869.799	-23.89
869.972	-71
870.145	0.68
870.319	141.99
870.492	-56.66
870.665	49.83
870.838	-46.42
871.011	-144.72
871.185	-44.37
871.358	-19.8
871.531	70.31
871.704	37.55
871.877	23.21
872.05	4.78
872.223	-46.42
872.396	82.6
872.569	25.26
872.742	-148.82
872.915	-46.42
873.088	-62.8
873.261	-36.18
873.434	33.45
873.607	23.21
873.78	121.51
873.953	-114
874.126	-9.56
874.299	37.55
874.471	-38.23
874.644	-23.89
874.817	68.27
874.99	236.2
875.163	-7.51
875.335	6.83
875.508	-58.71
875.681	111.27
875.853	-1.37
876.026	-32.08
876.199	123.56
876.371	-64.85
876.544	0.68
876.717	-36.18
876.889	0.68
877.062	76.46
877.234	-60.76
877.407	-101.72
877.579	-9.56
877.752	-38.23
877.924	66.22
878.097	70.31
878.269	37.55
878.442	4.78
878.614	47.79
878.786	58.03
878.959	0.68
879.131	70.31
879.303	-44.37
879.476	-44.37
879.648	49.83
879.82	19.11
879.993	-21.84
880.165	-3.41
880.337	-58.71
880.509	68.27
880.681	-54.61
880.854	-68.95
881.026	111.27
881.198	121.51
881.37	-27.99
881.542	45.74
881.714	-1.37
881.886	-58.71
882.058	47.79
882.23	6.83
882.402	-13.65
882.574	17.07
882.746	98.99
882.918	37.55
883.09	74.41
883.262	-30.04
883.434	37.55
883.606	-81.24
883.778	-52.56
883.95	121.51
884.122	-64.85
884.293	66.22
884.465	64.17
884.637	101.03
884.809	-21.84
884.98	17.07
885.152	64.17
885.324	92.84
885.496	-11.61
885.667	-34.13
885.839	2.73
886.011	98.99
886.182	37.55
886.354	74.41
886.525	66.22
886.697	-36.18
886.869	-50.52
887.04	19.11
887.212	76.46
887.383	129.7
887.555	39.59
887.726	-19.8
887.897	-79.19
888.069	31.4
888.24	37.55
888.412	-5.46
888.583	43.69
888.754	-25.94
888.926	-152.91
889.097	-83.28
889.268	-91.48
889.44	15.02
889.611	-32.08
889.782	-66.9
889.953	-83.28
890.125	86.7
890.296	-89.43
890.467	-36.18
890.638	-64.85
890.809	-17.75
890.98	10.92
891.151	21.16
891.323	152.23
891.494	-62.8
891.665	-3.41
891.836	-11.61
892.007	-52.56
892.178	84.65
892.349	51.88
892.52	-73.04
892.691	10.92
892.862	-60.76
893.032	-68.95
893.203	37.55
893.374	41.64
893.545	88.75
893.716	-52.56
893.887	12.97
894.057	4.78
894.228	94.89
894.399	-134.48
894.57	23.21
894.74	4.78
894.911	107.18
895.082	33.45
895.253	-25.94
895.423	-7.51
895.594	90.79
895.764	58.03
895.935	-81.24
896.106	-17.75
896.276	-105.81
896.447	-3.41
896.617	-50.52
896.788	-81.24
896.958	-25.94
897.129	74.41
897.299	-7.51
897.47	111.27
897.64	86.7
897.81	-34.13
897.981	78.51
898.151	39.59
898.322	31.4
898.492	86.7
898.662	-42.32
898.832	-66.9
899.003	-32.08
899.173	-1.37
899.343	-68.95
899.513	-118.1
