Data from USB4F104151__75__09-30-06-390.txt Node

Date: Wed Feb 26 09:30:06 EST 2025
User: louis
Spectrometer: USB4F10415
Trigger mode: 4
Integration Time (sec): 1.000000E-1
Scans to average: 1
Electric dark correction enabled: true
Nonlinearity correction enabled: false
Boxcar width: 0
XAxis mode: Wavelengths
Number of Pixels in Spectrum: 3648
>>>>>Begin Spectral Data<<<<<
178.204	-342.86
178.424	-342.86
178.644	-342.86
178.864	-357.2
179.084	-359.25
179.304	-31.57
179.524	-9.05
179.744	38.06
179.964	7.34
180.184	83.11
180.404	-82.77
180.624	54.44
180.844	7.34
181.064	-33.62
181.283	-4.95
181.503	-19.29
181.723	-9.05
181.943	-25.43
182.163	167.08
182.383	-21.33
182.602	126.12
182.822	130.22
183.042	187.56
183.262	58.54
183.482	76.97
183.701	62.63
183.921	9.39
184.141	-80.72
184.361	44.2
184.58	54.44
184.8	60.59
185.02	-33.62
185.239	113.83
185.459	54.44
185.679	117.93
185.898	-109.4
186.118	89.26
186.338	105.64
186.557	85.16
186.777	-62.29
186.997	132.26
187.216	81.07
187.436	203.94
187.655	136.36
187.875	70.83
188.095	99.5
188.314	117.93
188.534	126.12
188.753	-66.39
188.973	167.08
189.192	179.37
189.412	-66.39
189.631	111.78
189.851	52.39
190.07	185.51
190.29	-4.95
190.509	-60.24
190.729	-2.9
190.948	79.02
191.168	265.38
191.387	93.35
191.607	87.21
191.826	68.78
192.045	89.26
192.265	48.3
192.484	50.35
192.704	-11.09
192.923	-4.95
193.142	226.47
193.362	132.26
193.581	124.07
193.8	132.26
194.02	119.98
194.239	38.06
194.458	54.44
194.678	122.02
194.897	29.87
195.116	56.49
195.335	19.63
195.555	68.78
195.774	-0.85
195.993	169.13
196.212	23.72
196.432	68.78
196.651	31.91
196.87	-0.85
197.089	310.44
197.308	130.22
197.528	72.87
197.747	27.82
197.966	79.02
198.185	167.08
198.404	-66.39
198.623	93.35
198.842	144.55
199.062	136.36
199.281	130.22
199.5	76.97
199.719	160.94
199.938	-25.43
200.157	105.64
200.376	81.07
200.595	201.9
200.814	-43.86
201.033	-29.52
201.252	210.09
201.471	40.11
201.69	109.74
201.909	50.35
202.128	107.69
202.347	52.39
202.566	56.49
202.785	72.87
203.004	19.63
203.223	191.66
203.442	87.21
203.661	107.69
203.879	68.78
204.098	119.98
204.317	76.97
204.536	99.5
204.755	128.17
204.974	119.98
205.193	17.58
205.411	177.32
205.63	136.36
205.849	136.36
206.068	-21.33
206.287	19.63
206.505	119.98
206.724	64.68
206.943	40.11
207.162	-27.48
207.381	72.87
207.599	95.4
207.818	54.44
208.037	50.35
208.255	68.78
208.474	142.5
208.693	66.73
208.911	70.83
209.13	113.83
209.349	42.15
209.567	122.02
209.786	72.87
210.005	113.83
210.223	81.07
210.442	38.06
210.661	117.93
210.879	36.01
211.098	42.15
211.316	81.07
211.535	97.45
211.753	7.34
211.972	5.29
212.191	52.39
212.409	85.16
212.628	117.93
212.846	-31.57
213.065	113.83
213.283	148.65
213.502	5.29
213.72	-13.14
213.938	130.22
214.157	56.49
214.375	122.02
214.594	105.64
214.812	117.93
215.031	68.78
215.249	72.87
215.467	62.63
215.686	54.44
215.904	11.43
216.122	-2.9
216.341	154.79
216.559	111.78
216.778	156.84
216.996	142.5
217.214	15.53
217.432	5.29
217.651	-17.24
217.869	107.69
218.087	33.96
218.306	-27.48
218.524	83.11
218.742	38.06
218.96	109.74
219.179	5.29
219.397	146.6
219.615	199.85
219.833	175.27
220.051	-17.24
220.27	93.35
220.488	187.56
220.706	60.59
220.924	56.49
221.142	72.87
221.36	109.74
221.578	101.55
221.796	13.48
222.015	72.87
222.233	31.91
222.451	148.65
222.669	40.11
222.887	107.69
223.105	46.25
223.323	5.29
223.541	-21.33
223.759	72.87
223.977	21.67
224.195	105.64
224.413	68.78
224.631	89.26
224.849	-0.85
225.067	259.24
225.285	62.63
225.503	81.07
225.721	31.91
225.939	44.2
226.157	72.87
226.375	210.09
226.592	33.96
226.81	29.87
227.028	113.83
227.246	99.5
227.464	40.11
227.682	132.26
227.9	101.55
228.117	54.44
228.335	42.15
228.553	23.72
228.771	81.07
228.989	97.45
229.206	122.02
229.424	48.3
229.642	-0.85
229.86	74.92
230.077	224.42
230.295	70.83
230.513	179.37
230.731	99.5
230.948	205.99
231.166	181.42
231.384	-0.85
231.601	-35.67
231.819	111.78
232.037	-25.43
232.254	1.19
232.472	29.87
232.689	36.01
232.907	101.55
233.125	76.97
233.342	-50
233.56	-15.19
233.777	5.29
233.995	60.59
234.213	181.42
234.43	130.22
234.648	27.82
234.865	9.39
235.083	97.45
235.3	72.87
235.518	99.5
235.735	162.98
235.953	79.02
236.17	-4.95
236.388	-39.76
236.605	29.87
236.822	119.98
237.04	160.94
237.257	107.69
237.475	48.3
237.692	138.41
237.909	146.6
238.127	15.53
238.344	115.88
238.562	79.02
238.779	-17.24
238.996	7.34
239.214	56.49
239.431	158.89
239.648	62.63
239.865	93.35
240.083	109.74
240.3	74.92
240.517	19.63
240.735	66.73
240.952	171.18
241.169	-0.85
241.386	31.91
241.603	68.78
241.821	29.87
242.038	111.78
242.255	87.21
242.472	-0.85
242.689	122.02
242.907	48.3
243.124	79.02
243.341	66.73
243.558	7.34
243.775	-31.57
243.992	13.48
244.209	58.54
244.426	185.51
244.643	113.83
244.86	74.92
245.078	89.26
245.295	81.07
245.512	72.87
245.729	-11.09
245.946	38.06
246.163	62.63
246.38	31.91
246.597	76.97
246.814	70.83
247.031	25.77
247.248	38.06
247.464	46.25
247.681	130.22
247.898	72.87
248.115	107.69
248.332	1.19
248.549	115.88
248.766	203.94
248.983	126.12
249.2	117.93
249.417	109.74
249.633	50.35
249.85	130.22
250.067	54.44
250.284	50.35
250.501	105.64
250.717	93.35
250.934	-56.15
251.151	52.39
251.368	122.02
251.585	58.54
251.801	79.02
252.018	83.11
252.235	115.88
252.451	87.21
252.668	-27.48
252.885	146.6
253.102	93.35
253.318	-15.19
253.535	105.64
253.752	-35.67
253.968	-11.09
254.185	-13.14
254.401	76.97
254.618	48.3
254.835	46.25
255.051	158.89
255.268	97.45
255.484	95.4
255.701	36.01
255.917	29.87
256.134	50.35
256.351	134.31
256.567	7.34
256.784	62.63
257	-52.05
257.217	97.45
257.433	126.12
257.65	122.02
257.866	158.89
258.082	-2.9
258.299	-29.52
258.515	111.78
258.732	91.31
258.948	-4.95
259.165	64.68
259.381	-17.24
259.597	150.7
259.814	19.63
260.03	42.15
260.246	-31.57
260.463	95.4
260.679	87.21
260.895	81.07
261.112	5.29
261.328	66.73
261.544	11.43
261.761	187.56
261.977	-0.85
262.193	11.43
262.409	148.65
262.626	105.64
262.842	97.45
263.058	56.49
263.274	85.16
263.49	81.07
263.707	62.63
263.923	97.45
264.139	-47.96
264.355	68.78
264.571	115.88
264.787	173.22
265.004	50.35
265.22	31.91
265.436	-4.95
265.652	48.3
265.868	7.34
266.084	-13.14
266.3	62.63
266.516	-33.62
266.732	128.17
266.948	70.83
267.164	7.34
267.38	101.55
267.596	70.83
267.812	191.66
268.028	124.07
268.244	72.87
268.46	17.58
268.676	42.15
268.892	81.07
269.108	9.39
269.324	-50
269.54	11.43
269.756	89.26
269.972	23.72
270.188	9.39
270.403	-4.95
270.619	52.39
270.835	169.13
271.051	42.15
271.267	74.92
271.483	52.39
271.698	87.21
271.914	70.83
272.13	79.02
272.346	38.06
272.562	36.01
272.777	167.08
272.993	74.92
273.209	72.87
273.425	7.34
273.64	-72.53
273.856	179.37
274.072	-19.29
274.287	13.48
274.503	146.6
274.719	103.59
274.934	31.91
275.15	-93.01
275.366	19.63
275.581	66.73
275.797	19.63
276.012	-2.9
276.228	1.19
276.444	105.64
276.659	109.74
276.875	15.53
277.09	36.01
277.306	-15.19
277.521	17.58
277.737	48.3
277.952	126.12
278.168	62.63
278.383	105.64
278.599	25.77
278.814	52.39
279.03	101.55
279.245	101.55
279.461	81.07
279.676	29.87
279.892	36.01
280.107	19.63
280.322	-62.29
280.538	23.72
280.753	74.92
280.969	124.07
281.184	54.44
281.399	195.75
281.615	27.82
281.83	9.39
282.045	19.63
282.26	68.78
282.476	5.29
282.691	81.07
282.906	76.97
283.122	29.87
283.337	27.82
283.552	1.19
283.767	23.72
283.983	130.22
284.198	-11.09
284.413	66.73
284.628	-13.14
284.843	27.82
285.058	101.55
285.274	21.67
285.489	19.63
285.704	119.98
285.919	42.15
286.134	1.19
286.349	128.17
286.564	44.2
286.779	103.59
286.995	-27.48
287.21	31.91
287.425	81.07
287.64	-35.67
287.855	89.26
288.07	-66.39
288.285	89.26
288.5	185.51
288.715	52.39
288.93	72.87
289.145	-4.95
289.36	60.59
289.575	17.58
289.79	117.93
290.004	1.19
290.219	31.91
290.434	15.53
290.649	46.25
290.864	46.25
291.079	-4.95
291.294	48.3
291.509	105.64
291.724	1.19
291.938	11.43
292.153	87.21
292.368	36.01
292.583	58.54
292.798	146.6
293.012	72.87
293.227	138.41
293.442	-25.43
293.657	74.92
293.871	115.88
294.086	62.63
294.301	156.84
294.516	115.88
294.73	95.4
294.945	-68.44
295.16	44.2
295.374	111.78
295.589	132.26
295.804	68.78
296.018	179.37
296.233	212.14
296.447	40.11
296.662	48.3
296.877	130.22
297.091	70.83
297.306	74.92
297.52	-23.38
297.735	-0.85
297.949	31.91
298.164	66.73
298.378	76.97
298.593	19.63
298.807	36.01
299.022	40.11
299.236	160.94
299.451	17.58
299.665	74.92
299.88	58.54
300.094	81.07
300.309	119.98
300.523	85.16
300.737	31.91
300.952	58.54
301.166	117.93
301.381	-2.9
301.595	19.63
301.809	87.21
302.024	48.3
302.238	50.35
302.452	171.18
302.667	40.11
302.881	154.79
303.095	95.4
303.309	48.3
303.524	113.83
303.738	3.24
303.952	19.63
304.166	113.83
304.381	-86.87
304.595	150.7
304.809	70.83
305.023	46.25
305.237	21.67
305.452	105.64
305.666	60.59
305.88	140.46
306.094	117.93
306.308	76.97
306.522	70.83
306.736	134.31
306.95	189.61
307.164	-27.48
307.379	76.97
307.593	136.36
307.807	148.65
308.021	46.25
308.235	185.51
308.449	-80.72
308.663	79.02
308.877	234.66
309.091	40.11
309.305	-0.85
309.519	-39.76
309.733	85.16
309.947	48.3
310.161	40.11
310.374	99.5
310.588	156.84
310.802	89.26
311.016	23.72
311.23	44.2
311.444	-19.29
311.658	64.68
311.872	130.22
312.085	97.45
312.299	226.47
312.513	152.74
312.727	113.83
312.941	-13.14
313.154	89.26
313.368	109.74
313.582	19.63
313.796	95.4
314.009	52.39
314.223	64.68
314.437	93.35
314.651	130.22
314.864	44.2
315.078	40.11
315.292	-56.15
315.505	-35.67
315.719	134.31
315.933	76.97
316.146	54.44
316.36	-13.14
316.573	187.56
316.787	132.26
317.001	76.97
317.214	-33.62
317.428	154.79
317.641	1.19
317.855	54.44
318.068	93.35
318.282	119.98
318.495	87.21
318.709	54.44
318.922	76.97
319.136	179.37
319.349	165.03
319.563	5.29
319.776	13.48
319.99	-2.9
320.203	97.45
320.417	5.29
320.63	79.02
320.843	52.39
321.057	95.4
321.27	76.97
321.483	89.26
321.697	105.64
321.91	97.45
322.124	79.02
322.337	95.4
322.55	13.48
322.763	46.25
322.977	-0.85
323.19	66.73
323.403	126.12
323.617	183.46
323.83	240.81
324.043	46.25
324.256	95.4
324.469	40.11
324.683	101.55
324.896	103.59
325.109	99.5
325.322	-11.09
325.535	93.35
325.748	103.59
325.962	19.63
326.175	160.94
326.388	105.64
326.601	173.22
326.814	42.15
327.027	142.5
327.24	216.23
327.453	-11.09
327.666	105.64
327.879	113.83
328.092	103.59
328.305	31.91
328.518	5.29
328.731	85.16
328.944	-7
329.157	101.55
329.37	-19.29
329.583	212.14
329.796	181.42
330.009	-41.81
330.222	124.07
330.435	171.18
330.648	85.16
330.861	56.49
331.073	70.83
331.286	130.22
331.499	13.48
331.712	31.91
331.925	31.91
332.138	29.87
332.35	154.79
332.563	79.02
332.776	183.46
332.989	60.59
333.202	-17.24
333.414	72.87
333.627	64.68
333.84	56.49
334.053	29.87
334.265	38.06
334.478	44.2
334.691	81.07
334.903	44.2
335.116	64.68
335.329	15.53
335.541	122.02
335.754	105.64
335.966	93.35
336.179	3.24
336.392	83.11
336.604	56.49
336.817	5.29
337.029	144.55
337.242	44.2
337.454	128.17
337.667	113.83
337.88	81.07
338.092	111.78
338.305	122.02
338.517	62.63
338.729	105.64
338.942	103.59
339.154	29.87
339.367	-35.67
339.579	40.11
339.792	-43.86
340.004	154.79
340.217	-11.09
340.429	95.4
340.641	-0.85
340.854	-11.09
341.066	91.31
341.278	107.69
341.491	197.8
341.703	1.19
341.915	5.29
342.128	70.83
342.34	119.98
342.552	25.77
342.764	154.79
342.977	-33.62
343.189	64.68
343.401	56.49
343.613	-0.85
343.826	36.01
344.038	-52.05
344.25	154.79
344.462	-33.62
344.674	-23.38
344.886	29.87
345.099	68.78
345.311	136.36
345.523	115.88
345.735	-25.43
345.947	70.83
346.159	142.5
346.371	38.06
346.583	36.01
346.795	165.03
347.007	-58.2
347.219	128.17
347.431	111.78
347.643	257.19
347.855	-19.29
348.067	167.08
348.279	52.39
348.491	42.15
348.703	33.96
348.915	68.78
349.127	62.63
349.339	72.87
349.551	66.73
349.763	72.87
349.975	54.44
350.187	81.07
350.399	105.64
350.61	9.39
350.822	3.24
351.034	48.3
351.246	19.63
351.458	107.69
351.669	89.26
351.881	105.64
352.093	134.31
352.305	111.78
352.517	128.17
352.728	136.36
352.94	128.17
353.152	158.89
353.363	29.87
353.575	130.22
353.787	193.7
353.999	101.55
354.21	203.94
354.422	-21.33
354.633	74.92
354.845	60.59
355.057	128.17
355.268	48.3
355.48	119.98
355.692	44.2
355.903	-7
356.115	-15.19
356.326	-31.57
356.538	187.56
356.749	97.45
356.961	144.55
357.172	97.45
357.384	-11.09
357.595	285.86
357.807	89.26
358.018	64.68
358.23	76.97
358.441	140.46
358.653	122.02
358.864	13.48
359.075	-35.67
359.287	21.67
359.498	64.68
359.709	87.21
359.921	-60.24
360.132	68.78
360.344	36.01
360.555	-17.24
360.766	138.41
360.977	40.11
361.189	101.55
361.4	-17.24
361.611	179.37
361.823	218.28
362.034	72.87
362.245	-25.43
362.456	-33.62
362.667	99.5
362.879	23.72
363.09	56.49
363.301	113.83
363.512	60.59
363.723	40.11
363.935	9.39
364.146	162.98
364.357	-13.14
364.568	74.92
364.779	-68.44
364.99	115.88
365.201	-15.19
365.412	144.55
365.623	19.63
365.834	83.11
366.045	29.87
366.256	119.98
366.467	85.16
366.678	38.06
366.889	117.93
367.1	-4.95
367.311	158.89
367.522	33.96
367.733	11.43
367.944	117.93
368.155	70.83
368.366	126.12
368.577	91.31
368.788	62.63
368.999	-25.43
369.209	81.07
369.42	208.04
369.631	232.62
369.842	64.68
370.053	29.87
370.264	101.55
370.474	-2.9
370.685	36.01
370.896	64.68
371.107	101.55
371.317	23.72
371.528	50.35
371.739	150.7
371.95	111.78
372.16	107.69
372.371	-7
372.582	3.24
372.792	117.93
373.003	72.87
373.214	128.17
373.424	191.66
373.635	56.49
373.846	126.12
374.056	89.26
374.267	56.49
374.477	177.32
374.688	19.63
374.898	122.02
375.109	136.36
375.319	66.73
375.53	103.59
375.74	122.02
375.951	15.53
376.161	3.24
376.372	146.6
376.582	68.78
376.793	27.82
377.003	21.67
377.214	97.45
377.424	150.7
377.635	95.4
377.845	23.72
378.055	126.12
378.266	-43.86
378.476	29.87
378.686	91.31
378.897	52.39
379.107	107.69
379.317	23.72
379.528	7.34
379.738	79.02
379.948	-13.14
380.158	85.16
380.369	74.92
380.579	50.35
380.789	76.97
380.999	64.68
381.21	81.07
381.42	218.28
381.63	40.11
381.84	134.31
382.05	126.12
382.261	128.17
382.471	76.97
382.681	97.45
382.891	134.31
383.101	72.87
383.311	62.63
383.521	56.49
383.731	117.93
383.941	154.79
384.151	81.07
384.361	46.25
384.571	142.5
384.781	31.91
384.991	224.42
385.201	195.75
385.411	140.46
385.621	29.87
385.831	72.87
386.041	64.68
386.251	3.24
386.461	214.18
386.671	29.87
386.881	36.01
387.091	-4.95
387.301	119.98
387.511	38.06
387.72	68.78
387.93	105.64
388.14	-37.72
388.35	-9.05
388.56	138.41
388.769	126.12
388.979	27.82
389.189	11.43
389.399	56.49
389.609	19.63
389.818	105.64
390.028	54.44
390.238	105.64
390.447	5.29
390.657	101.55
390.867	25.77
391.076	-29.52
391.286	60.59
391.496	62.63
391.705	40.11
391.915	175.27
392.125	122.02
392.334	13.48
392.544	144.55
392.753	33.96
392.963	-52.05
393.172	113.83
393.382	5.29
393.591	222.38
393.801	38.06
394.01	169.13
394.22	72.87
394.429	19.63
394.639	9.39
394.848	85.16
395.058	27.82
395.267	60.59
395.477	25.77
395.686	31.91
395.895	113.83
396.105	162.98
396.314	89.26
396.524	76.97
396.733	31.91
396.942	212.14
397.152	122.02
397.361	171.18
397.57	33.96
397.78	70.83
397.989	68.78
398.198	220.33
398.407	148.65
398.617	-23.38
398.826	64.68
399.035	5.29
399.244	72.87
399.453	46.25
399.663	93.35
399.872	19.63
400.081	1.19
400.29	148.65
400.499	-25.43
400.708	107.69
400.917	1.19
401.127	48.3
401.336	83.11
401.545	148.65
401.754	130.22
401.963	89.26
402.172	95.4
402.381	72.87
402.59	48.3
402.799	21.67
403.008	160.94
403.217	81.07
403.426	87.21
403.635	3.24
403.844	146.6
404.053	38.06
404.262	76.97
404.471	156.84
404.68	146.6
404.888	40.11
405.097	101.55
405.306	81.07
405.515	97.45
405.724	74.92
405.933	81.07
406.142	91.31
406.35	122.02
406.559	11.43
406.768	122.02
406.977	175.27
407.185	193.7
407.394	128.17
407.603	3.24
407.812	91.31
408.02	175.27
408.229	58.54
408.438	33.96
408.646	17.58
408.855	-4.95
409.064	33.96
409.272	-60.24
409.481	126.12
409.69	56.49
409.898	25.77
410.107	81.07
410.315	122.02
410.524	-25.43
410.733	54.44
410.941	83.11
411.15	83.11
411.358	124.07
411.567	224.42
411.775	210.09
411.984	124.07
412.192	62.63
412.401	117.93
412.609	134.31
412.818	150.7
413.026	99.5
413.234	74.92
413.443	50.35
413.651	7.34
413.86	44.2
414.068	64.68
414.276	160.94
414.485	13.48
414.693	167.08
414.901	140.46
415.11	52.39
415.318	52.39
415.526	101.55
415.734	201.9
415.943	44.2
416.151	72.87
416.359	-9.05
416.567	-13.14
416.776	179.37
416.984	81.07
417.192	169.13
417.4	25.77
417.608	27.82
417.817	60.59
418.025	138.41
418.233	167.08
418.441	68.78
418.649	-4.95
418.857	56.49
419.065	226.47
419.273	-43.86
419.481	54.44
419.689	7.34
419.897	87.21
420.105	-33.62
420.313	130.22
420.521	173.22
420.729	105.64
420.937	9.39
421.145	74.92
421.353	109.74
421.561	105.64
421.769	89.26
421.977	-68.44
422.185	146.6
422.393	126.12
422.601	171.18
422.809	142.5
423.017	52.39
423.224	56.49
423.432	122.02
423.64	124.07
423.848	152.74
424.056	19.63
424.263	126.12
424.471	64.68
424.679	195.75
424.887	-29.52
425.094	52.39
425.302	124.07
425.51	42.15
425.718	105.64
425.925	99.5
426.133	76.97
426.341	150.7
426.548	50.35
426.756	-19.29
426.964	160.94
427.171	130.22
427.379	105.64
427.586	171.18
427.794	148.65
428.001	191.66
428.209	74.92
428.417	228.52
428.624	89.26
428.832	97.45
429.039	124.07
429.247	105.64
429.454	138.41
429.662	267.43
429.869	154.79
430.076	220.33
430.284	144.55
430.491	185.51
430.699	158.89
430.906	165.03
431.114	132.26
431.321	169.13
431.528	115.88
431.736	126.12
431.943	169.13
432.15	226.47
432.358	187.56
432.565	199.85
432.772	40.11
432.979	193.7
433.187	97.45
433.394	181.42
433.601	212.14
433.808	306.34
434.016	208.04
434.223	228.52
434.43	251.05
434.637	271.53
434.844	222.38
435.052	179.37
435.259	246.95
435.466	318.63
435.673	261.29
435.88	318.63
436.087	308.39
436.294	343.21
436.501	367.78
436.708	281.77
436.915	249
437.122	392.36
437.329	273.57
437.537	294.05
437.743	294.05
437.95	400.55
438.157	363.69
438.364	427.17
438.571	375.97
438.778	414.88
438.985	466.08
439.192	529.57
439.399	324.77
439.606	412.84
439.813	568.48
440.02	611.49
440.227	627.87
440.433	502.95
440.64	523.43
440.847	455.84
441.054	586.91
441.261	697.5
441.467	576.67
441.674	586.91
441.881	674.98
442.088	713.89
442.294	724.13
442.501	769.18
442.708	758.94
442.914	828.57
443.121	824.48
443.328	859.29
443.534	867.49
443.741	816.29
443.948	896.16
444.154	998.56
444.361	1074.33
444.568	1047.71
444.774	1025.18
444.981	1039.51
445.187	1125.53
445.394	1139.87
445.6	1121.43
445.807	1305.75
446.013	1244.31
446.22	1193.11
446.426	1279.13
446.633	1395.86
446.839	1612.95
447.046	1379.48
447.252	1576.08
447.459	1629.33
447.665	1565.84
447.871	1782.93
448.078	1903.76
448.284	1766.54
448.491	1881.23
448.697	1965.2
448.903	2065.55
449.11	2061.45
449.316	2110.6
449.522	2169.99
449.728	2391.17
449.935	2471.04
450.141	2493.57
450.347	2659.46
450.553	2548.87
450.76	2718.85
450.966	2811.01
451.172	2923.65
451.378	3112.06
451.584	2983.04
451.791	3255.42
451.997	3445.88
452.203	3503.22
452.409	3433.59
452.615	3783.79
452.821	3660.91
453.027	3789.94
453.233	4248.68
453.44	4117.61
453.646	4217.96
453.852	4496.49
454.058	4611.17
454.264	4664.42
454.47	5061.73
454.676	5119.07
454.882	5479.51
455.088	5330.01
455.294	5586.01
455.5	5956.69
455.705	6403.14
455.911	6251.6
456.117	6501.45
456.323	6702.15
456.529	6935.62
456.735	7228.48
456.941	7486.52
457.147	7760.95
457.352	7832.63
457.558	8113.2
457.764	8735.78
457.97	8936.48
458.176	9255.97
458.381	9880.6
458.587	9847.83
458.793	10566.67
458.999	10357.77
459.204	11701.24
459.41	12321.77
459.616	11914.23
459.821	12633.07
460.027	13198.31
460.233	13640.67
460.438	13966.29
460.644	14730.19
460.85	14791.62
461.055	15309.76
461.261	16137.14
461.466	15598.52
461.672	16065.46
461.878	18181.01
462.083	17568.67
462.289	18099.09
462.494	19106.7
462.7	18639.76
462.905	19325.83
463.111	20757.36
463.316	22018.91
463.522	22184.79
463.727	23012.17
463.932	23712.58
464.138	24197.95
464.343	25455.4
464.549	25656.1
464.754	27560.71
464.959	28226.3
465.165	28365.56
465.37	28412.67
465.575	28345.08
465.781	30337.76
465.986	31158.99
466.191	30767.83
466.397	31390.41
466.602	30644.95
466.807	32486.07
467.012	32813.75
467.218	33063.6
467.423	33137.33
467.628	34480.8
467.833	36065.92
468.038	35097.24
468.244	34581.15
468.449	36293.25
468.654	36106.88
468.859	35605.13
469.064	35906.18
469.269	34964.12
469.474	34828.95
469.679	35885.7
469.885	34949.78
470.09	35732.11
470.295	35867.27
470.5	34740.89
470.705	35426.96
470.91	34509.47
471.115	33954.47
471.32	34480.8
471.525	33624.75
471.73	33217.2
471.935	32758.45
472.139	31443.66
472.344	31949.51
472.549	31486.67
472.754	30595.8
472.959	30534.36
473.164	29434.6
473.369	28742.39
473.574	29717.22
473.778	28967.66
473.983	28240.64
474.188	28181.24
474.393	26727.19
474.598	26659.6
474.802	26092.32
475.007	25703.2
475.212	25416.49
475.417	24300.34
475.621	24232.76
475.826	24109.88
476.031	23341.89
476.235	22920.01
476.44	23055.18
476.645	22016.86
476.849	22078.3
477.054	21660.51
477.259	21394.28
477.463	21212.01
477.668	20450.16
477.872	20761.45
478.077	20079.48
478.282	19817.34
478.486	19336.07
478.691	19209.09
478.895	19073.93
479.1	18936.71
479.304	18893.71
479.509	18025.37
479.713	18576.27
479.918	17902.49
480.122	17376.16
480.326	17443.74
480.531	17720.22
480.735	17402.79
480.94	17148.84
481.144	17513.38
481.348	16778.15
481.553	16659.37
481.757	16315.31
481.961	16544.69
482.166	16708.52
482.37	16614.32
482.574	15973.3
482.778	15764.41
482.983	16362.42
483.187	15889.34
483.391	15768.51
483.595	15633.34
483.8	15180.74
484.004	15211.46
484.208	15430.59
484.412	15092.68
484.616	15092.68
484.821	14941.13
485.025	14500.81
485.229	14767.05
485.433	14195.67
485.637	13962.2
485.841	13888.47
486.045	13591.52
486.249	13517.79
486.453	13245.41
486.657	13177.83
486.861	12995.56
487.065	12461.04
487.269	12817.38
487.473	12020.72
487.677	12354.54
487.881	12172.27
488.085	11711.48
488.289	11768.82
488.493	11293.69
488.697	11211.78
488.901	11090.95
489.105	10783.75
489.309	10466.31
489.512	10521.61
489.716	10374.16
489.92	10243.09
490.124	9925.65
490.328	9819.16
490.531	9663.51
490.735	9532.44
490.939	9384.99
491.143	8911.91
491.346	9040.93
491.55	9047.07
491.754	8602.66
491.958	8541.22
492.161	8336.43
492.365	8354.86
492.569	7965.75
492.772	8082.48
492.976	8064.05
493.18	7906.35
493.383	7953.46
493.587	7719.99
493.79	7672.89
493.994	7396.41
494.197	7576.63
494.401	7373.88
494.605	7134.27
494.808	7324.73
495.012	7275.58
495.215	7212.09
495.419	7121.98
495.622	6929.47
495.825	6913.09
496.029	6661.19
496.232	7031.87
496.436	6757.44
496.639	7062.59
496.843	6851.65
497.046	6900.8
497.249	7017.54
497.453	6958.14
497.656	6931.52
497.859	6878.27
498.063	7011.39
498.266	6952
498.469	6915.14
498.673	6814.79
498.876	6966.34
499.079	7031.87
499.282	6863.94
499.485	7212.09
499.689	6986.82
499.892	7224.38
500.095	7255.1
500.298	7343.16
500.501	7134.27
500.705	7402.55
500.908	7416.89
501.111	7433.27
501.314	7642.17
501.517	7611.45
501.72	7822.39
501.923	7603.25
502.126	7781.43
502.329	8137.77
502.532	7879.73
502.735	7939.12
502.938	8150.06
503.141	8385.58
503.344	8367.15
503.547	8584.23
503.75	8559.66
503.953	8754.21
504.156	8916
504.359	8827.94
504.562	8805.41
504.765	9036.83
504.968	9321.5
505.17	9464.86
505.373	9397.28
505.576	9821.2
505.779	9810.96
505.982	9964.56
506.185	10304.53
506.387	10306.57
506.59	10595.34
506.793	10732.55
506.996	10537.99
507.198	11193.34
507.401	11267.07
507.604	11527.16
507.807	11731.96
508.009	11936.76
508.212	11983.86
508.415	12391.41
508.617	12733.42
508.82	12919.78
509.022	13030.37
509.225	13548.51
509.428	13634.52
509.63	13636.57
509.833	13865.94
510.035	14861.26
510.238	14695.37
510.44	15029.19
510.643	15619
510.845	15664.06
511.048	16077.75
511.25	16012.21
511.453	16716.72
511.655	17679.26
511.858	17445.79
512.06	18062.23
512.262	18127.77
512.465	18389.91
512.667	19065.74
512.87	19495.81
513.072	19501.95
513.274	20130.68
513.477	20857.71
513.679	21209.96
513.881	21558.11
514.084	22004.57
514.286	22215.51
514.488	22760.27
514.69	23673.67
514.893	23862.08
515.095	24415.03
515.297	24980.27
515.499	25117.48
515.701	25770.79
515.904	26370.84
516.106	26950.42
516.308	27446.02
516.51	28306.17
516.712	28144.38
516.914	29383.4
517.116	29467.37
517.318	30165.73
517.52	30507.74
517.722	30767.83
517.925	31658.7
518.127	32486.07
518.329	32885.43
518.531	33086.13
518.733	33821.35
518.935	34230.94
519.136	34880.15
519.338	35285.65
519.54	35611.28
519.742	36291.2
519.944	36780.67
520.146	37773.93
520.348	37587.57
520.55	38265.44
520.752	38535.77
520.954	39379.54
521.155	39070.29
521.357	40055.37
521.559	40110.66
521.761	40970.81
521.963	41189.94
522.164	41843.24
522.366	41701.93
522.568	42656.29
522.77	42607.14
522.971	43074.07
523.173	42525.22
523.375	43264.53
523.576	43151.9
523.778	43512.34
523.98	43559.44
524.181	43844.11
524.383	43862.54
524.584	43995.66
524.786	44339.72
524.988	43995.66
525.189	44245.51
525.391	44323.33
525.592	44192.26
525.794	44362.25
525.995	43991.56
526.197	44343.81
526.398	44192.26
526.6	44507.65
526.801	44206.6
527.003	43905.55
527.204	43633.17
527.406	43573.78
527.607	43164.18
527.808	43751.95
528.01	42672.67
528.211	42809.89
528.412	43393.56
528.614	42326.56
528.815	41892.4
529.016	42218.02
529.218	41484.85
529.419	40809.02
529.62	40809.02
529.822	40288.84
530.023	40084.04
530.224	39211.6
530.425	39070.29
530.626	38464.1
530.828	38029.93
531.029	38627.93
531.23	37454.45
531.431	37196.4
531.632	36907.64
531.833	36258.43
532.035	35732.11
532.236	35281.55
532.437	35353.23
532.638	34267.81
532.839	34308.77
533.04	33977
533.241	33170.1
533.442	33733.29
533.643	32445.12
533.844	32266.94
534.045	31800.01
534.246	30857.94
534.447	30659.29
534.648	30155.49
534.849	30040.8
535.05	29397.74
535.251	28936.95
535.451	28637.94
535.652	28257.02
535.853	28283.64
536.054	27474.7
536.255	27091.73
536.456	26583.83
536.657	26620.69
536.857	26207
537.058	25348.9
537.259	25570.08
537.46	25129.77
537.66	24464.18
537.861	24187.71
538.062	24193.85
538.263	23929.66
538.463	23434.05
538.664	23055.18
538.865	22954.83
539.065	22795.09
539.266	22539.09
539.466	22029.15
539.667	21699.42
539.868	21648.22
540.068	21308.26
540.269	20980.59
540.469	20630.38
540.67	20507.51
540.87	20306.8
541.071	19932.03
541.271	20046.71
541.472	19815.29
541.672	19420.03
541.873	19284.87
542.073	18795.4
542.274	18865.03
542.474	18633.61
542.675	18402.19
542.875	18144.15
543.075	17865.63
543.276	17611.68
543.476	17611.68
543.676	17284
543.877	17292.19
544.077	16974.76
544.277	16747.44
544.478	16376.75
544.678	16626.6
544.878	16114.61
545.078	16145.33
545.279	15909.82
545.479	15481.79
545.679	15504.32
545.879	15324.1
546.079	15180.74
546.28	14908.36
546.48	14603.21
546.68	14715.85
546.88	14353.36
547.08	14269.39
547.28	14126.04
547.48	13945.81
547.68	13700.06
547.88	13431.77
548.081	13429.73
548.281	13005.8
548.481	12911.59
548.681	12772.33
548.881	12628.97
549.081	12671.98
549.28	12446.7
549.48	12407.79
549.68	11836.41
549.88	11940.85
550.08	11777.01
550.28	11387.9
550.48	11367.42
550.68	11217.92
550.88	11168.77
551.08	10914.82
551.279	10834.95
551.479	10570.76
551.679	10566.67
551.879	10064.91
552.079	10320.91
552.278	9849.88
552.478	9903.12
552.678	9704.47
552.878	9559.06
553.077	9413.66
553.277	9301.02
553.477	9358.36
553.676	9112.61
553.876	8903.71
554.076	8401.96
554.275	8674.34
554.475	8432.68
554.674	8209.45
554.874	8150.06
555.074	8115.25
555.273	7955.51
555.473	7990.32
555.672	7545.91
555.872	7572.54
556.071	7445.56
556.271	7402.55
556.47	7124.03
556.67	7031.87
556.869	7068.73
557.068	6886.47
557.268	6624.33
557.467	6599.75
557.667	6704.2
557.866	6421.58
558.065	6284.36
558.265	6235.21
558.464	6126.67
558.663	6143.05
558.863	6042.7
559.062	5905.49
559.261	5581.91
559.461	5866.58
559.66	5340.25
559.859	5540.95
560.058	5379.16
560.258	5229.66
560.457	5356.63
560.656	5237.85
560.855	4936.8
561.054	5153.88
561.253	4912.22
561.453	4863.07
561.652	4689
561.851	4871.26
562.05	4512.87
562.249	4349.03
562.448	4668.52
562.647	4463.72
562.846	4320.36
563.045	4359.27
563.244	4154.48
563.443	4293.74
563.642	4099.18
563.841	4105.32
564.04	4086.89
564.239	4029.55
564.438	3767.41
564.637	3755.12
564.836	3734.64
565.035	3767.41
565.234	3570.8
565.432	3658.87
565.631	3726.45
565.83	3603.57
566.029	3529.84
566.228	3437.69
566.427	3488.89
566.625	3241.08
566.824	3251.32
567.023	3345.53
567.222	3183.74
567.42	3175.55
567.619	3157.11
567.818	3058.81
568.016	3175.55
568.215	2964.61
568.414	3040.38
568.612	2980.99
568.811	2755.71
569.01	2800.77
569.208	2690.18
569.407	2745.47
569.605	2727.04
569.804	2675.84
570.002	2610.31
570.201	2591.88
570.4	2450.57
570.598	2505.86
570.797	2473.09
570.995	2331.78
571.193	2495.62
571.392	2421.89
571.59	2274.44
571.789	2477.19
571.987	2272.39
572.186	2239.62
572.384	2172.04
572.582	2100.36
572.781	2165.9
572.979	2192.52
573.177	2073.74
573.376	1957
573.574	2073.74
573.772	2004.11
573.971	1954.96
574.169	1807.5
574.367	2002.06
574.565	1870.99
574.763	1920.14
574.962	1940.62
575.16	1746.06
575.358	1764.5
575.556	1684.62
575.754	1821.84
575.952	1674.39
576.151	1729.68
576.349	1721.49
576.547	1571.99
576.745	1582.23
576.943	1576.08
577.141	1488.02
577.339	1391.77
577.537	1510.55
577.735	1506.45
577.933	1397.91
578.131	1379.48
578.329	1447.06
578.527	1432.72
578.725	1461.4
578.923	1268.89
579.121	1359
579.319	1217.69
579.516	1324.18
579.714	1260.7
579.912	1307.8
580.11	1217.69
580.308	1162.39
580.506	1162.39
580.704	982.17
580.901	1096.86
581.099	1201.3
581.297	1086.62
581.495	1135.77
581.692	1070.23
581.89	1189.02
582.088	1115.29
582.285	1062.04
582.483	1014.94
582.681	1070.23
582.878	996.51
583.076	976.03
583.274	916.64
583.471	1113.24
583.669	904.35
583.866	885.92
584.064	1043.61
584.262	863.39
584.459	818.33
584.657	943.26
584.854	826.53
585.052	894.11
585.249	806.05
585.447	908.44
585.644	695.46
585.841	875.68
586.039	789.66
586.236	986.27
586.434	857.25
586.631	738.46
586.828	740.51
587.026	775.33
587.223	679.07
587.42	670.88
587.618	715.94
587.815	785.57
588.012	681.12
588.21	713.89
588.407	728.22
588.604	679.07
588.801	654.5
588.999	713.89
589.196	734.37
589.393	627.87
589.59	736.42
589.787	640.16
589.984	564.39
590.182	728.22
590.379	679.07
590.576	638.11
590.773	687.26
590.97	591.01
591.167	685.22
591.364	623.78
591.561	591.01
591.758	750.75
591.955	603.3
592.152	552.1
592.349	543.91
592.546	625.83
592.743	562.34
592.94	609.44
593.137	607.39
593.334	709.79
593.531	666.78
593.727	556.19
593.924	644.26
594.121	593.06
594.318	605.35
594.515	693.41
594.712	654.5
594.908	781.47
595.105	515.23
595.302	627.87
595.499	529.57
595.696	748.7
595.892	636.06
596.089	771.23
596.286	629.92
596.482	779.42
596.679	758.94
596.876	650.4
597.072	736.42
597.269	730.27
597.466	838.81
597.662	670.88
597.859	732.32
598.055	890.01
598.252	773.28
598.448	908.44
598.645	953.5
598.841	990.36
599.038	1045.66
599.234	1072.28
599.431	1127.58
599.627	1078.43
599.824	1096.86
600.02	1203.35
600.217	1215.64
600.413	1285.27
600.609	1336.47
600.806	1563.79
601.002	1451.16
601.198	1375.38
601.395	1606.8
601.591	1490.07
601.787	1653.91
601.984	1629.33
602.18	1731.73
602.376	1733.78
602.572	1961.1
602.769	2014.35
602.965	2020.49
603.161	2213
603.357	2147.47
603.553	2354.31
603.75	2239.62
603.946	2370.69
604.142	2339.97
604.338	2741.38
604.534	2745.47
604.73	2677.89
604.926	2753.66
605.122	2946.17
605.318	2849.92
605.514	3009.66
605.71	3171.45
605.906	3298.42
606.102	3265.66
606.298	3400.82
606.494	3542.13
606.69	3648.63
606.886	3875.95
607.082	3757.17
607.278	3888.24
607.474	4209.77
607.67	4275.31
607.866	4140.14
608.062	4443.24
608.257	4568.16
608.453	4643.94
608.649	4744.29
608.845	4830.3
609.041	5018.72
609.236	5119.07
609.432	5416.02
609.628	5336.15
609.824	5596.25
610.019	5776.47
610.215	5864.53
610.411	6167.63
610.606	6202.44
610.802	6267.98
610.998	6605.89
611.193	6831.17
611.389	6753.35
611.584	7130.17
611.78	7224.38
611.976	7449.66
612.171	7681.08
612.367	7728.18
612.562	7951.41
612.758	8180.78
612.953	8467.5
613.149	8778.79
613.344	8920.1
613.539	9243.68
613.735	9602.07
613.93	9608.22
614.126	9767.96
614.321	10243.09
614.517	10517.51
614.712	10591.24
614.907	10974.21
615.103	11236.35
615.298	11371.52
615.493	11865.08
615.688	12033.01
615.884	12563.43
616.079	12569.58
616.274	13126.63
616.47	13112.29
616.665	13636.57
616.86	13956.05
617.055	14523.34
617.25	14625.74
617.445	15176.64
617.641	15182.79
617.836	15743.93
618.031	15903.67
618.226	16669.61
618.421	16823.21
618.616	17284
618.811	17480.61
619.006	18385.81
619.201	18267.03
619.396	18899.85
619.591	19016.58
619.786	19796.86
619.981	19972.99
620.176	20722.54
620.371	20712.3
620.566	21367.65
620.761	21949.28
620.956	22575.95
621.151	22555.47
621.346	23251.78
621.541	23522.12
621.735	24286.01
621.93	24081.21
622.125	25088.81
622.32	25019.18
622.515	25963.29
622.709	26129.18
622.904	26966.8
623.099	27028.24
623.294	27816.71
623.488	27955.97
623.683	28734.2
623.878	28996.34
624.072	29514.47
624.267	29981.41
624.462	30397.15
624.656	30868.18
624.851	31476.43
625.046	31582.92
625.24	31914.69
625.435	32490.17
625.629	33118.9
625.824	33538.73
626.018	33708.71
626.213	33747.62
626.407	34663.07
626.602	34685.59
626.796	35435.15
626.991	35680.91
627.185	36223.62
627.38	36207.23
627.574	36280.96
627.768	36684.41
627.963	36702.84
628.157	36661.88
628.352	36981.37
628.546	36807.29
628.74	37425.78
628.935	36840.06
629.129	37120.63
629.323	36461.18
629.517	36938.36
629.712	36926.07
629.906	36311.68
630.1	35809.93
630.294	35459.73
630.489	35244.69
630.683	35062.42
630.877	34155.17
631.071	33772.2
631.265	32993.97
631.459	32498.36
631.653	31757
631.848	31075.02
632.042	30159.58
632.236	29975.27
632.43	29217.52
632.624	28666.61
632.818	27439.88
633.012	26544.92
633.206	25893.66
633.4	25205.55
633.594	24322.87
633.788	23827.26
633.982	22684.5
634.176	21939.04
634.369	20996.97
634.563	20181.88
634.757	19323.78
634.951	18959.24
635.145	18131.86
635.339	17499.04
635.533	16671.66
635.726	16145.33
635.92	15178.69
636.114	14838.73
636.308	14203.86
636.501	13485.02
636.695	13116.39
636.889	12448.75
637.083	11971.57
637.276	11475.96
637.47	11047.94
637.664	10507.27
637.857	10243.09
638.051	9800.73
638.244	9554.97
638.438	8766.5
638.632	8786.98
638.825	8322.09
639.019	8102.96
639.212	7572.54
639.406	7437.37
639.599	6861.89
639.793	6857.79
639.986	6636.61
640.18	6372.43
640.373	6042.7
640.567	5706.84
640.76	5586.01
640.954	5336.15
641.147	5041.25
641.34	4920.42
641.534	4951.14
641.727	4703.33
641.92	4406.38
642.114	4265.07
642.307	4131.95
642.5	3992.69
642.694	3693.68
642.887	3546.23
643.08	3751.03
643.273	3458.17
643.467	3267.7
643.66	3132.54
643.853	3001.47
644.046	2813.06
644.239	2798.72
644.432	2739.33
644.626	2587.78
644.819	2454.66
645.012	2397.32
645.205	2489.48
645.398	2219.14
645.591	2247.82
645.784	1989.77
645.977	2063.5
646.17	2002.06
646.363	1889.42
646.556	1782.93
646.749	1690.77
646.942	1701.01
647.135	1653.91
647.328	1533.08
647.521	1631.38
647.714	1485.97
647.907	1402.01
648.099	1283.22
648.292	1277.08
648.485	1293.46
648.678	1184.92
648.871	1141.91
649.064	1160.34
649.256	1100.95
649.449	1016.99
649.642	957.6
649.835	957.6
650.027	896.16
650.22	996.51
650.413	849.05
650.605	898.2
650.798	769.18
650.991	754.85
651.183	834.72
651.376	797.85
651.568	752.8
651.761	638.11
651.954	672.93
652.146	638.11
652.339	631.97
652.531	746.66
652.724	535.71
652.916	484.52
653.109	498.85
653.301	677.02
653.494	584.87
653.686	437.41
653.879	584.87
654.071	529.57
654.263	431.27
654.456	500.9
654.648	490.66
654.84	543.91
655.033	384.16
655.225	513.19
655.417	351.4
655.61	455.84
655.802	498.85
655.994	515.23
656.186	277.67
656.379	472.23
656.571	339.11
656.763	347.3
656.955	259.24
657.148	316.58
657.34	400.55
657.532	257.19
657.724	400.55
657.916	322.73
658.108	404.64
658.3	388.26
658.492	400.55
658.684	189.61
658.876	339.11
659.068	171.18
659.26	267.43
659.452	226.47
659.644	185.51
659.836	337.06
660.028	310.44
660.22	175.27
660.412	330.92
660.604	257.19
660.796	269.48
660.988	232.62
661.18	218.28
661.372	300.2
661.563	187.56
661.755	306.34
661.947	117.93
662.139	160.94
662.331	185.51
662.522	261.29
662.714	142.5
662.906	79.02
663.097	210.09
663.289	154.79
663.481	56.49
663.673	232.62
663.864	257.19
664.056	216.23
664.247	122.02
664.439	246.95
664.631	220.33
664.822	177.32
665.014	160.94
665.205	203.94
665.397	119.98
665.588	183.46
665.78	154.79
665.971	220.33
666.163	154.79
666.354	175.27
666.546	113.83
666.737	128.17
666.929	160.94
667.12	107.69
667.311	162.98
667.503	72.87
667.694	105.64
667.885	189.61
668.077	210.09
668.268	107.69
668.459	173.22
668.651	208.04
668.842	165.03
669.033	117.93
669.224	113.83
669.416	287.91
669.607	126.12
669.798	146.6
669.989	273.57
670.18	99.5
670.371	165.03
670.563	105.64
670.754	232.62
670.945	146.6
671.136	249
671.327	42.15
671.518	79.02
671.709	273.57
671.9	199.85
672.091	195.75
672.282	187.56
672.473	132.26
672.664	105.64
672.855	115.88
673.046	130.22
673.237	224.42
673.428	177.32
673.619	156.84
673.809	210.09
674	324.77
674.191	138.41
674.382	179.37
674.573	134.31
674.764	160.94
674.954	226.47
675.145	115.88
675.336	171.18
675.527	193.7
675.717	76.97
675.908	152.74
676.099	154.79
676.289	171.18
676.48	81.07
676.671	142.5
676.861	175.27
677.052	175.27
677.243	130.22
677.433	134.31
677.624	277.67
677.814	214.18
678.005	203.94
678.195	228.52
678.386	177.32
678.576	228.52
678.767	126.12
678.957	203.94
679.148	191.66
679.338	287.91
679.529	220.33
679.719	253.09
679.909	261.29
680.1	306.34
680.29	236.71
680.481	130.22
680.671	294.05
680.861	193.7
681.052	249
681.242	179.37
681.432	214.18
681.622	210.09
681.813	173.22
682.003	269.48
682.193	220.33
682.383	249
682.573	220.33
682.764	220.33
682.954	216.23
683.144	302.25
683.334	197.8
683.524	232.62
683.714	324.77
683.904	384.16
684.094	144.55
684.284	216.23
684.474	363.69
684.664	261.29
684.854	232.62
685.044	199.85
685.234	183.46
685.424	246.95
685.614	199.85
685.804	277.67
685.994	203.94
686.184	283.81
686.374	279.72
686.564	255.14
686.753	292.01
686.943	195.75
687.133	253.09
687.323	216.23
687.513	353.45
687.702	240.81
687.892	232.62
688.082	304.29
688.272	289.96
688.461	261.29
688.651	337.06
688.841	328.87
689.03	236.71
689.22	228.52
689.41	324.77
689.599	216.23
689.789	142.5
689.979	375.97
690.168	267.43
690.358	330.92
690.547	259.24
690.737	281.77
690.926	234.66
691.116	275.62
691.305	314.53
691.495	265.38
691.684	218.28
691.874	183.46
692.063	228.52
692.252	283.81
692.442	269.48
692.631	220.33
692.82	187.56
693.01	246.95
693.199	226.47
693.388	226.47
693.578	292.01
693.767	271.53
693.956	253.09
694.146	210.09
694.335	230.57
694.524	169.13
694.713	306.34
694.902	275.62
695.092	173.22
695.281	226.47
695.47	187.56
695.659	203.94
695.848	142.5
696.037	181.42
696.226	236.71
696.415	195.75
696.604	253.09
696.793	253.09
696.982	169.13
697.171	285.86
697.36	210.09
697.549	187.56
697.738	187.56
697.927	150.7
698.116	122.02
698.305	255.14
698.494	244.9
698.683	210.09
698.872	335.01
699.061	234.66
699.25	228.52
699.438	228.52
699.627	117.93
699.816	359.59
700.005	103.59
700.193	169.13
700.382	269.48
700.571	240.81
700.76	228.52
700.948	226.47
701.137	308.39
701.326	269.48
701.514	160.94
701.703	183.46
701.892	154.79
702.08	314.53
702.269	203.94
702.457	181.42
702.646	212.14
702.834	160.94
703.023	265.38
703.212	195.75
703.4	271.53
703.589	191.66
703.777	187.56
703.965	201.9
704.154	158.89
704.342	117.93
704.531	214.18
704.719	224.42
704.907	277.67
705.096	177.32
705.284	97.45
705.472	283.81
705.661	220.33
705.849	265.38
706.037	285.86
706.226	294.05
706.414	277.67
706.602	119.98
706.79	230.57
706.979	126.12
707.167	179.37
707.355	117.93
707.543	234.66
707.731	148.65
707.919	201.9
708.107	146.6
708.296	212.14
708.484	232.62
708.672	218.28
708.86	179.37
709.048	242.85
709.236	183.46
709.424	230.57
709.612	244.9
709.8	109.74
709.988	208.04
710.176	308.39
710.364	314.53
710.551	160.94
710.739	195.75
710.927	218.28
711.115	240.81
711.303	224.42
711.491	259.24
711.679	177.32
711.866	232.62
712.054	173.22
712.242	169.13
712.43	269.48
712.617	244.9
712.805	283.81
712.993	205.99
713.181	103.59
713.368	296.1
713.556	142.5
713.744	193.7
713.931	349.35
714.119	259.24
714.306	240.81
714.494	150.7
714.682	244.9
714.869	122.02
715.057	224.42
715.244	148.65
715.432	232.62
715.619	214.18
715.807	201.9
715.994	216.23
716.182	234.66
716.369	302.25
716.556	302.25
716.744	91.31
716.931	156.84
717.119	277.67
717.306	253.09
717.493	273.57
717.681	208.04
717.868	156.84
718.055	228.52
718.242	162.98
718.43	281.77
718.617	312.49
718.804	244.9
718.991	355.49
719.179	222.38
719.366	308.39
719.553	267.43
719.74	203.94
719.927	201.9
720.114	220.33
720.301	201.9
720.488	175.27
720.676	210.09
720.863	244.9
721.05	359.59
721.237	265.38
721.424	228.52
721.611	275.62
721.798	158.89
721.985	97.45
722.172	144.55
722.358	255.14
722.545	310.44
722.732	277.67
722.919	283.81
723.106	310.44
723.293	308.39
723.48	179.37
723.667	308.39
723.853	339.11
724.04	314.53
724.227	306.34
724.414	273.57
724.6	253.09
724.787	402.6
724.974	382.12
725.161	324.77
725.347	273.57
725.534	324.77
725.72	316.58
725.907	353.45
726.094	308.39
726.28	244.9
726.467	261.29
726.653	218.28
726.84	300.2
727.027	410.79
727.213	261.29
727.4	275.62
727.586	306.34
727.773	218.28
727.959	318.63
728.145	320.68
728.332	226.47
728.518	199.85
728.705	384.16
728.891	341.16
729.077	330.92
729.264	249
729.45	265.38
729.636	375.97
729.823	322.73
730.009	433.32
730.195	214.18
730.382	328.87
730.568	257.19
730.754	322.73
730.94	216.23
731.126	353.45
731.313	306.34
731.499	326.82
731.685	341.16
731.871	363.69
732.057	367.78
732.243	343.21
732.429	390.31
732.615	435.36
732.801	367.78
732.987	320.68
733.173	341.16
733.359	279.72
733.545	316.58
733.731	345.25
733.917	375.97
734.103	410.79
734.289	251.05
734.475	308.39
734.661	466.08
734.847	357.54
735.033	347.3
735.219	461.99
735.404	326.82
735.59	292.01
735.776	380.07
735.962	335.01
736.148	347.3
736.333	392.36
736.519	339.11
736.705	228.52
736.89	302.25
737.076	373.92
737.262	349.35
737.447	267.43
737.633	269.48
737.819	378.02
738.004	302.25
738.19	380.07
738.375	343.21
738.561	390.31
738.747	404.64
738.932	300.2
739.118	455.84
739.303	343.21
739.489	476.32
739.674	324.77
739.859	306.34
740.045	398.5
740.23	312.49
740.416	224.42
740.601	347.3
740.786	347.3
740.972	318.63
741.157	322.73
741.342	392.36
741.528	349.35
741.713	375.97
741.898	326.82
742.084	388.26
742.269	332.97
742.454	345.25
742.639	332.97
742.824	373.92
743.01	431.27
743.195	558.24
743.38	390.31
743.565	347.3
743.75	408.74
743.935	361.64
744.12	449.7
744.305	228.52
744.49	341.16
744.675	294.05
744.86	367.78
745.045	339.11
745.23	283.81
745.415	326.82
745.6	392.36
745.785	300.2
745.97	461.99
746.155	375.97
746.34	427.17
746.525	378.02
746.71	371.88
746.895	279.72
747.079	351.4
747.264	306.34
747.449	408.74
747.634	373.92
747.819	386.21
748.003	347.3
748.188	216.23
748.373	343.21
748.557	343.21
748.742	249
748.927	347.3
749.111	310.44
749.296	357.54
749.481	337.06
749.665	269.48
749.85	279.72
750.034	359.59
750.219	249
750.404	283.81
750.588	345.25
750.773	277.67
750.957	265.38
751.141	298.15
751.326	328.87
751.51	308.39
751.695	279.72
751.879	273.57
752.064	332.97
752.248	281.77
752.432	392.36
752.617	408.74
752.801	302.25
752.985	292.01
753.17	429.22
753.354	351.4
753.538	302.25
753.722	220.33
753.907	232.62
754.091	277.67
754.275	267.43
754.459	230.57
754.643	210.09
754.828	296.1
755.012	189.61
755.196	302.25
755.38	277.67
755.564	175.27
755.748	246.95
755.932	287.91
756.116	308.39
756.3	292.01
756.484	232.62
756.668	261.29
756.852	183.46
757.036	228.52
757.22	220.33
757.404	175.27
757.588	224.42
757.772	255.14
757.956	152.74
758.14	392.36
758.323	208.04
758.507	218.28
758.691	216.23
758.875	251.05
759.059	351.4
759.242	205.99
759.426	251.05
759.61	281.77
759.794	162.98
759.977	259.24
760.161	441.51
760.345	285.86
760.528	298.15
760.712	251.05
760.895	277.67
761.079	271.53
761.263	238.76
761.446	154.79
761.63	230.57
761.813	380.07
761.997	97.45
762.18	203.94
762.364	201.9
762.547	66.73
762.731	226.47
762.914	152.74
763.098	138.41
763.281	152.74
763.464	150.7
763.648	189.61
763.831	195.75
764.015	203.94
764.198	283.81
764.381	165.03
764.564	138.41
764.748	220.33
764.931	197.8
765.114	66.73
765.297	220.33
765.481	105.64
765.664	167.08
765.847	179.37
766.03	234.66
766.213	154.79
766.397	162.98
766.58	25.77
766.763	292.01
766.946	130.22
767.129	134.31
767.312	126.12
767.495	140.46
767.678	146.6
767.861	160.94
768.044	130.22
768.227	228.52
768.41	126.12
768.593	150.7
768.776	216.23
768.959	167.08
769.142	152.74
769.324	195.75
769.507	99.5
769.69	177.32
769.873	138.41
770.056	251.05
770.239	191.66
770.421	146.6
770.604	193.7
770.787	74.92
770.97	81.07
771.152	101.55
771.335	146.6
771.518	109.74
771.7	197.8
771.883	244.9
772.066	101.55
772.248	117.93
772.431	162.98
772.613	128.17
772.796	130.22
772.978	134.31
773.161	195.75
773.343	79.02
773.526	115.88
773.708	31.91
773.891	3.24
774.073	138.41
774.256	122.02
774.438	236.71
774.621	52.39
774.803	158.89
774.985	91.31
775.168	126.12
775.35	134.31
775.532	212.14
775.715	64.68
775.897	140.46
776.079	70.83
776.261	105.64
776.444	25.77
776.626	113.83
776.808	130.22
776.99	91.31
777.173	154.79
777.355	97.45
777.537	171.18
777.719	185.51
777.901	87.21
778.083	89.26
778.265	21.67
778.447	60.59
778.629	40.11
778.811	74.92
778.993	150.7
779.175	189.61
779.357	93.35
779.539	-29.52
779.721	148.65
779.903	130.22
780.085	-4.95
780.267	109.74
780.449	91.31
780.631	138.41
780.812	195.75
780.994	146.6
781.176	119.98
781.358	124.07
781.54	134.31
781.721	146.6
781.903	236.71
782.085	54.44
782.267	201.9
782.448	48.3
782.63	29.87
782.812	119.98
782.993	169.13
783.175	152.74
783.357	76.97
783.538	158.89
783.72	15.53
783.901	81.07
784.083	97.45
784.264	177.32
784.446	-0.85
784.627	48.3
784.809	138.41
784.99	68.78
785.172	5.29
785.353	31.91
785.535	158.89
785.716	19.63
785.897	31.91
786.079	113.83
786.26	76.97
786.441	152.74
786.623	-31.57
786.804	-9.05
786.985	148.65
787.167	185.51
787.348	19.63
787.529	42.15
787.71	122.02
787.891	124.07
788.073	29.87
788.254	7.34
788.435	187.56
788.616	177.32
788.797	11.43
788.978	31.91
789.159	29.87
789.34	148.65
789.522	117.93
789.703	97.45
789.884	81.07
790.065	56.49
790.246	222.38
790.427	46.25
790.607	154.79
790.788	107.69
790.969	-9.05
791.15	144.55
791.331	52.39
791.512	50.35
791.693	-0.85
791.874	19.63
792.054	201.9
792.235	132.26
792.416	21.67
792.597	13.48
792.778	97.45
792.958	48.3
793.139	44.2
793.32	81.07
793.5	31.91
793.681	136.36
793.862	72.87
794.042	40.11
794.223	11.43
794.404	44.2
794.584	23.72
794.765	44.2
794.945	7.34
795.126	103.59
795.306	154.79
795.487	68.78
795.667	76.97
795.848	56.49
796.028	40.11
796.209	70.83
796.389	130.22
796.57	122.02
796.75	40.11
796.93	48.3
797.111	36.01
797.291	44.2
797.471	101.55
797.652	85.16
797.832	-66.39
798.012	93.35
798.192	46.25
798.373	3.24
798.553	15.53
798.733	144.55
798.913	23.72
799.093	60.59
799.274	66.73
799.454	29.87
799.634	103.59
799.814	36.01
799.994	122.02
800.174	130.22
800.354	105.64
800.534	-9.05
800.714	62.63
800.894	-4.95
801.074	15.53
801.254	-58.2
801.434	154.79
801.614	15.53
801.794	11.43
801.974	1776.78
802.154	52.39
802.334	95.4
802.514	-74.58
802.693	52.39
802.873	-19.29
803.053	95.4
803.233	68.78
803.413	-4.95
803.592	91.31
803.772	7.34
803.952	5.29
804.131	-68.44
804.311	56.49
804.491	111.78
804.67	31.91
804.85	11.43
805.03	58.54
805.209	87.21
805.389	23.72
805.568	-54.1
805.748	-41.81
805.928	23.72
806.107	85.16
806.287	66.73
806.466	60.59
806.646	-4.95
806.825	-9.05
807.004	11.43
807.184	66.73
807.363	122.02
807.543	72.87
807.722	7.34
807.901	105.64
808.081	31.91
808.26	-97.11
808.439	46.25
808.619	21.67
808.798	44.2
808.977	44.2
809.156	56.49
809.336	62.63
809.515	93.35
809.694	-41.81
809.873	-0.85
810.052	111.78
810.231	103.59
810.411	85.16
810.59	99.5
810.769	64.68
810.948	58.54
811.127	-15.19
811.306	-25.43
811.485	50.35
811.664	93.35
811.843	-4.95
812.022	29.87
812.201	144.55
812.38	-90.96
812.559	21.67
812.737	93.35
812.916	-33.62
813.095	56.49
813.274	11.43
813.453	-2.9
813.632	60.59
813.811	158.89
813.989	-13.14
814.168	76.97
814.347	38.06
814.526	33.96
814.704	76.97
814.883	126.12
815.062	-50
815.24	95.4
815.419	-13.14
815.598	68.78
815.776	-95.06
815.955	-13.14
816.133	-95.06
816.312	44.2
816.49	15.53
816.669	25.77
816.847	-25.43
817.026	52.39
817.204	23.72
817.383	-66.39
817.561	-33.62
817.74	50.35
817.918	44.2
818.097	36.01
818.275	-2.9
818.453	-13.14
818.632	-4.95
818.81	119.98
818.988	5.29
819.167	-17.24
819.345	44.2
819.523	-45.91
819.701	99.5
819.879	87.21
820.058	38.06
820.236	97.45
820.414	52.39
820.592	-45.91
820.77	44.2
820.948	-17.24
821.127	-25.43
821.305	54.44
821.483	11.43
821.661	122.02
821.839	15.53
822.017	-0.85
822.195	19.63
822.373	68.78
822.551	17.58
822.729	62.63
822.907	-4.95
823.085	52.39
823.262	15.53
823.44	7.34
823.618	-13.14
823.796	56.49
823.974	40.11
824.152	-13.14
824.329	74.92
824.507	36.01
824.685	38.06
824.863	13.48
825.04	122.02
825.218	23.72
825.396	-17.24
825.574	-2.9
825.751	54.44
825.929	62.63
826.107	-19.29
826.284	-0.85
826.462	62.63
826.639	-56.15
826.817	-35.67
826.994	52.39
827.172	-35.67
827.349	138.41
827.527	-0.85
827.704	3.24
827.882	85.16
828.059	-0.85
828.237	-27.48
828.414	81.07
828.591	-54.1
828.769	62.63
828.946	-41.81
829.124	44.2
829.301	66.73
829.478	33.96
829.655	70.83
829.833	36.01
830.01	-70.48
830.187	11.43
830.364	21.67
830.542	81.07
830.719	152.74
830.896	48.3
831.073	60.59
831.25	5.29
831.427	95.4
831.604	5.29
831.782	-15.19
831.959	60.59
832.136	15.53
832.313	130.22
832.49	162.98
832.667	-54.1
832.844	-29.52
833.021	58.54
833.198	23.72
833.374	54.44
833.551	68.78
833.728	-2.9
833.905	27.82
834.082	-45.91
834.259	38.06
834.436	130.22
834.612	-76.63
834.789	162.98
834.966	13.48
835.143	-4.95
835.319	-86.87
835.496	40.11
835.673	48.3
835.85	99.5
836.026	31.91
836.203	142.5
836.38	21.67
836.556	25.77
836.733	70.83
836.909	142.5
837.086	-13.14
837.262	-88.92
837.439	-74.58
837.616	3.24
837.792	-13.14
837.968	40.11
838.145	-123.73
838.321	87.21
838.498	109.74
838.674	3.24
838.851	130.22
839.027	-56.15
839.203	21.67
839.38	132.26
839.556	15.53
839.732	60.59
839.909	23.72
840.085	136.36
840.261	-86.87
840.437	19.63
840.614	31.91
840.79	115.88
840.966	-21.33
841.142	-7
841.318	-60.24
841.494	119.98
841.671	83.11
841.847	-35.67
842.023	-58.2
842.199	62.63
842.375	115.88
842.551	-13.14
842.727	-17.24
842.903	146.6
843.079	-43.86
843.255	93.35
843.431	-39.76
843.607	-29.52
843.783	-82.77
843.959	76.97
844.134	-27.48
844.31	160.94
844.486	76.97
844.662	-23.38
844.838	76.97
845.013	107.69
845.189	62.63
845.365	3.24
845.541	93.35
845.716	-0.85
845.892	87.21
846.068	11.43
846.244	52.39
846.419	74.92
846.595	-74.58
846.77	-82.77
846.946	97.45
847.122	36.01
847.297	7.34
847.473	130.22
847.648	-123.73
847.824	81.07
847.999	-62.29
848.175	23.72
848.35	50.35
848.526	134.31
848.701	177.32
848.876	46.25
849.052	5.29
849.227	33.96
849.403	-0.85
849.578	29.87
849.753	64.68
849.929	48.3
850.104	-80.72
850.279	-45.91
850.454	97.45
850.63	27.82
850.805	60.59
850.98	109.74
851.155	38.06
851.33	-27.48
851.505	-17.24
851.681	64.68
851.856	-25.43
852.031	66.73
852.206	33.96
852.381	-105.3
852.556	-0.85
852.731	23.72
852.906	-52.05
853.081	27.82
853.256	189.61
853.431	-33.62
853.606	27.82
853.781	-45.91
853.956	-105.3
854.131	79.02
854.305	58.54
854.48	-43.86
854.655	-19.29
854.83	19.63
855.005	-101.2
855.18	58.54
855.354	-37.72
855.529	15.53
855.704	-133.97
855.879	23.72
856.053	-45.91
856.228	-43.86
856.403	-29.52
856.577	72.87
856.752	-37.72
856.926	-33.62
857.101	9.39
857.276	-66.39
857.45	48.3
857.625	36.01
857.799	9.39
857.974	38.06
858.148	-39.76
858.323	7.34
858.497	64.68
858.672	-33.62
858.846	-62.29
859.02	-23.38
859.195	-60.24
859.369	19.63
859.543	23.72
859.718	25.77
859.892	40.11
860.066	111.78
860.241	-50
860.415	-17.24
860.589	-29.52
860.763	19.63
860.938	-27.48
861.112	38.06
861.286	15.53
861.46	-0.85
861.634	13.48
861.808	136.36
861.982	-54.1
862.157	-29.52
862.331	-0.85
862.505	-52.05
862.679	-58.2
862.853	-148.31
863.027	-47.96
863.201	97.45
863.375	-54.1
863.549	27.82
863.722	74.92
863.896	130.22
864.07	68.78
864.244	23.72
864.418	29.87
864.592	27.82
864.766	-41.81
864.939	27.82
865.113	-35.67
865.287	105.64
865.461	-97.11
865.634	-0.85
865.808	-17.24
865.982	-2.9
866.156	-52.05
866.329	-37.72
866.503	52.39
866.676	15.53
866.85	13.48
867.024	-66.39
867.197	93.35
867.371	38.06
867.544	113.83
867.718	-68.44
867.891	105.64
868.065	-37.72
868.238	-41.81
868.412	115.88
868.585	-7
868.759	-54.1
868.932	33.96
869.105	-109.4
869.279	38.06
869.452	-23.38
869.625	40.11
869.799	66.73
869.972	-29.52
870.145	23.72
870.319	54.44
870.492	3.24
870.665	-90.96
870.838	-33.62
871.011	-123.73
871.185	-74.58
871.358	42.15
871.531	42.15
871.704	1.19
871.877	23.72
872.05	-9.05
872.223	-43.86
872.396	122.02
872.569	128.17
872.742	-9.05
872.915	9.39
873.088	-23.38
873.261	1.19
873.434	44.2
873.607	58.54
873.78	83.11
873.953	13.48
874.126	31.91
874.299	-13.14
874.471	101.55
874.644	70.83
874.817	81.07
874.99	109.74
875.163	-25.43
875.335	136.36
875.508	68.78
875.681	66.73
875.853	5.29
876.026	-13.14
876.199	33.96
876.371	7.34
876.544	9.39
876.717	-9.05
876.889	-33.62
877.062	72.87
877.234	-62.29
877.407	-0.85
877.579	5.29
877.752	9.39
877.924	107.69
878.097	25.77
878.269	54.44
878.442	-9.05
878.614	31.91
878.786	81.07
878.959	-35.67
879.131	-0.85
879.303	-66.39
879.476	46.25
879.648	167.08
879.82	40.11
879.993	15.53
880.165	-19.29
880.337	-58.2
880.509	-25.43
880.681	17.58
880.854	-7
881.026	-23.38
881.198	165.03
881.37	-7
881.542	-41.81
881.714	-7
881.886	36.01
882.058	-41.81
882.23	23.72
882.402	89.26
882.574	83.11
882.746	167.08
882.918	126.12
883.09	74.92
883.262	9.39
883.434	25.77
883.606	-60.24
883.778	-23.38
883.95	119.98
884.122	-95.06
884.293	68.78
884.465	3.24
884.637	97.45
884.809	-19.29
884.98	29.87
885.152	9.39
885.324	13.48
885.496	-37.72
885.667	-56.15
885.839	23.72
886.011	113.83
886.182	50.35
886.354	68.78
886.525	79.02
886.697	52.39
886.869	-21.33
887.04	-25.43
887.212	138.41
887.383	117.93
887.555	-2.9
887.726	33.96
887.897	-15.19
888.069	3.24
888.24	85.16
888.412	5.29
888.583	-7
888.754	31.91
888.926	-70.48
889.097	25.77
889.268	-70.48
889.44	-4.95
889.611	11.43
889.782	-9.05
889.953	-50
890.125	117.93
890.296	-17.24
890.467	-31.57
890.638	-119.64
890.809	11.43
890.98	36.01
891.151	113.83
891.323	117.93
891.494	11.43
891.665	50.35
891.836	76.97
892.007	-19.29
892.178	109.74
892.349	-2.9
892.52	-50
892.691	81.07
892.862	15.53
893.032	-115.54
893.203	-25.43
893.374	76.97
893.545	54.44
893.716	-39.76
893.887	105.64
894.057	25.77
894.228	42.15
894.399	-47.96
894.57	130.22
894.74	62.63
894.911	81.07
895.082	19.63
895.253	-54.1
895.423	48.3
895.594	31.91
895.764	15.53
895.935	-17.24
896.106	60.59
896.276	-7
896.447	52.39
896.617	-82.77
896.788	-62.29
896.958	-21.33
897.129	-52.05
897.299	5.29
897.47	122.02
897.64	64.68
897.81	-66.39
897.981	29.87
898.151	5.29
898.322	11.43
898.492	52.39
898.662	33.96
898.832	44.2
899.003	-90.96
899.173	42.15
899.343	21.67
899.513	-15.19
