Data from USB4F104151__51__09-28-15-003.txt Node

Date: Wed Feb 26 09:28:15 EST 2025
User: louis
Spectrometer: USB4F10415
Trigger mode: 4
Integration Time (sec): 1.000000E-1
Scans to average: 1
Electric dark correction enabled: true
Nonlinearity correction enabled: false
Boxcar width: 0
XAxis mode: Wavelengths
Number of Pixels in Spectrum: 3648
>>>>>Begin Spectral Data<<<<<
178.204	-356.86
178.424	-356.86
178.644	-356.86
178.864	-369.15
179.084	-375.29
179.304	-6.66
179.524	13.82
179.744	40.45
179.964	9.73
180.184	34.3
180.404	40.45
180.624	-43.52
180.844	-86.53
181.064	-66.05
181.283	1.54
181.503	28.16
181.723	34.3
181.943	-102.91
182.163	218.62
182.383	5.63
182.602	-29.18
182.822	134.65
183.042	36.35
183.262	28.16
183.482	-68.09
183.701	26.11
183.921	15.87
184.141	-61.95
184.361	52.74
184.58	62.98
184.8	34.3
185.02	54.78
185.239	44.54
185.459	40.45
185.679	77.31
185.898	-92.67
186.118	60.93
186.338	-4.61
186.557	112.13
186.777	-55.81
186.997	3.58
187.216	17.92
187.436	116.22
187.655	7.68
187.875	9.73
188.095	93.69
188.314	34.3
188.534	157.18
188.753	-33.28
188.973	134.65
189.192	144.89
189.412	48.64
189.631	-8.7
189.851	97.79
190.07	144.89
190.29	-16.9
190.509	-12.8
190.729	3.58
190.948	40.45
191.168	220.67
191.387	46.59
191.607	13.82
191.826	46.59
192.045	-10.75
192.265	40.45
192.484	40.45
192.704	24.06
192.923	-74.24
193.142	163.33
193.362	36.35
193.581	110.08
193.8	110.08
194.02	54.78
194.239	26.11
194.458	87.55
194.678	-20.99
194.897	11.78
195.116	83.45
195.335	3.58
195.555	126.46
195.774	-31.23
195.993	48.64
196.212	44.54
196.432	-41.47
196.651	-25.09
196.87	11.78
197.089	175.61
197.308	101.89
197.528	58.88
197.747	69.12
197.966	79.36
198.185	58.88
198.404	-20.99
198.623	101.89
198.842	89.6
199.062	118.27
199.281	116.22
199.5	34.3
199.719	42.5
199.938	99.84
200.157	58.88
200.376	36.35
200.595	93.69
200.814	44.54
201.033	-74.24
201.252	153.09
201.471	62.98
201.69	44.54
201.909	67.07
202.128	87.55
202.347	73.21
202.566	44.54
202.785	7.68
203.004	-64
203.223	177.66
203.442	91.65
203.661	-37.38
203.879	48.64
204.098	124.41
204.317	-61.95
204.536	118.27
204.755	110.08
204.974	34.3
205.193	-43.52
205.411	144.89
205.63	97.79
205.849	3.58
206.068	56.83
206.287	-2.56
206.505	28.16
206.724	-45.57
206.943	11.78
207.162	-37.38
207.381	-12.8
207.599	11.78
207.818	19.97
208.037	-6.66
208.255	-27.14
208.474	19.97
208.693	62.98
208.911	-8.7
209.13	42.5
209.349	40.45
209.567	140.8
209.786	54.78
210.005	56.83
210.223	32.26
210.442	-82.43
210.661	52.74
210.879	-8.7
211.098	-23.04
211.316	44.54
211.535	44.54
211.753	-6.66
211.972	105.98
212.191	-0.51
212.409	-70.14
212.628	44.54
212.846	3.58
213.065	48.64
213.283	93.69
213.502	50.69
213.72	9.73
213.938	60.93
214.157	19.97
214.375	81.41
214.594	-53.76
214.812	42.5
215.031	73.21
215.249	44.54
215.467	60.93
215.686	-23.04
215.904	77.31
216.122	32.26
216.341	138.75
216.559	60.93
216.778	91.65
216.996	140.8
217.214	-12.8
217.432	32.26
217.651	-57.86
217.869	-27.14
218.087	99.84
218.306	-4.61
218.524	56.83
218.742	77.31
218.96	-4.61
219.179	44.54
219.397	42.5
219.615	210.43
219.833	60.93
220.051	-82.43
220.27	114.17
220.488	112.13
220.706	-12.8
220.924	-43.52
221.142	-23.04
221.36	5.63
221.578	97.79
221.796	75.26
222.015	95.74
222.233	15.87
222.451	118.27
222.669	-4.61
222.887	81.41
223.105	-70.14
223.323	44.54
223.541	-53.76
223.759	110.08
223.977	-14.85
224.195	116.22
224.413	73.21
224.631	19.97
224.849	5.63
225.067	101.89
225.285	-31.23
225.503	5.63
225.721	-37.38
225.939	-64
226.157	132.61
226.375	177.66
226.592	3.58
226.81	3.58
227.028	87.55
227.246	114.17
227.464	73.21
227.682	153.09
227.9	101.89
228.117	65.02
228.335	112.13
228.553	52.74
228.771	13.82
228.989	-37.38
229.206	34.3
229.424	1.54
229.642	-55.81
229.86	-61.95
230.077	161.28
230.295	60.93
230.513	91.65
230.731	42.5
230.948	105.98
231.166	93.69
231.384	13.82
231.601	-45.57
231.819	140.8
232.037	-37.38
232.254	-102.91
232.472	15.87
232.689	56.83
232.907	116.22
233.125	30.21
233.342	-23.04
233.56	24.06
233.777	13.82
233.995	58.88
234.213	136.7
234.43	60.93
234.648	69.12
234.865	-6.66
235.083	110.08
235.3	85.5
235.518	-8.7
235.735	120.32
235.953	17.92
236.17	50.69
236.388	-76.29
236.605	13.82
236.822	85.5
237.04	83.45
237.257	7.68
237.475	-115.2
237.692	24.06
237.909	19.97
238.127	46.59
238.344	34.3
238.562	85.5
238.779	-74.24
238.996	-57.86
239.214	3.58
239.431	56.83
239.648	-39.42
239.865	77.31
240.083	126.46
240.3	-2.56
240.517	34.3
240.735	-16.9
240.952	65.02
241.169	89.6
241.386	32.26
241.603	3.58
241.821	-31.23
242.038	77.31
242.255	116.22
242.472	-27.14
242.689	157.18
242.907	93.69
243.124	60.93
243.341	52.74
243.558	-33.28
243.775	-4.61
243.992	46.59
244.209	11.78
244.426	101.89
244.643	77.31
244.86	-18.94
245.078	69.12
245.295	26.11
245.512	-45.57
245.729	-25.09
245.946	60.93
246.163	-18.94
246.38	48.64
246.597	28.16
246.814	-10.75
247.031	3.58
247.248	-23.04
247.464	108.03
247.681	11.78
247.898	85.5
248.115	69.12
248.332	-96.77
248.549	114.17
248.766	105.98
248.983	79.36
249.2	71.17
249.417	40.45
249.633	-20.99
249.85	77.31
250.067	15.87
250.284	-55.81
250.501	26.11
250.717	40.45
250.934	-53.76
251.151	32.26
251.368	-20.99
251.585	50.69
251.801	42.5
252.018	-20.99
252.235	99.84
252.451	-41.47
252.668	3.58
252.885	151.04
253.102	50.69
253.318	28.16
253.535	22.02
253.752	60.93
253.968	-10.75
254.185	-20.99
254.401	56.83
254.618	81.41
254.835	11.78
255.051	126.46
255.268	-8.7
255.484	81.41
255.701	62.98
255.917	28.16
256.134	-53.76
256.351	-53.76
256.567	-29.18
256.784	24.06
257	-29.18
257.217	34.3
257.433	52.74
257.65	1.54
257.866	128.51
258.082	-98.81
258.299	-31.23
258.515	38.4
258.732	9.73
258.948	-6.66
259.165	99.84
259.381	-41.47
259.597	15.87
259.814	50.69
260.03	7.68
260.246	26.11
260.463	48.64
260.679	54.78
260.895	62.98
261.112	-27.14
261.328	9.73
261.544	-16.9
261.761	87.55
261.977	-25.09
262.193	-66.05
262.409	69.12
262.626	11.78
262.842	75.26
263.058	-57.86
263.274	93.69
263.49	50.69
263.707	60.93
263.923	-16.9
264.139	-53.76
264.355	40.45
264.571	1.54
264.787	-20.99
265.004	89.6
265.22	15.87
265.436	15.87
265.652	17.92
265.868	19.97
266.084	-6.66
266.3	28.16
266.516	-78.33
266.732	46.59
266.948	24.06
267.164	5.63
267.38	142.85
267.596	48.64
267.812	153.09
268.028	65.02
268.244	-0.51
268.46	-66.05
268.676	-10.75
268.892	30.21
269.108	22.02
269.324	-18.94
269.54	-107.01
269.756	73.21
269.972	-107.01
270.188	-14.85
270.403	-4.61
270.619	40.45
270.835	11.78
271.051	-29.18
271.267	24.06
271.483	-20.99
271.698	38.4
271.914	19.97
272.13	40.45
272.346	24.06
272.562	5.63
272.777	89.6
272.993	-41.47
273.209	42.5
273.425	56.83
273.64	-35.33
273.856	97.79
274.072	-70.14
274.287	-45.57
274.503	17.92
274.719	151.04
274.934	48.64
275.15	-39.42
275.366	24.06
275.581	-31.23
275.797	-37.38
276.012	30.21
276.228	-72.19
276.444	15.87
276.659	97.79
276.875	-20.99
277.09	17.92
277.306	38.4
277.521	83.45
277.737	32.26
277.952	-0.51
278.168	50.69
278.383	99.84
278.599	67.07
278.814	85.5
279.03	34.3
279.245	134.65
279.461	42.5
279.676	93.69
279.892	-53.76
280.107	-72.19
280.322	-70.14
280.538	114.17
280.753	-10.75
280.969	54.78
281.184	44.54
281.399	105.98
281.615	67.07
281.83	73.21
282.045	-20.99
282.26	-29.18
282.476	93.69
282.691	69.12
282.906	11.78
283.122	1.54
283.337	-14.85
283.552	118.27
283.767	-55.81
283.983	83.45
284.198	-6.66
284.413	97.79
284.628	38.4
284.843	15.87
285.058	38.4
285.274	19.97
285.489	13.82
285.704	11.78
285.919	-25.09
286.134	-16.9
286.349	42.5
286.564	19.97
286.779	138.75
286.995	-35.33
287.21	-6.66
287.425	34.3
287.64	-51.71
287.855	11.78
288.07	-53.76
288.285	114.17
288.5	116.22
288.715	11.78
288.93	-23.04
289.145	-12.8
289.36	22.02
289.575	-31.23
289.79	75.26
290.004	-49.66
290.219	124.41
290.434	-43.52
290.649	-25.09
290.864	-70.14
291.079	7.68
291.294	136.7
291.509	48.64
291.724	34.3
291.938	-72.19
292.153	7.68
292.368	-35.33
292.583	34.3
292.798	77.31
293.012	-2.56
293.227	126.46
293.442	-33.28
293.657	42.5
293.871	69.12
294.086	24.06
294.301	108.03
294.516	77.31
294.73	71.17
294.945	-117.25
295.16	-16.9
295.374	65.02
295.589	11.78
295.804	1.54
296.018	58.88
296.233	65.02
296.447	-43.52
296.662	-4.61
296.877	44.54
297.091	5.63
297.306	52.74
297.52	48.64
297.735	44.54
297.949	62.98
298.164	36.35
298.378	9.73
298.593	-10.75
298.807	-76.29
299.022	-31.23
299.236	87.55
299.451	28.16
299.665	26.11
299.88	-4.61
300.094	46.59
300.309	5.63
300.523	32.26
300.737	-20.99
300.952	75.26
301.166	-4.61
301.381	42.5
301.595	-31.23
301.809	24.06
302.024	3.58
302.238	28.16
302.452	36.35
302.667	69.12
302.881	165.37
303.095	67.07
303.309	112.13
303.524	44.54
303.738	81.41
303.952	3.58
304.166	93.69
304.381	-145.92
304.595	157.18
304.809	-86.53
305.023	-0.51
305.237	3.58
305.452	7.68
305.666	9.73
305.88	99.84
306.094	67.07
306.308	77.31
306.522	159.23
306.736	110.08
306.95	60.93
307.164	-37.38
307.379	11.78
307.593	120.32
307.807	140.8
308.021	83.45
308.235	34.3
308.449	-49.66
308.663	-43.52
308.877	232.96
309.091	69.12
309.305	97.79
309.519	-143.87
309.733	26.11
309.947	-51.71
310.161	62.98
310.374	9.73
310.588	112.13
310.802	-64
311.016	38.4
311.23	60.93
311.444	3.58
311.658	-37.38
311.872	81.41
312.085	42.5
312.299	89.6
312.513	116.22
312.727	67.07
312.941	-8.7
313.154	69.12
313.368	58.88
313.582	54.78
313.796	101.89
314.009	62.98
314.223	181.76
314.437	1.54
314.651	73.21
314.864	-57.86
315.078	-55.81
315.292	-72.19
315.505	71.17
315.719	110.08
315.933	73.21
316.146	-6.66
316.36	-47.62
316.573	24.06
316.787	-12.8
317.001	-6.66
317.214	5.63
317.428	97.79
317.641	46.59
317.855	7.68
318.068	69.12
318.282	-18.94
318.495	165.37
318.709	46.59
318.922	42.5
319.136	58.88
319.349	48.64
319.563	1.54
319.776	36.35
319.99	-66.05
320.203	77.31
320.417	-10.75
320.63	46.59
320.843	189.95
321.057	34.3
321.27	22.02
321.483	32.26
321.697	79.36
321.91	52.74
322.124	-4.61
322.337	-29.18
322.55	-43.52
322.763	48.64
322.977	-16.9
323.19	-49.66
323.403	-4.61
323.617	79.36
323.83	91.65
324.043	9.73
324.256	-6.66
324.469	-37.38
324.683	81.41
324.896	17.92
325.109	30.21
325.322	-102.91
325.535	58.88
325.748	167.42
325.962	54.78
326.175	58.88
326.388	95.74
326.601	91.65
326.814	7.68
327.027	19.97
327.24	105.98
327.453	-76.29
327.666	11.78
327.879	89.6
328.092	101.89
328.305	26.11
328.518	48.64
328.731	15.87
328.944	-12.8
329.157	11.78
329.37	19.97
329.583	198.14
329.796	108.03
330.009	-64
330.222	73.21
330.435	52.74
330.648	-12.8
330.861	13.82
331.073	34.3
331.286	67.07
331.499	71.17
331.712	-23.04
331.925	-25.09
332.138	-10.75
332.35	62.98
332.563	-14.85
332.776	52.74
332.989	-4.61
333.202	7.68
333.414	40.45
333.627	48.64
333.84	52.74
334.053	26.11
334.265	3.58
334.478	28.16
334.691	58.88
334.903	15.87
335.116	-25.09
335.329	-18.94
335.541	-43.52
335.754	163.33
335.966	28.16
336.179	-25.09
336.392	65.02
336.604	73.21
336.817	157.18
337.029	28.16
337.242	95.74
337.454	54.78
337.667	11.78
337.88	103.93
338.092	67.07
338.305	24.06
338.517	-16.9
338.729	36.35
338.942	77.31
339.154	-88.57
339.367	-70.14
339.579	89.6
339.792	-23.04
340.004	69.12
340.217	-0.51
340.429	60.93
340.641	-57.86
340.854	-4.61
341.066	65.02
341.278	97.79
341.491	112.13
341.703	-49.66
341.915	52.74
342.128	42.5
342.34	124.41
342.552	50.69
342.764	91.65
342.977	-20.99
343.189	-8.7
343.401	46.59
343.613	-25.09
343.826	73.21
344.038	-70.14
344.25	58.88
344.462	-107.01
344.674	11.78
344.886	-20.99
345.099	19.97
345.311	13.82
345.523	24.06
345.735	-100.86
345.947	69.12
346.159	60.93
346.371	46.59
346.583	15.87
346.795	155.13
347.007	-74.24
347.219	3.58
347.431	-20.99
347.643	56.83
347.855	5.63
348.067	110.08
348.279	-37.38
348.491	3.58
348.703	85.5
348.915	-12.8
349.127	28.16
349.339	26.11
349.551	-27.14
349.763	5.63
349.975	-0.51
350.187	93.69
350.399	81.41
350.61	140.8
350.822	-45.57
351.034	15.87
351.246	85.5
351.458	122.37
351.669	-31.23
351.881	38.4
352.093	108.03
352.305	50.69
352.517	32.26
352.728	87.55
352.94	52.74
353.152	-8.7
353.363	-53.76
353.575	151.04
353.787	132.61
353.999	9.73
354.21	67.07
354.422	-57.86
354.633	7.68
354.845	-20.99
355.057	50.69
355.268	75.26
355.48	60.93
355.692	-127.49
355.903	-66.05
356.115	-25.09
356.326	-49.66
356.538	60.93
356.749	132.61
356.961	105.98
357.172	38.4
357.384	42.5
357.595	185.85
357.807	-8.7
358.018	32.26
358.23	28.16
358.441	118.27
358.653	44.54
358.864	81.41
359.075	-33.28
359.287	75.26
359.498	11.78
359.709	89.6
359.921	54.78
360.132	108.03
360.344	11.78
360.555	-12.8
360.766	56.83
360.977	-49.66
361.189	52.74
361.4	-82.43
361.611	112.13
361.823	155.13
362.034	60.93
362.245	-82.43
362.456	9.73
362.667	44.54
362.879	-90.62
363.09	81.41
363.301	3.58
363.512	56.83
363.723	9.73
363.935	9.73
364.146	5.63
364.357	42.5
364.568	15.87
364.779	-86.53
364.99	67.07
365.201	-25.09
365.412	122.37
365.623	-115.2
365.834	62.98
366.045	-0.51
366.256	83.45
366.467	52.74
366.678	30.21
366.889	24.06
367.1	48.64
367.311	114.17
367.522	13.82
367.733	75.26
367.944	3.58
368.155	-27.14
368.366	81.41
368.577	69.12
368.788	77.31
368.999	26.11
369.209	-4.61
369.42	116.22
369.631	132.61
369.842	36.35
370.053	-12.8
370.264	40.45
370.474	-55.81
370.685	87.55
370.896	-0.51
371.107	85.5
371.317	138.75
371.528	1.54
371.739	173.57
371.95	75.26
372.16	48.64
372.371	-53.76
372.582	11.78
372.792	71.17
373.003	73.21
373.214	7.68
373.424	58.88
373.635	-55.81
373.846	79.36
374.056	19.97
374.267	40.45
374.477	91.65
374.688	-35.33
374.898	75.26
375.109	38.4
375.319	56.83
375.53	87.55
375.74	9.73
375.951	73.21
376.161	34.3
376.372	85.5
376.582	11.78
376.793	71.17
377.003	-14.85
377.214	-6.66
377.424	1.54
377.635	48.64
377.845	15.87
378.055	112.13
378.266	3.58
378.476	-29.18
378.686	85.5
378.897	-6.66
379.107	65.02
379.317	3.58
379.528	42.5
379.738	71.17
379.948	-94.72
380.158	65.02
380.369	15.87
380.579	85.5
380.789	1.54
380.999	89.6
381.21	101.89
381.42	108.03
381.63	36.35
381.84	36.35
382.05	19.97
382.261	52.74
382.471	91.65
382.681	-0.51
382.891	224.76
383.101	-18.94
383.311	-64
383.521	11.78
383.731	108.03
383.941	9.73
384.151	17.92
384.361	52.74
384.571	101.89
384.781	36.35
384.991	196.09
385.201	171.52
385.411	28.16
385.621	30.21
385.831	-8.7
386.041	19.97
386.251	114.17
386.461	71.17
386.671	-6.66
386.881	71.17
387.091	65.02
387.301	69.12
387.511	-53.76
387.72	1.54
387.93	38.4
388.14	-37.38
388.35	110.08
388.56	89.6
388.769	52.74
388.979	75.26
389.189	19.97
389.399	34.3
389.609	108.03
389.818	38.4
390.028	-45.57
390.238	62.98
390.447	-20.99
390.657	85.5
390.867	159.23
391.076	-25.09
391.286	28.16
391.496	56.83
391.705	-8.7
391.915	44.54
392.125	108.03
392.334	26.11
392.544	52.74
392.753	87.55
392.963	-29.18
393.172	56.83
393.382	1.54
393.591	146.94
393.801	-16.9
394.01	146.94
394.22	77.31
394.429	-29.18
394.639	-45.57
394.848	69.12
395.058	36.35
395.267	-8.7
395.477	48.64
395.686	58.88
395.895	163.33
396.105	185.85
396.314	91.65
396.524	52.74
396.733	11.78
396.942	155.13
397.152	73.21
397.361	83.45
397.57	81.41
397.78	36.35
397.989	40.45
398.198	91.65
398.407	-14.85
398.617	-12.8
398.826	28.16
399.035	9.73
399.244	108.03
399.453	36.35
399.663	-8.7
399.872	11.78
400.081	-86.53
400.29	103.93
400.499	46.59
400.708	73.21
400.917	-43.52
401.127	-0.51
401.336	-4.61
401.545	148.99
401.754	40.45
401.963	89.6
402.172	40.45
402.381	17.92
402.59	36.35
402.799	3.58
403.008	155.13
403.217	112.13
403.426	85.5
403.635	11.78
403.844	28.16
404.053	15.87
404.262	-55.81
404.471	181.76
404.68	73.21
404.888	58.88
405.097	118.27
405.306	65.02
405.515	128.51
405.724	5.63
405.933	95.74
406.142	52.74
406.35	108.03
406.559	7.68
406.768	87.55
406.977	151.04
407.185	-14.85
407.394	24.06
407.603	11.78
407.812	24.06
408.02	122.37
408.229	65.02
408.438	58.88
408.646	-45.57
408.855	-18.94
409.064	99.84
409.272	19.97
409.481	60.93
409.69	15.87
409.898	-12.8
410.107	-8.7
410.315	73.21
410.524	19.97
410.733	34.3
410.941	71.17
411.15	108.03
411.358	85.5
411.567	32.26
411.775	79.36
411.984	112.13
412.192	44.54
412.401	-0.51
412.609	189.95
412.818	99.84
413.026	9.73
413.234	11.78
413.443	28.16
413.651	77.31
413.86	-0.51
414.068	99.84
414.276	95.74
414.485	17.92
414.693	132.61
414.901	103.93
415.11	85.5
415.318	32.26
415.526	28.16
415.734	91.65
415.943	60.93
416.151	85.5
416.359	60.93
416.567	58.88
416.776	60.93
416.984	126.46
417.192	134.65
417.4	52.74
417.608	5.63
417.817	-2.56
418.025	110.08
418.233	151.04
418.441	-55.81
418.649	-49.66
418.857	69.12
419.065	112.13
419.273	19.97
419.481	54.78
419.689	136.7
419.897	-0.51
420.105	-31.23
420.313	120.32
420.521	91.65
420.729	138.75
420.937	-45.57
421.145	28.16
421.353	65.02
421.561	110.08
421.769	77.31
421.977	-0.51
422.185	85.5
422.393	3.58
422.601	60.93
422.809	24.06
423.017	-8.7
423.224	69.12
423.432	87.55
423.64	28.16
423.848	208.38
424.056	42.5
424.263	89.6
424.471	56.83
424.679	50.69
424.887	13.82
425.094	126.46
425.302	34.3
425.51	60.93
425.718	56.83
425.925	69.12
426.133	13.82
426.341	118.27
426.548	32.26
426.756	89.6
426.964	130.56
427.171	-25.09
427.379	52.74
427.586	1.54
427.794	120.32
428.001	54.78
428.209	95.74
428.417	128.51
428.624	140.8
428.832	58.88
429.039	42.5
429.247	48.64
429.454	110.08
429.662	126.46
429.869	118.27
430.076	85.5
430.284	65.02
430.491	212.48
430.699	151.04
430.906	169.47
431.114	140.8
431.321	192
431.528	69.12
431.736	140.8
431.943	148.99
432.15	157.18
432.358	167.42
432.565	177.66
432.772	-0.51
432.979	134.65
433.187	108.03
433.394	196.09
433.601	101.89
433.808	169.47
434.016	200.19
434.223	136.7
434.43	136.7
434.637	169.47
434.844	196.09
435.052	204.28
435.259	196.09
435.466	237.05
435.673	200.19
435.88	222.72
436.087	183.81
436.294	220.67
436.501	273.92
436.708	255.48
436.915	235
437.122	337.4
437.329	220.67
437.537	275.96
437.743	275.96
437.95	396.79
438.157	333.31
438.364	306.68
438.571	357.88
438.778	380.41
438.985	343.55
439.192	419.32
439.399	331.26
439.606	339.45
439.813	488.95
440.02	574.97
440.227	507.38
440.433	515.58
440.64	478.71
440.847	415.23
441.054	505.34
441.261	644.6
441.467	507.38
441.674	558.58
441.881	630.26
442.088	558.58
442.294	675.32
442.501	675.32
442.708	724.47
442.914	673.27
443.121	667.13
443.328	781.81
443.534	749.04
443.741	753.14
443.948	671.22
444.154	796.15
444.361	1015.28
444.568	812.53
444.774	943.6
444.981	851.44
445.187	1068.53
445.394	1046
445.6	990.7
445.807	1156.59
446.013	1052.14
446.22	1039.86
446.426	1185.26
446.633	1310.19
446.839	1428.97
447.046	1170.93
447.252	1486.31
447.459	1379.82
447.665	1318.38
447.871	1617.38
448.078	1623.53
448.284	1588.71
448.491	1785.32
448.697	1875.43
448.903	1943.01
449.11	1936.87
449.316	1967.59
449.522	2123.23
449.728	2186.72
449.935	2321.88
450.141	2174.43
450.347	2418.14
450.553	2244.06
450.76	2371.04
450.966	2481.63
451.172	2698.71
451.378	2715.09
451.584	2670.04
451.791	3057.11
451.997	3055.06
452.203	3059.15
452.409	3192.27
452.615	3347.92
452.821	3333.58
453.027	3243.47
453.233	3849.67
453.44	3565
453.646	3823.05
453.852	4085.19
454.058	4173.25
454.264	4437.44
454.47	4584.89
454.676	4654.52
454.882	5031.35
455.088	4943.28
455.294	5109.17
455.5	5367.21
455.705	5746.09
455.911	5655.98
456.117	5877.16
456.323	6028.71
456.529	5987.75
456.735	6733.21
456.941	6696.35
457.147	7159.19
457.352	7064.98
457.558	7579.02
457.764	8056.2
457.97	8211.84
458.176	8367.49
458.381	9010.55
458.587	8977.78
458.793	9436.53
458.999	9506.16
459.204	10538.34
459.41	10919.26
459.616	10769.76
459.821	11285.84
460.027	11758.92
460.233	12537.15
460.438	12318.02
460.644	13274.42
460.85	13311.28
461.055	13774.13
461.261	14454.05
461.466	14310.69
461.672	14646.56
461.878	16475.4
462.083	15951.12
462.289	16405.77
462.494	17138.94
462.7	17157.37
462.905	17376.5
463.111	18785.51
463.316	19705.04
463.522	20139.21
463.727	20591.81
463.932	21677.24
464.138	22357.16
464.343	22924.45
464.549	23032.99
464.754	24837.25
464.959	25414.78
465.165	25853.05
465.37	25934.96
465.575	25693.3
465.781	27782.23
465.986	28343.38
466.191	27622.49
466.397	28130.39
466.602	27520.09
466.807	29023.3
467.012	29293.63
467.218	29930.55
467.423	30336.05
467.628	30841.9
467.833	32345.11
468.038	31880.22
468.244	31290.4
468.449	32893.96
468.654	32183.32
468.859	32695.31
469.064	32285.72
469.269	31247.4
469.474	31726.62
469.679	32228.37
469.885	31792.15
470.09	32148.5
470.295	32234.52
470.5	31601.69
470.705	31773.72
470.91	31054.89
471.115	30487.6
471.32	31040.55
471.525	30684.2
471.73	30131.25
471.935	29893.69
472.139	28626
472.344	28896.33
472.549	28769.35
472.754	27815
472.959	27178.08
473.164	26475.63
473.369	26078.32
473.574	27006.05
473.778	26412.14
473.983	25932.92
474.188	25263.23
474.393	24059.02
474.598	23866.52
474.802	23846.04
475.007	23225.5
475.212	23051.42
475.417	22172.85
475.621	21972.14
475.826	21355.71
476.031	21089.47
476.235	20763.84
476.44	20653.25
476.645	20047.05
476.849	19981.52
477.054	19821.78
477.259	18932.96
477.463	19143.9
477.668	18476.26
477.872	18648.29
478.077	17736.95
478.282	17566.96
478.486	17407.22
478.691	17167.61
478.895	17116.41
479.1	16866.56
479.304	17077.5
479.509	16321.8
479.713	16684.29
479.918	16266.5
480.122	15695.12
480.326	15983.88
480.531	15619.35
480.735	15645.97
480.94	15400.21
481.144	15793.42
481.348	15248.66
481.553	15107.35
481.757	14624.03
481.961	15039.77
482.166	15031.58
482.37	14832.93
482.574	14472.48
482.778	14452
482.983	14613.79
483.187	14398.76
483.391	14052.65
483.595	14245.16
483.8	13718.83
484.004	13995.31
484.208	13782.32
484.412	13532.47
484.616	13692.21
484.821	13174.07
485.025	13104.44
485.229	13086.01
485.433	12733.76
485.637	12635.46
485.841	12223.81
486.045	12395.84
486.249	12170.57
486.453	11816.27
486.657	12008.78
486.861	11634
487.065	11476.3
487.269	11244.88
487.473	10839.39
487.677	11105.62
487.881	10949.98
488.085	10710.36
488.289	10626.4
488.493	10300.77
488.697	10390.88
488.901	10038.63
489.105	9651.56
489.309	9684.33
489.512	9426.29
489.716	9397.62
489.92	9004.41
490.124	9104.76
490.328	8971.64
490.531	8650.11
490.735	8707.45
490.939	8523.13
491.143	8181.12
491.346	8093.06
491.55	8117.64
491.754	7945.61
491.958	7744.91
492.161	7691.66
492.365	7538.06
492.569	7382.42
492.772	7189.91
492.976	7394.7
493.18	7294.35
493.383	7202.19
493.587	7028.12
493.79	6944.15
493.994	6886.81
494.197	6815.13
494.401	6778.26
494.605	6634.91
494.808	6854.04
495.012	6628.76
495.215	6403.49
495.419	6612.38
495.622	6544.8
495.825	6462.88
496.029	6479.26
496.232	6344.1
496.436	6266.27
496.639	6540.7
496.843	6284.7
497.046	6421.92
497.249	6528.41
497.453	6307.23
497.656	6423.97
497.859	6466.97
498.063	6577.56
498.266	6430.11
498.469	6348.19
498.673	6456.73
498.876	6501.79
499.079	6436.25
499.282	6620.57
499.485	6794.65
499.689	6753.69
499.892	6811.03
500.095	6839.7
500.298	6835.61
500.501	6847.9
500.705	6858.14
500.908	6876.57
501.111	7064.98
501.314	7189.91
501.517	7191.95
501.72	7226.77
501.923	7253.39
502.126	7392.66
502.329	7687.56
502.532	7466.38
502.735	7677.32
502.938	7810.44
503.141	7769.48
503.344	7957.89
503.547	8080.77
503.75	8029.57
503.953	8084.87
504.156	8504.7
504.359	8457.6
504.562	8613.24
504.765	8719.74
504.968	8856.95
505.17	9088.37
505.373	9098.61
505.576	9506.16
505.779	9366.9
505.982	9586.03
506.185	9794.92
506.387	9930.09
506.59	9995.62
506.793	10286.44
506.996	10544.48
507.198	10906.97
507.401	10909.02
507.604	11146.58
507.807	11496.78
508.009	11584.85
508.212	11734.35
508.415	11791.69
508.617	12420.42
508.82	12447.04
509.022	12537.15
509.225	13108.54
509.428	13200.69
509.63	13741.36
509.833	13720.88
510.035	14499.11
510.238	14370.08
510.44	14869.79
510.643	15224.09
510.845	15355.16
511.048	15609.11
511.25	15996.17
511.453	16510.21
511.655	16987.39
511.858	17153.27
512.06	17353.98
512.262	18007.28
512.465	18066.67
512.667	18502.89
512.87	18963.68
513.072	19385.56
513.274	19981.52
513.477	20516.04
513.679	20786.37
513.881	21476.54
514.084	21679.29
514.286	22074.54
514.488	22574.25
514.69	23698.58
514.893	23723.16
515.095	24067.22
515.297	24831.11
515.499	25052.29
515.701	25691.26
515.904	26530.92
516.106	26782.82
516.308	27593.82
516.51	27984.98
516.712	28314.7
516.914	28779.59
517.116	29574.2
517.318	29830.2
517.52	30741.55
517.722	30702.64
517.925	31912.99
518.127	32259.09
518.329	32953.35
518.531	32971.78
518.733	34196.47
518.935	34313.2
519.136	34544.62
519.338	35537.89
519.54	36144.09
519.742	36518.87
519.944	37118.92
520.146	38165.43
520.348	38079.42
520.55	38579.12
520.752	38765.49
520.954	39789.47
521.155	39644.07
521.357	40872.85
521.559	41300.87
521.761	42077.05
521.963	41931.65
522.164	42513.27
522.366	42722.16
522.568	43199.34
522.77	43410.28
522.971	44159.84
523.173	43983.71
523.375	44415.83
523.576	44335.96
523.778	44966.74
523.98	45009.75
524.181	44987.22
524.383	45157.2
524.584	45652.81
524.786	45749.06
524.988	45149.01
525.189	45761.35
525.391	46277.44
525.592	46293.82
525.794	46138.18
525.995	45568.84
526.197	45777.73
526.398	46031.68
526.6	45773.64
526.801	46056.26
527.003	45577.03
527.204	45558.6
527.406	45796.17
527.607	45204.3
527.808	45042.51
528.01	44417.88
528.211	44751.7
528.412	44585.82
528.614	44020.58
528.815	43828.07
529.016	44233.57
529.218	42851.19
529.419	43029.36
529.62	42433.4
529.822	41964.42
530.023	41735.04
530.224	41597.83
530.425	40997.77
530.626	40565.65
530.828	40055.71
531.029	40313.75
531.23	39140.27
531.431	38974.38
531.632	38050.75
531.833	38456.25
532.035	37360.58
532.236	37426.12
532.437	37045.19
532.638	36725.71
532.839	36230.1
533.04	35664.86
533.241	34917.36
533.442	34972.65
533.643	34315.25
533.844	33510.4
534.045	33371.14
534.246	32807.95
534.447	32461.84
534.648	31960.09
534.849	31685.66
535.05	31122.47
535.251	30657.58
535.451	30299.19
535.652	29850.68
535.853	29455.42
536.054	29117.51
536.255	28974.15
536.456	28202.07
536.657	28261.46
536.857	27491.42
537.058	27176.03
537.259	27081.83
537.46	26633.32
537.66	26229.87
537.861	25834.61
538.062	25764.98
538.263	25232.51
538.463	24595.59
538.664	24099.98
538.865	24405.13
539.065	23938.19
539.266	23418.01
539.466	23684.25
539.667	22760.61
539.868	23159.97
540.068	22645.93
540.269	22267.05
540.469	22117.55
540.67	21617.85
540.87	21607.61
541.071	21030.08
541.271	21159.1
541.472	20829.38
541.672	20430.02
541.873	20155.6
542.073	19862.74
542.274	19987.66
542.474	19393.75
542.675	19283.16
542.875	19442.9
543.075	19078.36
543.276	18476.26
543.476	18560.23
543.676	18119.92
543.877	18357.48
544.077	17908.97
544.277	17747.19
544.478	17620.21
544.678	17310.97
544.878	16971.01
545.078	16794.88
545.279	16749.82
545.479	16618.75
545.679	16016.65
545.879	16141.58
546.079	15930.64
546.28	15914.25
546.48	15617.3
546.68	15684.88
546.88	15265.05
547.08	15271.19
547.28	14814.49
547.48	14568.74
547.68	14531.87
547.88	14335.27
548.081	14361.89
548.281	13761.84
548.481	13780.27
548.681	13667.63
548.881	13524.27
549.081	13305.14
549.28	13188.41
549.48	12881.21
549.68	12803.39
549.88	12748.09
550.08	12418.37
550.28	12189
550.48	12289.35
550.68	11836.75
550.88	11666.77
551.08	11625.81
551.279	11550.03
551.479	11162.97
551.679	11132.25
551.879	10990.94
552.079	10677.6
552.278	10634.59
552.478	10593.63
552.678	10255.72
552.878	10374.5
553.077	9979.24
553.277	9868.65
553.477	9823.59
553.676	9626.99
553.876	9260.4
554.076	9254.26
554.275	9276.79
554.475	8902.01
554.674	9092.47
554.874	8572.29
555.074	8492.41
555.273	8533.37
555.473	8273.28
555.672	8027.53
555.872	7974.28
556.071	7900.55
556.271	7890.31
556.47	7636.36
556.67	7562.64
556.869	7421.33
557.068	7435.66
557.268	7118.23
557.467	6993.3
557.667	6997.4
557.866	6837.66
558.065	6741.4
558.265	6477.21
558.464	6342.05
558.663	6397.34
558.863	6276.51
559.062	6340
559.261	6186.4
559.461	6004.13
559.66	5670.31
559.859	5881.25
560.058	5758.38
560.258	5586.35
560.457	5506.48
560.656	5590.44
560.855	5242.29
561.054	5268.91
561.253	5090.74
561.453	5115.31
561.652	5143.99
561.851	5092.79
562.05	4675
562.249	4707.77
562.448	4752.82
562.647	4566.46
562.846	4568.51
563.045	4568.51
563.244	4443.58
563.443	4492.73
563.642	4146.62
563.841	4246.98
564.04	4042.18
564.239	4238.78
564.438	3960.26
564.637	4009.41
564.836	4144.58
565.035	3771.85
565.234	3712.46
565.432	3769.8
565.631	3763.65
565.83	3714.5
566.029	3708.36
566.228	3614.15
566.427	3667.4
566.625	3272.14
566.824	3411.4
567.023	3294.67
567.222	3376.59
567.42	3278.29
567.619	3098.06
567.818	3110.35
568.016	3231.18
568.215	3118.54
568.414	3089.87
568.612	2999.76
568.811	2866.64
569.01	2811.35
569.208	2903.51
569.407	2911.7
569.605	2782.68
569.804	2725.33
570.002	2817.49
570.201	2616.79
570.4	2657.75
570.598	2510.3
570.797	2489.82
570.995	2401.76
571.193	2473.43
571.392	2463.19
571.59	2321.88
571.789	2381.28
571.987	2338.27
572.186	2465.24
572.384	2069.98
572.582	2205.15
572.781	2358.75
572.979	1965.54
573.177	2049.5
573.376	2092.51
573.574	2149.86
573.772	2026.98
573.971	1893.86
574.169	1832.42
574.367	1873.38
574.565	1773.03
574.763	1754.6
574.962	1777.12
575.16	1646.05
575.358	1687.01
575.556	1646.05
575.754	1746.41
575.952	1590.76
576.151	1609.19
576.349	1732.07
576.547	1428.97
576.745	1564.14
576.943	1523.18
577.141	1480.17
577.339	1441.26
577.537	1564.14
577.735	1424.87
577.933	1433.07
578.131	1357.29
578.329	1402.35
578.527	1402.35
578.725	1412.59
578.923	1269.23
579.121	1422.83
579.319	1230.32
579.516	1189.36
579.714	1437.16
579.912	1191.41
580.11	1134.06
580.308	1246.7
580.506	1166.83
580.704	970.23
580.901	1113.58
581.099	1160.69
581.297	1093.1
581.495	1121.77
581.692	962.03
581.89	1134.06
582.088	919.03
582.285	968.18
582.483	1037.81
582.681	1070.58
582.878	970.23
583.076	916.98
583.274	912.88
583.471	1031.66
583.669	959.99
583.866	767.48
584.064	804.34
584.262	691.7
584.459	818.68
584.657	845.3
584.854	939.51
585.052	861.68
585.249	855.54
585.447	884.21
585.644	744.95
585.841	841.2
586.039	755.19
586.236	830.96
586.434	665.08
586.631	634.36
586.828	708.09
587.026	759.28
587.223	605.69
587.42	646.65
587.618	742.9
587.815	701.94
588.012	658.93
588.21	615.93
588.407	589.3
588.604	699.89
588.801	609.78
588.999	622.07
589.196	636.41
589.393	556.54
589.59	673.27
589.787	538.1
589.984	591.35
590.182	488.95
590.379	564.73
590.576	579.06
590.773	620.02
590.97	554.49
591.167	656.89
591.364	620.02
591.561	585.21
591.758	658.93
591.955	615.93
592.152	517.62
592.349	482.81
592.546	413.18
592.743	482.81
592.94	544.25
593.137	542.2
593.334	609.78
593.531	568.82
593.727	640.5
593.924	583.16
594.121	552.44
594.318	452.09
594.515	503.29
594.712	732.66
594.908	589.3
595.105	593.4
595.302	617.97
595.499	607.73
595.696	718.33
595.892	538.1
596.089	697.85
596.286	656.89
596.482	697.85
596.679	658.93
596.876	632.31
597.072	757.24
597.269	626.17
597.466	744.95
597.662	697.85
597.859	613.88
598.055	730.61
598.252	888.31
598.448	886.26
598.645	949.75
598.841	802.29
599.038	943.6
599.234	1035.76
599.431	914.93
599.627	1076.72
599.824	1046
600.02	1166.83
600.217	1160.69
600.413	1115.63
600.609	1183.21
600.806	1402.35
601.002	1353.2
601.198	1263.08
601.395	1474.03
601.591	1437.16
601.787	1625.58
601.984	1592.81
602.18	1584.62
602.376	1682.92
602.572	1773.03
602.769	1881.57
602.965	1910.24
603.161	1994.21
603.357	2076.13
603.553	2203.1
603.75	2141.66
603.946	2272.73
604.142	2239.97
604.338	2467.29
604.534	2463.19
604.73	2487.77
604.926	2598.36
605.122	2782.68
605.318	2692.57
605.514	2883.03
605.71	2977.23
605.906	3233.23
606.102	3091.92
606.298	3347.92
606.494	3397.07
606.69	3542.47
606.886	3599.82
607.082	3599.82
607.278	3708.36
607.474	3845.57
607.67	3857.86
607.866	3923.4
608.062	4308.41
608.257	4373.95
608.453	4255.17
608.649	4607.42
608.845	4312.51
609.041	4568.51
609.236	4953.52
609.432	5004.72
609.628	5189.04
609.824	5393.84
610.019	5479.85
610.215	5580.2
610.411	5696.94
610.606	6061.48
610.802	6043.04
610.998	6221.22
611.193	6348.19
611.389	6340
611.584	6569.37
611.78	6823.32
611.976	7075.22
612.171	7384.46
612.367	7234.96
612.562	7634.32
612.758	7732.62
612.953	8015.24
613.149	8138.12
613.344	8330.62
613.539	8605.05
613.735	8744.31
613.93	9219.44
614.126	9172.34
614.321	9674.09
614.517	10001.77
614.712	10118.5
614.907	10345.83
615.103	10339.68
615.298	10736.99
615.493	11070.81
615.688	11345.23
615.884	12031.3
616.079	11834.7
616.274	12338.5
616.47	12631.36
616.665	12707.13
616.86	13110.58
617.055	13364.53
617.25	13716.78
617.445	14429.48
617.641	14392.61
617.836	14914.84
618.031	15002.91
618.226	15734.03
618.421	15658.26
618.616	16313.61
618.811	16510.21
619.006	17083.64
619.201	17073.4
619.396	17716.47
619.591	17835.25
619.786	18564.32
619.981	18687.2
620.176	19631.32
620.371	19432.66
620.566	20243.66
620.761	20477.13
620.956	21189.82
621.151	21171.39
621.346	21943.47
621.541	21884.08
621.735	22541.48
621.93	23063.71
622.125	23295.13
622.32	23602.33
622.515	24181.9
622.709	24460.43
622.904	25228.42
623.099	25502.84
623.294	26281.07
623.488	26422.38
623.683	26852.45
623.878	26795.11
624.072	27683.93
624.267	28169.3
624.462	28277.84
624.656	28781.64
624.851	29420.61
625.046	29817.91
625.24	30247.99
625.435	30325.81
625.629	31118.37
625.824	31276.07
626.018	31978.52
626.213	31413.28
626.407	32562.19
626.602	32642.06
626.796	33088.52
626.991	33264.64
627.185	33911.8
627.38	33817.6
627.574	34083.83
627.768	34081.78
627.963	34352.12
628.157	34229.24
628.352	34851.82
628.546	34436.08
628.74	35251.17
628.935	34739.18
629.129	34452.47
629.323	34270.2
629.517	34497.52
629.712	33946.62
629.906	34141.18
630.1	33362.95
630.294	33432.58
630.489	33139.72
630.683	32943.11
630.877	31892.51
631.071	31468.58
631.265	31317.03
631.459	30714.92
631.653	29715.51
631.848	29215.81
632.042	28642.38
632.236	28181.59
632.43	27087.97
632.624	26403.95
632.818	25674.87
633.012	24835.21
633.206	24276.11
633.4	23606.42
633.594	22666.41
633.788	21920.95
633.982	21021.89
634.176	20610.25
634.369	19612.88
634.563	18922.72
634.757	18121.96
634.951	17708.27
635.145	16954.62
635.339	16229.64
635.533	15609.11
635.726	14984.48
635.92	14331.17
636.114	13841.71
636.308	13196.6
636.501	12789.05
636.695	12397.89
636.889	11541.84
637.083	11205.97
637.276	10675.55
637.47	10222.95
637.664	9866.6
637.857	9618.8
638.051	9293.17
638.244	8826.23
638.438	8330.62
638.632	8158.6
638.825	7931.27
639.019	7675.27
639.212	7185.81
639.406	6942.1
639.599	6620.57
639.793	6278.56
639.986	6143.39
640.18	6049.19
640.373	5770.66
640.567	5471.66
640.76	5223.86
640.954	4980.15
641.147	4720.06
641.34	4578.75
641.534	4613.56
641.727	4416.96
641.92	4214.21
642.114	3970.5
642.307	3747.27
642.5	3808.71
642.694	3560.91
642.887	3474.89
643.08	3419.6
643.273	3151.31
643.467	3010
643.66	2987.47
643.853	2768.34
644.046	2706.9
644.239	2637.27
644.432	2432.47
644.626	2385.37
644.819	2325.98
645.012	2162.14
645.205	2205.15
645.398	2147.81
645.591	1926.63
645.784	1846.76
645.977	1830.37
646.17	1801.7
646.363	1748.45
646.556	1646.05
646.749	1461.74
646.942	1547.75
647.135	1506.79
647.328	1412.59
647.521	1304.04
647.714	1285.61
647.907	1283.56
648.099	1252.84
648.292	1195.5
648.485	1089.01
648.678	1037.81
648.871	1066.48
649.064	1021.42
649.256	865.78
649.449	892.4
649.642	818.68
649.835	916.98
650.027	806.39
650.22	790
650.413	822.77
650.605	757.24
650.798	634.36
650.991	673.27
651.183	624.12
651.376	767.48
651.568	679.41
651.761	566.78
651.954	560.63
652.146	540.15
652.339	562.68
652.531	593.4
652.724	519.67
652.916	482.81
653.109	380.41
653.301	579.06
653.494	497.14
653.686	355.83
653.879	599.54
654.071	466.42
654.263	339.45
654.456	386.55
654.648	394.75
654.84	419.32
655.033	310.78
655.225	462.33
655.417	265.72
655.61	345.59
655.802	427.51
655.994	404.99
656.186	280.06
656.379	325.12
656.571	255.48
656.763	267.77
656.955	253.44
657.148	290.3
657.34	298.49
657.532	257.53
657.724	224.76
657.916	232.96
658.108	331.26
658.3	249.34
658.492	224.76
658.684	208.38
658.876	265.72
659.068	200.19
659.26	77.31
659.452	155.13
659.644	247.29
659.836	226.81
660.028	216.57
660.22	192
660.412	183.81
660.604	196.09
660.796	196.09
660.988	255.48
661.18	208.38
661.372	269.82
661.563	144.89
661.755	163.33
661.947	101.89
662.139	200.19
662.331	224.76
662.522	151.04
662.714	60.93
662.906	112.13
663.097	198.14
663.289	114.17
663.481	58.88
663.673	177.66
663.864	124.41
664.056	212.48
664.247	87.55
664.439	132.61
664.631	89.6
664.822	189.95
665.014	151.04
665.205	148.99
665.397	124.41
665.588	163.33
665.78	105.98
665.971	157.18
666.163	112.13
666.354	144.89
666.546	89.6
666.737	77.31
666.929	77.31
667.12	138.75
667.311	142.85
667.503	110.08
667.694	194.05
667.885	181.76
668.077	140.8
668.268	44.54
668.459	118.27
668.651	138.75
668.842	132.61
669.033	-37.38
669.224	34.3
669.416	273.92
669.607	126.46
669.798	40.45
669.989	208.38
670.18	38.4
670.371	140.8
670.563	93.69
670.754	206.33
670.945	140.8
671.136	241.15
671.327	142.85
671.518	216.57
671.709	210.43
671.9	130.56
672.091	167.42
672.282	67.07
672.473	97.79
672.664	130.56
672.855	67.07
673.046	124.41
673.237	183.81
673.428	93.69
673.619	112.13
673.809	105.98
674	210.43
674.191	140.8
674.382	110.08
674.573	114.17
674.764	175.61
674.954	105.98
675.145	89.6
675.336	118.27
675.527	114.17
675.717	122.37
675.908	85.5
676.099	89.6
676.289	208.38
676.48	-20.99
676.671	83.45
676.861	101.89
677.052	181.76
677.243	226.81
677.433	142.85
677.624	243.2
677.814	105.98
678.005	28.16
678.195	224.76
678.386	91.65
678.576	103.93
678.767	91.65
678.957	148.99
679.148	179.71
679.338	232.96
679.529	175.61
679.719	140.8
679.909	224.76
680.1	237.05
680.29	183.81
680.481	48.64
680.671	130.56
680.861	157.18
681.052	126.46
681.242	116.22
681.432	185.85
681.622	232.96
681.813	65.02
682.003	142.85
682.193	95.74
682.383	157.18
682.573	163.33
682.764	230.91
682.954	116.22
683.144	208.38
683.334	196.09
683.524	144.89
683.714	232.96
683.904	249.34
684.094	200.19
684.284	212.48
684.474	249.34
684.664	249.34
684.854	151.04
685.044	167.42
685.234	177.66
685.424	126.46
685.614	232.96
685.804	339.45
685.994	200.19
686.184	196.09
686.374	124.41
686.564	228.86
686.753	142.85
686.943	120.32
687.133	173.57
687.323	151.04
687.513	200.19
687.702	257.53
687.892	77.31
688.082	183.81
688.272	243.2
688.461	179.71
688.651	288.25
688.841	202.24
689.03	179.71
689.22	101.89
689.41	257.53
689.599	200.19
689.789	181.76
689.979	222.72
690.168	146.94
690.358	239.1
690.547	192
690.737	318.97
690.926	187.9
691.116	257.53
691.305	177.66
691.495	237.05
691.684	142.85
691.874	101.89
692.063	148.99
692.252	230.91
692.442	275.96
692.631	140.8
692.82	130.56
693.01	206.33
693.199	230.91
693.388	202.24
693.578	214.52
693.767	171.52
693.956	208.38
694.146	130.56
694.335	206.33
694.524	142.85
694.713	163.33
694.902	138.75
695.092	114.17
695.281	222.72
695.47	83.45
695.659	138.75
695.848	220.67
696.037	81.41
696.226	245.24
696.415	228.86
696.604	278.01
696.793	196.09
696.982	73.21
697.171	212.48
697.36	120.32
697.549	208.38
697.738	95.74
697.927	124.41
698.116	128.51
698.305	269.82
698.494	159.23
698.683	157.18
698.872	290.3
699.061	110.08
699.25	110.08
699.438	101.89
699.627	179.71
699.816	282.11
700.005	22.02
700.193	253.44
700.382	128.51
700.571	208.38
700.76	122.37
700.948	204.28
701.137	222.72
701.326	146.94
701.514	110.08
701.703	224.76
701.892	198.14
702.08	257.53
702.269	73.21
702.457	118.27
702.646	194.05
702.834	97.79
703.023	239.1
703.212	187.9
703.4	169.47
703.589	122.37
703.777	206.33
703.965	124.41
704.154	148.99
704.342	138.75
704.531	161.28
704.719	185.85
704.907	278.01
705.096	136.7
705.284	62.98
705.472	208.38
705.661	206.33
705.849	167.42
706.037	284.16
706.226	202.24
706.414	224.76
706.602	151.04
706.79	290.3
706.979	140.8
707.167	173.57
707.355	126.46
707.543	159.23
707.731	198.14
707.919	200.19
708.107	179.71
708.296	140.8
708.484	126.46
708.672	222.72
708.86	241.15
709.048	206.33
709.236	58.88
709.424	212.48
709.612	226.81
709.8	58.88
709.988	83.45
710.176	181.76
710.364	327.16
710.551	148.99
710.739	159.23
710.927	151.04
711.115	228.86
711.303	140.8
711.491	343.55
711.679	159.23
711.866	249.34
712.054	179.71
712.242	249.34
712.43	237.05
712.617	103.93
712.805	263.68
712.993	167.42
713.181	79.36
713.368	265.72
713.556	126.46
713.744	187.9
713.931	323.07
714.119	204.28
714.306	87.55
714.494	163.33
714.682	169.47
714.869	185.85
715.057	146.94
715.244	120.32
715.432	177.66
715.619	157.18
715.807	175.61
715.994	148.99
716.182	239.1
716.369	200.19
716.556	177.66
716.744	81.41
716.931	110.08
717.119	290.3
717.306	138.75
717.493	202.24
717.681	165.37
717.868	116.22
718.055	228.86
718.242	165.37
718.43	224.76
718.617	245.24
718.804	212.48
718.991	232.96
719.179	167.42
719.366	216.57
719.553	273.92
719.74	265.72
719.927	146.94
720.114	134.65
720.301	81.41
720.488	75.26
720.676	171.52
720.863	239.1
721.05	445.95
721.237	235
721.424	286.2
721.611	130.56
721.798	142.85
721.985	165.37
722.172	155.13
722.358	273.92
722.545	216.57
722.732	280.06
722.919	290.3
723.106	224.76
723.293	120.32
723.48	290.3
723.667	175.61
723.853	370.17
724.04	273.92
724.227	304.64
724.414	218.62
724.6	239.1
724.787	290.3
724.974	314.88
725.161	179.71
725.347	159.23
725.534	194.05
725.72	267.77
725.907	265.72
726.094	306.68
726.28	171.52
726.467	288.25
726.653	212.48
726.84	261.63
727.027	390.65
727.213	153.09
727.4	181.76
727.586	232.96
727.773	243.2
727.959	230.91
728.145	187.9
728.332	327.16
728.518	216.57
728.705	267.77
728.891	271.87
729.077	304.64
729.264	245.24
729.45	284.16
729.636	331.26
729.823	257.53
730.009	310.78
730.195	237.05
730.382	302.59
730.568	282.11
730.754	257.53
730.94	275.96
731.126	265.72
731.313	278.01
731.499	216.57
731.685	306.68
731.871	306.68
732.057	292.35
732.243	296.44
732.429	245.24
732.615	396.79
732.801	255.48
732.987	216.57
733.173	278.01
733.359	187.9
733.545	282.11
733.731	280.06
733.917	333.31
734.103	265.72
734.289	335.35
734.475	251.39
734.661	364.03
734.847	343.55
735.033	257.53
735.219	329.21
735.404	284.16
735.59	185.85
735.776	257.53
735.962	298.49
736.148	331.26
736.333	413.18
736.519	265.72
736.705	290.3
736.89	241.15
737.076	206.33
737.262	220.67
737.447	232.96
737.633	323.07
737.819	353.79
738.004	296.44
738.19	261.63
738.375	288.25
738.561	351.74
738.747	355.83
738.932	218.62
739.118	392.7
739.303	269.82
739.489	302.59
739.674	218.62
739.859	245.24
740.045	409.08
740.23	357.88
740.416	175.61
740.601	265.72
740.786	329.21
740.972	237.05
741.157	189.95
741.342	200.19
741.528	253.44
741.713	339.45
741.898	224.76
742.084	288.25
742.269	261.63
742.454	359.93
742.639	355.83
742.824	235
743.01	318.97
743.195	390.65
743.38	278.01
743.565	316.92
743.75	253.44
743.935	337.4
744.12	425.47
744.305	232.96
744.49	249.34
744.675	282.11
744.86	269.82
745.045	347.64
745.23	218.62
745.415	239.1
745.6	392.7
745.785	300.54
745.97	329.21
746.155	314.88
746.34	329.21
746.525	261.63
746.71	388.6
746.895	200.19
747.079	230.91
747.264	306.68
747.449	404.99
747.634	306.68
747.819	310.78
748.003	265.72
748.188	257.53
748.373	323.07
748.557	345.59
748.742	216.57
748.927	245.24
749.111	345.59
749.296	175.61
749.481	251.39
749.665	278.01
749.85	226.81
750.034	343.55
750.219	251.39
750.404	210.43
750.588	161.28
750.773	114.17
750.957	288.25
751.141	290.3
751.326	253.44
751.51	91.65
751.695	243.2
751.879	243.2
752.064	275.96
752.248	247.29
752.432	271.87
752.617	251.39
752.801	298.49
752.985	173.57
753.17	296.44
753.354	239.1
753.538	237.05
753.722	189.95
753.907	118.27
754.091	114.17
754.275	370.17
754.459	142.85
754.643	189.95
754.828	204.28
755.012	187.9
755.196	185.85
755.38	183.81
755.564	110.08
755.748	183.81
755.932	263.68
756.116	194.05
756.3	208.38
756.484	136.7
756.668	208.38
756.852	93.69
757.036	126.46
757.22	171.52
757.404	103.93
757.588	110.08
757.772	290.3
757.956	192
758.14	306.68
758.323	108.03
758.507	177.66
758.691	134.65
758.875	114.17
759.059	241.15
759.242	112.13
759.426	146.94
759.61	134.65
759.794	89.6
759.977	214.52
760.161	327.16
760.345	224.76
760.528	148.99
760.712	77.31
760.895	134.65
761.079	118.27
761.263	89.6
761.446	99.84
761.63	175.61
761.813	278.01
761.997	38.4
762.18	122.37
762.364	175.61
762.547	77.31
762.731	142.85
762.914	155.13
763.098	103.93
763.281	101.89
763.464	165.37
763.648	171.52
763.831	163.33
764.015	62.98
764.198	169.47
764.381	110.08
764.564	200.19
764.748	134.65
764.931	136.7
765.114	101.89
765.297	159.23
765.481	116.22
765.664	175.61
765.847	91.65
766.03	192
766.213	85.5
766.397	44.54
766.58	89.6
766.763	110.08
766.946	89.6
767.129	138.75
767.312	130.56
767.495	120.32
767.678	85.5
767.861	126.46
768.044	101.89
768.227	118.27
768.41	120.32
768.593	126.46
768.776	222.72
768.959	126.46
769.142	222.72
769.324	58.88
769.507	114.17
769.69	54.78
769.873	58.88
770.056	288.25
770.239	161.28
770.421	155.13
770.604	110.08
770.787	120.32
770.97	101.89
771.152	91.65
771.335	148.99
771.518	-29.18
771.7	140.8
771.883	239.1
772.066	11.78
772.248	91.65
772.431	118.27
772.613	151.04
772.796	108.03
772.978	159.23
773.161	151.04
773.343	151.04
773.526	73.21
773.708	-29.18
773.891	1.54
774.073	101.89
774.256	-37.38
774.438	194.05
774.621	19.97
774.803	153.09
774.985	38.4
775.168	206.33
775.35	60.93
775.532	132.61
775.715	83.45
775.897	105.98
776.079	19.97
776.261	101.89
776.444	101.89
776.626	110.08
776.808	75.26
776.99	-8.7
777.173	58.88
777.355	140.8
777.537	19.97
777.719	118.27
777.901	85.5
778.083	71.17
778.265	-8.7
778.447	138.75
778.629	44.54
778.811	60.93
778.993	-20.99
779.175	87.55
779.357	95.74
779.539	-0.51
779.721	32.26
779.903	128.51
780.085	15.87
780.267	58.88
780.449	73.21
780.631	153.09
780.812	169.47
780.994	3.58
781.176	26.11
781.358	34.3
781.54	73.21
781.721	71.17
781.903	110.08
782.085	83.45
782.267	239.1
782.448	3.58
782.63	44.54
782.812	77.31
782.993	69.12
783.175	142.85
783.357	44.54
783.538	75.26
783.72	-45.57
783.901	85.5
784.083	71.17
784.264	-27.14
784.446	19.97
784.627	-70.14
784.809	28.16
784.99	83.45
785.172	22.02
785.353	124.41
785.535	103.93
785.716	-10.75
785.897	38.4
786.079	-8.7
786.26	36.35
786.441	67.07
786.623	-20.99
786.804	-49.66
786.985	11.78
787.167	62.98
787.348	40.45
787.529	38.4
787.71	87.55
787.891	77.31
788.073	-16.9
788.254	-6.66
788.435	177.66
788.616	11.78
788.797	-18.94
788.978	7.68
789.159	-14.85
789.34	52.74
789.522	11.78
789.703	-10.75
789.884	81.41
790.065	81.41
790.246	157.18
790.427	-31.23
790.607	65.02
790.788	69.12
790.969	-51.71
791.15	75.26
791.331	-78.33
791.512	50.69
791.693	-66.05
791.874	38.4
792.054	198.14
792.235	52.74
792.416	-82.43
792.597	60.93
792.778	44.54
792.958	103.93
793.139	9.73
793.32	36.35
793.5	-61.95
793.681	77.31
793.862	24.06
794.042	7.68
794.223	-61.95
794.404	15.87
794.584	-115.2
794.765	-4.61
794.945	52.74
795.126	128.51
795.306	85.5
795.487	34.3
795.667	-98.81
795.848	44.54
796.028	24.06
796.209	28.16
796.389	58.88
796.57	-20.99
796.75	-45.57
796.93	26.11
797.111	-8.7
797.291	28.16
797.471	112.13
797.652	28.16
797.832	-12.8
798.012	56.83
798.192	-20.99
798.373	-72.19
798.553	30.21
798.733	9.73
798.913	-23.04
799.093	-49.66
799.274	9.73
799.454	50.69
799.634	19.97
799.814	32.26
799.994	28.16
800.174	56.83
800.354	-82.43
800.534	-10.75
800.714	69.12
800.894	-8.7
801.074	-53.76
801.254	-39.42
801.434	69.12
801.614	-92.67
801.794	-39.42
801.974	1680.87
802.154	-27.14
802.334	126.46
802.514	42.5
802.693	-45.57
802.873	-20.99
803.053	73.21
803.233	110.08
803.413	7.68
803.592	-39.42
803.772	-20.99
803.952	38.4
804.131	13.82
804.311	97.79
804.491	32.26
804.67	-47.62
804.85	-16.9
805.03	93.69
805.209	67.07
805.389	-53.76
805.568	7.68
805.748	-57.86
805.928	-41.47
806.107	67.07
806.287	9.73
806.466	-0.51
806.646	-20.99
806.825	-0.51
807.004	-47.62
807.184	52.74
807.363	48.64
807.543	-37.38
807.722	-90.62
807.901	187.9
808.081	58.88
808.26	-143.87
808.439	42.5
808.619	-18.94
808.798	9.73
808.977	28.16
809.156	89.6
809.336	46.59
809.515	11.78
809.694	-86.53
809.873	-51.71
810.052	17.92
810.231	9.73
810.411	28.16
810.59	9.73
810.769	-12.8
810.948	44.54
811.127	-98.81
811.306	-4.61
811.485	-49.66
811.664	153.09
811.843	-35.33
812.022	-39.42
812.201	-37.38
812.38	-4.61
812.559	-57.86
812.737	11.78
812.916	-129.53
813.095	-78.33
813.274	40.45
813.453	38.4
813.632	73.21
813.811	75.26
813.989	-74.24
814.168	-0.51
814.347	-82.43
814.526	-27.14
814.704	32.26
814.883	138.75
815.062	-162.3
815.24	50.69
815.419	-162.3
815.598	9.73
815.776	-141.82
815.955	-6.66
816.133	-147.97
816.312	56.83
816.49	69.12
816.669	-39.42
816.847	9.73
817.026	-14.85
817.204	19.97
817.383	69.12
817.561	-57.86
817.74	79.36
817.918	34.3
818.097	-78.33
818.275	-41.47
818.453	52.74
818.632	114.17
818.81	-29.18
818.988	-20.99
819.167	1.54
819.345	44.54
819.523	-45.57
819.701	9.73
819.879	60.93
820.058	11.78
820.236	-0.51
820.414	15.87
820.592	-25.09
820.77	-47.62
820.948	-37.38
821.127	-41.47
821.305	19.97
821.483	-88.57
821.661	56.83
821.839	7.68
822.017	-55.81
822.195	-80.38
822.373	112.13
822.551	-45.57
822.729	36.35
822.907	73.21
823.085	-23.04
823.262	32.26
823.44	-20.99
823.618	-29.18
823.796	-20.99
823.974	-100.86
824.152	-33.28
824.329	-20.99
824.507	-6.66
824.685	93.69
824.863	-12.8
825.04	60.93
825.218	30.21
825.396	1.54
825.574	-43.52
825.751	1.54
825.929	87.55
826.107	17.92
826.284	77.31
826.462	-10.75
826.639	-66.05
826.817	-64
826.994	-2.56
827.172	-29.18
827.349	126.46
827.527	69.12
827.704	11.78
827.882	11.78
828.059	11.78
828.237	-76.29
828.414	52.74
828.591	-61.95
828.769	-45.57
828.946	-47.62
829.124	48.64
829.301	73.21
829.478	-43.52
829.655	52.74
829.833	-16.9
830.01	-78.33
830.187	36.35
830.364	-66.05
830.542	5.63
830.719	75.26
830.896	-2.56
831.073	-61.95
831.25	34.3
831.427	83.45
831.604	1.54
831.782	-88.57
831.959	44.54
832.136	34.3
832.313	-14.85
832.49	-92.67
832.667	-4.61
832.844	-45.57
833.021	44.54
833.198	-33.28
833.374	-27.14
833.551	24.06
833.728	-2.56
833.905	-10.75
834.082	-115.2
834.259	-29.18
834.436	130.56
834.612	-72.19
834.789	3.58
834.966	71.17
835.143	-33.28
835.319	-53.76
835.496	44.54
835.673	-0.51
835.85	126.46
836.026	62.98
836.203	54.78
836.38	-37.38
836.556	19.97
836.733	13.82
836.909	85.5
837.086	-70.14
837.262	-131.58
837.439	-57.86
837.616	-64
837.792	42.5
837.968	-12.8
838.145	-29.18
838.321	5.63
838.498	26.11
838.674	58.88
838.851	-29.18
839.027	3.58
839.203	-64
839.38	42.5
839.556	38.4
839.732	42.5
839.909	-39.42
840.085	93.69
840.261	-80.38
840.437	-53.76
840.614	-33.28
840.79	75.26
840.966	56.83
841.142	-41.47
841.318	-70.14
841.494	67.07
841.671	5.63
841.847	-49.66
842.023	-70.14
842.199	-20.99
842.375	77.31
842.551	-123.39
842.727	-37.38
842.903	71.17
843.079	-109.05
843.255	11.78
843.431	-45.57
843.607	-57.86
843.783	-143.87
843.959	-12.8
844.134	-49.66
844.31	5.63
844.486	-119.29
844.662	28.16
844.838	3.58
845.013	-16.9
845.189	-0.51
845.365	-8.7
845.541	-10.75
845.716	-49.66
845.892	32.26
846.068	-37.38
846.244	-82.43
846.419	38.4
846.595	-82.43
846.77	-72.19
846.946	91.65
847.122	-25.09
847.297	-102.91
847.473	42.5
847.648	-35.33
847.824	-35.33
847.999	-104.96
848.175	-20.99
848.35	-4.61
848.526	38.4
848.701	65.02
848.876	36.35
849.052	52.74
849.227	71.17
849.403	-0.51
849.578	-66.05
849.753	-12.8
849.929	-8.7
850.104	-64
850.279	-20.99
850.454	-84.48
850.63	-33.28
850.805	38.4
850.98	-2.56
851.155	15.87
851.33	13.82
851.505	-66.05
851.681	5.63
851.856	-20.99
852.031	67.07
852.206	69.12
852.381	-6.66
852.556	77.31
852.731	22.02
852.906	60.93
853.081	19.97
853.256	58.88
853.431	-43.52
853.606	-47.62
853.781	-55.81
853.956	-123.39
854.131	3.58
854.305	-84.48
854.48	-0.51
854.655	-61.95
854.83	-61.95
855.005	-20.99
855.18	26.11
855.354	-39.42
855.529	-61.95
855.704	-23.04
855.879	-8.7
856.053	-131.58
856.228	-23.04
856.403	-88.57
856.577	73.21
856.752	-119.29
856.926	-27.14
857.101	56.83
857.276	-53.76
857.45	81.41
857.625	60.93
857.799	36.35
857.974	-45.57
858.148	-96.77
858.323	-49.66
858.497	-37.38
858.672	17.92
858.846	-117.25
859.02	11.78
859.195	-107.01
859.369	24.06
859.543	-18.94
859.718	-10.75
859.892	28.16
860.066	-20.99
860.241	-2.56
860.415	-33.28
860.589	1.54
860.763	13.82
860.938	-8.7
861.112	38.4
861.286	-23.04
861.46	-23.04
861.634	-6.66
861.808	79.36
861.982	-90.62
862.157	-20.99
862.331	-37.38
862.505	-94.72
862.679	-55.81
862.853	-53.76
863.027	-33.28
863.201	48.64
863.375	44.54
863.549	-53.76
863.722	-64
863.896	116.22
864.07	-70.14
864.244	-84.48
864.418	-0.51
864.592	56.83
864.766	9.73
864.939	3.58
865.113	28.16
865.287	56.83
865.461	-133.63
865.634	-20.99
865.808	-4.61
865.982	-78.33
866.156	-84.48
866.329	-33.28
866.503	-0.51
866.676	36.35
866.85	60.93
867.024	-45.57
867.197	-23.04
867.371	60.93
867.544	-18.94
867.718	-55.81
867.891	7.68
868.065	-57.86
868.238	52.74
868.412	3.58
868.585	26.11
868.759	-88.57
868.932	-23.04
869.105	-107.01
869.279	-86.53
869.452	-88.57
869.625	15.87
869.799	-66.05
869.972	-39.42
870.145	-49.66
870.319	38.4
870.492	-6.66
870.665	-53.76
870.838	-31.23
871.011	-61.95
871.185	-45.57
871.358	36.35
871.531	15.87
871.704	-12.8
871.877	3.58
872.05	-23.04
872.223	-55.81
872.396	128.51
872.569	56.83
872.742	-64
872.915	-33.28
873.088	-49.66
873.261	-80.38
873.434	11.78
873.607	-0.51
873.78	122.37
873.953	-98.81
874.126	44.54
874.299	1.54
874.471	-90.62
874.644	-20.99
874.817	34.3
874.99	56.83
875.163	-10.75
875.335	28.16
875.508	-57.86
875.681	105.98
875.853	-25.09
876.026	-12.8
876.199	-16.9
876.371	60.93
876.544	-61.95
876.717	-31.23
876.889	-86.53
877.062	-37.38
877.234	-0.51
877.407	24.06
877.579	-41.47
877.752	9.73
877.924	36.35
878.097	-41.47
878.269	36.35
878.442	65.02
878.614	3.58
878.786	-33.28
878.959	-41.47
879.131	7.68
879.303	-80.38
879.476	-70.14
879.648	58.88
879.82	-37.38
879.993	-25.09
880.165	-37.38
880.337	-90.62
880.509	24.06
880.681	-78.33
880.854	-68.09
881.026	7.68
881.198	97.79
881.37	-94.72
881.542	-18.94
881.714	-16.9
881.886	-39.42
882.058	-29.18
882.23	-31.23
882.402	1.54
882.574	103.93
882.746	44.54
882.918	112.13
883.09	-12.8
883.262	-0.51
883.434	-70.14
883.606	-137.73
883.778	-61.95
883.95	105.98
884.122	-25.09
884.293	13.82
884.465	17.92
884.637	97.79
884.809	-66.05
884.98	-25.09
885.152	-66.05
885.324	3.58
885.496	-41.47
885.667	-64
885.839	32.26
886.011	42.5
886.182	19.97
886.354	-12.8
886.525	48.64
886.697	26.11
886.869	-94.72
887.04	-102.91
887.212	60.93
887.383	101.89
887.555	50.69
887.726	-86.53
887.897	-14.85
888.069	1.54
888.24	65.02
888.412	-8.7
888.583	-53.76
888.754	-29.18
888.926	-88.57
889.097	-47.62
889.268	-47.62
889.44	67.07
889.611	-160.25
889.782	-49.66
889.953	-31.23
890.125	134.65
890.296	-37.38
890.467	-45.57
890.638	-49.66
890.809	-37.38
890.98	-53.76
891.151	-12.8
891.323	44.54
891.494	36.35
891.665	-20.99
891.836	-4.61
892.007	-27.14
892.178	-6.66
892.349	-0.51
892.52	-64
892.691	-70.14
892.862	-109.05
893.032	-78.33
893.203	-16.9
893.374	5.63
893.545	153.09
893.716	-49.66
893.887	17.92
894.057	-88.57
894.228	-113.15
894.399	-10.75
894.57	75.26
894.74	-59.9
894.911	11.78
895.082	-86.53
895.253	-41.47
895.423	-84.48
895.594	-0.51
895.764	56.83
895.935	-20.99
896.106	-18.94
896.276	-61.95
896.447	-16.9
896.617	-31.23
896.788	-53.76
896.958	-88.57
897.129	-37.38
897.299	-57.86
897.47	24.06
897.64	-0.51
897.81	-37.38
897.981	-84.48
898.151	-72.19
898.322	-68.09
898.492	1.54
898.662	-55.81
898.832	-76.29
899.003	-12.8
899.173	13.82
899.343	-76.29
899.513	-14.85
