Data from USB4F104151__25__11-24-47-005.txt Node

Date: Wed Feb 26 11:24:47 EST 2025
User: louis
Spectrometer: USB4F10415
Trigger mode: 4
Integration Time (sec): 1.000000E-1
Scans to average: 1
Electric dark correction enabled: true
Nonlinearity correction enabled: false
Boxcar width: 0
XAxis mode: Wavelengths
Number of Pixels in Spectrum: 3648
>>>>>Begin Spectral Data<<<<<
178.204	-406.35
178.424	-406.35
178.644	-406.35
178.864	-443.21
179.084	-402.26
179.304	-11.09
179.524	38.06
179.744	-13.14
179.964	66.73
180.184	36.01
180.404	23.72
180.624	-74.58
180.844	-2.9
181.064	7.34
181.283	46.25
181.503	-97.11
181.723	-19.29
181.943	-119.64
182.163	165.03
182.383	-31.57
182.602	70.83
182.822	113.83
183.042	85.16
183.262	-78.68
183.482	23.72
183.701	29.87
183.921	58.54
184.141	-64.34
184.361	27.82
184.58	95.4
184.8	89.26
185.02	-43.86
185.239	152.74
185.459	93.35
185.679	117.93
185.898	-119.64
186.118	79.02
186.338	-2.9
186.557	44.2
186.777	-43.86
186.997	-76.63
187.216	15.53
187.436	183.46
187.655	29.87
187.875	31.91
188.095	81.07
188.314	33.96
188.534	87.21
188.753	-54.1
188.973	111.78
189.192	70.83
189.412	33.96
189.631	60.59
189.851	76.97
190.07	91.31
190.29	-88.92
190.509	42.15
190.729	23.72
190.948	124.07
191.168	275.62
191.387	54.44
191.607	38.06
191.826	81.07
192.045	29.87
192.265	-47.96
192.484	64.68
192.704	46.25
192.923	-9.05
193.142	197.8
193.362	130.22
193.581	72.87
193.8	-4.95
194.02	83.11
194.239	95.4
194.458	70.83
194.678	1.19
194.897	15.53
195.116	42.15
195.335	136.36
195.555	17.58
195.774	-13.14
195.993	70.83
196.212	33.96
196.432	-29.52
196.651	13.48
196.87	40.11
197.089	214.18
197.308	58.54
197.528	21.67
197.747	-50
197.966	56.49
198.185	138.41
198.404	-74.58
198.623	56.49
198.842	126.12
199.062	152.74
199.281	109.74
199.5	52.39
199.719	93.35
199.938	23.72
200.157	60.59
200.376	40.11
200.595	91.31
200.814	17.58
201.033	-39.76
201.252	142.5
201.471	70.83
201.69	33.96
201.909	1.19
202.128	146.6
202.347	148.65
202.566	19.63
202.785	-70.48
203.004	-11.09
203.223	228.52
203.442	52.39
203.661	5.29
203.879	33.96
204.098	144.55
204.317	54.44
204.536	146.6
204.755	85.16
204.974	105.64
205.193	-27.48
205.411	103.59
205.63	72.87
205.849	64.68
206.068	-0.85
206.287	15.53
206.505	130.22
206.724	42.15
206.943	-0.85
207.162	-29.52
207.381	91.31
207.599	93.35
207.818	72.87
208.037	-64.34
208.255	17.58
208.474	-7
208.693	64.68
208.911	-78.68
209.13	111.78
209.349	42.15
209.567	74.92
209.786	103.59
210.005	56.49
210.223	-25.43
210.442	-107.35
210.661	-25.43
210.879	29.87
211.098	64.68
211.316	50.35
211.535	99.5
211.753	107.69
211.972	66.73
212.191	-50
212.409	9.39
212.628	105.64
212.846	23.72
213.065	72.87
213.283	79.02
213.502	5.29
213.72	76.97
213.938	17.58
214.157	-21.33
214.375	81.07
214.594	81.07
214.812	58.54
215.031	-90.96
215.249	97.45
215.467	54.44
215.686	15.53
215.904	-2.9
216.122	-13.14
216.341	152.74
216.559	15.53
216.778	101.55
216.996	66.73
217.214	-23.38
217.432	-29.52
217.651	-23.38
217.869	66.73
218.087	21.67
218.306	15.53
218.524	91.31
218.742	-2.9
218.96	134.31
219.179	-0.85
219.397	-4.95
219.615	210.09
219.833	132.26
220.051	17.58
220.27	50.35
220.488	-2.9
220.706	97.45
220.924	44.2
221.142	5.29
221.36	54.44
221.578	50.35
221.796	-13.14
222.015	52.39
222.233	27.82
222.451	132.26
222.669	-80.72
222.887	87.21
223.105	-31.57
223.323	-35.67
223.541	-68.44
223.759	83.11
223.977	3.24
224.195	150.7
224.413	89.26
224.631	15.53
224.849	117.93
225.067	132.26
225.285	11.43
225.503	-23.38
225.721	-113.49
225.939	95.4
226.157	29.87
226.375	228.52
226.592	-35.67
226.81	-25.43
227.028	81.07
227.246	93.35
227.464	95.4
227.682	134.31
227.9	33.96
228.117	33.96
228.335	60.59
228.553	52.39
228.771	40.11
228.989	85.16
229.206	85.16
229.424	-17.24
229.642	23.72
229.86	-74.58
230.077	122.02
230.295	54.44
230.513	136.36
230.731	60.59
230.948	214.18
231.166	181.42
231.384	-0.85
231.601	-31.57
231.819	177.32
232.037	-70.48
232.254	-39.76
232.472	-15.19
232.689	3.24
232.907	64.68
233.125	38.06
233.342	-2.9
233.56	42.15
233.777	-9.05
233.995	46.25
234.213	36.01
234.43	54.44
234.648	72.87
234.865	-27.48
235.083	-31.57
235.3	64.68
235.518	25.77
235.735	70.83
235.953	93.35
236.17	13.48
236.388	23.72
236.605	21.67
236.822	74.92
237.04	128.17
237.257	81.07
237.475	-2.9
237.692	40.11
237.909	91.31
238.127	15.53
238.344	62.63
238.562	46.25
238.779	-88.92
238.996	-64.34
239.214	31.91
239.431	154.79
239.648	44.2
239.865	62.63
240.083	107.69
240.3	27.82
240.517	-43.86
240.735	93.35
240.952	58.54
241.169	3.24
241.386	9.39
241.603	-0.85
241.821	5.29
242.038	158.89
242.255	42.15
242.472	-4.95
242.689	25.77
242.907	113.83
243.124	15.53
243.341	56.49
243.558	9.39
243.775	-95.06
243.992	-37.72
244.209	74.92
244.426	87.21
244.643	29.87
244.86	54.44
245.078	48.3
245.295	31.91
245.512	74.92
245.729	-21.33
245.946	64.68
246.163	128.17
246.38	23.72
246.597	29.87
246.814	46.25
247.031	21.67
247.248	-21.33
247.464	64.68
247.681	29.87
247.898	99.5
248.115	46.25
248.332	44.2
248.549	79.02
248.766	220.33
248.983	11.43
249.2	56.49
249.417	117.93
249.633	5.29
249.85	85.16
250.067	-0.85
250.284	36.01
250.501	-13.14
250.717	68.78
250.934	-13.14
251.151	-23.38
251.368	27.82
251.585	3.24
251.801	27.82
252.018	-99.16
252.235	93.35
252.451	-68.44
252.668	33.96
252.885	115.88
253.102	33.96
253.318	-21.33
253.535	-35.67
253.752	-23.38
253.968	-74.58
254.185	-17.24
254.401	97.45
254.618	109.74
254.835	-25.43
255.051	138.41
255.268	38.06
255.484	50.35
255.701	29.87
255.917	64.68
256.134	-35.67
256.351	46.25
256.567	-125.78
256.784	64.68
257	1.19
257.217	173.22
257.433	79.02
257.65	142.5
257.866	140.46
258.082	-119.64
258.299	-99.16
258.515	99.5
258.732	25.77
258.948	-60.24
259.165	144.55
259.381	-13.14
259.597	58.54
259.814	7.34
260.03	-13.14
260.246	81.07
260.463	124.07
260.679	40.11
260.895	-2.9
261.112	-17.24
261.328	40.11
261.544	-37.72
261.761	154.79
261.977	-74.58
262.193	-23.38
262.409	68.78
262.626	38.06
262.842	46.25
263.058	60.59
263.274	68.78
263.49	33.96
263.707	40.11
263.923	-0.85
264.139	-76.63
264.355	19.63
264.571	74.92
264.787	21.67
265.004	175.27
265.22	3.24
265.436	-82.77
265.652	36.01
265.868	19.63
266.084	9.39
266.3	-19.29
266.516	-25.43
266.732	68.78
266.948	42.15
267.164	-60.24
267.38	107.69
267.596	76.97
267.812	173.22
268.028	109.74
268.244	-17.24
268.46	76.97
268.676	44.2
268.892	111.78
269.108	-11.09
269.324	13.48
269.54	-50
269.756	72.87
269.972	-39.76
270.188	36.01
270.403	79.02
270.619	11.43
270.835	76.97
271.051	9.39
271.267	-27.48
271.483	-17.24
271.698	76.97
271.914	-23.38
272.13	15.53
272.346	1.19
272.562	91.31
272.777	165.03
272.993	-4.95
273.209	-7
273.425	136.36
273.64	-78.68
273.856	107.69
274.072	-15.19
274.287	-97.11
274.503	29.87
274.719	-19.29
274.934	5.29
275.15	-35.67
275.366	27.82
275.581	-50
275.797	60.59
276.012	66.73
276.228	56.49
276.444	27.82
276.659	122.02
276.875	-39.76
277.09	5.29
277.306	-13.14
277.521	27.82
277.737	87.21
277.952	107.69
278.168	13.48
278.383	3.24
278.599	-15.19
278.814	85.16
279.03	-11.09
279.245	142.5
279.461	48.3
279.676	97.45
279.892	-17.24
280.107	-101.2
280.322	-43.86
280.538	124.07
280.753	-25.43
280.969	58.54
281.184	38.06
281.399	156.84
281.615	58.54
281.83	171.18
282.045	-50
282.26	-39.76
282.476	27.82
282.691	83.11
282.906	48.3
283.122	13.48
283.337	-27.48
283.552	91.31
283.767	-11.09
283.983	128.17
284.198	64.68
284.413	52.39
284.628	-45.91
284.843	19.63
285.058	117.93
285.274	9.39
285.489	17.58
285.704	99.5
285.919	-27.48
286.134	50.35
286.349	-35.67
286.564	-35.67
286.779	126.12
286.995	19.63
287.21	-33.62
287.425	31.91
287.64	-60.24
287.855	38.06
288.07	-105.3
288.285	74.92
288.5	99.5
288.715	48.3
288.93	3.24
289.145	-25.43
289.36	95.4
289.575	-7
289.79	81.07
290.004	11.43
290.219	115.88
290.434	3.24
290.649	-2.9
290.864	76.97
291.079	62.63
291.294	-9.05
291.509	54.44
291.724	-4.95
291.938	-39.76
292.153	21.67
292.368	-80.72
292.583	107.69
292.798	27.82
293.012	7.34
293.227	87.21
293.442	1.19
293.657	83.11
293.871	81.07
294.086	76.97
294.301	201.9
294.516	81.07
294.73	85.16
294.945	29.87
295.16	-17.24
295.374	99.5
295.589	91.31
295.804	-35.67
296.018	50.35
296.233	87.21
296.447	-17.24
296.662	-50
296.877	132.26
297.091	119.98
297.306	36.01
297.52	21.67
297.735	25.77
297.949	54.44
298.164	81.07
298.378	15.53
298.593	46.25
298.807	9.39
299.022	1.19
299.236	52.39
299.451	11.43
299.665	76.97
299.88	72.87
300.094	25.77
300.309	40.11
300.523	31.91
300.737	13.48
300.952	62.63
301.166	105.64
301.381	-29.52
301.595	-54.1
301.809	15.53
302.024	-4.95
302.238	-7
302.452	193.7
302.667	60.59
302.881	148.65
303.095	89.26
303.309	87.21
303.524	-0.85
303.738	83.11
303.952	-2.9
304.166	-11.09
304.381	-101.2
304.595	113.83
304.809	-19.29
305.023	83.11
305.237	-41.81
305.452	52.39
305.666	-86.87
305.88	76.97
306.094	-0.85
306.308	5.29
306.522	48.3
306.736	107.69
306.95	15.53
307.164	-9.05
307.379	15.53
307.593	148.65
307.807	83.11
308.021	64.68
308.235	87.21
308.449	-23.38
308.663	60.59
308.877	191.66
309.091	87.21
309.305	81.07
309.519	-76.63
309.733	122.02
309.947	-93.01
310.161	140.46
310.374	144.55
310.588	91.31
310.802	15.53
311.016	-25.43
311.23	66.73
311.444	-66.39
311.658	40.11
311.872	113.83
312.085	70.83
312.299	134.31
312.513	81.07
312.727	54.44
312.941	-80.72
313.154	60.59
313.368	62.63
313.582	19.63
313.796	40.11
314.009	-39.76
314.223	128.17
314.437	42.15
314.651	40.11
314.864	-4.95
315.078	7.34
315.292	-39.76
315.505	31.91
315.719	132.26
315.933	99.5
316.146	-70.48
316.36	-19.29
316.573	23.72
316.787	81.07
317.001	17.58
317.214	-15.19
317.428	36.01
317.641	-35.67
317.855	-25.43
318.068	42.15
318.282	21.67
318.495	117.93
318.709	91.31
318.922	19.63
319.136	197.8
319.349	89.26
319.563	-21.33
319.776	64.68
319.99	-82.77
320.203	85.16
320.417	-15.19
320.63	72.87
320.843	208.04
321.057	124.07
321.27	-13.14
321.483	44.2
321.697	140.46
321.91	74.92
322.124	58.54
322.337	33.96
322.55	-43.86
322.763	83.11
322.977	50.35
323.19	66.73
323.403	13.48
323.617	1.19
323.83	128.17
324.043	-31.57
324.256	-37.72
324.469	-58.2
324.683	195.75
324.896	54.44
325.109	56.49
325.322	-25.43
325.535	109.74
325.748	109.74
325.962	-9.05
326.175	132.26
326.388	97.45
326.601	105.64
326.814	-37.72
327.027	36.01
327.24	132.26
327.453	-68.44
327.666	42.15
327.879	136.36
328.092	44.2
328.305	62.63
328.518	-29.52
328.731	27.82
328.944	-21.33
329.157	50.35
329.37	42.15
329.583	103.59
329.796	130.22
330.009	11.43
330.222	91.31
330.435	119.98
330.648	68.78
330.861	38.06
331.073	25.77
331.286	160.94
331.499	76.97
331.712	-9.05
331.925	42.15
332.138	-25.43
332.35	124.07
332.563	36.01
332.776	136.36
332.989	-43.86
333.202	9.39
333.414	-23.38
333.627	36.01
333.84	-4.95
334.053	40.11
334.265	-62.29
334.478	60.59
334.691	29.87
334.903	25.77
335.116	-19.29
335.329	-7
335.541	111.78
335.754	132.26
335.966	-27.48
336.179	79.02
336.392	19.63
336.604	-47.96
336.817	103.59
337.029	-29.52
337.242	85.16
337.454	40.11
337.667	-7
337.88	46.25
338.092	-37.72
338.305	54.44
338.517	-21.33
338.729	74.92
338.942	154.79
339.154	-47.96
339.367	-0.85
339.579	177.32
339.792	-23.38
340.004	58.54
340.217	-39.76
340.429	64.68
340.641	-72.53
340.854	7.34
341.066	-29.52
341.278	103.59
341.491	158.89
341.703	-4.95
341.915	-25.43
342.128	97.45
342.34	-27.48
342.552	3.24
342.764	-54.1
342.977	-4.95
343.189	60.59
343.401	-45.91
343.613	-72.53
343.826	3.24
344.038	-9.05
344.25	38.06
344.462	-33.62
344.674	17.58
344.886	-64.34
345.099	42.15
345.311	85.16
345.523	27.82
345.735	-78.68
345.947	42.15
346.159	117.93
346.371	107.69
346.583	-68.44
346.795	179.37
347.007	-4.95
347.219	132.26
347.431	31.91
347.643	152.74
347.855	5.29
348.067	85.16
348.279	-103.25
348.491	-4.95
348.703	44.2
348.915	-27.48
349.127	-82.77
349.339	9.39
349.551	-27.48
349.763	89.26
349.975	93.35
350.187	74.92
350.399	177.32
350.61	130.22
350.822	-45.91
351.034	91.31
351.246	85.16
351.458	-7
351.669	87.21
351.881	42.15
352.093	136.36
352.305	111.78
352.517	79.02
352.728	113.83
352.94	23.72
353.152	76.97
353.363	5.29
353.575	21.67
353.787	154.79
353.999	111.78
354.21	158.89
354.422	48.3
354.633	5.29
354.845	1.19
355.057	64.68
355.268	31.91
355.48	-7
355.692	-82.77
355.903	93.35
356.115	-15.19
356.326	-105.3
356.538	218.28
356.749	23.72
356.961	56.49
357.172	-21.33
357.384	-21.33
357.595	234.66
357.807	48.3
358.018	-4.95
358.23	54.44
358.441	81.07
358.653	60.59
358.864	44.2
359.075	-62.29
359.287	97.45
359.498	122.02
359.709	93.35
359.921	76.97
360.132	85.16
360.344	21.67
360.555	-47.96
360.766	58.54
360.977	68.78
361.189	115.88
361.4	36.01
361.611	115.88
361.823	68.78
362.034	-2.9
362.245	-105.3
362.456	-9.05
362.667	79.02
362.879	-37.72
363.09	33.96
363.301	13.48
363.512	27.82
363.723	-47.96
363.935	-29.52
364.146	97.45
364.357	-88.92
364.568	-70.48
364.779	-72.53
364.99	119.98
365.201	-88.92
365.412	113.83
365.623	-148.31
365.834	79.02
366.045	29.87
366.256	23.72
366.467	93.35
366.678	38.06
366.889	115.88
367.1	-50
367.311	140.46
367.522	13.48
367.733	85.16
367.944	74.92
368.155	72.87
368.366	128.17
368.577	-7
368.788	169.13
368.999	-19.29
369.209	-64.34
369.42	158.89
369.631	244.9
369.842	113.83
370.053	60.59
370.264	9.39
370.474	-97.11
370.685	85.16
370.896	50.35
371.107	64.68
371.317	115.88
371.528	-56.15
371.739	111.78
371.95	173.22
372.16	89.26
372.371	-9.05
372.582	-13.14
372.792	40.11
373.003	38.06
373.214	60.59
373.424	31.91
373.635	48.3
373.846	144.55
374.056	-9.05
374.267	81.07
374.477	31.91
374.688	-47.96
374.898	87.21
375.109	-25.43
375.319	21.67
375.53	93.35
375.74	54.44
375.951	1.19
376.161	70.83
376.372	111.78
376.582	21.67
376.793	1.19
377.003	-21.33
377.214	54.44
377.424	91.31
377.635	64.68
377.845	-29.52
378.055	81.07
378.266	-64.34
378.476	66.73
378.686	107.69
378.897	38.06
379.107	109.74
379.317	38.06
379.528	31.91
379.738	113.83
379.948	-78.68
380.158	85.16
380.369	31.91
380.579	23.72
380.789	-0.85
380.999	91.31
381.21	119.98
381.42	169.13
381.63	48.3
381.84	142.5
382.05	-4.95
382.261	60.59
382.471	208.04
382.681	23.72
382.891	167.08
383.101	25.77
383.311	-43.86
383.521	-17.24
383.731	107.69
383.941	105.64
384.151	136.36
384.361	-35.67
384.571	56.49
384.781	-17.24
384.991	177.32
385.201	165.03
385.411	130.22
385.621	33.96
385.831	50.35
386.041	-13.14
386.251	27.82
386.461	36.01
386.671	40.11
386.881	-27.48
387.091	70.83
387.301	101.55
387.511	62.63
387.72	1.19
387.93	126.12
388.14	-127.83
388.35	58.54
388.56	85.16
388.769	44.2
388.979	95.4
389.189	-76.63
389.399	38.06
389.609	44.2
389.818	113.83
390.028	-21.33
390.238	76.97
390.447	54.44
390.657	58.54
390.867	19.63
391.076	-80.72
391.286	33.96
391.496	109.74
391.705	29.87
391.915	150.7
392.125	93.35
392.334	97.45
392.544	185.51
392.753	33.96
392.963	-25.43
393.172	117.93
393.382	21.67
393.591	169.13
393.801	-19.29
394.01	162.98
394.22	134.31
394.429	-31.57
394.639	-45.91
394.848	44.2
395.058	36.01
395.267	-4.95
395.477	74.92
395.686	72.87
395.895	134.31
396.105	183.46
396.314	91.31
396.524	42.15
396.733	-74.58
396.942	79.02
397.152	-0.85
397.361	128.17
397.57	48.3
397.78	7.34
397.989	105.64
398.198	218.28
398.407	-13.14
398.617	-27.48
398.826	76.97
399.035	-29.52
399.244	87.21
399.453	91.31
399.663	76.97
399.872	95.4
400.081	-64.34
400.29	158.89
400.499	13.48
400.708	167.08
400.917	31.91
401.127	36.01
401.336	33.96
401.545	79.02
401.754	142.5
401.963	31.91
402.172	-7
402.381	-72.53
402.59	25.77
402.799	109.74
403.008	103.59
403.217	21.67
403.426	68.78
403.635	5.29
403.844	-31.57
404.053	-54.1
404.262	68.78
404.471	197.8
404.68	119.98
404.888	13.48
405.097	-31.57
405.306	74.92
405.515	95.4
405.724	5.29
405.933	70.83
406.142	66.73
406.35	173.22
406.559	1.19
406.768	60.59
406.977	124.07
407.185	-9.05
407.394	144.55
407.603	-97.11
407.812	-29.52
408.02	56.49
408.229	50.35
408.438	101.55
408.646	-15.19
408.855	68.78
409.064	36.01
409.272	97.45
409.481	66.73
409.69	9.39
409.898	-37.72
410.107	33.96
410.315	134.31
410.524	9.39
410.733	27.82
410.941	-19.29
411.15	64.68
411.358	105.64
411.567	126.12
411.775	36.01
411.984	5.29
412.192	95.4
412.401	-11.09
412.609	171.18
412.818	181.42
413.026	44.2
413.234	-11.09
413.443	31.91
413.651	-4.95
413.86	54.44
414.068	109.74
414.276	210.09
414.485	17.58
414.693	130.22
414.901	93.35
415.11	48.3
415.318	-7
415.526	87.21
415.734	134.31
415.943	48.3
416.151	111.78
416.359	62.63
416.567	126.12
416.776	95.4
416.984	124.07
417.192	81.07
417.4	17.58
417.608	-0.85
417.817	-0.85
418.025	58.54
418.233	167.08
418.441	-15.19
418.649	33.96
418.857	81.07
419.065	140.46
419.273	-11.09
419.481	95.4
419.689	83.11
419.897	-27.48
420.105	62.63
420.313	83.11
420.521	142.5
420.729	185.51
420.937	11.43
421.145	13.48
421.353	111.78
421.561	81.07
421.769	126.12
421.977	-43.86
422.185	79.02
422.393	50.35
422.601	134.31
422.809	54.44
423.017	117.93
423.224	79.02
423.432	122.02
423.64	-29.52
423.848	111.78
424.056	-0.85
424.263	150.7
424.471	1.19
424.679	148.65
424.887	27.82
425.094	60.59
425.302	165.03
425.51	-11.09
425.718	76.97
425.925	113.83
426.133	-25.43
426.341	134.31
426.548	-7
426.756	44.2
426.964	9.39
427.171	-31.57
427.379	31.91
427.586	38.06
427.794	167.08
428.001	74.92
428.209	113.83
428.417	97.45
428.624	136.36
428.832	72.87
429.039	66.73
429.247	27.82
429.454	-17.24
429.662	224.42
429.869	97.45
430.076	62.63
430.284	183.46
430.491	177.32
430.699	117.93
430.906	197.8
431.114	68.78
431.321	130.22
431.528	23.72
431.736	113.83
431.943	226.47
432.15	142.5
432.358	48.3
432.565	195.75
432.772	-99.16
432.979	214.18
433.187	97.45
433.394	156.84
433.601	44.2
433.808	216.23
434.016	197.8
434.223	152.74
434.43	203.94
434.637	160.94
434.844	230.57
435.052	130.22
435.259	246.95
435.466	179.37
435.673	140.46
435.88	253.09
436.087	177.32
436.294	263.33
436.501	205.99
436.708	167.08
436.915	230.57
437.122	257.19
437.329	122.02
437.537	201.9
437.743	242.85
437.95	332.97
438.157	292.01
438.364	240.81
438.571	156.84
438.778	353.45
438.985	222.38
439.192	375.97
439.399	365.73
439.606	320.68
439.813	382.12
440.02	447.65
440.227	494.76
440.433	416.93
440.64	380.07
440.847	375.97
441.054	396.45
441.261	515.23
441.467	457.89
441.674	378.02
441.881	523.43
442.088	404.64
442.294	543.91
442.501	539.81
442.708	576.67
442.914	560.29
443.121	578.72
443.328	658.59
443.534	672.93
443.741	642.21
443.948	523.43
444.154	758.94
444.361	844.96
444.568	728.22
444.774	797.85
444.981	703.65
445.187	881.82
445.394	777.37
445.6	726.18
445.807	930.97
446.013	947.36
446.22	791.71
446.426	961.69
446.633	1043.61
446.839	1137.82
447.046	1000.6
447.252	1100.95
447.459	1109.15
447.665	1150.11
447.871	1258.65
448.078	1330.33
448.284	1309.85
448.491	1449.11
448.697	1528.98
448.903	1553.55
449.11	1539.22
449.316	1539.22
449.522	1645.71
449.728	1799.31
449.935	1739.92
450.141	1784.98
450.347	1856.65
450.553	1881.23
450.76	1985.68
450.966	2000.01
451.172	1985.68
451.378	2120.84
451.584	2221.19
451.791	2389.13
451.997	2497.67
452.203	2550.92
452.409	2731.14
452.615	2632.83
452.821	2610.31
453.027	2722.95
453.233	3175.55
453.44	3005.56
453.646	3071.1
453.852	3339.38
454.058	3218.55
454.264	3402.87
454.47	3669.11
454.676	3685.49
454.882	3961.97
455.088	3685.49
455.294	4134
455.5	4211.82
455.705	4467.81
455.911	4605.03
456.117	4752.48
456.323	4879.46
456.529	5002.33
456.735	5196.89
456.941	5409.88
457.147	5598.29
457.352	5848.15
457.558	5899.34
457.764	6294.6
457.97	6421.58
458.176	6710.34
458.381	6941.76
458.587	7062.59
458.793	7437.37
458.999	7461.94
459.204	8463.4
459.41	8690.73
459.616	8578.09
459.821	9208.86
460.027	9395.23
460.233	9931.8
460.438	10071.06
460.644	10572.81
460.85	10535.95
461.055	10970.12
461.261	11559.93
461.466	11389.95
461.672	11568.12
461.878	12952.55
462.083	12921.83
462.289	12833.77
462.494	13720.54
462.7	13822.94
462.905	13728.73
463.111	15072.2
463.316	15666.11
463.522	16120.76
463.727	16507.82
463.932	17109.93
464.138	17589.15
464.343	18576.27
464.549	18471.82
464.754	19800.96
464.959	20226.93
465.165	20919.15
465.37	20747.12
465.575	20630.38
465.781	22149.98
465.986	22614.87
466.191	22483.8
466.397	22403.92
466.602	22086.49
466.807	22944.59
467.012	23696.19
467.218	24034.11
467.423	24261.43
467.628	24558.39
467.833	26055.45
468.038	25430.82
468.244	25111.34
468.449	26456.85
468.654	26012.45
468.859	25838.37
469.064	26006.3
469.269	25211.69
469.474	25611.04
469.679	26080.03
469.885	25633.57
470.09	25778.98
470.295	26092.32
470.5	25479.97
470.705	25619.24
470.91	24904.49
471.115	24628.02
471.32	25178.92
471.525	24816.43
471.73	24427.32
471.935	24052.54
472.139	23071.56
472.344	23126.86
472.549	23022.41
472.754	22403.92
472.959	21787.49
473.164	21246.82
473.369	20910.96
473.574	21648.22
473.778	21259.11
473.983	20992.87
474.188	20196.21
474.393	19682.17
474.598	19694.46
474.802	18832.27
475.007	19092.36
475.212	18195.35
475.417	17968.02
475.621	17656.73
475.826	17427.36
476.031	17167.27
476.235	16706.48
476.44	16798.63
476.645	16311.22
476.849	16124.85
477.054	15690.68
477.259	15379.39
477.463	15414.21
477.668	15188.93
477.872	14904.26
478.077	14556.11
478.282	14025.68
478.486	14265.3
478.691	13986.77
478.895	13667.29
479.1	13781.98
479.304	13456.35
479.509	12989.41
479.713	13255.65
479.918	12985.32
480.122	12452.84
480.326	12919.78
480.531	12618.73
480.735	12467.18
480.94	12209.14
481.144	12796.9
481.348	12153.84
481.553	12178.42
481.757	11783.16
481.961	11994.1
482.166	12084.21
482.37	11983.86
482.574	11389.95
482.778	11721.72
482.983	11723.77
483.187	11426.81
483.391	11586.55
483.595	11320.32
483.8	10871.81
484.004	11209.73
484.208	11267.07
484.412	10847.24
484.616	10779.65
484.821	10765.32
485.025	10492.94
485.229	10550.28
485.433	10400.78
485.637	10075.15
485.841	9905.17
486.045	10003.47
486.249	9952.27
486.453	9620.5
486.657	9440.28
486.861	9552.92
487.065	9116.7
487.269	9174.05
487.473	8838.18
487.677	8983.59
487.881	8879.14
488.085	8645.67
488.289	8444.97
488.493	8129.58
488.697	8223.79
488.901	8162.35
489.105	7906.35
489.309	7685.17
489.512	7474.23
489.716	7640.12
489.92	7429.18
490.124	7283.77
490.328	7117.89
490.531	6960.19
490.735	7097.41
490.939	6872.13
491.143	6554.69
491.346	6407.24
491.55	6405.19
491.754	6241.36
491.958	6171.72
492.161	6138.96
492.365	6001.74
492.569	6014.03
492.772	5911.63
492.976	5766.23
493.18	5649.49
493.383	5680.21
493.587	5522.52
493.79	5532.76
493.994	5481.56
494.197	5362.78
494.401	5461.08
494.605	5223.51
494.808	5262.43
495.012	5270.62
495.215	5211.23
495.419	5188.7
495.622	4965.47
495.825	4953.18
496.029	4830.3
496.232	5090.4
496.436	4924.51
496.639	5041.25
496.843	4850.78
497.046	4832.35
497.249	4885.6
497.453	4803.68
497.656	4942.94
497.859	5006.43
498.063	4928.61
498.266	5065.82
498.469	4801.63
498.673	4957.28
498.876	4942.94
499.079	4969.57
499.282	5018.72
499.485	5303.39
499.689	5168.22
499.892	5289.05
500.095	5209.18
500.298	5123.16
500.501	5026.91
500.705	5284.95
500.908	5233.75
501.111	5219.42
501.314	5309.53
501.517	5448.79
501.72	5461.08
501.923	5610.58
502.126	5606.49
502.329	5745.75
502.532	5616.72
502.735	5733.46
502.938	5876.82
503.141	5796.95
503.344	5807.19
503.547	5968.98
503.75	6114.38
503.953	6153.29
504.156	6304.84
504.359	6478.92
504.562	6302.79
504.765	6511.69
504.968	6509.64
505.17	6595.65
505.373	6765.64
505.576	7119.93
505.779	7119.93
505.982	7173.18
506.185	7294.01
506.387	7449.66
506.59	7496.76
506.793	7916.59
506.996	7748.66
507.198	8098.86
507.401	8182.83
507.604	8348.72
507.807	8522.79
508.009	8672.29
508.212	8447.02
508.415	8862.76
508.617	8965.15
508.82	9083.94
509.022	9196.57
509.225	9661.46
509.428	9960.47
509.63	9944.08
509.833	10230.8
510.035	10621.96
510.238	10757.13
510.44	10968.07
510.643	11201.54
510.845	11650.04
511.048	11600.89
511.25	11854.84
511.453	11924.47
511.655	12700.65
511.858	12786.66
512.06	13204.45
512.262	13235.17
512.465	13554.65
512.667	14103.51
512.87	14357.46
513.072	14648.27
513.274	14955.46
513.477	15107.01
513.679	15342.53
513.881	15885.24
514.084	16315.31
514.286	16475.06
514.488	16892.84
514.69	17496.99
514.893	17458.08
515.095	17955.74
515.297	18518.93
515.499	18701.2
515.701	19366.79
515.904	19780.48
516.106	20108.15
516.308	20405.11
516.51	21027.69
516.712	21353.32
516.914	21873.5
517.116	22131.54
517.318	22565.71
517.52	22977.36
517.722	23532.36
517.925	23808.83
518.127	24269.62
518.329	25342.76
518.531	25074.48
518.733	26221.34
518.935	25977.63
519.136	26563.35
519.338	27122.44
519.54	27581.19
519.742	28101.37
519.944	28381.95
520.146	29403.88
520.348	29373.16
520.55	29836
520.752	29551.34
520.954	30380.76
521.155	30798.55
521.357	31404.75
521.559	31617.74
521.761	32385.72
521.963	32305.85
522.164	32649.91
522.366	32740.02
522.568	33110.71
522.77	33960.61
522.971	34450.08
523.173	34134.69
523.375	34597.53
523.576	34658.97
523.778	34417.31
523.98	35093.14
524.181	35330.7
524.383	35283.6
524.584	35846.79
524.786	35889.8
524.988	35730.06
525.189	35902.09
525.391	36053.64
525.592	36018.82
525.794	36110.98
525.995	36373.12
526.197	35918.47
526.398	36168.32
526.6	36174.47
526.801	36207.23
527.003	36178.56
527.204	36227.71
527.406	36326.02
527.607	35617.42
527.808	35861.13
528.01	35207.83
528.211	35138.19
528.412	35555.98
528.614	35175.06
528.815	34917.01
529.016	34919.06
529.218	34085.54
529.419	34343.58
529.62	34146.98
529.822	33460.91
530.023	33047.22
530.224	33331.89
530.425	32787.13
530.626	32316.09
530.828	31761.09
531.029	32424.64
531.23	31627.98
531.431	31220.43
531.632	31214.29
531.833	30792.4
532.035	30040.8
532.236	29928.16
532.437	29678.31
532.638	29018.86
532.839	28910.32
533.04	28861.17
533.241	28080.89
533.442	28035.84
533.643	27501.32
533.844	27144.97
534.045	26974.99
534.246	26221.34
534.447	26088.22
534.648	25559.84
534.849	25502.5
535.05	25123.63
535.251	24722.23
535.451	24347.45
535.652	23958.33
535.853	23518.02
536.054	23855.93
536.255	23276.36
536.456	22637.39
536.657	22991.69
536.857	22350.68
537.058	21900.12
537.259	21988.19
537.46	21558.11
537.66	21009.26
537.861	21160.81
538.062	20417.4
538.263	20116.34
538.463	20177.78
538.664	19559.3
538.865	19653.5
539.065	19669.89
539.266	18944.91
539.466	18996.1
539.667	18338.71
539.868	18496.4
540.068	18238.36
540.269	18045.85
540.469	17955.74
540.67	17292.19
540.87	17367.97
541.071	17021.86
541.271	16788.39
541.472	16806.83
541.672	16647.08
541.873	16178.1
542.073	16122.8
542.274	15987.64
542.474	15877.05
542.675	15467.45
542.875	15592.38
543.075	15315.9
543.276	15043.53
543.476	14988.23
543.676	14572.49
543.877	14836.68
544.077	14482.38
544.277	14517.2
544.478	14279.63
544.678	14179.28
544.878	14005.2
545.078	13880.28
545.279	13384.67
545.479	13403.1
545.679	13097.95
545.879	13151.2
546.079	12927.97
546.28	12757.99
546.48	12426.22
546.68	12649.45
546.88	12334.06
547.08	12381.17
547.28	12239.86
547.48	11893.75
547.68	11969.52
547.88	11756.54
548.081	11414.52
548.281	11213.82
548.481	11090.95
548.681	11041.79
548.881	10787.85
549.081	10707.98
549.28	10814.47
549.48	10642.44
549.68	10544.14
549.88	10474.51
550.08	10042.39
550.28	9972.75
550.48	9823.25
550.68	9649.18
550.88	9546.78
551.08	9448.47
551.279	9298.97
551.479	9065.5
551.679	9045.02
551.879	8875.04
552.079	8801.32
552.278	8641.57
552.478	8666.15
552.678	8487.98
552.878	8371.24
553.077	8045.62
553.277	7900.21
553.477	7996.46
553.676	7693.37
553.876	7717.94
554.076	7578.68
554.275	7541.82
554.475	7171.13
554.674	7322.68
554.874	7132.22
555.074	6851.65
555.273	6675.52
555.473	6794.31
555.672	6700.1
555.872	6585.41
556.071	6317.13
556.271	6491.21
556.47	6243.4
556.67	6083.66
556.869	5993.55
557.068	5997.65
557.268	5874.77
557.467	5616.72
557.667	5764.18
557.866	5426.26
558.065	5418.07
558.265	5416.02
558.464	5098.59
558.663	5280.86
558.863	5200.99
559.062	4967.52
559.261	4891.74
559.461	5008.48
559.66	4717.67
559.859	4607.08
560.058	4553.83
560.258	4519.01
560.457	4533.35
560.656	4584.55
560.855	4400.23
561.054	4387.94
561.253	4156.52
561.453	4195.43
561.652	3994.73
561.851	4007.02
562.05	3865.71
562.249	3898.48
562.448	3857.52
562.647	3644.53
562.846	3574.9
563.045	3701.87
563.244	3617.91
563.443	3546.23
563.642	3464.31
563.841	3562.61
564.04	3441.78
564.239	3404.92
564.438	3288.18
564.637	3155.07
564.836	3202.17
565.035	3122.3
565.234	3011.71
565.432	3087.48
565.631	3017.85
565.83	2966.65
566.029	2948.22
566.228	2917.5
566.427	3013.76
566.625	2651.27
566.824	2729.09
567.023	2724.99
567.222	2677.89
567.42	2438.28
567.619	2557.06
567.818	2544.77
568.016	2675.84
568.215	2440.33
568.414	2489.48
568.612	2495.62
568.811	2317.45
569.01	2442.37
569.208	2186.38
569.407	2256.01
569.605	2192.52
569.804	2118.79
570.002	2040.97
570.201	1997.96
570.4	2071.69
570.598	1938.57
570.797	1887.37
570.995	1887.37
571.193	1930.38
571.392	1924.24
571.59	1776.78
571.789	1795.22
571.987	1864.85
572.186	1959.05
572.384	1827.98
572.582	1752.21
572.781	1801.36
572.979	1721.49
573.177	1713.3
573.376	1666.19
573.574	1682.58
573.772	1604.75
573.971	1557.65
574.169	1451.16
574.367	1608.85
574.565	1442.96
574.763	1330.33
574.962	1492.12
575.16	1412.25
575.358	1279.13
575.556	1326.23
575.754	1399.96
575.952	1338.52
576.151	1369.24
576.349	1348.76
576.547	1191.06
576.745	1305.75
576.943	1221.78
577.141	1201.3
577.339	1221.78
577.537	1189.02
577.735	1174.68
577.933	1164.44
578.131	1066.14
578.329	1195.16
578.527	1002.65
578.725	1027.23
578.923	910.49
579.121	1180.82
579.319	914.59
579.516	1014.94
579.714	1184.92
579.912	930.97
580.11	859.29
580.308	904.35
580.506	926.88
580.704	826.53
580.901	904.35
581.099	912.54
581.297	894.11
581.495	933.02
581.692	822.43
581.89	883.87
582.088	871.58
582.285	799.9
582.483	801.95
582.681	707.74
582.878	730.27
583.076	777.37
583.274	787.61
583.471	908.44
583.669	713.89
583.866	687.26
584.064	740.51
584.262	631.97
584.459	664.74
584.657	744.61
584.854	771.23
585.052	699.55
585.249	728.22
585.447	611.49
585.644	459.94
585.841	672.93
586.039	611.49
586.236	783.52
586.434	525.47
586.631	502.95
586.828	562.34
587.026	621.73
587.223	525.47
587.42	531.62
587.618	568.48
587.815	722.08
588.012	507.04
588.21	500.9
588.407	570.53
588.604	574.63
588.801	537.76
588.999	568.48
589.196	605.35
589.393	404.64
589.59	527.52
589.787	484.52
589.984	564.39
590.182	601.25
590.379	439.46
590.576	451.75
590.773	386.21
590.97	441.51
591.167	468.13
591.364	529.57
591.561	408.74
591.758	517.28
591.955	502.95
592.152	443.56
592.349	416.93
592.546	404.64
592.743	433.32
592.94	421.03
593.137	500.9
593.334	550.05
593.531	486.56
593.727	543.91
593.924	537.76
594.121	484.52
594.318	408.74
594.515	539.81
594.712	496.8
594.908	588.96
595.105	431.27
595.302	517.28
595.499	478.37
595.696	697.5
595.892	410.79
596.089	496.8
596.286	392.36
596.482	648.35
596.679	541.86
596.876	521.38
597.072	642.21
597.269	582.82
597.466	668.83
597.662	566.43
597.859	586.91
598.055	593.06
598.252	695.46
598.448	693.41
598.645	789.66
598.841	713.89
599.038	832.67
599.234	844.96
599.431	810.14
599.627	748.7
599.824	883.87
600.02	885.92
600.217	916.64
600.413	976.03
600.609	933.02
600.806	1232.02
601.002	1174.68
601.198	1035.42
601.395	1213.59
601.591	1174.68
601.787	1217.69
601.984	1238.17
602.18	1330.33
602.376	1395.86
602.572	1397.91
602.769	1508.5
602.965	1477.78
603.161	1578.13
603.357	1619.09
603.553	1801.36
603.75	1701.01
603.946	1774.74
604.142	1864.85
604.338	1936.53
604.534	1952.91
604.73	2040.97
604.926	1995.92
605.122	2215.05
605.318	2133.13
605.514	2282.63
605.71	2303.11
605.906	2548.87
606.102	2425.99
606.298	2532.48
606.494	2694.27
606.69	2823.3
606.886	2790.53
607.082	2954.37
607.278	2968.7
607.474	3091.58
607.67	3204.22
607.866	3202.17
608.062	3366.01
608.257	3441.78
608.453	3425.4
608.649	3517.56
608.845	3673.2
609.041	3783.79
609.236	3933.29
609.432	3955.82
609.628	4050.03
609.824	4297.83
610.019	4187.24
610.215	4566.12
610.411	4641.89
610.606	4858.98
610.802	4775.01
610.998	4996.19
611.193	5065.82
611.389	5114.97
611.584	5268.57
611.78	5477.46
611.976	5528.66
612.171	5747.79
612.367	5991.5
612.562	5944.4
612.758	6153.29
612.953	6120.53
613.149	6437.96
613.344	6814.79
613.539	6753.35
613.735	7019.58
613.93	7083.07
614.126	7416.89
614.321	7564.34
614.517	7971.89
614.712	7892.02
614.907	8080.43
615.103	8375.34
615.298	8442.92
615.493	8684.58
615.688	8856.61
615.884	9284.64
616.079	9475.1
616.274	9569.3
616.47	9739.29
616.665	10148.88
616.86	10339.34
617.055	10447.88
617.25	10732.55
617.445	11275.26
617.641	11226.11
617.836	11582.46
618.031	11867.13
618.226	12258.29
618.421	12606.44
618.616	12844.01
618.811	13057
619.006	13685.72
619.201	13728.73
619.396	14273.49
619.591	13994.97
619.786	14668.75
619.981	14771.15
620.176	15264.71
620.371	15483.84
620.566	15866.81
620.761	16178.1
620.956	16563.12
621.151	16649.13
621.346	17058.73
621.541	17185.7
621.735	18105.24
621.93	17925.02
622.125	18301.84
622.32	18283.41
622.515	19354.5
622.709	19440.51
622.904	19909.5
623.099	20005.75
623.294	20736.88
623.488	20804.46
623.683	21435.24
623.878	21343.08
624.072	22018.91
624.267	21893.98
624.462	22514.52
624.656	22510.42
624.851	23096.14
625.046	23309.13
625.24	23741.25
625.435	24023.87
625.629	24150.84
625.824	25051.95
626.018	25176.87
626.213	24841.01
626.407	25494.31
626.602	25764.64
626.796	26510.1
626.991	26463
627.185	26463
627.38	26463
627.574	26891.02
627.768	27030.29
627.963	27335.43
628.157	27056.91
628.352	27509.51
628.546	27409.16
628.74	28146.43
628.935	27394.82
629.129	27722.5
629.323	27288.33
629.517	27198.22
629.712	26905.36
629.906	27235.08
630.1	26585.88
630.294	26454.81
630.489	26198.81
630.683	26086.17
630.877	25127.72
631.071	24785.71
631.265	24851.25
631.459	24021.82
631.653	23839.55
631.848	23214.92
632.042	22659.92
632.236	22418.26
632.43	21588.83
632.624	21150.57
632.818	20437.87
633.012	19432.32
633.206	19131.27
633.4	18768.78
633.594	17634.21
633.788	17288.1
633.982	16978.86
634.176	16413.62
634.369	15633.34
634.563	15117.25
634.757	14349.26
634.951	14132.18
635.145	13427.68
635.339	12870.63
635.533	12313.58
635.726	11674.62
635.92	11338.75
636.114	10894.34
636.308	10552.33
636.501	10050.58
636.695	9864.21
636.889	9260.06
637.083	8807.46
637.276	8645.67
637.47	8049.71
637.664	7779.38
637.857	7517.24
638.051	7347.26
638.244	6976.58
638.438	6634.57
638.632	6612.04
638.825	6108.24
639.019	6026.32
639.212	5530.71
639.406	5387.35
639.599	5297.24
639.793	5000.29
639.986	4840.54
640.18	4729.95
640.373	4486.25
640.567	4269.16
640.76	4140.14
640.954	4041.84
641.147	3824.75
641.34	3585.14
641.534	3619.96
641.727	3466.36
641.92	3355.77
642.114	3183.74
642.307	3040.38
642.5	2993.28
642.694	2780.29
642.887	2722.95
643.08	2598.02
643.273	2724.99
643.467	2448.52
643.66	2284.68
643.853	2208.9
644.046	2202.76
644.239	2053.26
644.432	1961.1
644.626	1879.18
644.819	1795.22
645.012	1789.07
645.205	1830.03
645.398	1789.07
645.591	1506.45
645.784	1402.01
645.977	1318.04
646.17	1387.67
646.363	1428.63
646.556	1318.04
646.749	1213.59
646.942	1160.34
647.135	1119.39
647.328	1107.1
647.521	1098.91
647.714	1096.86
647.907	951.45
648.099	904.35
648.292	1008.8
648.485	867.49
648.678	801.95
648.871	767.13
649.064	816.29
649.256	713.89
649.449	642.21
649.642	605.35
649.835	660.64
650.027	597.15
650.22	640.16
650.413	576.67
650.605	574.63
650.798	502.95
650.991	537.76
651.183	562.34
651.376	537.76
651.568	533.67
651.761	429.22
651.954	548
652.146	408.74
652.339	564.39
652.531	490.66
652.724	412.84
652.916	384.16
653.109	302.25
653.301	464.04
653.494	457.89
653.686	398.5
653.879	466.08
654.071	367.78
654.263	275.62
654.456	304.29
654.648	416.93
654.84	289.96
655.033	320.68
655.225	341.16
655.417	240.81
655.61	423.08
655.802	363.69
655.994	351.4
656.186	162.98
656.379	259.24
656.571	199.85
656.763	287.91
656.955	201.9
657.148	189.61
657.34	332.97
657.532	236.71
657.724	117.93
657.916	142.5
658.108	216.23
658.3	246.95
658.492	246.95
658.684	130.22
658.876	226.47
659.068	101.55
659.26	103.59
659.452	97.45
659.644	228.52
659.836	279.72
660.028	214.18
660.22	185.51
660.412	134.31
660.604	162.98
660.796	224.42
660.988	201.9
661.18	128.17
661.372	279.72
661.563	165.03
661.755	175.27
661.947	72.87
662.139	46.25
662.331	140.46
662.522	119.98
662.714	33.96
662.906	105.64
663.097	119.98
663.289	72.87
663.481	42.15
663.673	177.32
663.864	79.02
664.056	152.74
664.247	50.35
664.439	144.55
664.631	119.98
664.822	193.7
665.014	122.02
665.205	103.59
665.397	36.01
665.588	189.61
665.78	128.17
665.971	179.37
666.163	177.32
666.354	126.12
666.546	107.69
666.737	152.74
666.929	91.31
667.12	50.35
667.311	181.42
667.503	38.06
667.694	167.08
667.885	103.59
668.077	169.13
668.268	38.06
668.459	99.5
668.651	169.13
668.842	173.22
669.033	7.34
669.224	93.35
669.416	253.09
669.607	99.5
669.798	68.78
669.989	148.65
670.18	70.83
670.371	148.65
670.563	76.97
670.754	124.07
670.945	89.26
671.136	144.55
671.327	138.41
671.518	87.21
671.709	271.53
671.9	156.84
672.091	167.08
672.282	138.41
672.473	171.18
672.664	85.16
672.855	95.4
673.046	150.7
673.237	232.62
673.428	160.94
673.619	107.69
673.809	58.54
674	234.66
674.191	124.07
674.382	181.42
674.573	72.87
674.764	115.88
674.954	195.75
675.145	48.3
675.336	117.93
675.527	101.55
675.717	91.31
675.908	17.58
676.099	33.96
676.289	91.31
676.48	7.34
676.671	103.59
676.861	46.25
677.052	199.85
677.243	103.59
677.433	44.2
677.624	216.23
677.814	154.79
678.005	56.49
678.195	300.2
678.386	105.64
678.576	181.42
678.767	126.12
678.957	138.41
679.148	136.36
679.338	251.05
679.529	103.59
679.719	62.63
679.909	224.42
680.1	183.46
680.29	199.85
680.481	27.82
680.671	210.09
680.861	210.09
681.052	244.9
681.242	146.6
681.432	203.94
681.622	140.46
681.813	101.55
682.003	124.07
682.193	25.77
682.383	154.79
682.573	167.08
682.764	70.83
682.954	238.76
683.144	287.91
683.334	95.4
683.524	132.26
683.714	220.33
683.904	214.18
684.094	93.35
684.284	156.84
684.474	326.82
684.664	226.47
684.854	177.32
685.044	154.79
685.234	152.74
685.424	285.86
685.614	95.4
685.804	367.78
685.994	171.18
686.184	175.27
686.374	144.55
686.564	212.14
686.753	171.18
686.943	232.62
687.133	173.22
687.323	146.6
687.513	177.32
687.702	122.02
687.892	132.26
688.082	228.52
688.272	228.52
688.461	154.79
688.651	367.78
688.841	205.99
689.03	150.7
689.22	162.98
689.41	210.09
689.599	199.85
689.789	158.89
689.979	289.96
690.168	146.6
690.358	249
690.547	232.62
690.737	226.47
690.926	169.13
691.116	222.38
691.305	249
691.495	257.19
691.684	130.22
691.874	117.93
692.063	68.78
692.252	246.95
692.442	138.41
692.631	128.17
692.82	208.04
693.01	246.95
693.199	214.18
693.388	128.17
693.578	173.22
693.767	152.74
693.956	150.7
694.146	160.94
694.335	234.66
694.524	89.26
694.713	210.09
694.902	134.31
695.092	191.66
695.281	201.9
695.47	191.66
695.659	156.84
695.848	226.47
696.037	74.92
696.226	298.15
696.415	152.74
696.604	292.01
696.793	189.61
696.982	130.22
697.171	285.86
697.36	191.66
697.549	150.7
697.738	68.78
697.927	220.33
698.116	85.16
698.305	208.04
698.494	111.78
698.683	130.22
698.872	304.29
699.061	203.94
699.25	162.98
699.438	160.94
699.627	117.93
699.816	242.85
700.005	148.65
700.193	179.37
700.382	150.7
700.571	179.37
700.76	165.03
700.948	208.04
701.137	253.09
701.326	218.28
701.514	113.83
701.703	222.38
701.892	154.79
702.08	296.1
702.269	117.93
702.457	136.36
702.646	167.08
702.834	214.18
703.023	167.08
703.212	277.67
703.4	177.32
703.589	146.6
703.777	136.36
703.965	124.07
704.154	189.61
704.342	179.37
704.531	160.94
704.719	175.27
704.907	160.94
705.096	79.02
705.284	60.59
705.472	122.02
705.661	154.79
705.849	273.57
706.037	185.51
706.226	181.42
706.414	152.74
706.602	119.98
706.79	181.42
706.979	97.45
707.167	226.47
707.355	42.15
707.543	162.98
707.731	193.7
707.919	138.41
708.107	103.59
708.296	101.55
708.484	56.49
708.672	257.19
708.86	253.09
709.048	142.5
709.236	89.26
709.424	249
709.612	154.79
709.8	9.39
709.988	101.55
710.176	240.81
710.364	214.18
710.551	128.17
710.739	177.32
710.927	146.6
711.115	132.26
711.303	210.09
711.491	269.48
711.679	81.07
711.866	203.94
712.054	68.78
712.242	195.75
712.43	203.94
712.617	99.5
712.805	257.19
712.993	142.5
713.181	36.01
713.368	253.09
713.556	216.23
713.744	113.83
713.931	400.55
714.119	267.43
714.306	144.55
714.494	203.94
714.682	136.36
714.869	134.31
715.057	195.75
715.244	48.3
715.432	199.85
715.619	152.74
715.807	210.09
715.994	148.65
716.182	177.32
716.369	240.81
716.556	220.33
716.744	85.16
716.931	95.4
717.119	181.42
717.306	179.37
717.493	203.94
717.681	136.36
717.868	146.6
718.055	162.98
718.242	210.09
718.43	197.8
718.617	283.81
718.804	285.86
718.991	263.33
719.179	124.07
719.366	208.04
719.553	218.28
719.74	203.94
719.927	222.38
720.114	246.95
720.301	99.5
720.488	146.6
720.676	181.42
720.863	240.81
721.05	298.15
721.237	261.29
721.424	236.71
721.611	132.26
721.798	199.85
721.985	126.12
722.172	189.61
722.358	103.59
722.545	369.83
722.732	197.8
722.919	349.35
723.106	234.66
723.293	185.51
723.48	156.84
723.667	216.23
723.853	281.77
724.04	253.09
724.227	271.53
724.414	210.09
724.6	285.86
724.787	324.77
724.974	365.73
725.161	257.19
725.347	138.41
725.534	253.09
725.72	283.81
725.907	242.85
726.094	240.81
726.28	193.7
726.467	199.85
726.653	183.46
726.84	339.11
727.027	332.97
727.213	289.96
727.4	285.86
727.586	343.21
727.773	165.03
727.959	234.66
728.145	220.33
728.332	259.24
728.518	158.89
728.705	197.8
728.891	203.94
729.077	269.48
729.264	130.22
729.45	242.85
729.636	296.1
729.823	253.09
730.009	308.39
730.195	271.53
730.382	310.44
730.568	154.79
730.754	214.18
730.94	203.94
731.126	228.52
731.313	308.39
731.499	185.51
731.685	281.77
731.871	300.2
732.057	273.57
732.243	304.29
732.429	335.01
732.615	335.01
732.801	277.67
732.987	226.47
733.173	287.91
733.359	208.04
733.545	279.72
733.731	214.18
733.917	347.3
734.103	314.53
734.289	306.34
734.475	197.8
734.661	433.32
734.847	173.22
735.033	261.29
735.219	332.97
735.404	158.89
735.59	279.72
735.776	181.42
735.962	365.73
736.148	357.54
736.333	281.77
736.519	232.62
736.705	238.76
736.89	220.33
737.076	312.49
737.262	226.47
737.447	183.46
737.633	236.71
737.819	398.5
738.004	263.33
738.19	332.97
738.375	265.38
738.561	326.82
738.747	238.76
738.932	203.94
739.118	408.74
739.303	382.12
739.489	310.44
739.674	189.61
739.859	173.22
740.045	259.24
740.23	224.42
740.416	144.55
740.601	257.19
740.786	257.19
740.972	267.43
741.157	179.37
741.342	210.09
741.528	160.94
741.713	353.45
741.898	230.57
742.084	306.34
742.269	173.22
742.454	343.21
742.639	310.44
742.824	242.85
743.01	396.45
743.195	361.64
743.38	257.19
743.565	177.32
743.75	312.49
743.935	263.33
744.12	318.63
744.305	171.18
744.49	134.31
744.675	218.28
744.86	281.77
745.045	230.57
745.23	332.97
745.415	281.77
745.6	382.12
745.785	128.17
745.97	357.54
746.155	355.49
746.34	277.67
746.525	289.96
746.71	355.49
746.895	169.13
747.079	171.18
747.264	238.76
747.449	314.53
747.634	373.92
747.819	308.39
748.003	177.32
748.188	310.44
748.373	220.33
748.557	246.95
748.742	361.64
748.927	302.25
749.111	265.38
749.296	216.23
749.481	285.86
749.665	224.42
749.85	167.08
750.034	261.29
750.219	195.75
750.404	261.29
750.588	169.13
750.773	160.94
750.957	228.52
751.141	185.51
751.326	222.38
751.51	81.07
751.695	218.28
751.879	191.66
752.064	353.45
752.248	193.7
752.432	308.39
752.617	246.95
752.801	195.75
752.985	203.94
753.17	234.66
753.354	242.85
753.538	244.9
753.722	54.44
753.907	226.47
754.091	140.46
754.275	226.47
754.459	95.4
754.643	193.7
754.828	173.22
755.012	203.94
755.196	124.07
755.38	244.9
755.564	101.55
755.748	122.02
755.932	269.48
756.116	197.8
756.3	238.76
756.484	144.55
756.668	175.27
756.852	79.02
757.036	216.23
757.22	156.84
757.404	95.4
757.588	117.93
757.772	259.24
757.956	177.32
758.14	306.34
758.323	89.26
758.507	136.36
758.691	160.94
758.875	210.09
759.059	261.29
759.242	113.83
759.426	87.21
759.61	205.99
759.794	124.07
759.977	214.18
760.161	367.78
760.345	183.46
760.528	181.42
760.712	193.7
760.895	101.55
761.079	132.26
761.263	109.74
761.446	167.08
761.63	195.75
761.813	220.33
761.997	56.49
762.18	113.83
762.364	230.57
762.547	42.15
762.731	152.74
762.914	101.55
763.098	117.93
763.281	156.84
763.464	138.41
763.648	195.75
763.831	113.83
764.015	154.79
764.198	181.42
764.381	117.93
764.564	171.18
764.748	132.26
764.931	185.51
765.114	140.46
765.297	222.38
765.481	115.88
765.664	162.98
765.847	140.46
766.03	181.42
766.213	40.11
766.397	66.73
766.58	68.78
766.763	201.9
766.946	60.59
767.129	126.12
767.312	21.67
767.495	44.2
767.678	-7
767.861	44.2
768.044	50.35
768.227	9.39
768.41	70.83
768.593	199.85
768.776	76.97
768.959	33.96
769.142	132.26
769.324	132.26
769.507	81.07
769.69	81.07
769.873	66.73
770.056	173.22
770.239	60.59
770.421	124.07
770.604	91.31
770.787	23.72
770.97	29.87
771.152	-27.48
771.335	117.93
771.518	42.15
771.7	165.03
771.883	208.04
772.066	52.39
772.248	58.54
772.431	156.84
772.613	119.98
772.796	93.35
772.978	95.4
773.161	183.46
773.343	64.68
773.526	38.06
773.708	-41.81
773.891	27.82
774.073	50.35
774.256	79.02
774.438	173.22
774.621	42.15
774.803	146.6
774.985	44.2
775.168	119.98
775.35	97.45
775.532	119.98
775.715	89.26
775.897	27.82
776.079	1.19
776.261	99.5
776.444	64.68
776.626	124.07
776.808	44.2
776.99	-9.05
777.173	46.25
777.355	42.15
777.537	79.02
777.719	167.08
777.901	19.63
778.083	15.53
778.265	-23.38
778.447	103.59
778.629	105.64
778.811	72.87
778.993	138.41
779.175	103.59
779.357	83.11
779.539	-4.95
779.721	148.65
779.903	74.92
780.085	-15.19
780.267	122.02
780.449	85.16
780.631	144.55
780.812	154.79
780.994	46.25
781.176	48.3
781.358	13.48
781.54	3.24
781.721	91.31
781.903	136.36
782.085	23.72
782.267	140.46
782.448	-21.33
782.63	58.54
782.812	83.11
782.993	23.72
783.175	58.54
783.357	3.24
783.538	212.14
783.72	46.25
783.901	60.59
784.083	109.74
784.264	-11.09
784.446	-111.44
784.627	-43.86
784.809	79.02
784.99	-7
785.172	140.46
785.353	11.43
785.535	119.98
785.716	5.29
785.897	-52.05
786.079	-84.82
786.26	-0.85
786.441	9.39
786.623	-103.25
786.804	-52.05
786.985	-2.9
787.167	44.2
787.348	9.39
787.529	-4.95
787.71	142.5
787.891	54.44
788.073	54.44
788.254	-35.67
788.435	140.46
788.616	44.2
788.797	-9.05
788.978	21.67
789.159	-7
789.34	99.5
789.522	74.92
789.703	-13.14
789.884	33.96
790.065	40.11
790.246	111.78
790.427	9.39
790.607	150.7
790.788	119.98
790.969	-50
791.15	72.87
791.331	-43.86
791.512	50.35
791.693	-11.09
791.874	-62.29
792.054	124.07
792.235	105.64
792.416	-2.9
792.597	-15.19
792.778	62.63
792.958	-7
793.139	62.63
793.32	25.77
793.5	-31.57
793.681	103.59
793.862	50.35
794.042	38.06
794.223	-80.72
794.404	36.01
794.584	-27.48
794.765	-4.95
794.945	19.63
795.126	62.63
795.306	56.49
795.487	17.58
795.667	50.35
795.848	29.87
796.028	7.34
796.209	5.29
796.389	115.88
796.57	27.82
796.75	-21.33
796.93	-19.29
797.111	33.96
797.291	-39.76
797.471	122.02
797.652	36.01
797.832	5.29
798.012	56.49
798.192	19.63
798.373	-90.96
798.553	56.49
798.733	119.98
798.913	-90.96
799.093	-50
799.274	-9.05
799.454	81.07
799.634	87.21
799.814	124.07
799.994	76.97
800.174	-29.52
800.354	15.53
800.534	-107.35
800.714	62.63
800.894	-39.76
801.074	-127.83
801.254	-119.64
801.434	103.59
801.614	19.63
801.794	-50
801.974	1666.19
802.154	-47.96
802.334	5.29
802.514	-23.38
802.693	36.01
802.873	-62.29
803.053	136.36
803.233	50.35
803.413	23.72
803.592	-11.09
803.772	-33.62
803.952	3.24
804.131	-39.76
804.311	150.7
804.491	33.96
804.67	-35.67
804.85	-13.14
805.03	9.39
805.209	70.83
805.389	25.77
805.568	13.48
805.748	17.58
805.928	-56.15
806.107	23.72
806.287	-29.52
806.466	79.02
806.646	-123.73
806.825	9.39
807.004	7.34
807.184	66.73
807.363	93.35
807.543	91.31
807.722	-9.05
807.901	130.22
808.081	11.43
808.26	-152.4
808.439	62.63
808.619	52.39
808.798	-13.14
808.977	62.63
809.156	64.68
809.336	52.39
809.515	136.36
809.694	-9.05
809.873	-2.9
810.052	56.49
810.231	113.83
810.411	-17.24
810.59	72.87
810.769	5.29
810.948	48.3
811.127	-156.5
811.306	-121.68
811.485	-21.33
811.664	72.87
811.843	-21.33
812.022	46.25
812.201	27.82
812.38	17.58
812.559	-84.82
812.737	31.91
812.916	-131.92
813.095	-45.91
813.274	62.63
813.453	27.82
813.632	62.63
813.811	36.01
813.989	-97.11
814.168	11.43
814.347	-144.21
814.526	-17.24
814.704	173.22
814.883	119.98
815.062	-37.72
815.24	54.44
815.419	-66.39
815.598	103.59
815.776	-129.88
815.955	130.22
816.133	-174.93
816.312	74.92
816.49	-99.16
816.669	-13.14
816.847	-33.62
817.026	-56.15
817.204	54.44
817.383	42.15
817.561	-107.35
817.74	-27.48
817.918	21.67
818.097	-2.9
818.275	-33.62
818.453	64.68
818.632	64.68
818.81	-23.38
818.988	-29.52
819.167	-66.39
819.345	-0.85
819.523	11.43
819.701	62.63
819.879	19.63
820.058	1.19
820.236	76.97
820.414	-52.05
820.592	-11.09
820.77	-23.38
820.948	-39.76
821.127	-25.43
821.305	-35.67
821.483	-58.2
821.661	72.87
821.839	40.11
822.017	-23.38
822.195	-19.29
822.373	60.59
822.551	-7
822.729	48.3
822.907	-56.15
823.085	74.92
823.262	-13.14
823.44	-7
823.618	-54.1
823.796	-29.52
823.974	19.63
824.152	-41.81
824.329	-31.57
824.507	29.87
824.685	17.58
824.863	-13.14
825.04	17.58
825.218	33.96
825.396	19.63
825.574	58.54
825.751	58.54
825.929	60.59
826.107	-90.96
826.284	21.67
826.462	15.53
826.639	-50
826.817	27.82
826.994	-11.09
827.172	-43.86
827.349	50.35
827.527	27.82
827.704	5.29
827.882	103.59
828.059	-35.67
828.237	-29.52
828.414	33.96
828.591	-133.97
828.769	11.43
828.946	-70.48
829.124	113.83
829.301	81.07
829.478	-13.14
829.655	76.97
829.833	1.19
830.01	-62.29
830.187	29.87
830.364	-56.15
830.542	42.15
830.719	107.69
830.896	83.11
831.073	-0.85
831.25	140.46
831.427	9.39
831.604	-39.76
831.782	-72.53
831.959	9.39
832.136	15.53
832.313	29.87
832.49	-7
832.667	-35.67
832.844	-68.44
833.021	27.82
833.198	-45.91
833.374	-25.43
833.551	87.21
833.728	-2.9
833.905	52.39
834.082	-142.16
834.259	5.29
834.436	72.87
834.612	48.3
834.789	17.58
834.966	46.25
835.143	23.72
835.319	-47.96
835.496	85.16
835.673	83.11
835.85	50.35
836.026	7.34
836.203	11.43
836.38	-27.48
836.556	9.39
836.733	-52.05
836.909	101.55
837.086	36.01
837.262	-62.29
837.439	-2.9
837.616	-74.58
837.792	-35.67
837.968	-9.05
838.145	-142.16
838.321	-29.52
838.498	56.49
838.674	23.72
838.851	-35.67
839.027	-84.82
839.203	38.06
839.38	15.53
839.556	-84.82
839.732	162.98
839.909	-54.1
840.085	29.87
840.261	-37.72
840.437	-31.57
840.614	-52.05
840.79	93.35
840.966	-2.9
841.142	-23.38
841.318	-76.63
841.494	-29.52
841.671	89.26
841.847	-119.64
842.023	-60.24
842.199	62.63
842.375	74.92
842.551	-82.77
842.727	-64.34
842.903	138.41
843.079	-39.76
843.255	103.59
843.431	-9.05
843.607	21.67
843.783	-121.68
843.959	66.73
844.134	-93.01
844.31	146.6
844.486	-37.72
844.662	25.77
844.838	-0.85
845.013	17.58
845.189	101.55
845.365	15.53
845.541	25.77
845.716	15.53
845.892	72.87
846.068	9.39
846.244	-45.91
846.419	93.35
846.595	-95.06
846.77	-113.49
846.946	126.12
847.122	3.24
847.297	-7
847.473	160.94
847.648	-60.24
847.824	52.39
847.999	-111.44
848.175	-33.62
848.35	19.63
848.526	7.34
848.701	64.68
848.876	62.63
849.052	76.97
849.227	-37.72
849.403	46.25
849.578	-62.29
849.753	7.34
849.929	-9.05
850.104	-82.77
850.279	31.91
850.454	42.15
850.63	58.54
850.805	54.44
850.98	-29.52
851.155	52.39
851.33	5.29
851.505	-131.92
851.681	177.32
851.856	66.73
852.031	5.29
852.206	38.06
852.381	-35.67
852.556	17.58
852.731	40.11
852.906	62.63
853.081	27.82
853.256	95.4
853.431	-27.48
853.606	-25.43
853.781	-80.72
853.956	-158.55
854.131	-15.19
854.305	-82.77
854.48	-58.2
854.655	-58.2
854.83	-64.34
855.005	9.39
855.18	21.67
855.354	-35.67
855.529	1.19
855.704	19.63
855.879	74.92
856.053	-29.52
856.228	56.49
856.403	-90.96
856.577	64.68
856.752	-121.68
856.926	15.53
857.101	-2.9
857.276	-80.72
857.45	7.34
857.625	17.58
857.799	-7
857.974	-31.57
858.148	-101.2
858.323	58.54
858.497	-82.77
858.672	-47.96
858.846	-0.85
859.02	48.3
859.195	-43.86
859.369	-47.96
859.543	5.29
859.718	-47.96
859.892	-17.24
860.066	81.07
860.241	21.67
860.415	-64.34
860.589	-60.24
860.763	-23.38
860.938	-62.29
861.112	52.39
861.286	-74.58
861.46	15.53
861.634	9.39
861.808	85.16
861.982	-43.86
862.157	-60.24
862.331	-29.52
862.505	-144.21
862.679	-93.01
862.853	23.72
863.027	40.11
863.201	107.69
863.375	-68.44
863.549	36.01
863.722	11.43
863.896	99.5
864.07	-62.29
864.244	-41.81
864.418	128.17
864.592	-4.95
864.766	-13.14
864.939	17.58
865.113	7.34
865.287	87.21
865.461	-111.44
865.634	23.72
865.808	-86.87
865.982	-33.62
866.156	-56.15
866.329	-93.01
866.503	13.48
866.676	11.43
866.85	31.91
867.024	-41.81
867.197	-0.85
867.371	44.2
867.544	13.48
867.718	-95.06
867.891	101.55
868.065	-123.73
868.238	13.48
868.412	177.32
868.585	-4.95
868.759	-84.82
868.932	-19.29
869.105	-70.48
869.279	-0.85
869.452	-129.88
869.625	76.97
869.799	-15.19
869.972	-72.53
870.145	-9.05
870.319	48.3
870.492	-9.05
870.665	-58.2
870.838	-39.76
871.011	-170.83
871.185	-45.91
871.358	3.24
871.531	-9.05
871.704	-105.3
871.877	-45.91
872.05	-72.53
872.223	-84.82
872.396	74.92
872.569	1.19
872.742	-127.83
872.915	-19.29
873.088	-0.85
873.261	-82.77
873.434	3.24
873.607	-29.52
873.78	146.6
873.953	-64.34
874.126	15.53
874.299	-41.81
874.471	-68.44
874.644	-17.24
874.817	48.3
874.99	-11.09
875.163	-25.43
875.335	13.48
875.508	44.2
875.681	62.63
875.853	-13.14
876.026	-13.14
876.199	60.59
876.371	68.78
876.544	19.63
876.717	23.72
876.889	-43.86
877.062	-27.48
877.234	-82.77
877.407	-39.76
877.579	50.35
877.752	21.67
877.924	81.07
878.097	-25.43
878.269	17.58
878.442	38.06
878.614	25.77
878.786	21.67
878.959	9.39
879.131	-7
879.303	-88.92
879.476	-2.9
879.648	72.87
879.82	-50
879.993	-13.14
880.165	17.58
880.337	-2.9
880.509	-21.33
880.681	-115.54
880.854	-60.24
881.026	105.64
881.198	83.11
881.37	40.11
881.542	-45.91
881.714	-7
881.886	-90.96
882.058	-25.43
882.23	9.39
882.402	-45.91
882.574	-23.38
882.746	70.83
882.918	111.78
883.09	103.59
883.262	40.11
883.434	27.82
883.606	-50
883.778	-31.57
883.95	175.27
884.122	-80.72
884.293	62.63
884.465	-9.05
884.637	46.25
884.809	-95.06
884.98	19.63
885.152	70.83
885.324	3.24
885.496	-58.2
885.667	38.06
885.839	-68.44
886.011	19.63
886.182	5.29
886.354	11.43
886.525	-25.43
886.697	-25.43
886.869	-99.16
887.04	-138.07
887.212	113.83
887.383	158.89
887.555	44.2
887.726	-115.54
887.897	-80.72
888.069	50.35
888.24	40.11
888.412	23.72
888.583	-2.9
888.754	-19.29
888.926	-103.25
889.097	-31.57
889.268	-50
889.44	70.83
889.611	-23.38
889.782	-80.72
889.953	-86.87
890.125	60.59
890.296	-123.73
890.467	-2.9
890.638	-33.62
890.809	-60.24
890.98	-133.97
891.151	42.15
891.323	79.02
891.494	-9.05
891.665	-11.09
891.836	5.29
892.007	-19.29
892.178	-29.52
892.349	-19.29
892.52	-117.59
892.691	54.44
892.862	-39.76
893.032	-111.44
893.203	-2.9
893.374	-25.43
893.545	101.55
893.716	-33.62
893.887	15.53
894.057	-31.57
894.228	-9.05
894.399	-60.24
894.57	74.92
894.74	-47.96
894.911	40.11
895.082	-84.82
895.253	-45.91
895.423	-15.19
895.594	44.2
895.764	54.44
895.935	-95.06
896.106	9.39
896.276	-125.78
896.447	7.34
896.617	-117.59
896.788	-117.59
896.958	-90.96
897.129	9.39
897.299	-97.11
897.47	97.45
897.64	-15.19
897.81	-31.57
897.981	-4.95
898.151	-111.44
898.322	25.77
898.492	1.19
898.662	-37.72
898.832	-93.01
899.003	-68.44
899.173	44.2
899.343	-84.82
899.513	-142.16
