Data from USB4F104151__16__10-23-18-948.txt Node

Date: Wed Feb 26 10:23:18 EST 2025
User: louis
Spectrometer: USB4F10415
Trigger mode: 4
Integration Time (sec): 1.000000E-1
Scans to average: 1
Electric dark correction enabled: true
Nonlinearity correction enabled: false
Boxcar width: 0
XAxis mode: Wavelengths
Number of Pixels in Spectrum: 3648
>>>>>Begin Spectral Data<<<<<
178.204	-390.14
178.424	-390.14
178.644	-390.14
178.864	-431.1
179.084	-377.85
179.304	-3.07
179.524	-23.55
179.744	19.46
179.964	109.57
180.184	-13.31
180.404	33.79
180.624	-50.18
180.844	21.5
181.064	-46.08
181.283	91.13
181.503	-87.04
181.723	-52.22
181.943	-70.65
182.163	189.44
182.383	15.36
182.602	41.98
182.822	130.05
183.042	41.98
183.262	-31.74
183.482	1.02
183.701	5.12
183.921	5.12
184.141	-7.17
184.361	31.74
184.58	41.98
184.8	11.26
185.02	9.22
185.239	-19.46
185.459	101.37
185.679	117.76
185.898	-107.52
186.118	119.81
186.338	29.7
186.557	95.23
186.777	-54.27
186.997	-9.22
187.216	62.46
187.436	150.53
187.655	-7.17
187.875	3.07
188.095	9.22
188.314	138.24
188.534	185.34
188.753	-56.32
188.973	113.66
189.192	193.53
189.412	11.26
189.631	-3.07
189.851	46.08
190.07	152.57
190.29	-76.8
190.509	-46.08
190.729	-3.07
190.948	119.81
191.168	265.21
191.387	95.23
191.607	41.98
191.826	93.18
192.045	29.7
192.265	91.13
192.484	-11.26
192.704	-7.17
192.923	-21.5
193.142	103.42
193.362	25.6
193.581	193.53
193.8	50.18
194.02	99.33
194.239	60.42
194.458	140.29
194.678	-31.74
194.897	48.13
195.116	15.36
195.335	76.8
195.555	25.6
195.774	-48.13
195.993	54.27
196.212	66.56
196.432	-7.17
196.651	-41.98
196.87	23.55
197.089	244.73
197.308	72.7
197.528	52.22
197.747	31.74
197.966	37.89
198.185	160.77
198.404	-33.79
198.623	166.91
198.842	58.37
199.062	121.85
199.281	23.55
199.5	70.65
199.719	64.51
199.938	-9.22
200.157	66.56
200.376	144.38
200.595	156.67
200.814	35.84
201.033	11.26
201.252	152.57
201.471	1.02
201.69	54.27
201.909	31.74
202.128	50.18
202.347	82.94
202.566	-5.12
202.785	-105.47
203.004	41.98
203.223	347.13
203.442	-5.12
203.661	-48.13
203.879	52.22
204.098	66.56
204.317	-27.65
204.536	50.18
204.755	117.76
204.974	148.48
205.193	39.94
205.411	138.24
205.63	121.85
205.849	25.6
206.068	15.36
206.287	-37.89
206.505	134.14
206.724	48.13
206.943	-66.56
207.162	-50.18
207.381	111.61
207.599	29.7
207.818	13.31
208.037	-7.17
208.255	7.17
208.474	13.31
208.693	103.42
208.911	58.37
209.13	91.13
209.349	80.89
209.567	70.65
209.786	5.12
210.005	56.32
210.223	-21.5
210.442	-99.33
210.661	82.94
210.879	119.81
211.098	-27.65
211.316	50.18
211.535	80.89
211.753	21.5
211.972	66.56
212.191	-17.41
212.409	117.76
212.628	152.57
212.846	-13.31
213.065	3.07
213.283	84.99
213.502	-44.03
213.72	66.56
213.938	68.61
214.157	44.03
214.375	158.72
214.594	82.94
214.812	27.65
215.031	15.36
215.249	44.03
215.467	107.52
215.686	15.36
215.904	150.53
216.122	33.79
216.341	125.95
216.559	3.07
216.778	68.61
216.996	95.23
217.214	15.36
217.432	23.55
217.651	-19.46
217.869	48.13
218.087	-13.31
218.306	-76.8
218.524	21.5
218.742	-17.41
218.96	44.03
219.179	27.65
219.397	-5.12
219.615	173.05
219.833	146.43
220.051	-52.22
220.27	115.71
220.488	87.04
220.706	119.81
220.924	-50.18
221.142	-19.46
221.36	99.33
221.578	41.98
221.796	9.22
222.015	27.65
222.233	33.79
222.451	175.1
222.669	-17.41
222.887	132.09
223.105	60.42
223.323	60.42
223.541	-25.6
223.759	84.99
223.977	64.51
224.195	148.48
224.413	76.8
224.631	25.6
224.849	3.07
225.067	216.06
225.285	13.31
225.503	-50.18
225.721	-44.03
225.939	35.84
226.157	54.27
226.375	222.2
226.592	13.31
226.81	-9.22
227.028	142.33
227.246	111.61
227.464	87.04
227.682	72.7
227.9	60.42
228.117	74.75
228.335	35.84
228.553	72.7
228.771	5.12
228.989	80.89
229.206	56.32
229.424	5.12
229.642	68.61
229.86	3.07
230.077	78.85
230.295	-80.89
230.513	54.27
230.731	33.79
230.948	117.76
231.166	60.42
231.384	-70.65
231.601	-58.37
231.819	128
232.037	-39.94
232.254	-11.26
232.472	-23.55
232.689	-1.02
232.907	80.89
233.125	13.31
233.342	-19.46
233.56	-97.28
233.777	33.79
233.995	54.27
234.213	74.75
234.43	146.43
234.648	13.31
234.865	13.31
235.083	119.81
235.3	25.6
235.518	11.26
235.735	103.42
235.953	60.42
236.17	11.26
236.388	-5.12
236.605	62.46
236.822	171.01
237.04	136.19
237.257	13.31
237.475	-27.65
237.692	82.94
237.909	64.51
238.127	-31.74
238.344	74.75
238.562	19.46
238.779	-76.8
238.996	-31.74
239.214	87.04
239.431	68.61
239.648	-3.07
239.865	54.27
240.083	50.18
240.3	-35.84
240.517	-31.74
240.735	-15.36
240.952	103.42
241.169	103.42
241.386	97.28
241.603	-31.74
241.821	-62.46
242.038	80.89
242.255	103.42
242.472	3.07
242.689	87.04
242.907	97.28
243.124	54.27
243.341	-1.02
243.558	-62.46
243.775	-31.74
243.992	-76.8
244.209	50.18
244.426	117.76
244.643	35.84
244.86	3.07
245.078	54.27
245.295	35.84
245.512	-11.26
245.729	58.37
245.946	-46.08
246.163	66.56
246.38	39.94
246.597	62.46
246.814	33.79
247.031	70.65
247.248	-11.26
247.464	89.09
247.681	66.56
247.898	35.84
248.115	136.19
248.332	-37.89
248.549	168.96
248.766	25.6
248.983	41.98
249.2	54.27
249.417	187.39
249.633	9.22
249.85	68.61
250.067	23.55
250.284	68.61
250.501	56.32
250.717	72.7
250.934	-58.37
251.151	84.99
251.368	13.31
251.585	13.31
251.801	17.41
252.018	-72.7
252.235	80.89
252.451	3.07
252.668	41.98
252.885	19.46
253.102	93.18
253.318	-46.08
253.535	9.22
253.752	-19.46
253.968	64.51
254.185	-105.47
254.401	44.03
254.618	66.56
254.835	-37.89
255.051	128
255.268	54.27
255.484	50.18
255.701	-7.17
255.917	142.33
256.134	-60.42
256.351	89.09
256.567	27.65
256.784	21.5
257	-31.74
257.217	101.37
257.433	158.72
257.65	5.12
257.866	207.87
258.082	-1.02
258.299	3.07
258.515	29.7
258.732	-33.79
258.948	-82.94
259.165	46.08
259.381	-15.36
259.597	-7.17
259.814	17.41
260.03	35.84
260.246	91.13
260.463	111.61
260.679	205.82
260.895	37.89
261.112	74.75
261.328	5.12
261.544	-5.12
261.761	144.38
261.977	-5.12
262.193	35.84
262.409	107.52
262.626	-17.41
262.842	60.42
263.058	-31.74
263.274	156.67
263.49	164.86
263.707	50.18
263.923	78.85
264.139	-13.31
264.355	97.28
264.571	140.29
264.787	33.79
265.004	89.09
265.22	91.13
265.436	-41.98
265.652	41.98
265.868	105.47
266.084	-48.13
266.3	21.5
266.516	33.79
266.732	103.42
266.948	142.33
267.164	-15.36
267.38	113.66
267.596	19.46
267.812	128
268.028	-9.22
268.244	50.18
268.46	39.94
268.676	7.17
268.892	91.13
269.108	-25.6
269.324	-3.07
269.54	-183.29
269.756	101.37
269.972	-99.33
270.188	-31.74
270.403	-19.46
270.619	-5.12
270.835	50.18
271.051	101.37
271.267	-33.79
271.483	19.46
271.698	162.81
271.914	13.31
272.13	132.09
272.346	66.56
272.562	25.6
272.777	111.61
272.993	44.03
273.209	15.36
273.425	99.33
273.64	-68.61
273.856	82.94
274.072	11.26
274.287	66.56
274.503	74.75
274.719	183.29
274.934	31.74
275.15	-60.42
275.366	39.94
275.581	-46.08
275.797	-1.02
276.012	58.37
276.228	-29.7
276.444	44.03
276.659	199.68
276.875	-19.46
277.09	97.28
277.306	21.5
277.521	-3.07
277.737	46.08
277.952	91.13
278.168	27.65
278.383	50.18
278.599	54.27
278.814	64.51
279.03	-1.02
279.245	171.01
279.461	29.7
279.676	154.62
279.892	-60.42
280.107	-56.32
280.322	-25.6
280.538	134.14
280.753	-74.75
280.969	46.08
281.184	70.65
281.399	93.18
281.615	54.27
281.83	56.32
282.045	-33.79
282.26	-9.22
282.476	99.33
282.691	130.05
282.906	105.47
283.122	48.13
283.337	-1.02
283.552	46.08
283.767	-35.84
283.983	64.51
284.198	50.18
284.413	80.89
284.628	-3.07
284.843	27.65
285.058	21.5
285.274	13.31
285.489	35.84
285.704	11.26
285.919	-27.65
286.134	27.65
286.349	54.27
286.564	70.65
286.779	146.43
286.995	1.02
287.21	-70.65
287.425	89.09
287.64	11.26
287.855	68.61
288.07	-60.42
288.285	89.09
288.5	142.33
288.715	50.18
288.93	-5.12
289.145	66.56
289.36	95.23
289.575	9.22
289.79	185.34
290.004	-31.74
290.219	84.99
290.434	-56.32
290.649	-31.74
290.864	3.07
291.079	-46.08
291.294	60.42
291.509	80.89
291.724	-48.13
291.938	56.32
292.153	25.6
292.368	-29.7
292.583	144.38
292.798	25.6
293.012	56.32
293.227	17.41
293.442	-17.41
293.657	125.95
293.871	136.19
294.086	60.42
294.301	191.49
294.516	72.7
294.73	37.89
294.945	-123.9
295.16	23.55
295.374	95.23
295.589	29.7
295.804	-31.74
296.018	58.37
296.233	119.81
296.447	21.5
296.662	17.41
296.877	125.95
297.091	60.42
297.306	82.94
297.52	95.23
297.735	21.5
297.949	-21.5
298.164	62.46
298.378	117.76
298.593	-29.7
298.807	-35.84
299.022	33.79
299.236	150.53
299.451	-60.42
299.665	39.94
299.88	21.5
300.094	66.56
300.309	-1.02
300.523	60.42
300.737	17.41
300.952	27.65
301.166	25.6
301.381	-35.84
301.595	-54.27
301.809	5.12
302.024	-21.5
302.238	9.22
302.452	152.57
302.667	29.7
302.881	199.68
303.095	19.46
303.309	72.7
303.524	9.22
303.738	39.94
303.952	-1.02
304.166	91.13
304.381	-50.18
304.595	117.76
304.809	9.22
305.023	103.42
305.237	-56.32
305.452	31.74
305.666	48.13
305.88	113.66
306.094	56.32
306.308	70.65
306.522	105.47
306.736	29.7
306.95	78.85
307.164	70.65
307.379	-11.26
307.593	179.2
307.807	103.42
308.021	41.98
308.235	72.7
308.449	-74.75
308.663	72.7
308.877	187.39
309.091	1.02
309.305	41.98
309.519	-68.61
309.733	107.52
309.947	-74.75
310.161	50.18
310.374	95.23
310.588	119.81
310.802	-13.31
311.016	29.7
311.23	72.7
311.444	-41.98
311.658	19.46
311.872	134.14
312.085	164.86
312.299	162.81
312.513	95.23
312.727	58.37
312.941	-84.99
313.154	91.13
313.368	44.03
313.582	23.55
313.796	60.42
314.009	19.46
314.223	105.47
314.437	37.89
314.651	109.57
314.864	-19.46
315.078	5.12
315.292	-17.41
315.505	-19.46
315.719	60.42
315.933	54.27
316.146	-25.6
316.36	-74.75
316.573	138.24
316.787	78.85
317.001	46.08
317.214	23.55
317.428	29.7
317.641	46.08
317.855	1.02
318.068	41.98
318.282	97.28
318.495	138.24
318.709	52.22
318.922	89.09
319.136	156.67
319.349	17.41
319.563	-31.74
319.776	76.8
319.99	-138.24
320.203	29.7
320.417	27.65
320.63	80.89
320.843	224.25
321.057	62.46
321.27	-7.17
321.483	41.98
321.697	121.85
321.91	68.61
322.124	80.89
322.337	68.61
322.55	31.74
322.763	-13.31
322.977	11.26
323.19	-21.5
323.403	50.18
323.617	35.84
323.83	72.7
324.043	25.6
324.256	1.02
324.469	-56.32
324.683	148.48
324.896	-78.85
325.109	41.98
325.322	1.02
325.535	117.76
325.748	91.13
325.962	5.12
326.175	56.32
326.388	60.42
326.601	119.81
326.814	-7.17
327.027	31.74
327.24	154.62
327.453	-82.94
327.666	60.42
327.879	162.81
328.092	150.53
328.305	21.5
328.518	-7.17
328.731	-5.12
328.944	15.36
329.157	99.33
329.37	-35.84
329.583	265.21
329.796	189.44
330.009	-80.89
330.222	164.86
330.435	132.09
330.648	41.98
330.861	1.02
331.073	132.09
331.286	154.62
331.499	13.31
331.712	-70.65
331.925	54.27
332.138	21.5
332.35	82.94
332.563	-3.07
332.776	111.61
332.989	17.41
333.202	66.56
333.414	60.42
333.627	39.94
333.84	-5.12
334.053	44.03
334.265	37.89
334.478	17.41
334.691	1.02
334.903	-1.02
335.116	25.6
335.329	-54.27
335.541	7.17
335.754	78.85
335.966	21.5
336.179	33.79
336.392	33.79
336.604	13.31
336.817	119.81
337.029	21.5
337.242	82.94
337.454	31.74
337.667	-23.55
337.88	128
338.092	111.61
338.305	74.75
338.517	25.6
338.729	64.51
338.942	148.48
339.154	-62.46
339.367	5.12
339.579	99.33
339.792	-11.26
340.004	97.28
340.217	-7.17
340.429	50.18
340.641	-64.51
340.854	-97.28
341.066	54.27
341.278	177.15
341.491	111.61
341.703	29.7
341.915	17.41
342.128	89.09
342.34	37.89
342.552	-39.94
342.764	50.18
342.977	52.22
343.189	25.6
343.401	105.47
343.613	-125.95
343.826	15.36
344.038	-13.31
344.25	44.03
344.462	-25.6
344.674	-7.17
344.886	-1.02
345.099	48.13
345.311	66.56
345.523	-23.55
345.735	-68.61
345.947	54.27
346.159	29.7
346.371	109.57
346.583	1.02
346.795	201.72
347.007	-48.13
347.219	23.55
347.431	29.7
347.643	95.23
347.855	-62.46
348.067	78.85
348.279	-33.79
348.491	9.22
348.703	115.71
348.915	-7.17
349.127	-35.84
349.339	54.27
349.551	-31.74
349.763	52.22
349.975	39.94
350.187	97.28
350.399	136.19
350.61	21.5
350.822	-17.41
351.034	35.84
351.246	68.61
351.458	93.18
351.669	103.42
351.881	80.89
352.093	68.61
352.305	136.19
352.517	80.89
352.728	103.42
352.94	70.65
353.152	27.65
353.363	-35.84
353.575	50.18
353.787	146.43
353.999	187.39
354.21	76.8
354.422	-29.7
354.633	27.65
354.845	41.98
355.057	50.18
355.268	-35.84
355.48	13.31
355.692	-35.84
355.903	74.75
356.115	-13.31
356.326	-80.89
356.538	123.9
356.749	91.13
356.961	140.29
357.172	64.51
357.384	-23.55
357.595	130.05
357.807	48.13
358.018	60.42
358.23	33.79
358.441	111.61
358.653	130.05
358.864	19.46
359.075	-132.09
359.287	17.41
359.498	87.04
359.709	99.33
359.921	44.03
360.132	44.03
360.344	-48.13
360.555	-44.03
360.766	29.7
360.977	-19.46
361.189	105.47
361.4	46.08
361.611	99.33
361.823	152.57
362.034	97.28
362.245	-91.13
362.456	-17.41
362.667	52.22
362.879	-17.41
363.09	111.61
363.301	119.81
363.512	64.51
363.723	27.65
363.935	9.22
364.146	134.14
364.357	-9.22
364.568	-5.12
364.779	-84.99
364.99	171.01
365.201	-80.89
365.412	144.38
365.623	-29.7
365.834	70.65
366.045	101.37
366.256	54.27
366.467	97.28
366.678	-89.09
366.889	5.12
367.1	21.5
367.311	166.91
367.522	37.89
367.733	9.22
367.944	33.79
368.155	84.99
368.366	117.76
368.577	50.18
368.788	62.46
368.999	-37.89
369.209	15.36
369.42	246.78
369.631	171.01
369.842	60.42
370.053	-29.7
370.264	95.23
370.474	33.79
370.685	-11.26
370.896	19.46
371.107	132.09
371.317	66.56
371.528	-97.28
371.739	144.38
371.95	99.33
372.16	74.75
372.371	-82.94
372.582	74.75
372.792	97.28
373.003	68.61
373.214	119.81
373.424	91.13
373.635	-52.22
373.846	68.61
374.056	113.66
374.267	44.03
374.477	80.89
374.688	-21.5
374.898	-11.26
375.109	-44.03
375.319	95.23
375.53	97.28
375.74	113.66
375.951	54.27
376.161	25.6
376.372	138.24
376.582	5.12
376.793	74.75
377.003	-5.12
377.214	-7.17
377.424	140.29
377.635	-11.26
377.845	-29.7
378.055	171.01
378.266	-17.41
378.476	-29.7
378.686	72.7
378.897	11.26
379.107	-27.65
379.317	109.57
379.528	-3.07
379.738	113.66
379.948	-37.89
380.158	113.66
380.369	44.03
380.579	50.18
380.789	-80.89
380.999	119.81
381.21	62.46
381.42	125.95
381.63	74.75
381.84	121.85
382.05	48.13
382.261	50.18
382.471	158.72
382.681	5.12
382.891	164.86
383.101	72.7
383.311	-21.5
383.521	-27.65
383.731	89.09
383.941	136.19
384.151	111.61
384.361	39.94
384.571	64.51
384.781	78.85
384.991	201.72
385.201	132.09
385.411	89.09
385.621	80.89
385.831	93.18
386.041	39.94
386.251	-17.41
386.461	66.56
386.671	-50.18
386.881	15.36
387.091	-44.03
387.301	101.37
387.511	66.56
387.72	105.47
387.93	93.18
388.14	-64.51
388.35	54.27
388.56	136.19
388.769	93.18
388.979	27.65
389.189	-25.6
389.399	50.18
389.609	74.75
389.818	60.42
390.028	70.65
390.238	13.31
390.447	-50.18
390.657	41.98
390.867	48.13
391.076	-58.37
391.286	52.22
391.496	25.6
391.705	58.37
391.915	183.29
392.125	72.7
392.334	48.13
392.544	119.81
392.753	80.89
392.963	-37.89
393.172	123.9
393.382	-48.13
393.591	144.38
393.801	68.61
394.01	166.91
394.22	9.22
394.429	109.57
394.639	13.31
394.848	27.65
395.058	74.75
395.267	-44.03
395.477	99.33
395.686	80.89
395.895	263.16
396.105	240.64
396.314	78.85
396.524	-48.13
396.733	60.42
396.942	66.56
397.152	101.37
397.361	76.8
397.57	-44.03
397.78	27.65
397.989	56.32
398.198	244.73
398.407	109.57
398.617	9.22
398.826	46.08
399.035	-9.22
399.244	48.13
399.453	113.66
399.663	84.99
399.872	11.26
400.081	-19.46
400.29	179.2
400.499	-15.36
400.708	150.53
400.917	23.55
401.127	48.13
401.336	41.98
401.545	166.91
401.754	103.42
401.963	76.8
402.172	-5.12
402.381	23.55
402.59	-25.6
402.799	52.22
403.008	76.8
403.217	70.65
403.426	128
403.635	-31.74
403.844	-11.26
404.053	19.46
404.262	5.12
404.471	146.43
404.68	52.22
404.888	31.74
405.097	-19.46
405.306	54.27
405.515	119.81
405.724	13.31
405.933	117.76
406.142	29.7
406.35	105.47
406.559	-37.89
406.768	-3.07
406.977	189.44
407.185	74.75
407.394	144.38
407.603	-9.22
407.812	39.94
408.02	72.7
408.229	-5.12
408.438	5.12
408.646	11.26
408.855	89.09
409.064	107.52
409.272	-21.5
409.481	76.8
409.69	-52.22
409.898	-3.07
410.107	91.13
410.315	50.18
410.524	11.26
410.733	66.56
410.941	-33.79
411.15	105.47
411.358	89.09
411.567	130.05
411.775	82.94
411.984	123.9
412.192	138.24
412.401	-1.02
412.609	177.15
412.818	93.18
413.026	35.84
413.234	50.18
413.443	19.46
413.651	-11.26
413.86	99.33
414.068	160.77
414.276	185.34
414.485	-19.46
414.693	187.39
414.901	179.2
415.11	93.18
415.318	-15.36
415.526	29.7
415.734	117.76
415.943	27.65
416.151	132.09
416.359	44.03
416.567	25.6
416.776	80.89
416.984	185.34
417.192	162.81
417.4	62.46
417.608	5.12
417.817	-7.17
418.025	128
418.233	105.47
418.441	15.36
418.649	27.65
418.857	125.95
419.065	144.38
419.273	-56.32
419.481	41.98
419.689	27.65
419.897	72.7
420.105	29.7
420.313	160.77
420.521	82.94
420.729	199.68
420.937	41.98
421.145	-29.7
421.353	140.29
421.561	101.37
421.769	9.22
421.977	19.46
422.185	93.18
422.393	3.07
422.601	136.19
422.809	70.65
423.017	19.46
423.224	62.46
423.432	60.42
423.64	-21.5
423.848	136.19
424.056	-33.79
424.263	33.79
424.471	17.41
424.679	160.77
424.887	17.41
425.094	144.38
425.302	74.75
425.51	50.18
425.718	132.09
425.925	25.6
426.133	-62.46
426.341	181.25
426.548	48.13
426.756	46.08
426.964	128
427.171	46.08
427.379	48.13
427.586	72.7
427.794	148.48
428.001	134.14
428.209	66.56
428.417	177.15
428.624	107.52
428.832	87.04
429.039	130.05
429.247	-9.22
429.454	93.18
429.662	158.72
429.869	23.55
430.076	80.89
430.284	105.47
430.491	185.34
430.699	146.43
430.906	158.72
431.114	23.55
431.321	177.15
431.528	80.89
431.736	130.05
431.943	144.38
432.15	171.01
432.358	121.85
432.565	203.77
432.772	29.7
432.979	175.1
433.187	72.7
433.394	189.44
433.601	171.01
433.808	175.1
434.016	203.77
434.223	224.25
434.43	183.29
434.637	185.34
434.844	232.44
435.052	201.72
435.259	230.4
435.466	216.06
435.673	226.3
435.88	228.35
436.087	320.51
436.294	324.6
436.501	269.31
436.708	254.97
436.915	293.88
437.122	316.41
437.329	203.77
437.537	304.12
437.743	189.44
437.95	336.89
438.157	398.33
438.364	293.88
438.571	244.73
438.778	320.51
438.985	351.23
439.192	480.25
439.399	334.84
439.606	476.15
439.813	461.82
440.02	541.69
440.227	562.17
440.433	492.54
440.64	437.24
440.847	453.63
441.054	578.55
441.261	627.7
441.467	506.87
441.674	467.96
441.881	666.61
442.088	515.06
442.294	748.53
442.501	697.33
442.708	785.4
442.914	652.28
443.121	754.68
443.328	840.69
443.534	859.12
443.741	750.58
443.948	674.81
444.154	877.55
444.361	1002.48
444.568	822.26
444.774	844.79
444.981	918.51
445.187	1049.58
445.394	1074.16
445.6	951.28
445.807	1092.59
446.013	1072.11
446.22	1037.3
446.426	1283.05
446.633	1268.72
446.839	1496.04
447.046	1162.22
447.252	1434.6
447.459	1403.88
447.665	1412.07
447.871	1600.49
448.078	1713.13
448.284	1657.83
448.491	1795.04
448.697	1819.62
448.903	1840.1
449.11	1926.11
449.316	1840.1
449.522	2087.9
449.728	2163.68
449.935	2135.01
450.141	2292.7
450.347	2352.09
450.553	2257.89
450.76	2290.65
450.966	2417.63
451.172	2477.02
451.378	2587.61
451.584	2780.12
451.791	2976.72
451.997	3048.4
452.203	3007.44
452.409	3271.63
452.615	3351.5
452.821	3267.53
453.027	3304.4
453.233	3578.83
453.44	3574.73
453.646	3740.61
453.852	3961.8
454.058	4078.53
454.264	4156.35
454.47	4479.93
454.676	4490.17
454.882	4887.48
455.088	4703.16
455.294	5219.25
455.5	5352.37
455.705	5684.14
455.911	5444.52
456.117	5821.35
456.323	6032.29
456.529	5958.57
456.735	6357.92
456.941	6605.72
457.147	6818.71
457.352	7064.47
457.558	7404.43
457.764	7822.22
457.97	7934.85
458.176	8358.78
458.381	8668.03
458.587	8969.08
458.793	9358.19
458.999	9186.16
459.204	10351.46
459.41	10707.8
459.616	10406.75
459.821	11402.07
460.027	11572.05
460.233	12286.79
460.438	12366.66
460.644	12811.07
460.85	13173.56
461.055	13583.15
461.261	14209.83
461.466	14037.8
461.672	14195.5
461.878	16173.83
462.083	15758.1
462.289	16059.15
462.494	16691.97
462.7	16835.33
462.905	16966.4
463.111	18557.67
463.316	19516.12
463.522	19901.14
463.727	20429.51
463.932	21523.13
464.138	21734.07
464.343	22557.35
464.549	22796.96
464.754	24378
464.959	25096.83
465.165	25791.09
465.37	25354.88
465.575	25346.69
465.781	27069.03
465.986	27687.51
466.191	27589.21
466.397	27990.61
466.602	27095.65
466.807	28459.6
467.012	29125.19
467.218	29547.07
467.423	29604.41
467.628	30388.78
467.833	32145.94
468.038	31271.46
468.244	30798.38
468.449	32268.82
468.654	31689.24
468.859	31967.77
469.064	31926.81
469.269	30843.43
469.474	31058.47
469.679	32430.61
469.885	31214.12
470.09	32025.11
470.295	31828.51
470.5	31484.45
470.705	31332.9
470.91	30143.03
471.115	30016.05
471.32	31074.85
471.525	30650.92
471.73	29749.82
471.935	29424.19
472.139	28136.02
472.344	28285.52
472.549	28158.55
472.754	27636.31
472.959	26657.39
473.164	26098.29
473.369	25690.74
473.574	26407.53
473.778	26198.64
473.983	25334.4
474.188	25115.26
474.393	24195.73
474.598	23698.07
474.802	22966.95
475.007	23052.96
475.212	22749.86
475.417	21885.62
475.621	21648.05
475.826	21451.45
476.031	20845.25
476.235	20552.39
476.44	20402.89
476.645	20009.68
476.849	19477.21
477.054	19385.05
477.259	19180.25
477.463	18848.48
477.668	18524.9
477.872	18219.75
478.077	18113.26
478.282	17505.01
478.486	17382.13
478.691	16919.29
478.895	16831.23
479.1	16620.29
479.304	16624.39
479.509	16376.58
479.713	16378.63
479.918	16231.18
480.122	15670.03
480.326	15764.24
480.531	15966.99
480.735	15840.01
480.94	15174.42
481.144	15948.56
481.348	15078.17
481.553	14838.56
481.757	14732.06
481.961	14764.83
482.166	14932.76
482.37	14668.58
482.574	14404.39
482.778	14144.3
482.983	14500.64
483.187	14179.11
483.391	14240.55
483.595	13828.91
483.8	13751.09
484.004	13867.82
484.208	13835.05
484.412	13585.2
484.616	13527.86
484.821	13327.16
485.025	12774.21
485.229	12929.85
485.433	12530.5
485.637	12501.83
485.841	12368.71
486.045	12227.4
486.249	12305.22
486.453	11819.85
486.657	11873.1
486.861	11543.38
487.065	11377.49
487.269	11221.84
487.473	10896.22
487.677	10873.69
487.881	10703.71
488.085	10515.3
488.289	10498.91
488.493	10277.73
488.697	10206.05
488.901	10058.6
489.105	9796.46
489.309	9567.09
489.512	9515.89
489.716	9188.21
489.92	8993.65
490.124	8817.53
490.328	9065.33
490.531	8510.33
490.735	8803.19
490.939	8352.64
491.143	8065.92
491.346	8235.91
491.55	7951.24
491.754	7803.78
491.958	7703.43
492.161	7826.31
492.365	7494.54
492.569	7435.15
492.772	7248.79
492.976	7203.73
493.18	7091.09
493.383	7066.52
493.587	7037.84
493.79	7148.43
493.994	6800.28
494.197	6671.26
494.401	6667.16
494.605	6474.65
494.808	6585.24
495.012	6407.07
495.215	6499.23
495.419	6419.36
495.622	6534.04
495.825	6232.99
496.029	6216.61
496.232	6454.17
496.436	6226.85
496.639	6343.58
496.843	6312.86
497.046	6402.97
497.249	6341.54
497.453	6271.9
497.656	6319.01
497.859	6159.27
498.063	6282.14
498.266	6470.56
498.469	6128.55
498.673	6196.13
498.876	6335.39
499.079	6368.16
499.282	6368.16
499.485	6595.48
499.689	6394.78
499.892	6532
500.095	6562.72
500.298	6525.85
500.501	6493.08
500.705	6755.22
500.908	6701.98
501.111	6818.71
501.314	7000.98
501.517	7031.7
501.72	7099.28
501.923	7101.33
502.126	6992.79
502.329	7152.53
502.532	7207.83
502.735	7279.5
502.938	7584.65
503.141	7259.03
503.344	7504.78
503.547	7967.62
503.75	7871.37
503.953	7957.38
504.156	7859.08
504.359	8100.74
504.562	8213.38
504.765	8299.39
504.968	8745.85
505.17	8647.55
505.373	8733.56
505.576	8747.9
505.779	9012.09
505.982	9028.47
506.185	9282.42
506.387	9337.71
506.59	9593.71
506.793	9929.58
506.996	9726.83
507.198	10283.88
507.401	10341.22
507.604	10576.73
507.807	10672.99
508.009	10879.83
508.212	11064.15
508.415	11318.1
508.617	11475.79
508.82	11772.75
509.022	11961.16
509.225	12362.56
509.428	12497.73
509.63	12913.47
509.833	12901.18
510.035	13394.74
510.238	13511.47
510.44	13728.56
510.643	14336.81
510.845	14605.09
511.048	14818.08
511.25	15235.86
511.453	15457.04
511.655	16005.9
511.858	16110.35
512.06	16251.66
512.262	16540.42
512.465	16962.3
512.667	17562.36
512.87	17783.54
513.072	18205.42
513.274	18758.37
513.477	18901.73
513.679	19792.59
513.881	19694.29
514.084	20144.84
514.286	20359.88
514.488	21224.12
514.69	21875.38
514.893	22033.07
515.095	22198.96
515.297	23202.46
515.499	23327.39
515.701	24001.17
515.904	24414.86
516.106	24812.17
516.308	25461.37
516.51	26028.66
516.712	26231.41
516.914	26608.23
517.116	27279.97
517.318	27497.05
517.52	28459.6
517.722	28242.51
517.925	29194.82
518.127	29641.28
518.329	30458.42
518.531	30173.75
518.733	31359.52
518.935	31689.24
519.136	32047.64
519.338	32573.97
519.54	33335.81
519.742	33804.8
519.944	33841.66
520.146	34748.91
520.348	35084.78
520.55	35619.3
520.752	35785.18
520.954	36350.42
521.155	36385.24
521.357	37286.34
521.559	37462.47
521.761	38171.07
521.963	38222.26
522.164	38525.36
522.366	38810.03
522.568	39391.65
522.77	39340.46
522.971	40098.2
523.173	39463.33
523.375	40333.72
523.576	40036.77
523.778	40221.08
523.98	40669.59
524.181	40890.77
524.383	40886.67
524.584	41355.66
524.786	41404.81
524.988	41630.08
525.189	41480.58
525.391	41445.77
525.592	42027.39
525.794	41413
525.995	41333.13
526.197	41269.64
526.398	41324.94
526.6	41304.46
526.801	41568.65
527.003	40708.5
527.204	41060.75
527.406	41222.54
527.607	40712.59
527.808	41013.65
528.01	39643.56
528.211	40184.22
528.412	40231.32
528.614	40090.01
528.815	39373.22
529.016	39709.09
529.218	38986.16
529.419	38752.69
529.62	37943.74
529.822	37974.46
530.023	37534.15
530.224	37190.09
530.425	36708.82
530.626	36186.58
530.828	35670.5
531.029	36315.61
531.23	35002.86
531.431	34787.82
531.632	34855.4
531.833	34681.33
532.035	33884.67
532.236	33526.27
532.437	32696.85
532.638	32266.77
532.839	32174.61
533.04	31699.48
533.241	30939.69
533.442	31132.2
533.643	30773.8
533.844	30267.95
534.045	30075.45
534.246	29205.06
534.447	28961.35
534.648	28445.26
534.849	28373.58
535.05	27923.03
535.251	27441.76
535.451	27216.48
535.652	26681.96
535.853	26679.91
536.054	26169.97
536.255	25569.91
536.456	25055.87
536.657	25229.95
536.857	24863.36
537.058	24144.53
537.259	24117.9
537.46	23870.1
537.66	23362.2
537.861	23141.02
538.062	22837.92
538.263	22579.88
538.463	21912.24
538.664	21801.65
538.865	21646.01
539.065	21318.33
539.266	20949.7
539.466	20992.7
539.667	20671.17
539.868	20353.74
540.068	19712.72
540.269	20001.49
540.469	19686.1
540.67	19692.24
540.87	19210.97
541.071	19176.16
541.271	18754.27
541.472	18799.33
541.672	18289.38
541.873	18109.16
542.073	17724.15
542.274	17853.17
542.474	17736.43
542.675	17296.12
542.875	17042.17
543.075	16810.75
543.276	16626.43
543.476	16773.89
543.676	16421.64
543.877	16309
544.077	16048.91
544.277	15758.1
544.478	15743.76
544.678	15639.31
544.878	15346.45
545.078	15319.83
545.279	14840.61
545.479	14691.1
545.679	14566.18
545.879	14504.74
546.079	14390.05
546.28	14123.82
546.48	14123.82
546.68	13845.29
546.88	13812.53
547.08	13579.06
547.28	13513.52
547.48	12923.71
547.68	13308.72
547.88	12712.77
548.081	12669.76
548.281	12677.95
548.481	12303.17
548.681	12309.32
548.881	12208.97
549.081	11942.73
549.28	11830.09
549.48	11819.85
549.68	11543.38
549.88	11240.28
550.08	11070.3
550.28	10976.09
550.48	10898.27
550.68	10845.02
550.88	10472.29
551.08	10275.68
551.279	10302.31
551.479	9980.78
551.679	10242.92
551.879	9800.55
552.079	9816.94
552.278	9411.44
552.478	9663.34
552.678	9282.42
552.878	9266.03
553.077	9077.62
553.277	8698.75
553.477	8821.63
553.676	8768.38
553.876	8340.35
554.076	8262.53
554.275	8098.69
554.475	7969.67
554.674	7951.24
554.874	7897.99
555.074	7736.2
555.273	7658.38
555.473	7521.17
555.672	7345.04
555.872	7211.92
556.071	7297.94
556.271	7064.47
556.47	6894.49
556.67	6611.87
556.869	6658.97
557.068	6661.02
557.268	6513.56
557.467	6390.69
557.667	6329.25
557.866	6042.53
558.065	6009.76
558.265	5995.43
558.464	5817.26
558.663	5862.31
558.863	5677.99
559.062	5706.66
559.261	5348.27
559.461	5542.83
559.66	5280.69
559.859	5231.54
560.058	5153.71
560.258	5047.22
560.457	4948.92
560.656	4993.97
560.855	4611
561.054	4817.85
561.253	4697.02
561.453	4635.58
561.652	4469.69
561.851	4666.3
562.05	4332.48
562.249	4367.29
562.448	4367.29
562.647	4068.29
562.846	4123.59
563.045	4111.3
563.244	4015.04
563.443	4043.71
563.642	4051.91
563.841	3898.31
564.04	3918.79
564.239	3636.17
564.438	3673.03
564.637	3578.83
564.836	3621.83
565.035	3503.05
565.234	3386.32
565.432	3474.38
565.631	3351.5
565.83	3306.45
566.029	3302.35
566.228	3163.09
566.427	3210.19
566.625	2991.06
566.824	3132.37
567.023	3070.93
567.222	3021.78
567.42	2929.62
567.619	2933.72
567.818	2837.46
568.016	3025.87
568.215	2839.51
568.414	2859.99
568.612	2761.69
568.811	2718.68
569.01	2663.38
569.208	2567.13
569.407	2509.79
569.605	2638.81
569.804	2515.93
570.002	2487.26
570.201	2386.91
570.4	2524.12
570.598	2395.1
570.797	2360.28
570.995	2268.13
571.193	2235.36
571.392	2266.08
571.59	2020.32
571.789	2167.77
571.987	2229.21
572.186	2092
572.384	2051.04
572.582	2108.38
572.781	2063.33
572.979	1952.74
573.177	1952.74
573.376	1872.87
573.574	2032.61
573.772	1762.28
573.971	1731.56
574.169	1727.46
574.367	1786.85
574.565	1780.71
574.763	1739.75
574.962	1678.31
575.16	1764.33
575.358	1614.82
575.556	1637.35
575.754	1584.1
575.952	1543.14
576.151	1614.82
576.349	1582.06
576.547	1403.88
576.745	1588.2
576.943	1575.91
577.141	1473.51
577.339	1332.2
577.537	1446.89
577.735	1391.59
577.933	1475.56
578.131	1315.82
578.329	1397.74
578.527	1381.35
578.725	1285.1
578.923	1166.32
579.121	1281
579.319	1111.02
579.516	1145.84
579.714	1367.02
579.912	1229.81
580.11	1027.06
580.308	1113.07
580.506	1074.16
580.704	1012.72
580.901	1068.02
581.099	1205.23
581.297	994.29
581.495	973.81
581.692	1049.58
581.89	1102.83
582.088	1016.82
582.285	887.79
582.483	930.8
582.681	1020.91
582.878	914.42
583.076	904.18
583.274	861.17
583.471	996.34
583.669	840.69
583.866	795.64
584.064	773.11
584.262	838.64
584.459	762.87
584.657	820.21
584.854	898.03
585.052	895.99
585.249	879.6
585.447	789.49
585.644	683
585.841	816.12
586.039	756.72
586.236	828.4
586.434	633.85
586.631	738.29
586.828	617.46
587.026	699.38
587.223	578.55
587.42	578.55
587.618	732.15
587.815	701.43
588.012	586.74
588.21	683
588.407	748.53
588.604	736.24
588.801	633.85
588.999	619.51
589.196	672.76
589.393	576.5
589.59	629.75
589.787	596.98
589.984	646.13
590.182	660.47
590.379	508.92
590.576	574.46
590.773	590.84
590.97	492.54
591.167	510.97
591.364	578.55
591.561	601.08
591.758	719.86
591.955	580.6
592.152	558.07
592.349	609.27
592.546	523.26
592.743	488.44
592.94	470.01
593.137	613.37
593.334	633.85
593.531	642.04
593.727	560.12
593.924	596.98
594.121	588.79
594.318	519.16
594.515	668.66
594.712	672.76
594.908	740.34
595.105	492.54
595.302	693.24
595.499	627.7
595.696	676.85
595.892	637.94
596.089	740.34
596.286	689.14
596.482	691.19
596.679	695.29
596.876	627.7
597.072	713.72
597.269	654.33
597.466	746.48
597.662	777.2
597.859	676.85
598.055	742.39
598.252	838.64
598.448	857.07
598.645	857.07
598.841	973.81
599.038	1031.15
599.234	1082.35
599.431	975.86
599.627	920.56
599.824	1125.36
600.02	1180.65
600.217	1145.84
600.413	1309.68
600.609	1254.38
600.806	1541.1
601.002	1418.22
601.198	1291.24
601.395	1491.95
601.591	1496.04
601.787	1485.8
601.984	1602.54
602.18	1729.51
602.376	1782.76
602.572	1965.03
602.769	1958.88
602.965	1952.74
603.161	2171.87
603.357	2034.66
603.553	2292.7
603.75	2171.87
603.946	2329.56
604.142	2327.52
604.338	2569.18
604.534	2601.94
604.73	2710.49
604.926	2804.69
605.122	2923.48
605.318	2862.04
605.514	3208.14
605.71	2960.34
605.906	3202
606.102	3230.67
606.298	3437.52
606.494	3466.19
606.69	3531.72
606.886	3670.98
607.082	3734.47
607.278	3871.68
607.474	3937.22
607.67	4045.76
607.866	4084.67
608.062	4522.94
608.257	4355.01
608.453	4414.4
608.649	4744.12
608.845	4684.73
609.041	4867
609.236	5002.16
609.432	5161.91
609.628	5383.09
609.824	5585.83
610.019	5403.57
610.215	5663.66
610.411	6042.53
610.606	6241.18
610.802	6237.09
610.998	6341.54
611.193	6589.34
611.389	6734.75
611.584	7130
611.78	6980.5
611.976	7291.79
612.171	7652.24
612.367	7570.32
612.562	7885.7
612.758	8119.17
612.953	8061.83
613.149	8473.47
613.344	8547.2
613.539	9036.66
613.735	9380.72
613.93	9458.54
614.126	9700.2
614.321	10054.5
614.517	10255.2
614.712	10433.38
614.907	10490.72
615.103	11154.26
615.298	11088.73
615.493	11438.93
615.688	11617.1
615.884	12176.2
616.079	12174.15
616.274	12471.11
616.47	12899.13
616.665	13116.22
616.86	13632.3
617.055	14007.08
617.25	14177.06
617.445	14926.62
617.641	14879.52
617.836	15483.67
618.031	15690.51
618.226	16407.3
618.421	16655.11
618.616	17136.38
618.811	17033.98
619.006	18103.02
619.201	18000.62
619.396	18778.85
619.591	18780.9
619.786	19671.76
619.981	19493.59
620.176	20021.97
620.371	20544.2
620.566	21197.5
620.761	21316.28
620.956	21828.27
621.151	22063.79
621.346	22622.89
621.541	22784.68
621.735	23829.14
621.93	23659.16
622.125	24255.12
622.32	24590.98
622.515	25371.26
622.709	25834.1
622.904	26389.1
623.099	26767.98
623.294	27320.93
623.488	27425.37
623.683	28105.3
623.878	28035.67
624.072	28777.03
624.267	29235.78
624.462	29631.04
624.656	29925.94
624.851	30976.55
625.046	31111.72
625.24	31969.82
625.435	31711.77
625.629	32373.27
625.824	32592.4
626.018	33647.1
626.213	33638.91
626.407	33939.96
626.602	34036.22
626.796	34562.54
626.991	34834.92
627.185	35082.73
627.38	35594.72
627.574	35742.17
627.768	35822.05
627.963	36139.48
628.157	36293.08
628.352	36243.93
628.546	36280.79
628.74	37140.94
628.935	36137.43
629.129	36741.58
629.323	35881.44
629.517	35883.48
629.712	35748.32
629.906	35752.41
630.1	35428.84
630.294	35152.36
630.489	34120.18
630.683	34355.7
630.877	33655.29
631.071	32963.08
631.265	32979.46
631.459	32074.26
631.653	31078.95
631.848	30718.51
632.042	29903.42
632.236	29366.85
632.43	28541.52
632.624	27896.41
632.818	26810.98
633.012	26065.52
633.206	25393.79
633.4	24812.17
633.594	23470.75
633.788	22991.52
633.982	22241.96
634.176	21781.17
634.369	20548.29
634.563	19743.44
634.757	19225.31
634.951	18508.52
635.145	17808.11
635.339	17167.1
635.533	16288.52
635.726	15710.99
635.92	14947.1
636.114	14324.52
636.308	13966.12
636.501	13490.99
636.695	12888.89
636.889	12233.54
637.083	11899.72
637.276	11451.22
637.47	10724.19
637.664	10464.1
637.857	9999.21
638.051	9595.76
638.244	9153.4
638.438	8862.58
638.632	8659.84
638.825	8108.93
639.019	8074.12
639.212	7330.7
639.406	7238.55
639.599	6925.21
639.793	6554.52
639.986	6491.04
640.18	6437.79
640.373	5880.74
640.567	5698.47
640.76	5567.4
640.954	5307.31
641.147	5014.45
641.34	5127.09
641.534	4787.13
641.727	4742.07
641.92	4414.4
642.114	4225.98
642.307	4223.94
642.5	4090.82
642.694	3713.99
642.887	3650.5
643.08	3548.11
643.273	3417.04
643.467	3328.97
643.66	3021.78
643.853	3007.44
644.046	2882.52
644.239	2907.09
644.432	2671.58
644.626	2427.87
644.819	2522.07
645.012	2429.91
645.205	2253.79
645.398	2253.79
645.591	2135.01
645.784	2053.09
645.977	1919.97
646.17	1829.86
646.363	1881.06
646.556	1645.54
646.749	1516.52
646.942	1580.01
647.135	1657.83
647.328	1489.9
647.521	1516.52
647.714	1422.31
647.907	1360.88
648.099	1281
648.292	1373.16
648.485	1188.85
648.678	1162.22
648.871	1135.6
649.064	1162.22
649.256	938.99
649.449	947.19
649.642	900.08
649.835	936.95
650.027	844.79
650.22	977.91
650.413	844.79
650.605	918.51
650.798	752.63
650.991	713.72
651.183	689.14
651.376	701.43
651.568	703.48
651.761	672.76
651.954	711.67
652.146	658.42
652.339	615.41
652.531	683
652.724	508.92
652.916	568.31
653.109	437.24
653.301	586.74
653.494	535.54
653.686	480.25
653.879	599.03
654.071	457.72
654.263	386.04
654.456	373.75
654.648	480.25
654.84	535.54
655.033	328.7
655.225	480.25
655.417	328.7
655.61	506.87
655.802	398.33
655.994	502.78
656.186	308.22
656.379	459.77
656.571	312.32
656.763	328.7
656.955	295.93
657.148	324.6
657.34	369.66
657.532	353.27
657.724	257.02
657.916	291.84
658.108	300.03
658.3	297.98
658.492	226.3
658.684	205.82
658.876	353.27
659.068	216.06
659.26	136.19
659.452	205.82
659.644	263.16
659.836	349.18
660.028	228.35
660.22	173.05
660.412	211.96
660.604	173.05
660.796	242.68
660.988	349.18
661.18	134.14
661.372	277.5
661.563	154.62
661.755	181.25
661.947	82.94
662.139	130.05
662.331	166.91
662.522	201.72
662.714	68.61
662.906	140.29
663.097	115.71
663.289	168.96
663.481	-19.46
663.673	130.05
663.864	144.38
664.056	263.16
664.247	62.46
664.439	171.01
664.631	218.11
664.822	183.29
665.014	179.2
665.205	119.81
665.397	132.09
665.588	125.95
665.78	148.48
665.971	140.29
666.163	142.33
666.354	164.86
666.546	76.8
666.737	171.01
666.929	50.18
667.12	70.65
667.311	168.96
667.503	164.86
667.694	111.61
667.885	142.33
668.077	185.34
668.268	31.74
668.459	173.05
668.651	125.95
668.842	125.95
669.033	39.94
669.224	-25.6
669.416	242.68
669.607	91.13
669.798	9.22
669.989	164.86
670.18	134.14
670.371	128
670.563	39.94
670.754	240.64
670.945	244.73
671.136	183.29
671.327	5.12
671.518	195.58
671.709	216.06
671.9	224.25
672.091	240.64
672.282	70.65
672.473	111.61
672.664	15.36
672.855	29.7
673.046	132.09
673.237	199.68
673.428	148.48
673.619	148.48
673.809	33.79
674	146.43
674.191	181.25
674.382	52.22
674.573	125.95
674.764	87.04
674.954	218.11
675.145	82.94
675.336	68.61
675.527	48.13
675.717	54.27
675.908	93.18
676.099	154.62
676.289	138.24
676.48	44.03
676.671	64.51
676.861	7.17
677.052	130.05
677.243	97.28
677.433	105.47
677.624	64.51
677.814	132.09
678.005	54.27
678.195	289.79
678.386	70.65
678.576	134.14
678.767	-15.36
678.957	97.28
679.148	209.92
679.338	238.59
679.529	138.24
679.719	144.38
679.909	250.88
680.1	111.61
680.29	261.12
680.481	72.7
680.671	175.1
680.861	111.61
681.052	189.44
681.242	95.23
681.432	152.57
681.622	132.09
681.813	7.17
682.003	183.29
682.193	50.18
682.383	121.85
682.573	93.18
682.764	123.9
682.954	160.77
683.144	297.98
683.334	48.13
683.524	177.15
683.714	107.52
683.904	166.91
684.094	97.28
684.284	99.33
684.474	220.16
684.664	117.76
684.854	128
685.044	222.2
685.234	195.58
685.424	189.44
685.614	52.22
685.804	259.07
685.994	181.25
686.184	160.77
686.374	132.09
686.564	132.09
686.753	134.14
686.943	56.32
687.133	48.13
687.323	68.61
687.513	207.87
687.702	74.75
687.892	144.38
688.082	203.77
688.272	250.88
688.461	152.57
688.651	250.88
688.841	193.53
689.03	99.33
689.22	121.85
689.41	138.24
689.599	130.05
689.789	150.53
689.979	281.6
690.168	144.38
690.358	128
690.547	101.37
690.737	173.05
690.926	244.73
691.116	132.09
691.305	271.36
691.495	242.68
691.684	58.37
691.874	121.85
692.063	236.54
692.252	109.57
692.442	115.71
692.631	156.67
692.82	115.71
693.01	134.14
693.199	84.99
693.388	154.62
693.578	236.54
693.767	168.96
693.956	269.31
694.146	168.96
694.335	185.34
694.524	211.96
694.713	187.39
694.902	132.09
695.092	166.91
695.281	195.58
695.47	130.05
695.659	103.42
695.848	138.24
696.037	89.09
696.226	181.25
696.415	181.25
696.604	295.93
696.793	230.4
696.982	154.62
697.171	193.53
697.36	136.19
697.549	150.53
697.738	50.18
697.927	173.05
698.116	93.18
698.305	191.49
698.494	179.2
698.683	138.24
698.872	263.16
699.061	115.71
699.25	84.99
699.438	115.71
699.627	76.8
699.816	205.82
700.005	29.7
700.193	156.67
700.382	236.54
700.571	185.34
700.76	140.29
700.948	191.49
701.137	82.94
701.326	236.54
701.514	101.37
701.703	160.77
701.892	201.72
702.08	381.95
702.269	123.9
702.457	93.18
702.646	205.82
702.834	78.85
703.023	211.96
703.212	232.44
703.4	107.52
703.589	142.33
703.777	265.21
703.965	123.9
704.154	168.96
704.342	87.04
704.531	185.34
704.719	89.09
704.907	138.24
705.096	95.23
705.284	87.04
705.472	99.33
705.661	216.06
705.849	209.92
706.037	191.49
706.226	168.96
706.414	103.42
706.602	125.95
706.79	134.14
706.979	41.98
707.167	142.33
707.355	48.13
707.543	130.05
707.731	173.05
707.919	82.94
708.107	195.58
708.296	99.33
708.484	140.29
708.672	265.21
708.86	132.09
709.048	125.95
709.236	117.76
709.424	162.81
709.612	179.2
709.8	103.42
709.988	148.48
710.176	205.82
710.364	226.3
710.551	218.11
710.739	177.15
710.927	199.68
711.115	195.58
711.303	271.36
711.491	177.15
711.679	105.47
711.866	189.44
712.054	138.24
712.242	175.1
712.43	218.11
712.617	125.95
712.805	236.54
712.993	99.33
713.181	95.23
713.368	205.82
713.556	171.01
713.744	132.09
713.931	388.09
714.119	267.26
714.306	115.71
714.494	140.29
714.682	173.05
714.869	130.05
715.057	250.88
715.244	107.52
715.432	162.81
715.619	64.51
715.807	171.01
715.994	76.8
716.182	154.62
716.369	230.4
716.556	214.01
716.744	68.61
716.931	60.42
717.119	152.57
717.306	99.33
717.493	242.68
717.681	199.68
717.868	152.57
718.055	214.01
718.242	119.81
718.43	265.21
718.617	193.53
718.804	209.92
718.991	273.4
719.179	324.6
719.366	183.29
719.553	171.01
719.74	236.54
719.927	91.13
720.114	181.25
720.301	136.19
720.488	117.76
720.676	109.57
720.863	209.92
721.05	308.22
721.237	273.4
721.424	201.72
721.611	216.06
721.798	107.52
721.985	123.9
722.172	134.14
722.358	177.15
722.545	197.63
722.732	240.64
722.919	279.55
723.106	234.49
723.293	173.05
723.48	160.77
723.667	201.72
723.853	273.4
724.04	267.26
724.227	302.08
724.414	181.25
724.6	240.64
724.787	314.36
724.974	422.91
725.161	295.93
725.347	205.82
725.534	244.73
725.72	279.55
725.907	156.67
726.094	287.74
726.28	123.9
726.467	177.15
726.653	189.44
726.84	394.23
727.027	379.9
727.213	191.49
727.4	312.32
727.586	289.79
727.773	269.31
727.959	173.05
728.145	189.44
728.332	263.16
728.518	171.01
728.705	257.02
728.891	224.25
729.077	187.39
729.264	95.23
729.45	214.01
729.636	312.32
729.823	277.5
730.009	275.45
730.195	244.73
730.382	367.61
730.568	173.05
730.754	312.32
730.94	199.68
731.126	242.68
731.313	250.88
731.499	267.26
731.685	386.04
731.871	291.84
732.057	269.31
732.243	295.93
732.429	306.17
732.615	308.22
732.801	293.88
732.987	230.4
733.173	353.27
733.359	275.45
733.545	242.68
733.731	257.02
733.917	361.47
734.103	287.74
734.289	345.08
734.475	228.35
734.661	441.34
734.847	314.36
735.033	273.4
735.219	383.99
735.404	259.07
735.59	187.39
735.776	220.16
735.962	263.16
736.148	375.8
736.333	320.51
736.519	320.51
736.705	287.74
736.89	324.6
737.076	291.84
737.262	267.26
737.447	148.48
737.633	230.4
737.819	367.61
738.004	193.53
738.19	293.88
738.375	261.12
738.561	386.04
738.747	289.79
738.932	224.25
739.118	424.95
739.303	365.56
739.489	351.23
739.674	320.51
739.859	265.21
740.045	406.52
740.23	338.94
740.416	181.25
740.601	291.84
740.786	379.9
740.972	283.64
741.157	271.36
741.342	187.39
741.528	277.5
741.713	306.17
741.898	203.77
742.084	332.79
742.269	285.69
742.454	312.32
742.639	343.03
742.824	254.97
743.01	365.56
743.195	383.99
743.38	300.03
743.565	244.73
743.75	306.17
743.935	369.66
744.12	328.7
744.305	228.35
744.49	211.96
744.675	289.79
744.86	306.17
745.045	383.99
745.23	289.79
745.415	285.69
745.6	328.7
745.785	304.12
745.97	441.34
746.155	392.19
746.34	345.08
746.525	279.55
746.71	476.15
746.895	236.54
747.079	168.96
747.264	183.29
747.449	318.46
747.634	345.08
747.819	340.99
748.003	246.78
748.188	273.4
748.373	275.45
748.557	285.69
748.742	300.03
748.927	226.3
749.111	283.64
749.296	252.92
749.481	336.89
749.665	257.02
749.85	277.5
750.034	349.18
750.219	201.72
750.404	226.3
750.588	220.16
750.773	207.87
750.957	238.59
751.141	293.88
751.326	334.84
751.51	195.58
751.695	228.35
751.879	267.26
752.064	343.03
752.248	193.53
752.432	316.41
752.617	295.93
752.801	318.46
752.985	224.25
753.17	291.84
753.354	234.49
753.538	238.59
753.722	193.53
753.907	222.2
754.091	203.77
754.275	195.58
754.459	222.2
754.643	166.91
754.828	220.16
755.012	267.26
755.196	189.44
755.38	175.1
755.564	185.34
755.748	140.29
755.932	310.27
756.116	295.93
756.3	191.49
756.484	105.47
756.668	250.88
756.852	148.48
757.036	310.27
757.22	160.77
757.404	158.72
757.588	168.96
757.772	166.91
757.956	125.95
758.14	304.12
758.323	160.77
758.507	232.44
758.691	203.77
758.875	252.92
759.059	257.02
759.242	146.43
759.426	222.2
759.61	185.34
759.794	105.47
759.977	238.59
760.161	408.57
760.345	211.96
760.528	279.55
760.712	197.63
760.895	148.48
761.079	224.25
761.263	99.33
761.446	121.85
761.63	91.13
761.813	246.78
761.997	93.18
762.18	119.81
762.364	146.43
762.547	52.22
762.731	185.34
762.914	84.99
763.098	142.33
763.281	31.74
763.464	105.47
763.648	222.2
763.831	152.57
764.015	128
764.198	115.71
764.381	168.96
764.564	216.06
764.748	101.37
764.931	193.53
765.114	123.9
765.297	199.68
765.481	1.02
765.664	148.48
765.847	66.56
766.03	222.2
766.213	58.37
766.397	146.43
766.58	84.99
766.763	214.01
766.946	140.29
767.129	140.29
767.312	156.67
767.495	107.52
767.678	80.89
767.861	125.95
768.044	142.33
768.227	103.42
768.41	66.56
768.593	89.09
768.776	191.49
768.959	117.76
769.142	252.92
769.324	107.52
769.507	168.96
769.69	37.89
769.873	64.51
770.056	244.73
770.239	103.42
770.421	185.34
770.604	164.86
770.787	199.68
770.97	89.09
771.152	19.46
771.335	166.91
771.518	58.37
771.7	166.91
771.883	197.63
772.066	76.8
772.248	181.25
772.431	173.05
772.613	173.05
772.796	111.61
772.978	125.95
773.161	193.53
773.343	35.84
773.526	97.28
773.708	-39.94
773.891	46.08
774.073	-1.02
774.256	74.75
774.438	279.55
774.621	117.76
774.803	107.52
774.985	138.24
775.168	193.53
775.35	97.28
775.532	128
775.715	-29.7
775.897	187.39
776.079	103.42
776.261	164.86
776.444	95.23
776.626	113.66
776.808	119.81
776.99	33.79
777.173	132.09
777.355	-7.17
777.537	171.01
777.719	87.04
777.901	46.08
778.083	58.37
778.265	31.74
778.447	150.53
778.629	109.57
778.811	70.65
778.993	91.13
779.175	44.03
779.357	87.04
779.539	-54.27
779.721	181.25
779.903	95.23
780.085	134.14
780.267	117.76
780.449	39.94
780.631	103.42
780.812	181.25
780.994	17.41
781.176	5.12
781.358	54.27
781.54	89.09
781.721	123.9
781.903	123.9
782.085	35.84
782.267	142.33
782.448	-13.31
782.63	78.85
782.812	136.19
782.993	171.01
783.175	230.4
783.357	101.37
783.538	68.61
783.72	9.22
783.901	89.09
784.083	62.46
784.264	15.36
784.446	13.31
784.627	-35.84
784.809	148.48
784.99	1.02
785.172	109.57
785.353	31.74
785.535	7.17
785.716	41.98
785.897	3.07
786.079	72.7
786.26	54.27
786.441	107.52
786.623	-19.46
786.804	-23.55
786.985	54.27
787.167	158.72
787.348	154.62
787.529	19.46
787.71	199.68
787.891	21.5
788.073	58.37
788.254	-107.52
788.435	195.58
788.616	23.55
788.797	-33.79
788.978	21.5
789.159	35.84
789.34	29.7
789.522	58.37
789.703	25.6
789.884	95.23
790.065	97.28
790.246	152.57
790.427	37.89
790.607	181.25
790.788	132.09
790.969	3.07
791.15	80.89
791.331	-39.94
791.512	23.55
791.693	-23.55
791.874	-54.27
792.054	175.1
792.235	164.86
792.416	-66.56
792.597	-23.55
792.778	99.33
792.958	70.65
793.139	87.04
793.32	31.74
793.5	-44.03
793.681	193.53
793.862	44.03
794.042	35.84
794.223	-82.94
794.404	87.04
794.584	-48.13
794.765	48.13
794.945	76.8
795.126	66.56
795.306	82.94
795.487	27.65
795.667	-37.89
795.848	87.04
796.028	56.32
796.209	60.42
796.389	64.51
796.57	-17.41
796.75	-35.84
796.93	-50.18
797.111	-84.99
797.291	23.55
797.471	41.98
797.652	-23.55
797.832	-13.31
798.012	103.42
798.192	-21.5
798.373	-60.42
798.553	7.17
798.733	-9.22
798.913	-19.46
799.093	-13.31
799.274	-1.02
799.454	37.89
799.634	-17.41
799.814	62.46
799.994	19.46
800.174	62.46
800.354	35.84
800.534	-70.65
800.714	76.8
800.894	-1.02
801.074	-68.61
801.254	-39.94
801.434	93.18
801.614	-44.03
801.794	-23.55
801.974	1831.91
802.154	-62.46
802.334	150.53
802.514	-19.46
802.693	-17.41
802.873	33.79
803.053	187.39
803.233	99.33
803.413	-27.65
803.592	-31.74
803.772	-50.18
803.952	27.65
804.131	-27.65
804.311	87.04
804.491	203.77
804.67	-41.98
804.85	-41.98
805.03	103.42
805.209	68.61
805.389	-68.61
805.568	27.65
805.748	-56.32
805.928	35.84
806.107	117.76
806.287	48.13
806.466	-72.7
806.646	3.07
806.825	70.65
807.004	-7.17
807.184	1.02
807.363	-25.6
807.543	23.55
807.722	-11.26
807.901	107.52
808.081	7.17
808.26	-166.91
808.439	-5.12
808.619	21.5
808.798	-13.31
808.977	-15.36
809.156	33.79
809.336	-15.36
809.515	82.94
809.694	5.12
809.873	7.17
810.052	105.47
810.231	74.75
810.411	-11.26
810.59	140.29
810.769	68.61
810.948	5.12
811.127	-162.81
811.306	-39.94
811.485	70.65
811.664	123.9
811.843	-33.79
812.022	-31.74
812.201	-41.98
812.38	-25.6
812.559	-52.22
812.737	125.95
812.916	-76.8
813.095	-84.99
813.274	41.98
813.453	27.65
813.632	23.55
813.811	97.28
813.989	-111.61
814.168	58.37
814.347	-13.31
814.526	-3.07
814.704	105.47
814.883	111.61
815.062	-78.85
815.24	39.94
815.419	-58.37
815.598	52.22
815.776	-78.85
815.955	-50.18
816.133	-84.99
816.312	37.89
816.49	-23.55
816.669	68.61
816.847	25.6
817.026	-7.17
817.204	23.55
817.383	62.46
817.561	-37.89
817.74	37.89
817.918	31.74
818.097	-44.03
818.275	-31.74
818.453	95.23
818.632	66.56
818.81	23.55
818.988	-58.37
819.167	-44.03
819.345	-27.65
819.523	-41.98
819.701	50.18
819.879	9.22
820.058	17.41
820.236	5.12
820.414	54.27
820.592	-37.89
820.77	-44.03
820.948	-1.02
821.127	-11.26
821.305	80.89
821.483	-11.26
821.661	64.51
821.839	-1.02
822.017	-109.57
822.195	-72.7
822.373	66.56
822.551	44.03
822.729	128
822.907	-11.26
823.085	23.55
823.262	25.6
823.44	-15.36
823.618	-66.56
823.796	-31.74
823.974	17.41
824.152	41.98
824.329	29.7
824.507	95.23
824.685	-46.08
824.863	-7.17
825.04	-44.03
825.218	41.98
825.396	107.52
825.574	11.26
825.751	35.84
825.929	25.6
826.107	-89.09
826.284	-25.6
826.462	66.56
826.639	-72.7
826.817	-105.47
826.994	-17.41
827.172	-107.52
827.349	128
827.527	1.02
827.704	17.41
827.882	25.6
828.059	13.31
828.237	-48.13
828.414	76.8
828.591	-134.14
828.769	-21.5
828.946	-31.74
829.124	17.41
829.301	15.36
829.478	64.51
829.655	41.98
829.833	-3.07
830.01	-80.89
830.187	17.41
830.364	-44.03
830.542	-1.02
830.719	164.86
830.896	-21.5
831.073	15.36
831.25	33.79
831.427	33.79
831.604	25.6
831.782	-52.22
831.959	-15.36
832.136	-5.12
832.313	78.85
832.49	-3.07
832.667	-74.75
832.844	-35.84
833.021	54.27
833.198	80.89
833.374	72.7
833.551	-37.89
833.728	-37.89
833.905	76.8
834.082	-58.37
834.259	-25.6
834.436	60.42
834.612	-76.8
834.789	19.46
834.966	-31.74
835.143	89.09
835.319	-107.52
835.496	115.71
835.673	19.46
835.85	95.23
836.026	-21.5
836.203	31.74
836.38	-9.22
836.556	-76.8
836.733	-93.18
836.909	160.77
837.086	-17.41
837.262	-121.85
837.439	-29.7
837.616	-50.18
837.792	39.94
837.968	9.22
838.145	-101.37
838.321	15.36
838.498	31.74
838.674	-21.5
838.851	13.31
839.027	-3.07
839.203	17.41
839.38	29.7
839.556	-37.89
839.732	39.94
839.909	62.46
840.085	-52.22
840.261	-58.37
840.437	-31.74
840.614	-89.09
840.79	105.47
840.966	-15.36
841.142	3.07
841.318	25.6
841.494	-3.07
841.671	1.02
841.847	-109.57
842.023	-74.75
842.199	5.12
842.375	23.55
842.551	-54.27
842.727	-17.41
842.903	111.61
843.079	-89.09
843.255	99.33
843.431	-52.22
843.607	-13.31
843.783	-173.05
843.959	-9.22
844.134	-50.18
844.31	121.85
844.486	23.55
844.662	-60.42
844.838	13.31
845.013	37.89
845.189	33.79
845.365	68.61
845.541	-80.89
845.716	31.74
845.892	87.04
846.068	-68.61
846.244	-52.22
846.419	27.65
846.595	-66.56
846.77	-62.46
846.946	72.7
847.122	-50.18
847.297	-9.22
847.473	82.94
847.648	-123.9
847.824	-37.89
847.999	-162.81
848.175	5.12
848.35	29.7
848.526	74.75
848.701	97.28
848.876	91.13
849.052	82.94
849.227	-95.23
849.403	-1.02
849.578	70.65
849.753	25.6
849.929	60.42
850.104	-82.94
850.279	-84.99
850.454	27.65
850.63	9.22
850.805	48.13
850.98	15.36
851.155	5.12
851.33	66.56
851.505	-150.53
851.681	99.33
851.856	-89.09
852.031	33.79
852.206	-37.89
852.381	-74.75
852.556	-52.22
852.731	72.7
852.906	23.55
853.081	76.8
853.256	101.37
853.431	-11.26
853.606	-60.42
853.781	-19.46
853.956	-187.39
854.131	-48.13
854.305	-29.7
854.48	21.5
854.655	-64.51
854.83	-35.84
855.005	-99.33
855.18	1.02
855.354	41.98
855.529	-27.65
855.704	-68.61
855.879	84.99
856.053	-95.23
856.228	-11.26
856.403	44.03
856.577	84.99
856.752	-7.17
856.926	-9.22
857.101	-74.75
857.276	-84.99
857.45	39.94
857.625	62.46
857.799	87.04
857.974	-33.79
858.148	-160.77
858.323	23.55
858.497	-9.22
858.672	-58.37
858.846	-46.08
859.02	74.75
859.195	-62.46
859.369	19.46
859.543	76.8
859.718	29.7
859.892	11.26
860.066	9.22
860.241	-60.42
860.415	-56.32
860.589	-29.7
860.763	-64.51
860.938	-37.89
861.112	33.79
861.286	-64.51
861.46	-27.65
861.634	-64.51
861.808	66.56
861.982	-68.61
862.157	-140.29
862.331	-74.75
862.505	-89.09
862.679	-41.98
862.853	-17.41
863.027	-54.27
863.201	109.57
863.375	-29.7
863.549	29.7
863.722	1.02
863.896	7.17
864.07	-80.89
864.244	7.17
864.418	58.37
864.592	-50.18
864.766	3.07
864.939	3.07
865.113	-87.04
865.287	23.55
865.461	-76.8
865.634	66.56
865.808	-101.37
865.982	-54.27
866.156	-134.14
866.329	-140.29
866.503	-19.46
866.676	37.89
866.85	64.51
867.024	-58.37
867.197	74.75
867.371	66.56
867.544	62.46
867.718	-132.09
867.891	105.47
868.065	-125.95
868.238	41.98
868.412	-29.7
868.585	-9.22
868.759	-80.89
868.932	-41.98
869.105	-56.32
869.279	-23.55
869.452	-54.27
869.625	9.22
869.799	56.32
869.972	-37.89
870.145	44.03
870.319	39.94
870.492	-35.84
870.665	-95.23
870.838	-78.85
871.011	-134.14
871.185	-31.74
871.358	-93.18
871.531	58.37
871.704	3.07
871.877	29.7
872.05	29.7
872.223	-84.99
872.396	37.89
872.569	62.46
872.742	-109.57
872.915	58.37
873.088	-27.65
873.261	-78.85
873.434	80.89
873.607	-13.31
873.78	39.94
873.953	-103.42
874.126	7.17
874.299	17.41
874.471	-21.5
874.644	21.5
874.817	74.75
874.99	93.18
875.163	-41.98
875.335	-11.26
875.508	5.12
875.681	91.13
875.853	-128
876.026	-27.65
876.199	25.6
876.371	-1.02
876.544	-15.36
876.717	-80.89
876.889	-31.74
877.062	15.36
877.234	-95.23
877.407	-62.46
877.579	-27.65
877.752	58.37
877.924	56.32
878.097	-1.02
878.269	29.7
878.442	-1.02
878.614	-58.37
878.786	52.22
878.959	-3.07
879.131	7.17
879.303	-142.33
879.476	23.55
879.648	74.75
879.82	-33.79
879.993	-52.22
880.165	-128
880.337	-74.75
880.509	-1.02
880.681	27.65
880.854	-9.22
881.026	17.41
881.198	101.37
881.37	-56.32
881.542	-84.99
881.714	17.41
881.886	-52.22
882.058	3.07
882.23	-17.41
882.402	-21.5
882.574	31.74
882.746	44.03
882.918	107.52
883.09	5.12
883.262	-72.7
883.434	13.31
883.606	-76.8
883.778	-66.56
883.95	130.05
884.122	39.94
884.293	31.74
884.465	-3.07
884.637	23.55
884.809	-17.41
884.98	58.37
885.152	76.8
885.324	87.04
885.496	-46.08
885.667	-15.36
885.839	-125.95
886.011	72.7
886.182	33.79
886.354	74.75
886.525	52.22
886.697	-27.65
886.869	-13.31
887.04	15.36
887.212	23.55
887.383	115.71
887.555	87.04
887.726	-80.89
887.897	-44.03
888.069	17.41
888.24	5.12
888.412	7.17
888.583	-35.84
888.754	23.55
888.926	-130.05
889.097	-33.79
889.268	-60.42
889.44	19.46
889.611	-68.61
889.782	-48.13
889.953	-72.7
890.125	121.85
890.296	-136.19
890.467	-37.89
890.638	-87.04
890.809	-58.37
890.98	-52.22
891.151	50.18
891.323	109.57
891.494	-13.31
891.665	70.65
891.836	25.6
892.007	29.7
892.178	9.22
892.349	-62.46
892.52	-113.66
892.691	74.75
892.862	-91.13
893.032	-115.71
893.203	-48.13
893.374	-1.02
893.545	25.6
893.716	-121.85
893.887	95.23
894.057	-80.89
894.228	-50.18
894.399	-105.47
894.57	13.31
894.74	-31.74
894.911	1.02
895.082	-41.98
895.253	-54.27
895.423	13.31
895.594	-41.98
895.764	27.65
895.935	-93.18
896.106	-5.12
896.276	-23.55
896.447	50.18
896.617	-66.56
896.788	-89.09
896.958	-9.22
897.129	-11.26
897.299	-33.79
897.47	134.14
897.64	64.51
897.81	-1.02
897.981	-11.26
898.151	66.56
898.322	41.98
898.492	68.61
898.662	-72.7
898.832	-130.05
899.003	-89.09
899.173	58.37
899.343	-9.22
899.513	-82.94
