Data from USB4F104151__36__11-26-27-093.txt Node

Date: Wed Feb 26 11:26:27 EST 2025
User: louis
Spectrometer: USB4F10415
Trigger mode: 4
Integration Time (sec): 1.000000E-1
Scans to average: 1
Electric dark correction enabled: true
Nonlinearity correction enabled: false
Boxcar width: 0
XAxis mode: Wavelengths
Number of Pixels in Spectrum: 3648
>>>>>Begin Spectral Data<<<<<
178.204	-321.19
178.424	-321.19
178.644	-321.19
178.864	-384.68
179.084	-351.91
179.304	72.02
179.524	29.01
179.744	29.01
179.964	20.82
180.184	16.73
180.404	-30.38
180.624	18.77
180.844	-77.48
181.064	-89.77
181.283	-16.04
181.503	-34.47
181.723	61.78
181.943	-106.15
182.163	233.81
182.383	-50.86
182.602	100.69
182.822	235.86
183.042	72.02
183.262	-30.38
183.482	24.92
183.701	18.77
183.921	96.6
184.141	-11.95
184.361	0.34
184.58	65.88
184.8	57.68
185.02	14.68
185.239	96.6
185.459	164.18
185.679	180.56
185.898	-110.25
186.118	22.87
186.338	92.5
186.557	127.32
186.777	-46.76
186.997	14.68
187.216	92.5
187.436	254.29
187.655	55.64
187.875	196.95
188.095	49.49
188.314	178.51
188.534	170.32
188.753	-9.9
188.973	147.8
189.192	174.42
189.412	78.16
189.631	125.27
189.851	131.41
190.07	137.56
190.29	-1.71
190.509	26.96
190.729	115.03
190.948	139.6
191.168	295.25
191.387	82.26
191.607	-5.8
191.826	121.17
192.045	31.06
192.265	-57
192.484	39.25
192.704	61.78
192.923	-59.05
193.142	141.65
193.362	94.55
193.581	225.62
193.8	74.07
194.02	12.63
194.239	57.68
194.458	86.36
194.678	65.88
194.897	-7.85
195.116	63.83
195.335	84.31
195.555	80.21
195.774	35.16
195.993	137.56
196.212	51.54
196.432	18.77
196.651	12.63
196.87	90.45
197.089	280.91
197.308	86.36
197.528	102.74
197.747	-52.91
197.966	57.68
198.185	76.12
198.404	-57
198.623	160.08
198.842	119.12
199.062	88.4
199.281	84.31
199.5	90.45
199.719	121.17
199.938	37.2
200.157	72.02
200.376	149.84
200.595	139.6
200.814	61.78
201.033	-73.39
201.252	201.04
201.471	29.01
201.69	24.92
201.909	0.34
202.128	104.79
202.347	129.36
202.566	43.35
202.785	-30.38
203.004	16.73
203.223	325.97
203.442	84.31
203.661	-46.76
203.879	49.49
204.098	104.79
204.317	-40.62
204.536	121.17
204.755	47.44
204.974	84.31
205.193	72.02
205.411	112.98
205.63	57.68
205.849	133.46
206.068	51.54
206.287	-32.43
206.505	84.31
206.724	110.93
206.943	14.68
207.162	-38.57
207.381	117.08
207.599	20.82
207.818	35.16
208.037	-5.8
208.255	39.25
208.474	63.83
208.693	106.84
208.911	4.44
209.13	88.4
209.349	80.21
209.567	31.06
209.786	135.51
210.005	180.56
210.223	49.49
210.442	-130.73
210.661	-7.85
210.879	67.92
211.098	49.49
211.316	110.93
211.535	-13.99
211.753	-32.43
211.972	82.26
212.191	-67.24
212.409	31.06
212.628	63.83
212.846	84.31
213.065	94.55
213.283	135.51
213.502	102.74
213.72	84.31
213.938	51.54
214.157	2.39
214.375	53.59
214.594	39.25
214.812	12.63
215.031	-24.23
215.249	47.44
215.467	67.92
215.686	29.01
215.904	80.21
216.122	102.74
216.341	115.03
216.559	-13.99
216.778	104.79
216.996	158.03
217.214	84.31
217.432	-57
217.651	43.35
217.869	72.02
218.087	65.88
218.306	-108.2
218.524	129.36
218.742	-16.04
218.96	123.22
219.179	84.31
219.397	90.45
219.615	239.95
219.833	117.08
220.051	24.92
220.27	92.5
220.488	88.4
220.706	115.03
220.924	-18.09
221.142	-69.29
221.36	51.54
221.578	61.78
221.796	65.88
222.015	-42.67
222.233	112.98
222.451	178.51
222.669	-20.14
222.887	110.93
223.105	49.49
223.323	106.84
223.541	119.12
223.759	63.83
223.977	6.49
224.195	170.32
224.413	158.03
224.631	53.59
224.849	35.16
225.067	219.47
225.285	59.73
225.503	-30.38
225.721	-73.39
225.939	39.25
226.157	115.03
226.375	198.99
226.592	69.97
226.81	86.36
227.028	145.75
227.246	110.93
227.464	69.97
227.682	39.25
227.9	-28.33
228.117	76.12
228.335	106.84
228.553	57.68
228.771	33.11
228.989	29.01
229.206	123.22
229.424	22.87
229.642	-3.75
229.86	-34.47
230.077	143.7
230.295	102.74
230.513	100.69
230.731	74.07
230.948	121.17
231.166	176.47
231.384	0.34
231.601	94.55
231.819	170.32
232.037	-20.14
232.254	0.34
232.472	69.97
232.689	14.68
232.907	135.51
233.125	41.3
233.342	24.92
233.56	33.11
233.777	86.36
233.995	0.34
234.213	121.17
234.43	147.8
234.648	41.3
234.865	29.01
235.083	61.78
235.3	125.27
235.518	186.71
235.735	98.64
235.953	147.8
236.17	67.92
236.388	10.58
236.605	33.11
236.822	172.37
237.04	123.22
237.257	6.49
237.475	-9.9
237.692	37.2
237.909	90.45
238.127	47.44
238.344	39.25
238.562	20.82
238.779	-11.95
238.996	-65.19
239.214	22.87
239.431	147.8
239.648	92.5
239.865	98.64
240.083	125.27
240.3	-30.38
240.517	12.63
240.735	47.44
240.952	90.45
241.169	63.83
241.386	59.73
241.603	26.96
241.821	-52.91
242.038	96.6
242.255	160.08
242.472	-22.19
242.689	121.17
242.907	92.5
243.124	14.68
243.341	-11.95
243.558	-52.91
243.775	-9.9
243.992	-73.39
244.209	115.03
244.426	201.04
244.643	55.64
244.86	41.3
245.078	184.66
245.295	65.88
245.512	-13.99
245.729	86.36
245.946	98.64
246.163	-11.95
246.38	22.87
246.597	63.83
246.814	145.75
247.031	29.01
247.248	-18.09
247.464	131.41
247.681	155.99
247.898	47.44
248.115	131.41
248.332	18.77
248.549	117.08
248.766	192.85
248.983	123.22
249.2	24.92
249.417	198.99
249.633	45.4
249.85	43.35
250.067	72.02
250.284	-13.99
250.501	104.79
250.717	65.88
250.934	0.34
251.151	49.49
251.368	-16.04
251.585	102.74
251.801	65.88
252.018	-32.43
252.235	121.17
252.451	-28.33
252.668	65.88
252.885	78.16
253.102	47.44
253.318	35.16
253.535	0.34
253.752	-48.81
253.968	16.73
254.185	-97.96
254.401	14.68
254.618	98.64
254.835	6.49
255.051	184.66
255.268	61.78
255.484	129.36
255.701	10.58
255.917	51.54
256.134	-24.23
256.351	45.4
256.567	-65.19
256.784	61.78
257	-50.86
257.217	86.36
257.433	155.99
257.65	117.08
257.866	86.36
258.082	-13.99
258.299	53.59
258.515	26.96
258.732	2.39
258.948	12.63
259.165	41.3
259.381	31.06
259.597	80.21
259.814	78.16
260.03	24.92
260.246	106.84
260.463	108.88
260.679	119.12
260.895	92.5
261.112	10.58
261.328	49.49
261.544	31.06
261.761	170.32
261.977	-13.99
262.193	-50.86
262.409	153.94
262.626	63.83
262.842	61.78
263.058	-34.47
263.274	82.26
263.49	55.64
263.707	74.07
263.923	80.21
264.139	-30.38
264.355	82.26
264.571	121.17
264.787	102.74
265.004	137.56
265.22	72.02
265.436	-40.62
265.652	84.31
265.868	59.73
266.084	6.49
266.3	61.78
266.516	-1.71
266.732	90.45
266.948	55.64
267.164	29.01
267.38	22.87
267.596	106.84
267.812	229.71
268.028	4.44
268.244	4.44
268.46	119.12
268.676	51.54
268.892	-18.09
269.108	-57
269.324	-42.67
269.54	0.34
269.756	137.56
269.972	-71.34
270.188	2.39
270.403	0.34
270.619	2.39
270.835	90.45
271.051	-16.04
271.267	-38.57
271.483	65.88
271.698	88.4
271.914	121.17
272.13	121.17
272.346	108.88
272.562	-9.9
272.777	96.6
272.993	-28.33
273.209	45.4
273.425	47.44
273.64	29.01
273.856	102.74
274.072	4.44
274.287	39.25
274.503	100.69
274.719	100.69
274.934	-32.43
275.15	-83.63
275.366	-5.8
275.581	-40.62
275.797	129.36
276.012	145.75
276.228	-16.04
276.444	158.03
276.659	149.84
276.875	-75.43
277.09	31.06
277.306	-1.71
277.521	137.56
277.737	20.82
277.952	51.54
278.168	65.88
278.383	86.36
278.599	186.71
278.814	123.22
279.03	24.92
279.245	201.04
279.461	18.77
279.676	123.22
279.892	6.49
280.107	-50.86
280.322	2.39
280.538	121.17
280.753	65.88
280.969	51.54
281.184	35.16
281.399	155.99
281.615	143.7
281.83	100.69
282.045	6.49
282.26	-44.71
282.476	41.3
282.691	78.16
282.906	65.88
283.122	112.98
283.337	-69.29
283.552	102.74
283.767	29.01
283.983	135.51
284.198	20.82
284.413	121.17
284.628	-81.58
284.843	45.4
285.058	129.36
285.274	35.16
285.489	-85.67
285.704	119.12
285.919	-40.62
286.134	29.01
286.349	41.3
286.564	-83.63
286.779	108.88
286.995	53.59
287.21	-54.95
287.425	115.03
287.64	10.58
287.855	108.88
288.07	-22.19
288.285	76.12
288.5	80.21
288.715	176.47
288.93	63.83
289.145	-42.67
289.36	92.5
289.575	69.97
289.79	246.1
290.004	-50.86
290.219	45.4
290.434	-16.04
290.649	14.68
290.864	59.73
291.079	6.49
291.294	90.45
291.509	57.68
291.724	61.78
291.938	20.82
292.153	51.54
292.368	74.07
292.583	20.82
292.798	84.31
293.012	39.25
293.227	14.68
293.442	51.54
293.657	121.17
293.871	125.27
294.086	125.27
294.301	194.9
294.516	117.08
294.73	53.59
294.945	-67.24
295.16	49.49
295.374	131.41
295.589	16.73
295.804	0.34
296.018	-9.9
296.233	137.56
296.447	160.08
296.662	-57
296.877	131.41
297.091	67.92
297.306	72.02
297.52	65.88
297.735	112.98
297.949	53.59
298.164	88.4
298.378	31.06
298.593	-83.63
298.807	-16.04
299.022	26.96
299.236	184.66
299.451	14.68
299.665	-5.8
299.88	47.44
300.094	86.36
300.309	121.17
300.523	76.12
300.737	-9.9
300.952	16.73
301.166	80.21
301.381	-36.52
301.595	26.96
301.809	33.11
302.024	-50.86
302.238	35.16
302.452	108.88
302.667	69.97
302.881	205.14
303.095	104.79
303.309	55.64
303.524	-30.38
303.738	78.16
303.952	22.87
304.166	80.21
304.381	-134.82
304.595	223.57
304.809	39.25
305.023	92.5
305.237	29.01
305.452	69.97
305.666	76.12
305.88	143.7
306.094	141.65
306.308	137.56
306.522	53.59
306.736	2.39
306.95	141.65
307.164	47.44
307.379	41.3
307.593	112.98
307.807	190.8
308.021	121.17
308.235	26.96
308.449	-95.91
308.663	63.83
308.877	160.08
309.091	37.2
309.305	88.4
309.519	-81.58
309.733	108.88
309.947	-57
310.161	90.45
310.374	125.27
310.588	47.44
310.802	-57
311.016	-18.09
311.23	39.25
311.444	-26.28
311.658	22.87
311.872	145.75
312.085	117.08
312.299	194.9
312.513	209.23
312.727	57.68
312.941	22.87
313.154	-1.71
313.368	26.96
313.582	55.64
313.796	82.26
314.009	63.83
314.223	168.27
314.437	74.07
314.651	86.36
314.864	-48.81
315.078	12.63
315.292	-9.9
315.505	10.58
315.719	149.84
315.933	178.51
316.146	10.58
316.36	-61.1
316.573	151.89
316.787	180.56
317.001	49.49
317.214	-30.38
317.428	80.21
317.641	-11.95
317.855	31.06
318.068	98.64
318.282	117.08
318.495	164.18
318.709	69.97
318.922	69.97
319.136	127.32
319.349	186.71
319.563	29.01
319.776	125.27
319.99	-97.96
320.203	119.12
320.417	53.59
320.63	63.83
320.843	98.64
321.057	24.92
321.27	24.92
321.483	106.84
321.697	131.41
321.91	41.3
322.124	53.59
322.337	123.22
322.55	-59.05
322.763	69.97
322.977	63.83
323.19	47.44
323.403	-48.81
323.617	45.4
323.83	115.03
324.043	-16.04
324.256	49.49
324.469	31.06
324.683	149.84
324.896	-7.85
325.109	37.2
325.322	-24.23
325.535	106.84
325.748	123.22
325.962	-13.99
326.175	110.93
326.388	104.79
326.601	160.08
326.814	59.73
327.027	84.31
327.24	194.9
327.453	-5.8
327.666	86.36
327.879	108.88
328.092	131.41
328.305	45.4
328.518	-7.85
328.731	72.02
328.944	-13.99
329.157	63.83
329.37	78.16
329.583	131.41
329.796	178.51
330.009	-108.2
330.222	160.08
330.435	69.97
330.648	86.36
330.861	43.35
331.073	67.92
331.286	108.88
331.499	61.78
331.712	-22.19
331.925	90.45
332.138	33.11
332.35	69.97
332.563	72.02
332.776	98.64
332.989	10.58
333.202	41.3
333.414	92.5
333.627	24.92
333.84	18.77
334.053	78.16
334.265	-1.71
334.478	-26.28
334.691	8.53
334.903	55.64
335.116	-9.9
335.329	121.17
335.541	145.75
335.754	170.32
335.966	82.26
336.179	63.83
336.392	24.92
336.604	41.3
336.817	162.13
337.029	57.68
337.242	8.53
337.454	43.35
337.667	49.49
337.88	125.27
338.092	106.84
338.305	135.51
338.517	16.73
338.729	82.26
338.942	139.6
339.154	20.82
339.367	37.2
339.579	74.07
339.792	20.82
340.004	194.9
340.217	22.87
340.429	88.4
340.641	6.49
340.854	22.87
341.066	-11.95
341.278	123.22
341.491	201.04
341.703	108.88
341.915	-3.75
342.128	29.01
342.34	78.16
342.552	6.49
342.764	108.88
342.977	86.36
343.189	88.4
343.401	121.17
343.613	-50.86
343.826	35.16
344.038	-16.04
344.25	-1.71
344.462	51.54
344.674	125.27
344.886	-20.14
345.099	92.5
345.311	51.54
345.523	-5.8
345.735	-104.11
345.947	98.64
346.159	14.68
346.371	53.59
346.583	41.3
346.795	221.52
347.007	39.25
347.219	100.69
347.431	47.44
347.643	69.97
347.855	88.4
348.067	94.55
348.279	18.77
348.491	102.74
348.703	182.61
348.915	26.96
349.127	22.87
349.339	-5.8
349.551	4.44
349.763	65.88
349.975	49.49
350.187	125.27
350.399	158.03
350.61	59.73
350.822	43.35
351.034	158.03
351.246	47.44
351.458	104.79
351.669	35.16
351.881	141.65
352.093	63.83
352.305	162.13
352.517	94.55
352.728	174.42
352.94	45.4
353.152	108.88
353.363	-63.15
353.575	57.68
353.787	225.62
353.999	102.74
354.21	145.75
354.422	-7.85
354.633	80.21
354.845	43.35
355.057	67.92
355.268	98.64
355.48	106.84
355.692	-61.1
355.903	106.84
356.115	-81.58
356.326	-52.91
356.538	203.09
356.749	98.64
356.961	198.99
357.172	10.58
357.384	2.39
357.595	209.23
357.807	47.44
358.018	8.53
358.23	69.97
358.441	178.51
358.653	151.89
358.864	76.12
359.075	-3.75
359.287	53.59
359.498	96.6
359.709	78.16
359.921	-3.75
360.132	108.88
360.344	76.12
360.555	18.77
360.766	24.92
360.977	61.78
361.189	147.8
361.4	-5.8
361.611	135.51
361.823	135.51
362.034	86.36
362.245	-22.19
362.456	65.88
362.667	190.8
362.879	-38.57
363.09	115.03
363.301	158.03
363.512	92.5
363.723	-16.04
363.935	41.3
364.146	190.8
364.357	39.25
364.568	4.44
364.779	-7.85
364.99	184.66
365.201	26.96
365.412	117.08
365.623	-87.72
365.834	119.12
366.045	-20.14
366.256	51.54
366.467	127.32
366.678	-36.52
366.889	18.77
367.1	-9.9
367.311	125.27
367.522	-61.1
367.733	57.68
367.944	80.21
368.155	88.4
368.366	96.6
368.577	135.51
368.788	123.22
368.999	-7.85
369.209	57.68
369.42	252.24
369.631	274.77
369.842	108.88
370.053	53.59
370.264	86.36
370.474	41.3
370.685	100.69
370.896	63.83
371.107	190.8
371.317	57.68
371.528	51.54
371.739	121.17
371.95	84.31
372.16	104.79
372.371	-20.14
372.582	39.25
372.792	80.21
373.003	84.31
373.214	24.92
373.424	104.79
373.635	14.68
373.846	121.17
374.056	6.49
374.267	61.78
374.477	117.08
374.688	86.36
374.898	69.97
375.109	20.82
375.319	84.31
375.53	108.88
375.74	119.12
375.951	-54.95
376.161	104.79
376.372	108.88
376.582	-61.1
376.793	59.73
377.003	43.35
377.214	10.58
377.424	129.36
377.635	55.64
377.845	-1.71
378.055	164.18
378.266	-59.05
378.476	12.63
378.686	127.32
378.897	4.44
379.107	72.02
379.317	119.12
379.528	43.35
379.738	151.89
379.948	-118.44
380.158	63.83
380.369	-40.62
380.579	133.46
380.789	88.4
380.999	90.45
381.21	90.45
381.42	250.19
381.63	59.73
381.84	108.88
382.05	125.27
382.261	164.18
382.471	121.17
382.681	39.25
382.891	233.81
383.101	45.4
383.311	24.92
383.521	-48.81
383.731	201.04
383.941	123.22
384.151	63.83
384.361	26.96
384.571	41.3
384.781	86.36
384.991	219.47
385.201	160.08
385.411	174.42
385.621	94.55
385.831	78.16
386.041	84.31
386.251	20.82
386.461	108.88
386.671	45.4
386.881	104.79
387.091	-3.75
387.301	80.21
387.511	45.4
387.72	100.69
387.93	53.59
388.14	-97.96
388.35	39.25
388.56	178.51
388.769	127.32
388.979	-9.9
389.189	16.73
389.399	76.12
389.609	100.69
389.818	160.08
390.028	82.26
390.238	14.68
390.447	55.64
390.657	102.74
390.867	14.68
391.076	-151.21
391.286	86.36
391.496	39.25
391.705	6.49
391.915	155.99
392.125	76.12
392.334	49.49
392.544	151.89
392.753	-5.8
392.963	-34.47
393.172	94.55
393.382	26.96
393.591	158.03
393.801	6.49
394.01	139.6
394.22	92.5
394.429	82.26
394.639	-18.09
394.848	94.55
395.058	133.46
395.267	35.16
395.477	78.16
395.686	43.35
395.895	110.93
396.105	237.91
396.314	55.64
396.524	164.18
396.733	31.06
396.942	139.6
397.152	131.41
397.361	135.51
397.57	133.46
397.78	82.26
397.989	106.84
398.198	260.43
398.407	51.54
398.617	67.92
398.826	53.59
399.035	92.5
399.244	110.93
399.453	80.21
399.663	57.68
399.872	90.45
400.081	-3.75
400.29	160.08
400.499	-1.71
400.708	110.93
400.917	31.06
401.127	4.44
401.336	-5.8
401.545	180.56
401.754	84.31
401.963	53.59
402.172	-5.8
402.381	-71.34
402.59	108.88
402.799	69.97
403.008	209.23
403.217	102.74
403.426	104.79
403.635	12.63
403.844	16.73
404.053	39.25
404.262	98.64
404.471	78.16
404.68	104.79
404.888	61.78
405.097	61.78
405.306	82.26
405.515	100.69
405.724	37.2
405.933	133.46
406.142	22.87
406.35	178.51
406.559	100.69
406.768	65.88
406.977	217.43
407.185	121.17
407.394	63.83
407.603	-24.23
407.812	78.16
408.02	108.88
408.229	43.35
408.438	90.45
408.646	-40.62
408.855	26.96
409.064	106.84
409.272	121.17
409.481	69.97
409.69	45.4
409.898	55.64
410.107	33.11
410.315	153.94
410.524	-40.62
410.733	78.16
410.941	78.16
411.15	178.51
411.358	47.44
411.567	170.32
411.775	112.98
411.984	0.34
412.192	43.35
412.401	18.77
412.609	112.98
412.818	145.75
413.026	92.5
413.234	67.92
413.443	39.25
413.651	18.77
413.86	14.68
414.068	100.69
414.276	256.34
414.485	6.49
414.693	162.13
414.901	158.03
415.11	121.17
415.318	57.68
415.526	84.31
415.734	16.73
415.943	188.75
416.151	205.14
416.359	69.97
416.567	127.32
416.776	53.59
416.984	78.16
417.192	227.67
417.4	-38.57
417.608	65.88
417.817	-57
418.025	141.65
418.233	172.37
418.441	6.49
418.649	39.25
418.857	61.78
419.065	162.13
419.273	-9.9
419.481	78.16
419.689	96.6
419.897	4.44
420.105	22.87
420.313	151.89
420.521	196.95
420.729	153.94
420.937	2.39
421.145	14.68
421.353	149.84
421.561	170.32
421.769	117.08
421.977	37.2
422.185	110.93
422.393	104.79
422.601	100.69
422.809	55.64
423.017	39.25
423.224	104.79
423.432	153.94
423.64	127.32
423.848	98.64
424.056	4.44
424.263	127.32
424.471	20.82
424.679	180.56
424.887	-69.29
425.094	112.98
425.302	125.27
425.51	45.4
425.718	119.12
425.925	110.93
426.133	84.31
426.341	137.56
426.548	16.73
426.756	78.16
426.964	102.74
427.171	29.01
427.379	151.89
427.586	94.55
427.794	115.03
428.001	164.18
428.209	131.41
428.417	172.37
428.624	37.2
428.832	160.08
429.039	106.84
429.247	57.68
429.454	162.13
429.662	139.6
429.869	112.98
430.076	153.94
430.284	168.27
430.491	137.56
430.699	135.51
430.906	244.05
431.114	184.66
431.321	112.98
431.528	160.08
431.736	158.03
431.943	139.6
432.15	203.09
432.358	196.95
432.565	313.68
432.772	59.73
432.979	153.94
433.187	192.85
433.394	178.51
433.601	184.66
433.808	209.23
434.016	219.47
434.223	180.56
434.43	192.85
434.637	270.67
434.844	280.91
435.052	270.67
435.259	289.1
435.466	301.39
435.673	313.68
435.88	303.44
436.087	354.64
436.294	420.17
436.501	422.22
436.708	373.07
436.915	268.63
437.122	356.69
437.329	278.87
437.537	315.73
437.743	354.64
437.95	473.42
438.157	330.06
438.364	407.89
438.571	371.02
438.778	459.09
438.985	518.48
439.192	545.1
439.399	547.15
439.606	373.07
439.813	569.68
440.02	608.59
440.227	846.15
440.433	657.74
440.64	600.4
440.847	522.57
441.054	635.21
441.261	762.19
441.467	602.44
441.674	569.68
441.881	725.32
442.088	735.56
442.294	731.47
442.501	813.38
442.708	829.77
442.914	792.91
443.121	966.98
443.328	862.54
443.534	954.69
443.741	983.37
443.948	854.34
444.154	969.03
444.361	1200.45
444.568	977.22
444.774	1036.61
444.981	1159.49
445.187	1239.36
445.394	1259.84
445.6	1192.26
445.807	1349.95
446.013	1345.86
446.22	1343.81
446.426	1519.93
446.633	1653.05
446.839	1829.18
447.046	1456.45
447.252	1751.35
447.459	1689.92
447.665	1712.44
447.871	1923.38
448.078	2046.26
448.284	2076.98
448.491	2076.98
448.697	2124.08
448.903	2380.08
449.11	2267.44
449.316	2277.68
449.522	2468.14
449.728	2586.93
449.935	2691.37
450.141	2709.8
450.347	3176.74
450.553	2894.12
450.76	2969.9
450.966	3072.29
451.172	3197.22
451.378	3385.63
451.584	3379.49
451.791	3658.01
451.997	3762.46
452.203	3862.81
452.409	3973.4
452.615	4112.66
452.821	4036.89
453.027	4008.22
453.233	4688.14
453.44	4477.2
453.646	4778.25
453.852	4999.43
454.058	5046.54
454.264	5327.11
454.47	5640.45
454.676	5603.58
454.882	6168.82
455.088	5865.72
455.294	6189.3
455.5	6639.86
455.705	6641.9
455.911	6967.53
456.117	7071.98
456.323	7368.93
456.529	7475.43
456.735	8095.96
456.941	8304.85
457.147	8585.43
457.352	8677.58
457.558	9060.56
457.764	9611.46
457.97	9930.94
458.176	10414.26
458.381	10756.27
458.587	10776.75
458.793	11821.22
458.999	11415.72
459.204	13011.09
459.41	13594.76
459.616	13121.68
459.821	13789.31
460.027	14428.28
460.233	15204.46
460.438	15382.63
460.644	16404.57
460.85	16220.25
461.055	17152.08
461.261	17856.58
461.466	17313.87
461.672	17928.26
461.878	19738.66
462.083	19529.77
462.289	20238.37
462.494	20883.48
462.7	21254.16
462.905	21059.6
463.111	23101.43
463.316	24184.8
463.522	24561.63
463.727	25440.21
463.932	26326.98
464.138	27404.21
464.343	28333.99
464.549	28315.56
464.754	30449.54
464.959	31217.53
465.165	31870.83
465.37	31823.73
465.575	31895.41
465.781	33914.7
465.986	34754.37
466.191	34404.17
466.397	34924.35
466.602	33746.77
466.807	35952.43
467.012	36613.93
467.218	37345.05
467.423	37203.74
467.628	38596.36
467.833	39993.08
468.038	39210.75
468.244	38768.39
468.449	41000.68
468.654	39800.57
468.859	40466.16
469.064	39728.89
469.269	39032.58
469.474	39266.05
469.679	40322.8
469.885	39567.1
470.09	40120.05
470.295	39917.3
470.5	39042.82
470.705	39360.25
470.91	38143.76
471.115	38092.56
471.32	38917.89
471.525	38397.71
471.73	37261.08
471.935	36988.7
472.139	35899.19
472.344	36083.5
472.549	35985.2
472.754	35006.27
472.959	34393.93
473.164	32999.26
473.369	32448.36
473.574	33640.28
473.778	32956.25
473.983	32604
474.188	31477.62
474.393	30381.96
474.598	29990.8
474.802	29665.17
475.007	28905.37
475.212	28831.65
475.417	27856.81
475.621	27582.38
475.826	27146.17
476.031	26552.26
476.235	26124.23
476.44	26394.56
476.645	25339.86
476.849	25063.38
477.054	24686.56
477.259	23760.87
477.463	24279.01
477.668	23425.01
477.872	23629.8
478.077	22818.81
478.282	21841.93
478.486	21970.95
478.691	21530.64
478.895	21606.41
479.1	21262.35
479.304	21202.96
479.509	20494.36
479.713	20670.49
479.918	20314.14
480.122	19726.38
480.326	19902.5
480.531	19621.93
480.735	19730.47
480.94	19406.89
481.144	19890.21
481.348	18866.23
481.553	19109.94
481.757	18495.55
481.961	18763.83
482.166	18935.86
482.37	18499.64
482.574	18223.17
482.778	18088
482.983	18298.94
483.187	18077.76
483.391	17573.96
483.595	17805.38
483.8	17401.93
484.004	17455.18
484.208	17428.56
484.412	17199.18
484.616	16760.92
484.821	16740.44
485.025	16281.69
485.229	16640.09
485.433	16244.83
485.637	16015.46
485.841	15515.75
486.045	15513.7
486.249	15353.96
486.453	14993.52
486.657	14864.5
486.861	14606.45
487.065	14364.79
487.269	14430.33
487.473	13736.07
487.677	14145.66
487.881	13840.51
488.085	13426.82
488.289	13265.03
488.493	12824.72
488.697	13090.96
488.901	12607.64
489.105	12335.26
489.309	12200.09
489.512	11985.05
489.716	11716.77
489.92	11389.1
490.124	11002.03
490.328	11202.73
490.531	10967.21
490.735	10694.83
490.939	10657.97
491.143	10324.15
491.346	10223.8
491.55	10295.48
491.754	9900.22
491.958	9599.17
492.161	9545.92
492.365	9392.33
492.569	9201.86
492.772	9078.99
492.976	8997.07
493.18	9031.88
493.383	8892.62
493.587	8446.16
493.79	8583.38
493.994	8380.63
494.197	8374.49
494.401	8208.6
494.605	8267.99
494.808	8032.47
495.012	7925.98
495.215	8278.23
495.419	8059.1
495.622	7741.66
495.825	7966.94
496.029	7880.93
496.232	7911.64
496.436	7614.69
496.639	7950.56
496.843	7442.66
497.046	7510.24
497.249	7729.38
497.453	7522.53
497.656	7622.88
497.859	7590.11
498.063	7641.31
498.266	7801.05
498.469	7643.36
498.673	7809.25
498.876	7844.06
499.079	7819.49
499.282	7727.33
499.485	8104.15
499.689	7862.49
499.892	8196.31
500.095	7915.74
500.298	8100.06
500.501	7854.3
500.705	8200.41
500.908	8397.01
501.111	8171.74
501.314	8429.78
501.517	8480.98
501.72	8464.6
501.923	8532.18
502.126	8616.15
502.329	8827.09
502.532	8882.38
502.735	8892.62
502.938	9271.5
503.141	9162.95
503.344	9103.56
503.547	9187.53
503.75	9373.89
503.953	9357.51
504.156	9566.4
504.359	9715.91
504.562	10139.83
504.765	9969.85
504.968	10258.62
505.17	10414.26
505.373	10522.8
505.576	10889.39
505.779	10811.57
505.982	10899.63
506.185	11456.68
506.387	11331.75
506.59	11554.98
506.793	11643.04
506.996	11718.82
507.198	12331.16
507.401	12423.32
507.604	12644.5
507.807	12966.03
508.009	13252.75
508.212	13496.46
508.415	13660.29
508.617	13742.21
508.82	14102.65
509.022	14297.21
509.225	14839.92
509.428	15128.69
509.63	15392.87
509.833	15603.82
510.035	16267.36
510.238	16257.12
510.44	16765.01
510.643	17193.04
510.845	17473.61
511.048	17586.25
511.25	18331.71
511.453	18606.14
511.655	19523.63
511.858	19560.49
512.06	19841.06
512.262	20502.56
512.465	21028.88
512.667	21422.09
512.87	22196.23
513.072	22566.91
513.274	23205.88
513.477	23613.42
513.679	24004.58
513.881	24862.68
514.084	25386.96
514.286	25792.46
514.488	26265.54
514.69	26949.56
514.893	27471.79
515.095	28247.97
515.297	28751.77
515.499	29251.48
515.701	29808.53
515.904	31090.55
516.106	31086.46
516.308	31913.84
516.51	32769.89
516.712	33240.92
516.914	33992.53
517.116	34629.44
517.318	35157.82
517.52	35673.91
517.722	36675.37
517.925	37422.87
518.127	37918.48
518.329	38465.29
518.531	38684.42
518.733	40347.37
518.935	40777.45
519.136	41094.88
519.338	41936.6
519.54	42620.62
519.742	43712.19
519.944	44379.82
520.146	45147.81
520.348	45323.94
520.55	46276.24
520.752	46757.52
520.954	47185.54
521.155	47398.53
521.357	48477.81
521.559	48840.3
521.761	49727.07
521.963	50009.69
522.164	50482.77
522.366	50693.71
522.568	51709.5
522.77	51840.57
522.971	52588.08
523.173	52770.35
523.375	52870.7
523.576	53052.97
523.778	53796.38
523.98	54255.13
524.181	53915.17
524.383	54568.47
524.584	54994.45
524.786	54971.92
524.988	54865.42
525.189	55576.07
525.391	55494.15
525.592	55578.12
525.794	55881.22
525.995	55653.89
526.197	55205.39
526.398	55528.97
526.6	55750.15
526.801	55416.33
527.003	55451.14
527.204	55166.48
527.406	55340.55
527.607	54869.52
527.808	55481.86
528.01	53679.65
528.211	53999.13
528.412	55023.12
528.614	54005.28
528.815	53306.92
529.016	53282.34
529.218	52422.2
529.419	52620.85
529.62	52385.33
529.822	51627.59
530.023	51111.5
530.224	50998.86
530.425	50185.82
530.626	49323.62
530.828	49024.62
531.029	49471.07
531.23	48211.57
531.431	47689.34
531.632	47615.61
531.833	47279.75
532.035	46456.46
532.236	45923.99
532.437	46022.3
532.638	44680.88
532.839	44379.82
533.04	43921.08
533.241	42745.55
533.442	43046.6
533.643	42714.83
533.844	41752.28
534.045	41201.38
534.246	40562.41
534.447	40425.2
534.648	39522.04
534.849	39403.26
535.05	38444.81
535.251	38088.46
535.451	37547.8
535.652	37531.42
535.853	36763.43
536.054	36087.6
536.255	36009.78
536.456	35057.47
536.657	35268.41
536.857	34393.93
537.058	33972.05
537.259	33597.27
537.46	33255.26
537.66	32565.09
537.861	32200.55
538.062	31381.37
538.263	31537.01
538.463	31027.07
538.664	30635.91
538.865	30211.98
539.065	29923.21
539.266	29286.29
539.466	29314.97
539.667	28692.38
539.868	28483.49
540.068	28067.75
540.269	27975.59
540.469	27711.41
540.67	27072.44
540.87	26974.14
541.071	26456
541.271	26425.28
541.472	25880.52
541.672	25554.9
541.873	25556.94
542.073	24868.83
542.274	25057.24
542.474	24358.88
542.675	24027.11
542.875	24084.45
543.075	23517.17
543.276	23046.13
543.476	23330.8
543.676	23060.47
543.877	22886.39
544.077	22794.23
544.277	22284.29
544.478	21872.65
544.678	21843.98
544.878	21313.55
545.078	21405.71
545.279	20987.93
545.479	20647.96
545.679	20549.66
545.879	20445.21
546.079	20154.4
546.28	20017.19
546.48	19527.72
546.68	19650.6
546.88	18792.5
547.08	18837.56
547.28	18700.34
547.48	18309.18
547.68	18266.17
547.88	17819.72
548.081	17692.74
548.281	17500.23
548.481	17100.88
548.681	17342.54
548.881	16928.85
549.081	16719.96
549.28	16275.55
549.48	16330.84
549.68	16169.05
549.88	16171.1
550.08	15349.87
550.28	15579.24
550.48	15407.21
550.68	14983.28
550.88	14770.29
551.08	14280.83
551.279	14614.65
551.479	14203
551.679	13965.44
551.879	13781.12
552.079	13926.53
552.278	13326.47
552.478	13191.31
552.678	13222.03
552.878	13002.89
553.077	12495
553.277	12152.99
553.477	12310.68
553.676	12046.49
553.876	11991.2
554.076	11466.92
554.275	11507.88
554.475	11221.16
554.674	11102.38
554.874	11217.07
555.074	10737.84
555.273	10578.1
555.473	10594.48
555.672	10234.04
555.872	10236.09
556.071	9924.8
556.271	10012.86
556.47	9793.73
556.67	9300.17
556.869	9339.08
557.068	8896.72
557.268	8904.91
557.467	8837.33
557.667	8687.82
557.866	8691.92
558.065	8610
558.265	8153.3
558.464	8165.59
558.663	8159.45
558.863	7788.77
559.062	7909.6
559.261	7422.18
559.461	7622.88
559.66	7127.27
559.859	7201
560.058	7057.64
560.258	7035.11
560.457	6789.36
560.656	6994.15
560.855	6719.73
561.054	6678.77
561.253	6662.38
561.453	6473.97
561.652	6316.28
561.851	6222.07
562.05	6181.11
562.249	5990.65
562.448	5984.51
562.647	5906.68
562.846	5759.23
563.045	5789.95
563.244	5527.81
563.443	5609.73
563.642	5376.26
563.841	5425.41
564.04	5193.99
564.239	5255.43
564.438	5083.4
564.637	4960.52
564.836	5028.1
565.035	4747.53
565.234	4876.55
565.432	4536.59
565.631	4784.4
565.83	4636.94
566.029	4548.88
566.228	4434.19
566.427	4581.65
566.625	4184.34
566.824	4335.89
567.023	4210.97
567.222	4147.48
567.42	4194.58
567.619	3954.97
567.818	3934.49
568.016	4018.46
568.215	3750.17
568.414	3868.95
568.612	3901.72
568.811	3651.87
569.01	3707.16
569.208	3479.84
569.407	3647.77
569.605	3535.14
569.804	3520.8
570.002	3336.48
570.201	3215.65
570.4	3268.9
570.598	3191.08
570.797	3254.56
570.995	3197.22
571.193	3148.07
571.392	3170.6
571.59	2935.08
571.789	2971.94
571.987	2883.88
572.186	2976.04
572.384	2758.96
572.582	2638.13
572.781	2890.03
572.979	2572.59
573.177	2662.7
573.376	2660.65
573.574	2640.17
573.772	2642.22
573.971	2500.91
574.169	2357.55
574.367	2482.48
574.565	2310.45
574.763	2312.5
574.962	2285.87
575.16	2191.67
575.358	2271.54
575.556	2189.62
575.754	2113.85
575.952	2089.27
576.151	2199.86
576.349	2124.08
576.547	1915.19
576.745	1978.68
576.943	1911.1
577.141	1886.52
577.339	1816.89
577.537	1857.85
577.735	1890.62
577.933	1798.46
578.131	1726.78
578.329	1857.85
578.527	1646.91
578.725	1806.65
578.923	1517.89
579.121	1651
579.319	1575.23
579.516	1616.19
579.714	1892.66
579.912	1515.84
580.11	1521.98
580.308	1575.23
580.506	1448.26
580.704	1339.71
580.901	1405.25
581.099	1476.93
581.297	1378.62
581.495	1427.78
581.692	1399.1
581.89	1401.15
582.088	1253.7
582.285	1202.5
582.483	1323.33
582.681	1231.17
582.878	1286.47
583.076	1259.84
583.274	1245.51
583.471	1253.7
583.669	1071.43
583.866	1089.86
584.064	1077.57
584.262	1009.99
584.459	1065.29
584.657	1161.54
584.854	1091.91
585.052	1108.29
585.249	1061.19
585.447	1118.53
585.644	938.31
585.841	1075.52
586.039	975.17
586.236	1075.52
586.434	983.37
586.631	891.21
586.828	950.6
587.026	846.15
587.223	848.2
587.42	878.92
587.618	969.03
587.815	891.21
588.012	893.26
588.21	786.76
588.407	1022.28
588.604	903.5
588.801	764.23
588.999	844.1
589.196	874.82
589.393	772.43
589.59	727.37
589.787	747.85
589.984	778.57
590.182	889.16
590.379	770.38
590.576	747.85
590.773	723.27
590.97	739.66
591.167	764.23
591.364	809.29
591.561	659.79
591.758	921.93
591.955	749.9
592.152	792.91
592.349	700.75
592.546	731.47
592.743	610.64
592.94	684.36
593.137	784.71
593.334	856.39
593.531	778.57
593.727	850.25
593.924	739.66
594.121	827.72
594.318	704.84
594.515	723.27
594.712	883.02
594.908	891.21
595.105	567.63
595.302	825.67
595.499	819.53
595.696	952.65
595.892	821.58
596.089	901.45
596.286	803.15
596.482	885.06
596.679	954.69
596.876	880.97
597.072	944.45
597.269	903.5
597.466	999.75
597.662	981.32
597.859	989.51
598.055	942.41
598.252	1110.34
598.448	1171.78
598.645	1204.55
598.841	1206.59
599.038	1333.57
599.234	1288.51
599.431	1364.29
599.627	1345.86
599.824	1411.39
600.02	1358.14
600.217	1575.23
600.413	1456.45
600.609	1610.04
600.806	1841.47
601.002	1708.35
601.198	1734.97
601.395	1876.28
601.591	2031.93
601.787	2019.64
601.984	2150.71
602.18	2115.89
602.376	2259.25
602.572	2369.84
602.769	2363.7
602.965	2472.24
603.161	2560.3
603.357	2730.28
603.553	2926.89
603.75	2912.55
603.946	3088.68
604.142	3002.66
604.338	3387.68
604.534	3369.25
604.73	3414.31
604.926	3414.31
605.122	3719.45
605.318	3494.18
605.514	3852.57
605.71	3873.05
605.906	4217.11
606.102	4268.31
606.298	4391.19
606.494	4469.01
606.69	4786.44
606.886	4768.01
607.082	4772.11
607.278	4952.33
607.474	5024.01
607.67	5452.03
607.866	5456.13
608.062	5714.17
608.257	5892.35
608.453	5742.85
608.649	6058.23
608.845	6068.47
609.041	6420.72
609.236	6629.62
609.432	6746.35
609.628	7010.54
609.824	7276.77
610.019	7274.73
610.215	7567.59
610.411	7690.46
610.606	7905.5
610.802	7889.12
610.998	8102.11
611.193	8593.62
611.389	8526.04
611.584	8937.68
611.78	9070.79
611.976	9380.04
612.171	9771.2
612.367	9709.76
612.562	10025.15
612.758	10012.86
612.953	10387.64
613.149	10918.06
613.344	11116.72
613.539	11636.9
613.735	11698.34
613.93	12255.39
614.126	12216.47
614.321	12841.11
614.517	12816.53
614.712	13447.3
614.907	13799.55
615.103	14200.96
615.298	14329.98
615.493	14866.55
615.688	14970.99
615.884	15898.72
616.079	15673.45
616.274	16359.52
616.47	16521.31
616.665	16926.8
616.86	17565.77
617.055	17717.32
617.25	18253.89
617.445	18792.5
617.641	19046.45
617.836	19669.03
618.031	19877.93
618.226	20725.79
618.421	20987.93
618.616	21641.23
618.811	21860.36
619.006	22536.19
619.201	22810.62
619.396	23418.86
619.591	23773.16
619.786	24385.51
619.981	24874.97
620.176	25429.97
620.371	25673.68
620.566	26826.68
620.761	26943.42
620.956	27752.37
621.151	27873.2
621.346	28932
621.541	28839.84
621.735	29880.21
621.93	30130.06
622.125	30908.29
622.32	31258.49
622.515	31913.84
622.709	32694.11
622.904	32931.68
623.099	33541.97
623.294	34361.16
623.488	34508.61
623.683	35766.07
623.878	35700.53
624.072	36620.07
624.267	36589.35
624.462	37211.93
624.656	37949.2
624.851	38940.42
625.046	39206.66
625.24	39597.82
625.435	40163.06
625.629	40705.77
625.824	41080.55
626.018	41877.21
626.213	41821.91
626.407	42993.35
626.602	42637
626.796	43865.78
626.991	43800.25
627.185	44351.15
627.38	44084.92
627.574	45010.6
627.768	44977.83
627.963	45100.71
628.157	45194.92
628.352	46302.87
628.546	45528.73
628.74	46112.41
628.935	45473.44
629.129	45919.9
629.323	45371.04
629.517	45495.97
629.712	44869.29
629.906	44848.81
630.1	43753.15
630.294	44244.66
630.489	43597.5
630.683	43404.99
630.877	42673.87
631.071	41799.38
631.265	41504.48
631.459	40351.47
631.653	39821.05
631.848	39051.01
632.042	38225.68
632.236	37248.8
632.43	36065.07
632.624	35630.9
632.818	34101.07
633.012	33447.77
633.206	32350.06
633.4	31606.64
633.594	30062.47
633.788	29018.01
633.982	28147.62
634.176	27391.92
634.369	26310.6
634.563	25391.06
634.757	24297.44
634.951	23457.78
635.145	22900.73
635.339	21936.13
635.533	20684.83
635.726	20318.24
635.92	19165.23
636.114	18503.74
636.308	17698.89
636.501	17176.66
636.695	16218.21
636.889	15640.68
637.083	14958.71
637.276	14375.03
637.47	13881.47
637.664	13340.81
637.857	12794
638.051	12288.15
638.244	11827.36
638.438	11233.45
638.632	10879.15
638.825	10199.23
639.019	10205.37
639.212	9597.12
639.406	9210.06
639.599	8749.26
639.793	8472.79
639.986	8048.86
640.18	7999.71
640.373	7403.75
640.567	7139.56
640.76	6924.52
640.954	6666.48
641.147	6271.22
641.34	6078.71
641.534	5992.7
641.727	5699.84
641.92	5525.76
642.114	5237
642.307	5050.63
642.5	4845.84
642.694	4725.01
642.887	4567.31
643.08	4487.44
643.273	4235.54
643.467	4038.94
643.66	3881.24
643.853	3600.67
644.046	3447.07
644.239	3383.59
644.432	3207.46
644.626	3121.45
644.819	3021.1
645.012	2912.55
645.205	2978.09
645.398	2857.26
645.591	2554.16
645.784	2472.24
645.977	2398.51
646.17	2347.31
646.363	2220.34
646.556	2111.8
646.749	1925.43
646.942	2134.32
647.135	2009.4
647.328	1763.64
647.521	1874.23
647.714	1640.76
647.907	1659.2
648.099	1497.41
648.292	1571.13
648.485	1521.98
648.678	1356.1
648.871	1364.29
649.064	1155.4
649.256	1216.83
649.449	1184.07
649.642	1128.77
649.835	1057.09
650.027	999.75
650.22	1179.97
650.413	1104.2
650.605	1009.99
650.798	928.07
650.991	921.93
651.183	837.96
651.376	915.78
651.568	911.69
651.761	794.95
651.954	799.05
652.146	766.28
652.339	917.83
652.531	809.29
652.724	657.74
652.916	581.96
653.109	624.97
653.301	696.65
653.494	690.51
653.686	596.3
653.879	584.01
654.071	725.32
654.263	563.53
654.456	616.78
654.648	600.4
654.84	567.63
655.033	457.04
655.225	506.19
655.417	379.22
655.61	596.3
655.802	500.05
655.994	555.34
656.186	395.6
656.379	526.67
656.571	330.06
656.763	375.12
656.955	385.36
657.148	336.21
657.34	471.37
657.532	360.78
657.724	366.93
657.916	258.39
658.108	385.36
658.3	430.41
658.492	422.22
658.684	305.49
658.876	477.52
659.068	166.23
659.26	229.71
659.452	287.06
659.644	289.1
659.836	389.46
660.028	319.82
660.22	217.43
660.412	301.39
660.604	270.67
660.796	244.05
660.988	352.59
661.18	248.15
661.372	250.19
661.563	188.75
661.755	313.68
661.947	235.86
662.139	237.91
662.331	246.1
662.522	205.14
662.714	223.57
662.906	129.36
663.097	184.66
663.289	227.67
663.481	135.51
663.673	135.51
663.864	213.33
664.056	260.43
664.247	110.93
664.439	348.5
664.631	211.28
664.822	215.38
665.014	229.71
665.205	112.98
665.397	141.65
665.588	198.99
665.78	237.91
665.971	231.76
666.163	231.76
666.354	221.52
666.546	108.88
666.737	207.19
666.929	153.94
667.12	170.32
667.311	158.03
667.503	141.65
667.694	166.23
667.885	198.99
668.077	272.72
668.268	133.46
668.459	155.99
668.651	194.9
668.842	223.57
669.033	96.6
669.224	123.22
669.416	307.54
669.607	164.18
669.798	137.56
669.989	328.02
670.18	155.99
670.371	125.27
670.563	78.16
670.754	260.43
670.945	280.91
671.136	272.72
671.327	96.6
671.518	256.34
671.709	268.63
671.9	184.66
672.091	321.87
672.282	145.75
672.473	209.23
672.664	121.17
672.855	184.66
673.046	219.47
673.237	242
673.428	217.43
673.619	137.56
673.809	162.13
674	297.3
674.191	186.71
674.382	143.7
674.573	264.53
674.764	168.27
674.954	328.02
675.145	121.17
675.336	131.41
675.527	80.21
675.717	127.32
675.908	170.32
676.099	168.27
676.289	178.51
676.48	88.4
676.671	125.27
676.861	158.03
677.052	215.38
677.243	180.56
677.433	139.6
677.624	266.58
677.814	237.91
678.005	194.9
678.195	362.83
678.386	237.91
678.576	170.32
678.767	33.11
678.957	256.34
679.148	252.24
679.338	264.53
679.529	297.3
679.719	217.43
679.909	190.8
680.1	325.97
680.29	293.2
680.481	223.57
680.671	297.3
680.861	264.53
681.052	227.67
681.242	250.19
681.432	270.67
681.622	260.43
681.813	231.76
682.003	280.91
682.193	143.7
682.383	317.78
682.573	313.68
682.764	264.53
682.954	391.5
683.144	309.58
683.334	264.53
683.524	346.45
683.714	244.05
683.904	293.2
684.094	289.1
684.284	280.91
684.474	395.6
684.664	278.87
684.854	340.3
685.044	299.34
685.234	213.33
685.424	229.71
685.614	190.8
685.804	418.13
685.994	254.29
686.184	287.06
686.374	334.16
686.564	375.12
686.753	297.3
686.943	282.96
687.133	272.72
687.323	270.67
687.513	334.16
687.702	215.38
687.892	258.39
688.082	375.12
688.272	340.3
688.461	268.63
688.651	383.31
688.841	422.22
689.03	217.43
689.22	248.15
689.41	377.17
689.599	285.01
689.789	293.2
689.979	342.35
690.168	268.63
690.358	393.55
690.547	289.1
690.737	323.92
690.926	356.69
691.116	313.68
691.305	295.25
691.495	358.74
691.684	186.71
691.874	213.33
692.063	256.34
692.252	274.77
692.442	297.3
692.631	295.25
692.82	227.67
693.01	276.82
693.199	201.04
693.388	358.74
693.578	260.43
693.767	311.63
693.956	262.48
694.146	285.01
694.335	317.78
694.524	143.7
694.713	377.17
694.902	229.71
695.092	262.48
695.281	303.44
695.47	190.8
695.659	196.95
695.848	297.3
696.037	203.09
696.226	360.78
696.415	373.07
696.604	371.02
696.793	346.45
696.982	297.3
697.171	401.74
697.36	209.23
697.549	227.67
697.738	258.39
697.927	313.68
698.116	166.23
698.305	364.88
698.494	233.81
698.683	176.47
698.872	348.5
699.061	276.82
699.25	176.47
699.438	215.38
699.627	188.75
699.816	358.74
700.005	160.08
700.193	260.43
700.382	358.74
700.571	280.91
700.76	270.67
700.948	297.3
701.137	276.82
701.326	278.87
701.514	110.93
701.703	282.96
701.892	215.38
702.08	393.55
702.269	219.47
702.457	244.05
702.646	227.67
702.834	172.37
703.023	282.96
703.212	360.78
703.4	274.77
703.589	227.67
703.777	196.95
703.965	244.05
704.154	231.76
704.342	178.51
704.531	178.51
704.719	278.87
704.907	254.29
705.096	217.43
705.284	205.14
705.472	278.87
705.661	203.09
705.849	321.87
706.037	330.06
706.226	287.06
706.414	287.06
706.602	158.03
706.79	330.06
706.979	215.38
707.167	217.43
707.355	194.9
707.543	260.43
707.731	291.15
707.919	233.81
708.107	299.34
708.296	190.8
708.484	174.42
708.672	295.25
708.86	301.39
709.048	254.29
709.236	106.84
709.424	338.26
709.612	319.82
709.8	131.41
709.988	203.09
710.176	381.26
710.364	272.72
710.551	317.78
710.739	223.57
710.927	276.82
711.115	258.39
711.303	317.78
711.491	346.45
711.679	215.38
711.866	313.68
712.054	248.15
712.242	325.97
712.43	307.54
712.617	211.28
712.805	319.82
712.993	248.15
713.181	104.79
713.368	285.01
713.556	209.23
713.744	143.7
713.931	461.13
714.119	307.54
714.306	231.76
714.494	227.67
714.682	201.04
714.869	172.37
715.057	180.56
715.244	164.18
715.432	297.3
715.619	149.84
715.807	178.51
715.994	168.27
716.182	213.33
716.369	276.82
716.556	229.71
716.744	153.94
716.931	94.55
717.119	256.34
717.306	235.86
717.493	303.44
717.681	129.36
717.868	182.61
718.055	332.11
718.242	184.66
718.43	285.01
718.617	340.3
718.804	256.34
718.991	354.64
719.179	285.01
719.366	264.53
719.553	182.61
719.74	242
719.927	194.9
720.114	321.87
720.301	201.04
720.488	217.43
720.676	219.47
720.863	446.8
721.05	385.36
721.237	268.63
721.424	268.63
721.611	317.78
721.798	106.84
721.985	166.23
722.172	276.82
722.358	141.65
722.545	272.72
722.732	285.01
722.919	407.89
723.106	207.19
723.293	256.34
723.48	276.82
723.667	186.71
723.853	338.26
724.04	307.54
724.227	272.72
724.414	244.05
724.6	295.25
724.787	354.64
724.974	364.88
725.161	274.77
725.347	291.15
725.534	276.82
725.72	299.34
725.907	387.41
726.094	266.58
726.28	274.77
726.467	311.63
726.653	254.29
726.84	325.97
727.027	371.02
727.213	336.21
727.4	252.24
727.586	332.11
727.773	239.95
727.959	334.16
728.145	276.82
728.332	379.22
728.518	244.05
728.705	373.07
728.891	311.63
729.077	323.92
729.264	250.19
729.45	285.01
729.636	323.92
729.823	274.77
730.009	387.41
730.195	330.06
730.382	291.15
730.568	272.72
730.754	246.1
730.94	262.48
731.126	323.92
731.313	368.98
731.499	350.54
731.685	321.87
731.871	325.97
732.057	346.45
732.243	319.82
732.429	342.35
732.615	373.07
732.801	321.87
732.987	215.38
733.173	291.15
733.359	289.1
733.545	350.54
733.731	260.43
733.917	440.65
734.103	246.1
734.289	397.65
734.475	272.72
734.661	393.55
734.847	309.58
735.033	278.87
735.219	403.79
735.404	268.63
735.59	282.96
735.776	256.34
735.962	405.84
736.148	358.74
736.333	397.65
736.519	289.1
736.705	328.02
736.89	323.92
737.076	287.06
737.262	268.63
737.447	264.53
737.633	278.87
737.819	403.79
738.004	297.3
738.19	364.88
738.375	411.98
738.561	340.3
738.747	295.25
738.932	334.16
739.118	442.7
739.303	362.83
739.489	317.78
739.674	268.63
739.859	233.81
740.045	434.51
740.23	297.3
740.416	178.51
740.601	272.72
740.786	295.25
740.972	270.67
741.157	250.19
741.342	242
741.528	295.25
741.713	422.22
741.898	325.97
742.084	268.63
742.269	270.67
742.454	315.73
742.639	409.94
742.824	438.61
743.01	403.79
743.195	418.13
743.38	256.34
743.565	250.19
743.75	315.73
743.935	403.79
744.12	342.35
744.305	244.05
744.49	360.78
744.675	289.1
744.86	287.06
745.045	301.39
745.23	377.17
745.415	330.06
745.6	383.31
745.785	258.39
745.97	354.64
746.155	309.58
746.34	391.5
746.525	321.87
746.71	414.03
746.895	246.1
747.079	280.91
747.264	225.62
747.449	362.83
747.634	426.32
747.819	272.72
748.003	336.21
748.188	207.19
748.373	293.2
748.557	280.91
748.742	289.1
748.927	229.71
749.111	203.09
749.296	252.24
749.481	274.77
749.665	301.39
749.85	268.63
750.034	334.16
750.219	235.86
750.404	225.62
750.588	297.3
750.773	196.95
750.957	270.67
751.141	215.38
751.326	309.58
751.51	133.46
751.695	242
751.879	260.43
752.064	383.31
752.248	262.48
752.432	360.78
752.617	350.54
752.801	332.11
752.985	231.76
753.17	387.41
753.354	242
753.538	217.43
753.722	164.18
753.907	227.67
754.091	215.38
754.275	301.39
754.459	211.28
754.643	268.63
754.828	264.53
755.012	293.2
755.196	141.65
755.38	280.91
755.564	190.8
755.748	205.14
755.932	233.81
756.116	239.95
756.3	282.96
756.484	133.46
756.668	321.87
756.852	211.28
757.036	188.75
757.22	254.29
757.404	121.17
757.588	201.04
757.772	254.29
757.956	209.23
758.14	244.05
758.323	133.46
758.507	223.57
758.691	151.89
758.875	272.72
759.059	346.45
759.242	135.51
759.426	164.18
759.61	149.84
759.794	155.99
759.977	229.71
760.161	383.31
760.345	266.58
760.528	274.77
760.712	61.78
760.895	211.28
761.079	229.71
761.263	74.07
761.446	149.84
761.63	112.98
761.813	237.91
761.997	45.4
762.18	201.04
762.364	225.62
762.547	-1.71
762.731	127.32
762.914	151.89
763.098	94.55
763.281	80.21
763.464	143.7
763.648	80.21
763.831	110.93
764.015	55.64
764.198	227.67
764.381	123.22
764.564	164.18
764.748	176.47
764.931	203.09
765.114	186.71
765.297	139.6
765.481	80.21
765.664	129.36
765.847	96.6
766.03	250.19
766.213	65.88
766.397	151.89
766.58	31.06
766.763	158.03
766.946	74.07
767.129	133.46
767.312	147.8
767.495	112.98
767.678	94.55
767.861	129.36
768.044	188.75
768.227	129.36
768.41	76.12
768.593	137.56
768.776	139.6
768.959	51.54
769.142	215.38
769.324	82.26
769.507	115.03
769.69	49.49
769.873	178.51
770.056	332.11
770.239	119.12
770.421	180.56
770.604	203.09
770.787	182.61
770.97	143.7
771.152	82.26
771.335	149.84
771.518	-18.09
771.7	180.56
771.883	252.24
772.066	86.36
772.248	123.22
772.431	141.65
772.613	139.6
772.796	53.59
772.978	217.43
773.161	149.84
773.343	108.88
773.526	53.59
773.708	-18.09
773.891	59.73
774.073	178.51
774.256	84.31
774.438	188.75
774.621	129.36
774.803	139.6
774.985	-20.14
775.168	162.13
775.35	133.46
775.532	168.27
775.715	59.73
775.897	162.13
776.079	88.4
776.261	172.37
776.444	4.44
776.626	92.5
776.808	94.55
776.99	67.92
777.173	76.12
777.355	182.61
777.537	110.93
777.719	67.92
777.901	106.84
778.083	119.12
778.265	6.49
778.447	127.32
778.629	82.26
778.811	63.83
778.993	123.22
779.175	160.08
779.357	39.25
779.539	18.77
779.721	35.16
779.903	92.5
780.085	33.11
780.267	76.12
780.449	104.79
780.631	147.8
780.812	145.75
780.994	115.03
781.176	88.4
781.358	57.68
781.54	117.08
781.721	100.69
781.903	31.06
782.085	74.07
782.267	127.32
782.448	2.39
782.63	76.12
782.812	119.12
782.993	65.88
783.175	80.21
783.357	72.02
783.538	69.97
783.72	-11.95
783.901	151.89
784.083	143.7
784.264	168.27
784.446	43.35
784.627	8.53
784.809	67.92
784.99	6.49
785.172	67.92
785.353	45.4
785.535	18.77
785.716	10.58
785.897	84.31
786.079	24.92
786.26	63.83
786.441	102.74
786.623	-38.57
786.804	-1.71
786.985	35.16
787.167	55.64
787.348	123.22
787.529	-9.9
787.71	182.61
787.891	110.93
788.073	-5.8
788.254	-52.91
788.435	252.24
788.616	43.35
788.797	-46.76
788.978	20.82
789.159	-20.14
789.34	82.26
789.522	35.16
789.703	-1.71
789.884	86.36
790.065	63.83
790.246	180.56
790.427	16.73
790.607	135.51
790.788	98.64
790.969	-11.95
791.15	86.36
791.331	33.11
791.512	51.54
791.693	-32.43
791.874	78.16
792.054	260.43
792.235	151.89
792.416	-18.09
792.597	22.87
792.778	162.13
792.958	137.56
793.139	26.96
793.32	53.59
793.5	-67.24
793.681	153.94
793.862	49.49
794.042	80.21
794.223	24.92
794.404	-63.15
794.584	24.92
794.765	26.96
794.945	67.92
795.126	90.45
795.306	22.87
795.487	-26.28
795.667	18.77
795.848	31.06
796.028	-7.85
796.209	78.16
796.389	29.01
796.57	14.68
796.75	-9.9
796.93	18.77
797.111	-3.75
797.291	37.2
797.471	84.31
797.652	-18.09
797.832	16.73
798.012	90.45
798.192	-59.05
798.373	-32.43
798.553	2.39
798.733	41.3
798.913	-83.63
799.093	-30.38
799.274	63.83
799.454	110.93
799.634	84.31
799.814	47.44
799.994	112.98
800.174	41.3
800.354	51.54
800.534	-93.87
800.714	92.5
800.894	-63.15
801.074	-52.91
801.254	-46.76
801.434	86.36
801.614	-50.86
801.794	6.49
801.974	2001.21
802.154	10.58
802.334	53.59
802.514	-5.8
802.693	53.59
802.873	12.63
803.053	10.58
803.233	94.55
803.413	-52.91
803.592	-28.33
803.772	-11.95
803.952	69.97
804.131	-69.29
804.311	164.18
804.491	59.73
804.67	-81.58
804.85	-34.47
805.03	90.45
805.209	69.97
805.389	47.44
805.568	-63.15
805.748	33.11
805.928	18.77
806.107	31.06
806.287	-3.75
806.466	76.12
806.646	31.06
806.825	10.58
807.004	-95.91
807.184	69.97
807.363	145.75
807.543	84.31
807.722	49.49
807.901	129.36
808.081	29.01
808.26	-91.82
808.439	31.06
808.619	100.69
808.798	-18.09
808.977	108.88
809.156	153.94
809.336	0.34
809.515	2.39
809.694	0.34
809.873	-9.9
810.052	86.36
810.231	67.92
810.411	12.63
810.59	102.74
810.769	39.25
810.948	55.64
811.127	-134.82
811.306	-36.52
811.485	39.25
811.664	180.56
811.843	4.44
812.022	49.49
812.201	-22.19
812.38	2.39
812.559	-22.19
812.737	65.88
812.916	-89.77
813.095	-67.24
813.274	12.63
813.453	-1.71
813.632	6.49
813.811	65.88
813.989	-50.86
814.168	4.44
814.347	4.44
814.526	-1.71
814.704	143.7
814.883	98.64
815.062	-57
815.24	119.12
815.419	-20.14
815.598	106.84
815.776	-83.63
815.955	26.96
816.133	-81.58
816.312	80.21
816.49	6.49
816.669	-7.85
816.847	96.6
817.026	10.58
817.204	31.06
817.383	90.45
817.561	-71.34
817.74	-28.33
817.918	-3.75
818.097	-110.25
818.275	-11.95
818.453	82.26
818.632	43.35
818.81	61.78
818.988	90.45
819.167	-54.95
819.345	51.54
819.523	-28.33
819.701	78.16
819.879	86.36
820.058	96.6
820.236	33.11
820.414	24.92
820.592	-7.85
820.77	-46.76
820.948	-85.67
821.127	39.25
821.305	14.68
821.483	-28.33
821.661	72.02
821.839	2.39
822.017	45.4
822.195	-18.09
822.373	78.16
822.551	49.49
822.729	86.36
822.907	49.49
823.085	0.34
823.262	-38.57
823.44	-42.67
823.618	-50.86
823.796	-40.62
823.974	-11.95
824.152	-24.23
824.329	6.49
824.507	61.78
824.685	104.79
824.863	53.59
825.04	88.4
825.218	49.49
825.396	57.68
825.574	119.12
825.751	0.34
825.929	92.5
826.107	-32.43
826.284	-48.81
826.462	65.88
826.639	-54.95
826.817	-44.71
826.994	22.87
827.172	-140.97
827.349	127.32
827.527	49.49
827.704	33.11
827.882	92.5
828.059	-9.9
828.237	-75.43
828.414	72.02
828.591	-130.73
828.769	37.2
828.946	-61.1
829.124	108.88
829.301	90.45
829.478	-20.14
829.655	92.5
829.833	18.77
830.01	-165.54
830.187	37.2
830.364	26.96
830.542	10.58
830.719	117.08
830.896	-7.85
831.073	88.4
831.25	-5.8
831.427	49.49
831.604	65.88
831.782	-93.87
831.959	67.92
832.136	4.44
832.313	57.68
832.49	8.53
832.667	-38.57
832.844	-26.28
833.021	80.21
833.198	69.97
833.374	-9.9
833.551	72.02
833.728	-16.04
833.905	115.03
834.082	-153.26
834.259	49.49
834.436	155.99
834.612	-36.52
834.789	43.35
834.966	-9.9
835.143	35.16
835.319	-106.15
835.496	80.21
835.673	51.54
835.85	76.12
836.026	0.34
836.203	143.7
836.38	-7.85
836.556	49.49
836.733	-52.91
836.909	55.64
837.086	20.82
837.262	-126.63
837.439	69.97
837.616	4.44
837.792	31.06
837.968	47.44
838.145	-65.19
838.321	47.44
838.498	2.39
838.674	100.69
838.851	-30.38
839.027	6.49
839.203	35.16
839.38	45.4
839.556	0.34
839.732	76.12
839.909	-13.99
840.085	67.92
840.261	-32.43
840.437	35.16
840.614	-20.14
840.79	123.22
840.966	67.92
841.142	78.16
841.318	10.58
841.494	80.21
841.671	20.82
841.847	-87.72
842.023	-77.48
842.199	96.6
842.375	78.16
842.551	-61.1
842.727	16.73
842.903	135.51
843.079	-118.44
843.255	96.6
843.431	-38.57
843.607	104.79
843.783	-100.01
843.959	145.75
844.134	33.11
844.31	100.69
844.486	-44.71
844.662	-5.8
844.838	26.96
845.013	53.59
845.189	96.6
845.365	-38.57
845.541	29.01
845.716	18.77
845.892	72.02
846.068	-26.28
846.244	-44.71
846.419	20.82
846.595	-50.86
846.77	-16.04
846.946	53.59
847.122	-34.47
847.297	-52.91
847.473	106.84
847.648	-69.29
847.824	-1.71
847.999	-69.29
848.175	67.92
848.35	37.2
848.526	57.68
848.701	106.84
848.876	153.94
849.052	102.74
849.227	-9.9
849.403	39.25
849.578	-3.75
849.753	74.07
849.929	45.4
850.104	-44.71
850.279	33.11
850.454	-46.76
850.63	153.94
850.805	31.06
850.98	74.07
851.155	-52.91
851.33	90.45
851.505	-18.09
851.681	106.84
851.856	-20.14
852.031	35.16
852.206	49.49
852.381	-83.63
852.556	-106.15
852.731	102.74
852.906	125.27
853.081	59.73
853.256	43.35
853.431	26.96
853.606	8.53
853.781	-42.67
853.956	-85.67
854.131	57.68
854.305	-104.11
854.48	-20.14
854.655	-87.72
854.83	12.63
855.005	-5.8
855.18	16.73
855.354	20.82
855.529	-7.85
855.704	-18.09
855.879	74.07
856.053	-1.71
856.228	20.82
856.403	-1.71
856.577	24.92
856.752	-128.68
856.926	6.49
857.101	-1.71
857.276	-89.77
857.45	63.83
857.625	26.96
857.799	127.32
857.974	92.5
858.148	-95.91
858.323	43.35
858.497	10.58
858.672	-28.33
858.846	-77.48
859.02	35.16
859.195	18.77
859.369	14.68
859.543	8.53
859.718	20.82
859.892	61.78
860.066	-81.58
860.241	-89.77
860.415	-93.87
860.589	0.34
860.763	31.06
860.938	-1.71
861.112	78.16
861.286	8.53
861.46	26.96
861.634	33.11
861.808	129.36
861.982	-73.39
862.157	-26.28
862.331	-16.04
862.505	-77.48
862.679	-100.01
862.853	-13.99
863.027	-46.76
863.201	133.46
863.375	-7.85
863.549	45.4
863.722	14.68
863.896	104.79
864.07	14.68
864.244	-28.33
864.418	102.74
864.592	18.77
864.766	31.06
864.939	-11.95
865.113	6.49
865.287	121.17
865.461	-28.33
865.634	20.82
865.808	-24.23
865.982	-73.39
866.156	-1.71
866.329	-67.24
866.503	-22.19
866.676	98.64
866.85	18.77
867.024	-18.09
867.197	-20.14
867.371	2.39
867.544	2.39
867.718	-67.24
867.891	186.71
868.065	-65.19
868.238	-24.23
868.412	176.47
868.585	74.07
868.759	-18.09
868.932	-1.71
869.105	37.2
869.279	35.16
869.452	-42.67
869.625	49.49
869.799	-93.87
869.972	-52.91
870.145	-13.99
870.319	96.6
870.492	26.96
870.665	14.68
870.838	-40.62
871.011	-32.43
871.185	-89.77
871.358	-116.39
871.531	49.49
871.704	-48.81
871.877	-24.23
872.05	-38.57
872.223	-44.71
872.396	78.16
872.569	53.59
872.742	-81.58
872.915	12.63
873.088	-22.19
873.261	-110.25
873.434	74.07
873.607	-71.34
873.78	84.31
873.953	-71.34
874.126	-18.09
874.299	-16.04
874.471	63.83
874.644	31.06
874.817	108.88
874.99	170.32
875.163	-63.15
875.335	26.96
875.508	-18.09
875.681	112.98
875.853	14.68
876.026	24.92
876.199	0.34
876.371	-20.14
876.544	-30.38
876.717	-34.47
876.889	-16.04
877.062	51.54
877.234	-120.49
877.407	-32.43
877.579	57.68
877.752	8.53
877.924	57.68
878.097	26.96
878.269	-13.99
878.442	8.53
878.614	41.3
878.786	24.92
878.959	-38.57
879.131	61.78
879.303	-145.06
879.476	4.44
879.648	65.88
879.82	49.49
879.993	-9.9
880.165	-34.47
880.337	-75.43
880.509	-11.95
880.681	-71.34
880.854	10.58
881.026	74.07
881.198	74.07
881.37	0.34
881.542	43.35
881.714	20.82
881.886	-26.28
882.058	-5.8
882.23	-50.86
882.402	-9.9
882.574	-9.9
882.746	72.02
882.918	88.4
883.09	-67.24
883.262	4.44
883.434	14.68
883.606	-97.96
883.778	-36.52
883.95	133.46
884.122	-54.95
884.293	96.6
884.465	12.63
884.637	117.08
884.809	-61.1
884.98	33.11
885.152	18.77
885.324	51.54
885.496	-61.1
885.667	33.11
885.839	-32.43
886.011	63.83
886.182	57.68
886.354	69.97
886.525	37.2
886.697	82.26
886.869	-65.19
887.04	-40.62
887.212	94.55
887.383	164.18
887.555	72.02
887.726	-71.34
887.897	20.82
888.069	69.97
888.24	14.68
888.412	-7.85
888.583	-3.75
888.754	35.16
888.926	-138.92
889.097	-48.81
889.268	-112.3
889.44	14.68
889.611	-93.87
889.782	-114.34
889.953	10.58
890.125	108.88
890.296	-28.33
890.467	-7.85
890.638	0.34
890.809	37.2
890.98	-1.71
891.151	47.44
891.323	82.26
891.494	-16.04
891.665	6.49
891.836	-22.19
892.007	8.53
892.178	41.3
892.349	-13.99
892.52	-48.81
892.691	12.63
892.862	29.01
893.032	-81.58
893.203	-38.57
893.374	59.73
893.545	53.59
893.716	-63.15
893.887	72.02
894.057	-46.76
894.228	22.87
894.399	-59.05
894.57	33.11
894.74	47.44
894.911	14.68
895.082	-16.04
895.253	-48.81
895.423	24.92
895.594	0.34
895.764	78.16
895.935	-44.71
896.106	51.54
896.276	-9.9
896.447	-42.67
896.617	-32.43
896.788	-67.24
896.958	33.11
897.129	-100.01
897.299	-48.81
897.47	88.4
897.64	82.26
897.81	43.35
897.981	39.25
898.151	-16.04
898.322	-34.47
898.492	33.11
898.662	-44.71
898.832	-5.8
899.003	-71.34
899.173	2.39
899.343	-73.39
899.513	0.34
