Data from USB4F104151__84__10-34-23-035.txt Node

Date: Wed Feb 26 10:34:23 EST 2025
User: louis
Spectrometer: USB4F10415
Trigger mode: 4
Integration Time (sec): 1.000000E-1
Scans to average: 1
Electric dark correction enabled: true
Nonlinearity correction enabled: false
Boxcar width: 0
XAxis mode: Wavelengths
Number of Pixels in Spectrum: 3648
>>>>>Begin Spectral Data<<<<<
178.204	-357.71
178.424	-357.71
178.644	-357.71
178.864	-402.77
179.084	-363.86
179.304	-11.61
179.524	-62.8
179.744	-27.99
179.964	121.51
180.184	37.55
180.404	-17.75
180.624	8.87
180.844	-19.8
181.064	-25.94
181.283	-48.47
181.503	8.87
181.723	37.55
181.943	-111.96
182.163	154.28
182.383	-5.46
182.602	66.22
182.822	129.7
183.042	8.87
183.262	-85.33
183.482	-23.89
183.701	74.41
183.921	39.59
184.141	-42.32
184.361	80.55
184.58	70.31
184.8	78.51
185.02	-30.04
185.239	29.35
185.459	66.22
185.679	125.61
185.898	-73.04
186.118	62.12
186.338	4.78
186.557	135.85
186.777	-7.51
186.997	-56.66
187.216	51.88
187.436	191.14
187.655	55.98
187.875	58.03
188.095	-19.8
188.314	47.79
188.534	133.8
188.753	-17.75
188.973	23.21
189.192	162.47
189.412	2.73
189.631	39.59
189.851	78.51
190.07	174.76
190.29	-42.32
190.509	-13.65
190.729	-9.56
190.948	117.42
191.168	182.95
191.387	-7.51
191.607	84.65
191.826	-1.37
192.045	33.45
192.265	55.98
192.484	41.64
192.704	27.31
192.923	-25.94
193.142	135.85
193.362	137.9
193.581	207.53
193.8	70.31
194.02	80.55
194.239	-5.46
194.458	113.32
194.678	6.83
194.897	-54.61
195.116	53.93
195.335	127.66
195.555	55.98
195.774	-97.62
195.993	49.83
196.212	-15.7
196.432	23.21
196.651	-68.95
196.87	2.73
197.089	176.81
197.308	103.08
197.528	82.6
197.747	-15.7
197.966	37.55
198.185	133.8
198.404	-36.18
198.623	119.46
198.842	68.27
199.062	84.65
199.281	135.85
199.5	15.02
199.719	125.61
199.938	49.83
200.157	131.75
200.376	92.84
200.595	113.32
200.814	41.64
201.033	-101.72
201.252	94.89
201.471	64.17
201.69	29.35
201.909	45.74
202.128	47.79
202.347	101.03
202.566	25.26
202.785	-62.8
203.004	-17.75
203.223	271.01
203.442	-32.08
203.661	-48.47
203.879	21.16
204.098	137.9
204.317	51.88
204.536	146.09
204.755	88.75
204.974	70.31
205.193	60.07
205.411	98.99
205.63	47.79
205.849	39.59
206.068	-3.41
206.287	41.64
206.505	92.84
206.724	17.07
206.943	-27.99
207.162	-40.28
207.381	49.83
207.599	21.16
207.818	74.41
208.037	-54.61
208.255	6.83
208.474	2.73
208.693	33.45
208.911	29.35
209.13	35.5
209.349	70.31
209.567	117.42
209.786	101.03
210.005	70.31
210.223	60.07
210.442	-144.72
210.661	-58.71
210.879	66.22
211.098	-11.61
211.316	121.51
211.535	96.94
211.753	35.5
211.972	-54.61
212.191	-91.48
212.409	-3.41
212.628	129.7
212.846	15.02
213.065	-7.51
213.283	123.56
213.502	39.59
213.72	25.26
213.938	-42.32
214.157	-30.04
214.375	148.14
214.594	-27.99
214.812	31.4
215.031	68.27
215.249	82.6
215.467	62.12
215.686	23.21
215.904	29.35
216.122	27.31
216.341	129.7
216.559	6.83
216.778	88.75
216.996	80.55
217.214	43.69
217.432	-3.41
217.651	-114
217.869	84.65
218.087	12.97
218.306	-19.8
218.524	111.27
218.742	-1.37
218.96	82.6
219.179	-44.37
219.397	2.73
219.615	119.46
219.833	74.41
220.051	-50.52
220.27	156.33
220.488	45.74
220.706	78.51
220.924	-48.47
221.142	-13.65
221.36	152.23
221.578	-1.37
221.796	-3.41
222.015	51.88
222.233	68.27
222.451	121.51
222.669	-11.61
222.887	86.7
223.105	-1.37
223.323	53.93
223.541	-11.61
223.759	146.09
223.977	31.4
224.195	152.23
224.413	131.75
224.631	107.18
224.849	55.98
225.067	148.14
225.285	-97.62
225.503	25.26
225.721	-50.52
225.939	-23.89
226.157	12.97
226.375	225.96
226.592	4.78
226.81	4.78
227.028	139.94
227.246	92.84
227.464	84.65
227.682	107.18
227.9	92.84
228.117	68.27
228.335	60.07
228.553	39.59
228.771	12.97
228.989	-36.18
229.206	31.4
229.424	23.21
229.642	-19.8
229.86	-60.76
230.077	111.27
230.295	-19.8
230.513	127.66
230.731	-9.56
230.948	211.62
231.166	164.52
231.384	-23.89
231.601	-105.81
231.819	242.34
232.037	-25.94
232.254	-1.37
232.472	66.22
232.689	45.74
232.907	170.66
233.125	-42.32
233.342	-32.08
233.56	86.7
233.777	4.78
233.995	25.26
234.213	80.55
234.43	43.69
234.648	21.16
234.865	-52.56
235.083	15.02
235.3	78.51
235.518	66.22
235.735	117.42
235.953	103.08
236.17	64.17
236.388	15.02
236.605	70.31
236.822	51.88
237.04	162.47
237.257	103.08
237.475	-48.47
237.692	25.26
237.909	86.7
238.127	76.46
238.344	86.7
238.562	2.73
238.779	-111.96
238.996	-107.86
239.214	47.79
239.431	45.74
239.648	-27.99
239.865	-64.85
240.083	76.46
240.3	-93.52
240.517	-40.28
240.735	101.03
240.952	80.55
241.169	90.79
241.386	109.23
241.603	41.64
241.821	-40.28
242.038	90.79
242.255	25.26
242.472	-21.84
242.689	66.22
242.907	125.61
243.124	78.51
243.341	41.64
243.558	-40.28
243.775	-95.57
243.992	-68.95
244.209	92.84
244.426	137.9
244.643	107.18
244.86	33.45
245.078	58.03
245.295	92.84
245.512	2.73
245.729	33.45
245.946	15.02
246.163	27.31
246.38	41.64
246.597	115.37
246.814	39.59
247.031	98.99
247.248	35.5
247.464	103.08
247.681	47.79
247.898	64.17
248.115	19.11
248.332	-122.2
248.549	121.51
248.766	199.34
248.983	62.12
249.2	205.48
249.417	-3.41
249.633	-1.37
249.85	60.07
250.067	-36.18
250.284	-13.65
250.501	78.51
250.717	115.37
250.934	-105.81
251.151	43.69
251.368	-50.52
251.585	74.41
251.801	76.46
252.018	-36.18
252.235	113.32
252.451	37.55
252.668	39.59
252.885	94.89
253.102	-1.37
253.318	2.73
253.535	-56.66
253.752	-7.51
253.968	70.31
254.185	-60.76
254.401	-5.46
254.618	98.99
254.835	58.03
255.051	78.51
255.268	82.6
255.484	19.11
255.701	-3.41
255.917	-5.46
256.134	-25.94
256.351	33.45
256.567	-128.34
256.784	39.59
257	-64.85
257.217	80.55
257.433	25.26
257.65	70.31
257.866	96.94
258.082	-60.76
258.299	-11.61
258.515	58.03
258.732	8.87
258.948	37.55
259.165	78.51
259.381	-23.89
259.597	86.7
259.814	98.99
260.03	-27.99
260.246	60.07
260.463	185
260.679	109.23
260.895	2.73
261.112	121.51
261.328	8.87
261.544	23.21
261.761	174.76
261.977	-124.24
262.193	-44.37
262.409	121.51
262.626	-9.56
262.842	37.55
263.058	-5.46
263.274	47.79
263.49	47.79
263.707	156.33
263.923	90.79
264.139	-85.33
264.355	74.41
264.571	66.22
264.787	98.99
265.004	109.23
265.22	47.79
265.436	-52.56
265.652	-21.84
265.868	23.21
266.084	-9.56
266.3	105.13
266.516	-101.72
266.732	6.83
266.948	64.17
267.164	-25.94
267.38	88.75
267.596	27.31
267.812	201.38
268.028	66.22
268.244	-27.99
268.46	39.59
268.676	53.93
268.892	27.31
269.108	-44.37
269.324	2.73
269.54	-44.37
269.756	80.55
269.972	-66.9
270.188	-15.7
270.403	4.78
270.619	62.12
270.835	64.17
271.051	60.07
271.267	8.87
271.483	-91.48
271.698	62.12
271.914	35.5
272.13	88.75
272.346	17.07
272.562	27.31
272.777	185
272.993	88.75
273.209	78.51
273.425	117.42
273.64	-66.9
273.856	105.13
274.072	-71
274.287	-36.18
274.503	41.64
274.719	80.55
274.934	19.11
275.15	-114
275.366	35.5
275.581	-27.99
275.797	74.41
276.012	60.07
276.228	-17.75
276.444	33.45
276.659	125.61
276.875	-30.04
277.09	-60.76
277.306	-3.41
277.521	111.27
277.737	29.35
277.952	76.46
278.168	70.31
278.383	17.07
278.599	60.07
278.814	-9.56
279.03	-5.46
279.245	101.03
279.461	2.73
279.676	53.93
279.892	-52.56
280.107	-5.46
280.322	-15.7
280.538	58.03
280.753	-68.95
280.969	19.11
281.184	27.31
281.399	127.66
281.615	76.46
281.83	-48.47
282.045	-42.32
282.26	-93.52
282.476	111.27
282.691	154.28
282.906	35.5
283.122	-11.61
283.337	39.59
283.552	80.55
283.767	-30.04
283.983	98.99
284.198	29.35
284.413	39.59
284.628	-142.68
284.843	-7.51
285.058	64.17
285.274	19.11
285.489	-19.8
285.704	35.5
285.919	-3.41
286.134	62.12
286.349	23.21
286.564	-32.08
286.779	109.23
286.995	39.59
287.21	-60.76
287.425	68.27
287.64	-15.7
287.855	19.11
288.07	-21.84
288.285	80.55
288.5	109.23
288.715	39.59
288.93	6.83
289.145	-64.85
289.36	41.64
289.575	4.78
289.79	125.61
290.004	-34.13
290.219	115.37
290.434	-79.19
290.649	-32.08
290.864	-32.08
291.079	-40.28
291.294	49.83
291.509	43.69
291.724	35.5
291.938	84.65
292.153	66.22
292.368	33.45
292.583	152.23
292.798	2.73
293.012	66.22
293.227	96.94
293.442	0.68
293.657	78.51
293.871	189.1
294.086	66.22
294.301	182.95
294.516	41.64
294.73	43.69
294.945	-40.28
295.16	45.74
295.374	139.94
295.589	49.83
295.804	-44.37
296.018	53.93
296.233	58.03
296.447	70.31
296.662	-42.32
296.877	127.66
297.091	47.79
297.306	29.35
297.52	-64.85
297.735	64.17
297.949	90.79
298.164	88.75
298.378	94.89
298.593	-36.18
298.807	6.83
299.022	-9.56
299.236	113.32
299.451	60.07
299.665	158.38
299.88	-5.46
300.094	-15.7
300.309	49.83
300.523	25.26
300.737	88.75
300.952	115.37
301.166	45.74
301.381	31.4
301.595	-21.84
301.809	84.65
302.024	86.7
302.238	-48.47
302.452	94.89
302.667	-23.89
302.881	129.7
303.095	148.14
303.309	23.21
303.524	31.4
303.738	-34.13
303.952	-17.75
304.166	80.55
304.381	-93.52
304.595	123.56
304.809	19.11
305.023	-3.41
305.237	-66.9
305.452	-17.75
305.666	47.79
305.88	45.74
306.094	144.04
306.308	121.51
306.522	29.35
306.736	37.55
306.95	88.75
307.164	33.45
307.379	0.68
307.593	139.94
307.807	68.27
308.021	92.84
308.235	90.79
308.449	-120.15
308.663	27.31
308.877	211.62
309.091	15.02
309.305	58.03
309.519	-36.18
309.733	72.36
309.947	-79.19
310.161	92.84
310.374	88.75
310.588	115.37
310.802	-48.47
311.016	25.26
311.23	-19.8
311.444	-3.41
311.658	8.87
311.872	105.13
312.085	115.37
312.299	68.27
312.513	164.52
312.727	98.99
312.941	2.73
313.154	47.79
313.368	41.64
313.582	90.79
313.796	17.07
314.009	-56.66
314.223	103.08
314.437	55.98
314.651	-27.99
314.864	-46.42
315.078	35.5
315.292	-44.37
315.505	-46.42
315.719	49.83
315.933	64.17
316.146	-32.08
316.36	-9.56
316.573	219.82
316.787	170.66
317.001	82.6
317.214	-87.38
317.428	68.27
317.641	4.78
317.855	41.64
318.068	55.98
318.282	74.41
318.495	176.81
318.709	53.93
318.922	15.02
319.136	141.99
319.349	94.89
319.563	-36.18
319.776	-1.37
319.99	-95.57
320.203	70.31
320.417	58.03
320.63	47.79
320.843	219.82
321.057	66.22
321.27	37.55
321.483	156.33
321.697	98.99
321.91	121.51
322.124	-7.51
322.337	94.89
322.55	-30.04
322.763	-32.08
322.977	8.87
323.19	-73.04
323.403	37.55
323.617	78.51
323.83	96.94
324.043	80.55
324.256	58.03
324.469	-87.38
324.683	113.32
324.896	55.98
325.109	0.68
325.322	-32.08
325.535	94.89
325.748	125.61
325.962	-11.61
326.175	80.55
326.388	58.03
326.601	123.56
326.814	35.5
327.027	25.26
327.24	156.33
327.453	-77.14
327.666	78.51
327.879	80.55
328.092	45.74
328.305	6.83
328.518	-32.08
328.731	0.68
328.944	6.83
329.157	55.98
329.37	29.35
329.583	154.28
329.796	144.04
330.009	-85.33
330.222	96.94
330.435	103.08
330.648	29.35
330.861	47.79
331.073	21.16
331.286	51.88
331.499	55.98
331.712	-5.46
331.925	31.4
332.138	2.73
332.35	70.31
332.563	-5.46
332.776	105.13
332.989	-48.47
333.202	-44.37
333.414	-11.61
333.627	-54.61
333.84	92.84
334.053	62.12
334.265	43.69
334.478	66.22
334.691	23.21
334.903	35.5
335.116	0.68
335.329	72.36
335.541	25.26
335.754	141.99
335.966	27.31
336.179	-13.65
336.392	76.46
336.604	-27.99
336.817	31.4
337.029	82.6
337.242	68.27
337.454	25.26
337.667	107.18
337.88	156.33
338.092	68.27
338.305	15.02
338.517	-13.65
338.729	76.46
338.942	191.14
339.154	43.69
339.367	-15.7
339.579	39.59
339.792	-32.08
340.004	119.46
340.217	12.97
340.429	12.97
340.641	2.73
340.854	-7.51
341.066	21.16
341.278	166.57
341.491	144.04
341.703	60.07
341.915	-62.8
342.128	-40.28
342.34	35.5
342.552	12.97
342.764	68.27
342.977	-56.66
343.189	68.27
343.401	66.22
343.613	-44.37
343.826	84.65
344.038	-27.99
344.25	29.35
344.462	-1.37
344.674	88.75
344.886	68.27
345.099	19.11
345.311	33.45
345.523	-15.7
345.735	-56.66
345.947	72.36
346.159	94.89
346.371	-15.7
346.583	-11.61
346.795	185
347.007	37.55
347.219	-3.41
347.431	17.07
347.643	109.23
347.855	-77.14
348.067	96.94
348.279	-68.95
348.491	19.11
348.703	117.42
348.915	68.27
349.127	29.35
349.339	31.4
349.551	-52.56
349.763	123.56
349.975	86.7
350.187	129.7
350.399	158.38
350.61	49.83
350.822	-7.51
351.034	86.7
351.246	53.93
351.458	84.65
351.669	23.21
351.881	47.79
352.093	119.46
352.305	8.87
352.517	129.7
352.728	84.65
352.94	107.18
353.152	21.16
353.363	-17.75
353.575	84.65
353.787	82.6
353.999	125.61
354.21	221.86
354.422	-17.75
354.633	0.68
354.845	96.94
355.057	-3.41
355.268	72.36
355.48	78.51
355.692	-91.48
355.903	8.87
356.115	-44.37
356.326	-103.76
356.538	103.08
356.749	121.51
356.961	148.14
357.172	12.97
357.384	-75.09
357.595	209.58
357.807	66.22
358.018	43.69
358.23	35.5
358.441	74.41
358.653	55.98
358.864	78.51
359.075	17.07
359.287	115.37
359.498	88.75
359.709	41.64
359.921	-5.46
360.132	41.64
360.344	-64.85
360.555	84.65
360.766	-23.89
360.977	10.92
361.189	111.27
361.4	23.21
361.611	121.51
361.823	78.51
362.034	10.92
362.245	-52.56
362.456	29.35
362.667	19.11
362.879	33.45
363.09	64.17
363.301	109.23
363.512	58.03
363.723	-40.28
363.935	45.74
364.146	103.08
364.357	51.88
364.568	35.5
364.779	-32.08
364.99	109.23
365.201	-48.47
365.412	139.94
365.623	-120.15
365.834	68.27
366.045	90.79
366.256	139.94
366.467	76.46
366.678	25.26
366.889	-75.09
367.1	-3.41
367.311	125.61
367.522	-93.52
367.733	88.75
367.944	105.13
368.155	60.07
368.366	96.94
368.577	-30.04
368.788	141.99
368.999	-68.95
369.209	-17.75
369.42	148.14
369.631	152.23
369.842	60.07
370.053	-19.8
370.264	105.13
370.474	-79.19
370.685	121.51
370.896	17.07
371.107	60.07
371.317	88.75
371.528	-7.51
371.739	98.99
371.95	47.79
372.16	94.89
372.371	-17.75
372.582	45.74
372.792	60.07
373.003	64.17
373.214	10.92
373.424	115.37
373.635	-32.08
373.846	90.79
374.056	-44.37
374.267	51.88
374.477	55.98
374.688	-52.56
374.898	129.7
375.109	74.41
375.319	53.93
375.53	105.13
375.74	53.93
375.951	-62.8
376.161	88.75
376.372	111.27
376.582	-23.89
376.793	78.51
377.003	-32.08
377.214	-60.76
377.424	96.94
377.635	21.16
377.845	-27.99
378.055	103.08
378.266	-87.38
378.476	76.46
378.686	76.46
378.897	55.98
379.107	141.99
379.317	76.46
379.528	39.59
379.738	154.28
379.948	-93.52
380.158	80.55
380.369	51.88
380.579	23.21
380.789	8.87
380.999	176.81
381.21	115.37
381.42	144.04
381.63	-21.84
381.84	-3.41
382.05	74.41
382.261	103.08
382.471	82.6
382.681	-1.37
382.891	139.94
383.101	90.79
383.311	29.35
383.521	17.07
383.731	133.8
383.941	160.42
384.151	2.73
384.361	12.97
384.571	109.23
384.781	17.07
384.991	191.14
385.201	139.94
385.411	49.83
385.621	45.74
385.831	74.41
386.041	-48.47
386.251	92.84
386.461	162.47
386.671	4.78
386.881	41.64
387.091	-27.99
387.301	51.88
387.511	8.87
387.72	15.02
387.93	84.65
388.14	-62.8
388.35	72.36
388.56	199.34
388.769	144.04
388.979	-36.18
389.189	6.83
389.399	74.41
389.609	129.7
389.818	80.55
390.028	19.11
390.238	82.6
390.447	35.5
390.657	86.7
390.867	29.35
391.076	-77.14
391.286	127.66
391.496	78.51
391.705	19.11
391.915	121.51
392.125	141.99
392.334	15.02
392.544	182.95
392.753	15.02
392.963	-62.8
393.172	-3.41
393.382	25.26
393.591	148.14
393.801	39.59
394.01	139.94
394.22	88.75
394.429	33.45
394.639	72.36
394.848	82.6
395.058	10.92
395.267	-52.56
395.477	96.94
395.686	45.74
395.895	189.1
396.105	178.86
396.314	74.41
396.524	29.35
396.733	47.79
396.942	148.14
397.152	37.55
397.361	21.16
397.57	113.32
397.78	2.73
397.989	107.18
398.198	225.96
398.407	47.79
398.617	41.64
398.826	17.07
399.035	39.59
399.244	82.6
399.453	12.97
399.663	21.16
399.872	92.84
400.081	15.02
400.29	92.84
400.499	-62.8
400.708	154.28
400.917	10.92
401.127	43.69
401.336	-21.84
401.545	146.09
401.754	107.18
401.963	72.36
402.172	-56.66
402.381	-17.75
402.59	-27.99
402.799	62.12
403.008	98.99
403.217	103.08
403.426	78.51
403.635	-75.09
403.844	-5.46
404.053	-30.04
404.262	88.75
404.471	170.66
404.68	68.27
404.888	-40.28
405.097	31.4
405.306	47.79
405.515	60.07
405.724	84.65
405.933	66.22
406.142	78.51
406.35	72.36
406.559	19.11
406.768	55.98
406.977	139.94
407.185	53.93
407.394	133.8
407.603	92.84
407.812	49.83
408.02	86.7
408.229	43.69
408.438	23.21
408.646	-81.24
408.855	41.64
409.064	45.74
409.272	39.59
409.481	35.5
409.69	25.26
409.898	-66.9
410.107	31.4
410.315	98.99
410.524	-52.56
410.733	70.31
410.941	64.17
411.15	117.42
411.358	78.51
411.567	144.04
411.775	-19.8
411.984	37.55
412.192	66.22
412.401	49.83
412.609	180.9
412.818	90.79
413.026	25.26
413.234	72.36
413.443	19.11
413.651	19.11
413.86	154.28
414.068	144.04
414.276	199.34
414.485	-17.75
414.693	211.62
414.901	189.1
415.11	8.87
415.318	21.16
415.526	90.79
415.734	2.73
415.943	78.51
416.151	117.42
416.359	0.68
416.567	101.03
416.776	58.03
416.984	92.84
417.192	131.75
417.4	-11.61
417.608	-11.61
417.817	-38.23
418.025	121.51
418.233	176.81
418.441	-11.61
418.649	-11.61
418.857	53.93
419.065	125.61
419.273	45.74
419.481	6.83
419.689	39.59
419.897	-9.56
420.105	-42.32
420.313	148.14
420.521	107.18
420.729	135.85
420.937	-23.89
421.145	-21.84
421.353	135.85
421.561	172.71
421.769	45.74
421.977	49.83
422.185	131.75
422.393	-30.04
422.601	105.13
422.809	68.27
423.017	23.21
423.224	62.12
423.432	45.74
423.64	37.55
423.848	121.51
424.056	-17.75
424.263	96.94
424.471	29.35
424.679	107.18
424.887	-9.56
425.094	109.23
425.302	29.35
425.51	66.22
425.718	127.66
425.925	64.17
426.133	19.11
426.341	209.58
426.548	60.07
426.756	4.78
426.964	76.46
427.171	0.68
427.379	86.7
427.586	148.14
427.794	66.22
428.001	70.31
428.209	19.11
428.417	105.13
428.624	109.23
428.832	150.18
429.039	111.27
429.247	55.98
429.454	86.7
429.662	250.53
429.869	49.83
430.076	33.45
430.284	82.6
430.491	185
430.699	141.99
430.906	211.62
431.114	185
431.321	180.9
431.528	88.75
431.736	117.42
431.943	189.1
432.15	156.33
432.358	182.95
432.565	250.53
432.772	4.78
432.979	133.8
433.187	53.93
433.394	203.43
433.601	127.66
433.808	197.29
434.016	199.34
434.223	234.15
434.43	158.38
434.637	246.44
434.844	301.73
435.052	182.95
435.259	230.06
435.466	240.3
435.673	123.56
435.88	293.54
436.087	336.55
436.294	273.06
436.501	244.39
436.708	215.72
436.915	289.45
437.122	395.94
437.329	172.71
437.537	293.54
437.743	314.02
437.95	342.69
438.157	363.17
438.364	260.77
438.571	342.69
438.778	359.08
438.985	518.82
439.192	428.71
439.399	289.45
439.606	504.48
439.813	551.59
440.02	567.97
440.227	586.4
440.433	471.72
440.64	453.28
440.847	383.65
441.054	498.34
441.261	639.65
441.467	428.71
441.674	535.2
441.881	639.65
442.088	539.3
442.294	672.42
442.501	690.85
442.708	684.7
442.914	696.99
443.121	821.92
443.328	729.76
443.534	821.92
443.741	826.01
443.948	715.42
444.154	803.49
444.361	1012.38
444.568	981.66
444.774	912.03
444.981	893.6
445.187	1049.24
445.394	965.28
445.6	959.13
445.807	1090.2
446.013	1129.11
446.22	1006.24
446.426	1225.37
446.633	1327.77
446.839	1493.65
447.046	1284.76
447.252	1460.88
447.459	1356.44
447.665	1405.59
447.871	1610.39
448.078	1684.11
448.284	1684.11
448.491	1661.59
448.697	1852.05
448.903	1839.76
449.11	1936.01
449.316	1903.25
449.522	2126.47
449.728	2118.28
449.935	2204.3
450.141	2247.3
450.347	2280.07
450.553	2372.23
450.76	2425.48
450.966	2482.82
451.172	2634.37
451.378	2843.26
451.584	2699.91
451.791	3003
451.997	3095.16
452.203	3160.7
452.409	3275.38
452.615	3414.65
452.821	3261.05
453.027	3275.38
453.233	3893.87
453.44	3562.1
453.646	3834.48
453.852	4094.57
454.058	4100.72
454.264	4428.39
454.47	4688.48
454.676	4625
454.882	5010.01
455.088	4758.11
455.294	5003.87
455.5	5298.78
455.705	5780.05
455.911	5722.71
456.117	6011.47
456.323	5980.75
456.529	6066.77
456.735	6783.56
456.941	6730.31
457.147	7010.88
457.352	7275.07
457.558	7545.4
457.764	7785.01
457.97	8108.59
458.176	8534.57
458.381	8919.59
458.587	9191.97
458.793	9480.73
458.999	9249.31
459.204	10773
459.41	10906.12
459.616	10955.27
459.821	11485.69
460.027	12032.5
460.233	12691.94
460.438	12650.99
460.644	13527.52
460.85	13562.33
461.055	13920.73
461.261	14913.99
461.466	14252.5
461.672	14516.69
461.878	16286.13
462.083	16251.31
462.289	16480.69
462.494	17564.06
462.7	17349.03
462.905	17525.15
463.111	18919.82
463.316	19833.21
463.522	20423.03
463.727	20709.74
463.932	21649.76
464.138	22301.01
464.343	23619.91
464.549	23107.91
464.754	25323.82
464.959	25876.77
465.165	26253.59
465.37	26065.18
465.575	25850.14
465.781	27820.29
465.986	29036.78
466.191	28125.44
466.397	28354.81
466.602	27676.93
466.807	29524.2
467.012	29726.95
467.218	30236.89
467.423	30591.19
467.628	31484.11
467.833	32673.98
468.038	32315.58
468.244	31746.25
468.449	33257.65
468.654	32858.29
468.859	32475.32
469.064	32409.79
469.269	31715.53
469.474	32172.22
469.679	33233.07
469.885	31987.91
470.09	32420.03
470.295	32991.41
470.5	31860.93
470.705	32041.15
470.91	31070.42
471.115	30879.96
471.32	31594.7
471.525	31281.36
471.73	30539.99
471.935	29810.92
472.139	29233.39
472.344	28739.83
472.549	28829.94
472.754	28477.69
472.959	27488.52
473.164	27191.56
473.369	26597.65
473.574	27060.49
473.778	26216.73
473.983	26106.14
474.188	25637.16
474.393	24355.13
474.598	24205.63
474.802	23613.76
475.007	23529.8
475.212	23499.08
475.417	22217.05
475.621	22358.36
475.826	21875.04
476.031	21463.4
476.235	20992.36
476.44	21037.42
476.645	20455.79
476.849	20334.96
477.054	19755.39
477.259	19239.3
477.463	19347.84
477.668	18786.7
477.872	18590.1
478.077	18297.24
478.282	17967.51
478.486	17936.79
478.691	17680.8
478.895	17195.43
479.1	17195.43
479.304	16959.91
479.509	16505.26
479.713	16798.12
479.918	16421.3
480.122	15905.21
480.326	16255.41
480.531	16091.57
480.735	15849.91
480.94	15647.16
481.144	15933.88
481.348	15190.47
481.553	15299.01
481.757	14807.5
481.961	15157.7
482.166	15239.62
482.37	15178.18
482.574	14555.6
482.778	14559.69
482.983	14807.5
483.187	14586.32
483.391	14475.73
483.595	14041.56
483.8	14031.32
484.004	14285.26
484.208	13996.5
484.412	13740.51
484.616	13681.11
484.821	13496.8
485.025	13304.29
485.229	13146.59
485.433	12935.65
485.637	12605.93
485.841	12677.61
486.045	12554.73
486.249	12507.63
486.453	12118.51
486.657	11874.81
486.861	11731.45
487.065	11608.57
487.269	11549.18
487.473	11180.54
487.677	11203.07
487.881	11276.8
488.085	10832.39
488.289	10664.46
488.493	10400.27
488.697	10310.16
488.901	10138.13
489.105	9763.35
489.309	9626.14
489.512	9605.66
489.716	9511.45
489.92	9165.34
490.124	9153.06
490.328	9021.99
490.531	8655.4
490.735	8596.01
490.939	8378.92
491.143	8225.33
491.346	8276.52
491.55	8233.52
491.754	8026.67
491.958	8014.38
492.161	7719.48
492.365	7633.46
492.569	7369.27
492.772	7432.76
492.976	7324.22
493.18	7203.39
493.383	7184.96
493.587	7072.32
493.79	7119.42
493.994	6679.11
494.197	6752.84
494.401	6720.07
494.605	6494.79
494.808	6632.01
495.012	6613.57
495.215	6545.99
495.419	6515.27
495.622	6451.78
495.825	6257.23
496.029	6308.43
496.232	6263.37
496.436	6361.67
496.639	6400.59
496.843	6128.21
497.046	6361.67
497.249	6453.83
497.453	6294.09
497.656	6363.72
497.859	6265.42
498.063	6392.39
498.266	6312.52
498.469	6167.12
498.673	6376.01
498.876	6394.44
499.079	6353.48
499.282	6279.75
499.485	6695.49
499.689	6472.26
499.892	6638.15
500.095	6382.15
500.298	6515.27
500.501	6378.06
500.705	6787.65
500.908	6890.05
501.111	6754.88
501.314	6793.79
501.517	6842.95
501.72	6969.92
501.923	7219.77
502.126	7121.47
502.329	7365.18
502.532	7328.31
502.735	7469.62
502.938	7547.45
503.141	7578.17
503.344	7662.13
503.547	7748.15
503.75	7832.12
503.953	7897.65
504.156	8129.07
504.359	8251.95
504.562	8227.37
504.765	8401.45
504.968	8507.94
505.17	8765.99
505.373	8806.95
505.576	8993.31
505.779	8886.82
505.982	9071.14
506.185	9622.04
506.387	9599.51
506.59	9607.7
506.793	9894.42
506.996	9896.47
507.198	10226.19
507.401	10469.9
507.604	10691.08
507.807	10824.2
508.009	11155.97
508.212	11280.89
508.415	11346.43
508.617	11790.84
508.82	11868.66
509.022	11993.59
509.225	12515.82
509.428	12675.56
509.63	13056.48
509.833	12872.17
510.035	13519.32
510.238	13822.42
510.44	13963.73
510.643	14494.16
510.845	14780.87
511.048	14967.24
511.25	15313.35
511.453	15505.85
511.655	16112.05
511.858	16236.98
512.06	16867.75
512.262	17011.11
512.465	17271.2
512.667	17856.92
512.87	18141.59
513.072	18686.35
513.274	19071.37
513.477	19310.98
513.679	19671.42
513.881	20320.63
514.084	20597.1
514.286	21223.78
514.488	21719.39
514.69	22348.12
514.893	22786.38
515.095	22997.32
515.297	23482.69
515.499	24006.97
515.701	24729.91
515.904	25360.68
516.106	25755.94
516.308	26372.38
516.51	26738.96
516.712	26714.39
516.914	27660.55
517.116	28522.74
517.318	28877.04
517.52	28967.15
517.722	29786.34
517.925	30451.93
518.127	31021.27
518.329	31899.84
518.531	31713.48
518.733	32651.45
518.935	33108.15
519.136	33476.78
519.338	34250.91
519.54	34613.4
519.742	35625.1
519.944	35502.22
520.146	36671.61
520.348	37064.82
520.55	37273.71
520.752	37685.36
520.954	38250.6
521.155	38277.22
521.357	39123.03
521.559	39594.06
521.761	40687.68
521.963	40147.01
522.164	40851.52
522.366	40730.69
522.568	41426.99
522.77	41846.83
522.971	42319.91
523.173	42446.88
523.375	42684.45
523.576	42555.43
523.778	42739.74
523.98	43690
524.181	43649.04
524.383	43632.66
524.584	44345.35
524.786	44068.87
524.988	43608.08
525.189	44062.73
525.391	44240.9
525.592	44351.49
525.794	44810.24
525.995	44611.59
526.197	44158.98
526.398	44867.58
526.6	44435.46
526.801	44320.77
527.003	43943.95
527.204	44103.69
527.406	43751.44
527.607	43585.55
527.808	44066.83
528.01	42987.55
528.211	42831.9
528.412	43509.78
528.614	43159.58
528.815	42477.6
529.016	42530.85
529.218	41644.08
529.419	41726
529.62	41359.41
529.822	40523.84
530.023	40605.76
530.224	39954.5
530.425	39772.24
530.626	39229.52
530.828	38867.03
531.029	39225.43
531.23	38008.93
531.431	37781.61
531.632	37697.64
531.833	37193.84
532.035	36894.84
532.236	36450.43
532.437	35750.03
532.638	35319.95
532.839	35432.59
533.04	34627.74
533.241	34136.23
533.442	34248.86
533.643	33634.47
533.844	32678.07
534.045	32544.95
534.246	31740.1
534.447	31664.33
534.648	31279.31
534.849	31000.79
535.05	30320.86
535.251	29763.81
535.451	29247.72
535.652	29235.44
535.853	28442.87
536.054	28297.47
536.255	28219.64
536.456	27308.3
536.657	27255.05
536.857	26812.69
537.058	26495.25
537.259	25923.87
537.46	25727.27
537.66	25446.69
537.861	25243.95
538.062	24834.35
538.263	24619.31
538.463	24283.45
538.664	24015.16
538.865	23437.64
539.065	23451.97
539.266	22925.64
539.466	22829.39
539.667	22182.23
539.868	22415.7
540.068	21692.77
540.269	21713.25
540.469	21602.66
540.67	21184.87
540.87	20961.64
541.071	20732.27
541.271	20646.26
541.472	20558.19
541.672	20003.19
541.873	19593.6
542.073	19188.1
542.274	19388.8
542.474	19118.47
542.675	18631.05
542.875	18856.33
543.075	18215.32
543.276	17951.13
543.476	18018.71
543.676	17756.57
543.877	17674.65
544.077	17557.92
544.277	17316.26
544.478	16732.59
544.678	16912.81
544.878	16740.78
545.078	16484.78
545.279	16253.36
545.479	15894.97
545.679	15663.55
545.879	15741.37
546.079	15833.53
546.28	15165.89
546.48	15165.89
546.68	15196.61
546.88	14959.05
547.08	14727.63
547.28	14653.9
547.48	14066.13
547.68	14162.39
547.88	13781.46
548.081	13890.01
548.281	13619.67
548.481	13439.45
548.681	13283.81
548.881	13023.72
549.081	12956.13
549.28	12702.18
549.48	12630.51
549.68	12339.69
549.88	12341.74
550.08	12003.83
550.28	11921.91
550.48	11731.45
550.68	11657.72
550.88	11338.24
551.08	11354.62
551.279	11201.02
551.479	11147.78
551.679	10977.8
551.879	10531.34
552.079	10674.7
552.278	10160.66
552.478	10525.19
552.678	9992.72
552.878	9919
553.077	9738.77
553.277	9781.78
553.477	9587.22
553.676	9366.04
553.876	9175.58
554.076	9099.81
554.275	8919.59
554.475	8630.82
554.674	8745.51
554.874	8524.33
555.074	8260.14
555.273	8340.01
555.473	8104.49
555.672	8043.06
555.872	7701.05
556.071	7793.2
556.271	7903.79
556.47	7399.99
556.67	7189.05
556.869	7227.96
557.068	7305.79
557.268	7004.74
557.467	6875.71
557.667	6541.89
557.866	6703.68
558.065	6359.63
558.265	6507.08
558.464	6298.19
558.663	6373.96
558.863	6091.34
559.062	6107.73
559.261	5884.5
559.461	5880.4
559.66	5636.69
559.859	5679.7
560.058	5558.87
560.258	5386.84
560.457	5358.17
560.656	5290.59
560.855	4883.04
561.054	5349.98
561.253	5128.8
561.453	5182.04
561.652	5026.4
561.851	4825.7
562.05	4729.44
562.249	4620.9
562.448	4575.84
562.647	4457.06
562.846	4495.97
563.045	4438.63
563.244	4426.34
563.443	4305.51
563.642	4127.34
563.841	4121.2
564.04	4061.8
564.239	4002.41
564.438	3740.27
564.637	3826.29
564.836	3752.56
565.035	3785.33
565.234	3594.87
565.432	3639.92
565.631	3603.06
565.83	3613.3
566.029	3555.96
566.228	3478.13
566.427	3369.59
566.625	3326.58
566.824	3287.67
567.023	3371.64
567.222	3259
567.42	3181.18
567.619	2962.05
567.818	3043.96
568.016	3191.42
568.215	3023.48
568.414	2943.61
568.612	2910.85
568.811	2869.89
569.01	2728.58
569.208	2755.2
569.407	2724.48
569.605	2689.67
569.804	2689.67
570.002	2689.67
570.201	2544.26
570.4	2507.4
570.598	2435.72
570.797	2376.33
570.995	2327.18
571.193	2314.89
571.392	2286.22
571.59	2241.16
571.789	2329.22
571.987	2284.17
572.186	2366.09
572.384	2179.72
572.582	2185.87
572.781	2216.58
572.979	1821.33
573.177	2032.27
573.376	2032.27
573.574	2046.6
573.772	1923.73
573.971	1938.06
574.169	1784.46
574.367	1919.63
574.565	1852.05
574.763	1768.08
574.962	1909.39
575.16	1675.92
575.358	1716.88
575.556	1643.15
575.754	1659.54
575.952	1649.3
576.151	1518.23
576.349	1677.97
576.547	1460.88
576.745	1575.57
576.943	1571.47
577.141	1436.31
577.339	1432.21
577.537	1426.07
577.735	1415.83
577.933	1475.22
578.131	1288.86
578.329	1315.48
578.527	1204.89
578.725	1376.92
578.923	1227.42
579.121	1276.57
579.319	1208.98
579.516	1176.22
579.714	1358.49
579.912	1211.03
580.11	1086.11
580.308	1139.35
580.506	987.8
580.704	1067.67
580.901	1075.87
581.099	1170.07
581.297	1057.43
581.495	1174.17
581.692	1077.91
581.89	1067.67
582.088	1018.52
582.285	885.41
582.483	936.6
582.681	975.52
582.878	957.08
583.076	924.32
583.274	864.93
583.471	942.75
583.669	959.13
583.866	869.02
584.064	815.77
584.262	877.21
584.459	703.14
584.657	893.6
584.854	799.39
585.052	764.58
585.249	805.53
585.447	834.21
585.644	668.32
585.841	832.16
586.039	817.82
586.236	813.73
586.434	776.86
586.631	774.81
586.828	608.93
587.026	742.05
587.223	586.4
587.42	658.08
587.618	639.65
587.815	774.81
588.012	686.75
588.21	631.46
588.407	717.47
588.604	637.6
588.801	565.92
588.999	598.69
589.196	762.53
589.393	504.48
589.59	592.55
589.787	572.07
589.984	656.03
590.182	619.17
590.379	565.92
590.576	643.74
590.773	557.73
590.97	486.05
591.167	615.07
591.364	619.17
591.561	545.44
591.758	672.42
591.955	602.79
592.152	531.11
592.349	504.48
592.546	576.16
592.743	529.06
592.94	541.35
593.137	606.88
593.334	664.22
593.531	594.59
593.727	580.26
593.924	510.63
594.121	520.87
594.318	537.25
594.515	543.39
594.712	684.7
594.908	672.42
595.105	502.44
595.302	664.22
595.499	631.46
595.696	715.42
595.892	541.35
596.089	641.7
596.286	637.6
596.482	725.66
596.679	615.07
596.876	637.6
597.072	719.52
597.269	582.31
597.466	717.47
597.662	776.86
597.859	762.53
598.055	776.86
598.252	850.59
598.448	924.32
598.645	866.97
598.841	926.36
599.038	977.56
599.234	1088.15
599.431	991.9
599.627	1022.62
599.824	1122.97
600.02	1104.54
600.217	1067.67
600.413	1192.6
600.609	1239.7
600.806	1524.37
601.002	1356.44
601.198	1311.38
601.395	1481.36
601.591	1495.7
601.787	1573.52
601.984	1612.43
602.18	1602.19
602.376	1612.43
602.572	1888.91
602.769	1860.24
602.965	1841.81
603.161	2058.89
603.357	2216.58
603.553	2169.48
603.75	2120.33
603.946	2134.67
604.142	2384.52
604.338	2630.27
604.534	2411.14
604.73	2505.35
604.926	2620.03
605.122	2704
605.318	2714.24
605.514	2923.13
605.71	2941.57
605.906	3129.98
606.102	3136.12
606.298	3355.26
606.494	3424.89
606.69	3519.09
606.886	3478.13
607.082	3605.11
607.278	3775.09
607.474	3822.19
607.67	3918.45
607.866	3859.06
608.062	4282.99
608.257	4377.19
608.453	4346.47
608.649	4575.84
608.845	4553.32
609.041	4811.36
609.236	4919.9
609.432	4973.15
609.628	5171.8
609.824	5497.43
610.019	5419.61
610.215	5737.04
610.411	5802.58
610.606	5841.49
610.802	6224.46
610.998	6070.86
611.193	6390.35
611.389	6451.78
611.584	6744.64
611.78	6822.47
611.976	7119.42
612.171	7440.95
612.367	7434.81
612.562	7563.83
612.758	7719.48
612.953	7801.4
613.149	8165.93
613.344	8233.52
613.539	8573.48
613.735	8778.28
613.93	9292.32
614.126	9165.34
614.321	9628.18
614.517	9804.31
614.712	10021.39
614.907	10285.58
615.103	10631.69
615.298	10725.9
615.493	11231.74
615.688	11041.28
615.884	11796.98
616.079	11872.76
616.274	12282.35
616.47	12661.23
616.665	12861.93
616.86	12898.79
617.055	13345.25
617.25	13636.06
617.445	14172.63
617.641	14471.63
617.836	14703.05
618.031	15086.02
618.226	15540.67
618.421	15917.5
618.616	16413.1
618.811	16591.28
619.006	17306.02
619.201	17389.99
619.396	17785.24
619.591	17928.6
619.786	18573.71
619.981	19007.88
620.176	19474.82
620.371	19483.01
620.566	20158.84
620.761	20324.72
620.956	21174.63
621.151	21139.82
621.346	21696.86
621.541	21758.3
621.735	22780.24
621.93	22800.72
622.125	23357.77
622.32	23382.34
622.515	23949.63
622.709	24723.76
622.904	24965.42
623.099	25370.92
623.294	26005.79
623.488	26386.71
623.683	27324.68
623.878	27093.26
624.072	27744.52
624.267	27904.26
624.462	28342.52
624.656	28813.56
624.851	29425.9
625.046	29692.13
625.24	29987.04
625.435	30240.99
625.629	30755.03
625.824	31193.29
626.018	31795.4
626.213	31649.99
626.407	32817.33
626.602	32286.91
626.796	33032.37
626.991	33577.13
627.185	33583.27
627.38	33632.43
627.574	34058.4
627.768	33874.09
627.963	34246.82
628.157	34326.69
628.352	34877.59
628.546	34230.43
628.74	34777.24
628.935	34238.62
629.129	34519.2
629.323	34125.99
629.517	33996.96
629.712	33958.05
629.906	33732.78
630.1	33069.23
630.294	32934.07
630.489	32477.37
630.683	32463.04
630.877	31181.01
631.071	31224.01
631.265	30697.69
631.459	30034.14
631.653	29362.41
631.848	28741.88
632.042	27934.98
632.236	27590.92
632.43	26616.08
632.624	26134.81
632.818	25030.96
633.012	24647.99
633.206	23605.57
633.4	23079.24
633.594	22038.87
633.788	21391.72
633.982	21205.35
634.176	20042.1
634.369	18874.76
634.563	18696.59
634.757	17803.67
634.951	17267.11
635.145	16437.68
635.339	15886.78
635.533	15073.73
635.726	14850.5
635.92	13926.87
636.114	13177.31
636.308	12890.6
636.501	12212.72
636.695	12038.64
636.889	11188.74
637.083	10850.82
637.276	10244.62
637.47	9826.84
637.664	9683.48
637.857	9216.54
638.051	8659.49
638.244	8587.82
638.438	8049.2
638.632	7981.62
638.825	7352.89
639.019	7305.79
639.212	6914.63
639.406	6765.12
639.599	6378.06
639.793	6177.36
639.986	5784.15
640.18	5804.63
640.373	5479
640.567	5208.67
640.76	5120.6
640.954	4983.39
641.147	4543.08
641.34	4543.08
641.534	4358.76
641.727	4244.07
641.92	3965.55
642.114	3836.53
642.307	3701.36
642.5	3701.36
642.694	3406.45
642.887	3275.38
643.08	3379.83
643.273	3189.37
643.467	3003
643.66	2771.58
643.853	2730.62
644.046	2644.61
644.239	2513.54
644.432	2359.94
644.626	2308.74
644.819	2304.65
645.012	2196.11
645.205	2140.81
645.398	2130.57
645.591	1929.87
645.784	1821.33
645.977	1786.51
646.17	1708.69
646.363	1618.58
646.556	1602.19
646.749	1426.07
646.942	1450.64
647.135	1485.46
647.328	1286.81
647.521	1360.53
647.714	1352.34
647.907	1202.84
648.099	1106.59
648.292	1159.83
648.485	1120.92
648.678	1084.06
648.871	1049.24
649.064	1012.38
649.256	932.51
649.449	858.78
649.642	821.92
649.835	815.77
650.027	778.91
650.22	846.49
650.413	703.14
650.605	799.39
650.798	639.65
650.991	715.42
651.183	639.65
651.376	637.6
651.568	680.61
651.761	572.07
651.954	660.13
652.146	479.91
652.339	617.12
652.531	631.46
652.724	465.57
652.916	469.67
653.109	369.32
653.301	455.33
653.494	508.58
653.686	420.52
653.879	441
654.071	436.9
654.263	420.52
654.456	369.32
654.648	463.52
654.84	354.98
655.033	322.21
655.225	502.44
655.417	293.54
655.61	445.09
655.802	418.47
655.994	381.6
656.186	273.06
656.379	393.89
656.571	273.06
656.763	285.35
656.955	240.3
657.148	316.07
657.34	344.74
657.532	213.67
657.724	250.53
657.916	221.86
658.108	293.54
658.3	332.45
658.492	252.58
658.684	148.14
658.876	271.01
659.068	150.18
659.26	205.48
659.452	180.9
659.644	164.52
659.836	297.64
660.028	197.29
660.22	162.47
660.412	187.05
660.604	225.96
660.796	273.06
660.988	199.34
661.18	170.66
661.372	281.25
661.563	199.34
661.755	185
661.947	185
662.139	121.51
662.331	174.76
662.522	152.23
662.714	197.29
662.906	41.64
663.097	150.18
663.289	58.03
663.481	45.74
663.673	215.72
663.864	135.85
664.056	207.53
664.247	55.98
664.439	275.11
664.631	133.8
664.822	199.34
665.014	127.66
665.205	135.85
665.397	117.42
665.588	168.62
665.78	121.51
665.971	129.7
666.163	49.83
666.354	164.52
666.546	111.27
666.737	62.12
666.929	101.03
667.12	72.36
667.311	182.95
667.503	86.7
667.694	219.82
667.885	174.76
668.077	189.1
668.268	60.07
668.459	127.66
668.651	105.13
668.842	121.51
669.033	33.45
669.224	47.79
669.416	305.83
669.607	139.94
669.798	135.85
669.989	180.9
670.18	113.32
670.371	176.81
670.563	25.26
670.754	189.1
670.945	174.76
671.136	68.27
671.327	135.85
671.518	217.77
671.709	213.67
671.9	211.62
672.091	193.19
672.282	117.42
672.473	90.79
672.664	119.46
672.855	148.14
673.046	168.62
673.237	205.48
673.428	96.94
673.619	168.62
673.809	123.56
674	232.1
674.191	162.47
674.382	84.65
674.573	78.51
674.764	121.51
674.954	254.63
675.145	103.08
675.336	82.6
675.527	25.26
675.717	137.9
675.908	68.27
676.099	141.99
676.289	150.18
676.48	74.41
676.671	137.9
676.861	232.1
677.052	199.34
677.243	148.14
677.433	72.36
677.624	193.19
677.814	139.94
678.005	86.7
678.195	287.4
678.386	113.32
678.576	207.53
678.767	58.03
678.957	182.95
679.148	271.01
679.338	211.62
679.529	133.8
679.719	172.71
679.909	295.59
680.1	271.01
680.29	248.49
680.481	92.84
680.671	338.6
680.861	197.29
681.052	207.53
681.242	191.14
681.432	176.81
681.622	225.96
681.813	92.84
682.003	252.58
682.193	55.98
682.383	242.34
682.573	156.33
682.764	135.85
682.954	203.43
683.144	254.63
683.334	234.15
683.524	225.96
683.714	156.33
683.904	203.43
684.094	187.05
684.284	135.85
684.474	332.45
684.664	152.23
684.854	158.38
685.044	172.71
685.234	197.29
685.424	258.73
685.614	213.67
685.804	275.11
685.994	275.11
686.184	223.91
686.374	289.45
686.564	258.73
686.753	330.41
686.943	127.66
687.133	248.49
687.323	219.82
687.513	195.24
687.702	264.87
687.892	170.66
688.082	217.77
688.272	262.82
688.461	234.15
688.651	328.36
688.841	266.92
689.03	195.24
689.22	158.38
689.41	230.06
689.599	264.87
689.789	127.66
689.979	307.88
690.168	201.38
690.358	301.73
690.547	158.38
690.737	225.96
690.926	291.49
691.116	230.06
691.305	232.1
691.495	326.31
691.684	154.28
691.874	92.84
692.063	137.9
692.252	318.12
692.442	281.25
692.631	193.19
692.82	213.67
693.01	207.53
693.199	152.23
693.388	207.53
693.578	146.09
693.767	266.92
693.956	281.25
694.146	189.1
694.335	295.59
694.524	141.99
694.713	228.01
694.902	213.67
695.092	158.38
695.281	254.63
695.47	228.01
695.659	111.27
695.848	225.96
696.037	182.95
696.226	246.44
696.415	150.18
696.604	291.49
696.793	238.25
696.982	162.47
697.171	330.41
697.36	158.38
697.549	236.2
697.738	78.51
697.927	199.34
698.116	154.28
698.305	209.58
698.494	203.43
698.683	94.89
698.872	338.6
699.061	152.23
699.25	180.9
699.438	236.2
699.627	131.75
699.816	279.21
700.005	53.93
700.193	146.09
700.382	228.01
700.571	258.73
700.76	205.48
700.948	264.87
701.137	242.34
701.326	252.58
701.514	141.99
701.703	225.96
701.892	238.25
702.08	387.75
702.269	182.95
702.457	158.38
702.646	199.34
702.834	168.62
703.023	197.29
703.212	213.67
703.4	201.38
703.589	154.28
703.777	193.19
703.965	172.71
704.154	133.8
704.342	76.46
704.531	109.23
704.719	242.34
704.907	311.97
705.096	51.88
705.284	96.94
705.472	203.43
705.661	148.14
705.849	228.01
706.037	223.91
706.226	223.91
706.414	250.53
706.602	197.29
706.79	199.34
706.979	137.9
707.167	256.68
707.355	131.75
707.543	228.01
707.731	152.23
707.919	178.86
708.107	174.76
708.296	148.14
708.484	105.13
708.672	166.57
708.86	141.99
709.048	205.48
709.236	160.42
709.424	191.14
709.612	273.06
709.8	119.46
709.988	174.76
710.176	178.86
710.364	268.97
710.551	158.38
710.739	242.34
710.927	137.9
711.115	203.43
711.303	170.66
711.491	307.88
711.679	168.62
711.866	258.73
712.054	164.52
712.242	193.19
712.43	295.59
712.617	207.53
712.805	266.92
712.993	221.86
713.181	6.83
713.368	164.52
713.556	185
713.744	166.57
713.931	410.28
714.119	262.82
714.306	182.95
714.494	187.05
714.682	164.52
714.869	141.99
715.057	139.94
715.244	74.41
715.432	174.76
715.619	178.86
715.807	180.9
715.994	146.09
716.182	156.33
716.369	236.2
716.556	236.2
716.744	27.31
716.931	94.89
717.119	158.38
717.306	232.1
717.493	211.62
717.681	191.14
717.868	258.73
718.055	219.82
718.242	180.9
718.43	285.35
718.617	344.74
718.804	115.37
718.991	316.07
719.179	238.25
719.366	254.63
719.553	242.34
719.74	158.38
719.927	156.33
720.114	234.15
720.301	135.85
720.488	135.85
720.676	162.47
720.863	273.06
721.05	283.3
721.237	195.24
721.424	250.53
721.611	275.11
721.798	96.94
721.985	215.72
722.172	156.33
722.358	111.27
722.545	287.4
722.732	307.88
722.919	275.11
723.106	254.63
723.293	305.83
723.48	137.9
723.667	127.66
723.853	293.54
724.04	289.45
724.227	383.65
724.414	191.14
724.6	217.77
724.787	379.56
724.974	332.45
725.161	289.45
725.347	119.46
725.534	273.06
725.72	240.3
725.907	375.46
726.094	273.06
726.28	295.59
726.467	201.38
726.653	174.76
726.84	293.54
727.027	318.12
727.213	254.63
727.4	373.41
727.586	275.11
727.773	205.48
727.959	260.77
728.145	248.49
728.332	234.15
728.518	158.38
728.705	266.92
728.891	338.6
729.077	299.69
729.264	170.66
729.45	273.06
729.636	357.03
729.823	260.77
730.009	295.59
730.195	205.48
730.382	271.01
730.568	209.58
730.754	287.4
730.94	289.45
731.126	217.77
731.313	324.26
731.499	246.44
731.685	252.58
731.871	303.78
732.057	199.34
732.243	375.46
732.429	234.15
732.615	408.23
732.801	277.16
732.987	139.94
733.173	283.3
733.359	209.58
733.545	287.4
733.731	287.4
733.917	387.75
734.103	316.07
734.289	293.54
734.475	252.58
734.661	371.37
734.847	277.16
735.033	172.71
735.219	326.31
735.404	168.62
735.59	189.1
735.776	262.82
735.962	332.45
736.148	324.26
736.333	340.65
736.519	305.83
736.705	301.73
736.89	213.67
737.076	305.83
737.262	250.53
737.447	191.14
737.633	332.45
737.819	443.04
738.004	238.25
738.19	221.86
738.375	338.6
738.561	387.75
738.747	359.08
738.932	154.28
739.118	502.44
739.303	414.37
739.489	281.25
739.674	232.1
739.859	182.95
740.045	340.65
740.23	307.88
740.416	76.46
740.601	273.06
740.786	307.88
740.972	207.53
741.157	330.41
741.342	176.81
741.528	133.8
741.713	281.25
741.898	342.69
742.084	301.73
742.269	299.69
742.454	336.55
742.639	287.4
742.824	311.97
743.01	369.32
743.195	484
743.38	328.36
743.565	309.93
743.75	277.16
743.935	311.97
744.12	336.55
744.305	115.37
744.49	217.77
744.675	217.77
744.86	205.48
745.045	225.96
745.23	287.4
745.415	221.86
745.6	371.37
745.785	238.25
745.97	393.89
746.155	316.07
746.34	311.97
746.525	256.68
746.71	373.41
746.895	178.86
747.079	211.62
747.264	262.82
747.449	299.69
747.634	418.47
747.819	199.34
748.003	262.82
748.188	178.86
748.373	268.97
748.557	318.12
748.742	266.92
748.927	307.88
749.111	195.24
749.296	252.58
749.481	350.89
749.665	254.63
749.85	211.62
750.034	293.54
750.219	254.63
750.404	211.62
750.588	240.3
750.773	162.47
750.957	266.92
751.141	283.3
751.326	326.31
751.51	78.51
751.695	256.68
751.879	189.1
752.064	424.61
752.248	209.58
752.432	373.41
752.617	318.12
752.801	283.3
752.985	197.29
753.17	283.3
753.354	314.02
753.538	285.35
753.722	125.61
753.907	146.09
754.091	139.94
754.275	295.59
754.459	78.51
754.643	174.76
754.828	244.39
755.012	262.82
755.196	148.14
755.38	256.68
755.564	180.9
755.748	189.1
755.932	248.49
756.116	260.77
756.3	279.21
756.484	107.18
756.668	197.29
756.852	133.8
757.036	221.86
757.22	221.86
757.404	160.42
757.588	111.27
757.772	248.49
757.956	137.9
758.14	326.31
758.323	135.85
758.507	219.82
758.691	117.42
758.875	164.52
759.059	305.83
759.242	131.75
759.426	189.1
759.61	182.95
759.794	119.46
759.977	191.14
760.161	377.51
760.345	215.72
760.528	213.67
760.712	92.84
760.895	180.9
761.079	129.7
761.263	33.45
761.446	119.46
761.63	141.99
761.813	185
761.997	68.27
762.18	68.27
762.364	238.25
762.547	49.83
762.731	152.23
762.914	41.64
763.098	101.03
763.281	185
763.464	84.65
763.648	96.94
763.831	119.46
764.015	60.07
764.198	279.21
764.381	174.76
764.564	141.99
764.748	135.85
764.931	94.89
765.114	127.66
765.297	82.6
765.481	-9.56
765.664	76.46
765.847	45.74
766.03	240.3
766.213	17.07
766.397	146.09
766.58	41.64
766.763	209.58
766.946	189.1
767.129	62.12
767.312	45.74
767.495	137.9
767.678	47.79
767.861	268.97
768.044	33.45
768.227	111.27
768.41	80.55
768.593	139.94
768.776	139.94
768.959	88.75
769.142	207.53
769.324	105.13
769.507	29.35
769.69	78.51
769.873	92.84
770.056	262.82
770.239	109.23
770.421	152.23
770.604	170.66
770.787	113.32
770.97	164.52
771.152	-1.37
771.335	187.05
771.518	58.03
771.7	180.9
771.883	295.59
772.066	51.88
772.248	207.53
772.431	203.43
772.613	133.8
772.796	115.37
772.978	101.03
773.161	154.28
773.343	6.83
773.526	84.65
773.708	-38.23
773.891	0.68
774.073	45.74
774.256	29.35
774.438	232.1
774.621	84.65
774.803	125.61
774.985	41.64
775.168	135.85
775.35	51.88
775.532	96.94
775.715	70.31
775.897	76.46
776.079	146.09
776.261	127.66
776.444	8.87
776.626	60.07
776.808	117.42
776.99	41.64
777.173	92.84
777.355	78.51
777.537	84.65
777.719	86.7
777.901	96.94
778.083	0.68
778.265	49.83
778.447	148.14
778.629	66.22
778.811	47.79
778.993	101.03
779.175	66.22
779.357	88.75
779.539	-19.8
779.721	55.98
779.903	119.46
780.085	10.92
780.267	39.59
780.449	29.35
780.631	131.75
780.812	185
780.994	64.17
781.176	90.79
781.358	68.27
781.54	41.64
781.721	88.75
781.903	78.51
782.085	21.16
782.267	125.61
782.448	10.92
782.63	6.83
782.812	117.42
782.993	119.46
783.175	37.55
783.357	-34.13
783.538	74.41
783.72	31.4
783.901	55.98
784.083	121.51
784.264	49.83
784.446	-15.7
784.627	-95.57
784.809	10.92
784.99	-15.7
785.172	98.99
785.353	-5.46
785.535	123.56
785.716	8.87
785.897	8.87
786.079	62.12
786.26	51.88
786.441	23.21
786.623	-19.8
786.804	53.93
786.985	49.83
787.167	47.79
787.348	58.03
787.529	-126.29
787.71	117.42
787.891	60.07
788.073	-3.41
788.254	-71
788.435	154.28
788.616	64.17
788.797	-77.14
788.978	103.08
789.159	-5.46
789.34	86.7
789.522	82.6
789.703	-23.89
789.884	41.64
790.065	19.11
790.246	164.52
790.427	53.93
790.607	139.94
790.788	121.51
790.969	-44.37
791.15	39.59
791.331	4.78
791.512	17.07
791.693	41.64
791.874	2.73
792.054	178.86
792.235	90.79
792.416	-73.04
792.597	-3.41
792.778	94.89
792.958	-1.37
793.139	129.7
793.32	-1.37
793.5	2.73
793.681	113.32
793.862	109.23
794.042	70.31
794.223	-105.81
794.404	-25.94
794.584	-107.86
794.765	25.26
794.945	-48.47
795.126	47.79
795.306	144.04
795.487	35.5
795.667	-21.84
795.848	64.17
796.028	10.92
796.209	-7.51
796.389	90.79
796.57	101.03
796.75	-46.42
796.93	-38.23
797.111	39.59
797.291	58.03
797.471	74.41
797.652	29.35
797.832	-87.38
798.012	60.07
798.192	15.02
798.373	-91.48
798.553	49.83
798.733	66.22
798.913	-83.28
799.093	33.45
799.274	88.75
799.454	66.22
799.634	60.07
799.814	113.32
799.994	47.79
800.174	53.93
800.354	90.79
800.534	-107.86
800.714	74.41
800.894	23.21
801.074	-19.8
801.254	-54.61
801.434	60.07
801.614	-54.61
801.794	-56.66
801.974	1913.49
802.154	37.55
802.334	51.88
802.514	-75.09
802.693	-50.52
802.873	55.98
803.053	88.75
803.233	60.07
803.413	-23.89
803.592	25.26
803.772	-50.52
803.952	-36.18
804.131	-48.47
804.311	115.37
804.491	172.71
804.67	-73.04
804.85	-9.56
805.03	70.31
805.209	60.07
805.389	-27.99
805.568	-32.08
805.748	-5.46
805.928	0.68
806.107	117.42
806.287	45.74
806.466	55.98
806.646	-30.04
806.825	135.85
807.004	-68.95
807.184	66.22
807.363	29.35
807.543	37.55
807.722	-34.13
807.901	111.27
808.081	-36.18
808.26	-167.25
808.439	53.93
808.619	-17.75
808.798	43.69
808.977	-42.32
809.156	80.55
809.336	6.83
809.515	64.17
809.694	-25.94
809.873	45.74
810.052	-7.51
810.231	107.18
810.411	0.68
810.59	133.8
810.769	35.5
810.948	-7.51
811.127	-175.44
811.306	-103.76
811.485	-19.8
811.664	191.14
811.843	23.21
812.022	25.26
812.201	-23.89
812.38	-42.32
812.559	4.78
812.737	109.23
812.916	-64.85
813.095	-1.37
813.274	92.84
813.453	12.97
813.632	29.35
813.811	66.22
813.989	-101.72
814.168	-17.75
814.347	-148.82
814.526	-46.42
814.704	98.99
814.883	4.78
815.062	-40.28
815.24	2.73
815.419	-56.66
815.598	10.92
815.776	-83.28
815.955	-7.51
816.133	-58.71
816.312	29.35
816.49	-83.28
816.669	-79.19
816.847	-15.7
817.026	53.93
817.204	-89.43
817.383	31.4
817.561	-58.71
817.74	94.89
817.918	-5.46
818.097	-32.08
818.275	-83.28
818.453	-11.61
818.632	39.59
818.81	-62.8
818.988	53.93
819.167	-38.23
819.345	-1.37
819.523	12.97
819.701	47.79
819.879	15.02
820.058	-23.89
820.236	2.73
820.414	35.5
820.592	-60.76
820.77	15.02
820.948	-38.23
821.127	-44.37
821.305	101.03
821.483	-62.8
821.661	51.88
821.839	12.97
822.017	-75.09
822.195	31.4
822.373	78.51
822.551	-21.84
822.729	62.12
822.907	12.97
823.085	62.12
823.262	-11.61
823.44	51.88
823.618	-64.85
823.796	-5.46
823.974	-7.51
824.152	-9.56
824.329	-71
824.507	-21.84
824.685	2.73
824.863	-54.61
825.04	23.21
825.218	45.74
825.396	12.97
825.574	2.73
825.751	-40.28
825.929	37.55
826.107	-93.52
826.284	4.78
826.462	37.55
826.639	-85.33
826.817	-107.86
826.994	-56.66
827.172	-136.53
827.349	72.36
827.527	47.79
827.704	-13.65
827.882	-23.89
828.059	29.35
828.237	0.68
828.414	76.46
828.591	-171.35
828.769	27.31
828.946	-42.32
829.124	66.22
829.301	82.6
829.478	-25.94
829.655	43.69
829.833	12.97
830.01	-85.33
830.187	51.88
830.364	-79.19
830.542	-21.84
830.719	103.08
830.896	98.99
831.073	64.17
831.25	62.12
831.427	35.5
831.604	-64.85
831.782	-99.67
831.959	-19.8
832.136	-17.75
832.313	-1.37
832.49	-13.65
832.667	-32.08
832.844	-5.46
833.021	41.64
833.198	-23.89
833.374	-17.75
833.551	-21.84
833.728	-48.47
833.905	68.27
834.082	-181.59
834.259	21.16
834.436	90.79
834.612	-48.47
834.789	45.74
834.966	-58.71
835.143	45.74
835.319	-30.04
835.496	-23.89
835.673	45.74
835.85	15.02
836.026	125.61
836.203	49.83
836.38	-36.18
836.556	-5.46
836.733	-56.66
836.909	117.42
837.086	23.21
837.262	-99.67
837.439	-25.94
837.616	-3.41
837.792	41.64
837.968	10.92
838.145	-171.35
838.321	-27.99
838.498	2.73
838.674	39.59
838.851	119.46
839.027	-50.52
839.203	-48.47
839.38	4.78
839.556	-30.04
839.732	62.12
839.909	-42.32
840.085	-34.13
840.261	-34.13
840.437	-66.9
840.614	45.74
840.79	43.69
840.966	74.41
841.142	-23.89
841.318	-3.41
841.494	43.69
841.671	49.83
841.847	-32.08
842.023	-97.62
842.199	101.03
842.375	111.27
842.551	-95.57
842.727	-91.48
842.903	119.46
843.079	-62.8
843.255	49.83
843.431	43.69
843.607	125.61
843.783	-157.01
843.959	35.5
844.134	-101.72
844.31	131.75
844.486	-9.56
844.662	-25.94
844.838	33.45
845.013	115.37
845.189	64.17
845.365	-68.95
845.541	39.59
845.716	4.78
845.892	60.07
846.068	-68.95
846.244	25.26
846.419	6.83
846.595	-66.9
846.77	-109.91
846.946	103.08
847.122	-48.47
847.297	-54.61
847.473	121.51
847.648	-32.08
847.824	4.78
847.999	-150.87
848.175	-60.76
848.35	23.21
848.526	129.7
848.701	15.02
848.876	31.4
849.052	107.18
849.227	45.74
849.403	-93.52
849.578	15.02
849.753	10.92
849.929	51.88
850.104	-58.71
850.279	-11.61
850.454	12.97
850.63	23.21
850.805	47.79
850.98	-48.47
851.155	-15.7
851.33	10.92
851.505	-171.35
851.681	152.23
851.856	-85.33
852.031	-36.18
852.206	-27.99
852.381	-3.41
852.556	15.02
852.731	4.78
852.906	62.12
853.081	12.97
853.256	62.12
853.431	27.31
853.606	27.31
853.781	-71
853.956	-101.72
854.131	2.73
854.305	-44.37
854.48	25.26
854.655	-56.66
854.83	-56.66
855.005	-68.95
855.18	-48.47
855.354	41.64
855.529	62.12
855.704	-38.23
855.879	19.11
856.053	-30.04
856.228	60.07
856.403	-36.18
856.577	66.22
856.752	-107.86
856.926	-5.46
857.101	-27.99
857.276	-105.81
857.45	19.11
857.625	90.79
857.799	4.78
857.974	-13.65
858.148	-109.91
858.323	4.78
858.497	-48.47
858.672	-111.96
858.846	-48.47
859.02	51.88
859.195	-130.39
859.369	35.5
859.543	-23.89
859.718	-13.65
859.892	27.31
860.066	58.03
860.241	17.07
860.415	-30.04
860.589	-85.33
860.763	74.41
860.938	-44.37
861.112	-15.7
861.286	31.4
861.46	-48.47
861.634	15.02
861.808	103.08
861.982	-52.56
862.157	-46.42
862.331	-56.66
862.505	-73.04
862.679	-73.04
862.853	-40.28
863.027	-58.71
863.201	164.52
863.375	-68.95
863.549	-13.65
863.722	10.92
863.896	-9.56
864.07	-48.47
864.244	-95.57
864.418	29.35
864.592	-27.99
864.766	-32.08
864.939	17.07
865.113	-1.37
865.287	98.99
865.461	-64.85
865.634	8.87
865.808	15.02
865.982	-15.7
866.156	-64.85
866.329	-130.39
866.503	-23.89
866.676	4.78
866.85	12.97
867.024	-97.62
867.197	15.02
867.371	-9.56
867.544	-36.18
867.718	-142.68
867.891	119.46
868.065	-36.18
868.238	-48.47
868.412	78.51
868.585	-36.18
868.759	-27.99
868.932	-25.94
869.105	-17.75
869.279	35.5
869.452	-71
869.625	35.5
869.799	4.78
869.972	-114
870.145	-7.51
870.319	78.51
870.492	-58.71
870.665	-23.89
870.838	-101.72
871.011	-140.63
871.185	39.59
871.358	17.07
871.531	29.35
871.704	-42.32
871.877	17.07
872.05	-36.18
872.223	-46.42
872.396	-21.84
872.569	-5.46
872.742	-154.96
872.915	-11.61
873.088	-68.95
873.261	-157.01
873.434	74.41
873.607	45.74
873.78	109.23
873.953	-111.96
874.126	8.87
874.299	29.35
874.471	-27.99
874.644	-68.95
874.817	45.74
874.99	23.21
875.163	-9.56
875.335	-3.41
875.508	-19.8
875.681	64.17
875.853	-21.84
876.026	-1.37
876.199	92.84
876.371	-58.71
876.544	-1.37
876.717	-64.85
876.889	15.02
877.062	-48.47
877.234	-44.37
877.407	-9.56
877.579	21.16
877.752	-77.14
877.924	21.16
878.097	33.45
878.269	-3.41
878.442	12.97
878.614	72.36
878.786	21.16
878.959	35.5
879.131	15.02
879.303	-48.47
879.476	10.92
879.648	74.41
879.82	55.98
879.993	-81.24
880.165	-15.7
880.337	-138.58
880.509	-23.89
880.681	-89.43
880.854	-30.04
881.026	58.03
881.198	170.66
881.37	8.87
881.542	-44.37
881.714	0.68
881.886	35.5
882.058	-66.9
882.23	6.83
882.402	-30.04
882.574	68.27
882.746	33.45
882.918	-1.37
883.09	19.11
883.262	-21.84
883.434	19.11
883.606	-120.15
883.778	4.78
883.95	150.18
884.122	-91.48
884.293	47.79
884.465	-3.41
884.637	60.07
884.809	-60.76
884.98	-34.13
885.152	-27.99
885.324	51.88
885.496	-77.14
885.667	-62.8
885.839	-15.7
886.011	103.08
886.182	-13.65
886.354	-23.89
886.525	17.07
886.697	-23.89
886.869	-73.04
887.04	-68.95
887.212	98.99
887.383	70.31
887.555	21.16
887.726	-25.94
887.897	-32.08
888.069	-17.75
888.24	109.23
888.412	66.22
888.583	-68.95
888.754	29.35
888.926	-136.53
889.097	-68.95
889.268	-85.33
889.44	25.26
889.611	-93.52
889.782	-60.76
889.953	-50.52
890.125	25.26
890.296	-68.95
890.467	-64.85
890.638	-101.72
890.809	-25.94
890.98	-44.37
891.151	-46.42
891.323	146.09
891.494	-5.46
891.665	-34.13
891.836	-107.86
892.007	-21.84
892.178	2.73
892.349	-19.8
892.52	-77.14
892.691	-46.42
892.862	-42.32
893.032	-114
893.203	-11.61
893.374	0.68
893.545	39.59
893.716	-81.24
893.887	25.26
894.057	-21.84
894.228	10.92
894.399	17.07
894.57	64.17
894.74	-40.28
894.911	41.64
895.082	-44.37
895.253	-116.05
895.423	21.16
895.594	117.42
895.764	-42.32
895.935	-60.76
896.106	-71
896.276	8.87
896.447	17.07
896.617	-21.84
896.788	-7.51
896.958	-97.62
897.129	-89.43
897.299	-27.99
897.47	64.17
897.64	4.78
897.81	-36.18
897.981	-54.61
898.151	-48.47
898.322	29.35
898.492	78.51
898.662	-68.95
898.832	-73.04
899.003	8.87
899.173	82.6
899.343	-99.67
899.513	-42.32
