Data from USB4F104151__64__10-26-53-124.txt Node

Date: Wed Feb 26 10:26:53 EST 2025
User: louis
Spectrometer: USB4F10415
Trigger mode: 4
Integration Time (sec): 1.000000E-1
Scans to average: 1
Electric dark correction enabled: true
Nonlinearity correction enabled: false
Boxcar width: 0
XAxis mode: Wavelengths
Number of Pixels in Spectrum: 3648
>>>>>Begin Spectral Data<<<<<
178.204	-374.27
178.424	-374.27
178.644	-374.27
178.864	-445.95
179.084	-402.94
179.304	16.9
179.524	-17.92
179.744	64
179.964	35.33
180.184	-32.26
180.404	31.23
180.624	-13.82
180.844	-19.97
181.064	-58.88
181.283	10.75
181.503	-73.21
181.723	57.86
181.943	-103.93
182.163	107.01
182.383	-62.98
182.602	74.24
182.822	84.48
183.042	43.52
183.262	-69.12
183.482	51.71
183.701	41.47
183.921	20.99
184.141	-5.63
184.361	107.01
184.58	68.09
184.8	59.9
185.02	16.9
185.239	70.14
185.459	80.38
185.679	109.05
185.898	-101.89
186.118	53.76
186.338	29.18
186.557	104.96
186.777	-3.58
186.997	-32.26
187.216	14.85
187.436	164.35
187.655	86.53
187.875	64
188.095	25.09
188.314	84.48
188.534	37.38
188.753	-75.26
188.973	107.01
189.192	217.6
189.412	16.9
189.631	-50.69
189.851	14.85
190.07	186.88
190.29	-110.08
190.509	-32.26
190.729	-22.02
190.948	147.97
191.168	215.55
191.387	-9.73
191.607	72.19
191.826	64
192.045	-30.21
192.265	12.8
192.484	-9.73
192.704	61.95
192.923	-52.74
193.142	141.82
193.362	96.77
193.581	102.91
193.8	39.42
194.02	119.29
194.239	-11.78
194.458	72.19
194.678	-24.06
194.897	-40.45
195.116	39.42
195.335	41.47
195.555	111.1
195.774	-17.92
195.993	90.62
196.212	-3.58
196.432	-28.16
196.651	4.61
196.87	18.94
197.089	190.97
197.308	-15.87
197.528	8.7
197.747	-167.42
197.966	45.57
198.185	111.1
198.404	-28.16
198.623	123.39
198.842	37.38
199.062	-3.58
199.281	109.05
199.5	47.62
199.719	80.38
199.938	78.33
200.157	107.01
200.376	133.63
200.595	49.66
200.814	33.28
201.033	-40.45
201.252	172.54
201.471	20.99
201.69	41.47
201.909	109.05
202.128	12.8
202.347	55.81
202.566	39.42
202.785	-108.03
203.004	-26.11
203.223	229.88
203.442	-24.06
203.661	-95.74
203.879	72.19
204.098	80.38
204.317	-60.93
204.536	102.91
204.755	4.61
204.974	88.57
205.193	18.94
205.411	119.29
205.63	88.57
205.849	8.7
206.068	41.47
206.287	-52.74
206.505	90.62
206.724	12.8
206.943	53.76
207.162	-62.98
207.381	10.75
207.599	4.61
207.818	86.53
208.037	-28.16
208.255	47.62
208.474	47.62
208.693	61.95
208.911	74.24
209.13	76.29
209.349	51.71
209.567	-15.87
209.786	53.76
210.005	186.88
210.223	35.33
210.442	-163.33
210.661	8.7
210.879	59.9
211.098	23.04
211.316	96.77
211.535	100.86
211.753	45.57
211.972	100.86
212.191	-38.4
212.409	33.28
212.628	33.28
212.846	-13.82
213.065	76.29
213.283	133.63
213.502	100.86
213.72	-7.68
213.938	0.51
214.157	-3.58
214.375	70.14
214.594	61.95
214.812	0.51
215.031	6.66
215.249	-56.83
215.467	12.8
215.686	37.38
215.904	117.25
216.122	55.81
216.341	156.16
216.559	53.76
216.778	121.34
216.996	119.29
217.214	-22.02
217.432	-5.63
217.651	-87.55
217.869	0.51
218.087	92.67
218.306	20.99
218.524	-1.54
218.742	14.85
218.96	76.29
219.179	33.28
219.397	-32.26
219.615	209.4
219.833	39.42
220.051	-1.54
220.27	20.99
220.488	133.63
220.706	12.8
220.924	-17.92
221.142	-17.92
221.36	37.38
221.578	72.19
221.796	31.23
222.015	78.33
222.233	80.38
222.451	150.01
222.669	-30.21
222.887	49.66
223.105	37.38
223.323	-13.82
223.541	-46.59
223.759	37.38
223.977	-48.64
224.195	98.81
224.413	78.33
224.631	14.85
224.849	6.66
225.067	172.54
225.285	10.75
225.503	2.56
225.721	-122.37
225.939	45.57
226.157	45.57
226.375	166.4
226.592	18.94
226.81	31.23
227.028	94.72
227.246	70.14
227.464	35.33
227.682	82.43
227.9	27.14
228.117	35.33
228.335	66.05
228.553	43.52
228.771	35.33
228.989	4.61
229.206	66.05
229.424	23.04
229.642	-22.02
229.86	-1.54
230.077	107.01
230.295	86.53
230.513	94.72
230.731	150.01
230.948	29.18
231.166	123.39
231.384	-101.89
231.601	-17.92
231.819	172.54
232.037	-38.4
232.254	-77.31
232.472	10.75
232.689	-44.54
232.907	164.35
233.125	-36.35
233.342	-11.78
233.56	-44.54
233.777	31.23
233.995	-19.97
234.213	61.95
234.43	123.39
234.648	16.9
234.865	57.86
235.083	70.14
235.3	41.47
235.518	25.09
235.735	70.14
235.953	125.44
236.17	64
236.388	14.85
236.605	29.18
236.822	82.43
237.04	133.63
237.257	18.94
237.475	-50.69
237.692	61.95
237.909	51.71
238.127	-24.06
238.344	76.29
238.562	64
238.779	-69.12
238.996	-126.46
239.214	-19.97
239.431	43.52
239.648	-71.17
239.865	86.53
240.083	98.81
240.3	31.23
240.517	10.75
240.735	-7.68
240.952	135.68
241.169	61.95
241.386	37.38
241.603	-50.69
241.821	-24.06
242.038	117.25
242.255	117.25
242.472	-85.5
242.689	74.24
242.907	111.1
243.124	12.8
243.341	37.38
243.558	-75.26
243.775	-17.92
243.992	-65.02
244.209	86.53
244.426	172.54
244.643	35.33
244.86	8.7
245.078	82.43
245.295	39.42
245.512	-13.82
245.729	-73.21
245.946	59.9
246.163	4.61
246.38	-38.4
246.597	10.75
246.814	29.18
247.031	29.18
247.248	27.14
247.464	51.71
247.681	14.85
247.898	72.19
248.115	70.14
248.332	8.7
248.549	96.77
248.766	166.4
248.983	61.95
249.2	-5.63
249.417	61.95
249.633	-11.78
249.85	72.19
250.067	64
250.284	35.33
250.501	64
250.717	68.09
250.934	-89.6
251.151	57.86
251.368	-24.06
251.585	-34.3
251.801	0.51
252.018	-62.98
252.235	55.81
252.451	-17.92
252.668	-15.87
252.885	33.28
253.102	64
253.318	-7.68
253.535	-62.98
253.752	20.99
253.968	-28.16
254.185	-48.64
254.401	66.05
254.618	4.61
254.835	-71.17
255.051	123.39
255.268	68.09
255.484	27.14
255.701	0.51
255.917	20.99
256.134	-77.31
256.351	-15.87
256.567	23.04
256.784	-48.64
257	-114.17
257.217	55.81
257.433	127.49
257.65	-24.06
257.866	111.1
258.082	-77.31
258.299	-40.45
258.515	94.72
258.732	23.04
258.948	31.23
259.165	-9.73
259.381	-48.64
259.597	33.28
259.814	49.66
260.03	-65.02
260.246	-58.88
260.463	90.62
260.679	139.77
260.895	-19.97
261.112	12.8
261.328	94.72
261.544	-52.74
261.761	94.72
261.977	-81.41
262.193	-19.97
262.409	72.19
262.626	-5.63
262.842	10.75
263.058	-58.88
263.274	84.48
263.49	100.86
263.707	-7.68
263.923	96.77
264.139	-60.93
264.355	96.77
264.571	27.14
264.787	68.09
265.004	86.53
265.22	53.76
265.436	-28.16
265.652	-7.68
265.868	78.33
266.084	14.85
266.3	-28.16
266.516	35.33
266.732	55.81
266.948	64
267.164	27.14
267.38	64
267.596	-42.5
267.812	102.91
268.028	55.81
268.244	25.09
268.46	-3.58
268.676	-73.21
268.892	18.94
269.108	-58.88
269.324	-42.5
269.54	-28.16
269.756	0.51
269.972	-50.69
270.188	-7.68
270.403	-19.97
270.619	-7.68
270.835	100.86
271.051	14.85
271.267	-46.59
271.483	53.76
271.698	-40.45
271.914	10.75
272.13	66.05
272.346	-65.02
272.562	20.99
272.777	94.72
272.993	6.66
273.209	-38.4
273.425	25.09
273.64	-30.21
273.856	119.29
274.072	-120.32
274.287	-69.12
274.503	43.52
274.719	68.09
274.934	-46.59
275.15	-155.13
275.366	45.57
275.581	-44.54
275.797	109.05
276.012	18.94
276.228	-24.06
276.444	-5.63
276.659	127.49
276.875	35.33
277.09	23.04
277.306	-28.16
277.521	80.38
277.737	59.9
277.952	31.23
278.168	-13.82
278.383	-19.97
278.599	2.56
278.814	92.67
279.03	51.71
279.245	121.34
279.461	-3.58
279.676	123.39
279.892	-105.98
280.107	-40.45
280.322	-26.11
280.538	6.66
280.753	4.61
280.969	66.05
281.184	12.8
281.399	178.69
281.615	31.23
281.83	31.23
282.045	-81.41
282.26	-65.02
282.476	4.61
282.691	61.95
282.906	43.52
283.122	-32.26
283.337	8.7
283.552	55.81
283.767	-13.82
283.983	78.33
284.198	78.33
284.413	94.72
284.628	-122.37
284.843	-15.87
285.058	39.42
285.274	-22.02
285.489	16.9
285.704	84.48
285.919	-17.92
286.134	-28.16
286.349	72.19
286.564	20.99
286.779	80.38
286.995	-24.06
287.21	-89.6
287.425	102.91
287.64	-52.74
287.855	-5.63
288.07	-122.37
288.285	111.1
288.5	66.05
288.715	10.75
288.93	-77.31
289.145	-30.21
289.36	88.57
289.575	-17.92
289.79	66.05
290.004	74.24
290.219	82.43
290.434	-1.54
290.649	-46.59
290.864	18.94
291.079	-9.73
291.294	37.38
291.509	-7.68
291.724	23.04
291.938	31.23
292.153	-28.16
292.368	16.9
292.583	88.57
292.798	27.14
293.012	43.52
293.227	12.8
293.442	-71.17
293.657	49.66
293.871	86.53
294.086	43.52
294.301	205.31
294.516	49.66
294.73	33.28
294.945	-77.31
295.16	12.8
295.374	74.24
295.589	74.24
295.804	-85.5
296.018	-5.63
296.233	137.73
296.447	33.28
296.662	29.18
296.877	109.05
297.091	45.57
297.306	4.61
297.52	8.7
297.735	-17.92
297.949	68.09
298.164	31.23
298.378	14.85
298.593	4.61
298.807	-40.45
299.022	-15.87
299.236	152.06
299.451	0.51
299.665	14.85
299.88	37.38
300.094	57.86
300.309	-114.17
300.523	57.86
300.737	-24.06
300.952	55.81
301.166	35.33
301.381	8.7
301.595	-62.98
301.809	8.7
302.024	-42.5
302.238	-15.87
302.452	70.14
302.667	-7.68
302.881	96.77
303.095	135.68
303.309	117.25
303.524	-67.07
303.738	-26.11
303.952	-32.26
304.166	107.01
304.381	-105.98
304.595	150.01
304.809	35.33
305.023	-9.73
305.237	20.99
305.452	-22.02
305.666	117.25
305.88	39.42
306.094	98.81
306.308	72.19
306.522	133.63
306.736	20.99
306.95	49.66
307.164	53.76
307.379	51.71
307.593	84.48
307.807	125.44
308.021	125.44
308.235	33.28
308.449	-65.02
308.663	12.8
308.877	248.32
309.091	90.62
309.305	70.14
309.519	-79.36
309.733	158.21
309.947	-52.74
310.161	127.49
310.374	8.7
310.588	18.94
310.802	-42.5
311.016	-9.73
311.23	2.56
311.444	-40.45
311.658	90.62
311.872	84.48
312.085	94.72
312.299	96.77
312.513	107.01
312.727	131.58
312.941	-71.17
313.154	64
313.368	70.14
313.582	-17.92
313.796	31.23
314.009	66.05
314.223	90.62
314.437	61.95
314.651	57.86
314.864	6.66
315.078	33.28
315.292	2.56
315.505	64
315.719	41.47
315.933	-11.78
316.146	-77.31
316.36	-26.11
316.573	184.83
316.787	102.91
317.001	59.9
317.214	-42.5
317.428	78.33
317.641	-103.93
317.855	-11.78
318.068	-22.02
318.282	20.99
318.495	147.97
318.709	2.56
318.922	-19.97
319.136	139.77
319.349	88.57
319.563	-24.06
319.776	88.57
319.99	-136.7
320.203	45.57
320.417	6.66
320.63	104.96
320.843	133.63
321.057	-22.02
321.27	-62.98
321.483	113.15
321.697	104.96
321.91	96.77
322.124	61.95
322.337	47.62
322.55	-112.13
322.763	29.18
322.977	-22.02
323.19	31.23
323.403	70.14
323.617	66.05
323.83	111.1
324.043	-44.54
324.256	98.81
324.469	-99.84
324.683	64
324.896	-28.16
325.109	74.24
325.322	-132.61
325.535	102.91
325.748	94.72
325.962	2.56
326.175	-1.54
326.388	29.18
326.601	61.95
326.814	35.33
327.027	88.57
327.24	74.24
327.453	-48.64
327.666	82.43
327.879	113.15
328.092	84.48
328.305	-28.16
328.518	-58.88
328.731	-13.82
328.944	-9.73
329.157	27.14
329.37	-48.64
329.583	158.21
329.796	111.1
330.009	-99.84
330.222	96.77
330.435	123.39
330.648	31.23
330.861	-26.11
331.073	-1.54
331.286	29.18
331.499	-11.78
331.712	-9.73
331.925	39.42
332.138	47.62
332.35	158.21
332.563	-17.92
332.776	152.06
332.989	-79.36
333.202	61.95
333.414	-58.88
333.627	2.56
333.84	6.66
334.053	4.61
334.265	-48.64
334.478	-46.59
334.691	27.14
334.903	43.52
335.116	-15.87
335.329	-17.92
335.541	39.42
335.754	127.49
335.966	-22.02
336.179	-15.87
336.392	-9.73
336.604	-32.26
336.817	25.09
337.029	10.75
337.242	-22.02
337.454	76.29
337.667	20.99
337.88	117.25
338.092	64
338.305	0.51
338.517	2.56
338.729	88.57
338.942	147.97
339.154	-65.02
339.367	-69.12
339.579	49.66
339.792	-19.97
340.004	86.53
340.217	-26.11
340.429	-5.63
340.641	-65.02
340.854	25.09
341.066	18.94
341.278	72.19
341.491	123.39
341.703	-24.06
341.915	-22.02
342.128	8.7
342.34	76.29
342.552	12.8
342.764	66.05
342.977	-9.73
343.189	41.47
343.401	33.28
343.613	-60.93
343.826	61.95
344.038	-85.5
344.25	57.86
344.462	-13.82
344.674	-3.58
344.886	53.76
345.099	76.29
345.311	76.29
345.523	8.7
345.735	-89.6
345.947	33.28
346.159	49.66
346.371	66.05
346.583	-40.45
346.795	174.59
347.007	-5.63
347.219	53.76
347.431	-1.54
347.643	104.96
347.855	66.05
348.067	84.48
348.279	-56.83
348.491	-9.73
348.703	68.09
348.915	70.14
349.127	-24.06
349.339	107.01
349.551	-5.63
349.763	129.53
349.975	61.95
350.187	90.62
350.399	102.91
350.61	70.14
350.822	-9.73
351.034	0.51
351.246	109.05
351.458	53.76
351.669	70.14
351.881	29.18
352.093	129.53
352.305	76.29
352.517	39.42
352.728	166.4
352.94	27.14
353.152	6.66
353.363	-38.4
353.575	29.18
353.787	98.81
353.999	143.87
354.21	158.21
354.422	-52.74
354.633	-73.21
354.845	27.14
355.057	35.33
355.268	33.28
355.48	96.77
355.692	-38.4
355.903	2.56
356.115	-32.26
356.326	-122.37
356.538	150.01
356.749	94.72
356.961	145.92
357.172	33.28
357.384	-54.78
357.595	168.45
357.807	-62.98
358.018	6.66
358.23	76.29
358.441	70.14
358.653	66.05
358.864	31.23
359.075	-65.02
359.287	41.47
359.498	68.09
359.709	147.97
359.921	51.71
360.132	39.42
360.344	-32.26
360.555	-19.97
360.766	45.57
360.977	-19.97
361.189	29.18
361.4	43.52
361.611	107.01
361.823	121.34
362.034	25.09
362.245	-26.11
362.456	23.04
362.667	88.57
362.879	-11.78
363.09	-58.88
363.301	37.38
363.512	37.38
363.723	-44.54
363.935	-58.88
364.146	18.94
364.357	23.04
364.568	39.42
364.779	-62.98
364.99	127.49
365.201	-165.37
365.412	92.67
365.623	-69.12
365.834	25.09
366.045	-7.68
366.256	6.66
366.467	51.71
366.678	-34.3
366.889	39.42
367.1	-52.74
367.311	72.19
367.522	4.61
367.733	35.33
367.944	98.81
368.155	61.95
368.366	61.95
368.577	111.1
368.788	117.25
368.999	-75.26
369.209	107.01
369.42	168.45
369.631	162.3
369.842	64
370.053	-1.54
370.264	39.42
370.474	-7.68
370.685	86.53
370.896	-9.73
371.107	37.38
371.317	37.38
371.528	4.61
371.739	88.57
371.95	51.71
372.16	156.16
372.371	-32.26
372.582	25.09
372.792	59.9
373.003	51.71
373.214	78.33
373.424	61.95
373.635	-15.87
373.846	109.05
374.056	-32.26
374.267	16.9
374.477	64
374.688	-97.79
374.898	37.38
375.109	51.71
375.319	-15.87
375.53	139.77
375.74	98.81
375.951	41.47
376.161	53.76
376.372	147.97
376.582	-7.68
376.793	-22.02
377.003	-13.82
377.214	-11.78
377.424	57.86
377.635	10.75
377.845	-24.06
378.055	119.29
378.266	-30.21
378.476	43.52
378.686	20.99
378.897	27.14
379.107	72.19
379.317	64
379.528	-89.6
379.738	135.68
379.948	-128.51
380.158	72.19
380.369	61.95
380.579	84.48
380.789	-26.11
380.999	12.8
381.21	53.76
381.42	150.01
381.63	-40.45
381.84	35.33
382.05	16.9
382.261	137.73
382.471	53.76
382.681	-83.45
382.891	186.88
383.101	-36.35
383.311	-58.88
383.521	-24.06
383.731	25.09
383.941	53.76
384.151	90.62
384.361	-19.97
384.571	18.94
384.781	23.04
384.991	115.2
385.201	117.25
385.411	14.85
385.621	66.05
385.831	14.85
386.041	-46.59
386.251	102.91
386.461	90.62
386.671	64
386.881	111.1
387.091	31.23
387.301	47.62
387.511	-7.68
387.72	53.76
387.93	74.24
388.14	-54.78
388.35	57.86
388.56	78.33
388.769	64
388.979	86.53
389.189	14.85
389.399	41.47
389.609	-36.35
389.818	133.63
390.028	14.85
390.238	59.9
390.447	2.56
390.657	125.44
390.867	88.57
391.076	-11.78
391.286	49.66
391.496	31.23
391.705	80.38
391.915	90.62
392.125	90.62
392.334	25.09
392.544	117.25
392.753	27.14
392.963	-56.83
393.172	33.28
393.382	20.99
393.591	154.11
393.801	20.99
394.01	197.12
394.22	78.33
394.429	-83.45
394.639	-13.82
394.848	90.62
395.058	70.14
395.267	18.94
395.477	53.76
395.686	59.9
395.895	223.74
396.105	211.45
396.314	61.95
396.524	-42.5
396.733	12.8
396.942	33.28
397.152	88.57
397.361	129.53
397.57	-19.97
397.78	-32.26
397.989	35.33
398.198	154.11
398.407	-9.73
398.617	-24.06
398.826	29.18
399.035	61.95
399.244	160.25
399.453	25.09
399.663	57.86
399.872	31.23
400.081	-99.84
400.29	125.44
400.499	-7.68
400.708	143.87
400.917	-40.45
401.127	70.14
401.336	39.42
401.545	127.49
401.754	104.96
401.963	88.57
402.172	25.09
402.381	-40.45
402.59	29.18
402.799	25.09
403.008	145.92
403.217	-19.97
403.426	109.05
403.635	-91.65
403.844	39.42
404.053	-79.36
404.262	20.99
404.471	203.26
404.68	20.99
404.888	-24.06
405.097	20.99
405.306	113.15
405.515	-9.73
405.724	39.42
405.933	104.96
406.142	39.42
406.35	59.9
406.559	-34.3
406.768	41.47
406.977	104.96
407.185	-9.73
407.394	111.1
407.603	-9.73
407.812	20.99
408.02	135.68
408.229	47.62
408.438	64
408.646	-34.3
408.855	-7.68
409.064	80.38
409.272	-1.54
409.481	37.38
409.69	-46.59
409.898	-89.6
410.107	-36.35
410.315	98.81
410.524	-22.02
410.733	14.85
410.941	27.14
411.15	51.71
411.358	-13.82
411.567	150.01
411.775	27.14
411.984	72.19
412.192	39.42
412.401	-1.54
412.609	127.49
412.818	37.38
413.026	72.19
413.234	51.71
413.443	70.14
413.651	-22.02
413.86	39.42
414.068	102.91
414.276	141.82
414.485	-42.5
414.693	102.91
414.901	211.45
415.11	27.14
415.318	33.28
415.526	-44.54
415.734	78.33
415.943	4.61
416.151	109.05
416.359	49.66
416.567	20.99
416.776	72.19
416.984	47.62
417.192	227.84
417.4	47.62
417.608	-40.45
417.817	-22.02
418.025	55.81
418.233	170.49
418.441	-85.5
418.649	-22.02
418.857	6.66
419.065	88.57
419.273	39.42
419.481	39.42
419.689	-15.87
419.897	8.7
420.105	-56.83
420.313	143.87
420.521	139.77
420.729	111.1
420.937	-112.13
421.145	-54.78
421.353	178.69
421.561	152.06
421.769	68.09
421.977	-46.59
422.185	53.76
422.393	96.77
422.601	100.86
422.809	125.44
423.017	10.75
423.224	20.99
423.432	-62.98
423.64	18.94
423.848	162.3
424.056	27.14
424.263	162.3
424.471	-19.97
424.679	68.09
424.887	0.51
425.094	82.43
425.302	45.57
425.51	33.28
425.718	4.61
425.925	59.9
426.133	-13.82
426.341	172.54
426.548	64
426.756	-26.11
426.964	70.14
427.171	-56.83
427.379	37.38
427.586	-30.21
427.794	147.97
428.001	86.53
428.209	111.1
428.417	123.39
428.624	117.25
428.832	76.29
429.039	74.24
429.247	61.95
429.454	64
429.662	213.5
429.869	111.1
430.076	55.81
430.284	107.01
430.491	111.1
430.699	158.21
430.906	145.92
431.114	143.87
431.321	66.05
431.528	78.33
431.736	143.87
431.943	66.05
432.15	190.97
432.358	186.88
432.565	231.93
432.772	-19.97
432.979	147.97
433.187	68.09
433.394	223.74
433.601	-1.54
433.808	127.49
434.016	291.32
434.223	256.51
434.43	141.82
434.637	219.64
434.844	211.45
435.052	164.35
435.259	205.31
435.466	195.07
435.673	195.07
435.88	303.61
436.087	305.66
436.294	246.27
436.501	195.07
436.708	180.73
436.915	272.89
437.122	305.66
437.329	190.97
437.537	186.88
437.743	215.55
437.95	385.53
438.157	197.12
438.364	250.36
438.571	342.52
438.778	227.84
438.985	264.7
439.192	426.49
439.399	266.75
439.606	313.85
439.813	530.94
440.02	446.97
440.227	522.74
440.433	403.96
440.64	461.3
440.847	377.34
441.054	412.15
441.261	666.1
441.467	479.74
441.674	492.02
441.881	582.14
442.088	475.64
442.294	489.98
442.501	594.42
442.708	598.52
442.914	567.8
443.121	629.24
443.328	700.92
443.534	768.5
443.741	659.96
443.948	645.62
444.154	868.85
444.361	809.46
444.568	860.66
444.774	864.75
444.981	725.49
445.187	885.23
445.394	889.33
445.6	854.51
445.807	967.15
446.013	965.11
446.22	1014.26
446.426	1044.98
446.633	1186.29
446.839	1276.4
447.046	1110.51
447.252	1245.68
447.459	1294.83
447.665	1296.88
447.871	1427.95
448.078	1585.64
448.284	1532.39
448.491	1567.21
448.697	1710.57
448.903	1794.53
449.11	1671.65
449.316	1739.24
449.522	1815.01
449.728	1905.12
449.935	1905.12
450.141	1919.46
450.347	2093.54
450.553	2122.21
450.76	2122.21
450.966	2226.65
451.172	2347.48
451.378	2302.43
451.584	2550.23
451.791	2656.73
451.997	2740.69
452.203	2724.31
452.409	2855.38
452.615	3129.81
452.821	3011.03
453.027	2978.26
453.233	3381.71
453.44	3219.92
453.646	3432.91
453.852	3613.13
454.058	3707.34
454.264	3895.75
454.47	4143.55
454.676	4327.87
454.882	4528.57
455.088	4295.1
455.294	4587.96
455.5	4807.09
455.705	5110.19
455.911	5122.48
456.117	5120.43
456.323	5439.92
456.529	5472.68
456.735	5847.46
456.941	6013.35
457.147	6322.59
457.352	6355.36
457.558	6506.91
457.764	7031.19
457.97	7377.3
458.176	7616.91
458.381	7639.44
458.587	7934.34
458.793	8376.7
458.999	8335.74
459.204	9439.6
459.41	9857.39
459.616	9724.27
459.821	10258.79
460.027	10660.19
460.233	11037.02
460.438	11192.66
460.644	11862.35
460.85	12032.33
461.055	12464.45
461.261	12927.29
461.466	12587.33
461.672	12835.13
461.878	14410.02
462.083	14266.66
462.289	14670.11
462.494	15094.04
462.7	15343.89
462.905	15544.59
463.111	16656.64
463.316	17631.47
463.522	17606.9
463.727	18555.11
463.932	18946.27
464.138	19740.88
464.343	20476.1
464.549	20631.75
464.754	22511.78
464.959	22851.75
465.165	22984.87
465.37	22753.44
465.575	22534.31
465.781	24365.2
465.986	25387.13
466.191	24662.15
466.397	24819.85
466.602	24418.44
466.807	26085.49
467.012	26484.84
467.218	26646.63
467.423	26650.73
467.628	27183.2
467.833	29151.3
468.038	28563.53
468.244	27701.34
468.449	29642.81
468.654	28964.93
468.859	28835.91
469.064	28960.84
469.269	27930.71
469.474	28342.35
469.679	29591.61
469.885	28479.57
470.09	29124.68
470.295	28809.29
470.5	28010.58
470.705	28485.71
470.91	27682.91
471.115	27373.66
471.32	27623.51
471.525	27691.1
471.73	26910.82
471.935	26787.94
472.139	25526.39
472.344	25815.16
472.549	25679.99
472.754	25157.76
472.959	24486.03
473.164	23808.15
473.369	23265.44
473.574	24219.79
473.778	23591.06
473.983	23167.13
474.188	22769.83
474.393	21504.18
474.598	21790.9
474.802	21016.77
475.007	20658.37
475.212	20791.49
475.417	19855.57
475.621	19515.61
475.826	19513.56
476.031	19001.57
476.235	18770.15
476.44	18440.42
476.645	18256.11
476.849	17647.86
477.054	17537.27
477.259	17076.48
477.463	17117.43
477.668	16623.87
477.872	16644.35
478.077	16181.51
478.282	15681.81
478.486	15487.25
478.691	15536.4
478.895	15165.72
479.1	15317.27
479.304	15034.65
479.509	14358.82
479.713	14948.64
479.918	14483.75
480.122	14217.51
480.326	14035.24
480.531	14123.3
480.735	13947.18
480.94	13826.35
481.144	14141.74
481.348	13549.87
481.553	13523.25
481.757	13125.94
481.961	13343.03
482.166	13570.35
482.37	13226.29
482.574	12753.21
482.778	13048.12
482.983	13185.33
483.187	13013.31
483.391	12861.76
483.595	12626.24
483.8	12325.19
484.004	12476.74
484.208	12470.59
484.412	12218.69
484.616	12048.71
484.821	11995.46
485.025	11524.43
485.229	11688.27
485.433	11446.61
485.637	11411.79
485.841	11145.56
486.045	11098.45
486.249	11080.02
486.453	10703.2
486.657	10629.47
486.861	10305.89
487.065	10117.48
487.269	10387.81
487.473	9800.04
487.677	9908.58
487.881	10142.05
488.085	9531.76
488.289	9357.68
488.493	9116.02
488.697	9021.81
488.901	8874.36
489.105	8767.87
489.309	8743.29
489.512	8653.18
489.716	8388.99
489.92	8276.35
490.124	8118.66
490.328	8114.56
490.531	7754.12
490.735	7631.24
490.939	7539.08
491.143	7410.06
491.346	7283.09
491.55	7197.07
491.754	7131.54
491.958	6893.97
492.161	6764.95
492.365	6785.43
492.569	6543.77
492.772	6549.92
492.976	6537.63
493.18	6437.28
493.383	6255.01
493.587	6388.13
493.79	6166.95
493.994	6123.94
494.197	6054.31
494.401	5970.34
494.605	5921.19
494.808	5734.82
495.012	5767.59
495.215	5847.46
495.419	5808.55
495.622	5679.53
495.825	5554.6
496.029	5491.12
496.232	5661.1
496.436	5515.69
496.639	5700.01
496.843	5530.03
497.046	5657
497.249	5757.35
497.453	5773.74
497.656	5577.13
497.859	5700.01
498.063	5536.17
498.266	5673.39
498.469	5585.32
498.673	5470.64
498.876	5550.51
499.079	5597.61
499.282	5499.31
499.485	5847.46
499.689	5884.33
499.892	5734.82
500.095	5636.52
500.298	5898.66
500.501	5878.18
500.705	5923.24
500.908	5958.05
501.111	6037.92
501.314	6228.38
501.517	6234.53
501.72	6035.88
501.923	6232.48
502.126	6320.54
502.329	6381.98
502.532	6539.68
502.735	6449.57
502.938	6615.45
503.141	6726.04
503.344	6676.89
503.547	6850.97
503.75	6939.03
503.953	6912.41
504.156	7004.57
504.359	7260.56
504.562	7223.7
504.765	7311.76
504.968	7551.37
505.17	7647.63
505.373	7575.95
505.576	7930.25
505.779	7862.66
505.982	7920.01
506.185	8200.58
506.387	8302.98
506.59	8612.22
506.793	8634.75
506.996	8776.06
507.198	9025.91
507.401	9187.7
507.604	9400.69
507.807	9646.44
508.009	9810.28
508.212	9955.69
508.415	9910.63
508.617	10178.92
508.82	10365.28
509.022	10285.41
509.225	10778.97
509.428	11172.18
509.63	11358.55
509.833	11477.33
510.035	12020.04
510.238	11845.96
510.44	12130.63
510.643	12599.62
510.845	12804.41
511.048	12751.17
511.25	13367.6
511.453	13394.23
511.655	13855.02
511.858	14080.3
512.06	14797.09
512.262	14661.92
512.465	15034.65
512.667	15255.83
512.87	15726.86
513.072	16175.37
513.274	16746.75
513.477	16834.82
513.679	17068.28
513.881	17418.49
514.084	18174.19
514.286	17965.29
514.488	18655.46
514.69	19407.06
514.893	19480.79
515.095	19695.83
515.297	20512.97
515.499	20588.74
515.701	21278.91
515.904	21582.01
516.106	22077.62
516.308	22456.49
516.51	22935.71
516.712	23077.02
516.914	23488.67
517.116	24174.74
517.318	24506.51
517.52	24950.92
517.722	25321.6
517.925	25720.95
518.127	26318.96
518.329	27146.34
518.531	26765.42
518.733	27340.89
518.935	28031.06
519.136	28420.17
519.338	28831.82
519.54	29354.05
519.742	29968.44
519.944	29968.44
520.146	30707.76
520.348	30894.12
520.55	31229.99
520.752	31268.9
520.954	32401.43
521.155	32184.34
521.357	32772.11
521.559	33021.96
521.761	34062.33
521.963	33966.07
522.164	34281.46
522.366	34451.44
522.568	34865.13
522.77	35098.6
522.971	35616.74
523.173	35227.62
523.375	35915.74
523.576	35751.9
523.778	35858.4
523.98	36530.13
524.181	36394.96
524.383	36323.29
524.584	36743.12
524.786	36700.11
524.988	36622.29
525.189	37169.1
525.391	36884.43
525.592	37111.75
525.794	37062.6
525.995	37076.94
526.197	37078.99
526.398	37457.86
526.6	36706.26
526.801	36745.17
527.003	37042.12
527.204	36311
527.406	36911.05
527.607	36325.33
527.808	36544.47
528.01	35987.42
528.211	35774.43
528.412	35704.8
528.614	35692.51
528.815	35276.77
529.016	35641.31
529.218	34820.08
529.419	34600.94
529.62	34074.62
529.822	33763.32
530.023	33447.94
530.224	33417.22
530.425	32948.23
530.626	32288.79
530.828	31762.46
531.029	32614.41
531.23	31346.72
531.431	30941.22
531.632	31070.25
531.833	30593.07
532.035	30232.63
532.236	29777.98
532.437	29255.75
532.638	29036.61
532.839	28778.57
533.04	28477.52
533.241	27695.19
533.442	28010.58
533.643	27228.26
533.844	27146.34
534.045	26921.06
534.246	26144.88
534.447	25833.59
534.648	25733.24
534.849	25219.2
535.05	24731.78
535.251	24404.11
535.451	24098.96
535.652	23920.79
535.853	23466.14
536.054	23457.95
536.255	22915.23
536.456	22571.18
536.657	22548.65
536.857	22091.95
537.058	21670.07
537.259	21602.49
537.46	20969.66
537.66	20689.09
537.861	20515.01
538.062	20510.92
538.263	20263.11
538.463	19751.12
538.664	19534.04
538.865	19458.26
539.065	19167.45
539.266	18966.75
539.466	18796.77
539.667	18462.95
539.868	18204.91
540.068	17846.51
540.269	17813.74
540.469	17866.99
540.67	17324.28
540.87	17330.42
541.071	16941.31
541.271	16974.08
541.472	16496.9
541.672	16443.65
541.873	16101.64
542.073	15759.63
542.274	16007.44
542.474	15628.56
542.675	15436.05
542.875	15423.76
543.075	15065.37
543.276	14940.44
543.476	14922.01
543.676	14512.42
543.877	14397.73
544.077	14281
544.277	14266.66
544.478	14088.49
544.678	13957.42
544.878	13711.66
545.078	13465.91
545.279	13453.62
545.479	12933.43
545.679	13142.33
545.879	13011.26
546.079	12808.51
546.28	12650.81
546.48	12347.72
546.68	12435.78
546.88	12372.29
547.08	12155.21
547.28	12140.87
547.48	11520.34
547.68	11729.23
547.88	11317.59
548.081	11342.16
548.281	11231.57
548.481	11059.54
548.681	10901.85
548.881	10690.91
549.081	10629.47
549.28	10582.37
549.48	10426.72
549.68	10131.81
549.88	10131.81
550.08	9924.97
550.28	9761.13
550.48	9763.18
550.68	9699.69
550.88	9419.12
551.08	9228.66
551.279	9251.19
551.479	8862.07
551.679	9050.49
551.879	8731
552.079	8655.23
552.278	8417.66
552.478	8626.56
552.678	8307.07
552.878	8319.36
553.077	7995.78
553.277	7821.7
553.477	7922.06
553.676	7856.52
553.876	7436.69
554.076	7299.47
554.275	7463.31
554.475	7217.55
554.674	7139.73
554.874	6959.51
555.074	6834.58
555.273	6697.37
555.473	6683.03
555.672	6492.57
555.872	6551.96
556.071	6371.74
556.271	6240.67
556.47	6085.03
556.67	5962.15
556.869	6001.06
557.068	5880.23
557.268	5583.27
557.467	5673.39
557.667	5579.18
557.866	5556.65
558.065	5347.76
558.265	5323.18
558.464	5188.02
558.663	5241.26
558.863	5251.5
559.062	5067.19
559.261	4723.13
559.461	4909.49
559.66	4592.06
559.859	4694.46
560.058	4469.18
560.258	4452.8
560.457	4438.46
560.656	4524.47
560.855	4182.46
561.054	4297.15
561.253	4172.22
561.453	4305.34
561.652	4123.07
561.851	4055.49
562.05	3885.51
562.249	3897.8
562.448	3822.02
562.647	3772.87
562.846	3705.29
563.045	3715.53
563.244	3545.55
563.443	3645.9
563.642	3453.39
563.841	3480.01
564.04	3389.9
564.239	3289.55
564.438	3277.26
564.637	3174.86
564.836	3176.91
565.035	3060.18
565.234	3152.34
565.432	3092.94
565.631	2992.59
565.83	2957.78
566.029	2965.97
566.228	2933.2
566.427	2879.96
566.625	2669.02
566.824	2773.46
567.023	2638.3
567.222	2642.39
567.42	2474.46
567.619	2697.69
567.818	2527.71
568.016	2609.62
568.215	2439.64
568.414	2609.62
568.612	2400.73
568.811	2390.49
569.01	2259.42
569.208	2271.71
569.407	2232.8
569.605	2261.47
569.804	2187.74
570.002	2173.41
570.201	2116.06
570.4	2169.31
570.598	2011.62
570.797	2064.86
570.995	1991.14
571.193	1995.23
571.392	2060.77
571.59	1841.64
571.789	1905.12
571.987	1948.13
572.186	1952.23
572.384	1909.22
572.582	1796.58
572.781	1778.15
572.979	1589.74
573.177	1708.52
573.376	1710.57
573.574	1702.37
573.772	1645.03
573.971	1561.06
574.169	1468.91
574.367	1642.98
574.565	1565.16
574.763	1575.4
574.962	1456.62
575.16	1493.48
575.358	1456.62
575.556	1407.47
575.754	1511.91
575.952	1395.18
576.151	1364.46
576.349	1266.16
576.547	1272.3
576.745	1208.81
576.943	1329.64
577.141	1223.15
577.339	1098.22
577.537	1264.11
577.735	1231.34
577.933	1317.36
578.131	1061.36
578.329	1309.16
578.527	1139.18
578.725	1137.13
578.923	942.58
579.121	1165.81
579.319	860.66
579.516	944.63
579.714	1133.04
579.912	1049.07
580.11	891.38
580.308	999.92
580.506	858.61
580.704	756.21
580.901	778.74
581.099	1053.17
581.297	834.04
581.495	897.52
581.692	864.75
581.89	909.81
582.088	811.51
582.285	817.65
582.483	780.79
582.681	850.42
582.878	745.97
583.076	803.32
583.274	819.7
583.471	852.47
583.669	795.12
583.866	700.92
584.064	682.49
584.262	662.01
584.459	614.9
584.657	698.87
584.854	725.49
585.052	676.34
585.249	672.25
585.447	682.49
585.644	602.61
585.841	735.73
586.039	692.73
586.236	725.49
586.434	551.42
586.631	596.47
586.828	565.75
587.026	621.05
587.223	485.88
587.42	492.02
587.618	588.28
587.815	565.75
588.012	573.94
588.21	575.99
588.407	492.02
588.604	610.81
588.801	469.5
588.999	518.65
589.196	639.48
589.393	440.83
589.59	543.22
589.787	510.46
589.984	524.79
590.182	526.84
590.379	403.96
590.576	420.35
590.773	453.11
590.97	401.91
591.167	596.47
591.364	528.89
591.561	457.21
591.758	555.51
591.955	465.4
592.152	432.63
592.349	473.59
592.546	473.59
592.743	393.72
592.94	436.73
593.137	506.36
593.334	455.16
593.531	461.3
593.727	514.55
593.924	512.5
594.121	401.91
594.318	449.02
594.515	438.78
594.712	633.33
594.908	575.99
595.105	371.19
595.302	575.99
595.499	506.36
595.696	625.14
595.892	500.22
596.089	555.51
596.286	512.5
596.482	578.04
596.679	639.48
596.876	516.6
597.072	655.86
597.269	553.46
597.466	582.14
597.662	567.8
597.859	606.71
598.055	610.81
598.252	608.76
598.448	696.82
598.645	819.7
598.841	797.17
599.038	899.57
599.234	932.34
599.431	872.95
599.627	838.13
599.824	975.35
600.02	815.6
600.217	809.46
600.413	1026.54
600.609	948.72
600.806	1294.83
601.002	1145.33
601.198	1044.98
601.395	1174
601.591	1208.81
601.787	1239.53
601.984	1305.07
602.18	1343.98
602.376	1294.83
602.572	1528.3
602.769	1524.2
602.965	1552.87
603.161	1591.78
603.357	1645.03
603.553	1855.97
603.75	1708.52
603.946	1851.88
604.142	1868.26
604.338	2066.91
604.534	2048.48
604.73	2245.09
604.926	2128.35
605.122	2361.82
605.318	2298.33
605.514	2556.38
605.71	2431.45
605.906	2583
606.102	2574.81
606.298	2783.7
606.494	2748.89
606.69	2918.87
606.886	3021.27
607.082	2961.87
607.278	3062.23
607.474	3207.63
607.67	3242.45
607.866	3303.89
608.062	3428.81
608.257	3576.27
608.453	3629.51
608.649	3748.29
608.845	3686.86
609.041	3805.64
609.236	3889.6
609.432	4231.62
609.628	4309.44
609.824	4331.97
610.019	4366.78
610.215	4587.96
610.411	4929.97
610.606	4841.91
610.802	4710.84
610.998	5167.54
611.193	5386.67
611.389	5241.26
611.584	5521.84
611.78	5382.57
611.976	5958.05
612.171	6066.6
612.367	5927.33
612.562	6144.42
612.758	6148.51
612.953	6476.19
613.149	6775.19
613.344	6861.21
613.539	7229.84
613.735	7344.53
613.93	7426.45
614.126	7696.78
614.321	7979.4
614.517	8227.2
614.712	8173.96
614.907	8290.69
615.103	8663.42
615.298	8931.7
615.493	8950.14
615.688	9122.16
615.884	9660.78
616.079	9591.15
616.274	9988.46
616.47	10236.26
616.665	10633.57
616.86	10715.48
617.055	10873.18
617.25	11272.53
617.445	11583.82
617.641	11649.36
617.836	12173.64
618.031	12081.48
618.226	12884.28
618.421	13171
618.616	13504.82
618.811	13392.18
619.006	13918.51
619.201	14106.92
619.396	14637.34
619.591	14731.55
619.786	15485.2
619.981	15417.62
620.176	15982.86
620.371	15866.13
620.566	16292.1
620.761	16797.95
620.956	17303.8
621.151	17412.34
621.346	18022.64
621.541	17613.04
621.735	18323.69
621.93	18548.96
622.125	19316.95
622.32	19265.75
622.515	19816.66
622.709	20074.7
622.904	20584.65
623.099	20947.14
623.294	21311.67
623.488	21612.73
623.683	22349.99
623.878	22161.58
624.072	22890.66
624.267	22915.23
624.462	23566.49
624.656	23650.46
624.851	24359.05
625.046	24357
625.24	24723.59
625.435	25157.76
625.629	25544.83
625.824	25858.17
626.018	26445.93
626.213	25882.74
626.407	26706.02
626.602	26663.02
626.796	27441.25
626.991	27494.49
627.185	27625.56
627.38	27600.99
627.574	28352.59
627.768	28139.6
627.963	28465.23
628.157	28555.34
628.352	28774.47
628.546	28319.82
628.74	28930.12
628.935	28815.43
629.129	28764.23
629.323	28794.95
629.517	28190.8
629.712	28395.6
629.906	28102.74
630.1	27564.12
630.294	27727.96
630.489	27107.43
630.683	27254.88
630.877	26353.77
631.071	25802.87
631.265	25677.94
631.459	25532.54
631.653	24969.35
631.848	24219.79
632.042	23627.93
632.236	23206.05
632.43	22683.81
632.624	22010.03
632.818	21201.08
633.012	20660.42
633.206	20121.8
633.4	19693.78
633.594	18579.68
633.788	18313.45
633.982	17635.57
634.176	17121.53
634.369	16578.82
634.563	15769.87
634.757	14928.16
634.951	14807.33
635.145	14235.94
635.339	13556.02
635.533	13009.21
635.726	12505.41
635.92	11716.94
636.114	11553.1
636.308	10946.9
636.501	10615.13
636.695	10242.4
636.889	9574.77
637.083	9326.96
637.276	8812.92
637.47	8446.34
637.664	8282.5
637.857	7948.68
638.051	7598.48
638.244	7221.65
638.438	7063.96
638.632	7000.47
638.825	6394.27
639.019	6220.19
639.212	6044.07
639.406	5812.65
639.599	5552.56
639.793	5259.7
639.986	4962.74
640.18	5099.95
640.373	4823.48
640.567	4610.49
640.76	4389.31
640.954	4358.59
641.147	3856.84
641.34	3912.13
641.534	3799.49
641.727	3787.21
641.92	3363.28
642.114	3412.43
642.307	3262.93
642.5	3015.12
642.694	2912.72
642.887	2873.81
643.08	2965.97
643.273	2730.45
643.467	2595.29
643.66	2359.77
643.853	2208.22
644.046	2288.09
644.239	2177.5
644.432	1968.61
644.626	1862.12
644.819	1925.6
645.012	1788.39
645.205	1950.18
645.398	1837.54
645.591	1618.41
645.784	1409.51
645.977	1432.04
646.17	1425.9
646.363	1516.01
646.556	1255.92
646.749	1307.12
646.942	1255.92
647.135	1214.96
647.328	1176.05
647.521	1198.57
647.714	1022.45
647.907	1092.08
648.099	956.91
648.292	1071.6
648.485	1008.11
648.678	850.42
648.871	825.84
649.064	883.19
649.256	696.82
649.449	856.56
649.642	707.06
649.835	680.44
650.027	604.66
650.22	727.54
650.413	643.57
650.605	649.72
650.798	446.97
650.991	526.84
651.183	567.8
651.376	559.61
651.568	592.37
651.761	530.94
651.954	489.98
652.146	485.88
652.339	557.56
652.531	487.93
652.724	352.76
652.916	420.35
653.109	262.65
653.301	479.74
653.494	510.46
653.686	346.62
653.879	412.15
654.071	408.06
654.263	281.08
654.456	285.18
654.648	498.17
654.84	377.34
655.033	279.04
655.225	393.72
655.417	172.54
655.61	436.73
655.802	381.43
655.994	375.29
656.186	207.36
656.379	342.52
656.571	213.5
656.763	176.64
656.955	152.06
657.148	229.88
657.34	279.04
657.532	203.26
657.724	168.45
657.916	233.98
658.108	244.22
658.3	283.13
658.492	236.03
658.684	74.24
658.876	276.99
659.068	39.42
659.26	180.73
659.452	229.88
659.644	207.36
659.836	281.08
660.028	70.14
660.22	121.34
660.412	111.1
660.604	98.81
660.796	176.64
660.988	221.69
661.18	154.11
661.372	174.59
661.563	205.31
661.755	209.4
661.947	55.81
662.139	152.06
662.331	248.32
662.522	109.05
662.714	104.96
662.906	70.14
663.097	102.91
663.289	4.61
663.481	88.57
663.673	213.5
663.864	147.97
664.056	223.74
664.247	86.53
664.439	211.45
664.631	233.98
664.822	238.08
665.014	135.68
665.205	2.56
665.397	94.72
665.588	162.3
665.78	152.06
665.971	201.21
666.163	72.19
666.354	233.98
666.546	164.35
666.737	127.49
666.929	-11.78
667.12	129.53
667.311	162.3
667.503	111.1
667.694	92.67
667.885	174.59
668.077	80.38
668.268	-15.87
668.459	111.1
668.651	154.11
668.842	121.34
669.033	33.28
669.224	47.62
669.416	256.51
669.607	29.18
669.798	25.09
669.989	174.59
670.18	98.81
670.371	127.49
670.563	20.99
670.754	225.79
670.945	150.01
671.136	160.25
671.327	72.19
671.518	199.16
671.709	162.3
671.9	80.38
672.091	215.55
672.282	115.2
672.473	68.09
672.664	55.81
672.855	123.39
673.046	133.63
673.237	143.87
673.428	92.67
673.619	147.97
673.809	14.85
674	293.37
674.191	203.26
674.382	182.78
674.573	133.63
674.764	154.11
674.954	195.07
675.145	76.29
675.336	64
675.527	70.14
675.717	123.39
675.908	86.53
676.099	188.93
676.289	111.1
676.48	0.51
676.671	98.81
676.861	193.02
677.052	150.01
677.243	121.34
677.433	41.47
677.624	156.16
677.814	184.83
678.005	88.57
678.195	213.5
678.386	137.73
678.576	184.83
678.767	64
678.957	98.81
679.148	309.76
679.338	297.47
679.529	193.02
679.719	102.91
679.909	260.6
680.1	279.04
680.29	195.07
680.481	90.62
680.671	211.45
680.861	252.41
681.052	248.32
681.242	172.54
681.432	266.75
681.622	256.51
681.813	61.95
682.003	213.5
682.193	125.44
682.383	205.31
682.573	184.83
682.764	113.15
682.954	197.12
683.144	285.18
683.334	221.69
683.524	205.31
683.714	281.08
683.904	293.37
684.094	127.49
684.284	129.53
684.474	209.4
684.664	225.79
684.854	223.74
685.044	145.92
685.234	174.59
685.424	317.95
685.614	86.53
685.804	334.33
685.994	262.65
686.184	199.16
686.374	203.26
686.564	217.6
686.753	201.21
686.943	137.73
687.133	135.68
687.323	205.31
687.513	252.41
687.702	246.27
687.892	211.45
688.082	365.05
688.272	354.81
688.461	184.83
688.651	358.91
688.841	320
689.03	244.22
689.22	250.36
689.41	211.45
689.599	332.28
689.789	98.81
689.979	293.37
690.168	199.16
690.358	258.56
690.547	190.97
690.737	174.59
690.926	258.56
691.116	279.04
691.305	231.93
691.495	266.75
691.684	150.01
691.874	125.44
692.063	199.16
692.252	270.84
692.442	289.28
692.631	197.12
692.82	197.12
693.01	193.02
693.199	236.03
693.388	147.97
693.578	160.25
693.767	250.36
693.956	272.89
694.146	143.87
694.335	246.27
694.524	193.02
694.713	262.65
694.902	129.53
695.092	115.2
695.281	285.18
695.47	256.51
695.659	188.93
695.848	129.53
696.037	168.45
696.226	256.51
696.415	188.93
696.604	252.41
696.793	172.54
696.982	158.21
697.171	283.13
697.36	131.58
697.549	217.6
697.738	80.38
697.927	180.73
698.116	86.53
698.305	258.56
698.494	178.69
698.683	289.28
698.872	264.7
699.061	137.73
699.25	168.45
699.438	168.45
699.627	152.06
699.816	315.9
700.005	143.87
700.193	147.97
700.382	190.97
700.571	188.93
700.76	186.88
700.948	264.7
701.137	180.73
701.326	223.74
701.514	113.15
701.703	258.56
701.892	264.7
702.08	305.66
702.269	213.5
702.457	162.3
702.646	172.54
702.834	174.59
703.023	213.5
703.212	238.08
703.4	176.64
703.589	172.54
703.777	219.64
703.965	125.44
704.154	168.45
704.342	96.77
704.531	221.69
704.719	205.31
704.907	238.08
705.096	59.9
705.284	172.54
705.472	160.25
705.661	170.49
705.849	147.97
706.037	223.74
706.226	127.49
706.414	221.69
706.602	57.86
706.79	176.64
706.979	141.82
707.167	107.01
707.355	102.91
707.543	250.36
707.731	190.97
707.919	113.15
708.107	129.53
708.296	184.83
708.484	125.44
708.672	139.77
708.86	242.17
709.048	203.26
709.236	133.63
709.424	238.08
709.612	205.31
709.8	86.53
709.988	150.01
710.176	205.31
710.364	268.8
710.551	215.55
710.739	145.92
710.927	154.11
711.115	201.21
711.303	233.98
711.491	217.6
711.679	115.2
711.866	246.27
712.054	156.16
712.242	170.49
712.43	293.37
712.617	152.06
712.805	266.75
712.993	80.38
713.181	27.14
713.368	199.16
713.556	199.16
713.744	168.45
713.931	334.33
714.119	238.08
714.306	166.4
714.494	139.77
714.682	199.16
714.869	141.82
715.057	133.63
715.244	72.19
715.432	197.12
715.619	150.01
715.807	178.69
715.994	147.97
716.182	209.4
716.369	240.12
716.556	236.03
716.744	74.24
716.931	47.62
717.119	238.08
717.306	219.64
717.493	154.11
717.681	119.29
717.868	264.7
718.055	231.93
718.242	195.07
718.43	201.21
718.617	248.32
718.804	225.79
718.991	299.52
719.179	231.93
719.366	236.03
719.553	248.32
719.74	233.98
719.927	180.73
720.114	252.41
720.301	219.64
720.488	139.77
720.676	145.92
720.863	248.32
721.05	252.41
721.237	227.84
721.424	295.42
721.611	219.64
721.798	137.73
721.985	121.34
722.172	250.36
722.358	156.16
722.545	281.08
722.732	211.45
722.919	336.38
723.106	248.32
723.293	221.69
723.48	168.45
723.667	231.93
723.853	225.79
724.04	295.42
724.227	285.18
724.414	182.78
724.6	268.8
724.787	434.68
724.974	401.91
725.161	205.31
725.347	158.21
725.534	221.69
725.72	279.04
725.907	242.17
726.094	213.5
726.28	229.88
726.467	244.22
726.653	164.35
726.84	291.32
727.027	315.9
727.213	254.46
727.4	295.42
727.586	260.6
727.773	279.04
727.959	246.27
728.145	303.61
728.332	227.84
728.518	254.46
728.705	315.9
728.891	279.04
729.077	276.99
729.264	123.39
729.45	283.13
729.636	276.99
729.823	299.52
730.009	305.66
730.195	227.84
730.382	313.85
730.568	223.74
730.754	258.56
730.94	297.47
731.126	309.76
731.313	369.15
731.499	258.56
731.685	344.57
731.871	287.23
732.057	248.32
732.243	373.24
732.429	352.76
732.615	369.15
732.801	324.09
732.987	330.23
733.173	291.32
733.359	174.59
733.545	414.2
733.731	164.35
733.917	436.73
734.103	227.84
734.289	330.23
734.475	258.56
734.661	502.26
734.847	276.99
735.033	201.21
735.219	363
735.404	317.95
735.59	301.56
735.776	260.6
735.962	365.05
736.148	365.05
736.333	313.85
736.519	264.7
736.705	289.28
736.89	242.17
737.076	256.51
737.262	285.18
737.447	236.03
737.633	270.84
737.819	463.35
738.004	258.56
738.19	377.34
738.375	336.38
738.561	389.63
738.747	332.28
738.932	244.22
739.118	360.95
739.303	389.63
739.489	303.61
739.674	272.89
739.859	244.22
740.045	307.71
740.23	377.34
740.416	143.87
740.601	299.52
740.786	291.32
740.972	332.28
741.157	276.99
741.342	254.46
741.528	209.4
741.713	434.68
741.898	317.95
742.084	266.75
742.269	373.24
742.454	483.83
742.639	393.72
742.824	344.57
743.01	272.89
743.195	465.4
743.38	340.47
743.565	344.57
743.75	305.66
743.935	360.95
744.12	336.38
744.305	166.4
744.49	383.48
744.675	320
744.86	297.47
745.045	373.24
745.23	354.81
745.415	371.19
745.6	406.01
745.785	211.45
745.97	322.04
746.155	420.35
746.34	442.87
746.525	279.04
746.71	434.68
746.895	264.7
747.079	188.93
747.264	338.43
747.449	387.58
747.634	328.19
747.819	369.15
748.003	266.75
748.188	236.03
748.373	324.09
748.557	285.18
748.742	322.04
748.927	254.46
749.111	274.94
749.296	240.12
749.481	344.57
749.665	299.52
749.85	250.36
750.034	311.8
750.219	281.08
750.404	266.75
750.588	244.22
750.773	217.6
750.957	320
751.141	201.21
751.326	332.28
751.51	215.55
751.695	250.36
751.879	209.4
752.064	348.67
752.248	219.64
752.432	334.33
752.617	258.56
752.801	307.71
752.985	254.46
753.17	315.9
753.354	156.16
753.538	320
753.722	166.4
753.907	184.83
754.091	121.34
754.275	336.38
754.459	143.87
754.643	127.49
754.828	270.84
755.012	289.28
755.196	133.63
755.38	209.4
755.564	174.59
755.748	209.4
755.932	279.04
756.116	274.94
756.3	244.22
756.484	137.73
756.668	201.21
756.852	111.1
757.036	166.4
757.22	238.08
757.404	195.07
757.588	178.69
757.772	217.6
757.956	158.21
758.14	320
758.323	180.73
758.507	242.17
758.691	139.77
758.875	260.6
759.059	264.7
759.242	96.77
759.426	184.83
759.61	197.12
759.794	80.38
759.977	178.69
760.161	373.24
760.345	317.95
760.528	236.03
760.712	213.5
760.895	168.45
761.079	186.88
761.263	88.57
761.446	125.44
761.63	162.3
761.813	176.64
761.997	100.86
762.18	86.53
762.364	217.6
762.547	70.14
762.731	172.54
762.914	160.25
763.098	145.92
763.281	150.01
763.464	178.69
763.648	82.43
763.831	100.86
764.015	111.1
764.198	209.4
764.381	145.92
764.564	125.44
764.748	160.25
764.931	184.83
765.114	104.96
765.297	174.59
765.481	61.95
765.664	201.21
765.847	66.05
766.03	258.56
766.213	70.14
766.397	172.54
766.58	29.18
766.763	199.16
766.946	121.34
767.129	94.72
767.312	61.95
767.495	135.68
767.678	150.01
767.861	123.39
768.044	90.62
768.227	43.52
768.41	80.38
768.593	86.53
768.776	150.01
768.959	137.73
769.142	246.27
769.324	61.95
769.507	156.16
769.69	64
769.873	147.97
770.056	276.99
770.239	25.09
770.421	174.59
770.604	35.33
770.787	139.77
770.97	45.57
771.152	-87.55
771.335	121.34
771.518	139.77
771.7	223.74
771.883	205.31
772.066	113.15
772.248	178.69
772.431	154.11
772.613	66.05
772.796	107.01
772.978	166.4
773.161	201.21
773.343	25.09
773.526	111.1
773.708	-26.11
773.891	4.61
774.073	37.38
774.256	78.33
774.438	178.69
774.621	55.81
774.803	133.63
774.985	66.05
775.168	102.91
775.35	96.77
775.532	82.43
775.715	53.76
775.897	49.66
776.079	4.61
776.261	90.62
776.444	94.72
776.626	78.33
776.808	43.52
776.99	4.61
777.173	109.05
777.355	4.61
777.537	14.85
777.719	107.01
777.901	72.19
778.083	61.95
778.265	-7.68
778.447	156.16
778.629	6.66
778.811	37.38
778.993	154.11
779.175	107.01
779.357	96.77
779.539	8.7
779.721	107.01
779.903	53.76
780.085	82.43
780.267	102.91
780.449	78.33
780.631	25.09
780.812	119.29
780.994	111.1
781.176	64
781.358	-54.78
781.54	35.33
781.721	115.2
781.903	121.34
782.085	23.04
782.267	141.82
782.448	-44.54
782.63	14.85
782.812	88.57
782.993	64
783.175	55.81
783.357	-32.26
783.538	84.48
783.72	12.8
783.901	55.81
784.083	158.21
784.264	68.09
784.446	-44.54
784.627	-48.64
784.809	45.57
784.99	53.76
785.172	41.47
785.353	33.28
785.535	33.28
785.716	57.86
785.897	-44.54
786.079	4.61
786.26	43.52
786.441	45.57
786.623	-22.02
786.804	29.18
786.985	29.18
787.167	107.01
787.348	55.81
787.529	78.33
787.71	166.4
787.891	113.15
788.073	10.75
788.254	-56.83
788.435	147.97
788.616	49.66
788.797	-42.5
788.978	6.66
789.159	6.66
789.34	0.51
789.522	66.05
789.703	-44.54
789.884	80.38
790.065	-19.97
790.246	109.05
790.427	-34.3
790.607	133.63
790.788	96.77
790.969	-24.06
791.15	33.28
791.331	-77.31
791.512	-93.69
791.693	35.33
791.874	25.09
792.054	176.64
792.235	84.48
792.416	-34.3
792.597	31.23
792.778	115.2
792.958	8.7
793.139	23.04
793.32	49.66
793.5	-95.74
793.681	82.43
793.862	47.62
794.042	74.24
794.223	-146.94
794.404	-1.54
794.584	-62.98
794.765	29.18
794.945	4.61
795.126	-15.87
795.306	117.25
795.487	4.61
795.667	-13.82
795.848	66.05
796.028	-28.16
796.209	74.24
796.389	33.28
796.57	-38.4
796.75	12.8
796.93	-11.78
797.111	12.8
797.291	-11.78
797.471	96.77
797.652	-9.73
797.832	-38.4
798.012	82.43
798.192	31.23
798.373	6.66
798.553	-5.63
798.733	147.97
798.913	-85.5
799.093	-36.35
799.274	51.71
799.454	20.99
799.634	41.47
799.814	111.1
799.994	16.9
800.174	-7.68
800.354	20.99
800.534	-69.12
800.714	84.48
800.894	-19.97
801.074	-99.84
801.254	-73.21
801.434	80.38
801.614	-3.58
801.794	2.56
801.974	1702.37
802.154	-48.64
802.334	70.14
802.514	-40.45
802.693	-9.73
802.873	-28.16
803.053	113.15
803.233	41.47
803.413	96.77
803.592	57.86
803.772	-48.64
803.952	41.47
804.131	-77.31
804.311	-11.78
804.491	55.81
804.67	-30.21
804.85	-24.06
805.03	84.48
805.209	51.71
805.389	-75.26
805.568	27.14
805.748	37.38
805.928	20.99
806.107	33.28
806.287	-69.12
806.466	18.94
806.646	2.56
806.825	-46.59
807.004	-48.64
807.184	4.61
807.363	59.9
807.543	12.8
807.722	-87.55
807.901	61.95
808.081	-11.78
808.26	-110.08
808.439	8.7
808.619	-30.21
808.798	16.9
808.977	16.9
809.156	88.57
809.336	-9.73
809.515	94.72
809.694	-65.02
809.873	18.94
810.052	49.66
810.231	90.62
810.411	49.66
810.59	55.81
810.769	-22.02
810.948	45.57
811.127	-146.94
811.306	-32.26
811.485	-3.58
811.664	115.2
811.843	82.43
812.022	-19.97
812.201	-9.73
812.38	27.14
812.559	-65.02
812.737	53.76
812.916	-101.89
813.095	-58.88
813.274	29.18
813.453	55.81
813.632	20.99
813.811	8.7
813.989	-48.64
814.168	18.94
814.347	-24.06
814.526	8.7
814.704	78.33
814.883	61.95
815.062	-48.64
815.24	66.05
815.419	-62.98
815.598	53.76
815.776	-126.46
815.955	2.56
816.133	-122.37
816.312	53.76
816.49	-11.78
816.669	-24.06
816.847	-62.98
817.026	25.09
817.204	8.7
817.383	-1.54
817.561	-28.16
817.74	-1.54
817.918	4.61
818.097	-46.59
818.275	-110.08
818.453	12.8
818.632	82.43
818.81	29.18
818.988	-91.65
819.167	-30.21
819.345	43.52
819.523	-30.21
819.701	70.14
819.879	14.85
820.058	55.81
820.236	4.61
820.414	-69.12
820.592	-28.16
820.77	-22.02
820.948	84.48
821.127	-103.93
821.305	90.62
821.483	-30.21
821.661	-15.87
821.839	20.99
822.017	-54.78
822.195	-56.83
822.373	80.38
822.551	-32.26
822.729	90.62
822.907	-79.36
823.085	6.66
823.262	8.7
823.44	-22.02
823.618	-95.74
823.796	-22.02
823.974	-9.73
824.152	-5.63
824.329	-13.82
824.507	-58.88
824.685	66.05
824.863	-46.59
825.04	-26.11
825.218	-36.35
825.396	18.94
825.574	-56.83
825.751	-17.92
825.929	66.05
826.107	-26.11
826.284	-44.54
826.462	0.51
826.639	-114.17
826.817	-71.17
826.994	43.52
827.172	-97.79
827.349	84.48
827.527	90.62
827.704	-1.54
827.882	57.86
828.059	18.94
828.237	-24.06
828.414	-11.78
828.591	-81.41
828.769	-71.17
828.946	-60.93
829.124	84.48
829.301	66.05
829.478	-11.78
829.655	64
829.833	27.14
830.01	-159.23
830.187	33.28
830.364	-1.54
830.542	23.04
830.719	141.82
830.896	16.9
831.073	-24.06
831.25	-46.59
831.427	45.57
831.604	47.62
831.782	-15.87
831.959	-28.16
832.136	0.51
832.313	-50.69
832.49	-26.11
832.667	-40.45
832.844	-38.4
833.021	111.1
833.198	10.75
833.374	-81.41
833.551	-17.92
833.728	-32.26
833.905	37.38
834.082	-79.36
834.259	6.66
834.436	107.01
834.612	-62.98
834.789	-46.59
834.966	0.51
835.143	35.33
835.319	-146.94
835.496	6.66
835.673	47.62
835.85	18.94
836.026	39.42
836.203	96.77
836.38	25.09
836.556	-13.82
836.733	-24.06
836.909	117.25
837.086	-38.4
837.262	-120.32
837.439	-24.06
837.616	-85.5
837.792	-28.16
837.968	-1.54
838.145	-89.6
838.321	-44.54
838.498	-5.63
838.674	20.99
838.851	-24.06
839.027	-60.93
839.203	-44.54
839.38	14.85
839.556	-71.17
839.732	10.75
839.909	88.57
840.085	20.99
840.261	-134.65
840.437	-24.06
840.614	18.94
840.79	-28.16
840.966	43.52
841.142	-5.63
841.318	-73.21
841.494	20.99
841.671	53.76
841.847	-97.79
842.023	-110.08
842.199	61.95
842.375	90.62
842.551	-65.02
842.727	-110.08
842.903	143.87
843.079	-67.07
843.255	41.47
843.431	-24.06
843.607	12.8
843.783	-103.93
843.959	18.94
844.134	-34.3
844.31	23.04
844.486	-32.26
844.662	-1.54
844.838	-5.63
845.013	-3.58
845.189	70.14
845.365	-24.06
845.541	-11.78
845.716	-62.98
845.892	90.62
846.068	-126.46
846.244	-40.45
846.419	-24.06
846.595	-50.69
846.77	-9.73
846.946	78.33
847.122	-87.55
847.297	-56.83
847.473	74.24
847.648	-83.45
847.824	51.71
847.999	-101.89
848.175	-1.54
848.35	-36.35
848.526	16.9
848.701	82.43
848.876	111.1
849.052	82.43
849.227	-24.06
849.403	4.61
849.578	-19.97
849.753	29.18
849.929	-34.3
850.104	-75.26
850.279	35.33
850.454	78.33
850.63	76.29
850.805	-108.03
850.98	16.9
851.155	-56.83
851.33	-9.73
851.505	-83.45
851.681	29.18
851.856	-65.02
852.031	-26.11
852.206	39.42
852.381	-105.98
852.556	-83.45
852.731	-44.54
852.906	68.09
853.081	-9.73
853.256	117.25
853.431	-24.06
853.606	-89.6
853.781	-15.87
853.956	-187.9
854.131	-52.74
854.305	-73.21
854.48	-24.06
854.655	-44.54
854.83	-130.56
855.005	-83.45
855.18	16.9
855.354	29.18
855.529	39.42
855.704	-28.16
855.879	-15.87
856.053	-85.5
856.228	-28.16
856.403	-48.64
856.577	29.18
856.752	-97.79
856.926	-62.98
857.101	25.09
857.276	-65.02
857.45	-11.78
857.625	2.56
857.799	-58.88
857.974	-24.06
858.148	-169.47
858.323	-1.54
858.497	-17.92
858.672	-44.54
858.846	-69.12
859.02	-30.21
859.195	-13.82
859.369	41.47
859.543	-50.69
859.718	64
859.892	-26.11
860.066	35.33
860.241	-58.88
860.415	-77.31
860.589	-3.58
860.763	-34.3
860.938	-89.6
861.112	29.18
861.286	-42.5
861.46	100.86
861.634	57.86
861.808	43.52
861.982	-85.5
862.157	-165.37
862.331	-32.26
862.505	-144.89
862.679	-136.7
862.853	-60.93
863.027	-120.32
863.201	111.1
863.375	-38.4
863.549	18.94
863.722	43.52
863.896	70.14
864.07	-71.17
864.244	-46.59
864.418	102.91
864.592	-62.98
864.766	-65.02
864.939	-11.78
865.113	-58.88
865.287	94.72
865.461	-91.65
865.634	86.53
865.808	-71.17
865.982	-67.07
866.156	-83.45
866.329	-163.33
866.503	2.56
866.676	0.51
866.85	-30.21
867.024	-91.65
867.197	-7.68
867.371	-44.54
867.544	-48.64
867.718	-167.42
867.891	41.47
868.065	-79.36
868.238	-52.74
868.412	-17.92
868.585	14.85
868.759	-67.07
868.932	4.61
869.105	-85.5
869.279	16.9
869.452	-79.36
869.625	-73.21
869.799	14.85
869.972	-171.52
870.145	-52.74
870.319	59.9
870.492	-110.08
870.665	-93.69
870.838	-81.41
871.011	-73.21
871.185	-50.69
871.358	-126.46
871.531	53.76
871.704	-73.21
871.877	41.47
872.05	23.04
872.223	-71.17
872.396	66.05
872.569	41.47
872.742	-132.61
872.915	-36.35
873.088	12.8
873.261	-34.3
873.434	29.18
873.607	-87.55
873.78	102.91
873.953	-105.98
874.126	-9.73
874.299	-36.35
874.471	-9.73
874.644	-7.68
874.817	94.72
874.99	98.81
875.163	33.28
875.335	-28.16
875.508	-93.69
875.681	4.61
875.853	-75.26
876.026	-110.08
876.199	31.23
876.371	0.51
876.544	-99.84
876.717	29.18
876.889	-50.69
877.062	72.19
877.234	-56.83
877.407	-3.58
877.579	-44.54
877.752	-44.54
877.924	8.7
878.097	-79.36
878.269	6.66
878.442	-50.69
878.614	2.56
878.786	-11.78
878.959	12.8
879.131	18.94
879.303	-134.65
879.476	-17.92
879.648	90.62
879.82	-17.92
879.993	-13.82
880.165	-5.63
880.337	-48.64
880.509	-54.78
880.681	-126.46
880.854	-46.59
881.026	29.18
881.198	113.15
881.37	4.61
881.542	-44.54
881.714	-48.64
881.886	-93.69
882.058	25.09
882.23	31.23
882.402	-40.45
882.574	2.56
882.746	20.99
882.918	115.2
883.09	31.23
883.262	-71.17
883.434	2.56
883.606	-146.94
883.778	-1.54
883.95	53.76
884.122	-17.92
884.293	18.94
884.465	-42.5
884.637	43.52
884.809	-46.59
884.98	16.9
885.152	-3.58
885.324	-38.4
885.496	-148.99
885.667	-85.5
885.839	-85.5
886.011	70.14
886.182	43.52
886.354	59.9
886.525	-65.02
886.697	27.14
886.869	-28.16
887.04	-130.56
887.212	25.09
887.383	66.05
887.555	-19.97
887.726	-85.5
887.897	-95.74
888.069	-83.45
888.24	4.61
888.412	-46.59
888.583	14.85
888.754	-34.3
888.926	-173.57
889.097	-69.12
889.268	-140.8
889.44	0.51
889.611	-126.46
889.782	-103.93
889.953	-105.98
890.125	88.57
890.296	-28.16
890.467	-44.54
890.638	-40.45
890.809	-1.54
890.98	-26.11
891.151	49.66
891.323	78.33
891.494	16.9
891.665	-52.74
891.836	-93.69
892.007	-46.59
892.178	37.38
892.349	20.99
892.52	-65.02
892.691	-85.5
892.862	-22.02
893.032	-81.41
893.203	-95.74
893.374	8.7
893.545	70.14
893.716	0.51
893.887	25.09
894.057	-83.45
894.228	-32.26
894.399	-24.06
894.57	70.14
894.74	-3.58
894.911	37.38
895.082	12.8
895.253	6.66
895.423	-1.54
895.594	74.24
895.764	53.76
895.935	-103.93
896.106	35.33
896.276	-58.88
896.447	-81.41
896.617	-60.93
896.788	-132.61
896.958	-15.87
897.129	-15.87
897.299	6.66
897.47	131.58
897.64	86.53
897.81	-44.54
897.981	-24.06
898.151	-42.5
898.322	25.09
898.492	-17.92
898.662	-132.61
898.832	45.57
899.003	-34.3
899.173	-3.58
899.343	-112.13
899.513	-83.45
