Data from USB4F104151__81__09-30-46-287.txt Node

Date: Wed Feb 26 09:30:46 EST 2025
User: louis
Spectrometer: USB4F10415
Trigger mode: 4
Integration Time (sec): 1.000000E-1
Scans to average: 1
Electric dark correction enabled: true
Nonlinearity correction enabled: false
Boxcar width: 0
XAxis mode: Wavelengths
Number of Pixels in Spectrum: 3648
>>>>>Begin Spectral Data<<<<<
178.204	-354.47
178.424	-354.47
178.644	-354.47
178.864	-374.95
179.084	-364.71
179.304	8.02
179.524	-75.95
179.744	-10.41
179.964	-26.79
180.184	73.56
180.404	46.93
180.624	-10.41
180.844	-4.27
181.064	-63.66
181.283	30.55
181.503	-18.6
181.723	51.03
181.943	-108.71
182.163	145.24
182.383	-55.47
182.602	30.55
182.822	34.64
183.042	12.12
183.262	-108.71
183.482	71.51
183.701	10.07
183.921	44.88
184.141	-129.19
184.361	18.26
184.58	112.47
184.8	112.47
185.02	-16.55
185.239	130.9
185.459	12.12
185.679	102.23
185.898	-110.76
186.118	46.93
186.338	67.41
186.557	108.37
186.777	-37.03
186.997	-34.99
187.216	12.12
187.436	202.58
187.655	67.41
187.875	59.22
188.095	-75.95
188.314	96.08
188.534	106.32
188.753	-59.56
188.973	73.56
189.192	137.04
189.412	46.93
189.631	120.66
189.851	38.74
190.07	44.88
190.29	-133.29
190.509	8.02
190.729	-41.13
190.948	126.8
191.168	218.96
191.387	44.88
191.607	-22.7
191.826	24.4
192.045	-32.94
192.265	20.31
192.484	44.88
192.704	48.98
192.923	-84.14
193.142	184.15
193.362	100.18
193.581	51.03
193.8	69.46
194.02	24.4
194.239	77.65
194.458	-4.27
194.678	10.07
194.897	20.31
195.116	30.55
195.335	-0.17
195.555	96.08
195.774	-6.31
195.993	116.56
196.212	14.17
196.432	14.17
196.651	-18.6
196.87	51.03
197.089	155.47
197.308	30.55
197.528	96.08
197.747	-12.46
197.966	55.12
198.185	108.37
198.404	-86.19
198.623	85.84
198.842	83.8
199.062	77.65
199.281	73.56
199.5	55.12
199.719	46.93
199.938	91.99
200.157	51.03
200.376	122.71
200.595	63.32
200.814	130.9
201.033	-51.37
201.252	130.9
201.471	91.99
201.69	135
201.909	24.4
202.128	77.65
202.347	34.64
202.566	-34.99
202.785	-98.47
203.004	-41.13
203.223	186.19
203.442	46.93
203.661	-26.79
203.879	30.55
204.098	108.37
204.317	-34.99
204.536	38.74
204.755	51.03
204.974	114.52
205.193	28.5
205.411	104.28
205.63	122.71
205.849	53.08
206.068	53.08
206.287	-8.36
206.505	190.29
206.724	3.93
206.943	22.36
207.162	-6.31
207.381	79.7
207.599	20.31
207.818	44.88
208.037	-49.32
208.255	16.21
208.474	1.88
208.693	59.22
208.911	-77.99
209.13	77.65
209.349	61.27
209.567	79.7
209.786	42.84
210.005	16.21
210.223	18.26
210.442	-28.84
210.661	-43.18
210.879	46.93
211.098	22.36
211.316	-18.6
211.535	61.27
211.753	-28.84
211.972	83.8
212.191	-100.52
212.409	20.31
212.628	118.61
212.846	3.93
213.065	-0.17
213.283	73.56
213.502	-6.31
213.72	28.5
213.938	46.93
214.157	48.98
214.375	-10.41
214.594	22.36
214.812	46.93
215.031	5.97
215.249	34.64
215.467	71.51
215.686	16.21
215.904	36.69
216.122	-10.41
216.341	151.38
216.559	36.69
216.778	81.75
216.996	130.9
217.214	-92.33
217.432	-6.31
217.651	-18.6
217.869	38.74
218.087	65.36
218.306	10.07
218.524	67.41
218.742	53.08
218.96	44.88
219.179	-34.99
219.397	-10.41
219.615	218.96
219.833	12.12
220.051	-43.18
220.27	8.02
220.488	-18.6
220.706	38.74
220.924	-22.7
221.142	-41.13
221.36	87.89
221.578	53.08
221.796	26.45
222.015	-39.08
222.233	-10.41
222.451	102.23
222.669	-77.99
222.887	83.8
223.105	26.45
223.323	-51.37
223.541	-63.66
223.759	18.26
223.977	55.12
224.195	118.61
224.413	147.28
224.631	40.79
224.849	1.88
225.067	153.43
225.285	-28.84
225.503	-10.41
225.721	-98.47
225.939	-37.03
226.157	108.37
226.375	243.54
226.592	51.03
226.81	-47.27
227.028	157.52
227.246	104.28
227.464	75.6
227.682	108.37
227.9	102.23
228.117	48.98
228.335	-0.17
228.553	18.26
228.771	42.84
228.989	61.27
229.206	55.12
229.424	42.84
229.642	-30.89
229.86	-10.41
230.077	75.6
230.295	34.64
230.513	77.65
230.731	-10.41
230.948	159.57
231.166	75.6
231.384	-4.27
231.601	-104.62
231.819	89.94
232.037	18.26
232.254	-53.42
232.472	-12.46
232.689	-16.55
232.907	120.66
233.125	-55.47
233.342	-30.89
233.56	1.88
233.777	1.88
233.995	61.27
234.213	38.74
234.43	67.41
234.648	12.12
234.865	22.36
235.083	104.28
235.3	79.7
235.518	69.46
235.735	225.11
235.953	71.51
236.17	16.21
236.388	-26.79
236.605	10.07
236.822	91.99
237.04	130.9
237.257	83.8
237.475	-12.46
237.692	44.88
237.909	110.42
238.127	30.55
238.344	87.89
238.562	20.31
238.779	-90.28
238.996	-51.37
239.214	14.17
239.431	139.09
239.648	55.12
239.865	-0.17
240.083	42.84
240.3	-32.94
240.517	-49.32
240.735	67.41
240.952	61.27
241.169	24.4
241.386	-6.31
241.603	-45.23
241.821	-141.48
242.038	124.76
242.255	-28.84
242.472	-2.22
242.689	10.07
242.907	159.57
243.124	63.32
243.341	-34.99
243.558	-12.46
243.775	-71.85
243.992	-18.6
244.209	67.41
244.426	100.18
244.643	32.6
244.86	5.97
245.078	14.17
245.295	28.5
245.512	-2.22
245.729	26.45
245.946	26.45
246.163	55.12
246.38	-80.04
246.597	30.55
246.814	28.5
247.031	-30.89
247.248	32.6
247.464	51.03
247.681	87.89
247.898	32.6
248.115	16.21
248.332	-22.7
248.549	-43.18
248.766	120.66
248.983	71.51
249.2	38.74
249.417	46.93
249.633	32.6
249.85	22.36
250.067	-28.84
250.284	36.69
250.501	51.03
250.717	34.64
250.934	-22.7
251.151	-6.31
251.368	-53.42
251.585	71.51
251.801	-86.19
252.018	1.88
252.235	57.17
252.451	-30.89
252.668	69.46
252.885	44.88
253.102	55.12
253.318	-4.27
253.535	8.02
253.752	-34.99
253.968	18.26
254.185	-55.47
254.401	69.46
254.618	46.93
254.835	-61.61
255.051	104.28
255.268	102.23
255.484	3.93
255.701	61.27
255.917	102.23
256.134	46.93
256.351	-22.7
256.567	-45.23
256.784	22.36
257	-67.75
257.217	24.4
257.433	53.08
257.65	-2.22
257.866	114.52
258.082	-86.19
258.299	55.12
258.515	8.02
258.732	-18.6
258.948	-6.31
259.165	36.69
259.381	16.21
259.597	51.03
259.814	-18.6
260.03	-20.65
260.246	32.6
260.463	118.61
260.679	132.95
260.895	18.26
261.112	22.36
261.328	61.27
261.544	38.74
261.761	55.12
261.977	-53.42
262.193	-34.99
262.409	59.22
262.626	30.55
262.842	67.41
263.058	-61.61
263.274	57.17
263.49	10.07
263.707	61.27
263.923	40.79
264.139	-16.55
264.355	71.51
264.571	63.32
264.787	69.46
265.004	51.03
265.22	26.45
265.436	-8.36
265.652	-20.65
265.868	91.99
266.084	-12.46
266.3	32.6
266.516	28.5
266.732	51.03
266.948	69.46
267.164	-10.41
267.38	20.31
267.596	38.74
267.812	75.6
268.028	-10.41
268.244	-41.13
268.46	-10.41
268.676	3.93
268.892	42.84
269.108	-51.37
269.324	-65.71
269.54	-10.41
269.756	94.04
269.972	-30.89
270.188	22.36
270.403	-18.6
270.619	20.31
270.835	75.6
271.051	57.17
271.267	22.36
271.483	-47.27
271.698	46.93
271.914	110.42
272.13	87.89
272.346	-84.14
272.562	34.64
272.777	67.41
272.993	-45.23
273.209	-71.85
273.425	71.51
273.64	-57.51
273.856	3.93
274.072	18.26
274.287	57.17
274.503	14.17
274.719	75.6
274.934	51.03
275.15	-39.08
275.366	28.5
275.581	79.7
275.797	55.12
276.012	18.26
276.228	-20.65
276.444	-32.94
276.659	94.04
276.875	-47.27
277.09	10.07
277.306	75.6
277.521	24.4
277.737	-0.17
277.952	-61.61
278.168	22.36
278.383	10.07
278.599	3.93
278.814	77.65
279.03	-18.6
279.245	153.43
279.461	-37.03
279.676	44.88
279.892	-34.99
280.107	-51.37
280.322	-98.47
280.538	53.08
280.753	-22.7
280.969	-6.31
281.184	-2.22
281.399	116.56
281.615	65.36
281.83	-8.36
282.045	-88.23
282.26	16.21
282.476	81.75
282.691	89.94
282.906	42.84
283.122	20.31
283.337	-51.37
283.552	-10.41
283.767	-88.23
283.983	87.89
284.198	57.17
284.413	10.07
284.628	-55.47
284.843	44.88
285.058	96.08
285.274	-6.31
285.489	-34.99
285.704	-2.22
285.919	46.93
286.134	-10.41
286.349	-57.51
286.564	5.97
286.779	69.46
286.995	-4.27
287.21	-67.75
287.425	100.18
287.64	-98.47
287.855	94.04
288.07	-51.37
288.285	102.23
288.5	104.28
288.715	79.7
288.93	-4.27
289.145	-6.31
289.36	71.51
289.575	-0.17
289.79	89.94
290.004	44.88
290.219	42.84
290.434	-71.85
290.649	-0.17
290.864	83.8
291.079	-8.36
291.294	-61.61
291.509	28.5
291.724	-28.84
291.938	-84.14
292.153	-16.55
292.368	5.97
292.583	53.08
292.798	77.65
293.012	-22.7
293.227	30.55
293.442	-8.36
293.657	59.22
293.871	98.13
294.086	40.79
294.301	200.53
294.516	20.31
294.73	12.12
294.945	-63.66
295.16	-24.75
295.374	165.71
295.589	94.04
295.804	28.5
296.018	-28.84
296.233	38.74
296.447	5.97
296.662	8.02
296.877	44.88
297.091	55.12
297.306	69.46
297.52	-24.75
297.735	79.7
297.949	-53.42
298.164	112.47
298.378	-6.31
298.593	-65.71
298.807	-28.84
299.022	28.5
299.236	165.71
299.451	-30.89
299.665	18.26
299.88	75.6
300.094	46.93
300.309	10.07
300.523	-10.41
300.737	46.93
300.952	14.17
301.166	-16.55
301.381	14.17
301.595	46.93
301.809	30.55
302.024	-86.19
302.238	1.88
302.452	102.23
302.667	-18.6
302.881	46.93
303.095	122.71
303.309	-39.08
303.524	61.27
303.738	69.46
303.952	46.93
304.166	59.22
304.381	-84.14
304.595	118.61
304.809	-2.22
305.023	14.17
305.237	65.36
305.452	-37.03
305.666	89.94
305.88	55.12
306.094	169.81
306.308	91.99
306.522	3.93
306.736	28.5
306.95	116.56
307.164	36.69
307.379	10.07
307.593	79.7
307.807	128.85
308.021	65.36
308.235	12.12
308.449	-102.57
308.663	5.97
308.877	198.48
309.091	38.74
309.305	63.32
309.519	-69.8
309.733	46.93
309.947	-43.18
310.161	-4.27
310.374	16.21
310.588	69.46
310.802	-61.61
311.016	-14.51
311.23	18.26
311.444	-39.08
311.658	20.31
311.872	122.71
312.085	128.85
312.299	182.1
312.513	87.89
312.727	67.41
312.941	-63.66
313.154	34.64
313.368	20.31
313.582	20.31
313.796	-6.31
314.009	-2.22
314.223	79.7
314.437	22.36
314.651	59.22
314.864	-30.89
315.078	-51.37
315.292	-73.9
315.505	-6.31
315.719	40.79
315.933	106.32
316.146	24.4
316.36	-6.31
316.573	71.51
316.787	112.47
317.001	24.4
317.214	-53.42
317.428	32.6
317.641	-49.32
317.855	-37.03
318.068	30.55
318.282	3.93
318.495	106.32
318.709	81.75
318.922	12.12
319.136	143.19
319.349	22.36
319.563	10.07
319.776	46.93
319.99	3.93
320.203	141.14
320.417	24.4
320.63	-28.84
320.843	157.52
321.057	34.64
321.27	102.23
321.483	-0.17
321.697	100.18
321.91	-10.41
322.124	26.45
322.337	55.12
322.55	-84.14
322.763	55.12
322.977	73.56
323.19	-47.27
323.403	-39.08
323.617	5.97
323.83	130.9
324.043	-39.08
324.256	38.74
324.469	-104.62
324.683	114.52
324.896	12.12
325.109	24.4
325.322	-67.75
325.535	42.84
325.748	77.65
325.962	26.45
326.175	22.36
326.388	96.08
326.601	57.17
326.814	-4.27
327.027	77.65
327.24	91.99
327.453	-92.33
327.666	34.64
327.879	100.18
328.092	137.04
328.305	1.88
328.518	26.45
328.731	-20.65
328.944	-10.41
329.157	122.71
329.37	-57.51
329.583	91.99
329.796	108.37
330.009	-41.13
330.222	73.56
330.435	108.37
330.648	8.02
330.861	8.02
331.073	55.12
331.286	18.26
331.499	40.79
331.712	-45.23
331.925	-18.6
332.138	46.93
332.35	36.69
332.563	-43.18
332.776	159.57
332.989	-28.84
333.202	-4.27
333.414	20.31
333.627	-6.31
333.84	73.56
334.053	42.84
334.265	-6.31
334.478	26.45
334.691	10.07
334.903	22.36
335.116	-63.66
335.329	30.55
335.541	-0.17
335.754	79.7
335.966	-8.36
336.179	-14.51
336.392	-71.85
336.604	59.22
336.817	132.95
337.029	30.55
337.242	77.65
337.454	-8.36
337.667	36.69
337.88	91.99
338.092	22.36
338.305	46.93
338.517	-90.28
338.729	46.93
338.942	163.67
339.154	-47.27
339.367	-110.76
339.579	73.56
339.792	-32.94
340.004	34.64
340.217	-59.56
340.429	12.12
340.641	-51.37
340.854	-45.23
341.066	28.5
341.278	67.41
341.491	141.14
341.703	-16.55
341.915	-61.61
342.128	83.8
342.34	71.51
342.552	-26.79
342.764	46.93
342.977	16.21
343.189	22.36
343.401	26.45
343.613	-80.04
343.826	5.97
344.038	-75.95
344.25	40.79
344.462	-4.27
344.674	59.22
344.886	-6.31
345.099	-20.65
345.311	75.6
345.523	32.6
345.735	-34.99
345.947	53.08
346.159	106.32
346.371	-8.36
346.583	42.84
346.795	218.96
347.007	42.84
347.219	24.4
347.431	28.5
347.643	87.89
347.855	-39.08
348.067	186.19
348.279	-110.76
348.491	69.46
348.703	1.88
348.915	-14.51
349.127	-41.13
349.339	46.93
349.551	61.27
349.763	46.93
349.975	22.36
350.187	102.23
350.399	157.52
350.61	71.51
350.822	-37.03
351.034	40.79
351.246	12.12
351.458	112.47
351.669	5.97
351.881	77.65
352.093	112.47
352.305	112.47
352.517	55.12
352.728	-4.27
352.94	44.88
353.152	12.12
353.363	-30.89
353.575	71.51
353.787	110.42
353.999	46.93
354.21	194.39
354.422	-41.13
354.633	16.21
354.845	3.93
355.057	-49.32
355.268	38.74
355.48	44.88
355.692	-26.79
355.903	79.7
356.115	-47.27
356.326	-129.19
356.538	149.33
356.749	87.89
356.961	81.75
357.172	-10.41
357.384	-73.9
357.595	161.62
357.807	28.5
358.018	75.6
358.23	-34.99
358.441	67.41
358.653	32.6
358.864	-34.99
359.075	-18.6
359.287	24.4
359.498	32.6
359.709	20.31
359.921	69.46
360.132	73.56
360.344	-30.89
360.555	14.17
360.766	28.5
360.977	-51.37
361.189	149.33
361.4	-22.7
361.611	57.17
361.823	53.08
362.034	22.36
362.245	-41.13
362.456	10.07
362.667	51.03
362.879	-10.41
363.09	100.18
363.301	51.03
363.512	-2.22
363.723	61.27
363.935	-30.89
364.146	48.98
364.357	8.02
364.568	-43.18
364.779	-16.55
364.99	116.56
365.201	-43.18
365.412	124.76
365.623	-90.28
365.834	57.17
366.045	30.55
366.256	83.8
366.467	114.52
366.678	32.6
366.889	-10.41
367.1	-28.84
367.311	53.08
367.522	-6.31
367.733	10.07
367.944	36.69
368.155	-0.17
368.366	63.32
368.577	116.56
368.788	132.95
368.999	12.12
369.209	-10.41
369.42	153.43
369.631	239.44
369.842	124.76
370.053	10.07
370.264	102.23
370.474	-14.51
370.685	83.8
370.896	46.93
371.107	118.61
371.317	61.27
371.528	51.03
371.739	108.37
371.95	63.32
372.16	38.74
372.371	-92.33
372.582	12.12
372.792	135
373.003	-12.46
373.214	22.36
373.424	108.37
373.635	-96.43
373.846	96.08
374.056	61.27
374.267	12.12
374.477	30.55
374.688	34.64
374.898	-43.18
375.109	44.88
375.319	30.55
375.53	94.04
375.74	-10.41
375.951	12.12
376.161	-30.89
376.372	57.17
376.582	-104.62
376.793	71.51
377.003	34.64
377.214	-59.56
377.424	102.23
377.635	5.97
377.845	8.02
378.055	132.95
378.266	-118.95
378.476	-0.17
378.686	57.17
378.897	55.12
379.107	145.24
379.317	100.18
379.528	-67.75
379.738	34.64
379.948	-77.99
380.158	65.36
380.369	79.7
380.579	10.07
380.789	-2.22
380.999	51.03
381.21	63.32
381.42	100.18
381.63	32.6
381.84	63.32
382.05	96.08
382.261	22.36
382.471	79.7
382.681	12.12
382.891	167.76
383.101	85.84
383.311	-55.47
383.521	12.12
383.731	44.88
383.941	75.6
384.151	71.51
384.361	-30.89
384.571	57.17
384.781	-0.17
384.991	190.29
385.201	120.66
385.411	71.51
385.621	-8.36
385.831	120.66
386.041	18.26
386.251	-59.56
386.461	75.6
386.671	46.93
386.881	-18.6
387.091	-39.08
387.301	118.61
387.511	69.46
387.72	69.46
387.93	85.84
388.14	-80.04
388.35	40.79
388.56	46.93
388.769	69.46
388.979	12.12
389.189	-47.27
389.399	44.88
389.609	87.89
389.818	14.17
390.028	71.51
390.238	18.26
390.447	38.74
390.657	36.69
390.867	-20.65
391.076	3.93
391.286	3.93
391.496	24.4
391.705	81.75
391.915	159.57
392.125	-10.41
392.334	-59.56
392.544	126.8
392.753	-0.17
392.963	10.07
393.172	51.03
393.382	-26.79
393.591	61.27
393.801	-12.46
394.01	96.08
394.22	63.32
394.429	10.07
394.639	-53.42
394.848	79.7
395.058	-10.41
395.267	44.88
395.477	1.88
395.686	48.98
395.895	235.35
396.105	169.81
396.314	63.32
396.524	46.93
396.733	18.26
396.942	75.6
397.152	85.84
397.361	137.04
397.57	-20.65
397.78	22.36
397.989	85.84
398.198	208.72
398.407	14.17
398.617	61.27
398.826	79.7
399.035	-30.89
399.244	135
399.453	71.51
399.663	130.9
399.872	116.56
400.081	-77.99
400.29	114.52
400.499	-30.89
400.708	57.17
400.917	63.32
401.127	14.17
401.336	-34.99
401.545	141.14
401.754	51.03
401.963	63.32
402.172	-10.41
402.381	18.26
402.59	24.4
402.799	59.22
403.008	126.8
403.217	22.36
403.426	147.28
403.635	-49.32
403.844	28.5
404.053	63.32
404.262	46.93
404.471	71.51
404.68	53.08
404.888	36.69
405.097	34.64
405.306	-26.79
405.515	69.46
405.724	36.69
405.933	87.89
406.142	75.6
406.35	126.8
406.559	-45.23
406.768	-8.36
406.977	112.47
407.185	-75.95
407.394	106.32
407.603	-43.18
407.812	-6.31
408.02	169.81
408.229	-20.65
408.438	12.12
408.646	-100.52
408.855	75.6
409.064	-39.08
409.272	63.32
409.481	77.65
409.69	-18.6
409.898	22.36
410.107	71.51
410.315	85.84
410.524	-51.37
410.733	51.03
410.941	-75.95
411.15	116.56
411.358	61.27
411.567	75.6
411.775	18.26
411.984	3.93
412.192	-51.37
412.401	-108.71
412.609	130.9
412.818	71.51
413.026	28.5
413.234	22.36
413.443	77.65
413.651	-14.51
413.86	18.26
414.068	91.99
414.276	104.28
414.485	-2.22
414.693	108.37
414.901	167.76
415.11	12.12
415.318	53.08
415.526	108.37
415.734	77.65
415.943	77.65
416.151	71.51
416.359	26.45
416.567	1.88
416.776	69.46
416.984	18.26
417.192	173.91
417.4	38.74
417.608	18.26
417.817	36.69
418.025	55.12
418.233	165.71
418.441	-24.75
418.649	-4.27
418.857	-45.23
419.065	198.48
419.273	3.93
419.481	85.84
419.689	34.64
419.897	1.88
420.105	-10.41
420.313	48.98
420.521	169.81
420.729	155.47
420.937	-41.13
421.145	-51.37
421.353	81.75
421.561	159.57
421.769	124.76
421.977	5.97
422.185	132.95
422.393	22.36
422.601	104.28
422.809	3.93
423.017	65.36
423.224	-49.32
423.432	153.43
423.64	12.12
423.848	51.03
424.056	20.31
424.263	-0.17
424.471	14.17
424.679	159.57
424.887	-6.31
425.094	83.8
425.302	22.36
425.51	-34.99
425.718	126.8
425.925	81.75
426.133	-6.31
426.341	149.33
426.548	89.94
426.756	-57.51
426.964	91.99
427.171	-39.08
427.379	91.99
427.586	38.74
427.794	85.84
428.001	118.61
428.209	5.97
428.417	137.04
428.624	55.12
428.832	100.18
429.039	55.12
429.247	67.41
429.454	57.17
429.662	145.24
429.869	87.89
430.076	36.69
430.284	165.71
430.491	169.81
430.699	65.36
430.906	198.48
431.114	149.33
431.321	184.15
431.528	100.18
431.736	71.51
431.943	38.74
432.15	87.89
432.358	143.19
432.565	161.62
432.772	-24.75
432.979	184.15
433.187	171.86
433.394	218.96
433.601	165.71
433.808	186.19
434.016	255.83
434.223	239.44
434.43	184.15
434.637	225.11
434.844	147.28
435.052	214.87
435.259	182.1
435.466	259.92
435.673	194.39
435.88	284.5
436.087	237.39
436.294	388.94
436.501	280.4
436.708	264.02
436.915	245.59
437.122	372.56
437.329	210.77
437.537	304.98
437.743	300.88
437.95	327.5
438.157	261.97
438.364	280.4
438.571	319.31
438.778	464.72
438.985	290.64
439.192	354.13
439.399	448.33
439.606	372.56
439.813	479.05
440.02	497.49
440.227	526.16
440.433	405.33
440.64	534.35
440.847	474.96
441.054	532.3
441.261	583.5
441.467	577.36
441.674	468.81
441.881	583.5
442.088	522.06
442.294	646.99
442.501	616.27
442.708	741.19
442.914	733
443.121	763.72
443.328	716.62
443.534	900.94
443.741	804.68
443.948	745.29
444.154	948.04
444.361	974.66
444.568	833.35
444.774	911.18
444.981	827.21
445.187	1029.96
445.394	1083.2
445.6	1101.64
445.807	1068.87
446.013	1146.69
446.22	1111.88
446.426	1210.18
446.633	1374.02
446.839	1447.74
447.046	1290.05
447.252	1439.55
447.459	1453.89
447.665	1455.94
447.871	1523.52
448.078	1685.31
448.284	1623.87
448.491	1836.86
448.697	1789.75
448.903	1877.82
449.11	2029.37
449.316	1904.44
449.522	2037.56
449.728	2205.49
449.935	2297.65
450.141	2131.76
450.347	2527.02
450.553	2457.39
450.76	2498.35
450.966	2664.24
451.172	2619.18
451.378	2809.64
451.584	2735.92
451.791	2946.86
451.997	3077.93
452.203	3180.32
452.409	3315.49
452.615	3454.75
452.821	3360.55
453.027	3594.01
453.233	3909.4
453.44	3768.09
453.646	3745.56
453.852	4024.09
454.058	4245.27
454.264	4329.24
454.47	4736.78
454.676	4761.36
454.882	5048.07
455.088	4599.57
455.294	5246.73
455.5	5412.61
455.705	5920.51
455.911	5965.56
456.117	5879.55
456.323	6125.3
456.529	6000.38
456.735	6838
456.941	6868.72
457.147	7263.97
457.352	7319.27
457.558	7614.18
457.764	8101.59
457.97	8173.27
458.176	8568.53
458.381	9049.8
458.587	9150.15
458.793	9582.28
458.999	9526.98
459.204	10655.41
459.41	11189.93
459.616	10997.42
459.821	11802.27
460.027	12256.92
460.233	12801.68
460.438	12756.63
460.644	13530.76
460.85	13645.45
461.055	14063.23
461.261	14665.33
461.466	14651
461.672	14956.15
461.878	16727.64
462.083	16461.4
462.289	16682.58
462.494	17469
462.7	17585.74
462.905	17802.82
463.111	19244.59
463.316	20336.16
463.522	20399.65
463.727	21300.75
463.932	21872.14
464.138	22564.35
464.343	23641.58
464.549	23944.68
464.754	25601.49
464.959	26068.42
465.165	26660.29
465.37	26375.62
465.575	26619.33
465.781	28241.32
465.986	29140.38
466.191	28360.1
466.397	28968.35
466.602	28476.83
466.807	29621.65
467.012	30363.01
467.218	30756.22
467.423	31120.76
467.628	31812.98
467.833	33297.75
468.038	32996.7
468.244	32435.56
468.449	33676.63
468.654	33281.37
468.859	33279.32
469.064	33453.4
469.269	32150.89
469.474	32988.51
469.679	33369.43
469.885	32619.88
470.09	33371.48
470.295	33389.91
470.5	32734.56
470.705	32951.65
470.91	31929.71
471.115	31655.28
471.32	32157.03
471.525	32417.13
471.73	31085.95
471.935	30768.51
472.139	29595.03
472.344	30070.15
472.549	29410.71
472.754	29244.82
472.959	28681.63
473.164	27213.24
473.369	27266.49
473.574	27663.79
473.778	27248.05
473.983	26801.6
474.188	26561.98
474.393	25042.39
474.598	25411.03
474.802	24557.02
475.007	24210.92
475.212	24200.68
475.417	23000.57
475.621	22806.01
475.826	22480.38
476.031	22005.25
476.235	21489.17
476.44	21777.93
476.645	21046.8
476.849	20571.68
477.054	20723.23
477.259	19742.25
477.463	20067.88
477.668	19617.32
477.872	19570.22
478.077	18941.49
478.282	18441.79
478.486	18333.25
478.691	18241.09
478.895	17786.44
479.1	17708.62
479.304	17737.29
479.509	16995.92
479.713	17331.79
479.918	16879.19
480.122	16397.92
480.326	16524.89
480.531	16672.34
480.735	16461.4
480.94	16279.13
481.144	16637.53
481.348	15769.19
481.553	15986.27
481.757	15306.35
481.961	15660.65
482.166	15859.3
482.37	15515.24
482.574	15122.03
482.778	15132.27
482.983	15373.93
483.187	14786.16
483.391	14878.32
483.595	14601.85
483.8	14351.99
484.004	14536.31
484.208	14450.3
484.412	14153.34
484.616	14284.41
484.821	13819.52
485.025	13840
485.229	13751.94
485.433	13377.16
485.637	13504.14
485.841	13059.73
486.045	13022.86
486.249	12764.82
486.453	12357.27
486.657	12514.97
486.861	12299.93
487.065	12043.93
487.269	11853.47
487.473	11783.84
487.677	11634.34
487.881	11654.82
488.085	11155.12
488.289	10989.23
488.493	10882.74
488.697	10692.27
488.901	10516.15
489.105	10208.95
489.309	10294.97
489.512	9942.72
489.716	9889.47
489.92	9590.47
490.124	9303.75
490.328	9311.94
490.531	9006.8
490.735	8898.25
490.939	8756.94
491.143	8398.55
491.346	8457.94
491.55	8589.01
491.754	8353.49
491.958	8181.46
492.161	7972.57
492.365	7847.65
492.569	7526.11
492.772	7687.9
492.976	7687.9
493.18	7366.37
493.383	7311.08
493.587	7329.51
493.79	7098.09
493.994	6911.72
494.197	6930.16
494.401	6932.2
494.605	6883.05
494.808	6899.44
495.012	6661.87
495.215	6743.79
495.419	6715.12
495.622	6450.93
495.825	6694.64
496.029	6498.03
496.232	6631.15
496.436	6301.43
496.639	6502.13
496.843	6285.05
497.046	6362.87
497.249	6481.65
497.453	6352.63
497.656	6391.54
497.859	6393.59
498.063	6418.16
498.266	6530.8
498.469	6305.53
498.673	6350.58
498.876	6274.81
499.079	6469.36
499.282	6330.1
499.485	6829.81
499.689	6561.52
499.892	6495.99
500.095	6508.27
500.298	6614.77
500.501	6553.33
500.705	6520.56
500.908	6784.75
501.111	6743.79
501.314	6975.21
501.517	6807.28
501.72	6946.54
501.923	7042.79
502.126	7292.65
502.329	7352.04
502.532	7382.76
502.735	7401.19
502.938	7579.36
503.141	7497.44
503.344	7661.28
503.547	7816.93
503.75	7589.6
503.953	8156.89
504.156	7855.84
504.359	7954.14
504.562	8070.87
504.765	8507.09
504.968	8396.5
505.17	8658.64
505.373	8603.35
505.576	8789.71
505.779	8855.25
505.982	8881.87
506.185	9416.39
506.387	9443.01
506.59	9518.79
506.793	9725.63
506.996	9666.24
507.198	10059.45
507.401	10317.5
507.604	10366.65
507.807	10591.92
508.009	10753.71
508.212	10933.93
508.415	11187.88
508.617	11417.26
508.82	11497.13
509.022	11714.21
509.225	12183.2
509.428	11968.16
509.63	12529.3
509.833	12818.07
510.035	13293.19
510.238	13354.63
510.44	13608.58
510.643	14012.03
510.845	14325.37
511.048	14440.06
511.25	14816.88
511.453	15007.34
511.655	15949.41
511.858	15818.34
512.06	16160.35
512.262	16524.89
512.465	16668.25
512.667	17256.01
512.87	17587.78
513.072	17894.98
513.274	18515.51
513.477	18671.16
513.679	19281.46
513.881	19482.16
514.084	20018.72
514.286	20565.53
514.488	20745.75
514.69	21392.91
514.893	21822.98
515.095	22033.93
515.297	22455.81
515.499	23428.59
515.701	23684.59
515.904	24276.45
516.106	24440.29
516.308	25277.91
516.51	25775.56
516.712	25804.24
516.914	26582.46
517.116	27110.84
517.318	27321.78
517.52	28102.06
517.722	28327.33
517.925	28927.39
518.127	29703.57
518.329	29810.06
518.531	30166.41
518.733	31382.9
518.935	31479.16
519.136	31759.73
519.338	32546.15
519.54	32765.28
519.742	33324.38
519.944	33684.82
520.146	34665.8
520.348	35259.71
520.55	35136.83
520.752	35349.82
520.954	36379.95
521.155	36132.14
521.357	37240.09
521.559	37580.06
521.761	37917.97
521.963	37938.45
522.164	38571.27
522.366	38356.24
522.568	38862.08
522.77	39542.01
522.971	39714.04
523.173	39566.59
523.375	40256.75
523.576	39806.2
523.778	40242.42
523.98	40862.95
524.181	40996.07
524.383	40873.19
524.584	41262.3
524.786	41295.07
524.988	40918.24
525.189	41657.56
525.391	41772.25
525.592	41557.21
525.794	41569.5
525.995	41645.27
526.197	41100.51
526.398	41350.37
526.6	41440.48
526.801	41336.03
527.003	41303.26
527.204	41260.26
527.406	41204.96
527.607	40574.19
527.808	40490.22
528.01	39857.4
528.211	39922.93
528.412	40238.32
528.614	40275.18
528.815	39326.97
529.016	39492.86
529.218	38698.25
529.419	38829.32
529.62	38677.77
529.822	38157.58
530.023	37580.06
530.224	37166.37
530.425	37002.53
530.626	36504.87
530.828	35931.44
531.029	36224.3
531.23	35130.69
531.431	34848.07
531.632	34776.39
531.833	34528.58
532.035	33869.14
532.236	33267.03
532.437	33359.19
532.638	32755.04
532.839	32544.1
533.04	32019.82
533.241	31032.7
533.442	31731.06
533.643	31223.16
533.844	30473.6
534.045	29947.28
534.246	29167
534.447	29244.82
534.648	28644.77
534.849	28341.67
535.05	28083.62
535.251	27579.82
535.451	27086.26
535.652	26852.8
535.853	26586.56
536.054	26533.31
536.255	26189.25
536.456	25243.09
536.657	25603.53
536.857	24655.33
537.058	24552.93
537.259	24237.54
537.46	23991.78
537.66	23336.43
537.861	23244.27
538.062	23137.78
538.263	22666.75
538.463	22189.57
538.664	21843.46
538.865	21806.6
539.065	21657.1
539.266	21106.2
539.466	21294.61
539.667	20473.37
539.868	20477.47
540.068	20456.99
540.269	20014.63
540.469	20145.7
540.67	19496.49
540.87	19299.89
541.071	18923.06
541.271	18945.59
541.472	18869.81
541.672	18411.07
541.873	18241.09
542.073	17825.35
542.274	17899.08
542.474	17698.38
542.675	17421.9
542.875	17464.91
543.075	16893.52
543.276	16496.22
543.476	16778.84
543.676	16537.18
543.877	16397.92
544.077	16299.61
544.277	16109.15
544.478	15828.58
544.678	15965.79
544.878	15373.93
545.078	15371.88
545.279	15128.17
545.479	14921.33
545.679	14763.64
545.879	14802.55
546.079	14360.19
546.28	14335.61
546.48	13932.16
546.68	14120.57
546.88	14018.18
547.08	13579.91
547.28	13670.02
547.48	13117.07
547.68	13373.07
547.88	12930.7
548.081	12916.37
548.281	12570.26
548.481	12349.08
548.681	12486.29
548.881	12385.94
549.081	11986.59
549.28	11832.99
549.48	11916.96
549.68	11681.44
549.88	11697.83
550.08	11206.31
550.28	11300.52
550.48	11253.42
550.68	10962.61
550.88	10708.66
551.08	10649.27
551.279	10610.36
551.479	10167.99
551.679	10315.45
551.879	10086.08
552.079	9946.81
552.278	9649.86
552.478	9522.88
552.678	9500.36
552.878	9295.56
553.077	9137.87
553.277	8787.66
553.477	8799.95
553.676	8769.23
553.876	8593.11
554.076	8533.72
554.275	8294.1
554.475	8105.69
554.674	8173.27
554.874	7943.9
555.074	7692
555.273	7638.75
555.473	7620.32
555.672	7431.91
555.872	7306.98
556.071	7132.9
556.271	7108.33
556.47	7032.55
556.67	6672.11
556.869	6862.57
557.068	6688.5
557.268	6551.28
557.467	6416.12
557.667	6407.92
557.866	6239.99
558.065	6237.94
558.265	6033.15
558.464	5801.72
558.663	5920.51
558.863	5803.77
559.062	5684.99
559.261	5392.13
559.461	5572.35
559.66	5269.25
559.859	5267.2
560.058	5062.41
560.258	5099.27
560.457	5007.11
560.656	5066.5
560.855	4921.1
561.054	4980.49
561.253	4757.26
561.453	4763.4
561.652	4562.7
561.851	4593.42
562.05	4415.25
562.249	4359.95
562.448	4421.39
562.647	4228.88
562.846	4114.2
563.045	4282.13
563.244	4011.8
563.443	4063
563.642	3917.59
563.841	3921.69
564.04	3987.22
564.239	3856.15
564.438	3710.75
564.637	3551.01
564.836	3530.53
565.035	3698.46
565.234	3495.71
565.432	3657.5
565.631	3542.82
565.83	3442.46
566.029	3245.86
566.228	3237.67
566.427	3315.49
566.625	3045.16
566.824	3043.11
567.023	3196.71
567.222	3069.73
567.42	3159.85
567.619	2973.48
567.818	2955.05
568.016	2993.96
568.215	2823.98
568.414	2881.32
568.612	2897.71
568.811	2791.21
569.01	2797.35
569.208	2776.87
569.407	2621.23
569.605	2598.7
569.804	2617.13
570.002	2594.61
570.201	2443.06
570.4	2471.73
570.598	2387.76
570.797	2330.42
570.995	2314.03
571.193	2320.18
571.392	2377.52
571.59	2172.72
571.789	2240.31
571.987	2152.24
572.186	2182.96
572.384	2078.52
572.582	2115.38
572.781	2111.29
572.979	1920.82
573.177	2035.51
573.376	2017.08
573.574	2082.61
573.772	1873.72
573.971	1869.62
574.169	1740.6
574.367	1808.19
574.565	1890.1
574.763	1726.27
574.962	1730.36
575.16	1722.17
575.358	1455.94
575.556	1677.12
575.754	1644.35
575.952	1587.01
576.151	1562.43
576.349	1521.47
576.547	1513.28
576.745	1517.37
576.943	1515.33
577.141	1515.33
577.339	1367.87
577.537	1435.46
577.735	1353.54
577.933	1431.36
578.131	1314.63
578.329	1429.31
578.527	1337.15
578.725	1238.85
578.923	1214.27
579.121	1255.23
579.319	1056.58
579.516	1249.09
579.714	1447.74
579.912	1120.07
580.11	993.09
580.308	1083.2
580.506	1025.86
580.704	1019.72
580.901	991.05
581.099	1128.26
581.297	1019.72
581.495	1066.82
581.692	1120.07
581.89	1128.26
582.088	993.09
582.285	1025.86
582.483	978.76
582.681	1013.57
582.878	907.08
583.076	1029.96
583.274	937.8
583.471	1052.49
583.669	911.18
583.866	786.25
584.064	835.4
584.262	771.91
584.459	790.35
584.657	859.98
584.854	862.02
585.052	890.7
585.249	859.98
585.447	857.93
585.644	694.09
585.841	831.3
586.039	810.82
586.236	759.63
586.434	634.7
586.631	759.63
586.828	726.86
587.026	702.28
587.223	593.74
587.42	620.36
587.618	724.81
587.815	753.48
588.012	608.08
588.21	583.5
588.407	685.9
588.604	661.32
588.801	571.21
588.999	624.46
589.196	714.57
589.393	587.6
589.59	653.13
589.787	661.32
589.984	528.21
590.182	628.56
590.379	554.83
590.576	587.6
590.773	597.84
590.97	567.12
591.167	567.12
591.364	618.32
591.561	497.49
591.758	687.95
591.955	587.6
592.152	542.54
592.349	522.06
592.546	495.44
592.743	577.36
592.94	556.88
593.137	624.46
593.334	610.12
593.531	579.4
593.727	585.55
593.924	595.79
594.121	579.4
594.318	644.94
594.515	524.11
594.712	653.13
594.908	626.51
595.105	454.48
595.302	579.4
595.499	571.21
595.696	724.81
595.892	554.83
596.089	653.13
596.286	587.6
596.482	733
596.679	710.47
596.876	618.32
597.072	776.01
597.269	694.09
597.466	706.38
597.662	704.33
597.859	741.19
598.055	890.7
598.252	788.3
598.448	798.54
598.645	962.37
598.841	839.5
599.038	1058.63
599.234	1107.78
599.431	1075.01
599.627	1111.88
599.824	1064.77
600.02	1097.54
600.217	1189.7
600.413	1253.19
600.609	1380.16
600.806	1619.77
601.002	1408.83
601.198	1468.22
601.395	1462.08
601.591	1535.81
601.787	1617.72
601.984	1685.31
602.18	1652.54
602.376	1730.36
602.572	1900.34
602.769	2035.51
602.965	1976.12
603.161	2180.92
603.357	2211.64
603.553	2316.08
603.75	2240.31
603.946	2441.01
604.142	2635.57
604.338	2682.67
604.534	2512.69
604.73	2692.91
604.926	2778.92
605.122	3100.45
605.318	2963.24
605.514	3110.69
605.71	3254.05
605.906	3354.4
606.102	3325.73
606.298	3639.07
606.494	3663.65
606.69	3866.39
606.886	3796.76
607.082	4001.56
607.278	4083.48
607.474	4241.17
607.67	4333.33
607.866	4273.94
608.062	4568.85
608.257	4738.83
608.453	4757.26
608.649	4990.73
608.845	5060.36
609.041	5246.73
609.236	5334.79
609.432	5474.05
609.628	5768.96
609.824	5932.79
610.019	5949.18
610.215	6102.78
610.411	6479.6
610.606	6541.04
610.802	6579.95
610.998	6717.17
611.193	7026.41
611.389	6948.59
611.584	7534.31
611.78	7378.66
611.976	7804.64
612.171	8130.27
612.367	8330.97
612.562	8222.42
612.758	8437.46
612.953	8718.03
613.149	9154.25
613.344	9082.57
613.539	9508.55
613.735	9649.86
613.93	10141.37
614.126	10143.42
614.321	10337.98
614.517	11003.57
614.712	10976.94
614.907	11007.66
615.103	11814.56
615.298	11814.56
615.493	12285.59
615.688	12287.64
615.884	13160.08
616.079	13160.08
616.274	13770.37
616.47	13813.38
616.665	14327.42
616.86	14210.68
617.055	14900.85
617.25	14956.15
617.445	15963.75
617.641	15859.3
617.836	16655.96
618.031	16631.38
618.226	17413.71
618.421	17434.19
618.616	18021.95
618.811	18312.77
619.006	19103.28
619.201	18898.48
619.396	19818.02
619.591	19807.78
619.786	20717.08
619.981	21034.52
620.176	21425.68
620.371	21736.97
620.566	22289.92
620.761	22601.21
620.956	23332.34
621.151	23385.58
621.346	24280.55
621.541	24288.74
621.735	25339.35
621.93	25310.68
622.125	26381.76
622.32	26209.73
622.515	27061.69
622.709	27420.08
622.904	28083.62
623.099	28241.32
623.294	29076.89
623.488	29437.33
623.683	30340.49
623.878	30311.81
624.072	30854.53
624.267	31466.87
624.462	31833.46
624.656	32361.83
624.851	32613.73
625.046	33363.29
625.24	33815.89
625.435	34118.99
625.629	34428.23
625.824	34987.33
626.018	35904.82
626.213	35333.43
626.407	36261.16
626.602	36465.96
626.796	36904.23
626.991	37389.59
627.185	37889.3
627.38	37834
627.574	38034.7
627.768	38612.23
627.963	38462.73
628.157	38421.77
628.352	39226.62
628.546	38595.85
628.74	39462.14
628.935	38823.17
629.129	39505.15
629.323	38503.69
629.517	38755.59
629.712	38755.59
629.906	38675.72
630.1	37674.26
630.294	37559.58
630.489	36986.14
630.683	37455.13
630.877	36414.76
631.071	35665.21
631.265	35421.5
631.459	34409.8
631.653	33871.18
631.848	33234.27
632.042	32501.09
632.236	31815.02
632.43	30911.87
632.624	30580.1
632.818	29582.74
633.012	28292.52
633.206	27680.17
633.4	27073.98
633.594	25601.49
633.788	25599.44
633.982	24727
634.176	23430.64
634.369	22435.33
634.563	21548.56
634.757	20932.12
634.951	20350.49
635.145	19519.02
635.339	18775.61
635.533	17917.51
635.726	17245.77
635.92	16606.81
636.114	15779.43
636.308	15193.71
636.501	14743.16
636.695	13973.12
636.889	13686.4
637.083	12994.19
637.276	12404.38
637.47	11744.93
637.664	11447.97
637.857	11011.76
638.051	10548.92
638.244	10180.28
638.438	9647.81
638.632	9590.47
638.825	8935.12
639.019	8623.83
639.212	8234.71
639.406	8023.77
639.599	7749.34
639.793	7513.83
639.986	7124.71
640.18	6838
640.373	6475.51
640.567	6477.55
640.76	6119.16
640.954	6012.67
641.147	5547.78
641.34	5441.28
641.534	5199.62
641.727	5138.18
641.92	4806.41
642.114	4646.67
642.307	4476.69
642.5	4462.35
642.694	4163.35
642.887	4009.75
643.08	3925.79
643.273	3667.74
643.467	3526.43
643.66	3350.31
643.853	3204.9
644.046	3198.76
644.239	3114.79
644.432	2979.62
644.626	2727.72
644.819	2766.64
645.012	2490.16
645.205	2533.17
645.398	2451.25
645.591	2359.09
645.784	2168.63
645.977	2144.05
646.17	1994.55
646.363	2041.65
646.556	1904.44
646.749	1888.06
646.942	1742.65
647.135	1668.92
647.328	1650.49
647.521	1630.01
647.714	1523.52
647.907	1439.55
648.099	1505.09
648.292	1388.35
648.485	1302.34
648.678	1247.04
648.871	1255.23
649.064	1189.7
649.256	980.81
649.449	1005.38
649.642	927.56
649.835	1027.91
650.027	1042.25
650.22	952.13
650.413	878.41
650.605	915.27
650.798	763.72
650.991	739.15
651.183	773.96
651.376	804.68
651.568	737.1
651.761	632.65
651.954	722.76
652.146	626.51
652.339	673.61
652.531	716.62
652.724	638.8
652.916	681.8
653.109	466.77
653.301	620.36
653.494	554.83
653.686	472.91
653.879	606.03
654.071	560.97
654.263	354.13
654.456	372.56
654.648	464.72
654.84	464.72
655.033	302.93
655.225	542.54
655.417	270.16
655.61	429.9
655.802	530.25
655.994	417.61
656.186	350.03
656.379	413.52
656.571	266.07
656.763	278.35
656.955	304.98
657.148	415.57
657.34	401.23
657.532	358.22
657.724	311.12
657.916	264.02
658.108	370.51
658.3	300.88
658.492	317.26
658.684	309.07
658.876	327.5
659.068	272.21
659.26	200.53
659.452	229.2
659.644	276.31
659.836	331.6
660.028	264.02
660.22	249.68
660.412	153.43
660.604	188.24
660.796	321.36
660.988	311.12
661.18	221.01
661.372	190.29
661.563	249.68
661.755	173.91
661.947	135
662.139	169.81
662.331	239.44
662.522	188.24
662.714	157.52
662.906	110.42
663.097	145.24
663.289	137.04
663.481	53.08
663.673	116.56
663.864	178
664.056	214.87
664.247	63.32
664.439	157.52
664.631	157.52
664.822	255.83
665.014	108.37
665.205	104.28
665.397	81.75
665.588	128.85
665.78	91.99
665.971	141.14
666.163	120.66
666.354	212.82
666.546	85.84
666.737	145.24
666.929	104.28
667.12	128.85
667.311	139.09
667.503	128.85
667.694	87.89
667.885	139.09
668.077	194.39
668.268	34.64
668.459	106.32
668.651	157.52
668.842	175.95
669.033	12.12
669.224	67.41
669.416	266.07
669.607	63.32
669.798	122.71
669.989	137.04
670.18	57.17
670.371	214.87
670.563	83.8
670.754	253.78
670.945	155.47
671.136	188.24
671.327	26.45
671.518	116.56
671.709	292.69
671.9	182.1
672.091	200.53
672.282	69.46
672.473	124.76
672.664	14.17
672.855	51.03
673.046	73.56
673.237	135
673.428	120.66
673.619	221.01
673.809	46.93
674	284.5
674.191	91.99
674.382	98.13
674.573	128.85
674.764	108.37
674.954	212.82
675.145	96.08
675.336	100.18
675.527	184.15
675.717	44.88
675.908	141.14
676.099	89.94
676.289	171.86
676.48	42.84
676.671	163.67
676.861	159.57
677.052	145.24
677.243	102.23
677.433	-10.41
677.624	190.29
677.814	116.56
678.005	116.56
678.195	266.07
678.386	79.7
678.576	77.65
678.767	81.75
678.957	79.7
679.148	178
679.338	210.77
679.529	278.35
679.719	87.89
679.909	186.19
680.1	161.62
680.29	110.42
680.481	63.32
680.671	173.91
680.861	182.1
681.052	122.71
681.242	71.51
681.432	196.43
681.622	233.3
681.813	69.46
682.003	239.44
682.193	87.89
682.383	145.24
682.573	167.76
682.764	204.63
682.954	216.91
683.144	261.97
683.334	169.81
683.524	96.08
683.714	120.66
683.904	249.68
684.094	151.38
684.284	259.92
684.474	302.93
684.664	317.26
684.854	153.43
685.044	180.05
685.234	186.19
685.424	229.2
685.614	188.24
685.804	376.66
685.994	206.67
686.184	184.15
686.374	264.02
686.564	147.28
686.753	147.28
686.943	155.47
687.133	245.59
687.323	169.81
687.513	190.29
687.702	190.29
687.892	151.38
688.082	159.57
688.272	243.54
688.461	178
688.651	386.9
688.841	206.67
689.03	110.42
689.22	270.16
689.41	163.67
689.599	243.54
689.789	112.47
689.979	302.93
690.168	149.33
690.358	229.2
690.547	206.67
690.737	200.53
690.926	235.35
691.116	243.54
691.305	282.45
691.495	259.92
691.684	139.09
691.874	42.84
692.063	206.67
692.252	178
692.442	255.83
692.631	85.84
692.82	227.15
693.01	161.62
693.199	161.62
693.388	184.15
693.578	186.19
693.767	159.57
693.956	241.49
694.146	149.33
694.335	202.58
694.524	210.77
694.713	239.44
694.902	139.09
695.092	132.95
695.281	190.29
695.47	225.11
695.659	63.32
695.848	153.43
696.037	89.94
696.226	268.11
696.415	147.28
696.604	249.68
696.793	227.15
696.982	159.57
697.171	313.17
697.36	69.46
697.549	186.19
697.738	61.27
697.927	204.63
698.116	178
698.305	202.58
698.494	180.05
698.683	98.13
698.872	235.35
699.061	192.34
699.25	100.18
699.438	167.76
699.627	110.42
699.816	372.56
700.005	108.37
700.193	149.33
700.382	190.29
700.571	218.96
700.76	198.48
700.948	192.34
701.137	237.39
701.326	157.52
701.514	147.28
701.703	180.05
701.892	206.67
702.08	415.57
702.269	128.85
702.457	128.85
702.646	216.91
702.834	186.19
703.023	253.78
703.212	235.35
703.4	216.91
703.589	214.87
703.777	124.76
703.965	149.33
704.154	163.67
704.342	116.56
704.531	157.52
704.719	141.14
704.907	362.32
705.096	79.7
705.284	100.18
705.472	200.53
705.661	171.86
705.849	296.78
706.037	184.15
706.226	200.53
706.414	165.71
706.602	102.23
706.79	239.44
706.979	122.71
707.167	151.38
707.355	145.24
707.543	251.73
707.731	175.95
707.919	178
708.107	139.09
708.296	71.51
708.484	106.32
708.672	175.95
708.86	212.82
709.048	243.54
709.236	112.47
709.424	249.68
709.612	245.59
709.8	116.56
709.988	204.63
710.176	261.97
710.364	208.72
710.551	71.51
710.739	190.29
710.927	102.23
711.115	208.72
711.303	280.4
711.491	259.92
711.679	171.86
711.866	288.59
712.054	210.77
712.242	214.87
712.43	274.26
712.617	182.1
712.805	268.11
712.993	202.58
713.181	141.14
713.368	190.29
713.556	126.8
713.744	221.01
713.931	370.51
714.119	200.53
714.306	157.52
714.494	159.57
714.682	227.15
714.869	71.51
715.057	137.04
715.244	67.41
715.432	188.24
715.619	104.28
715.807	118.61
715.994	149.33
716.182	221.01
716.369	249.68
716.556	218.96
716.744	171.86
716.931	114.52
717.119	169.81
717.306	231.25
717.493	274.26
717.681	157.52
717.868	208.72
718.055	237.39
718.242	167.76
718.43	110.42
718.617	276.31
718.804	169.81
718.991	347.98
719.179	261.97
719.366	169.81
719.553	167.76
719.74	229.2
719.927	210.77
720.114	249.68
720.301	159.57
720.488	190.29
720.676	116.56
720.863	325.46
721.05	259.92
721.237	290.64
721.424	247.63
721.611	239.44
721.798	116.56
721.985	298.83
722.172	182.1
722.358	270.16
722.545	307.02
722.732	204.63
722.919	323.41
723.106	294.74
723.293	210.77
723.48	296.78
723.667	206.67
723.853	282.45
724.04	266.07
724.227	288.59
724.414	235.35
724.6	239.44
724.787	309.07
724.974	401.23
725.161	282.45
725.347	163.67
725.534	272.21
725.72	259.92
725.907	333.65
726.094	284.5
726.28	298.83
726.467	216.91
726.653	255.83
726.84	360.27
727.027	390.99
727.213	221.01
727.4	192.34
727.586	288.59
727.773	247.63
727.959	249.68
728.145	300.88
728.332	257.87
728.518	202.58
728.705	321.36
728.891	300.88
729.077	358.22
729.264	169.81
729.45	235.35
729.636	415.57
729.823	208.72
730.009	341.84
730.195	407.38
730.382	358.22
730.568	245.59
730.754	327.5
730.94	272.21
731.126	298.83
731.313	319.31
731.499	251.73
731.685	366.42
731.871	276.31
732.057	317.26
732.243	358.22
732.429	300.88
732.615	390.99
732.801	323.41
732.987	339.79
733.173	272.21
733.359	169.81
733.545	304.98
733.731	292.69
733.917	345.94
734.103	274.26
734.289	356.18
734.475	221.01
734.661	341.84
734.847	382.8
735.033	323.41
735.219	364.37
735.404	266.07
735.59	243.54
735.776	231.25
735.962	333.65
736.148	335.7
736.333	292.69
736.519	319.31
736.705	229.2
736.89	374.61
737.076	380.75
737.262	200.53
737.447	264.02
737.633	255.83
737.819	409.42
738.004	317.26
738.19	284.5
738.375	274.26
738.561	415.57
738.747	321.36
738.932	345.94
739.118	489.29
739.303	390.99
739.489	350.03
739.674	345.94
739.859	278.35
740.045	448.33
740.23	327.5
740.416	259.92
740.601	257.87
740.786	286.54
740.972	329.55
741.157	276.31
741.342	278.35
741.528	296.78
741.713	470.86
741.898	298.83
742.084	362.32
742.269	243.54
742.454	304.98
742.639	388.94
742.824	362.32
743.01	413.52
743.195	454.48
743.38	290.64
743.565	337.74
743.75	309.07
743.935	376.66
744.12	477.01
744.305	245.59
744.49	341.84
744.675	350.03
744.86	296.78
745.045	388.94
745.23	329.55
745.415	245.59
745.6	440.14
745.785	366.42
745.97	362.32
746.155	454.48
746.34	382.8
746.525	384.85
746.71	331.6
746.895	247.63
747.079	212.82
747.264	323.41
747.449	325.46
747.634	333.65
747.819	292.69
748.003	296.78
748.188	190.29
748.373	386.9
748.557	354.13
748.742	347.98
748.927	294.74
749.111	239.44
749.296	307.02
749.481	323.41
749.665	354.13
749.85	227.15
750.034	270.16
750.219	284.5
750.404	307.02
750.588	411.47
750.773	327.5
750.957	255.83
751.141	227.15
751.326	296.78
751.51	261.97
751.695	247.63
751.879	243.54
752.064	274.26
752.248	296.78
752.432	296.78
752.617	315.22
752.801	309.07
752.985	202.58
753.17	382.8
753.354	182.1
753.538	243.54
753.722	206.67
753.907	296.78
754.091	149.33
754.275	333.65
754.459	145.24
754.643	149.33
754.828	325.46
755.012	247.63
755.196	120.66
755.38	257.87
755.564	182.1
755.748	188.24
755.932	382.8
756.116	251.73
756.3	276.31
756.484	223.06
756.668	321.36
756.852	202.58
757.036	112.47
757.22	188.24
757.404	184.15
757.588	235.35
757.772	323.41
757.956	229.2
758.14	341.84
758.323	163.67
758.507	145.24
758.691	188.24
758.875	239.44
759.059	233.3
759.242	102.23
759.426	91.99
759.61	184.15
759.794	175.95
759.977	302.93
760.161	438.09
760.345	239.44
760.528	223.06
760.712	169.81
760.895	231.25
761.079	151.38
761.263	159.57
761.446	94.04
761.63	210.77
761.813	292.69
761.997	169.81
762.18	157.52
762.364	210.77
762.547	104.28
762.731	114.52
762.914	178
763.098	69.46
763.281	202.58
763.464	124.76
763.648	173.91
763.831	200.53
764.015	114.52
764.198	165.71
764.381	114.52
764.564	100.18
764.748	98.13
764.931	231.25
765.114	77.65
765.297	245.59
765.481	169.81
765.664	182.1
765.847	157.52
766.03	165.71
766.213	124.76
766.397	194.39
766.58	-18.6
766.763	141.14
766.946	96.08
767.129	89.94
767.312	190.29
767.495	173.91
767.678	42.84
767.861	128.85
768.044	126.8
768.227	126.8
768.41	192.34
768.593	163.67
768.776	120.66
768.959	108.37
769.142	151.38
769.324	106.32
769.507	128.85
769.69	118.61
769.873	106.32
770.056	264.02
770.239	112.47
770.421	210.77
770.604	143.19
770.787	130.9
770.97	178
771.152	96.08
771.335	120.66
771.518	1.88
771.7	122.71
771.883	212.82
772.066	65.36
772.248	159.57
772.431	159.57
772.613	145.24
772.796	83.8
772.978	153.43
773.161	235.35
773.343	124.76
773.526	87.89
773.708	-47.27
773.891	-37.03
774.073	67.41
774.256	126.8
774.438	128.85
774.621	126.8
774.803	161.62
774.985	79.7
775.168	137.04
775.35	51.03
775.532	157.52
775.715	46.93
775.897	75.6
776.079	100.18
776.261	167.76
776.444	118.61
776.626	67.41
776.808	63.32
776.99	-30.89
777.173	57.17
777.355	94.04
777.537	61.27
777.719	53.08
777.901	91.99
778.083	85.84
778.265	48.98
778.447	130.9
778.629	-41.13
778.811	128.85
778.993	100.18
779.175	151.38
779.357	104.28
779.539	79.7
779.721	61.27
779.903	79.7
780.085	155.47
780.267	108.37
780.449	18.26
780.631	96.08
780.812	157.52
780.994	108.37
781.176	73.56
781.358	34.64
781.54	145.24
781.721	180.05
781.903	32.6
782.085	38.74
782.267	102.23
782.448	-10.41
782.63	38.74
782.812	100.18
782.993	53.08
783.175	38.74
783.357	16.21
783.538	81.75
783.72	-26.79
783.901	-16.55
784.083	184.15
784.264	46.93
784.446	-34.99
784.627	44.88
784.809	46.93
784.99	5.97
785.172	102.23
785.353	-10.41
785.535	79.7
785.716	-59.56
785.897	-10.41
786.079	73.56
786.26	42.84
786.441	73.56
786.623	28.5
786.804	-6.31
786.985	-37.03
787.167	42.84
787.348	75.6
787.529	3.93
787.71	184.15
787.891	79.7
788.073	44.88
788.254	-39.08
788.435	98.13
788.616	18.26
788.797	-8.36
788.978	3.93
789.159	-57.51
789.34	73.56
789.522	14.17
789.703	14.17
789.884	-20.65
790.065	77.65
790.246	112.47
790.427	-45.23
790.607	202.58
790.788	120.66
790.969	-77.99
791.15	28.5
791.331	-41.13
791.512	-20.65
791.693	-45.23
791.874	10.07
792.054	218.96
792.235	42.84
792.416	-26.79
792.597	-8.36
792.778	24.4
792.958	12.12
793.139	75.6
793.32	36.69
793.5	-67.75
793.681	137.04
793.862	57.17
794.042	-30.89
794.223	-100.52
794.404	-6.31
794.584	-75.95
794.765	42.84
794.945	-10.41
795.126	83.8
795.306	143.19
795.487	34.64
795.667	12.12
795.848	24.4
796.028	40.79
796.209	34.64
796.389	42.84
796.57	-10.41
796.75	-16.55
796.93	-26.79
797.111	-39.08
797.291	-16.55
797.471	14.17
797.652	38.74
797.832	14.17
798.012	79.7
798.192	-22.7
798.373	-59.56
798.553	14.17
798.733	112.47
798.913	-96.43
799.093	5.97
799.274	51.03
799.454	46.93
799.634	51.03
799.814	26.45
799.994	22.36
800.174	89.94
800.354	10.07
800.534	-82.09
800.714	63.32
800.894	-108.71
801.074	-63.66
801.254	-14.51
801.434	112.47
801.614	3.93
801.794	-61.61
801.974	1711.93
802.154	-80.04
802.334	71.51
802.514	-63.66
802.693	18.26
802.873	-18.6
803.053	120.66
803.233	30.55
803.413	46.93
803.592	-71.85
803.772	-94.38
803.952	38.74
804.131	-84.14
804.311	69.46
804.491	48.98
804.67	-26.79
804.85	-100.52
805.03	34.64
805.209	102.23
805.389	-16.55
805.568	-22.7
805.748	48.98
805.928	-61.61
806.107	51.03
806.287	55.12
806.466	22.36
806.646	-80.04
806.825	5.97
807.004	-71.85
807.184	67.41
807.363	120.66
807.543	30.55
807.722	59.22
807.901	89.94
808.081	63.32
808.26	-57.51
808.439	32.6
808.619	14.17
808.798	-22.7
808.977	34.64
809.156	69.46
809.336	-30.89
809.515	32.6
809.694	-86.19
809.873	5.97
810.052	46.93
810.231	96.08
810.411	75.6
810.59	67.41
810.769	-8.36
810.948	79.7
811.127	-59.56
811.306	-43.18
811.485	-47.27
811.664	122.71
811.843	53.08
812.022	1.88
812.201	22.36
812.38	38.74
812.559	-106.67
812.737	61.27
812.916	-55.47
813.095	-26.79
813.274	30.55
813.453	18.26
813.632	18.26
813.811	1.88
813.989	-67.75
814.168	83.8
814.347	-69.8
814.526	14.17
814.704	71.51
814.883	139.09
815.062	-77.99
815.24	75.6
815.419	-102.57
815.598	8.02
815.776	-90.28
815.955	108.37
816.133	-98.47
816.312	34.64
816.49	-37.03
816.669	-34.99
816.847	-2.22
817.026	26.45
817.204	-2.22
817.383	-26.79
817.561	-73.9
817.74	61.27
817.918	5.97
818.097	-34.99
818.275	-26.79
818.453	3.93
818.632	73.56
818.81	-59.56
818.988	-45.23
819.167	46.93
819.345	94.04
819.523	22.36
819.701	-53.42
819.879	-2.22
820.058	8.02
820.236	-8.36
820.414	-47.27
820.592	-77.99
820.77	-2.22
820.948	-0.17
821.127	-47.27
821.305	59.22
821.483	-10.41
821.661	3.93
821.839	65.36
822.017	-49.32
822.195	-75.95
822.373	65.36
822.551	28.5
822.729	40.79
822.907	-39.08
823.085	55.12
823.262	-22.7
823.44	-108.71
823.618	-75.95
823.796	18.26
823.974	14.17
824.152	-6.31
824.329	-49.32
824.507	5.97
824.685	-2.22
824.863	-6.31
825.04	-8.36
825.218	-8.36
825.396	-10.41
825.574	-22.7
825.751	-20.65
825.929	63.32
826.107	-18.6
826.284	32.6
826.462	40.79
826.639	-98.47
826.817	-112.81
826.994	-34.99
827.172	-98.47
827.349	85.84
827.527	46.93
827.704	-59.56
827.882	26.45
828.059	8.02
828.237	-94.38
828.414	143.19
828.591	-159.91
828.769	-6.31
828.946	-45.23
829.124	-63.66
829.301	75.6
829.478	8.02
829.655	63.32
829.833	-14.51
830.01	-153.77
830.187	-6.31
830.364	28.5
830.542	-59.56
830.719	42.84
830.896	71.51
831.073	126.8
831.25	-0.17
831.427	1.88
831.604	-53.42
831.782	-10.41
831.959	12.12
832.136	20.31
832.313	40.79
832.49	1.88
832.667	-2.22
832.844	-49.32
833.021	79.7
833.198	16.21
833.374	-96.43
833.551	-26.79
833.728	-8.36
833.905	77.65
834.082	-145.58
834.259	5.97
834.436	91.99
834.612	-65.71
834.789	-26.79
834.966	-80.04
835.143	-92.33
835.319	-55.47
835.496	51.03
835.673	63.32
835.85	24.4
836.026	3.93
836.203	30.55
836.38	-51.37
836.556	28.5
836.733	-55.47
836.909	65.36
837.086	24.4
837.262	-106.67
837.439	-94.38
837.616	-61.61
837.792	-51.37
837.968	-24.75
838.145	-100.52
838.321	8.02
838.498	22.36
838.674	-14.51
838.851	-34.99
839.027	-80.04
839.203	-34.99
839.38	79.7
839.556	-2.22
839.732	79.7
839.909	1.88
840.085	71.51
840.261	-104.62
840.437	-116.9
840.614	24.4
840.79	18.26
840.966	12.12
841.142	-75.95
841.318	-84.14
841.494	53.08
841.671	75.6
841.847	-10.41
842.023	-125.1
842.199	26.45
842.375	126.8
842.551	-96.43
842.727	-71.85
842.903	67.41
843.079	-149.67
843.255	61.27
843.431	-4.27
843.607	8.02
843.783	-131.24
843.959	3.93
844.134	1.88
844.31	22.36
844.486	-88.23
844.662	-118.95
844.838	-12.46
845.013	-84.14
845.189	-34.99
845.365	-59.56
845.541	-88.23
845.716	34.64
845.892	28.5
846.068	-51.37
846.244	5.97
846.419	-37.03
846.595	-10.41
846.77	-114.86
846.946	85.84
847.122	-26.79
847.297	-10.41
847.473	30.55
847.648	-114.86
847.824	32.6
847.999	-86.19
848.175	-47.27
848.35	-26.79
848.526	30.55
848.701	26.45
848.876	71.51
849.052	-14.51
849.227	-0.17
849.403	-14.51
849.578	-67.75
849.753	-57.51
849.929	122.71
850.104	-110.76
850.279	51.03
850.454	8.02
850.63	32.6
850.805	-53.42
850.98	40.79
851.155	-59.56
851.33	-32.94
851.505	-63.66
851.681	108.37
851.856	-57.51
852.031	-4.27
852.206	69.46
852.381	-59.56
852.556	-71.85
852.731	1.88
852.906	22.36
853.081	22.36
853.256	79.7
853.431	-34.99
853.606	-92.33
853.781	-98.47
853.956	-100.52
854.131	59.22
854.305	-63.66
854.48	-71.85
854.655	-86.19
854.83	-88.23
855.005	-24.75
855.18	-57.51
855.354	-30.89
855.529	18.26
855.704	-2.22
855.879	12.12
856.053	-96.43
856.228	75.6
856.403	-106.67
856.577	46.93
856.752	-157.86
856.926	-63.66
857.101	14.17
857.276	-65.71
857.45	16.21
857.625	-16.55
857.799	1.88
857.974	-2.22
858.148	-98.47
858.323	-100.52
858.497	-45.23
858.672	-112.81
858.846	-55.47
859.02	38.74
859.195	-108.71
859.369	-71.85
859.543	30.55
859.718	20.31
859.892	-86.19
860.066	10.07
860.241	-92.33
860.415	-4.27
860.589	1.88
860.763	-22.7
860.938	-168.1
861.112	32.6
861.286	-53.42
861.46	-8.36
861.634	-18.6
861.808	30.55
861.982	-77.99
862.157	-59.56
862.331	-84.14
862.505	-94.38
862.679	-125.1
862.853	-108.71
863.027	-49.32
863.201	108.37
863.375	-63.66
863.549	-47.27
863.722	-28.84
863.896	53.08
864.07	-88.23
864.244	-10.41
864.418	-14.51
864.592	22.36
864.766	-24.75
864.939	-45.23
865.113	-12.46
865.287	18.26
865.461	-61.61
865.634	24.4
865.808	-73.9
865.982	-108.71
866.156	-80.04
866.329	-157.86
866.503	18.26
866.676	75.6
866.85	-10.41
867.024	5.97
867.197	22.36
867.371	-16.55
867.544	57.17
867.718	-196.78
867.891	57.17
868.065	-100.52
868.238	-57.51
868.412	87.89
868.585	42.84
868.759	-75.95
868.932	-34.99
869.105	3.93
869.279	-49.32
869.452	-57.51
869.625	44.88
869.799	5.97
869.972	-61.61
870.145	-53.42
870.319	-0.17
870.492	-80.04
870.665	-41.13
870.838	36.69
871.011	-82.09
871.185	-41.13
871.358	-28.84
871.531	22.36
871.704	-65.71
871.877	-2.22
872.05	-43.18
872.223	-16.55
872.396	91.99
872.569	16.21
872.742	-102.57
872.915	10.07
873.088	-41.13
873.261	-65.71
873.434	10.07
873.607	-39.08
873.78	106.32
873.953	-73.9
874.126	28.5
874.299	-22.7
874.471	-14.51
874.644	36.69
874.817	42.84
874.99	12.12
875.163	77.65
875.335	-71.85
875.508	-32.94
875.681	28.5
875.853	-174.25
876.026	-82.09
876.199	55.12
876.371	-8.36
876.544	-53.42
876.717	71.51
876.889	-24.75
877.062	20.31
877.234	-84.14
877.407	-2.22
877.579	-22.7
877.752	-53.42
877.924	18.26
878.097	18.26
878.269	-28.84
878.442	30.55
878.614	61.27
878.786	10.07
878.959	-41.13
879.131	-43.18
879.303	-131.24
879.476	-22.7
879.648	57.17
879.82	-16.55
879.993	8.02
880.165	-86.19
880.337	-112.81
880.509	42.84
880.681	-125.1
880.854	-8.36
881.026	32.6
881.198	83.8
881.37	30.55
881.542	-34.99
881.714	-39.08
881.886	-121
882.058	18.26
882.23	28.5
882.402	-16.55
882.574	-20.65
882.746	63.32
882.918	61.27
883.09	67.41
883.262	-22.7
883.434	-30.89
883.606	-59.56
883.778	-57.51
883.95	65.36
884.122	-112.81
884.293	34.64
884.465	-75.95
884.637	-20.65
884.809	-84.14
884.98	-51.37
885.152	5.97
885.324	91.99
885.496	-14.51
885.667	-51.37
885.839	-45.23
886.011	98.13
886.182	-43.18
886.354	-34.99
886.525	36.69
886.697	10.07
886.869	-43.18
887.04	-34.99
887.212	-18.6
887.383	75.6
887.555	42.84
887.726	-12.46
887.897	-12.46
888.069	42.84
888.24	38.74
888.412	-10.41
888.583	-4.27
888.754	-8.36
888.926	-180.39
889.097	-57.51
889.268	-104.62
889.44	83.8
889.611	-108.71
889.782	-59.56
889.953	-110.76
890.125	-2.22
890.296	8.02
890.467	-80.04
890.638	-6.31
890.809	-8.36
890.98	-80.04
891.151	44.88
891.323	22.36
891.494	5.97
891.665	-12.46
891.836	-14.51
892.007	-51.37
892.178	-92.33
892.349	-28.84
892.52	-51.37
892.691	48.98
892.862	-37.03
893.032	-32.94
893.203	-92.33
893.374	-30.89
893.545	69.46
893.716	-26.79
893.887	-4.27
894.057	-75.95
894.228	-28.84
894.399	12.12
894.57	-0.17
894.74	42.84
894.911	-16.55
895.082	-18.6
895.253	-14.51
895.423	-14.51
895.594	85.84
895.764	61.27
895.935	-84.14
896.106	75.6
896.276	-59.56
896.447	46.93
896.617	-86.19
896.788	-106.67
896.958	16.21
897.129	-100.52
897.299	-149.67
897.47	40.79
897.64	63.32
897.81	-67.75
897.981	-26.79
898.151	-77.99
898.322	-22.7
898.492	18.26
898.662	-34.99
898.832	-34.99
899.003	-65.71
899.173	14.17
899.343	-16.55
899.513	-26.79
