Data from USB4F104151__54__10-26-01-430.txt Node

Date: Wed Feb 26 10:26:01 EST 2025
User: louis
Spectrometer: USB4F10415
Trigger mode: 4
Integration Time (sec): 1.000000E-1
Scans to average: 1
Electric dark correction enabled: true
Nonlinearity correction enabled: false
Boxcar width: 0
XAxis mode: Wavelengths
Number of Pixels in Spectrum: 3648
>>>>>Begin Spectral Data<<<<<
178.204	-366.59
178.424	-366.59
178.644	-366.59
178.864	-440.31
179.084	-344.06
179.304	18.43
179.524	47.1
179.744	-14.34
179.964	28.67
180.184	22.53
180.404	-16.38
180.624	-36.86
180.844	-10.24
181.064	-57.34
181.283	45.06
181.503	-57.34
181.723	30.72
181.943	-45.06
182.163	165.89
182.383	12.29
182.602	0
182.822	190.46
183.042	88.06
183.262	0
183.482	14.34
183.701	34.82
183.921	12.29
184.141	-77.82
184.361	92.16
184.58	104.45
184.8	133.12
185.02	12.29
185.239	153.6
185.459	71.68
185.679	194.56
185.898	-155.65
186.118	79.87
186.338	32.77
186.557	55.3
186.777	-75.77
186.997	38.91
187.216	-12.29
187.436	200.7
187.655	112.64
187.875	34.82
188.095	67.58
188.314	155.65
188.534	161.79
188.753	-24.58
188.973	28.67
189.192	219.13
189.412	71.68
189.631	59.39
189.851	102.4
190.07	184.32
190.29	22.53
190.509	-2.05
190.729	81.92
190.948	114.69
191.168	292.86
191.387	79.87
191.607	8.19
191.826	28.67
192.045	114.69
192.265	-71.68
192.484	114.69
192.704	90.11
192.923	-65.54
193.142	245.76
193.362	126.97
193.581	161.79
193.8	129.02
194.02	86.01
194.239	40.96
194.458	43.01
194.678	75.77
194.897	40.96
195.116	151.55
195.335	67.58
195.555	18.43
195.774	14.34
195.993	86.01
196.212	-2.05
196.432	-30.72
196.651	18.43
196.87	-24.58
197.089	266.24
197.308	83.97
197.528	53.25
197.747	8.19
197.966	22.53
198.185	172.03
198.404	18.43
198.623	65.54
198.842	92.16
199.062	102.4
199.281	71.68
199.5	59.39
199.719	110.59
199.938	77.82
200.157	151.55
200.376	38.91
200.595	96.25
200.814	71.68
201.033	-32.77
201.252	215.04
201.471	122.88
201.69	124.93
201.909	6.14
202.128	135.17
202.347	126.97
202.566	38.91
202.785	-53.25
203.004	28.67
203.223	264.19
203.442	-81.92
203.661	-18.43
203.879	120.83
204.098	88.06
204.317	-2.05
204.536	102.4
204.755	122.88
204.974	188.41
205.193	-26.62
205.411	120.83
205.63	112.64
205.849	36.86
206.068	-59.39
206.287	-18.43
206.505	161.79
206.724	98.3
206.943	24.58
207.162	36.86
207.381	108.54
207.599	45.06
207.818	47.1
208.037	10.24
208.255	53.25
208.474	149.5
208.693	-4.1
208.911	40.96
209.13	75.77
209.349	139.26
209.567	102.4
209.786	83.97
210.005	102.4
210.223	59.39
210.442	-212.99
210.661	61.44
210.879	86.01
211.098	79.87
211.316	57.34
211.535	40.96
211.753	71.68
211.972	75.77
212.191	69.63
212.409	-47.1
212.628	153.6
212.846	38.91
213.065	92.16
213.283	129.02
213.502	65.54
213.72	96.25
213.938	75.77
214.157	65.54
214.375	67.58
214.594	124.93
214.812	141.31
215.031	124.93
215.249	43.01
215.467	30.72
215.686	104.45
215.904	94.21
216.122	24.58
216.341	118.78
216.559	47.1
216.778	88.06
216.996	167.93
217.214	-2.05
217.432	10.24
217.651	-34.82
217.869	110.59
218.087	-36.86
218.306	-24.58
218.524	43.01
218.742	-8.19
218.96	112.64
219.179	79.87
219.397	83.97
219.615	239.61
219.833	176.13
220.051	-4.1
220.27	126.97
220.488	120.83
220.706	4.1
220.924	6.14
221.142	16.38
221.36	8.19
221.578	32.77
221.796	71.68
222.015	153.6
222.233	18.43
222.451	151.55
222.669	-63.49
222.887	73.73
223.105	-30.72
223.323	38.91
223.541	-63.49
223.759	-2.05
223.977	61.44
224.195	135.17
224.413	161.79
224.631	-2.05
224.849	118.78
225.067	301.05
225.285	96.25
225.503	-8.19
225.721	-67.58
225.939	53.25
226.157	112.64
226.375	235.52
226.592	-10.24
226.81	51.2
227.028	63.49
227.246	151.55
227.464	102.4
227.682	77.82
227.9	67.58
228.117	75.77
228.335	-57.34
228.553	88.06
228.771	14.34
228.989	79.87
229.206	122.88
229.424	51.2
229.642	-8.19
229.86	-24.58
230.077	116.73
230.295	79.87
230.513	110.59
230.731	36.86
230.948	161.79
231.166	186.37
231.384	-10.24
231.601	-63.49
231.819	102.4
232.037	-14.34
232.254	-67.58
232.472	53.25
232.689	36.86
232.907	145.41
233.125	36.86
233.342	-12.29
233.56	26.62
233.777	-20.48
233.995	-18.43
234.213	149.5
234.43	98.3
234.648	38.91
234.865	40.96
235.083	57.34
235.3	100.35
235.518	96.25
235.735	153.6
235.953	141.31
236.17	79.87
236.388	-43.01
236.605	8.19
236.822	104.45
237.04	149.5
237.257	12.29
237.475	-6.14
237.692	30.72
237.909	81.92
238.127	-55.3
238.344	98.3
238.562	14.34
238.779	28.67
238.996	-59.39
239.214	59.39
239.431	104.45
239.648	112.64
239.865	18.43
240.083	120.83
240.3	22.53
240.517	36.86
240.735	-32.77
240.952	135.17
241.169	53.25
241.386	108.54
241.603	38.91
241.821	-14.34
242.038	90.11
242.255	129.02
242.472	-20.48
242.689	8.19
242.907	81.92
243.124	90.11
243.341	-22.53
243.558	-2.05
243.775	-12.29
243.992	-8.19
244.209	73.73
244.426	221.18
244.643	133.12
244.86	45.06
245.078	114.69
245.295	38.91
245.512	36.86
245.729	71.68
245.946	108.54
246.163	90.11
246.38	-14.34
246.597	122.88
246.814	106.49
247.031	18.43
247.248	26.62
247.464	55.3
247.681	63.49
247.898	190.46
248.115	86.01
248.332	-53.25
248.549	169.98
248.766	266.24
248.983	106.49
249.2	98.3
249.417	122.88
249.633	-98.3
249.85	163.84
250.067	43.01
250.284	47.1
250.501	172.03
250.717	59.39
250.934	0
251.151	116.73
251.368	61.44
251.585	2.05
251.801	26.62
252.018	18.43
252.235	88.06
252.451	-65.54
252.668	83.97
252.885	176.13
253.102	77.82
253.318	92.16
253.535	34.82
253.752	20.48
253.968	59.39
254.185	-114.69
254.401	112.64
254.618	122.88
254.835	26.62
255.051	114.69
255.268	43.01
255.484	120.83
255.701	-6.14
255.917	63.49
256.134	-10.24
256.351	71.68
256.567	10.24
256.784	28.67
257	71.68
257.217	90.11
257.433	79.87
257.65	4.1
257.866	120.83
258.082	-20.48
258.299	26.62
258.515	67.58
258.732	0
258.948	-32.77
259.165	10.24
259.381	-55.3
259.597	45.06
259.814	79.87
260.03	47.1
260.246	59.39
260.463	114.69
260.679	157.69
260.895	83.97
261.112	14.34
261.328	77.82
261.544	4.1
261.761	178.17
261.977	16.38
262.193	-18.43
262.409	81.92
262.626	-6.14
262.842	88.06
263.058	10.24
263.274	139.26
263.49	71.68
263.707	151.55
263.923	102.4
264.139	-53.25
264.355	65.54
264.571	96.25
264.787	88.06
265.004	102.4
265.22	75.77
265.436	32.77
265.652	34.82
265.868	75.77
266.084	73.73
266.3	61.44
266.516	-51.2
266.732	28.67
266.948	40.96
267.164	-6.14
267.38	83.97
267.596	36.86
267.812	176.13
268.028	59.39
268.244	79.87
268.46	49.15
268.676	-10.24
268.892	122.88
269.108	38.91
269.324	73.73
269.54	20.48
269.756	106.49
269.972	-61.44
270.188	-32.77
270.403	-30.72
270.619	-36.86
270.835	47.1
271.051	79.87
271.267	-22.53
271.483	-14.34
271.698	100.35
271.914	30.72
272.13	-53.25
272.346	-12.29
272.562	67.58
272.777	129.02
272.993	-2.05
273.209	-24.58
273.425	69.63
273.64	-65.54
273.856	81.92
274.072	-2.05
274.287	73.73
274.503	79.87
274.719	43.01
274.934	10.24
275.15	-10.24
275.366	96.25
275.581	22.53
275.797	-36.86
276.012	14.34
276.228	-49.15
276.444	96.25
276.659	176.13
276.875	24.58
277.09	69.63
277.306	77.82
277.521	-8.19
277.737	18.43
277.952	59.39
278.168	24.58
278.383	67.58
278.599	63.49
278.814	77.82
279.03	-40.96
279.245	65.54
279.461	32.77
279.676	174.08
279.892	-38.91
280.107	12.29
280.322	83.97
280.538	30.72
280.753	-43.01
280.969	77.82
281.184	14.34
281.399	92.16
281.615	100.35
281.83	-2.05
282.045	-63.49
282.26	-28.67
282.476	30.72
282.691	112.64
282.906	120.83
283.122	102.4
283.337	-14.34
283.552	16.38
283.767	-28.67
283.983	129.02
284.198	40.96
284.413	69.63
284.628	-112.64
284.843	83.97
285.058	137.21
285.274	0
285.489	4.1
285.704	79.87
285.919	-4.1
286.134	77.82
286.349	83.97
286.564	-8.19
286.779	210.94
286.995	18.43
287.21	-22.53
287.425	122.88
287.64	32.77
287.855	75.77
288.07	-2.05
288.285	106.49
288.5	114.69
288.715	55.3
288.93	-65.54
289.145	94.21
289.36	129.02
289.575	22.53
289.79	100.35
290.004	-10.24
290.219	129.02
290.434	-10.24
290.649	-26.62
290.864	-18.43
291.079	43.01
291.294	53.25
291.509	108.54
291.724	-18.43
291.938	32.77
292.153	83.97
292.368	6.14
292.583	61.44
292.798	94.21
293.012	26.62
293.227	81.92
293.442	24.58
293.657	49.15
293.871	90.11
294.086	51.2
294.301	145.41
294.516	135.17
294.73	26.62
294.945	-32.77
295.16	22.53
295.374	143.36
295.589	57.34
295.804	40.96
296.018	90.11
296.233	145.41
296.447	43.01
296.662	36.86
296.877	137.21
297.091	104.45
297.306	26.62
297.52	79.87
297.735	65.54
297.949	96.25
298.164	32.77
298.378	98.3
298.593	38.91
298.807	-8.19
299.022	36.86
299.236	120.83
299.451	38.91
299.665	71.68
299.88	104.45
300.094	88.06
300.309	-4.1
300.523	53.25
300.737	20.48
300.952	75.77
301.166	151.55
301.381	2.05
301.595	59.39
301.809	81.92
302.024	86.01
302.238	6.14
302.452	135.17
302.667	73.73
302.881	83.97
303.095	155.65
303.309	65.54
303.524	16.38
303.738	53.25
303.952	4.1
304.166	151.55
304.381	-96.25
304.595	186.37
304.809	12.29
305.023	55.3
305.237	18.43
305.452	28.67
305.666	106.49
305.88	92.16
306.094	167.93
306.308	114.69
306.522	86.01
306.736	124.93
306.95	137.21
307.164	90.11
307.379	90.11
307.593	106.49
307.807	167.93
308.021	88.06
308.235	149.5
308.449	-90.11
308.663	0
308.877	221.18
309.091	63.49
309.305	47.1
309.519	-108.54
309.733	110.59
309.947	-53.25
310.161	182.27
310.374	-51.2
310.588	88.06
310.802	-45.06
311.016	69.63
311.23	57.34
311.444	45.06
311.658	73.73
311.872	165.89
312.085	131.07
312.299	196.61
312.513	178.17
312.727	55.3
312.941	-75.77
313.154	45.06
313.368	-28.67
313.582	61.44
313.796	124.93
314.009	8.19
314.223	104.45
314.437	71.68
314.651	75.77
314.864	-6.14
315.078	34.82
315.292	-14.34
315.505	4.1
315.719	16.38
315.933	88.06
316.146	30.72
316.36	-6.14
316.573	157.69
316.787	116.73
317.001	94.21
317.214	-34.82
317.428	47.1
317.641	28.67
317.855	45.06
318.068	51.2
318.282	-67.58
318.495	178.17
318.709	4.1
318.922	30.72
319.136	178.17
319.349	38.91
319.563	43.01
319.776	75.77
319.99	-79.87
320.203	108.54
320.417	-83.97
320.63	100.35
320.843	159.74
321.057	86.01
321.27	69.63
321.483	59.39
321.697	124.93
321.91	73.73
322.124	112.64
322.337	71.68
322.55	-24.58
322.763	18.43
322.977	61.44
323.19	16.38
323.403	10.24
323.617	75.77
323.83	63.49
324.043	116.73
324.256	20.48
324.469	-24.58
324.683	79.87
324.896	61.44
325.109	22.53
325.322	-79.87
325.535	77.82
325.748	147.45
325.962	12.29
326.175	-10.24
326.388	83.97
326.601	116.73
326.814	-2.05
327.027	10.24
327.24	88.06
327.453	-81.92
327.666	167.93
327.879	120.83
328.092	67.58
328.305	137.21
328.518	43.01
328.731	-10.24
328.944	32.77
329.157	88.06
329.37	43.01
329.583	202.75
329.796	129.02
330.009	8.19
330.222	100.35
330.435	47.1
330.648	0
330.861	129.02
331.073	118.78
331.286	161.79
331.499	92.16
331.712	-4.1
331.925	47.1
332.138	124.93
332.35	94.21
332.563	-14.34
332.776	188.41
332.989	-73.73
333.202	47.1
333.414	10.24
333.627	-49.15
333.84	67.58
334.053	40.96
334.265	-24.58
334.478	104.45
334.691	26.62
334.903	118.78
335.116	-53.25
335.329	32.77
335.541	73.73
335.754	192.51
335.966	-14.34
336.179	-61.44
336.392	24.58
336.604	77.82
336.817	83.97
337.029	20.48
337.242	26.62
337.454	98.3
337.667	-2.05
337.88	98.3
338.092	61.44
338.305	24.58
338.517	-6.14
338.729	155.65
338.942	102.4
339.154	24.58
339.367	38.91
339.579	114.69
339.792	-34.82
340.004	188.41
340.217	20.48
340.429	53.25
340.641	-24.58
340.854	12.29
341.066	108.54
341.278	159.74
341.491	126.97
341.703	77.82
341.915	14.34
342.128	81.92
342.34	100.35
342.552	57.34
342.764	88.06
342.977	22.53
343.189	57.34
343.401	141.31
343.613	-40.96
343.826	100.35
344.038	-8.19
344.25	12.29
344.462	20.48
344.674	120.83
344.886	4.1
345.099	100.35
345.311	12.29
345.523	61.44
345.735	-12.29
345.947	47.1
346.159	100.35
346.371	114.69
346.583	55.3
346.795	161.79
347.007	18.43
347.219	174.08
347.431	4.1
347.643	129.02
347.855	-16.38
348.067	178.17
348.279	10.24
348.491	22.53
348.703	73.73
348.915	-10.24
349.127	-14.34
349.339	104.45
349.551	14.34
349.763	26.62
349.975	0
350.187	112.64
350.399	219.13
350.61	63.49
350.822	-69.63
351.034	59.39
351.246	8.19
351.458	108.54
351.669	65.54
351.881	47.1
352.093	182.27
352.305	116.73
352.517	96.25
352.728	139.26
352.94	129.02
353.152	83.97
353.363	-32.77
353.575	86.01
353.787	219.13
353.999	20.48
354.21	223.23
354.422	47.1
354.633	129.02
354.845	71.68
355.057	108.54
355.268	45.06
355.48	137.21
355.692	-32.77
355.903	81.92
356.115	18.43
356.326	6.14
356.538	217.08
356.749	104.45
356.961	161.79
357.172	47.1
357.384	28.67
357.595	182.27
357.807	47.1
358.018	20.48
358.23	55.3
358.441	180.22
358.653	110.59
358.864	92.16
359.075	-30.72
359.287	59.39
359.498	63.49
359.709	92.16
359.921	75.77
360.132	59.39
360.344	22.53
360.555	38.91
360.766	73.73
360.977	-12.29
361.189	180.22
361.4	47.1
361.611	169.98
361.823	67.58
362.034	51.2
362.245	-2.05
362.456	47.1
362.667	122.88
362.879	-8.19
363.09	112.64
363.301	-4.1
363.512	32.77
363.723	-49.15
363.935	18.43
364.146	77.82
364.357	-32.77
364.568	67.58
364.779	-67.58
364.99	86.01
365.201	-79.87
365.412	157.69
365.623	16.38
365.834	155.65
366.045	45.06
366.256	73.73
366.467	49.15
366.678	-57.34
366.889	61.44
367.1	36.86
367.311	92.16
367.522	71.68
367.733	86.01
367.944	141.31
368.155	4.1
368.366	102.4
368.577	124.93
368.788	143.36
368.999	-77.82
369.209	114.69
369.42	215.04
369.631	272.38
369.842	96.25
370.053	59.39
370.264	124.93
370.474	-40.96
370.685	57.34
370.896	30.72
371.107	81.92
371.317	-18.43
371.528	63.49
371.739	120.83
371.95	155.65
372.16	24.58
372.371	10.24
372.582	55.3
372.792	75.77
373.003	75.77
373.214	108.54
373.424	102.4
373.635	30.72
373.846	210.94
374.056	55.3
374.267	133.12
374.477	143.36
374.688	-34.82
374.898	12.29
375.109	45.06
375.319	38.91
375.53	79.87
375.74	110.59
375.951	67.58
376.161	57.34
376.372	81.92
376.582	12.29
376.793	135.17
377.003	-26.62
377.214	8.19
377.424	77.82
377.635	30.72
377.845	6.14
378.055	102.4
378.266	-16.38
378.476	-12.29
378.686	32.77
378.897	79.87
379.107	133.12
379.317	57.34
379.528	22.53
379.738	73.73
379.948	-59.39
380.158	176.13
380.369	86.01
380.579	45.06
380.789	55.3
380.999	0
381.21	116.73
381.42	178.17
381.63	24.58
381.84	182.27
382.05	98.3
382.261	110.59
382.471	159.74
382.681	-4.1
382.891	184.32
383.101	77.82
383.311	-59.39
383.521	-55.3
383.731	36.86
383.941	167.93
384.151	63.49
384.361	55.3
384.571	16.38
384.781	110.59
384.991	108.54
385.201	225.28
385.411	30.72
385.621	86.01
385.831	106.49
386.041	51.2
386.251	100.35
386.461	71.68
386.671	-18.43
386.881	114.69
387.091	63.49
387.301	112.64
387.511	71.68
387.72	149.5
387.93	104.45
388.14	-6.14
388.35	10.24
388.56	135.17
388.769	200.7
388.979	71.68
389.189	-4.1
389.399	14.34
389.609	163.84
389.818	45.06
390.028	79.87
390.238	71.68
390.447	16.38
390.657	227.32
390.867	45.06
391.076	-43.01
391.286	106.49
391.496	28.67
391.705	40.96
391.915	139.26
392.125	92.16
392.334	-36.86
392.544	143.36
392.753	30.72
392.963	55.3
393.172	71.68
393.382	53.25
393.591	161.79
393.801	67.58
394.01	137.21
394.22	153.6
394.429	16.38
394.639	24.58
394.848	61.44
395.058	63.49
395.267	57.34
395.477	118.78
395.686	20.48
395.895	212.99
396.105	217.08
396.314	139.26
396.524	90.11
396.733	129.02
396.942	86.01
397.152	71.68
397.361	102.4
397.57	69.63
397.78	6.14
397.989	157.69
398.198	190.46
398.407	63.49
398.617	65.54
398.826	47.1
399.035	57.34
399.244	116.73
399.453	77.82
399.663	96.25
399.872	53.25
400.081	2.05
400.29	176.13
400.499	-81.92
400.708	83.97
400.917	83.97
401.127	30.72
401.336	12.29
401.545	206.84
401.754	67.58
401.963	75.77
402.172	77.82
402.381	-81.92
402.59	81.92
402.799	81.92
403.008	122.88
403.217	86.01
403.426	151.55
403.635	-108.54
403.844	8.19
404.053	6.14
404.262	45.06
404.471	145.41
404.68	0
404.888	-20.48
405.097	57.34
405.306	22.53
405.515	110.59
405.724	-6.14
405.933	131.07
406.142	94.21
406.35	120.83
406.559	81.92
406.768	-30.72
406.977	143.36
407.185	2.05
407.394	69.63
407.603	20.48
407.812	47.1
408.02	112.64
408.229	51.2
408.438	32.77
408.646	-8.19
408.855	26.62
409.064	83.97
409.272	32.77
409.481	139.26
409.69	63.49
409.898	53.25
410.107	67.58
410.315	202.75
410.524	8.19
410.733	24.58
410.941	79.87
411.15	-6.14
411.358	147.45
411.567	114.69
411.775	63.49
411.984	59.39
412.192	98.3
412.401	-16.38
412.609	135.17
412.818	75.77
413.026	161.79
413.234	75.77
413.443	34.82
413.651	28.67
413.86	28.67
414.068	212.99
414.276	104.45
414.485	-4.1
414.693	204.8
414.901	200.7
415.11	131.07
415.318	131.07
415.526	63.49
415.734	30.72
415.943	139.26
416.151	159.74
416.359	18.43
416.567	30.72
416.776	38.91
416.984	126.97
417.192	143.36
417.4	47.1
417.608	-32.77
417.817	30.72
418.025	51.2
418.233	184.32
418.441	-47.1
418.649	-43.01
418.857	104.45
419.065	153.6
419.273	112.64
419.481	71.68
419.689	90.11
419.897	34.82
420.105	16.38
420.313	65.54
420.521	227.32
420.729	94.21
420.937	98.3
421.145	38.91
421.353	149.5
421.561	202.75
421.769	133.12
421.977	53.25
422.185	165.89
422.393	57.34
422.601	188.41
422.809	51.2
423.017	139.26
423.224	124.93
423.432	129.02
423.64	61.44
423.848	161.79
424.056	86.01
424.263	217.08
424.471	71.68
424.679	147.45
424.887	86.01
425.094	159.74
425.302	149.5
425.51	77.82
425.718	186.37
425.925	100.35
426.133	12.29
426.341	210.94
426.548	-71.68
426.756	10.24
426.964	157.69
427.171	51.2
427.379	143.36
427.586	129.02
427.794	67.58
428.001	161.79
428.209	86.01
428.417	149.5
428.624	126.97
428.832	-26.62
429.039	135.17
429.247	79.87
429.454	71.68
429.662	190.46
429.869	126.97
430.076	106.49
430.284	159.74
430.491	196.61
430.699	182.27
430.906	235.52
431.114	122.88
431.321	135.17
431.528	126.97
431.736	163.84
431.943	118.78
432.15	184.32
432.358	233.47
432.565	264.19
432.772	24.58
432.979	260.09
433.187	167.93
433.394	235.52
433.601	102.4
433.808	215.04
434.016	223.23
434.223	266.24
434.43	225.28
434.637	239.61
434.844	210.94
435.052	122.88
435.259	235.52
435.466	319.48
435.673	202.75
435.88	288.76
436.087	335.87
436.294	253.95
436.501	270.33
436.708	286.72
436.915	286.72
437.122	337.91
437.329	219.13
437.537	270.33
437.743	292.86
437.95	487.42
438.157	372.73
438.364	354.3
438.571	348.15
438.778	342.01
438.985	507.9
439.192	446.46
439.399	423.93
439.606	462.84
439.813	481.27
440.02	616.44
440.227	669.69
440.433	544.76
440.64	514.04
440.847	526.33
441.054	522.23
441.261	700.41
441.467	591.86
441.674	575.48
441.881	681.97
442.088	542.71
442.294	729.08
442.501	704.5
442.708	763.89
442.914	737.27
443.121	962.55
443.328	790.52
443.534	919.54
443.741	825.33
443.948	692.21
444.154	925.68
444.361	1107.95
444.568	935.92
444.774	1056.75
444.981	956.4
445.187	1118.19
445.394	1148.91
445.6	1124.33
445.807	1222.64
446.013	1161.2
446.22	1193.97
446.426	1251.31
446.633	1421.29
446.839	1517.54
447.046	1386.47
447.252	1425.39
447.459	1486.83
447.665	1595.37
447.871	1720.29
448.078	1810.4
448.284	1703.91
448.491	2004.96
448.697	1900.52
448.903	2045.92
449.11	2082.78
449.316	2058.21
449.522	2230.24
449.728	2363.36
449.935	2312.16
450.141	2359.26
450.347	2625.5
450.553	2383.84
450.76	2459.61
450.966	2691.03
451.172	2738.13
451.378	2914.26
451.584	2953.17
451.791	3250.13
451.997	3211.22
452.203	3274.7
452.409	3559.37
452.615	3678.15
452.821	3551.18
453.027	3563.47
453.233	4071.36
453.44	3895.24
453.646	4171.71
453.852	4247.49
454.058	4313.02
454.264	4499.39
454.47	4833.21
454.676	4816.82
454.882	5345.2
455.088	5068.72
455.294	5490.6
455.5	5758.89
455.705	6191.01
455.911	5912.49
456.117	6141.86
456.323	6584.22
456.529	6432.67
456.735	7171.99
456.941	7204.75
457.147	7399.31
457.352	7794.57
457.558	7604.11
457.764	8484.73
457.97	8566.65
458.176	8957.82
458.381	9365.36
458.587	9455.47
458.793	10022.76
458.999	9967.46
459.204	11421.52
459.41	11636.56
459.616	11415.38
459.821	12003.14
460.027	12490.56
460.233	13420.34
460.438	13297.46
460.644	14239.53
460.85	13924.14
461.055	14671.65
461.261	15351.57
461.466	14907.16
461.672	15327
461.878	17250.04
462.083	17116.92
462.289	17430.26
462.494	18112.24
462.7	18030.32
462.905	18558.69
463.111	19906.26
463.316	20905.67
463.522	21280.44
463.727	21849.78
463.932	23072.42
464.138	23424.67
464.343	24108.69
464.549	24606.34
464.754	26494.57
464.959	27317.86
465.165	27551.32
465.37	27530.84
465.575	27500.12
465.781	29668.92
465.986	30314.03
466.191	29605.44
466.397	29929.02
466.602	29593.15
466.807	30866.98
467.012	31440.42
467.218	31880.73
467.423	31919.64
467.628	32693.77
467.833	34584.05
468.038	34246.13
468.244	33500.67
468.449	34969.07
468.654	34307.57
468.859	34328.05
469.064	34323.96
469.269	33725.95
469.474	34049.53
469.679	34584.05
469.885	33762.81
470.09	34131.45
470.295	34524.66
470.5	33730.05
470.705	34008.57
470.91	33062.41
471.115	32597.52
471.32	33388.03
471.525	33101.32
471.73	31831.58
471.935	31854.11
472.139	30559.79
472.344	31034.92
472.549	30471.73
472.754	29980.21
472.959	29124.16
473.164	28341.84
473.369	28005.97
473.574	28624.46
473.778	28266.06
473.983	27635.29
474.188	27221.6
474.393	25794.17
474.598	25941.62
474.802	25235.07
475.007	24817.29
475.212	24661.64
475.417	23819.92
475.621	23746.2
475.826	23291.55
476.031	22550.18
476.235	21991.09
476.44	22515.37
476.645	21784.24
476.849	21728.95
477.054	21188.28
477.259	20635.33
477.463	20840.13
477.668	20217.55
477.872	20143.82
478.077	19457.75
478.282	19076.83
478.486	18644.71
478.691	18624.23
478.895	18425.57
479.1	18542.31
479.304	18261.74
479.509	17596.15
479.713	17874.67
479.918	17444.6
480.122	17043.2
480.326	17139.45
480.531	16979.71
480.735	16951.04
480.94	16641.79
481.144	17098.49
481.348	16215.82
481.553	16563.97
481.757	15900.43
481.961	16115.47
482.166	16238.34
482.37	15961.87
482.574	15484.69
482.778	15664.91
482.983	15920.91
483.187	15423.25
483.391	15460.12
483.595	14837.53
483.8	14964.51
484.004	15089.43
484.208	14892.83
484.412	14675.74
484.616	14561.06
484.821	14516
485.025	13973.29
485.229	14026.54
485.433	13762.35
485.637	13965.1
485.841	13375.28
486.045	13422.39
486.249	13367.09
486.453	13041.47
486.657	12955.45
486.861	12582.72
487.065	12218.18
487.269	12404.55
487.473	11714.38
487.677	12220.23
487.881	11919.18
488.085	11491.15
488.289	11427.67
488.493	11243.35
488.697	11077.46
488.901	10839.9
489.105	10762.08
489.309	10483.55
489.512	10407.78
489.716	10372.96
489.92	9985.9
490.124	9592.69
490.328	9791.34
490.531	9324.4
490.735	9375.6
490.939	9015.16
491.143	9049.97
491.346	8787.83
491.55	8669.05
491.754	8525.69
491.958	8490.88
492.161	8368
492.365	8132.48
492.569	8091.52
492.772	7804.81
492.976	8066.95
493.18	7839.62
493.383	7860.1
493.587	7688.07
493.79	7536.52
493.994	7243.67
494.197	7192.47
494.401	7319.44
494.605	7258
494.808	7227.28
495.012	7075.73
495.215	7305.1
495.419	7202.71
495.622	6758.3
495.825	6877.08
496.029	6850.46
496.232	6905.75
496.436	6737.82
496.639	6823.83
496.843	6774.68
497.046	6739.87
497.249	6909.85
497.453	6903.7
497.656	6817.69
497.859	6963.09
498.063	6858.65
498.266	7135.12
498.469	6690.71
498.673	6862.74
498.876	6977.43
499.079	7106.45
499.282	7098.26
499.485	7333.78
499.689	6930.33
499.892	7210.9
500.095	7010.2
500.298	7319.44
500.501	6956.95
500.705	7448.46
500.908	7251.86
501.111	7520.14
501.314	7518.09
501.517	7831.43
501.72	7604.11
501.923	7563.15
502.126	7946.12
502.329	8040.33
502.532	8087.43
502.735	8015.75
502.938	8376.19
503.141	8228.74
503.344	8486.78
503.547	8507.26
503.75	8482.69
503.953	8793.98
504.156	8796.03
504.359	8925.05
504.562	8918.9
504.765	9217.91
504.968	9434.99
505.17	9539.44
505.373	9514.86
505.576	9523.05
505.779	9965.42
505.982	9910.12
506.185	10282.85
506.387	10395.49
506.59	10727.26
506.793	10831.71
506.996	10786.65
507.198	11355.99
507.401	11384.66
507.604	11665.23
507.807	11984.71
508.009	12033.86
508.212	12279.62
508.415	12463.94
508.617	12846.91
508.82	12873.53
509.022	13227.83
509.225	13600.56
509.428	13797.17
509.63	14118.7
509.833	14124.84
510.035	14903.07
510.238	14892.83
510.44	15464.21
510.643	15576.85
510.845	16203.53
511.048	16168.71
511.25	16805.63
511.453	16883.45
511.655	17635.06
511.858	17968.88
512.06	18292.46
512.262	18452.2
512.465	18630.37
512.667	19252.95
512.87	19842.77
513.072	20082.38
513.274	20524.74
513.477	21049.02
513.679	21472.95
513.881	21941.94
514.084	22484.65
514.286	22851.24
514.488	23176.86
514.69	24280.72
514.893	24510.09
515.095	24878.72
515.297	25392.76
515.499	25951.86
515.701	26752.62
515.904	27106.91
516.106	27651.67
516.308	28114.51
516.51	28745.29
516.712	28978.76
516.914	29552.19
517.116	30561.84
517.318	30598.7
517.52	31460.9
517.722	31530.53
517.925	32357.91
518.127	33232.39
518.329	33650.17
518.531	33594.88
518.733	34692.59
518.935	35132.9
519.136	35208.68
519.338	36292.05
519.54	36773.33
519.742	37146.06
519.944	37524.93
520.146	38196.67
520.348	38665.65
520.55	39171.5
520.752	39275.94
520.954	40287.64
521.155	39871.9
521.357	41004.43
521.559	41479.56
521.761	41981.31
521.963	42126.72
522.164	42134.91
522.366	42587.51
522.568	43246.96
522.77	43388.27
522.971	44074.34
523.173	43906.4
523.375	44326.24
523.576	44037.47
523.778	44465.5
523.98	45358.41
524.181	44928.34
524.383	45120.85
524.584	45550.92
524.786	45489.48
524.988	45342.03
525.189	45626.7
525.391	45929.8
525.592	45563.21
525.794	45526.35
525.995	45358.41
526.197	45071.7
526.398	45509.96
526.6	45671.75
526.801	45251.92
527.003	45264.21
527.204	44846.42
527.406	44871
527.607	44537.18
527.808	44569.94
528.01	43619.69
528.211	43699.56
528.412	43914.59
528.614	43271.53
528.815	43396.46
529.016	43314.54
529.218	42354.04
529.419	42581.37
529.62	41782.66
529.822	41541
530.023	40920.46
530.224	40605.08
530.425	40185.24
530.626	39603.62
530.828	39302.57
531.029	39499.17
531.23	38456.76
531.431	38151.61
531.632	38069.69
531.833	37832.13
532.035	37035.47
532.236	36744.66
532.437	36429.27
532.638	35599.84
532.839	35175.91
533.04	34874.86
533.241	34231.8
533.442	34250.23
533.643	33674.75
533.844	33113.61
534.045	32273.94
534.246	32026.14
534.447	31694.36
534.648	31440.42
534.849	31182.37
535.05	30242.35
535.251	29896.25
535.451	29566.52
535.652	29244.99
535.853	28943.94
536.054	28655.18
536.255	28022.36
536.456	27520.6
536.657	27778.65
536.857	26922.6
537.058	26564.2
537.259	26623.59
537.46	26091.12
537.66	25665.14
537.861	25280.13
538.062	24776.33
538.263	24450.7
538.463	24336.01
538.664	23950.99
538.865	23719.57
539.065	23529.11
539.266	22898.34
539.466	22892.19
539.667	22138.54
539.868	22374.06
540.068	21984.94
540.269	21624.5
540.469	21819.06
540.67	21391.03
540.87	20973.25
541.071	20709.06
541.271	20690.63
541.472	20539.08
541.672	19896.02
541.873	19844.82
542.073	19431.13
542.274	19488.47
542.474	19138.27
542.675	18896.61
542.875	18857.7
543.075	18374.38
543.276	18343.66
543.476	18265.83
543.676	17993.45
543.877	17690.35
544.077	17280.76
544.277	17364.73
544.478	17026.81
544.678	17106.68
544.878	16602.88
545.078	16797.44
545.279	16396.04
545.479	16023.31
545.679	16058.12
545.879	15779.6
546.079	15738.64
546.28	15585.04
546.48	15290.13
546.68	15329.05
546.88	15134.49
547.08	14950.17
547.28	14765.85
547.48	14090.02
547.68	14401.32
547.88	14147.37
548.081	13858.6
548.281	13866.8
548.481	13449.01
548.681	13508.4
548.881	13172.53
549.081	12767.04
549.28	12832.57
549.48	12818.24
549.68	12547.9
549.88	12623.68
550.08	12095.3
550.28	12060.49
550.48	11943.75
550.68	11833.16
550.88	11523.92
551.08	11413.33
551.279	11265.88
551.479	10915.67
551.679	11145.05
551.879	10843.99
552.079	10622.81
552.278	10501.98
552.478	10469.22
552.678	10172.26
552.878	10090.34
553.077	9887.59
553.277	9650.03
553.477	9543.53
553.676	9559.92
553.876	9285.49
554.076	9101.17
554.275	8974.2
554.475	8826.75
554.674	8818.55
554.874	8513.41
555.074	8261.51
555.273	8253.31
555.473	8253.31
555.672	7987.08
555.872	7804.81
556.071	7780.23
556.271	7856.01
556.47	7608.2
556.67	7335.82
556.869	7184.27
557.068	7190.42
557.268	7147.41
557.467	7028.63
557.667	7049.11
557.866	6795.16
558.065	6662.04
558.265	6571.93
558.464	6317.98
558.663	6444.96
558.863	6277.02
559.062	6338.46
559.261	6037.41
559.461	6057.89
559.66	5609.39
559.859	5668.78
560.058	5666.73
560.258	5433.26
560.457	5476.27
560.656	5599.15
560.855	5113.78
561.054	5445.55
561.253	5091.25
561.453	4900.79
561.652	5019.57
561.851	5038
562.05	4718.52
562.249	4753.34
562.448	4829.11
562.647	4636.6
562.846	4542.39
563.045	4425.66
563.244	4313.02
563.443	4483
563.642	4452.28
563.841	4272.06
564.04	4145.09
564.239	4288.45
564.438	4046.79
564.637	3899.33
564.836	3954.63
565.035	4126.66
565.234	3762.12
565.432	3921.86
565.631	3758.02
565.83	3684.3
566.029	3655.62
566.228	3606.47
566.427	3727.3
566.625	3387.34
566.824	3493.83
567.023	3440.59
567.222	3373
567.42	3303.37
567.619	3246.03
567.818	3176.4
568.016	3362.76
568.215	3133.39
568.414	3162.06
568.612	3086.29
568.811	2955.22
569.01	2934.74
569.208	2910.16
569.407	3026.9
569.605	2832.34
569.804	2725.85
570.002	2777.05
570.201	2660.31
570.4	2803.67
570.598	2695.13
570.797	2502.62
570.995	2521.05
571.193	2494.43
571.392	2471.9
571.59	2379.74
571.789	2492.38
571.987	2379.74
572.186	2381.79
572.384	2191.33
572.582	2295.77
572.781	2410.46
572.979	2224.09
573.177	2115.55
573.376	2183.13
573.574	2166.75
573.772	2060.26
573.971	2011.11
574.169	1945.57
574.367	2039.78
574.565	1880.04
574.763	1935.33
574.962	1929.19
575.16	1941.47
575.358	1777.64
575.556	1806.31
575.754	1789.92
575.952	1642.47
576.151	1787.88
576.349	1826.79
576.547	1630.18
576.745	1624.04
576.943	1667.05
577.141	1550.31
577.339	1531.88
577.537	1632.23
577.735	1701.86
577.933	1503.21
578.131	1533.93
578.329	1685.48
578.527	1421.29
578.725	1382.38
578.923	1382.38
579.121	1370.09
579.319	1224.69
579.516	1300.46
579.714	1535.98
579.912	1368.04
580.11	1177.58
580.308	1245.16
580.506	1222.64
580.704	1177.58
580.901	1150.96
581.099	1253.36
581.297	1208.3
581.495	1173.49
581.692	1105.9
581.89	1173.49
582.088	1243.12
582.285	1048.56
582.483	1046.51
582.681	1142.77
582.878	1060.85
583.076	1075.18
583.274	1017.84
583.471	1150.96
583.669	1026.03
583.866	915.44
584.064	937.97
584.262	849.91
584.459	962.55
584.657	890.87
584.854	991.22
585.052	954.35
585.249	862.19
585.447	872.43
585.644	854
585.841	976.88
586.039	905.2
586.236	880.63
586.434	833.52
586.631	856.05
586.828	743.41
587.026	837.62
587.223	669.69
587.42	641.01
587.618	786.42
587.815	823.28
588.012	733.17
588.21	821.24
588.407	780.28
588.604	778.23
588.801	669.69
588.999	667.64
589.196	735.22
589.393	647.16
589.59	677.88
589.787	669.69
589.984	700.41
590.182	686.07
590.379	665.59
590.576	694.26
590.773	591.86
590.97	569.34
591.167	620.53
591.364	806.9
591.561	712.69
591.758	849.91
591.955	659.45
592.152	612.34
592.349	702.45
592.546	638.97
592.743	567.29
592.94	681.97
593.137	647.16
593.334	700.41
593.531	641.01
593.727	679.93
593.924	688.12
594.121	718.84
594.318	530.42
594.515	710.65
594.712	778.23
594.908	825.33
595.105	542.71
595.302	757.75
595.499	710.65
595.696	804.85
595.892	724.98
596.089	843.76
596.286	659.45
596.482	825.33
596.679	786.42
596.876	759.8
597.072	813.04
597.269	694.26
597.466	899.06
597.662	817.14
597.859	825.33
598.055	845.81
598.252	890.87
598.448	960.5
598.645	1103.86
598.841	1097.71
599.038	1132.53
599.234	1218.54
599.431	1173.49
599.627	1292.27
599.824	1144.81
600.02	1208.3
600.217	1302.51
600.413	1374.19
600.609	1341.42
600.806	1742.82
601.002	1527.78
601.198	1497.07
601.395	1665
601.591	1771.49
601.787	1767.4
601.984	1914.85
602.18	1923.04
602.376	1904.61
602.572	2039.78
602.769	2191.33
602.965	2250.72
603.161	2349.02
603.357	2400.22
603.553	2467.8
603.75	2420.7
603.946	2602.97
604.142	2680.79
604.338	2858.96
604.534	2856.92
604.73	2912.21
604.926	2940.88
605.122	3336.14
605.318	3274.7
605.514	3278.8
605.71	3264.46
605.906	3569.61
606.102	3612.62
606.298	3901.38
606.494	3942.34
606.69	4140.99
606.886	4136.9
607.082	4241.34
607.278	4169.66
607.474	4530.11
607.67	4435.9
607.866	4562.87
608.062	4868.02
608.257	4894.65
608.453	4929.46
608.649	5119.92
608.845	5310.38
609.041	5660.59
609.236	5756.84
609.432	5754.79
609.628	5959.59
609.824	6111.14
610.019	6262.69
610.215	6502.3
610.411	6823.83
610.606	6868.89
610.802	6944.66
610.998	7217.04
611.193	7464.85
611.389	7284.62
611.584	7583.63
611.78	7794.57
611.976	8058.76
612.171	8546.17
612.367	8560.51
612.562	8738.68
612.758	8818.55
612.953	9049.97
613.149	9664.36
613.344	9752.43
613.539	10155.88
613.735	10465.12
613.93	10600.29
614.126	10653.53
614.321	11261.78
614.517	11462.48
614.712	11669.33
614.907	11966.28
615.103	12388.16
615.298	12281.67
615.493	12678.97
615.688	12840.76
615.884	13633.33
616.079	13856.56
616.274	14419.75
616.47	14407.46
616.665	14913.31
616.86	15114.01
617.055	15800.08
617.25	16115.47
617.445	16398.09
617.641	16559.88
617.836	17491.7
618.031	17624.82
618.226	18247.4
618.421	18634.47
618.616	18931.42
618.811	19259.1
619.006	19760.85
619.201	20424.39
619.396	20831.94
619.591	20944.58
619.786	21814.96
619.981	21765.81
620.176	22722.21
620.371	22828.71
620.566	23545.5
620.761	23781.01
620.956	24772.23
621.151	24563.34
621.346	25640.57
621.541	25642.62
621.735	26365.55
621.93	26805.86
622.125	27326.05
622.32	27690.59
622.515	28079.7
622.709	28632.65
622.904	29589.05
623.099	29867.58
623.294	30170.68
623.488	30633.52
623.683	31360.55
623.878	31516.19
624.072	32235.03
624.267	32986.63
624.462	33377.79
624.656	33277.44
624.851	34700.78
625.046	35091.94
625.24	35364.32
625.435	35775.97
625.629	36564.43
625.824	37002.7
626.018	37150.15
626.213	36957.64
626.407	37801.41
626.602	37989.82
626.796	39116.2
626.991	39349.67
627.185	39263.66
627.38	39820.7
627.574	39810.46
627.768	40295.83
627.963	40754.58
628.157	40177.05
628.352	40891.79
628.546	40555.93
628.74	40854.93
628.935	40940.94
629.129	40631.7
629.323	40377.75
629.517	40754.58
629.712	40209.82
629.906	39777.7
630.1	39366.06
630.294	39581.09
630.489	38858.16
630.683	39116.2
630.877	37676.48
631.071	36865.49
631.265	36699.6
631.459	36117.98
631.653	35145.19
631.848	34495.99
632.042	33523.2
632.236	33187.33
632.43	31852.06
632.624	31438.37
632.818	30221.87
633.012	29212.23
633.206	28526.16
633.4	27901.53
633.594	26504.81
633.788	26197.62
633.982	25243.26
634.176	24315.53
634.369	23084.7
634.563	22204.08
634.757	21591.73
634.951	20973.25
635.145	20057.81
635.339	19283.67
635.533	18509.54
635.726	18013.93
635.92	17090.3
636.114	16322.31
636.308	15480.6
636.501	15259.42
636.695	14608.16
636.889	13719.34
637.083	13444.91
637.276	12775.23
637.47	12121.93
637.664	11568.98
637.857	11589.46
638.051	10921.82
638.244	10497.89
638.438	10006.38
638.632	9670.51
638.825	9234.29
639.019	8927.1
639.212	8486.78
639.406	8490.88
639.599	7886.73
639.793	7757.71
639.986	7231.38
640.18	7133.08
640.373	6834.07
640.567	6514.59
640.76	6262.69
640.954	5959.59
641.147	5601.19
641.34	5408.69
641.534	5414.83
641.727	5035.96
641.92	5060.53
642.114	4720.57
642.307	4569.02
642.5	4538.3
642.694	4093.89
642.887	4061.12
643.08	4061.12
643.273	3844.04
643.467	3751.88
643.66	3495.88
643.853	3280.85
644.046	3368.91
644.239	3112.91
644.432	3078.1
644.626	2985.94
644.819	2748.37
645.012	2592.73
645.205	2820.05
645.398	2613.21
645.591	2314.2
645.784	2277.34
645.977	2193.37
646.17	2162.65
646.363	2064.35
646.556	1961.95
646.749	1908.71
646.942	1818.6
647.135	1812.45
647.328	1591.27
647.521	1656.81
647.714	1601.51
647.907	1574.89
648.099	1394.67
648.292	1521.64
648.485	1423.34
648.678	1339.37
648.871	1214.45
649.064	1286.12
649.256	1230.83
649.449	1122.29
649.642	1036.27
649.835	1013.74
650.027	974.83
650.22	972.79
650.413	958.45
650.605	1099.76
650.798	927.73
650.991	776.18
651.183	823.28
651.376	862.19
651.568	886.77
651.761	759.8
651.954	749.56
652.146	694.26
652.339	731.12
652.531	694.26
652.724	550.9
652.916	587.77
653.109	456.7
653.301	663.54
653.494	657.4
653.686	587.77
653.879	673.78
654.071	616.44
654.263	530.42
654.456	563.19
654.648	579.58
654.84	436.22
655.033	385.02
655.225	593.91
655.417	385.02
655.61	538.62
655.802	423.93
655.994	495.61
656.186	264.19
656.379	481.27
656.571	309.24
656.763	327.67
656.955	448.51
657.148	356.35
657.34	356.35
657.532	374.78
657.724	305.15
657.916	227.32
658.108	382.97
658.3	366.59
658.492	313.34
658.684	278.52
658.876	290.81
659.068	227.32
659.26	210.94
659.452	229.37
659.644	325.63
659.836	356.35
660.028	337.91
660.22	210.94
660.412	290.81
660.604	235.52
660.796	237.56
660.988	217.08
661.18	186.37
661.372	368.63
661.563	223.23
661.755	219.13
661.947	145.41
662.139	129.02
662.331	206.84
662.522	194.56
662.714	165.89
662.906	229.37
663.097	151.55
663.289	172.03
663.481	96.25
663.673	165.89
663.864	219.13
664.056	229.37
664.247	157.69
664.439	210.94
664.631	221.18
664.822	174.08
665.014	122.88
665.205	106.49
665.397	221.18
665.588	161.79
665.78	241.66
665.971	251.9
666.163	169.98
666.354	149.5
666.546	81.92
666.737	102.4
666.929	94.21
667.12	96.25
667.311	159.74
667.503	225.28
667.694	208.89
667.885	231.42
668.077	147.45
668.268	75.77
668.459	114.69
668.651	120.83
668.842	161.79
669.033	102.4
669.224	38.91
669.416	339.96
669.607	135.17
669.798	24.58
669.989	266.24
670.18	114.69
670.371	256
670.563	57.34
670.754	172.03
670.945	157.69
671.136	243.71
671.327	69.63
671.518	215.04
671.709	311.29
671.9	243.71
672.091	141.31
672.282	133.12
672.473	188.41
672.664	8.19
672.855	182.27
673.046	231.42
673.237	194.56
673.428	108.54
673.619	202.75
673.809	96.25
674	204.8
674.191	151.55
674.382	215.04
674.573	139.26
674.764	120.83
674.954	169.98
675.145	22.53
675.336	114.69
675.527	198.65
675.717	124.93
675.908	102.4
676.099	38.91
676.289	165.89
676.48	-10.24
676.671	147.45
676.861	92.16
677.052	112.64
677.243	122.88
677.433	57.34
677.624	227.32
677.814	188.41
678.005	122.88
678.195	290.81
678.386	71.68
678.576	137.21
678.767	67.58
678.957	215.04
679.148	200.7
679.338	239.61
679.529	204.8
679.719	135.17
679.909	284.67
680.1	186.37
680.29	192.51
680.481	63.49
680.671	227.32
680.861	194.56
681.052	153.6
681.242	90.11
681.432	225.28
681.622	223.23
681.813	147.45
682.003	102.4
682.193	137.21
682.383	176.13
682.573	167.93
682.764	190.46
682.954	212.99
683.144	315.39
683.334	108.54
683.524	204.8
683.714	286.72
683.904	280.57
684.094	114.69
684.284	159.74
684.474	256
684.664	303.1
684.854	153.6
685.044	174.08
685.234	237.56
685.424	169.98
685.614	114.69
685.804	299
685.994	256
686.184	137.21
686.374	284.67
686.564	233.47
686.753	92.16
686.943	81.92
687.133	266.24
687.323	172.03
687.513	157.69
687.702	243.71
687.892	184.32
688.082	235.52
688.272	206.84
688.461	225.28
688.651	276.48
688.841	274.43
689.03	192.51
689.22	92.16
689.41	182.27
689.599	186.37
689.789	75.77
689.979	237.56
690.168	167.93
690.358	247.8
690.547	202.75
690.737	215.04
690.926	221.18
691.116	176.13
691.305	243.71
691.495	231.42
691.684	176.13
691.874	141.31
692.063	145.41
692.252	237.56
692.442	221.18
692.631	202.75
692.82	186.37
693.01	221.18
693.199	100.35
693.388	243.71
693.578	176.13
693.767	253.95
693.956	223.23
694.146	163.84
694.335	231.42
694.524	190.46
694.713	256
694.902	83.97
695.092	178.17
695.281	206.84
695.47	190.46
695.659	122.88
695.848	167.93
696.037	141.31
696.226	311.29
696.415	157.69
696.604	153.6
696.793	241.66
696.982	137.21
697.171	282.62
697.36	178.17
697.549	120.83
697.738	79.87
697.927	184.32
698.116	122.88
698.305	180.22
698.494	165.89
698.683	210.94
698.872	296.96
699.061	260.09
699.25	106.49
699.438	182.27
699.627	131.07
699.816	192.51
700.005	100.35
700.193	57.34
700.382	198.65
700.571	180.22
700.76	270.33
700.948	196.61
701.137	249.85
701.326	217.08
701.514	112.64
701.703	165.89
701.892	157.69
702.08	372.73
702.269	116.73
702.457	110.59
702.646	131.07
702.834	92.16
703.023	196.61
703.212	264.19
703.4	184.32
703.589	110.59
703.777	110.59
703.965	112.64
704.154	96.25
704.342	196.61
704.531	180.22
704.719	139.26
704.907	200.7
705.096	47.1
705.284	161.79
705.472	159.74
705.661	231.42
705.849	235.52
706.037	270.33
706.226	141.31
706.414	167.93
706.602	71.68
706.79	198.65
706.979	110.59
707.167	129.02
707.355	69.63
707.543	221.18
707.731	229.37
707.919	184.32
708.107	137.21
708.296	131.07
708.484	151.55
708.672	135.17
708.86	233.47
709.048	133.12
709.236	180.22
709.424	219.13
709.612	143.36
709.8	53.25
709.988	69.63
710.176	223.23
710.364	217.08
710.551	90.11
710.739	100.35
710.927	114.69
711.115	167.93
711.303	190.46
711.491	317.44
711.679	210.94
711.866	190.46
712.054	81.92
712.242	223.23
712.43	172.03
712.617	200.7
712.805	229.37
712.993	124.93
713.181	122.88
713.368	192.51
713.556	186.37
713.744	167.93
713.931	333.82
714.119	249.85
714.306	120.83
714.494	167.93
714.682	206.84
714.869	77.82
715.057	126.97
715.244	90.11
715.432	184.32
715.619	104.45
715.807	196.61
715.994	139.26
716.182	210.94
716.369	227.32
716.556	155.65
716.744	153.6
716.931	81.92
717.119	169.98
717.306	141.31
717.493	176.13
717.681	141.31
717.868	108.54
718.055	178.17
718.242	172.03
718.43	137.21
718.617	210.94
718.804	147.45
718.991	247.8
719.179	169.98
719.366	206.84
719.553	251.9
719.74	116.73
719.927	237.56
720.114	196.61
720.301	106.49
720.488	75.77
720.676	180.22
720.863	272.38
721.05	325.63
721.237	225.28
721.424	245.76
721.611	159.74
721.798	94.21
721.985	122.88
722.172	139.26
722.358	212.99
722.545	258.04
722.732	174.08
722.919	237.56
723.106	237.56
723.293	165.89
723.48	227.32
723.667	116.73
723.853	278.52
724.04	223.23
724.227	309.24
724.414	106.49
724.6	221.18
724.787	317.44
724.974	397.31
725.161	305.15
725.347	192.51
725.534	251.9
725.72	266.24
725.907	299
726.094	344.06
726.28	172.03
726.467	247.8
726.653	96.25
726.84	243.71
727.027	387.07
727.213	186.37
727.4	241.66
727.586	251.9
727.773	278.52
727.959	225.28
728.145	258.04
728.332	292.86
728.518	223.23
728.705	276.48
728.891	204.8
729.077	260.09
729.264	151.55
729.45	247.8
729.636	264.19
729.823	245.76
730.009	393.21
730.195	296.96
730.382	327.67
730.568	206.84
730.754	286.72
730.94	247.8
731.126	212.99
731.313	315.39
731.499	268.28
731.685	288.76
731.871	268.28
732.057	319.48
732.243	260.09
732.429	284.67
732.615	419.83
732.801	288.76
732.987	225.28
733.173	262.14
733.359	301.05
733.545	282.62
733.731	335.87
733.917	374.78
734.103	198.65
734.289	292.86
734.475	204.8
734.661	329.72
734.847	307.2
735.033	274.43
735.219	360.44
735.404	219.13
735.59	245.76
735.776	309.24
735.962	276.48
736.148	268.28
736.333	380.92
736.519	301.05
736.705	202.75
736.89	264.19
737.076	253.95
737.262	241.66
737.447	249.85
737.633	333.82
737.819	364.54
738.004	290.81
738.19	282.62
738.375	268.28
738.561	366.59
738.747	301.05
738.932	288.76
739.118	407.55
739.303	368.63
739.489	370.68
739.674	266.24
739.859	219.13
740.045	366.59
740.23	292.86
740.416	198.65
740.601	382.97
740.786	346.11
740.972	253.95
741.157	202.75
741.342	227.32
741.528	237.56
741.713	329.72
741.898	309.24
742.084	276.48
742.269	319.48
742.454	385.02
742.639	350.2
742.824	258.04
743.01	376.83
743.195	444.41
743.38	319.48
743.565	202.75
743.75	370.68
743.935	346.11
744.12	315.39
744.305	272.38
744.49	315.39
744.675	249.85
744.86	229.37
745.045	301.05
745.23	258.04
745.415	202.75
745.6	452.6
745.785	262.14
745.97	419.83
746.155	333.82
746.34	311.29
746.525	378.87
746.71	389.11
746.895	290.81
747.079	200.7
747.264	262.14
747.449	284.67
747.634	315.39
747.819	260.09
748.003	299
748.188	194.56
748.373	342.01
748.557	268.28
748.742	311.29
748.927	249.85
749.111	210.94
749.296	206.84
749.481	325.63
749.665	264.19
749.85	235.52
750.034	192.51
750.219	241.66
750.404	270.33
750.588	325.63
750.773	149.5
750.957	192.51
751.141	260.09
751.326	288.76
751.51	157.69
751.695	204.8
751.879	194.56
752.064	362.49
752.248	245.76
752.432	323.58
752.617	309.24
752.801	233.47
752.985	206.84
753.17	374.78
753.354	274.43
753.538	206.84
753.722	186.37
753.907	272.38
754.091	131.07
754.275	206.84
754.459	223.23
754.643	135.17
754.828	280.57
755.012	266.24
755.196	100.35
755.38	282.62
755.564	135.17
755.748	202.75
755.932	309.24
756.116	227.32
756.3	296.96
756.484	305.15
756.668	288.76
756.852	137.21
757.036	198.65
757.22	292.86
757.404	139.26
757.588	167.93
757.772	223.23
757.956	221.18
758.14	290.81
758.323	172.03
758.507	188.41
758.691	188.41
758.875	210.94
759.059	241.66
759.242	180.22
759.426	174.08
759.61	190.46
759.794	108.54
759.977	266.24
760.161	356.35
760.345	288.76
760.528	221.18
760.712	161.79
760.895	249.85
761.079	192.51
761.263	147.45
761.446	133.12
761.63	235.52
761.813	335.87
761.997	96.25
762.18	161.79
762.364	290.81
762.547	63.49
762.731	137.21
762.914	135.17
763.098	137.21
763.281	114.69
763.464	81.92
763.648	124.93
763.831	88.06
764.015	159.74
764.198	165.89
764.381	155.65
764.564	141.31
764.748	215.04
764.931	167.93
765.114	157.69
765.297	196.61
765.481	45.06
765.664	145.41
765.847	120.83
766.03	221.18
766.213	49.15
766.397	133.12
766.58	36.86
766.763	169.98
766.946	118.78
767.129	73.73
767.312	63.49
767.495	92.16
767.678	75.77
767.861	149.5
768.044	34.82
768.227	53.25
768.41	98.3
768.593	137.21
768.776	139.26
768.959	100.35
769.142	258.04
769.324	120.83
769.507	65.54
769.69	73.73
769.873	116.73
770.056	223.23
770.239	139.26
770.421	184.32
770.604	194.56
770.787	169.98
770.97	104.45
771.152	75.77
771.335	116.73
771.518	94.21
771.7	262.14
771.883	243.71
772.066	73.73
772.248	155.65
772.431	239.61
772.613	77.82
772.796	122.88
772.978	83.97
773.161	219.13
773.343	71.68
773.526	36.86
773.708	-12.29
773.891	26.62
774.073	75.77
774.256	26.62
774.438	186.37
774.621	131.07
774.803	161.79
774.985	34.82
775.168	135.17
775.35	12.29
775.532	184.32
775.715	16.38
775.897	102.4
776.079	-10.24
776.261	137.21
776.444	131.07
776.626	120.83
776.808	71.68
776.99	57.34
777.173	137.21
777.355	172.03
777.537	118.78
777.719	139.26
777.901	26.62
778.083	49.15
778.265	45.06
778.447	176.13
778.629	-8.19
778.811	79.87
778.993	112.64
779.175	145.41
779.357	139.26
779.539	4.1
779.721	112.64
779.903	141.31
780.085	110.59
780.267	92.16
780.449	114.69
780.631	157.69
780.812	81.92
780.994	63.49
781.176	110.59
781.358	16.38
781.54	18.43
781.721	159.74
781.903	126.97
782.085	161.79
782.267	71.68
782.448	-69.63
782.63	40.96
782.812	137.21
782.993	55.3
783.175	169.98
783.357	4.1
783.538	88.06
783.72	32.77
783.901	147.45
784.083	149.5
784.264	104.45
784.446	10.24
784.627	-2.05
784.809	145.41
784.99	30.72
785.172	73.73
785.353	73.73
785.535	75.77
785.716	59.39
785.897	-14.34
786.079	2.05
786.26	71.68
786.441	40.96
786.623	-55.3
786.804	49.15
786.985	18.43
787.167	83.97
787.348	65.54
787.529	36.86
787.71	163.84
787.891	73.73
788.073	40.96
788.254	-63.49
788.435	124.93
788.616	-18.43
788.797	-88.06
788.978	14.34
789.159	-4.1
789.34	53.25
789.522	112.64
789.703	-18.43
789.884	28.67
790.065	110.59
790.246	157.69
790.427	-38.91
790.607	161.79
790.788	75.77
790.969	26.62
791.15	43.01
791.331	-22.53
791.512	63.49
791.693	28.67
791.874	32.77
792.054	188.41
792.235	94.21
792.416	63.49
792.597	-22.53
792.778	88.06
792.958	10.24
793.139	8.19
793.32	18.43
793.5	51.2
793.681	83.97
793.862	90.11
794.042	77.82
794.223	-65.54
794.404	34.82
794.584	-18.43
794.765	47.1
794.945	55.3
795.126	67.58
795.306	83.97
795.487	98.3
795.667	-40.96
795.848	51.2
796.028	67.58
796.209	22.53
796.389	104.45
796.57	36.86
796.75	-16.38
796.93	22.53
797.111	-24.58
797.291	30.72
797.471	129.02
797.652	12.29
797.832	40.96
798.012	94.21
798.192	-22.53
798.373	-104.45
798.553	34.82
798.733	49.15
798.913	6.14
799.093	10.24
799.274	40.96
799.454	53.25
799.634	65.54
799.814	96.25
799.994	126.97
800.174	57.34
800.354	61.44
800.534	-96.25
800.714	65.54
800.894	-77.82
801.074	-28.67
801.254	2.05
801.434	96.25
801.614	10.24
801.794	-14.34
801.974	1599.46
802.154	-10.24
802.334	79.87
802.514	26.62
802.693	12.29
802.873	10.24
803.053	98.3
803.233	30.72
803.413	-2.05
803.592	49.15
803.772	-30.72
803.952	-26.62
804.131	-73.73
804.311	73.73
804.491	120.83
804.67	2.05
804.85	-79.87
805.03	16.38
805.209	153.6
805.389	-10.24
805.568	-75.77
805.748	4.1
805.928	-43.01
806.107	96.25
806.287	63.49
806.466	36.86
806.646	133.12
806.825	28.67
807.004	28.67
807.184	71.68
807.363	-8.19
807.543	73.73
807.722	-26.62
807.901	69.63
808.081	79.87
808.26	-8.19
808.439	100.35
808.619	110.59
808.798	-43.01
808.977	36.86
809.156	71.68
809.336	32.77
809.515	161.79
809.694	32.77
809.873	24.58
810.052	18.43
810.231	102.4
810.411	45.06
810.59	75.77
810.769	12.29
810.948	63.49
811.127	-59.39
811.306	-69.63
811.485	0
811.664	141.31
811.843	40.96
812.022	-18.43
812.201	28.67
812.38	-16.38
812.559	26.62
812.737	98.3
812.916	-73.73
813.095	-49.15
813.274	86.01
813.453	8.19
813.632	20.48
813.811	75.77
813.989	-81.92
814.168	-8.19
814.347	-67.58
814.526	79.87
814.704	172.03
814.883	174.08
815.062	-63.49
815.24	61.44
815.419	-49.15
815.598	57.34
815.776	-98.3
815.955	40.96
816.133	-110.59
816.312	90.11
816.49	53.25
816.669	26.62
816.847	57.34
817.026	90.11
817.204	59.39
817.383	-34.82
817.561	30.72
817.74	16.38
817.918	-8.19
818.097	-57.34
818.275	-22.53
818.453	61.44
818.632	133.12
818.81	18.43
818.988	12.29
819.167	-20.48
819.345	32.77
819.523	22.53
819.701	8.19
819.879	86.01
820.058	-10.24
820.236	45.06
820.414	79.87
820.592	20.48
820.77	92.16
820.948	-49.15
821.127	73.73
821.305	63.49
821.483	-67.58
821.661	90.11
821.839	10.24
822.017	-102.4
822.195	-43.01
822.373	47.1
822.551	-38.91
822.729	47.1
822.907	-63.49
823.085	38.91
823.262	59.39
823.44	-49.15
823.618	16.38
823.796	38.91
823.974	2.05
824.152	-8.19
824.329	-18.43
824.507	20.48
824.685	-20.48
824.863	-6.14
825.04	26.62
825.218	69.63
825.396	43.01
825.574	-32.77
825.751	10.24
825.929	-26.62
826.107	26.62
826.284	-49.15
826.462	-45.06
826.639	28.67
826.817	-55.3
826.994	22.53
827.172	16.38
827.349	83.97
827.527	49.15
827.704	-8.19
827.882	98.3
828.059	-51.2
828.237	14.34
828.414	65.54
828.591	-161.79
828.769	40.96
828.946	-12.29
829.124	86.01
829.301	75.77
829.478	24.58
829.655	22.53
829.833	28.67
830.01	-65.54
830.187	67.58
830.364	12.29
830.542	69.63
830.719	145.41
830.896	79.87
831.073	-6.14
831.25	-6.14
831.427	47.1
831.604	28.67
831.782	-14.34
831.959	57.34
832.136	8.19
832.313	55.3
832.49	-26.62
832.667	6.14
832.844	24.58
833.021	120.83
833.198	-26.62
833.374	-16.38
833.551	30.72
833.728	94.21
833.905	-4.1
834.082	-102.4
834.259	18.43
834.436	114.69
834.612	-30.72
834.789	108.54
834.966	53.25
835.143	184.32
835.319	-22.53
835.496	30.72
835.673	110.59
835.85	45.06
836.026	96.25
836.203	112.64
836.38	-4.1
836.556	-18.43
836.733	-47.1
836.909	137.21
837.086	36.86
837.262	-100.35
837.439	8.19
837.616	2.05
837.792	4.1
837.968	-47.1
838.145	-83.97
838.321	-2.05
838.498	73.73
838.674	79.87
838.851	22.53
839.027	20.48
839.203	-18.43
839.38	65.54
839.556	-59.39
839.732	67.58
839.909	-8.19
840.085	67.58
840.261	-55.3
840.437	40.96
840.614	-53.25
840.79	98.3
840.966	83.97
841.142	53.25
841.318	-26.62
841.494	92.16
841.671	38.91
841.847	-51.2
842.023	-51.2
842.199	-28.67
842.375	94.21
842.551	-65.54
842.727	-24.58
842.903	67.58
843.079	0
843.255	77.82
843.431	40.96
843.607	59.39
843.783	-100.35
843.959	40.96
844.134	-10.24
844.31	106.49
844.486	-2.05
844.662	-24.58
844.838	-40.96
845.013	26.62
845.189	81.92
845.365	51.2
845.541	2.05
845.716	38.91
845.892	34.82
846.068	-26.62
846.244	-81.92
846.419	40.96
846.595	-47.1
846.77	-26.62
846.946	106.49
847.122	-20.48
847.297	-12.29
847.473	155.65
847.648	-114.69
847.824	40.96
847.999	-122.88
848.175	-22.53
848.35	16.38
848.526	94.21
848.701	65.54
848.876	86.01
849.052	51.2
849.227	-49.15
849.403	-43.01
849.578	-20.48
849.753	81.92
849.929	43.01
850.104	-53.25
850.279	22.53
850.454	92.16
850.63	34.82
850.805	-34.82
850.98	38.91
851.155	18.43
851.33	-18.43
851.505	32.77
851.681	116.73
851.856	2.05
852.031	-2.05
852.206	16.38
852.381	-38.91
852.556	-32.77
852.731	53.25
852.906	16.38
853.081	151.55
853.256	149.5
853.431	-14.34
853.606	-61.44
853.781	22.53
853.956	-65.54
854.131	12.29
854.305	-100.35
854.48	-59.39
854.655	-20.48
854.83	14.34
855.005	-36.86
855.18	-18.43
855.354	-8.19
855.529	-43.01
855.704	-2.05
855.879	57.34
856.053	-51.2
856.228	51.2
856.403	-45.06
856.577	6.14
856.752	-73.73
856.926	55.3
857.101	-20.48
857.276	-63.49
857.45	-26.62
857.625	98.3
857.799	-67.58
857.974	20.48
858.148	-79.87
858.323	71.68
858.497	-16.38
858.672	-22.53
858.846	-69.63
859.02	36.86
859.195	-14.34
859.369	-61.44
859.543	2.05
859.718	20.48
859.892	26.62
860.066	63.49
860.241	-10.24
860.415	-61.44
860.589	-34.82
860.763	-6.14
860.938	-86.01
861.112	-10.24
861.286	-28.67
861.46	-36.86
861.634	79.87
861.808	151.55
861.982	2.05
862.157	-112.64
862.331	-63.49
862.505	-47.1
862.679	-67.58
862.853	-16.38
863.027	-32.77
863.201	120.83
863.375	0
863.549	34.82
863.722	55.3
863.896	51.2
864.07	-51.2
864.244	-38.91
864.418	149.5
864.592	36.86
864.766	34.82
864.939	20.48
865.113	-61.44
865.287	18.43
865.461	-34.82
865.634	77.82
865.808	-51.2
865.982	-30.72
866.156	-18.43
866.329	-69.63
866.503	30.72
866.676	67.58
866.85	71.68
867.024	32.77
867.197	77.82
867.371	32.77
867.544	20.48
867.718	-53.25
867.891	116.73
868.065	-79.87
868.238	-77.82
868.412	30.72
868.585	34.82
868.759	-55.3
868.932	0
869.105	-71.68
869.279	22.53
869.452	-59.39
869.625	10.24
869.799	-28.67
869.972	-90.11
870.145	-18.43
870.319	73.73
870.492	-49.15
870.665	-53.25
870.838	63.49
871.011	-151.55
871.185	-24.58
871.358	40.96
871.531	47.1
871.704	-24.58
871.877	-14.34
872.05	-51.2
872.223	-83.97
872.396	94.21
872.569	6.14
872.742	-47.1
872.915	28.67
873.088	-22.53
873.261	6.14
873.434	63.49
873.607	-22.53
873.78	124.93
873.953	-129.02
874.126	51.2
874.299	-4.1
874.471	-75.77
874.644	-69.63
874.817	51.2
874.99	141.31
875.163	-90.11
875.335	-18.43
875.508	0
875.681	73.73
875.853	-32.77
876.026	-32.77
876.199	61.44
876.371	0
876.544	24.58
876.717	-6.14
876.889	-51.2
877.062	88.06
877.234	-59.39
877.407	-6.14
877.579	-38.91
877.752	10.24
877.924	112.64
878.097	57.34
878.269	-30.72
878.442	49.15
878.614	49.15
878.786	-8.19
878.959	83.97
879.131	18.43
879.303	-92.16
879.476	-14.34
879.648	47.1
879.82	-34.82
879.993	-73.73
880.165	-30.72
880.337	-34.82
880.509	-45.06
880.681	-4.1
880.854	-10.24
881.026	63.49
881.198	202.75
881.37	77.82
881.542	-10.24
881.714	-18.43
881.886	-100.35
882.058	43.01
882.23	-2.05
882.402	-18.43
882.574	36.86
882.746	61.44
882.918	75.77
883.09	2.05
883.262	-43.01
883.434	28.67
883.606	-75.77
883.778	-8.19
883.95	143.36
884.122	-24.58
884.293	106.49
884.465	-26.62
884.637	151.55
884.809	-22.53
884.98	14.34
885.152	59.39
885.324	96.25
885.496	-90.11
885.667	-51.2
885.839	-4.1
886.011	135.17
886.182	-47.1
886.354	139.26
886.525	38.91
886.697	-4.1
886.869	20.48
887.04	-22.53
887.212	108.54
887.383	139.26
887.555	57.34
887.726	-34.82
887.897	-22.53
888.069	-6.14
888.24	75.77
888.412	26.62
888.583	20.48
888.754	-47.1
888.926	-77.82
889.097	8.19
889.268	-59.39
889.44	-55.3
889.611	-79.87
889.782	-75.77
889.953	-45.06
890.125	53.25
890.296	-16.38
890.467	0
890.638	-34.82
890.809	20.48
890.98	-102.4
891.151	43.01
891.323	83.97
891.494	-2.05
891.665	-38.91
891.836	-2.05
892.007	-83.97
892.178	38.91
892.349	49.15
892.52	-69.63
892.691	-20.48
892.862	-16.38
893.032	-71.68
893.203	-114.69
893.374	-38.91
893.545	108.54
893.716	-24.58
893.887	43.01
894.057	-69.63
894.228	51.2
894.399	-18.43
894.57	106.49
894.74	-22.53
894.911	55.3
895.082	-6.14
895.253	-16.38
895.423	20.48
895.594	4.1
895.764	22.53
895.935	8.19
896.106	77.82
896.276	-59.39
896.447	36.86
896.617	-20.48
896.788	-34.82
896.958	-4.1
897.129	-71.68
897.299	-45.06
897.47	77.82
897.64	71.68
897.81	38.91
897.981	22.53
898.151	-40.96
898.322	8.19
898.492	67.58
898.662	-69.63
898.832	-32.77
899.003	-59.39
899.173	77.82
899.343	-10.24
899.513	-73.73
