Data from USB4F104151__28__10-24-11-842.txt Node

Date: Wed Feb 26 10:24:11 EST 2025
User: louis
Spectrometer: USB4F10415
Trigger mode: 4
Integration Time (sec): 1.000000E-1
Scans to average: 1
Electric dark correction enabled: true
Nonlinearity correction enabled: false
Boxcar width: 0
XAxis mode: Wavelengths
Number of Pixels in Spectrum: 3648
>>>>>Begin Spectral Data<<<<<
178.204	-416.42
178.424	-416.42
178.644	-416.42
178.864	-420.52
179.084	-436.9
179.304	-0.68
179.524	-49.83
179.744	-4.78
179.964	64.85
180.184	-8.87
180.404	89.43
180.624	-105.13
180.844	42.32
181.064	-25.26
181.283	40.28
181.503	-35.5
181.723	-6.83
181.943	-51.88
182.163	159.06
182.383	3.41
182.602	71
182.822	132.44
183.042	48.47
183.262	-86.7
183.482	5.46
183.701	34.13
183.921	17.75
184.141	-78.51
184.361	25.94
184.58	-45.74
184.8	11.61
185.02	32.08
185.239	138.58
185.459	-19.11
185.679	62.8
185.898	-133.8
186.118	-2.73
186.338	89.43
186.557	79.19
186.777	-146.09
186.997	-29.35
187.216	38.23
187.436	218.45
187.655	62.8
187.875	34.13
188.095	-0.68
188.314	36.18
188.534	118.1
188.753	-55.98
188.973	68.95
189.192	-12.97
189.412	-72.36
189.631	-0.68
189.851	101.72
190.07	152.91
190.29	-113.32
190.509	19.8
190.729	-25.26
190.948	97.62
191.168	183.63
191.387	83.28
191.607	38.23
191.826	36.18
192.045	56.66
192.265	17.75
192.484	66.9
192.704	44.37
192.923	-31.4
193.142	208.21
193.362	169.3
193.581	167.25
193.8	34.13
194.02	93.52
194.239	27.99
194.458	99.67
194.678	-64.17
194.897	9.56
195.116	64.85
195.335	27.99
195.555	-45.74
195.774	-72.36
195.993	81.24
196.212	7.51
196.432	42.32
196.651	-0.68
196.87	-29.35
197.089	226.64
197.308	19.8
197.528	50.52
197.747	-51.88
197.966	62.8
198.185	66.9
198.404	-15.02
198.623	62.8
198.842	107.86
199.062	54.61
199.281	118.1
199.5	46.42
199.719	97.62
199.938	75.09
200.157	42.32
200.376	60.76
200.595	114
200.814	44.37
201.033	-6.83
201.252	122.2
201.471	83.28
201.69	27.99
201.909	77.14
202.128	93.52
202.347	77.14
202.566	38.23
202.785	-58.03
203.004	-27.31
203.223	202.07
203.442	25.94
203.661	-62.12
203.879	54.61
204.098	17.75
204.317	-27.31
204.536	97.62
204.755	25.94
204.974	58.71
205.193	-27.31
205.411	75.09
205.63	126.29
205.849	64.85
206.068	77.14
206.287	-31.4
206.505	97.62
206.724	48.47
206.943	-129.7
207.162	-2.73
207.381	27.99
207.599	21.85
207.818	34.13
208.037	-82.6
208.255	52.56
208.474	99.67
208.693	60.76
208.911	-10.92
209.13	38.23
209.349	25.94
209.567	30.04
209.786	23.89
210.005	130.39
210.223	-6.83
210.442	-125.61
210.661	50.52
210.879	64.85
211.098	40.28
211.316	40.28
211.535	-39.59
211.753	46.42
211.972	81.24
212.191	-66.22
212.409	21.85
212.628	75.09
212.846	-23.21
213.065	50.52
213.283	144.72
213.502	-19.11
213.72	66.9
213.938	38.23
214.157	5.46
214.375	134.48
214.594	56.66
214.812	85.33
215.031	17.75
215.249	32.08
215.467	-15.02
215.686	54.61
215.904	116.05
216.122	32.08
216.341	128.34
216.559	46.42
216.778	122.2
216.996	195.92
217.214	-33.45
217.432	3.41
217.651	-37.55
217.869	103.76
218.087	-17.07
218.306	-78.51
218.524	40.28
218.742	-39.59
218.96	68.95
219.179	-31.4
219.397	1.37
219.615	183.63
219.833	165.2
220.051	15.7
220.27	32.08
220.488	105.81
220.706	79.19
220.924	-12.97
221.142	-12.97
221.36	44.37
221.578	81.24
221.796	-21.16
222.015	5.46
222.233	81.24
222.451	148.82
222.669	-31.4
222.887	46.42
223.105	-70.31
223.323	9.56
223.541	-0.68
223.759	89.43
223.977	32.08
224.195	114
224.413	52.56
224.631	44.37
224.849	27.99
225.067	234.83
225.285	3.41
225.503	-25.26
225.721	-60.07
225.939	68.95
226.157	-58.03
226.375	204.11
226.592	50.52
226.81	15.7
227.028	165.2
227.246	101.72
227.464	27.99
227.682	64.85
227.9	120.15
228.117	48.47
228.335	23.89
228.553	-29.35
228.771	-37.55
228.989	85.33
229.206	60.76
229.424	-0.68
229.642	-17.07
229.86	-55.98
230.077	103.76
230.295	1.37
230.513	118.1
230.731	52.56
230.948	107.86
231.166	148.82
231.384	-31.4
231.601	-17.07
231.819	154.96
232.037	-19.11
232.254	-76.46
232.472	-21.16
232.689	1.37
232.907	68.95
233.125	17.75
233.342	-45.74
233.56	-2.73
233.777	-45.74
233.995	1.37
234.213	56.66
234.43	13.65
234.648	46.42
234.865	68.95
235.083	-35.5
235.3	60.76
235.518	97.62
235.735	44.37
235.953	77.14
236.17	-0.68
236.388	118.1
236.605	-51.88
236.822	111.96
237.04	99.67
237.257	5.46
237.475	-41.64
237.692	-19.11
237.909	97.62
238.127	-64.17
238.344	99.67
238.562	-17.07
238.779	-19.11
238.996	-39.59
239.214	124.24
239.431	111.96
239.648	-45.74
239.865	42.32
240.083	44.37
240.3	-60.07
240.517	-92.84
240.735	21.85
240.952	107.86
241.169	27.99
241.386	42.32
241.603	-2.73
241.821	-15.02
242.038	48.47
242.255	79.19
242.472	-37.55
242.689	99.67
242.907	93.52
243.124	52.56
243.341	-21.16
243.558	-78.51
243.775	13.65
243.992	-31.4
244.209	11.61
244.426	243.03
244.643	77.14
244.86	9.56
245.078	36.18
245.295	5.46
245.512	46.42
245.729	52.56
245.946	97.62
246.163	36.18
246.38	-6.83
246.597	25.94
246.814	25.94
247.031	56.66
247.248	38.23
247.464	23.89
247.681	105.81
247.898	46.42
248.115	83.28
248.332	-12.97
248.549	144.72
248.766	150.87
248.983	50.52
249.2	75.09
249.417	91.48
249.633	23.89
249.85	46.42
250.067	68.95
250.284	25.94
250.501	109.91
250.717	-0.68
250.934	-62.12
251.151	136.53
251.368	-31.4
251.585	21.85
251.801	34.13
252.018	-62.12
252.235	116.05
252.451	-39.59
252.668	40.28
252.885	128.34
253.102	132.44
253.318	17.75
253.535	-23.21
253.752	-49.83
253.968	19.8
254.185	-49.83
254.401	7.51
254.618	122.2
254.835	68.95
255.051	132.44
255.268	140.63
255.484	81.24
255.701	-51.88
255.917	38.23
256.134	-25.26
256.351	-19.11
256.567	-109.22
256.784	-19.11
257	-68.27
257.217	103.76
257.433	13.65
257.65	9.56
257.866	118.1
258.082	-78.51
258.299	27.99
258.515	17.75
258.732	-60.07
258.948	-58.03
259.165	58.71
259.381	-45.74
259.597	42.32
259.814	-55.98
260.03	58.71
260.246	-10.92
260.463	189.78
260.679	60.76
260.895	81.24
261.112	32.08
261.328	30.04
261.544	-60.07
261.761	136.53
261.977	-82.6
262.193	-49.83
262.409	126.29
262.626	40.28
262.842	93.52
263.058	-29.35
263.274	42.32
263.49	38.23
263.707	126.29
263.923	118.1
264.139	-55.98
264.355	15.7
264.571	101.72
264.787	36.18
265.004	107.86
265.22	-25.26
265.436	-21.16
265.652	81.24
265.868	32.08
266.084	-37.55
266.3	21.85
266.516	15.7
266.732	50.52
266.948	7.51
267.164	1.37
267.38	105.81
267.596	144.72
267.812	169.3
268.028	38.23
268.244	-62.12
268.46	-74.41
268.676	-15.02
268.892	66.9
269.108	-62.12
269.324	-47.79
269.54	-78.51
269.756	75.09
269.972	-2.73
270.188	-17.07
270.403	-21.16
270.619	-25.26
270.835	93.52
271.051	13.65
271.267	-49.83
271.483	9.56
271.698	103.76
271.914	73.04
272.13	21.85
272.346	60.76
272.562	9.56
272.777	148.82
272.993	-23.21
273.209	-55.98
273.425	-15.02
273.64	-53.93
273.856	9.56
274.072	-29.35
274.287	-19.11
274.503	79.19
274.719	68.95
274.934	-43.69
275.15	-45.74
275.366	62.8
275.581	-43.69
275.797	1.37
276.012	48.47
276.228	1.37
276.444	23.89
276.659	75.09
276.875	-23.21
277.09	25.94
277.306	-29.35
277.521	42.32
277.737	11.61
277.952	48.47
278.168	81.24
278.383	71
278.599	30.04
278.814	128.34
279.03	-23.21
279.245	122.2
279.461	25.94
279.676	91.48
279.892	-103.08
280.107	-94.89
280.322	-55.98
280.538	75.09
280.753	32.08
280.969	23.89
281.184	11.61
281.399	99.67
281.615	81.24
281.83	-15.02
282.045	-12.97
282.26	-39.59
282.476	1.37
282.691	116.05
282.906	144.72
283.122	-6.83
283.337	-6.83
283.552	-29.35
283.767	-12.97
283.983	99.67
284.198	60.76
284.413	-19.11
284.628	-78.51
284.843	71
285.058	9.56
285.274	-43.69
285.489	-90.79
285.704	163.15
285.919	-60.07
286.134	-35.5
286.349	81.24
286.564	46.42
286.779	111.96
286.995	-2.73
287.21	-80.55
287.425	48.47
287.64	40.28
287.855	-41.64
288.07	-45.74
288.285	116.05
288.5	71
288.715	73.04
288.93	44.37
289.145	-2.73
289.36	62.8
289.575	23.89
289.79	99.67
290.004	-10.92
290.219	58.71
290.434	7.51
290.649	-121.51
290.864	17.75
291.079	-62.12
291.294	19.8
291.509	-51.88
291.724	-58.03
291.938	-29.35
292.153	95.57
292.368	-41.64
292.583	79.19
292.798	48.47
293.012	36.18
293.227	40.28
293.442	11.61
293.657	95.57
293.871	83.28
294.086	73.04
294.301	238.93
294.516	169.3
294.73	-19.11
294.945	-35.5
295.16	34.13
295.374	144.72
295.589	101.72
295.804	-62.12
296.018	15.7
296.233	105.81
296.447	-35.5
296.662	1.37
296.877	85.33
297.091	71
297.306	77.14
297.52	-19.11
297.735	-10.92
297.949	66.9
298.164	56.66
298.378	52.56
298.593	15.7
298.807	-8.87
299.022	44.37
299.236	44.37
299.451	-8.87
299.665	34.13
299.88	25.94
300.094	23.89
300.309	3.41
300.523	75.09
300.737	1.37
300.952	32.08
301.166	48.47
301.381	-4.78
301.595	56.66
301.809	11.61
302.024	46.42
302.238	11.61
302.452	60.76
302.667	36.18
302.881	161.11
303.095	116.05
303.309	-39.59
303.524	-53.93
303.738	-21.16
303.952	-6.83
304.166	40.28
304.381	-94.89
304.595	109.91
304.809	-4.78
305.023	95.57
305.237	-72.36
305.452	52.56
305.666	91.48
305.88	40.28
306.094	163.15
306.308	79.19
306.522	34.13
306.736	-4.78
306.95	23.89
307.164	23.89
307.379	73.04
307.593	140.63
307.807	161.11
308.021	36.18
308.235	68.95
308.449	-117.42
308.663	68.95
308.877	169.3
309.091	1.37
309.305	62.8
309.519	-31.4
309.733	85.33
309.947	-105.13
310.161	95.57
310.374	71
310.588	73.04
310.802	34.13
311.016	54.61
311.23	79.19
311.444	-19.11
311.658	54.61
311.872	75.09
312.085	30.04
312.299	142.68
312.513	204.11
312.727	-6.83
312.941	-68.27
313.154	111.96
313.368	56.66
313.582	64.85
313.796	89.43
314.009	-49.83
314.223	66.9
314.437	1.37
314.651	146.77
314.864	-53.93
315.078	-12.97
315.292	-39.59
315.505	34.13
315.719	11.61
315.933	81.24
316.146	25.94
316.36	-90.79
316.573	142.68
316.787	107.86
317.001	107.86
317.214	-66.22
317.428	40.28
317.641	-10.92
317.855	58.71
318.068	40.28
318.282	60.76
318.495	148.82
318.709	81.24
318.922	-27.31
319.136	120.15
319.349	128.34
319.563	-6.83
319.776	25.94
319.99	-53.93
320.203	52.56
320.417	17.75
320.63	58.71
320.843	220.5
321.057	56.66
321.27	-37.55
321.483	58.71
321.697	202.07
321.91	30.04
322.124	17.75
322.337	107.86
322.55	5.46
322.763	48.47
322.977	5.46
323.19	1.37
323.403	-17.07
323.617	87.38
323.83	142.68
324.043	5.46
324.256	1.37
324.469	-37.55
324.683	44.37
324.896	157.01
325.109	21.85
325.322	19.8
325.535	79.19
325.748	64.85
325.962	-25.26
326.175	42.32
326.388	116.05
326.601	120.15
326.814	-0.68
327.027	17.75
327.24	173.39
327.453	-86.7
327.666	81.24
327.879	75.09
328.092	66.9
328.305	40.28
328.518	9.56
328.731	-78.51
328.944	97.62
329.157	54.61
329.37	7.51
329.583	204.11
329.796	218.45
330.009	-82.6
330.222	87.38
330.435	66.9
330.648	46.42
330.861	44.37
331.073	27.99
331.286	64.85
331.499	60.76
331.712	-51.88
331.925	5.46
332.138	19.8
332.35	109.91
332.563	-2.73
332.776	81.24
332.989	-35.5
333.202	5.46
333.414	60.76
333.627	25.94
333.84	25.94
334.053	87.38
334.265	52.56
334.478	-6.83
334.691	25.94
334.903	87.38
335.116	9.56
335.329	5.46
335.541	36.18
335.754	109.91
335.966	-41.64
336.179	17.75
336.392	17.75
336.604	30.04
336.817	122.2
337.029	58.71
337.242	-10.92
337.454	25.94
337.667	-80.55
337.88	138.58
338.092	75.09
338.305	114
338.517	-29.35
338.729	66.9
338.942	163.15
339.154	11.61
339.367	-105.13
339.579	50.52
339.792	-55.98
340.004	66.9
340.217	32.08
340.429	23.89
340.641	-4.78
340.854	-8.87
341.066	36.18
341.278	73.04
341.491	165.2
341.703	66.9
341.915	-4.78
342.128	122.2
342.34	5.46
342.552	-39.59
342.764	122.2
342.977	17.75
343.189	-33.45
343.401	81.24
343.613	-105.13
343.826	-6.83
344.038	25.94
344.25	-12.97
344.462	-55.98
344.674	21.85
344.886	7.51
345.099	134.48
345.311	30.04
345.523	-27.31
345.735	-72.36
345.947	30.04
346.159	9.56
346.371	48.47
346.583	-41.64
346.795	103.76
347.007	-23.21
347.219	19.8
347.431	7.51
347.643	87.38
347.855	-47.79
348.067	101.72
348.279	-60.07
348.491	42.32
348.703	34.13
348.915	19.8
349.127	-10.92
349.339	3.41
349.551	-101.03
349.763	103.76
349.975	32.08
350.187	144.72
350.399	56.66
350.61	118.1
350.822	-51.88
351.034	13.65
351.246	93.52
351.458	56.66
351.669	77.14
351.881	60.76
352.093	116.05
352.305	95.57
352.517	66.9
352.728	138.58
352.94	54.61
353.152	120.15
353.363	-43.69
353.575	25.94
353.787	134.48
353.999	81.24
354.21	140.63
354.422	-10.92
354.633	44.37
354.845	34.13
355.057	-33.45
355.268	7.51
355.48	114
355.692	-6.83
355.903	101.72
356.115	-29.35
356.326	-82.6
356.538	171.35
356.749	50.52
356.961	157.01
357.172	54.61
357.384	-19.11
357.595	177.49
357.807	-25.26
358.018	-60.07
358.23	1.37
358.441	171.35
358.653	66.9
358.864	-31.4
359.075	38.23
359.287	17.75
359.498	62.8
359.709	107.86
359.921	-25.26
360.132	58.71
360.344	-23.21
360.555	-2.73
360.766	5.46
360.977	25.94
361.189	163.15
361.4	-62.12
361.611	105.81
361.823	97.62
362.034	73.04
362.245	-58.03
362.456	52.56
362.667	71
362.879	-74.41
363.09	7.51
363.301	21.85
363.512	40.28
363.723	-4.78
363.935	-6.83
364.146	91.48
364.357	23.89
364.568	-23.21
364.779	-101.03
364.99	87.38
365.201	-23.21
365.412	68.95
365.623	-101.03
365.834	71
366.045	71
366.256	48.47
366.467	111.96
366.678	116.05
366.889	7.51
367.1	-53.93
367.311	32.08
367.522	-29.35
367.733	58.71
367.944	-25.26
368.155	-0.68
368.366	66.9
368.577	-15.02
368.788	118.1
368.999	-80.55
369.209	52.56
369.42	236.88
369.631	154.96
369.842	97.62
370.053	-27.31
370.264	87.38
370.474	-15.02
370.685	120.15
370.896	25.94
371.107	120.15
371.317	87.38
371.528	-17.07
371.739	132.44
371.95	52.56
372.16	25.94
372.371	-58.03
372.582	32.08
372.792	87.38
373.003	109.91
373.214	30.04
373.424	50.52
373.635	1.37
373.846	105.81
374.056	17.75
374.267	48.47
374.477	17.75
374.688	-74.41
374.898	68.95
375.109	-25.26
375.319	81.24
375.53	124.24
375.74	73.04
375.951	23.89
376.161	7.51
376.372	122.2
376.582	-35.5
376.793	38.23
377.003	-0.68
377.214	32.08
377.424	95.57
377.635	23.89
377.845	-8.87
378.055	154.96
378.266	13.65
378.476	-8.87
378.686	25.94
378.897	50.52
379.107	85.33
379.317	60.76
379.528	-35.5
379.738	142.68
379.948	-62.12
380.158	152.91
380.369	60.76
380.579	44.37
380.789	-6.83
380.999	27.99
381.21	105.81
381.42	128.34
381.63	-43.69
381.84	64.85
382.05	3.41
382.261	73.04
382.471	95.57
382.681	-43.69
382.891	103.76
383.101	1.37
383.311	-64.17
383.521	-51.88
383.731	79.19
383.941	132.44
384.151	9.56
384.361	-6.83
384.571	32.08
384.781	77.14
384.991	214.35
385.201	111.96
385.411	146.77
385.621	48.47
385.831	-23.21
386.041	-15.02
386.251	11.61
386.461	111.96
386.671	-35.5
386.881	36.18
387.091	38.23
387.301	97.62
387.511	40.28
387.72	81.24
387.93	60.76
388.14	-80.55
388.35	144.72
388.56	52.56
388.769	21.85
388.979	97.62
389.189	52.56
389.399	-23.21
389.609	77.14
389.818	38.23
390.028	15.7
390.238	81.24
390.447	-33.45
390.657	54.61
390.867	-27.31
391.076	-60.07
391.286	11.61
391.496	36.18
391.705	46.42
391.915	105.81
392.125	13.65
392.334	50.52
392.544	122.2
392.753	60.76
392.963	-72.36
393.172	21.85
393.382	54.61
393.591	200.02
393.801	-64.17
394.01	171.35
394.22	34.13
394.429	-35.5
394.639	30.04
394.848	23.89
395.058	68.95
395.267	-21.16
395.477	73.04
395.686	71
395.895	189.78
396.105	236.88
396.314	40.28
396.524	46.42
396.733	-8.87
396.942	83.28
397.152	40.28
397.361	101.72
397.57	5.46
397.78	73.04
397.989	17.75
398.198	206.16
398.407	79.19
398.617	-21.16
398.826	62.8
399.035	-17.07
399.244	40.28
399.453	-29.35
399.663	58.71
399.872	-10.92
400.081	5.46
400.29	81.24
400.499	-23.21
400.708	27.99
400.917	-0.68
401.127	44.37
401.336	-0.68
401.545	77.14
401.754	91.48
401.963	85.33
402.172	25.94
402.381	-55.98
402.59	-8.87
402.799	32.08
403.008	81.24
403.217	30.04
403.426	134.48
403.635	-31.4
403.844	34.13
404.053	34.13
404.262	50.52
404.471	99.67
404.68	114
404.888	11.61
405.097	-8.87
405.306	-23.21
405.515	79.19
405.724	3.41
405.933	-31.4
406.142	79.19
406.35	99.67
406.559	-27.31
406.768	19.8
406.977	120.15
407.185	60.76
407.394	85.33
407.603	40.28
407.812	23.89
408.02	40.28
408.229	9.56
408.438	99.67
408.646	-80.55
408.855	54.61
409.064	79.19
409.272	42.32
409.481	140.63
409.69	-6.83
409.898	-23.21
410.107	40.28
410.315	77.14
410.524	34.13
410.733	64.85
410.941	-6.83
411.15	62.8
411.358	159.06
411.567	226.64
411.775	46.42
411.984	77.14
412.192	95.57
412.401	48.47
412.609	200.02
412.818	124.24
413.026	73.04
413.234	9.56
413.443	7.51
413.651	-15.02
413.86	64.85
414.068	161.11
414.276	202.07
414.485	11.61
414.693	136.53
414.901	144.72
415.11	-12.97
415.318	101.72
415.526	73.04
415.734	189.78
415.943	-15.02
416.151	175.44
416.359	21.85
416.567	42.32
416.776	154.96
416.984	103.76
417.192	138.58
417.4	11.61
417.608	1.37
417.817	-60.07
418.025	107.86
418.233	152.91
418.441	30.04
418.649	-27.31
418.857	34.13
419.065	101.72
419.273	46.42
419.481	3.41
419.689	25.94
419.897	-21.16
420.105	-17.07
420.313	152.91
420.521	111.96
420.729	130.39
420.937	-58.03
421.145	15.7
421.353	212.31
421.561	111.96
421.769	75.09
421.977	34.13
422.185	105.81
422.393	-45.74
422.601	107.86
422.809	42.32
423.017	62.8
423.224	107.86
423.432	124.24
423.64	56.66
423.848	124.24
424.056	50.52
424.263	163.15
424.471	81.24
424.679	132.44
424.887	-64.17
425.094	73.04
425.302	48.47
425.51	13.65
425.718	120.15
425.925	27.99
426.133	-2.73
426.341	224.59
426.548	19.8
426.756	54.61
426.964	68.95
427.171	-2.73
427.379	25.94
427.586	27.99
427.794	124.24
428.001	187.73
428.209	48.47
428.417	120.15
428.624	157.01
428.832	159.06
429.039	21.85
429.247	52.56
429.454	75.09
429.662	163.15
429.869	136.53
430.076	60.76
430.284	136.53
430.491	181.59
430.699	68.95
430.906	154.96
431.114	17.75
431.321	38.23
431.528	48.47
431.736	48.47
431.943	177.49
432.15	144.72
432.358	116.05
432.565	273.75
432.772	-35.5
432.979	116.05
433.187	71
433.394	95.57
433.601	73.04
433.808	105.81
434.016	144.72
434.223	128.34
434.43	146.77
434.637	187.73
434.844	243.03
435.052	93.52
435.259	165.2
435.466	181.59
435.673	175.44
435.88	226.64
436.087	283.99
436.294	105.81
436.501	255.31
436.708	195.92
436.915	177.49
437.122	238.93
437.329	210.26
437.537	286.03
437.743	234.83
437.95	353.62
438.157	202.07
438.364	271.7
438.571	204.11
438.778	382.29
438.985	339.28
439.192	365.9
439.399	251.22
439.606	451.92
439.813	361.81
440.02	490.83
440.227	552.27
440.433	515.41
440.64	439.63
440.847	353.62
441.054	419.15
441.261	601.42
441.467	486.73
441.674	445.77
441.881	574.8
442.088	435.53
442.294	546.12
442.501	601.42
442.708	634.19
442.914	554.32
443.121	675.15
443.328	605.52
443.534	752.97
443.741	687.43
443.948	585.04
444.154	828.74
444.361	847.18
444.568	785.74
444.774	789.83
444.981	666.96
445.187	904.52
445.394	830.79
445.6	861.51
445.807	1017.16
446.013	943.43
446.22	875.85
446.426	1072.45
446.633	1056.07
446.839	1236.29
447.046	1115.46
447.252	1277.25
447.459	1181
447.665	1242.43
447.871	1375.55
448.078	1520.96
448.284	1383.74
448.491	1393.98
448.697	1707.32
448.903	1635.64
449.11	1641.79
449.316	1645.88
449.522	1811.77
449.728	1836.35
449.935	2014.52
450.141	2012.47
450.347	2045.24
450.553	1985.85
450.76	2131.25
450.966	2237.75
451.172	2243.89
451.378	2364.72
451.584	2436.4
451.791	2676.01
451.997	2608.43
452.203	2542.89
452.409	2815.27
452.615	2989.35
452.821	2778.41
453.027	2897.19
453.233	3300.64
453.44	3216.68
453.646	3403.04
453.852	3587.36
454.058	3480.86
454.264	3855.64
454.47	3906.84
454.676	4058.39
454.882	4427.03
455.088	4222.23
455.294	4375.83
455.5	4695.31
455.705	4850.96
455.911	5004.55
456.117	5113.1
456.323	5305.6
456.529	5211.4
456.735	5879.04
456.941	5907.71
457.147	6141.18
457.352	6194.42
457.558	6444.27
457.764	6964.46
457.97	6896.88
458.176	7388.39
458.381	7597.28
458.587	7742.69
458.793	8199.38
458.999	8166.62
459.204	9202.89
459.41	9673.92
459.616	9407.69
459.821	10007.74
460.027	10378.42
460.233	10824.88
460.438	10685.62
460.644	11531.43
460.85	11508.9
461.055	11873.44
461.261	12592.28
461.466	12444.82
461.672	12563.61
461.878	13925.5
462.083	13767.81
462.289	14230.65
462.494	14513.27
462.7	15000.69
462.905	14902.39
463.111	16495.71
463.316	16909.4
463.522	17296.46
463.727	17923.14
463.932	18711.61
464.138	19317.81
464.343	19811.37
464.549	20198.43
464.754	21388.3
464.959	22191.11
465.165	22561.79
465.37	22205.44
465.575	22522.88
465.781	23997.42
465.986	24849.37
466.191	24507.36
466.397	24404.96
466.602	23993.32
466.807	25412.56
467.012	25676.75
467.218	26037.19
467.423	26264.52
467.628	26694.59
467.833	28292.01
468.038	27919.28
468.244	27220.92
468.449	28890.01
468.654	28138.41
468.859	28294.05
469.064	28306.34
469.269	27677.61
469.474	27349.94
469.679	28388.26
469.885	27935.66
470.09	28031.91
470.295	28136.36
470.5	28083.11
470.705	27888.56
470.91	26956.73
471.115	26549.18
471.32	27403.19
471.525	27255.73
471.73	26399.68
471.935	26401.73
472.139	25144.28
472.344	25148.37
472.549	25142.23
472.754	24359.91
472.959	24349.67
473.164	23061.49
473.369	23084.02
473.574	23665.64
473.778	23071.73
473.983	22496.25
474.188	22289.41
474.393	21232.66
474.598	21234.71
474.802	20616.22
475.007	20255.78
475.212	20358.17
475.417	19520.56
475.621	19276.85
475.826	19067.95
476.031	18619.45
476.235	18142.27
476.44	18269.25
476.645	17765.45
476.849	17742.92
477.054	17304.65
477.259	16831.57
477.463	16807
477.668	16428.12
477.872	16622.68
478.077	16041.06
478.282	15613.03
478.486	15342.7
478.691	15209.58
478.895	15166.57
479.1	14816.37
479.304	14816.37
479.509	14339.19
479.713	14693.49
479.918	14322.81
480.122	13974.66
480.326	14072.96
480.531	13915.26
480.735	13726.85
480.94	13620.36
481.144	14134.4
481.348	13368.46
481.553	13395.08
481.757	13051.02
481.961	13229.2
482.166	13358.22
482.37	13134.99
482.574	12688.53
482.778	12745.87
482.983	12854.42
483.187	12516.5
483.391	12584.09
483.595	12307.61
483.8	12295.32
484.004	12287.13
484.208	12074.14
484.412	12188.83
484.616	11859.1
484.821	11723.94
485.025	11351.21
485.229	11502.76
485.433	11275.43
485.637	11257
485.841	10958
486.045	10874.03
486.249	10765.49
486.453	10556.6
486.657	10536.12
486.861	10185.91
487.065	10077.37
487.269	9991.36
487.473	9778.37
487.677	9958.59
487.881	9821.38
488.085	9471.17
488.289	9364.68
488.493	9057.48
488.697	9186.51
488.901	8899.79
489.105	8586.45
489.309	8578.26
489.512	8531.16
489.716	8027.35
489.92	8183
490.124	7951.58
490.328	8004.83
490.531	7754.98
490.735	7726.3
490.939	7642.34
491.143	7361.76
491.346	7116.01
491.55	7197.93
491.754	7007.47
491.958	6935.79
492.161	6733.04
492.365	6642.93
492.569	6456.56
492.772	6493.43
492.976	6632.69
493.18	6468.85
493.383	6282.49
493.587	6438.13
493.79	6294.77
493.994	6098.17
494.197	5891.32
494.401	6014.2
494.605	5793.02
494.808	5963
495.012	5690.62
495.215	6092.02
495.419	5919.99
495.622	5686.53
495.825	5645.57
496.029	5602.56
496.232	5790.97
496.436	5715.2
496.639	5833.98
496.843	5528.83
497.046	5635.33
497.249	5893.37
497.453	5688.57
497.656	5582.08
497.859	5678.33
498.063	5709.05
498.266	5764.35
498.469	5502.21
498.673	5549.31
498.876	5700.86
499.079	5721.34
499.282	5639.42
499.485	6059.26
499.689	5795.07
499.892	6135.03
500.095	5842.17
500.298	6135.03
500.501	5907.71
500.705	6065.4
500.908	6292.73
501.111	6153.46
501.314	6360.31
501.517	6337.78
501.72	6499.57
501.923	6481.14
502.126	6534.39
502.329	6642.93
502.532	6835.44
502.735	6575.34
502.938	6941.93
503.141	6886.64
503.344	6929.64
503.547	7261.41
503.75	7064.81
503.953	6972.65
504.156	7513.31
504.359	7480.55
504.562	7623.9
504.765	7820.51
504.968	7914.72
505.17	8039.64
505.373	8092.89
505.576	8330.45
505.779	8289.49
505.982	8475.86
506.185	8461.52
506.387	8795.34
506.59	8950.99
506.793	9172.17
506.996	9096.39
507.198	9592
507.401	9589.95
507.604	9768.13
507.807	9823.42
508.009	10306.74
508.212	10304.7
508.415	10732.72
508.617	10863.79
508.82	10896.56
509.022	11101.36
509.225	11261.1
509.428	11840.67
509.63	11908.26
509.833	12035.23
510.035	12602.52
510.238	12725.4
510.44	12899.47
510.643	13151.37
510.845	13513.86
511.048	13649.03
511.25	14013.57
511.453	14371.96
511.655	15094.89
511.858	14861.43
512.06	15492.2
512.262	15541.35
512.465	15971.43
512.667	16268.38
512.87	16747.61
513.072	16731.22
513.274	17511.5
513.477	17898.56
513.679	18220.1
513.881	18736.18
514.084	19242.03
514.286	19330.09
514.488	19794.98
514.69	20290.59
514.893	20655.13
515.095	21060.63
515.297	21486.61
515.499	21931.01
515.701	22297.6
515.904	22946.81
516.106	23303.15
516.308	23919.59
516.51	24091.62
516.712	24478.69
516.914	24962.01
517.116	25736.14
517.318	26145.73
517.52	26457.03
517.722	26710.97
517.925	27517.87
518.127	28476.32
518.329	28314.53
518.531	28355.49
518.733	29596.56
518.935	29569.94
519.136	30026.64
519.338	31202.17
519.54	31359.86
519.742	31804.27
519.944	31902.57
520.146	32725.86
520.348	33014.62
520.55	33487.7
520.752	33895.25
520.954	34573.13
521.155	34743.11
521.357	35076.93
521.559	35455.8
521.761	36283.18
521.963	36399.91
522.164	36404.01
522.366	36895.52
522.568	37274.4
522.77	36883.23
522.971	38071.06
523.173	37292.83
523.375	38130.45
523.576	37968.66
523.778	37948.18
523.98	38750.98
524.181	38755.08
524.383	38857.48
524.584	39052.03
524.786	38824.71
524.988	39201.54
525.189	39510.78
525.391	39222.01
525.592	39305.98
525.794	39844.6
525.995	39224.06
526.197	39607.03
526.398	39240.45
526.6	39271.17
526.801	39269.12
527.003	39086.85
527.204	39183.1
527.406	39250.69
527.607	38644.49
527.808	39166.72
528.01	37837.59
528.211	37643.03
528.412	38331.15
528.614	37735.19
528.815	37253.92
529.016	37540.63
529.218	36832.04
529.419	36885.28
529.62	36404.01
529.822	35726.13
530.023	35654.45
530.224	35132.22
530.425	35134.27
530.626	34110.28
530.828	34122.57
531.029	34601.8
531.23	33659.73
531.431	33031.01
531.632	33082.2
531.833	32389.99
532.035	31783.79
532.236	31767.41
532.437	31583.09
532.638	30602.11
532.839	30811.01
533.04	30634.88
533.241	29756.3
533.442	30000.01
533.643	29395.86
533.844	28515.23
534.045	28427.17
534.246	28242.85
534.447	27769.77
534.648	27167.67
534.849	27009.98
535.05	26305.48
535.251	26090.44
535.451	25580.49
535.652	24951.77
535.853	25084.89
536.054	24779.74
536.255	24269.79
536.456	24101.86
536.657	24036.33
536.857	23563.25
537.058	23100.4
537.259	23155.7
537.46	22377.47
537.66	22240.26
537.861	22191.11
538.062	21572.62
538.263	21554.19
538.463	21034
538.664	20794.39
538.865	20474.91
539.065	20499.48
539.266	20016.16
539.466	20120.61
539.667	19442.73
539.868	19604.52
540.068	19082.29
540.269	18947.12
540.469	18768.95
540.67	18461.76
540.87	18461.76
541.071	17984.58
541.271	18017.35
541.472	17783.88
541.672	17536.07
541.873	17286.22
542.073	16430.17
542.274	16870.48
542.474	16745.56
542.675	16682.07
542.875	16454.75
543.075	16084.06
543.276	15592.55
543.476	15862.88
543.676	15604.84
543.877	15434.86
544.077	15277.16
544.277	15080.56
544.478	14840.95
544.678	15031.41
544.878	14646.39
545.078	14488.7
545.279	14068.86
545.479	14066.81
545.679	14021.76
545.879	13726.85
546.079	13835.39
546.28	13278.35
546.48	13253.77
546.68	13362.31
546.88	12932.24
547.08	12969.1
547.28	12821.65
547.48	12342.42
547.68	12340.38
547.88	12186.78
548.081	12213.4
548.281	12016.8
548.481	11685.03
548.681	11713.7
548.881	11373.74
549.081	11340.97
549.28	11148.46
549.48	10902.7
549.68	10712.24
549.88	10880.18
550.08	10558.64
550.28	10521.78
550.48	10386.61
550.68	10304.7
550.88	9860.29
551.08	9800.9
551.279	9829.57
551.479	9632.96
551.679	9551.04
551.879	9315.53
552.079	9305.29
552.278	9024.72
552.478	9000.14
552.678	8795.34
552.878	8783.06
553.077	8336.6
553.277	8283.35
553.477	8455.38
553.676	8299.73
553.876	8115.42
554.076	7855.33
554.275	7783.65
554.475	7582.95
554.674	7484.64
554.874	7476.45
555.074	7210.22
555.273	7029.99
555.473	7197.93
555.672	6933.74
555.872	6866.16
556.071	6814.96
556.271	6712.56
556.47	6524.15
556.67	6505.71
556.869	6221.05
557.068	6110.46
557.268	6065.4
557.467	6040.83
557.667	6262.01
557.866	5752.06
558.065	5778.69
558.265	5467.39
558.464	5555.46
558.663	5661.95
558.863	5537.02
559.062	5321.99
559.261	5186.82
559.461	5235.97
559.66	4965.64
559.859	4928.78
560.058	4924.68
560.258	4621.58
560.457	4678.93
560.656	4683.02
560.855	4558.1
561.054	4646.16
561.253	4453.65
561.453	4338.96
561.652	4320.53
561.851	4269.33
562.05	4121.88
562.249	3874.07
562.448	4164.89
562.647	3872.03
562.846	3994.9
563.045	3978.52
563.244	3814.68
563.443	3724.57
563.642	3591.45
563.841	3589.41
564.04	3661.09
564.239	3556.64
564.438	3556.64
564.637	3329.31
564.836	3364.13
565.035	3300.64
565.234	3329.31
565.432	3087.65
565.631	3171.62
565.83	3243.3
566.029	3241.25
566.228	3058.98
566.427	3065.13
566.625	2901.29
566.824	3007.78
567.023	3015.98
567.222	2850.09
567.42	2897.19
567.619	2608.43
567.818	2569.52
568.016	2868.52
568.215	2620.72
568.414	2649.39
568.612	2497.84
568.811	2567.47
569.01	2616.62
569.208	2456.88
569.407	2403.63
569.605	2409.78
569.804	2276.66
570.002	2422.06
570.201	2284.85
570.4	2311.47
570.598	2266.42
570.797	2147.64
570.995	2082.1
571.193	2084.15
571.392	2075.96
571.59	2078.01
571.789	2159.92
571.987	2106.68
572.186	1975.61
572.384	1916.22
572.582	1916.22
572.781	1971.51
572.979	1801.53
573.177	1725.76
573.376	1908.02
573.574	1770.81
573.772	1731.9
573.971	1697.08
574.169	1658.17
574.367	1713.47
574.565	1623.36
574.763	1590.59
574.962	1631.55
575.16	1529.15
575.358	1531.2
575.556	1457.47
575.754	1580.35
575.952	1396.03
576.151	1473.85
576.349	1580.35
576.547	1273.15
576.745	1408.32
576.943	1504.57
577.141	1408.32
577.339	1226.05
577.537	1310.02
577.735	1357.12
577.933	1375.55
578.131	1146.18
578.329	1289.54
578.527	1105.22
578.725	1234.24
578.923	1123.65
579.121	1244.48
579.319	974.15
579.516	1201.47
579.714	1299.78
579.912	1168.71
580.11	896.33
580.308	1060.17
580.506	1064.26
580.704	955.72
580.901	929.1
581.099	1037.64
581.297	1027.4
581.495	1039.69
581.692	992.58
581.89	1037.64
582.088	818.5
582.285	843.08
582.483	863.56
582.681	968.01
582.878	806.22
583.076	857.42
583.274	867.66
583.471	959.81
583.669	841.03
583.866	767.31
584.064	804.17
584.262	763.21
584.459	726.35
584.657	849.22
584.854	806.22
585.052	763.21
585.249	765.26
585.447	769.35
585.644	644.43
585.841	961.86
586.039	728.39
586.236	781.64
586.434	630.09
586.631	560.46
586.828	609.61
587.026	619.85
587.223	591.18
587.42	666.96
587.618	652.62
587.815	658.76
588.012	591.18
588.21	546.12
588.407	669
588.604	585.04
588.801	503.12
588.999	570.7
589.196	611.66
589.393	458.06
589.59	562.51
589.787	605.52
589.984	560.46
590.182	595.28
590.379	482.64
590.576	574.8
590.773	511.31
590.97	580.94
591.167	550.22
591.364	521.55
591.561	449.87
591.758	570.7
591.955	566.6
592.152	460.11
592.349	476.49
592.546	470.35
592.743	476.49
592.94	460.11
593.137	488.78
593.334	499.02
593.531	597.32
593.727	533.84
593.924	496.97
594.121	507.21
594.318	488.78
594.515	597.32
594.712	644.43
594.908	517.45
595.105	402.77
595.302	552.27
595.499	488.78
595.696	683.34
595.892	449.87
596.089	587.08
596.286	496.97
596.482	695.63
596.679	595.28
596.876	576.84
597.072	603.47
597.269	607.56
597.466	607.56
597.662	703.82
597.859	677.2
598.055	732.49
598.252	783.69
598.448	765.26
598.645	812.36
598.841	873.8
599.038	929.1
599.234	984.39
599.431	918.86
599.627	894.28
599.824	996.68
600.02	1006.92
600.217	1021.25
600.413	1047.88
600.609	1039.69
600.806	1322.31
601.002	1152.32
601.198	1119.56
601.395	1207.62
601.591	1281.35
601.787	1385.79
601.984	1445.18
602.18	1561.92
602.376	1457.47
602.572	1629.5
602.769	1623.36
602.965	1541.44
603.161	1805.63
603.357	1770.81
603.553	1987.89
603.75	1865.02
603.946	1883.45
604.142	2014.52
604.338	2143.54
604.534	2080.05
604.73	2168.12
604.926	2209.08
605.122	2413.87
605.318	2366.77
605.514	2581.81
605.71	2508.08
605.906	2850.09
606.102	2794.79
606.298	2823.47
606.494	2940.2
606.69	3075.37
606.886	3257.64
607.082	3194.15
607.278	3263.78
607.474	3374.37
607.67	3446.05
607.866	3280.16
608.062	3669.28
608.257	3685.66
608.453	3765.53
608.649	3962.14
608.845	3949.85
609.041	3941.66
609.236	4209.94
609.432	4414.74
609.628	4584.72
609.824	4549.9
610.019	4658.45
610.215	4834.57
610.411	5160.2
610.606	5055.75
610.802	5203.21
610.998	5276.93
611.193	5354.76
611.389	5653.76
611.584	5641.47
611.78	5733.63
611.976	6147.32
612.171	6483.19
612.367	6339.83
612.562	6681.84
612.758	6653.17
612.953	6847.72
613.149	7163.11
613.344	7335.14
613.539	7511.27
613.735	7709.92
613.93	8017.11
614.126	7933.15
614.321	8305.88
614.517	8608.98
614.712	8805.58
614.907	8991.95
615.103	9211.08
615.298	9276.62
615.493	9712.83
615.688	9845.95
615.884	10280.12
616.079	10091.71
616.274	10648.75
616.47	10648.75
616.665	11080.88
616.86	11410.6
617.055	11617.44
617.25	11906.21
617.445	12434.58
617.641	12637.33
617.836	13044.88
618.031	12987.54
618.226	13571.21
618.421	13831.3
618.616	14242.94
618.811	14189.69
619.006	14773.36
619.201	15123.57
619.396	15549.54
619.591	15539.3
619.786	16206.94
619.981	16254.05
620.176	16829.52
620.371	16917.59
620.566	17617.99
620.761	17863.75
620.956	18357.31
621.151	18441.28
621.346	19110.96
621.541	19321.9
621.735	19872.81
621.93	19790.89
622.125	20165.67
622.32	20542.49
622.515	21072.92
622.709	21484.56
622.904	21971.97
623.099	22258.69
623.294	22821.88
623.488	23233.52
623.683	23639.02
623.878	23518.19
624.072	24325.09
624.267	24740.83
624.462	25078.74
624.656	25269.2
624.851	25719.76
625.046	25637.84
625.24	26291.14
625.435	26741.69
625.629	27130.81
625.824	27284.4
626.018	27831.21
626.213	27810.73
626.407	28525.47
626.602	28705.7
626.796	29246.36
626.991	29281.17
627.185	29725.58
627.38	29821.84
627.574	30180.23
627.768	30114.7
627.963	30172.04
628.157	30317.45
628.352	30677.89
628.546	30325.64
628.74	31077.24
628.935	30323.59
629.129	30827.39
629.323	30223.24
629.517	30626.69
629.712	30167.94
629.906	30139.27
630.1	29705.1
630.294	29881.23
630.489	28930.97
630.683	29334.42
630.877	28396.45
631.071	28142.5
631.265	27886.51
631.459	27147.19
631.653	26461.12
631.848	26266.56
632.042	25547.73
632.236	25353.17
632.43	23825.39
632.624	23825.39
632.818	22739.96
633.012	22209.54
633.206	21722.12
633.4	20890.65
633.594	20165.67
633.788	19385.39
633.982	18992.18
634.176	18443.32
634.369	17763.4
634.563	17146.96
634.757	16428.12
634.951	15883.36
635.145	15352.94
635.339	14634.1
635.533	13964.42
635.726	13343.88
635.92	12813.46
636.114	12373.14
636.308	11775.14
636.501	11639.97
636.695	11095.21
636.889	10566.84
637.083	10206.39
637.276	9700.55
637.47	9340.1
637.664	8912.08
637.857	8559.83
638.051	8240.34
638.244	7959.77
638.438	7541.99
638.632	7398.63
638.825	6921.45
639.019	6782.19
639.212	6372.6
639.406	6192.37
639.599	6034.68
639.793	5788.92
639.986	5395.72
640.18	5434.63
640.373	5240.07
640.567	4965.64
640.76	4705.55
640.954	4627.73
641.147	4332.82
641.34	4046.1
641.534	4148.5
641.727	3966.23
641.92	3677.47
642.114	3568.93
642.307	3560.73
642.5	3357.99
642.694	3130.66
642.887	3136.81
643.08	3069.22
643.273	2921.77
643.467	2608.43
643.66	2678.06
643.853	2575.66
644.046	2514.22
644.239	2383.15
644.432	2250.03
644.626	2114.87
644.819	2096.44
645.012	1991.99
645.205	1930.55
645.398	1924.41
645.591	1750.33
645.784	1621.31
645.977	1598.78
646.17	1666.36
646.363	1510.72
646.556	1449.28
646.749	1473.85
646.942	1410.37
647.135	1398.08
647.328	1248.58
647.521	1281.35
647.714	1117.51
647.907	1264.96
648.099	1023.3
648.292	1158.47
648.485	1004.87
648.678	927.05
648.871	896.33
649.064	865.61
649.256	795.98
649.449	916.81
649.642	697.67
649.835	691.53
650.027	695.63
650.22	763.21
650.413	683.34
650.605	742.73
650.798	552.27
650.991	648.52
651.183	533.84
651.376	605.52
651.568	585.04
651.761	529.74
651.954	593.23
652.146	550.22
652.339	544.08
652.531	546.12
652.724	474.45
652.916	476.49
653.109	247.12
653.301	476.49
653.494	458.06
653.686	345.42
653.879	453.97
654.071	494.93
654.263	310.61
654.456	318.8
654.648	441.68
654.84	404.82
655.033	255.31
655.225	427.34
655.417	240.98
655.61	404.82
655.802	324.94
655.994	431.44
656.186	240.98
656.379	382.29
656.571	253.27
656.763	157.01
656.955	243.03
657.148	243.03
657.34	367.95
657.532	294.22
657.724	214.35
657.916	243.03
658.108	300.37
658.3	310.61
658.492	257.36
658.684	189.78
658.876	273.75
659.068	191.83
659.26	140.63
659.452	169.3
659.644	296.27
659.836	257.36
660.028	169.3
660.22	167.25
660.412	144.72
660.604	161.11
660.796	169.3
660.988	267.6
661.18	183.63
661.372	193.87
661.563	179.54
661.755	159.06
661.947	109.91
662.139	60.76
662.331	159.06
662.522	165.2
662.714	114
662.906	81.24
663.097	206.16
663.289	97.62
663.481	21.85
663.673	120.15
663.864	62.8
664.056	157.01
664.247	89.43
664.439	167.25
664.631	132.44
664.822	146.77
665.014	140.63
665.205	21.85
665.397	126.29
665.588	116.05
665.78	97.62
665.971	171.35
666.163	128.34
666.354	126.29
666.546	99.67
666.737	89.43
666.929	-31.4
667.12	101.72
667.311	157.01
667.503	103.76
667.694	132.44
667.885	126.29
668.077	179.54
668.268	62.8
668.459	161.11
668.651	101.72
668.842	118.1
669.033	56.66
669.224	71
669.416	302.42
669.607	169.3
669.798	111.96
669.989	152.91
670.18	60.76
670.371	181.59
670.563	40.28
670.754	146.77
670.945	103.76
671.136	44.37
671.327	118.1
671.518	204.11
671.709	183.63
671.9	181.59
672.091	230.74
672.282	77.14
672.473	101.72
672.664	56.66
672.855	116.05
673.046	218.45
673.237	195.92
673.428	130.39
673.619	216.4
673.809	21.85
674	177.49
674.191	202.07
674.382	91.48
674.573	68.95
674.764	165.2
674.954	281.94
675.145	126.29
675.336	77.14
675.527	58.71
675.717	56.66
675.908	79.19
676.099	54.61
676.289	136.53
676.48	62.8
676.671	42.32
676.861	93.52
677.052	146.77
677.243	71
677.433	107.86
677.624	216.4
677.814	105.81
678.005	40.28
678.195	228.69
678.386	138.58
678.576	152.91
678.767	130.39
678.957	68.95
679.148	275.79
679.338	157.01
679.529	183.63
679.719	111.96
679.909	238.93
680.1	216.4
680.29	238.93
680.481	116.05
680.671	261.46
680.861	197.97
681.052	161.11
681.242	75.09
681.432	216.4
681.622	218.45
681.813	144.72
682.003	146.77
682.193	46.42
682.383	226.64
682.573	71
682.764	169.3
682.954	169.3
683.144	240.98
683.334	122.2
683.524	177.49
683.714	167.25
683.904	197.97
684.094	107.86
684.284	195.92
684.474	245.07
684.664	251.22
684.854	136.53
685.044	202.07
685.234	165.2
685.424	177.49
685.614	159.06
685.804	261.46
685.994	224.59
686.184	193.87
686.374	191.83
686.564	271.7
686.753	114
686.943	138.58
687.133	118.1
687.323	144.72
687.513	253.27
687.702	197.97
687.892	136.53
688.082	243.03
688.272	214.35
688.461	271.7
688.651	347.47
688.841	195.92
689.03	169.3
689.22	171.35
689.41	255.31
689.599	232.79
689.789	118.1
689.979	316.75
690.168	150.87
690.358	263.51
690.547	154.96
690.737	230.74
690.926	185.68
691.116	152.91
691.305	224.59
691.495	220.5
691.684	101.72
691.874	140.63
692.063	195.92
692.252	228.69
692.442	157.01
692.631	77.14
692.82	118.1
693.01	226.64
693.199	181.59
693.388	216.4
693.578	136.53
693.767	148.82
693.956	243.03
694.146	146.77
694.335	271.7
694.524	77.14
694.713	179.54
694.902	146.77
695.092	146.77
695.281	247.12
695.47	120.15
695.659	91.48
695.848	159.06
696.037	116.05
696.226	183.63
696.415	202.07
696.604	286.03
696.793	234.83
696.982	134.48
697.171	320.85
697.36	148.82
697.549	154.96
697.738	36.18
697.927	48.47
698.116	124.24
698.305	116.05
698.494	187.73
698.683	197.97
698.872	288.08
699.061	183.63
699.25	87.38
699.438	138.58
699.627	111.96
699.816	290.13
700.005	62.8
700.193	154.96
700.382	130.39
700.571	218.45
700.76	124.24
700.948	167.25
701.137	197.97
701.326	191.83
701.514	-23.21
701.703	173.39
701.892	208.21
702.08	290.13
702.269	87.38
702.457	122.2
702.646	140.63
702.834	81.24
703.023	193.87
703.212	214.35
703.4	142.68
703.589	66.9
703.777	183.63
703.965	36.18
704.154	114
704.342	126.29
704.531	179.54
704.719	124.24
704.907	200.02
705.096	23.89
705.284	77.14
705.472	271.7
705.661	136.53
705.849	193.87
706.037	259.41
706.226	140.63
706.414	38.23
706.602	126.29
706.79	171.35
706.979	144.72
707.167	175.44
707.355	89.43
707.543	169.3
707.731	154.96
707.919	179.54
708.107	165.2
708.296	87.38
708.484	85.33
708.672	175.44
708.86	169.3
709.048	202.07
709.236	138.58
709.424	118.1
709.612	171.35
709.8	146.77
709.988	175.44
710.176	163.15
710.364	292.18
710.551	138.58
710.739	99.67
710.927	140.63
711.115	181.59
711.303	218.45
711.491	294.22
711.679	124.24
711.866	234.83
712.054	109.91
712.242	169.3
712.43	281.94
712.617	146.77
712.805	306.51
712.993	150.87
713.181	105.81
713.368	195.92
713.556	138.58
713.744	171.35
713.931	337.23
714.119	226.64
714.306	157.01
714.494	66.9
714.682	152.91
714.869	152.91
715.057	101.72
715.244	118.1
715.432	107.86
715.619	142.68
715.807	116.05
715.994	68.95
716.182	171.35
716.369	296.27
716.556	195.92
716.744	93.52
716.931	46.42
717.119	187.73
717.306	179.54
717.493	300.37
717.681	148.82
717.868	140.63
718.055	204.11
718.242	81.24
718.43	226.64
718.617	240.98
718.804	193.87
718.991	261.46
719.179	195.92
719.366	202.07
719.553	177.49
719.74	234.83
719.927	169.3
720.114	255.31
720.301	136.53
720.488	97.62
720.676	130.39
720.863	288.08
721.05	353.62
721.237	249.17
721.424	243.03
721.611	226.64
721.798	159.06
721.985	130.39
722.172	148.82
722.358	148.82
722.545	249.17
722.732	185.68
722.919	283.99
723.106	380.24
723.293	240.98
723.48	220.5
723.667	132.44
723.853	275.79
724.04	243.03
724.227	181.59
724.414	187.73
724.6	292.18
724.787	351.57
724.974	392.53
725.161	238.93
725.347	169.3
725.534	249.17
725.72	195.92
725.907	308.56
726.094	257.36
726.28	210.26
726.467	234.83
726.653	165.2
726.84	361.81
727.027	331.09
727.213	204.11
727.4	259.41
727.586	210.26
727.773	212.31
727.959	322.9
728.145	218.45
728.332	193.87
728.518	222.55
728.705	259.41
728.891	308.56
729.077	265.55
729.264	234.83
729.45	302.42
729.636	283.99
729.823	308.56
730.009	326.99
730.195	253.27
730.382	234.83
730.568	189.78
730.754	367.95
730.94	292.18
731.126	300.37
731.313	288.08
731.499	249.17
731.685	261.46
731.871	275.79
732.057	345.42
732.243	341.33
732.429	333.14
732.615	335.18
732.801	390.48
732.987	247.12
733.173	210.26
733.359	228.69
733.545	283.99
733.731	206.16
733.917	410.96
734.103	306.51
734.289	292.18
734.475	236.88
734.661	429.39
734.847	204.11
735.033	279.89
735.219	357.71
735.404	240.98
735.59	312.66
735.776	204.11
735.962	355.66
736.148	310.61
736.333	386.38
736.519	265.55
736.705	329.04
736.89	331.09
737.076	339.28
737.262	269.65
737.447	251.22
737.633	304.46
737.819	382.29
738.004	320.85
738.19	277.84
738.375	329.04
738.561	326.99
738.747	316.75
738.932	259.41
739.118	474.45
739.303	374.1
739.489	337.23
739.674	265.55
739.859	249.17
740.045	413.01
740.23	326.99
740.416	189.78
740.601	335.18
740.786	290.13
740.972	353.62
741.157	345.42
741.342	234.83
741.528	292.18
741.713	347.47
741.898	234.83
742.084	290.13
742.269	320.85
742.454	357.71
742.639	460.11
742.824	292.18
743.01	365.9
743.195	419.15
743.38	226.64
743.565	290.13
743.75	339.28
743.935	372.05
744.12	415.05
744.305	240.98
744.49	279.89
744.675	269.65
744.86	304.46
745.045	306.51
745.23	329.04
745.415	218.45
745.6	435.53
745.785	269.65
745.97	402.77
746.155	365.9
746.34	333.14
746.525	298.32
746.71	433.49
746.895	202.07
747.079	214.35
747.264	257.36
747.449	372.05
747.634	363.86
747.819	314.7
748.003	232.79
748.188	220.5
748.373	333.14
748.557	247.12
748.742	316.75
748.927	240.98
749.111	230.74
749.296	152.91
749.481	277.84
749.665	175.44
749.85	257.36
750.034	275.79
750.219	294.22
750.404	251.22
750.588	365.9
750.773	187.73
750.957	230.74
751.141	232.79
751.326	273.75
751.51	177.49
751.695	204.11
751.879	298.32
752.064	374.1
752.248	247.12
752.432	357.71
752.617	390.48
752.801	320.85
752.985	175.44
753.17	292.18
753.354	238.93
753.538	214.35
753.722	230.74
753.907	245.07
754.091	195.92
754.275	263.51
754.459	210.26
754.643	195.92
754.828	216.4
755.012	208.21
755.196	234.83
755.38	343.38
755.564	144.72
755.748	177.49
755.932	216.4
756.116	283.99
756.3	191.83
756.484	159.06
756.668	226.64
756.852	99.67
757.036	179.54
757.22	224.59
757.404	220.5
757.588	187.73
757.772	243.03
757.956	310.61
758.14	304.46
758.323	132.44
758.507	234.83
758.691	163.15
758.875	175.44
759.059	326.99
759.242	159.06
759.426	175.44
759.61	107.86
759.794	122.2
759.977	195.92
760.161	404.82
760.345	347.47
760.528	261.46
760.712	152.91
760.895	290.13
761.079	140.63
761.263	79.19
761.446	171.35
761.63	159.06
761.813	232.79
761.997	60.76
762.18	107.86
762.364	230.74
762.547	17.75
762.731	195.92
762.914	222.55
763.098	159.06
763.281	122.2
763.464	56.66
763.648	134.48
763.831	60.76
764.015	101.72
764.198	187.73
764.381	140.63
764.564	101.72
764.748	148.82
764.931	208.21
765.114	75.09
765.297	150.87
765.481	103.76
765.664	126.29
765.847	62.8
766.03	257.36
766.213	101.72
766.397	134.48
766.58	44.37
766.763	181.59
766.946	62.8
767.129	101.72
767.312	62.8
767.495	81.24
767.678	60.76
767.861	122.2
768.044	97.62
768.227	122.2
768.41	87.38
768.593	114
768.776	44.37
768.959	173.39
769.142	214.35
769.324	58.71
769.507	101.72
769.69	124.24
769.873	73.04
770.056	257.36
770.239	134.48
770.421	93.52
770.604	181.59
770.787	118.1
770.97	56.66
771.152	68.95
771.335	191.83
771.518	23.89
771.7	128.34
771.883	187.73
772.066	46.42
772.248	146.77
772.431	200.02
772.613	249.17
772.796	56.66
772.978	99.67
773.161	163.15
773.343	11.61
773.526	42.32
773.708	-37.55
773.891	-2.73
774.073	25.94
774.256	11.61
774.438	195.92
774.621	146.77
774.803	124.24
774.985	60.76
775.168	95.57
775.35	1.37
775.532	114
775.715	107.86
775.897	116.05
776.079	42.32
776.261	54.61
776.444	95.57
776.626	126.29
776.808	114
776.99	-10.92
777.173	93.52
777.355	42.32
777.537	56.66
777.719	73.04
777.901	114
778.083	-6.83
778.265	-51.88
778.447	136.53
778.629	-6.83
778.811	107.86
778.993	48.47
779.175	171.35
779.357	60.76
779.539	30.04
779.721	54.61
779.903	101.72
780.085	64.85
780.267	50.52
780.449	44.37
780.631	109.91
780.812	146.77
780.994	40.28
781.176	114
781.358	58.71
781.54	19.8
781.721	101.72
781.903	54.61
782.085	-6.83
782.267	157.01
782.448	5.46
782.63	-8.87
782.812	79.19
782.993	66.9
783.175	128.34
783.357	93.52
783.538	64.85
783.72	11.61
783.901	38.23
784.083	97.62
784.264	66.9
784.446	3.41
784.627	15.7
784.809	81.24
784.99	7.51
785.172	101.72
785.353	36.18
785.535	-21.16
785.716	-8.87
785.897	3.41
786.079	66.9
786.26	3.41
786.441	89.43
786.623	-60.07
786.804	17.75
786.985	56.66
787.167	73.04
787.348	46.42
787.529	9.56
787.71	89.43
787.891	103.76
788.073	-15.02
788.254	-53.93
788.435	226.64
788.616	42.32
788.797	-21.16
788.978	-10.92
789.159	42.32
789.34	62.8
789.522	25.94
789.703	38.23
789.884	52.56
790.065	109.91
790.246	103.76
790.427	5.46
790.607	97.62
790.788	146.77
790.969	15.7
791.15	120.15
791.331	-74.41
791.512	-4.78
791.693	-15.02
791.874	-2.73
792.054	148.82
792.235	60.76
792.416	-55.98
792.597	25.94
792.778	19.8
792.958	99.67
793.139	44.37
793.32	-62.12
793.5	-17.07
793.681	124.24
793.862	87.38
794.042	30.04
794.223	-109.22
794.404	34.13
794.584	-43.69
794.765	-25.26
794.945	79.19
795.126	25.94
795.306	50.52
795.487	13.65
795.667	-6.83
795.848	48.47
796.028	30.04
796.209	34.13
796.389	21.85
796.57	17.75
796.75	-17.07
796.93	-10.92
797.111	-60.07
797.291	-25.26
797.471	126.29
797.652	5.46
797.832	15.7
798.012	68.95
798.192	9.56
798.373	-29.35
798.553	7.51
798.733	38.23
798.913	-19.11
799.093	-2.73
799.274	23.89
799.454	34.13
799.634	77.14
799.814	77.14
799.994	1.37
800.174	54.61
800.354	-41.64
800.534	-105.13
800.714	54.61
800.894	-86.7
801.074	-62.12
801.254	-19.11
801.434	154.96
801.614	-53.93
801.794	-70.31
801.974	2039.09
802.154	42.32
802.334	1.37
802.514	34.13
802.693	34.13
802.873	-68.27
803.053	140.63
803.233	32.08
803.413	-23.21
803.592	-137.9
803.772	-35.5
803.952	44.37
804.131	15.7
804.311	42.32
804.491	140.63
804.67	-25.26
804.85	-4.78
805.03	32.08
805.209	87.38
805.389	-64.17
805.568	30.04
805.748	15.7
805.928	-70.31
806.107	60.76
806.287	111.96
806.466	34.13
806.646	-19.11
806.825	5.46
807.004	-45.74
807.184	-4.78
807.363	109.91
807.543	-39.59
807.722	-8.87
807.901	122.2
808.081	60.76
808.26	-53.93
808.439	52.56
808.619	-25.26
808.798	-8.87
808.977	77.14
809.156	107.86
809.336	36.18
809.515	54.61
809.694	-72.36
809.873	-62.12
810.052	83.28
810.231	132.44
810.411	-55.98
810.59	77.14
810.769	-82.6
810.948	50.52
811.127	-107.18
811.306	-2.73
811.485	-17.07
811.664	66.9
811.843	30.04
812.022	21.85
812.201	-84.65
812.38	23.89
812.559	-31.4
812.737	42.32
812.916	-55.98
813.095	-80.55
813.274	32.08
813.453	-29.35
813.632	-12.97
813.811	109.91
813.989	-39.59
814.168	46.42
814.347	-31.4
814.526	7.51
814.704	99.67
814.883	40.28
815.062	-66.22
815.24	93.52
815.419	-101.03
815.598	34.13
815.776	-162.47
815.955	58.71
816.133	-158.38
816.312	11.61
816.49	-78.51
816.669	13.65
816.847	-86.7
817.026	60.76
817.204	1.37
817.383	-51.88
817.561	-19.11
817.74	62.8
817.918	5.46
818.097	-101.03
818.275	-51.88
818.453	60.76
818.632	-8.87
818.81	-43.69
818.988	-8.87
819.167	-68.27
819.345	73.04
819.523	-23.21
819.701	-29.35
819.879	89.43
820.058	-39.59
820.236	11.61
820.414	-35.5
820.592	-74.41
820.77	-72.36
820.948	-33.45
821.127	-2.73
821.305	-33.45
821.483	-10.92
821.661	122.2
821.839	68.95
822.017	-84.65
822.195	-37.55
822.373	118.1
822.551	23.89
822.729	154.96
822.907	25.94
823.085	-6.83
823.262	-35.5
823.44	-111.27
823.618	-21.16
823.796	9.56
823.974	-84.65
824.152	-72.36
824.329	-10.92
824.507	9.56
824.685	3.41
824.863	-39.59
825.04	-19.11
825.218	17.75
825.396	-12.97
825.574	1.37
825.751	9.56
825.929	-21.16
826.107	-72.36
826.284	30.04
826.462	27.99
826.639	-98.99
826.817	-45.74
826.994	15.7
827.172	-72.36
827.349	91.48
827.527	38.23
827.704	9.56
827.882	126.29
828.059	-58.03
828.237	-51.88
828.414	7.51
828.591	-129.7
828.769	-58.03
828.946	-27.31
829.124	97.62
829.301	36.18
829.478	21.85
829.655	42.32
829.833	9.56
830.01	-139.94
830.187	40.28
830.364	-12.97
830.542	-51.88
830.719	140.63
830.896	97.62
831.073	93.52
831.25	79.19
831.427	44.37
831.604	-21.16
831.782	-76.46
831.959	-2.73
832.136	-64.17
832.313	-0.68
832.49	-39.59
832.667	-53.93
832.844	-84.65
833.021	105.81
833.198	-27.31
833.374	-8.87
833.551	46.42
833.728	-90.79
833.905	-19.11
834.082	-103.08
834.259	-41.64
834.436	79.19
834.612	-31.4
834.789	58.71
834.966	-94.89
835.143	25.94
835.319	-62.12
835.496	38.23
835.673	-17.07
835.85	68.95
836.026	15.7
836.203	19.8
836.38	-33.45
836.556	-94.89
836.733	-74.41
836.909	66.9
837.086	-76.46
837.262	-115.37
837.439	-51.88
837.616	3.41
837.792	-35.5
837.968	-8.87
838.145	-72.36
838.321	-58.03
838.498	50.52
838.674	17.75
838.851	27.99
839.027	-12.97
839.203	-6.83
839.38	40.28
839.556	-55.98
839.732	44.37
839.909	91.48
840.085	25.94
840.261	-37.55
840.437	-29.35
840.614	-94.89
840.79	-6.83
840.966	46.42
841.142	32.08
841.318	-53.93
841.494	54.61
841.671	52.56
841.847	-47.79
842.023	-55.98
842.199	-49.83
842.375	75.09
842.551	-111.27
842.727	-115.37
842.903	157.01
843.079	-72.36
843.255	114
843.431	-68.27
843.607	5.46
843.783	-185
843.959	3.41
844.134	5.46
844.31	101.72
844.486	-94.89
844.662	-47.79
844.838	-51.88
845.013	30.04
845.189	44.37
845.365	25.94
845.541	-51.88
845.716	17.75
845.892	52.56
846.068	-35.5
846.244	-86.7
846.419	50.52
846.595	-107.18
846.77	-47.79
846.946	124.24
847.122	-121.51
847.297	1.37
847.473	144.72
847.648	-90.79
847.824	-8.87
847.999	-78.51
848.175	-12.97
848.35	25.94
848.526	101.72
848.701	71
848.876	3.41
849.052	54.61
849.227	3.41
849.403	-68.27
849.578	-74.41
849.753	62.8
849.929	25.94
850.104	-133.8
850.279	-25.26
850.454	7.51
850.63	5.46
850.805	-10.92
850.98	-58.03
851.155	-21.16
851.33	21.85
851.505	-121.51
851.681	136.53
851.856	-68.27
852.031	25.94
852.206	-37.55
852.381	-101.03
852.556	-49.83
852.731	-15.02
852.906	105.81
853.081	1.37
853.256	15.7
853.431	-60.07
853.606	-98.99
853.781	-8.87
853.956	-150.18
854.131	38.23
854.305	-33.45
854.48	-53.93
854.655	23.89
854.83	-43.69
855.005	5.46
855.18	58.71
855.354	-23.21
855.529	-37.55
855.704	-27.31
855.879	66.9
856.053	-60.07
856.228	21.85
856.403	-117.42
856.577	48.47
856.752	-109.22
856.926	-53.93
857.101	42.32
857.276	5.46
857.45	-17.07
857.625	34.13
857.799	17.75
857.974	-72.36
858.148	-152.23
858.323	-35.5
858.497	-39.59
858.672	-60.07
858.846	-33.45
859.02	19.8
859.195	-119.46
859.369	-17.07
859.543	19.8
859.718	-35.5
859.892	34.13
860.066	21.85
860.241	-115.37
860.415	-96.94
860.589	68.95
860.763	19.8
860.938	-51.88
861.112	34.13
861.286	-80.55
861.46	21.85
861.634	-94.89
861.808	99.67
861.982	-109.22
862.157	-39.59
862.331	-47.79
862.505	-78.51
862.679	-60.07
862.853	-2.73
863.027	-84.65
863.201	187.73
863.375	-53.93
863.549	25.94
863.722	50.52
863.896	25.94
864.07	-12.97
864.244	-23.21
864.418	75.09
864.592	19.8
864.766	77.14
864.939	11.61
865.113	-33.45
865.287	83.28
865.461	-4.78
865.634	54.61
865.808	17.75
865.982	-43.69
866.156	-119.46
866.329	-148.14
866.503	36.18
866.676	3.41
866.85	27.99
867.024	-33.45
867.197	54.61
867.371	9.56
867.544	-17.07
867.718	-45.74
867.891	66.9
868.065	-27.31
868.238	36.18
868.412	42.32
868.585	27.99
868.759	-45.74
868.932	-51.88
869.105	-94.89
869.279	-23.21
869.452	-45.74
869.625	30.04
869.799	-27.31
869.972	-49.83
870.145	13.65
870.319	-80.55
870.492	27.99
870.665	-29.35
870.838	-41.64
871.011	-158.38
871.185	-58.03
871.358	-55.98
871.531	7.51
871.704	-35.5
871.877	30.04
872.05	-8.87
872.223	-117.42
872.396	11.61
872.569	-15.02
872.742	-131.75
872.915	15.7
873.088	-98.99
873.261	-49.83
873.434	11.61
873.607	7.51
873.78	73.04
873.953	-141.99
874.126	36.18
874.299	7.51
874.471	-51.88
874.644	-64.17
874.817	30.04
874.99	48.47
875.163	-10.92
875.335	34.13
875.508	-10.92
875.681	87.38
875.853	-23.21
876.026	-23.21
876.199	44.37
876.371	3.41
876.544	-66.22
876.717	25.94
876.889	-66.22
877.062	87.38
877.234	-47.79
877.407	-35.5
877.579	-4.78
877.752	17.75
877.924	5.46
878.097	-4.78
878.269	-58.03
878.442	42.32
878.614	5.46
878.786	-21.16
878.959	-31.4
879.131	7.51
879.303	-131.75
879.476	-84.65
879.648	73.04
879.82	-19.11
879.993	-8.87
880.165	-103.08
880.337	-45.74
880.509	-49.83
880.681	-141.99
880.854	-72.36
881.026	21.85
881.198	91.48
881.37	-66.22
881.542	-23.21
881.714	-84.65
881.886	17.75
882.058	34.13
882.23	7.51
882.402	13.65
882.574	11.61
882.746	38.23
882.918	68.95
883.09	-23.21
883.262	-51.88
883.434	-68.27
883.606	-105.13
883.778	7.51
883.95	50.52
884.122	-15.02
884.293	77.14
884.465	-17.07
884.637	50.52
884.809	-10.92
884.98	-6.83
885.152	38.23
885.324	-27.31
885.496	-111.27
885.667	-51.88
885.839	-45.74
886.011	62.8
886.182	42.32
886.354	5.46
886.525	1.37
886.697	23.89
886.869	-19.11
887.04	-53.93
887.212	89.43
887.383	77.14
887.555	-21.16
887.726	-6.83
887.897	19.8
888.069	-8.87
888.24	9.56
888.412	-51.88
888.583	-33.45
888.754	27.99
888.926	-88.75
889.097	-66.22
889.268	-80.55
889.44	56.66
889.611	-80.55
889.782	-117.42
889.953	-148.14
890.125	52.56
890.296	-21.16
890.467	-29.35
890.638	-10.92
890.809	36.18
890.98	-66.22
891.151	32.08
891.323	54.61
891.494	52.56
891.665	-58.03
891.836	-27.31
892.007	-90.79
892.178	-35.5
892.349	30.04
892.52	-129.7
892.691	-80.55
892.862	23.89
893.032	-64.17
893.203	-15.02
893.374	-31.4
893.545	15.7
893.716	-62.12
893.887	-41.64
894.057	-78.51
894.228	-64.17
894.399	-80.55
894.57	36.18
894.74	-90.79
894.911	-94.89
895.082	3.41
895.253	-19.11
895.423	-23.21
895.594	17.75
895.764	75.09
895.935	-68.27
896.106	-53.93
896.276	-49.83
896.447	-74.41
896.617	-101.03
896.788	-19.11
896.958	-29.35
897.129	-90.79
897.299	-98.99
897.47	54.61
897.64	3.41
897.81	-15.02
897.981	27.99
898.151	-25.26
898.322	27.99
898.492	34.13
898.662	-150.18
898.832	-127.66
899.003	-94.89
899.173	-41.64
899.343	-164.52
899.513	-96.94
