Data from USB4F104151__83__11-31-30-561.txt Node

Date: Wed Feb 26 11:31:30 EST 2025
User: louis
Spectrometer: USB4F10415
Trigger mode: 4
Integration Time (sec): 1.000000E-1
Scans to average: 1
Electric dark correction enabled: true
Nonlinearity correction enabled: false
Boxcar width: 0
XAxis mode: Wavelengths
Number of Pixels in Spectrum: 3648
>>>>>Begin Spectral Data<<<<<
178.204	-375.29
178.424	-375.29
178.644	-375.29
178.864	-365.05
179.084	-399.87
179.304	-14.85
179.524	-8.7
179.744	26.11
179.964	120.32
180.184	-6.66
180.404	22.02
180.624	-33.28
180.844	3.58
181.064	-47.62
181.283	-29.18
181.503	-78.33
181.723	46.59
181.943	-107.01
182.163	128.51
182.383	-49.66
182.602	13.82
182.822	95.74
183.042	112.13
183.262	-115.2
183.482	-53.76
183.701	-12.8
183.921	-107.01
184.141	-37.38
184.361	44.54
184.58	50.69
184.8	19.97
185.02	-33.28
185.239	52.74
185.459	79.36
185.679	108.03
185.898	-88.57
186.118	73.21
186.338	93.69
186.557	126.46
186.777	-43.52
186.997	-59.9
187.216	62.98
187.436	169.47
187.655	116.22
187.875	34.3
188.095	-0.51
188.314	165.37
188.534	50.69
188.753	-43.52
188.973	97.79
189.192	142.85
189.412	-12.8
189.631	-10.75
189.851	56.83
190.07	171.52
190.29	-12.8
190.509	87.55
190.729	42.5
190.948	122.37
191.168	237.05
191.387	99.84
191.607	-4.61
191.826	30.21
192.045	81.41
192.265	22.02
192.484	91.65
192.704	-57.86
192.923	-27.14
193.142	202.24
193.362	134.65
193.581	148.99
193.8	46.59
194.02	153.09
194.239	93.69
194.458	108.03
194.678	48.64
194.897	-35.33
195.116	60.93
195.335	91.65
195.555	75.26
195.774	-37.38
195.993	108.03
196.212	-74.24
196.432	52.74
196.651	-16.9
196.87	-55.81
197.089	292.35
197.308	1.54
197.528	40.45
197.747	-37.38
197.966	11.78
198.185	130.56
198.404	-29.18
198.623	73.21
198.842	85.5
199.062	85.5
199.281	-20.99
199.5	7.68
199.719	138.75
199.938	101.89
200.157	44.54
200.376	81.41
200.595	134.65
200.814	79.36
201.033	-35.33
201.252	97.79
201.471	11.78
201.69	54.78
201.909	28.16
202.128	30.21
202.347	71.17
202.566	3.58
202.785	-107.01
203.004	-41.47
203.223	208.38
203.442	11.78
203.661	-23.04
203.879	44.54
204.098	118.27
204.317	-27.14
204.536	52.74
204.755	101.89
204.974	118.27
205.193	-2.56
205.411	56.83
205.63	11.78
205.849	22.02
206.068	-20.99
206.287	58.88
206.505	95.74
206.724	24.06
206.943	-90.62
207.162	-6.66
207.381	52.74
207.599	48.64
207.818	-25.09
208.037	-39.42
208.255	44.54
208.474	42.5
208.693	19.97
208.911	-27.14
209.13	116.22
209.349	60.93
209.567	60.93
209.786	77.31
210.005	71.17
210.223	7.68
210.442	-57.86
210.661	7.68
210.879	136.7
211.098	-16.9
211.316	40.45
211.535	52.74
211.753	15.87
211.972	79.36
212.191	54.78
212.409	-49.66
212.628	44.54
212.846	11.78
213.065	36.35
213.283	69.12
213.502	-16.9
213.72	50.69
213.938	67.07
214.157	-6.66
214.375	71.17
214.594	7.68
214.812	89.6
215.031	-57.86
215.249	73.21
215.467	-18.94
215.686	60.93
215.904	-8.7
216.122	65.02
216.341	142.85
216.559	46.59
216.778	62.98
216.996	48.64
217.214	44.54
217.432	36.35
217.651	26.11
217.869	38.4
218.087	62.98
218.306	-18.94
218.524	101.89
218.742	28.16
218.96	-35.33
219.179	22.02
219.397	26.11
219.615	187.9
219.833	71.17
220.051	-70.14
220.27	118.27
220.488	83.45
220.706	30.21
220.924	-37.38
221.142	-78.33
221.36	52.74
221.578	75.26
221.796	34.3
222.015	91.65
222.233	85.5
222.451	142.85
222.669	-96.77
222.887	83.45
223.105	-2.56
223.323	22.02
223.541	-37.38
223.759	73.21
223.977	30.21
224.195	179.71
224.413	75.26
224.631	81.41
224.849	108.03
225.067	179.71
225.285	-31.23
225.503	-10.75
225.721	-80.38
225.939	-0.51
226.157	-0.51
226.375	163.33
226.592	-47.62
226.81	5.63
227.028	75.26
227.246	62.98
227.464	3.58
227.682	69.12
227.9	175.61
228.117	110.08
228.335	-25.09
228.553	11.78
228.771	36.35
228.989	91.65
229.206	62.98
229.424	40.45
229.642	-41.47
229.86	-92.67
230.077	110.08
230.295	36.35
230.513	132.61
230.731	108.03
230.948	151.04
231.166	161.28
231.384	56.83
231.601	-18.94
231.819	136.7
232.037	-104.96
232.254	-12.8
232.472	34.3
232.689	15.87
232.907	114.17
233.125	-23.04
233.342	-61.95
233.56	24.06
233.777	-14.85
233.995	52.74
234.213	126.46
234.43	155.13
234.648	-10.75
234.865	7.68
235.083	73.21
235.3	48.64
235.518	77.31
235.735	112.13
235.953	101.89
236.17	-25.09
236.388	75.26
236.605	28.16
236.822	79.36
237.04	69.12
237.257	136.7
237.475	-31.23
237.692	46.59
237.909	60.93
238.127	-4.61
238.344	58.88
238.562	83.45
238.779	-25.09
238.996	-72.19
239.214	5.63
239.431	122.37
239.648	9.73
239.865	46.59
240.083	122.37
240.3	5.63
240.517	-12.8
240.735	5.63
240.952	134.65
241.169	134.65
241.386	40.45
241.603	38.4
241.821	-0.51
242.038	77.31
242.255	108.03
242.472	-51.71
242.689	116.22
242.907	7.68
243.124	38.4
243.341	60.93
243.558	-43.52
243.775	-70.14
243.992	-16.9
244.209	73.21
244.426	148.99
244.643	99.84
244.86	-33.28
245.078	36.35
245.295	73.21
245.512	26.11
245.729	30.21
245.946	58.88
246.163	46.59
246.38	77.31
246.597	32.26
246.814	79.36
247.031	79.36
247.248	11.78
247.464	122.37
247.681	91.65
247.898	54.78
248.115	9.73
248.332	5.63
248.549	65.02
248.766	134.65
248.983	73.21
249.2	99.84
249.417	95.74
249.633	19.97
249.85	105.98
250.067	-10.75
250.284	19.97
250.501	146.94
250.717	142.85
250.934	22.02
251.151	-0.51
251.368	-39.42
251.585	85.5
251.801	19.97
252.018	-25.09
252.235	126.46
252.451	-37.38
252.668	-8.7
252.885	75.26
253.102	30.21
253.318	60.93
253.535	38.4
253.752	-31.23
253.968	28.16
254.185	5.63
254.401	22.02
254.618	19.97
254.835	-6.66
255.051	122.37
255.268	34.3
255.484	9.73
255.701	-12.8
255.917	146.94
256.134	-33.28
256.351	83.45
256.567	-39.42
256.784	71.17
257	-49.66
257.217	28.16
257.433	3.58
257.65	103.93
257.866	228.86
258.082	-43.52
258.299	-23.04
258.515	62.98
258.732	-45.57
258.948	-27.14
259.165	89.6
259.381	-27.14
259.597	30.21
259.814	-18.94
260.03	-117.25
260.246	-23.04
260.463	181.76
260.679	110.08
260.895	38.4
261.112	89.6
261.328	9.73
261.544	-10.75
261.761	144.89
261.977	-0.51
262.193	-98.81
262.409	155.13
262.626	50.69
262.842	52.74
263.058	-47.62
263.274	44.54
263.49	120.32
263.707	73.21
263.923	99.84
264.139	-45.57
264.355	56.83
264.571	161.28
264.787	19.97
265.004	60.93
265.22	9.73
265.436	-51.71
265.652	56.83
265.868	62.98
266.084	-61.95
266.3	9.73
266.516	-8.7
266.732	60.93
266.948	13.82
267.164	42.5
267.38	132.61
267.596	116.22
267.812	171.52
268.028	140.8
268.244	-33.28
268.46	54.78
268.676	9.73
268.892	58.88
269.108	-100.86
269.324	-4.61
269.54	-35.33
269.756	40.45
269.972	-66.05
270.188	28.16
270.403	52.74
270.619	-8.7
270.835	112.13
271.051	-29.18
271.267	32.26
271.483	5.63
271.698	75.26
271.914	110.08
272.13	-47.62
272.346	-27.14
272.562	58.88
272.777	122.37
272.993	3.58
273.209	-23.04
273.425	89.6
273.64	-59.9
273.856	114.17
274.072	-18.94
274.287	26.11
274.503	69.12
274.719	67.07
274.934	-33.28
275.15	-37.38
275.366	-45.57
275.581	-33.28
275.797	-49.66
276.012	62.98
276.228	-76.29
276.444	105.98
276.659	108.03
276.875	-49.66
277.09	-55.81
277.306	-59.9
277.521	67.07
277.737	42.5
277.952	52.74
278.168	7.68
278.383	71.17
278.599	-43.52
278.814	97.79
279.03	-2.56
279.245	75.26
279.461	58.88
279.676	91.65
279.892	-47.62
280.107	24.06
280.322	-2.56
280.538	136.7
280.753	17.92
280.969	-4.61
281.184	26.11
281.399	163.33
281.615	97.79
281.83	-12.8
282.045	-55.81
282.26	13.82
282.476	44.54
282.691	118.27
282.906	42.5
283.122	54.78
283.337	46.59
283.552	101.89
283.767	-49.66
283.983	95.74
284.198	-49.66
284.413	91.65
284.628	-78.33
284.843	44.54
285.058	7.68
285.274	50.69
285.489	22.02
285.704	79.36
285.919	13.82
286.134	3.58
286.349	93.69
286.564	46.59
286.779	124.41
286.995	-59.9
287.21	-76.29
287.425	65.02
287.64	24.06
287.855	28.16
288.07	-127.49
288.285	185.85
288.5	52.74
288.715	36.35
288.93	40.45
289.145	-0.51
289.36	19.97
289.575	42.5
289.79	116.22
290.004	40.45
290.219	101.89
290.434	-27.14
290.649	-31.23
290.864	3.58
291.079	-6.66
291.294	-14.85
291.509	95.74
291.724	13.82
291.938	7.68
292.153	28.16
292.368	-4.61
292.583	99.84
292.798	77.31
293.012	114.17
293.227	60.93
293.442	17.92
293.657	171.52
293.871	155.13
294.086	87.55
294.301	222.72
294.516	89.6
294.73	3.58
294.945	-61.95
295.16	48.64
295.374	108.03
295.589	110.08
295.804	17.92
296.018	54.78
296.233	110.08
296.447	67.07
296.662	32.26
296.877	97.79
297.091	67.07
297.306	50.69
297.52	-2.56
297.735	46.59
297.949	-10.75
298.164	-55.81
298.378	77.31
298.593	-51.71
298.807	-12.8
299.022	-18.94
299.236	120.32
299.451	-6.66
299.665	73.21
299.88	30.21
300.094	28.16
300.309	28.16
300.523	75.26
300.737	7.68
300.952	24.06
301.166	97.79
301.381	-31.23
301.595	-55.81
301.809	42.5
302.024	-8.7
302.238	11.78
302.452	99.84
302.667	30.21
302.881	189.95
303.095	161.28
303.309	108.03
303.524	-16.9
303.738	56.83
303.952	-8.7
304.166	-12.8
304.381	15.87
304.595	200.19
304.809	46.59
305.023	36.35
305.237	54.78
305.452	30.21
305.666	138.75
305.88	71.17
306.094	110.08
306.308	69.12
306.522	128.51
306.736	9.73
306.95	79.36
307.164	-6.66
307.379	22.02
307.593	173.57
307.807	97.79
308.021	54.78
308.235	89.6
308.449	-88.57
308.663	7.68
308.877	232.96
309.091	79.36
309.305	144.89
309.519	-125.44
309.733	126.46
309.947	-43.52
310.161	177.66
310.374	91.65
310.588	134.65
310.802	-31.23
311.016	54.78
311.23	79.36
311.444	11.78
311.658	24.06
311.872	126.46
312.085	134.65
312.299	97.79
312.513	105.98
312.727	77.31
312.941	-49.66
313.154	67.07
313.368	97.79
313.582	-12.8
313.796	62.98
314.009	-6.66
314.223	128.51
314.437	32.26
314.651	71.17
314.864	15.87
315.078	7.68
315.292	-51.71
315.505	-59.9
315.719	50.69
315.933	62.98
316.146	44.54
316.36	-47.62
316.573	169.47
316.787	120.32
317.001	69.12
317.214	-78.33
317.428	11.78
317.641	-74.24
317.855	42.5
318.068	24.06
318.282	-4.61
318.495	93.69
318.709	79.36
318.922	1.54
319.136	126.46
319.349	97.79
319.563	-66.05
319.776	89.6
319.99	-125.44
320.203	62.98
320.417	69.12
320.63	85.5
320.843	167.42
321.057	95.74
321.27	52.74
321.483	79.36
321.697	146.94
321.91	-29.18
322.124	17.92
322.337	-18.94
322.55	-20.99
322.763	52.74
322.977	-2.56
323.19	-25.09
323.403	34.3
323.617	34.3
323.83	140.8
324.043	32.26
324.256	97.79
324.469	-49.66
324.683	118.27
324.896	32.26
325.109	-6.66
325.322	-41.47
325.535	52.74
325.748	79.36
325.962	-31.23
326.175	89.6
326.388	-4.61
326.601	54.78
326.814	3.58
327.027	-29.18
327.24	95.74
327.453	-43.52
327.666	93.69
327.879	159.23
328.092	48.64
328.305	89.6
328.518	-41.47
328.731	-53.76
328.944	36.35
329.157	50.69
329.37	-4.61
329.583	214.52
329.796	144.89
330.009	22.02
330.222	46.59
330.435	13.82
330.648	58.88
330.861	136.7
331.073	34.3
331.286	38.4
331.499	71.17
331.712	-41.47
331.925	30.21
332.138	-14.85
332.35	136.7
332.563	-45.57
332.776	175.61
332.989	-33.28
333.202	73.21
333.414	-18.94
333.627	50.69
333.84	11.78
334.053	36.35
334.265	15.87
334.478	54.78
334.691	60.93
334.903	34.3
335.116	-43.52
335.329	-41.47
335.541	112.13
335.754	105.98
335.966	36.35
336.179	17.92
336.392	30.21
336.604	34.3
336.817	114.17
337.029	75.26
337.242	77.31
337.454	79.36
337.667	-39.42
337.88	128.51
338.092	46.59
338.305	-0.51
338.517	-82.43
338.729	97.79
338.942	122.37
339.154	-49.66
339.367	1.54
339.579	52.74
339.792	-59.9
340.004	54.78
340.217	38.4
340.429	103.93
340.641	-18.94
340.854	48.64
341.066	28.16
341.278	167.42
341.491	165.37
341.703	58.88
341.915	-72.19
342.128	118.27
342.34	-10.75
342.552	-37.38
342.764	50.69
342.977	-51.71
343.189	36.35
343.401	19.97
343.613	-78.33
343.826	34.3
344.038	-37.38
344.25	159.23
344.462	-16.9
344.674	71.17
344.886	-8.7
345.099	44.54
345.311	91.65
345.523	-14.85
345.735	-29.18
345.947	62.98
346.159	60.93
346.371	34.3
346.583	-16.9
346.795	235
347.007	-6.66
347.219	69.12
347.431	75.26
347.643	136.7
347.855	-4.61
348.067	230.91
348.279	-4.61
348.491	52.74
348.703	105.98
348.915	-4.61
349.127	-25.09
349.339	36.35
349.551	-39.42
349.763	65.02
349.975	101.89
350.187	52.74
350.399	128.51
350.61	67.07
350.822	-18.94
351.034	13.82
351.246	-14.85
351.458	34.3
351.669	101.89
351.881	157.18
352.093	101.89
352.305	87.55
352.517	-29.18
352.728	62.98
352.94	85.5
353.152	99.84
353.363	-51.71
353.575	28.16
353.787	224.76
353.999	30.21
354.21	50.69
354.422	-78.33
354.633	28.16
354.845	101.89
355.057	17.92
355.268	75.26
355.48	54.78
355.692	-33.28
355.903	15.87
356.115	-53.76
356.326	-29.18
356.538	103.93
356.749	142.85
356.961	128.51
357.172	-68.09
357.384	11.78
357.595	140.8
357.807	-20.99
358.018	36.35
358.23	9.73
358.441	165.37
358.653	116.22
358.864	67.07
359.075	83.45
359.287	9.73
359.498	87.55
359.709	91.65
359.921	93.69
360.132	71.17
360.344	40.45
360.555	-86.53
360.766	99.84
360.977	44.54
361.189	30.21
361.4	-68.09
361.611	114.17
361.823	105.98
362.034	73.21
362.245	-29.18
362.456	24.06
362.667	26.11
362.879	-0.51
363.09	5.63
363.301	15.87
363.512	-20.99
363.723	50.69
363.935	62.98
364.146	24.06
364.357	50.69
364.568	15.87
364.779	-20.99
364.99	171.52
365.201	-2.56
365.412	81.41
365.623	-47.62
365.834	36.35
366.045	-82.43
366.256	48.64
366.467	112.13
366.678	-29.18
366.889	44.54
367.1	-23.04
367.311	110.08
367.522	-33.28
367.733	112.13
367.944	52.74
368.155	81.41
368.366	132.61
368.577	97.79
368.788	93.69
368.999	-53.76
369.209	26.11
369.42	105.98
369.631	103.93
369.842	130.56
370.053	26.11
370.264	105.98
370.474	-102.91
370.685	140.8
370.896	-37.38
371.107	134.65
371.317	95.74
371.528	-6.66
371.739	171.52
371.95	52.74
372.16	83.45
372.371	-64
372.582	-23.04
372.792	101.89
373.003	77.31
373.214	118.27
373.424	185.85
373.635	-45.57
373.846	155.13
374.056	34.3
374.267	89.6
374.477	85.5
374.688	22.02
374.898	81.41
375.109	-18.94
375.319	-43.52
375.53	91.65
375.74	120.32
375.951	11.78
376.161	30.21
376.372	99.84
376.582	-14.85
376.793	118.27
377.003	42.5
377.214	-2.56
377.424	116.22
377.635	65.02
377.845	-18.94
378.055	173.57
378.266	-59.9
378.476	48.64
378.686	38.4
378.897	65.02
379.107	132.61
379.317	32.26
379.528	-41.47
379.738	103.93
379.948	-20.99
380.158	110.08
380.369	85.5
380.579	58.88
380.789	-29.18
380.999	28.16
381.21	146.94
381.42	124.41
381.63	3.58
381.84	52.74
382.05	24.06
382.261	93.69
382.471	124.41
382.681	-2.56
382.891	124.41
383.101	62.98
383.311	-82.43
383.521	-2.56
383.731	81.41
383.941	126.46
384.151	22.02
384.361	42.5
384.571	91.65
384.781	105.98
384.991	130.56
385.201	196.09
385.411	126.46
385.621	93.69
385.831	9.73
386.041	34.3
386.251	13.82
386.461	155.13
386.671	17.92
386.881	73.21
387.091	-57.86
387.301	148.99
387.511	-14.85
387.72	89.6
387.93	52.74
388.14	-111.1
388.35	19.97
388.56	192
388.769	71.17
388.979	-6.66
389.189	-31.23
389.399	-53.76
389.609	87.55
389.818	120.32
390.028	138.75
390.238	22.02
390.447	-10.75
390.657	44.54
390.867	73.21
391.076	-27.14
391.286	50.69
391.496	-4.61
391.705	24.06
391.915	105.98
392.125	108.03
392.334	-57.86
392.544	128.51
392.753	24.06
392.963	-55.81
393.172	22.02
393.382	46.59
393.591	136.7
393.801	-49.66
394.01	118.27
394.22	112.13
394.429	15.87
394.639	-8.7
394.848	36.35
395.058	114.17
395.267	17.92
395.477	-0.51
395.686	38.4
395.895	171.52
396.105	130.56
396.314	48.64
396.524	-35.33
396.733	-25.09
396.942	140.8
397.152	38.4
397.361	132.61
397.57	13.82
397.78	46.59
397.989	38.4
398.198	185.85
398.407	26.11
398.617	38.4
398.826	22.02
399.035	69.12
399.244	91.65
399.453	36.35
399.663	-14.85
399.872	34.3
400.081	-47.62
400.29	99.84
400.499	-29.18
400.708	142.85
400.917	50.69
401.127	38.4
401.336	-29.18
401.545	138.75
401.754	132.61
401.963	142.85
402.172	3.58
402.381	15.87
402.59	-35.33
402.799	60.93
403.008	87.55
403.217	28.16
403.426	118.27
403.635	-41.47
403.844	5.63
404.053	52.74
404.262	-18.94
404.471	169.47
404.68	48.64
404.888	-12.8
405.097	77.31
405.306	73.21
405.515	56.83
405.724	-12.8
405.933	146.94
406.142	-12.8
406.35	103.93
406.559	36.35
406.768	-0.51
406.977	220.67
407.185	146.94
407.394	85.5
407.603	-41.47
407.812	42.5
408.02	128.51
408.229	-2.56
408.438	87.55
408.646	-117.25
408.855	-64
409.064	89.6
409.272	-53.76
409.481	48.64
409.69	-33.28
409.898	-18.94
410.107	60.93
410.315	140.8
410.524	-39.42
410.733	26.11
410.941	-2.56
411.15	103.93
411.358	67.07
411.567	112.13
411.775	91.65
411.984	69.12
412.192	54.78
412.401	85.5
412.609	132.61
412.818	118.27
413.026	73.21
413.234	93.69
413.443	110.08
413.651	24.06
413.86	52.74
414.068	155.13
414.276	192
414.485	-35.33
414.693	151.04
414.901	116.22
415.11	130.56
415.318	-41.47
415.526	17.92
415.734	185.85
415.943	105.98
416.151	159.23
416.359	30.21
416.567	26.11
416.776	87.55
416.984	-0.51
417.192	187.9
417.4	26.11
417.608	9.73
417.817	-8.7
418.025	36.35
418.233	122.37
418.441	-49.66
418.649	-2.56
418.857	73.21
419.065	155.13
419.273	-35.33
419.481	112.13
419.689	-6.66
419.897	77.31
420.105	-111.1
420.313	122.37
420.521	185.85
420.729	93.69
420.937	-0.51
421.145	-33.28
421.353	148.99
421.561	142.85
421.769	118.27
421.977	28.16
422.185	153.09
422.393	40.45
422.601	91.65
422.809	85.5
423.017	42.5
423.224	60.93
423.432	169.47
423.64	30.21
423.848	120.32
424.056	-70.14
424.263	101.89
424.471	-10.75
424.679	120.32
424.887	-51.71
425.094	118.27
425.302	142.85
425.51	26.11
425.718	99.84
425.925	95.74
426.133	-10.75
426.341	228.86
426.548	44.54
426.756	60.93
426.964	97.79
427.171	3.58
427.379	50.69
427.586	108.03
427.794	95.74
428.001	146.94
428.209	89.6
428.417	97.79
428.624	112.13
428.832	173.57
429.039	7.68
429.247	69.12
429.454	97.79
429.662	245.24
429.869	48.64
430.076	118.27
430.284	192
430.491	130.56
430.699	169.47
430.906	116.22
431.114	214.52
431.321	36.35
431.528	103.93
431.736	136.7
431.943	220.67
432.15	165.37
432.358	218.62
432.565	249.34
432.772	28.16
432.979	177.66
433.187	85.5
433.394	241.15
433.601	136.7
433.808	228.86
434.016	271.87
434.223	187.9
434.43	153.09
434.637	267.77
434.844	259.58
435.052	265.72
435.259	267.77
435.466	267.77
435.673	263.68
435.88	280.06
436.087	361.98
436.294	415.23
436.501	288.25
436.708	271.87
436.915	353.79
437.122	361.98
437.329	218.62
437.537	335.35
437.743	380.41
437.95	511.48
438.157	378.36
438.364	345.59
438.571	437.75
438.778	470.52
438.985	413.18
439.192	550.39
439.399	456.19
439.606	464.38
439.813	531.96
440.02	656.89
440.227	648.69
440.433	585.21
440.64	460.28
440.847	458.23
441.054	691.7
441.261	751.09
441.467	673.27
441.674	564.73
441.881	679.41
442.088	617.97
442.294	742.9
442.501	794.1
442.708	896.5
442.914	849.4
443.121	873.97
443.328	904.69
443.534	976.37
443.741	941.55
443.948	851.44
444.154	1023.47
444.361	1242.61
444.568	1027.57
444.774	1197.55
444.981	1123.82
445.187	1402.35
445.394	1258.99
445.6	1240.56
445.807	1404.39
446.013	1445.35
446.22	1312.24
446.426	1502.7
446.633	1492.46
446.839	1721.83
447.046	1512.94
447.252	1723.88
447.459	1668.58
447.665	1662.44
447.871	1932.77
448.078	1951.2
448.284	2104.8
448.491	2186.72
448.697	2244.06
448.903	2368.99
449.11	2442.71
449.316	2354.65
449.522	2524.63
449.728	2737.62
449.935	2686.42
450.141	2776.53
450.347	2966.99
450.553	2864.6
450.76	3007.95
450.966	3141.07
451.172	3175.89
451.378	3235.28
451.584	3442.12
451.791	3741.13
451.997	3685.83
452.203	3689.93
452.409	4046.27
452.615	4197.82
452.821	4220.35
453.027	4115.91
453.233	4781.5
453.44	4554.17
453.646	4773.3
453.852	4857.27
454.058	5125.55
454.264	5404.08
454.47	5596.59
454.676	5600.68
454.882	6260.13
455.088	5885.35
455.294	6342.05
455.5	6729.11
455.705	7136.66
455.911	6978.97
456.117	7271.83
456.323	7560.59
456.529	7566.73
456.735	8299.91
456.941	8291.71
457.147	8738.17
457.352	8922.49
457.558	9239.92
457.764	9774.44
457.97	10138.98
458.176	10374.5
458.381	11013.46
458.587	11318.61
458.793	11705.68
458.999	11814.22
459.204	12969.27
459.41	13864.24
459.616	13432.12
459.821	14019.88
460.027	14718.24
460.233	15641.87
460.438	15572.24
460.644	16491.78
460.85	16598.27
461.055	17409.27
461.261	18099.44
461.466	17755.38
461.672	18087.15
461.878	19981.52
462.083	20006.09
462.289	20597.96
462.494	21324.99
462.7	21388.47
462.905	21806.26
463.111	23700.63
463.316	24448.14
463.522	25048.19
463.727	25631.86
463.932	26770.54
464.138	27892.82
464.343	28851.27
464.549	29043.78
464.754	31034.41
464.959	31788.06
465.165	32775.18
465.37	32433.17
465.575	32359.44
465.781	34415.6
465.986	35658.72
466.191	35224.55
466.397	35294.18
466.602	34786.29
466.807	36426.71
467.012	37123.02
467.218	37739.46
467.423	37780.42
467.628	38912.94
467.833	41204.62
468.038	39752.61
468.244	39431.08
468.449	41110.41
468.654	40362.9
468.859	40295.32
469.064	40745.87
469.269	39316.39
469.474	39742.37
469.679	40924.05
469.885	39558.05
470.09	40563.61
470.295	40319.9
470.5	39463.85
470.705	40174.49
470.91	38689.71
471.115	38403
471.32	38702
471.525	39048.11
471.73	37729.22
471.935	37475.27
472.139	36025.31
472.344	36027.35
472.549	35744.73
472.754	34974.7
472.959	34651.12
473.164	33219.59
473.369	32945.16
473.574	33520.64
473.778	33100.81
473.983	32078.87
474.188	31718.43
474.393	30049.33
474.598	30221.36
474.802	29762.62
475.007	29162.56
475.212	29056.07
475.417	27597.91
475.621	27303.01
475.826	27343.97
476.031	26772.58
476.235	25988.21
476.44	26156.14
476.645	25238.65
476.849	25037.95
477.054	24595.59
477.259	23858.32
477.463	24276.11
477.668	23110.82
477.872	23774.36
478.077	22822.05
478.282	21986.48
478.486	21791.92
478.691	21793.97
478.895	21609.65
479.1	21623.99
479.304	21400.76
479.509	20468.94
479.713	20948.16
479.918	20393.16
480.122	19809.49
480.326	20069.58
480.531	20282.57
480.735	19690.71
480.94	19586.26
481.144	20163.79
481.348	19186.91
481.553	19162.33
481.757	18760.93
481.961	18822.37
482.166	19045.6
482.37	18732.26
482.574	18144.49
482.778	18162.92
482.983	18568.42
483.187	17962.22
483.391	17929.45
483.595	17855.73
483.8	17339.64
484.004	17544.44
484.208	17474.81
484.412	17134.84
484.616	16903.42
484.821	17022.2
485.025	16268.55
485.229	16858.37
485.433	16297.22
485.637	15973.64
485.841	15686.93
486.045	15480.08
486.249	15605.01
486.453	15060.25
486.657	15168.79
486.861	14804.25
487.065	14259.49
487.269	14206.25
487.473	13757.74
487.677	14001.45
487.881	13987.11
488.085	13536.56
488.289	13147.45
488.493	12844.35
488.697	12795.2
488.901	12801.34
489.105	12252.49
489.309	12170.57
489.512	12016.97
489.716	11806.03
489.92	11541.84
490.124	11423.06
490.328	11392.34
490.531	10937.69
490.735	10763.61
490.939	10634.59
491.143	10485.09
491.346	10292.58
491.55	10026.34
491.754	10016.1
491.958	9864.55
492.161	9493.87
492.365	9395.57
492.569	9252.21
492.772	9071.99
492.976	9143.67
493.18	9018.74
493.383	8844.67
493.587	8729.98
493.79	8715.64
493.994	8428.93
494.197	8496.51
494.401	8226.18
494.605	8058.25
494.808	8193.41
495.012	7988.61
495.215	8113.54
495.419	7830.92
495.622	7980.42
495.825	7861.64
496.029	7896.46
496.232	7816.58
496.436	7701.9
496.639	7806.34
496.843	7837.06
497.046	7816.58
497.249	7851.4
497.453	7796.11
497.656	7677.32
497.859	7830.92
498.063	7763.34
498.266	7986.57
498.469	7576.97
498.673	7728.52
498.876	7871.88
499.079	7976.33
499.282	7740.81
499.485	8301.95
499.689	7978.37
499.892	7955.85
500.095	8107.4
500.298	8308.1
500.501	7912.84
500.705	8455.55
500.908	8217.99
501.111	8392.06
501.314	8598.91
501.517	8574.33
501.72	8643.96
501.923	8697.21
502.126	8752.51
502.329	9018.74
502.532	8977.78
502.735	8992.12
502.938	9188.72
503.141	9227.64
503.344	9244.02
503.547	9514.35
503.75	9526.64
503.953	9467.25
504.156	9897.32
504.359	10055.01
504.562	10089.83
504.765	10356.07
504.968	10376.55
505.17	10640.73
505.373	10614.11
505.576	11056.47
505.779	10988.89
505.982	11072.86
506.185	11593.04
506.387	11654.48
506.59	12070.22
506.793	12145.99
506.996	12152.13
507.198	12739.9
507.401	12666.17
507.604	12981.56
507.807	13389.11
508.009	13446.45
508.212	13767.98
508.415	14028.07
508.617	14435.62
508.82	14406.95
509.022	14816.54
509.225	15281.43
509.428	15473.94
509.63	15783.18
509.833	15899.92
510.035	16592.13
510.238	16661.76
510.44	17040.64
510.643	17800.43
510.845	18177.26
511.048	18271.47
511.25	18795.75
511.453	19264.73
511.655	19909.84
511.858	20337.87
512.06	20309.19
512.262	21038.27
512.465	21257.4
512.667	21664.95
512.87	22142.13
513.072	22770.85
513.274	23334.04
513.477	24147.09
513.679	24349.84
513.881	25021.57
514.084	25570.43
514.286	25556.09
514.488	26311.79
514.69	27487.32
514.893	27866.2
515.095	28253.26
515.297	29035.59
515.499	29135.94
515.701	30301.23
515.904	30678.06
516.106	31511.58
516.308	32017.43
516.51	33000.46
516.712	33315.84
516.914	33979.39
517.116	34868.2
517.318	35349.48
517.52	36035.55
517.722	36436.95
517.925	37055.43
518.127	38103.99
518.329	38523.83
518.531	38775.73
518.733	39689.12
518.935	40768.4
519.136	40618.9
519.338	41763.71
519.54	42109.82
519.742	43060.08
519.944	43572.07
520.146	44567.38
520.348	44733.27
520.55	45329.23
520.752	45769.54
520.954	46797.62
521.155	46932.79
521.357	47516.46
521.559	48216.86
521.761	48982.8
521.963	48995.09
522.164	49779.46
522.366	49654.54
522.568	50504.45
522.77	50819.83
522.971	51497.71
523.173	51145.46
523.375	51876.58
523.576	51753.71
523.778	52099.81
523.98	52484.83
524.181	52894.42
524.383	52927.19
524.584	53426.9
524.786	53760.72
524.988	53492.43
525.189	53873.35
525.391	53738.19
525.592	54151.88
525.794	53865.16
525.995	53562.06
526.197	53611.21
526.398	53603.02
526.6	53420.75
526.801	53887.69
527.003	53684.94
527.204	53355.22
527.406	53682.89
527.607	52988.63
527.808	53041.88
528.01	52175.59
528.211	52155.11
528.412	52660.96
528.614	52032.23
528.815	51804.91
529.016	51677.93
529.218	50916.09
529.419	50580.22
529.62	50291.46
529.822	49488.65
530.023	49373.97
530.224	48974.61
530.425	48376.61
530.626	47647.53
530.828	47084.34
531.029	47792.93
531.23	46324.54
531.431	46304.06
531.632	45710.15
531.833	45259.6
532.035	44974.93
532.236	44489.56
532.437	43916.13
532.638	42851.19
532.839	42566.52
533.04	42492.79
533.241	41360.26
533.442	41784.19
533.643	40829.84
533.844	39893.92
534.045	39383.98
534.246	38640.56
534.447	38808.5
534.648	38007.74
534.849	37624.77
535.05	36930.51
535.251	36459.48
535.451	36096.99
535.652	35652.58
535.853	35449.83
536.054	34823.15
536.255	34606.06
536.456	33825.79
536.657	33688.57
536.857	32848.91
537.058	32830.48
537.259	32019.48
537.46	31994.9
537.66	31106.09
537.861	31095.85
538.062	30469.17
538.263	30057.53
538.463	29664.32
538.664	29418.56
538.865	29131.84
539.065	28884.04
539.266	28253.26
539.466	28226.64
539.667	27685.98
539.868	27716.7
540.068	26913.89
540.269	26670.19
540.469	26686.57
540.67	25902.2
540.87	25953.4
541.071	25492.6
541.271	25369.72
541.472	25285.76
541.672	24702.09
541.873	24147.09
542.073	23667.86
542.274	24050.83
542.474	23633.05
542.675	23540.89
542.875	23166.11
543.075	22961.31
543.276	22297.77
543.476	22533.29
543.676	22099.12
543.877	22000.82
544.077	21695.67
544.277	21386.43
544.478	21349.56
544.678	20952.26
544.878	20677.83
545.078	20419.78
545.279	20266.19
545.479	19758.29
545.679	19774.67
545.879	19711.19
546.079	19434.71
546.28	18908.38
546.48	18762.98
546.68	19000.54
546.88	18537.7
547.08	18267.37
547.28	17984.75
547.48	17663.22
547.68	17745.14
547.88	17665.27
548.081	17061.12
548.281	16866.56
548.481	16717.06
548.681	16502.02
548.881	16436.49
549.081	16291.08
549.28	15731.98
549.48	15944.97
549.68	15555.86
549.88	15760.66
550.08	14974.24
550.28	14976.28
550.48	14843.17
550.68	14712.1
550.88	14378.28
551.08	14126.38
551.279	14046.51
551.479	13825.33
551.679	13749.55
551.879	13403.44
552.079	13176.12
552.278	12864.83
552.478	12889.4
552.678	12590.4
552.878	12729.66
553.077	12158.28
553.277	11908.43
553.477	11836.75
553.676	11867.47
553.876	11357.52
554.076	11324.76
554.275	11289.94
554.475	10843.48
554.674	11087.19
554.874	10564.96
555.074	10550.62
555.273	10390.88
555.473	10390.88
555.672	9946.47
555.872	9645.42
556.071	9733.48
556.271	9725.29
556.47	9325.94
556.67	9016.69
556.869	8955.26
557.068	8658.3
557.268	8693.12
557.467	8598.91
557.667	8543.61
557.866	8240.51
558.065	8347.01
558.265	8002.95
558.464	7959.94
558.663	7861.64
558.863	7669.13
559.062	7652.75
559.261	7439.76
559.461	7433.61
559.66	7097.75
559.859	7024.02
560.058	6978.97
560.258	7015.83
560.457	6788.5
560.656	6876.57
560.855	6393.25
561.054	6585.76
561.253	6518.17
561.453	6124.96
561.652	6167.97
561.851	6180.26
562.05	5801.38
562.249	5842.34
562.448	5825.96
562.647	5739.94
562.846	5576.11
563.045	5696.94
563.244	5440.94
563.443	5502.38
563.642	5232.05
563.841	5195.18
564.04	5203.38
564.239	5103.03
564.438	4998.58
564.637	4912.57
564.836	4922.8
565.035	4828.6
565.234	4603.32
565.432	4619.71
565.631	4541.88
565.83	4621.75
566.029	4476.35
566.228	4400.57
566.427	4459.96
566.625	4214.21
566.824	4208.06
567.023	4146.62
567.222	4101.57
567.42	3945.92
567.619	4079.04
567.818	4023.75
568.016	4015.55
568.215	3913.16
568.414	3810.76
568.612	3648.97
568.811	3528.14
569.01	3601.87
569.208	3636.68
569.407	3536.33
569.605	3444.17
569.804	3540.43
570.002	3452.36
570.201	3317.2
570.4	3220.94
570.598	3048.91
570.797	3200.46
570.995	3139.02
571.193	3010
571.392	3065.3
571.59	2866.64
571.789	2975.19
571.987	2837.97
572.186	2821.59
572.384	2799.06
572.582	2758.1
572.781	2657.75
572.979	2604.5
573.177	2667.99
573.376	2510.3
573.574	2604.5
573.772	2543.07
573.971	2412
574.169	2375.13
574.367	2465.24
574.565	2280.93
574.763	2401.76
574.962	2205.15
575.16	2237.92
575.358	2102.75
575.556	2178.53
575.754	2121.18
575.952	2160.1
576.151	2170.33
576.349	2166.24
576.547	2024.93
576.745	2008.55
576.943	2022.88
577.141	1811.94
577.339	1824.23
577.537	1832.42
577.735	1867.24
577.933	1920.48
578.131	1732.07
578.329	1973.73
578.527	1670.63
578.725	1727.97
578.923	1537.51
579.121	1762.79
579.319	1541.61
579.516	1514.98
579.714	1711.59
579.912	1531.37
580.11	1418.73
580.308	1449.45
580.506	1437.16
580.704	1304.04
580.901	1326.57
581.099	1494.51
581.297	1328.62
581.495	1431.02
581.692	1353.2
581.89	1453.55
582.088	1304.04
582.285	1326.57
582.483	1269.23
582.681	1287.66
582.878	1283.56
583.076	1273.32
583.274	1119.73
583.471	1310.19
583.669	1203.69
583.866	1050.1
584.064	1105.39
584.262	1029.62
584.459	1082.86
584.657	1168.88
584.854	1097.2
585.052	1033.71
585.249	1066.48
585.447	1125.87
585.644	966.13
585.841	1023.47
586.039	1021.42
586.236	1066.48
586.434	884.21
586.631	853.49
586.828	904.69
587.026	1048.05
587.223	882.16
587.42	820.72
587.618	949.75
587.815	953.84
588.012	865.78
588.21	810.48
588.407	884.21
588.604	824.82
588.801	773.62
588.999	779.76
589.196	863.73
589.393	902.64
589.59	845.3
589.787	802.29
589.984	771.57
590.182	890.35
590.379	710.13
590.576	787.96
590.773	814.58
590.97	660.98
591.167	876.02
591.364	814.58
591.561	749.04
591.758	849.4
591.955	738.8
592.152	757.24
592.349	646.65
592.546	763.38
592.743	685.56
592.94	728.56
593.137	771.57
593.334	722.42
593.531	785.91
593.727	908.79
593.924	736.76
594.121	663.03
594.318	738.8
594.515	824.82
594.712	929.27
594.908	820.72
595.105	574.97
595.302	847.35
595.499	796.15
595.696	822.77
595.892	777.72
596.089	861.68
596.286	833.01
596.482	925.17
596.679	933.36
596.876	800.24
597.072	959.99
597.269	953.84
597.466	933.36
597.662	992.75
597.859	904.69
598.055	1052.14
598.252	1043.95
598.448	1170.93
598.645	1287.66
598.841	1211.89
599.038	1324.52
599.234	1433.07
599.431	1435.11
599.627	1408.49
599.824	1455.59
600.02	1441.26
600.217	1545.7
600.413	1672.68
600.609	1627.62
600.806	2061.79
601.002	1844.71
601.198	1926.63
601.395	2018.79
601.591	2059.74
601.787	2217.44
601.984	2223.58
602.18	2297.31
602.376	2407.9
602.572	2340.32
602.769	2622.94
602.965	2733.53
603.161	2692.57
603.357	2794.97
603.553	2926.04
603.75	2911.7
603.946	3110.35
604.142	3214.8
604.338	3440.08
604.534	3302.86
604.73	3442.12
604.926	3593.67
605.122	3894.72
605.318	3960.26
605.514	4064.71
605.71	4003.27
605.906	4285.89
606.102	4373.95
606.298	4623.8
606.494	4552.12
606.69	4838.84
606.886	4756.92
607.082	4974
607.278	5236.14
607.474	5348.78
607.67	5520.81
607.866	5412.27
608.062	5879.21
608.257	5875.11
608.453	5928.36
608.649	6223.27
608.845	6450.59
609.041	6567.32
609.236	6806.94
609.432	7071.12
609.628	7124.37
609.824	7224.72
610.019	7585.16
610.215	7812.49
610.411	7939.46
610.606	8113.54
610.802	8605.05
610.998	8480.13
611.193	8949.11
611.389	9037.17
611.584	9166.2
611.78	9313.65
611.976	9680.24
612.171	10071.4
612.367	10308.96
612.562	10351.97
612.758	10558.81
612.953	10749.28
613.149	11330.9
613.344	11568.46
613.539	12062.02
613.735	12354.88
613.93	12555.58
614.126	12776.77
614.321	13327.67
614.517	13575.47
614.712	13860.14
614.907	14167.34
615.103	14540.07
615.298	14757.15
615.493	15467.8
615.688	15529.24
615.884	16434.44
616.079	16172.3
616.274	16940.29
616.47	17100.03
616.665	17702.13
616.86	17933.55
617.055	18572.52
617.25	19193.05
617.445	19707.09
617.641	19879.12
617.836	20839.62
618.031	20743.36
618.226	21677.24
618.421	22090.93
618.616	22586.54
618.811	22658.21
619.006	23872.66
619.201	23958.67
619.396	24597.64
619.591	24790.15
619.786	25644.15
619.981	25883.77
620.176	26637.42
620.371	27173.99
620.566	27761.75
620.761	28376.14
620.956	29088.84
621.151	29080.64
621.346	30012.47
621.541	30243.89
621.735	31099.94
621.93	31386.66
622.125	31929.37
622.32	32508.94
622.515	33647.61
622.709	33735.68
622.904	34743.28
623.099	34903.02
623.294	35851.23
623.488	36271.06
623.683	37176.26
623.878	37301.19
624.072	38194.11
624.267	38587.32
624.462	39138.22
624.656	39779.23
624.851	40571.8
625.046	40817.55
625.24	41245.58
625.435	41659.27
625.629	42496.89
625.824	42496.89
626.018	43666.28
626.213	43703.14
626.407	44417.88
626.602	44442.46
626.796	45425.48
626.991	45564.74
627.185	46289.73
627.38	45972.29
627.574	46560.06
627.768	46687.03
627.963	46637.88
628.157	46895.92
628.352	47860.52
628.546	47299.37
628.74	47442.73
628.935	46717.75
629.129	47250.22
629.323	46811.96
629.517	46646.07
629.712	46115.65
629.906	46109.5
630.1	45488.97
630.294	45122.38
630.489	44686.17
630.683	44051.3
630.877	43092.85
631.071	42191.74
631.265	41956.22
631.459	41036.69
631.653	39902.11
631.848	39271.34
632.042	38362.04
632.236	37624.77
632.43	36344.79
632.624	35978.2
632.818	34139.13
633.012	33283.08
633.206	32181.27
633.4	31009.83
633.594	29738.04
633.788	29572.16
633.982	28081.24
634.176	27366.49
634.369	26035.31
634.563	25347.2
634.757	24198.29
634.951	23565.46
635.145	22381.74
635.339	21839.03
635.533	20624.58
635.726	19809.49
635.92	18848.99
636.114	18025.71
636.308	17323.26
636.501	16936.19
636.695	16225.54
636.889	15437.08
637.083	14818.59
637.276	14267.69
637.47	13763.89
637.664	13200.69
637.857	12506.43
638.051	11849.04
638.244	11199.83
638.438	11054.42
638.632	10900.83
638.825	10247.52
639.019	9807.21
639.212	9368.95
639.406	9047.41
639.599	8621.44
639.793	8605.05
639.986	7949.7
640.18	7646.6
640.373	7366.03
640.567	7265.68
640.76	6862.23
640.954	6675.87
641.147	6360.48
641.34	5967.27
641.534	5911.97
641.727	5684.65
641.92	5506.48
642.114	5193.14
642.307	4904.37
642.5	5043.64
642.694	4654.52
642.887	4535.74
643.08	4447.68
643.273	4214.21
643.467	3997.12
643.66	3669.45
643.853	3583.43
644.046	3593.67
644.239	3487.18
644.432	3329.49
644.626	3014.1
644.819	3003.86
645.012	2913.75
645.205	2799.06
645.398	2764.25
645.591	2663.9
645.784	2538.97
645.977	2416.09
646.17	2358.75
646.363	2252.25
646.556	2110.94
646.749	2004.45
646.942	2045.41
647.135	1945.06
647.328	1781.22
647.521	1748.45
647.714	1603.05
647.907	1684.97
648.099	1502.7
648.292	1572.33
648.485	1410.54
648.678	1484.27
648.871	1302
649.064	1355.24
649.256	1342.96
649.449	1256.94
649.642	1054.19
649.835	988.66
650.027	1017.33
650.22	1091.06
650.413	1041.9
650.605	962.03
650.798	955.89
650.991	974.32
651.183	900.59
651.376	859.63
651.568	892.4
651.761	800.24
651.954	800.24
652.146	755.19
652.339	785.91
652.531	927.22
652.724	646.65
652.916	660.98
653.109	482.81
653.301	675.32
653.494	630.26
653.686	642.55
653.879	630.26
654.071	579.06
654.263	525.82
654.456	519.67
654.648	503.29
654.84	581.11
655.033	478.71
655.225	599.54
655.417	427.51
655.61	511.48
655.802	497.14
655.994	568.82
656.186	333.31
656.379	521.72
656.571	366.07
656.763	335.35
656.955	249.34
657.148	290.3
657.34	421.37
657.532	409.08
657.724	273.92
657.916	300.54
658.108	349.69
658.3	370.17
658.492	298.49
658.684	237.05
658.876	321.02
659.068	222.72
659.26	155.13
659.452	241.15
659.644	353.79
659.836	396.79
660.028	243.2
660.22	278.01
660.412	325.12
660.604	245.24
660.796	306.68
660.988	333.31
661.18	249.34
661.372	202.24
661.563	241.15
661.755	275.96
661.947	179.71
662.139	167.42
662.331	155.13
662.522	157.18
662.714	167.42
662.906	194.05
663.097	148.99
663.289	134.65
663.481	69.12
663.673	228.86
663.864	83.45
664.056	243.2
664.247	97.79
664.439	200.19
664.631	196.09
664.822	257.53
665.014	280.06
665.205	99.84
665.397	130.56
665.588	175.61
665.78	161.28
665.971	181.76
666.163	93.69
666.354	196.09
666.546	163.33
666.737	126.46
666.929	146.94
667.12	167.42
667.311	169.47
667.503	189.95
667.694	185.85
667.885	134.65
668.077	175.61
668.268	26.11
668.459	161.28
668.651	167.42
668.842	198.14
669.033	120.32
669.224	120.32
669.416	296.44
669.607	194.05
669.798	42.5
669.989	314.88
670.18	58.88
670.371	216.57
670.563	24.06
670.754	210.43
670.945	212.48
671.136	161.28
671.327	71.17
671.518	204.28
671.709	302.59
671.9	83.45
672.091	155.13
672.282	206.33
672.473	169.47
672.664	56.83
672.855	95.74
673.046	167.42
673.237	198.14
673.428	161.28
673.619	243.2
673.809	171.52
674	216.57
674.191	237.05
674.382	165.37
674.573	126.46
674.764	220.67
674.954	243.2
675.145	126.46
675.336	144.89
675.527	130.56
675.717	159.23
675.908	114.17
676.099	171.52
676.289	122.37
676.48	58.88
676.671	157.18
676.861	136.7
677.052	161.28
677.243	134.65
677.433	140.8
677.624	232.96
677.814	177.66
678.005	71.17
678.195	261.63
678.386	130.56
678.576	255.48
678.767	83.45
678.957	126.46
679.148	181.76
679.338	312.83
679.529	241.15
679.719	179.71
679.909	226.81
680.1	296.44
680.29	202.24
680.481	163.33
680.671	187.9
680.861	212.48
681.052	189.95
681.242	167.42
681.432	249.34
681.622	239.1
681.813	62.98
682.003	284.16
682.193	151.04
682.383	222.72
682.573	230.91
682.764	194.05
682.954	216.57
683.144	372.22
683.334	187.9
683.524	241.15
683.714	239.1
683.904	214.52
684.094	183.81
684.284	273.92
684.474	361.98
684.664	286.2
684.854	187.9
685.044	247.29
685.234	224.76
685.424	267.77
685.614	177.66
685.804	312.83
685.994	280.06
686.184	214.52
686.374	280.06
686.564	261.63
686.753	265.72
686.943	204.28
687.133	185.85
687.323	228.86
687.513	349.69
687.702	316.92
687.892	259.58
688.082	310.78
688.272	370.17
688.461	224.76
688.651	439.8
688.841	284.16
689.03	308.73
689.22	275.96
689.41	329.21
689.599	171.52
689.789	249.34
689.979	355.83
690.168	214.52
690.358	341.5
690.547	308.73
690.737	284.16
690.926	255.48
691.116	351.74
691.305	347.64
691.495	228.86
691.684	153.09
691.874	175.61
692.063	271.87
692.252	333.31
692.442	343.55
692.631	173.57
692.82	278.01
693.01	341.5
693.199	214.52
693.388	306.68
693.578	290.3
693.767	247.29
693.956	290.3
694.146	222.72
694.335	314.88
694.524	185.85
694.713	329.21
694.902	300.54
695.092	284.16
695.281	294.4
695.47	183.81
695.659	245.24
695.848	318.97
696.037	175.61
696.226	224.76
696.415	273.92
696.604	325.12
696.793	314.88
696.982	218.62
697.171	366.07
697.36	218.62
697.549	151.04
697.738	118.27
697.927	261.63
698.116	222.72
698.305	318.97
698.494	253.44
698.683	189.95
698.872	454.14
699.061	280.06
699.25	214.52
699.438	239.1
699.627	185.85
699.816	351.74
700.005	138.75
700.193	243.2
700.382	273.92
700.571	329.21
700.76	187.9
700.948	308.73
701.137	290.3
701.326	339.45
701.514	228.86
701.703	312.83
701.892	374.27
702.08	435.71
702.269	312.83
702.457	208.38
702.646	257.53
702.834	300.54
703.023	335.35
703.212	327.16
703.4	269.82
703.589	173.57
703.777	232.96
703.965	169.47
704.154	232.96
704.342	222.72
704.531	214.52
704.719	267.77
704.907	386.55
705.096	194.05
705.284	239.1
705.472	310.78
705.661	263.68
705.849	310.78
706.037	314.88
706.226	339.45
706.414	198.14
706.602	155.13
706.79	280.06
706.979	151.04
707.167	235
707.355	226.81
707.543	316.92
707.731	237.05
707.919	210.43
708.107	126.46
708.296	232.96
708.484	255.48
708.672	300.54
708.86	251.39
709.048	167.42
709.236	192
709.424	286.2
709.612	298.49
709.8	91.65
709.988	278.01
710.176	357.88
710.364	302.59
710.551	294.4
710.739	294.4
710.927	251.39
711.115	208.38
711.303	265.72
711.491	398.84
711.679	249.34
711.866	321.02
712.054	204.28
712.242	316.92
712.43	347.64
712.617	275.96
712.805	298.49
712.993	216.57
713.181	71.17
713.368	364.03
713.556	255.48
713.744	200.19
713.931	431.61
714.119	261.63
714.306	136.7
714.494	249.34
714.682	179.71
714.869	243.2
715.057	284.16
715.244	116.22
715.432	296.44
715.619	169.47
715.807	257.53
715.994	302.59
716.182	304.64
716.369	294.4
716.556	271.87
716.744	196.09
716.931	159.23
717.119	300.54
717.306	275.96
717.493	271.87
717.681	269.82
717.868	204.28
718.055	339.45
718.242	232.96
718.43	261.63
718.617	321.02
718.804	278.01
718.991	382.46
719.179	331.26
719.366	280.06
719.553	318.97
719.74	282.11
719.927	257.53
720.114	251.39
720.301	183.81
720.488	271.87
720.676	206.33
720.863	271.87
721.05	384.51
721.237	316.92
721.424	335.35
721.611	361.98
721.798	200.19
721.985	239.1
722.172	212.48
722.358	239.1
722.545	339.45
722.732	292.35
722.919	366.07
723.106	296.44
723.293	222.72
723.48	304.64
723.667	230.91
723.853	339.45
724.04	308.73
724.227	341.5
724.414	165.37
724.6	374.27
724.787	376.31
724.974	398.84
725.161	327.16
725.347	290.3
725.534	308.73
725.72	331.26
725.907	271.87
726.094	427.51
726.28	306.68
726.467	351.74
726.653	189.95
726.84	364.03
727.027	411.13
727.213	351.74
727.4	288.25
727.586	302.59
727.773	386.55
727.959	302.59
728.145	331.26
728.332	335.35
728.518	202.24
728.705	404.99
728.891	263.68
729.077	318.97
729.264	271.87
729.45	187.9
729.636	390.65
729.823	329.21
730.009	337.4
730.195	421.37
730.382	357.88
730.568	304.64
730.754	355.83
730.94	257.53
731.126	439.8
731.313	415.23
731.499	368.12
731.685	439.8
731.871	359.93
732.057	335.35
732.243	400.89
732.429	353.79
732.615	370.17
732.801	327.16
732.987	290.3
733.173	333.31
733.359	226.81
733.545	318.97
733.731	306.68
733.917	499.19
734.103	400.89
734.289	314.88
734.475	341.5
734.661	486.9
734.847	259.58
735.033	321.02
735.219	400.89
735.404	361.98
735.59	249.34
735.776	331.26
735.962	370.17
736.148	372.22
736.333	497.14
736.519	380.41
736.705	224.76
736.89	413.18
737.076	318.97
737.262	359.93
737.447	347.64
737.633	286.2
737.819	431.61
738.004	341.5
738.19	329.21
738.375	372.22
738.561	488.95
738.747	419.32
738.932	232.96
739.118	513.53
739.303	427.51
739.489	366.07
739.674	376.31
739.859	341.5
740.045	380.41
740.23	333.31
740.416	187.9
740.601	306.68
740.786	349.69
740.972	302.59
741.157	253.44
741.342	318.97
741.528	275.96
741.713	409.08
741.898	323.07
742.084	349.69
742.269	378.36
742.454	316.92
742.639	433.66
742.824	337.4
743.01	370.17
743.195	390.65
743.38	361.98
743.565	374.27
743.75	366.07
743.935	394.75
744.12	460.28
744.305	210.43
744.49	312.83
744.675	249.34
744.86	259.58
745.045	331.26
745.23	368.12
745.415	376.31
745.6	458.23
745.785	245.24
745.97	345.59
746.155	357.88
746.34	421.37
746.525	382.46
746.71	413.18
746.895	300.54
747.079	290.3
747.264	337.4
747.449	351.74
747.634	364.03
747.819	355.83
748.003	300.54
748.188	239.1
748.373	290.3
748.557	337.4
748.742	173.57
748.927	351.74
749.111	376.31
749.296	339.45
749.481	357.88
749.665	210.43
749.85	267.77
750.034	337.4
750.219	261.63
750.404	196.09
750.588	310.78
750.773	253.44
750.957	312.83
751.141	235
751.326	400.89
751.51	222.72
751.695	226.81
751.879	275.96
752.064	445.95
752.248	288.25
752.432	433.66
752.617	366.07
752.801	333.31
752.985	267.77
753.17	327.16
753.354	284.16
753.538	173.57
753.722	185.85
753.907	134.65
754.091	218.62
754.275	306.68
754.459	192
754.643	146.94
754.828	247.29
755.012	302.59
755.196	173.57
755.38	228.86
755.564	200.19
755.748	194.05
755.932	316.92
756.116	257.53
756.3	316.92
756.484	185.85
756.668	331.26
756.852	101.89
757.036	200.19
757.22	206.33
757.404	177.66
757.588	148.99
757.772	278.01
757.956	175.61
758.14	368.12
758.323	153.09
758.507	239.1
758.691	183.81
758.875	275.96
759.059	275.96
759.242	194.05
759.426	167.42
759.61	181.76
759.794	216.57
759.977	263.68
760.161	380.41
760.345	218.62
760.528	222.72
760.712	132.61
760.895	261.63
761.079	247.29
761.263	65.02
761.446	97.79
761.63	169.47
761.813	228.86
761.997	112.13
762.18	187.9
762.364	259.58
762.547	-23.04
762.731	171.52
762.914	155.13
763.098	173.57
763.281	192
763.464	101.89
763.648	179.71
763.831	69.12
764.015	101.89
764.198	200.19
764.381	169.47
764.564	148.99
764.748	151.04
764.931	138.75
765.114	124.41
765.297	169.47
765.481	120.32
765.664	73.21
765.847	181.76
766.03	265.72
766.213	36.35
766.397	153.09
766.58	91.65
766.763	202.24
766.946	108.03
767.129	91.65
767.312	118.27
767.495	108.03
767.678	79.36
767.861	134.65
768.044	99.84
768.227	128.51
768.41	114.17
768.593	151.04
768.776	126.46
768.959	110.08
769.142	288.25
769.324	95.74
769.507	93.69
769.69	105.98
769.873	112.13
770.056	255.48
770.239	126.46
770.421	243.2
770.604	169.47
770.787	34.3
770.97	89.6
771.152	19.97
771.335	136.7
771.518	71.17
771.7	255.48
771.883	237.05
772.066	48.64
772.248	142.85
772.431	118.27
772.613	171.52
772.796	69.12
772.978	116.22
773.161	181.76
773.343	81.41
773.526	132.61
773.708	54.78
773.891	50.69
774.073	34.3
774.256	62.98
774.438	177.66
774.621	108.03
774.803	118.27
774.985	34.3
775.168	126.46
775.35	132.61
775.532	142.85
775.715	62.98
775.897	99.84
776.079	46.59
776.261	159.23
776.444	79.36
776.626	91.65
776.808	79.36
776.99	-2.56
777.173	132.61
777.355	62.98
777.537	138.75
777.719	112.13
777.901	69.12
778.083	38.4
778.265	-8.7
778.447	122.37
778.629	38.4
778.811	87.55
778.993	110.08
779.175	91.65
779.357	132.61
779.539	26.11
779.721	-10.75
779.903	189.95
780.085	87.55
780.267	140.8
780.449	69.12
780.631	138.75
780.812	142.85
780.994	36.35
781.176	3.58
781.358	13.82
781.54	52.74
781.721	136.7
781.903	116.22
782.085	48.64
782.267	177.66
782.448	30.21
782.63	-23.04
782.812	99.84
782.993	108.03
783.175	153.09
783.357	-10.75
783.538	65.02
783.72	-6.66
783.901	50.69
784.083	67.07
784.264	91.65
784.446	-23.04
784.627	-2.56
784.809	95.74
784.99	-27.14
785.172	79.36
785.353	30.21
785.535	-8.7
785.716	-43.52
785.897	-4.61
786.079	65.02
786.26	-6.66
786.441	-39.42
786.623	-31.23
786.804	22.02
786.985	56.83
787.167	83.45
787.348	-23.04
787.529	54.78
787.71	163.33
787.891	87.55
788.073	28.16
788.254	-150.01
788.435	116.22
788.616	5.63
788.797	-23.04
788.978	-2.56
789.159	32.26
789.34	73.21
789.522	75.26
789.703	56.83
789.884	83.45
790.065	28.16
790.246	124.41
790.427	32.26
790.607	99.84
790.788	83.45
790.969	-14.85
791.15	89.6
791.331	79.36
791.512	36.35
791.693	46.59
791.874	54.78
792.054	239.1
792.235	65.02
792.416	42.5
792.597	-27.14
792.778	65.02
792.958	69.12
793.139	26.11
793.32	85.5
793.5	3.58
793.681	65.02
793.862	89.6
794.042	69.12
794.223	-37.38
794.404	3.58
794.584	-117.25
794.765	9.73
794.945	32.26
795.126	-57.86
795.306	91.65
795.487	62.98
795.667	-45.57
795.848	69.12
796.028	-57.86
796.209	91.65
796.389	81.41
796.57	42.5
796.75	-66.05
796.93	30.21
797.111	-16.9
797.291	-45.57
797.471	69.12
797.652	-23.04
797.832	-45.57
798.012	85.5
798.192	-49.66
798.373	-86.53
798.553	-12.8
798.733	114.17
798.913	-102.91
799.093	-41.47
799.274	36.35
799.454	108.03
799.634	77.31
799.814	54.78
799.994	17.92
800.174	42.5
800.354	-88.57
800.534	-57.86
800.714	32.26
800.894	-68.09
801.074	-0.51
801.254	-2.56
801.434	75.26
801.614	-25.09
801.794	-109.05
801.974	1680.87
802.154	-14.85
802.334	5.63
802.514	-86.53
802.693	-47.62
802.873	-23.04
803.053	56.83
803.233	89.6
803.413	-61.95
803.592	-35.33
803.772	5.63
803.952	71.17
804.131	-68.09
804.311	99.84
804.491	-2.56
804.67	-64
804.85	-33.28
805.03	44.54
805.209	77.31
805.389	-23.04
805.568	-84.48
805.748	-31.23
805.928	13.82
806.107	108.03
806.287	1.54
806.466	67.07
806.646	3.58
806.825	-43.52
807.004	-8.7
807.184	-4.61
807.363	148.99
807.543	-4.61
807.722	-43.52
807.901	161.28
808.081	56.83
808.26	-100.86
808.439	36.35
808.619	34.3
808.798	46.59
808.977	13.82
809.156	114.17
809.336	48.64
809.515	-4.61
809.694	5.63
809.873	-41.47
810.052	30.21
810.231	62.98
810.411	13.82
810.59	65.02
810.769	-33.28
810.948	58.88
811.127	-137.73
811.306	58.88
811.485	-57.86
811.664	208.38
811.843	13.82
812.022	50.69
812.201	95.74
812.38	-37.38
812.559	-72.19
812.737	58.88
812.916	-184.83
813.095	-35.33
813.274	-72.19
813.453	11.78
813.632	67.07
813.811	93.69
813.989	-41.47
814.168	85.5
814.347	-31.23
814.526	-29.18
814.704	71.17
814.883	148.99
815.062	-123.39
815.24	69.12
815.419	13.82
815.598	71.17
815.776	-150.01
815.955	-33.28
816.133	-70.14
816.312	44.54
816.49	-59.9
816.669	-72.19
816.847	-18.94
817.026	5.63
817.204	50.69
817.383	28.16
817.561	-74.24
817.74	36.35
817.918	-2.56
818.097	-47.62
818.275	42.5
818.453	91.65
818.632	26.11
818.81	-0.51
818.988	17.92
819.167	-47.62
819.345	-14.85
819.523	-51.71
819.701	17.92
819.879	52.74
820.058	22.02
820.236	48.64
820.414	48.64
820.592	-18.94
820.77	17.92
820.948	11.78
821.127	-53.76
821.305	-2.56
821.483	-47.62
821.661	118.27
821.839	30.21
822.017	28.16
822.195	-31.23
822.373	112.13
822.551	-45.57
822.729	91.65
822.907	26.11
823.085	67.07
823.262	26.11
823.44	28.16
823.618	-43.52
823.796	54.78
823.974	-47.62
824.152	-29.18
824.329	-47.62
824.507	32.26
824.685	-4.61
824.863	54.78
825.04	3.58
825.218	140.8
825.396	-29.18
825.574	89.6
825.751	24.06
825.929	-2.56
826.107	-68.09
826.284	13.82
826.462	-45.57
826.639	-43.52
826.817	-94.72
826.994	-35.33
827.172	-41.47
827.349	114.17
827.527	-14.85
827.704	-29.18
827.882	91.65
828.059	-12.8
828.237	-41.47
828.414	-39.42
828.591	-135.68
828.769	26.11
828.946	-86.53
829.124	5.63
829.301	101.89
829.478	-35.33
829.655	17.92
829.833	19.97
830.01	-84.48
830.187	15.87
830.364	-20.99
830.542	44.54
830.719	58.88
830.896	-8.7
831.073	24.06
831.25	-12.8
831.427	-4.61
831.604	5.63
831.782	-12.8
831.959	-18.94
832.136	-43.52
832.313	-25.09
832.49	15.87
832.667	99.84
832.844	-98.81
833.021	48.64
833.198	26.11
833.374	13.82
833.551	17.92
833.728	-59.9
833.905	67.07
834.082	-178.69
834.259	24.06
834.436	73.21
834.612	-102.91
834.789	46.59
834.966	9.73
835.143	48.64
835.319	-100.86
835.496	13.82
835.673	28.16
835.85	34.3
836.026	13.82
836.203	65.02
836.38	-31.23
836.556	-92.67
836.733	-37.38
836.909	58.88
837.086	-10.75
837.262	-102.91
837.439	-96.77
837.616	-43.52
837.792	9.73
837.968	28.16
838.145	-125.44
838.321	32.26
838.498	75.26
838.674	52.74
838.851	40.45
839.027	-78.33
839.203	13.82
839.38	1.54
839.556	-72.19
839.732	75.26
839.909	-74.24
840.085	-20.99
840.261	-64
840.437	24.06
840.614	-94.72
840.79	36.35
840.966	40.45
841.142	11.78
841.318	-31.23
841.494	83.45
841.671	58.88
841.847	-127.49
842.023	-84.48
842.199	79.36
842.375	26.11
842.551	-119.29
842.727	-76.29
842.903	130.56
843.079	-88.57
843.255	50.69
843.431	-0.51
843.607	-16.9
843.783	-125.44
843.959	13.82
844.134	-84.48
844.31	101.89
844.486	-107.01
844.662	-29.18
844.838	-4.61
845.013	-27.14
845.189	40.45
845.365	3.58
845.541	-18.94
845.716	5.63
845.892	77.31
846.068	-35.33
846.244	-29.18
846.419	48.64
846.595	-88.57
846.77	-107.01
846.946	155.13
847.122	-45.57
847.297	-76.29
847.473	144.89
847.648	-74.24
847.824	-31.23
847.999	-141.82
848.175	-47.62
848.35	34.3
848.526	85.5
848.701	-4.61
848.876	77.31
849.052	73.21
849.227	44.54
849.403	13.82
849.578	-27.14
849.753	-57.86
849.929	36.35
850.104	-113.15
850.279	-18.94
850.454	-16.9
850.63	26.11
850.805	1.54
850.98	-64
851.155	-31.23
851.33	-45.57
851.505	-100.86
851.681	87.55
851.856	-156.16
852.031	34.3
852.206	97.79
852.381	-125.44
852.556	32.26
852.731	13.82
852.906	22.02
853.081	3.58
853.256	101.89
853.431	-47.62
853.606	-35.33
853.781	-80.38
853.956	-143.87
854.131	9.73
854.305	-94.72
854.48	-18.94
854.655	-31.23
854.83	-49.66
855.005	-31.23
855.18	42.5
855.354	-68.09
855.529	-10.75
855.704	3.58
855.879	3.58
856.053	-100.86
856.228	52.74
856.403	-92.67
856.577	9.73
856.752	-2.56
856.926	-10.75
857.101	-33.28
857.276	-47.62
857.45	-55.81
857.625	19.97
857.799	24.06
857.974	9.73
858.148	-168.45
858.323	7.68
858.497	-23.04
858.672	-23.04
858.846	-72.19
859.02	24.06
859.195	-104.96
859.369	26.11
859.543	-29.18
859.718	-0.51
859.892	69.12
860.066	-76.29
860.241	-55.81
860.415	-84.48
860.589	-131.58
860.763	-72.19
860.938	-35.33
861.112	77.31
861.286	-18.94
861.46	22.02
861.634	-115.2
861.808	58.88
861.982	-33.28
862.157	-86.53
862.331	-55.81
862.505	-37.38
862.679	-131.58
862.853	-82.43
863.027	-100.86
863.201	200.19
863.375	3.58
863.549	-14.85
863.722	-33.28
863.896	34.3
864.07	-92.67
864.244	-6.66
864.418	1.54
864.592	36.35
864.766	30.21
864.939	-23.04
865.113	-47.62
865.287	38.4
865.461	-123.39
865.634	7.68
865.808	-37.38
865.982	-72.19
866.156	-23.04
866.329	-137.73
866.503	19.97
866.676	79.36
866.85	13.82
867.024	1.54
867.197	5.63
867.371	38.4
867.544	42.5
867.718	-49.66
867.891	120.32
868.065	-86.53
868.238	-39.42
868.412	54.78
868.585	26.11
868.759	-12.8
868.932	42.5
869.105	-98.81
869.279	-27.14
869.452	-162.3
869.625	9.73
869.799	-6.66
869.972	-152.06
870.145	-25.09
870.319	-8.7
870.492	-64
870.665	15.87
870.838	-47.62
871.011	-104.96
871.185	-16.9
871.358	5.63
871.531	24.06
871.704	13.82
871.877	22.02
872.05	-2.56
872.223	-135.68
872.396	9.73
872.569	1.54
872.742	-90.62
872.915	-31.23
873.088	-25.09
873.261	-84.48
873.434	105.98
873.607	1.54
873.78	60.93
873.953	-150.01
874.126	22.02
874.299	50.69
874.471	-72.19
874.644	11.78
874.817	3.58
874.99	87.55
875.163	-92.67
875.335	22.02
875.508	3.58
875.681	183.81
875.853	-158.21
876.026	11.78
876.199	-6.66
876.371	-18.94
876.544	-117.25
876.717	28.16
876.889	-39.42
877.062	9.73
877.234	-47.62
877.407	-41.47
877.579	34.3
877.752	-14.85
877.924	22.02
878.097	32.26
878.269	46.59
878.442	-78.33
878.614	19.97
878.786	-8.7
878.959	19.97
879.131	-16.9
879.303	-168.45
879.476	-2.56
879.648	105.98
879.82	-20.99
879.993	-98.81
880.165	-31.23
880.337	-141.82
880.509	30.21
880.681	-115.2
880.854	-135.68
881.026	99.84
881.198	118.27
881.37	-59.9
881.542	15.87
881.714	-37.38
881.886	-66.05
882.058	1.54
882.23	67.07
882.402	-84.48
882.574	7.68
882.746	15.87
882.918	132.61
883.09	-27.14
883.262	-61.95
883.434	-68.09
883.606	-133.63
883.778	-55.81
883.95	77.31
884.122	-39.42
884.293	-14.85
884.465	17.92
884.637	116.22
884.809	-84.48
884.98	5.63
885.152	-14.85
885.324	73.21
885.496	-78.33
885.667	11.78
885.839	-41.47
886.011	38.4
886.182	24.06
886.354	19.97
886.525	-35.33
886.697	-6.66
886.869	-88.57
887.04	62.98
887.212	65.02
887.383	50.69
887.555	26.11
887.726	-39.42
887.897	-82.43
888.069	-37.38
888.24	52.74
888.412	-2.56
888.583	-18.94
888.754	-49.66
888.926	-111.1
889.097	-45.57
889.268	-123.39
889.44	28.16
889.611	-66.05
889.782	-121.34
889.953	-107.01
890.125	93.69
890.296	-49.66
890.467	11.78
890.638	-37.38
890.809	-8.7
890.98	-74.24
891.151	38.4
891.323	48.64
891.494	-57.86
891.665	26.11
891.836	-4.61
892.007	-76.29
892.178	28.16
892.349	1.54
892.52	-33.28
892.691	62.98
892.862	-53.76
893.032	-125.44
893.203	-94.72
893.374	-33.28
893.545	5.63
893.716	-18.94
893.887	46.59
894.057	-6.66
894.228	-45.57
894.399	-117.25
894.57	101.89
894.74	-37.38
894.911	1.54
895.082	-70.14
895.253	-98.81
895.423	17.92
895.594	-68.09
895.764	91.65
895.935	-59.9
896.106	-12.8
896.276	-0.51
896.447	-41.47
896.617	-90.62
896.788	-47.62
896.958	-8.7
897.129	-82.43
897.299	9.73
897.47	73.21
897.64	69.12
897.81	13.82
897.981	30.21
898.151	-53.76
898.322	-43.52
898.492	48.64
898.662	-156.16
898.832	-39.42
899.003	-23.04
899.173	28.16
899.343	-70.14
899.513	-55.81
