Data from USB4F104151__24__11-24-46-405.txt Node

Date: Wed Feb 26 11:24:46 EST 2025
User: louis
Spectrometer: USB4F10415
Trigger mode: 4
Integration Time (sec): 1.000000E-1
Scans to average: 1
Electric dark correction enabled: true
Nonlinearity correction enabled: false
Boxcar width: 0
XAxis mode: Wavelengths
Number of Pixels in Spectrum: 3648
>>>>>Begin Spectral Data<<<<<
178.204	-426.49
178.424	-426.49
178.644	-426.49
178.864	-446.97
179.084	-328.19
179.304	-4.61
179.524	-4.61
179.744	-23.04
179.964	87.55
180.184	-6.66
180.404	46.59
180.624	-117.25
180.844	3.58
181.064	-90.62
181.283	42.5
181.503	-2.56
181.723	69.12
181.943	-55.81
182.163	187.9
182.383	-18.94
182.602	89.6
182.822	118.27
183.042	103.93
183.262	9.73
183.482	-59.9
183.701	58.88
183.921	52.74
184.141	-35.33
184.361	54.78
184.58	81.41
184.8	30.21
185.02	-33.28
185.239	97.79
185.459	85.5
185.679	159.23
185.898	-27.14
186.118	58.88
186.338	46.59
186.557	173.57
186.777	-29.18
186.997	-35.33
187.216	-64
187.436	48.64
187.655	122.37
187.875	153.09
188.095	-33.28
188.314	87.55
188.534	48.64
188.753	-47.62
188.973	50.69
189.192	103.93
189.412	-31.23
189.631	44.54
189.851	89.6
190.07	243.2
190.29	9.73
190.509	-14.85
190.729	5.63
190.948	34.3
191.168	241.15
191.387	5.63
191.607	30.21
191.826	-2.56
192.045	19.97
192.265	95.74
192.484	69.12
192.704	44.54
192.923	-158.21
193.142	189.95
193.362	91.65
193.581	93.69
193.8	69.12
194.02	38.4
194.239	28.16
194.458	52.74
194.678	28.16
194.897	-14.85
195.116	1.54
195.335	9.73
195.555	58.88
195.774	-4.61
195.993	85.5
196.212	-33.28
196.432	-45.57
196.651	-4.61
196.87	11.78
197.089	183.81
197.308	73.21
197.528	1.54
197.747	-55.81
197.966	15.87
198.185	93.69
198.404	-41.47
198.623	101.89
198.842	73.21
199.062	11.78
199.281	134.65
199.5	126.46
199.719	142.85
199.938	7.68
200.157	120.32
200.376	108.03
200.595	95.74
200.814	77.31
201.033	17.92
201.252	169.47
201.471	-16.9
201.69	69.12
201.909	62.98
202.128	75.26
202.347	60.93
202.566	32.26
202.785	-20.99
203.004	7.68
203.223	316.92
203.442	-0.51
203.661	-31.23
203.879	22.02
204.098	163.33
204.317	7.68
204.536	112.13
204.755	165.37
204.974	108.03
205.193	32.26
205.411	183.81
205.63	155.13
205.849	101.89
206.068	-0.51
206.287	-47.62
206.505	140.8
206.724	3.58
206.943	-20.99
207.162	1.54
207.381	62.98
207.599	15.87
207.818	3.58
208.037	28.16
208.255	79.36
208.474	93.69
208.693	15.87
208.911	-53.76
209.13	71.17
209.349	62.98
209.567	75.26
209.786	44.54
210.005	89.6
210.223	26.11
210.442	-123.39
210.661	50.69
210.879	62.98
211.098	19.97
211.316	-8.7
211.535	87.55
211.753	42.5
211.972	132.61
212.191	-64
212.409	5.63
212.628	58.88
212.846	-59.9
213.065	13.82
213.283	73.21
213.502	-16.9
213.72	15.87
213.938	-35.33
214.157	-31.23
214.375	144.89
214.594	-18.94
214.812	83.45
215.031	-4.61
215.249	-33.28
215.467	-8.7
215.686	7.68
215.904	69.12
216.122	36.35
216.341	85.5
216.559	62.98
216.778	126.46
216.996	142.85
217.214	3.58
217.432	60.93
217.651	-43.52
217.869	36.35
218.087	54.78
218.306	22.02
218.524	28.16
218.742	36.35
218.96	58.88
219.179	83.45
219.397	3.58
219.615	259.58
219.833	105.98
220.051	-39.42
220.27	44.54
220.488	67.07
220.706	93.69
220.924	-27.14
221.142	-47.62
221.36	42.5
221.578	11.78
221.796	-18.94
222.015	-29.18
222.233	87.55
222.451	134.65
222.669	5.63
222.887	79.36
223.105	-12.8
223.323	17.92
223.541	-23.04
223.759	58.88
223.977	24.06
224.195	132.61
224.413	40.45
224.631	-18.94
224.849	71.17
225.067	185.85
225.285	62.98
225.503	-49.66
225.721	-74.24
225.939	116.22
226.157	60.93
226.375	208.38
226.592	22.02
226.81	3.58
227.028	-0.51
227.246	108.03
227.464	30.21
227.682	151.04
227.9	144.89
228.117	42.5
228.335	75.26
228.553	69.12
228.771	32.26
228.989	60.93
229.206	52.74
229.424	32.26
229.642	38.4
229.86	-37.38
230.077	118.27
230.295	19.97
230.513	54.78
230.731	32.26
230.948	196.09
231.166	165.37
231.384	-12.8
231.601	28.16
231.819	169.47
232.037	44.54
232.254	-102.91
232.472	28.16
232.689	-18.94
232.907	97.79
233.125	22.02
233.342	-12.8
233.56	3.58
233.777	11.78
233.995	-113.15
234.213	110.08
234.43	136.7
234.648	97.79
234.865	-4.61
235.083	89.6
235.3	-0.51
235.518	69.12
235.735	151.04
235.953	32.26
236.17	-80.38
236.388	46.59
236.605	73.21
236.822	85.5
237.04	134.65
237.257	97.79
237.475	-29.18
237.692	54.78
237.909	24.06
238.127	-14.85
238.344	87.55
238.562	28.16
238.779	-90.62
238.996	42.5
239.214	101.89
239.431	62.98
239.648	-41.47
239.865	32.26
240.083	56.83
240.3	-33.28
240.517	-4.61
240.735	44.54
240.952	116.22
241.169	93.69
241.386	108.03
241.603	30.21
241.821	9.73
242.038	122.37
242.255	118.27
242.472	-92.67
242.689	54.78
242.907	11.78
243.124	-43.52
243.341	40.45
243.558	-35.33
243.775	-86.53
243.992	-76.29
244.209	58.88
244.426	179.71
244.643	36.35
244.86	13.82
245.078	83.45
245.295	54.78
245.512	-2.56
245.729	-41.47
245.946	155.13
246.163	89.6
246.38	7.68
246.597	50.69
246.814	22.02
247.031	77.31
247.248	-20.99
247.464	126.46
247.681	93.69
247.898	136.7
248.115	97.79
248.332	-143.87
248.549	87.55
248.766	189.95
248.983	97.79
249.2	30.21
249.417	-33.28
249.633	34.3
249.85	38.4
250.067	13.82
250.284	-6.66
250.501	97.79
250.717	42.5
250.934	-8.7
251.151	54.78
251.368	26.11
251.585	71.17
251.801	40.45
252.018	-8.7
252.235	50.69
252.451	-29.18
252.668	-16.9
252.885	148.99
253.102	22.02
253.318	19.97
253.535	5.63
253.752	1.54
253.968	-33.28
254.185	-78.33
254.401	69.12
254.618	-43.52
254.835	13.82
255.051	181.76
255.268	32.26
255.484	93.69
255.701	3.58
255.917	28.16
256.134	26.11
256.351	60.93
256.567	-55.81
256.784	40.45
257	-53.76
257.217	42.5
257.433	87.55
257.65	48.64
257.866	144.89
258.082	-39.42
258.299	11.78
258.515	95.74
258.732	83.45
258.948	-43.52
259.165	124.41
259.381	-109.05
259.597	30.21
259.814	58.88
260.03	7.68
260.246	36.35
260.463	91.65
260.679	65.02
260.895	81.41
261.112	62.98
261.328	9.73
261.544	-78.33
261.761	114.17
261.977	-55.81
262.193	-88.57
262.409	26.11
262.626	50.69
262.842	22.02
263.058	-14.85
263.274	19.97
263.49	13.82
263.707	108.03
263.923	132.61
264.139	-39.42
264.355	54.78
264.571	101.89
264.787	32.26
265.004	58.88
265.22	54.78
265.436	42.5
265.652	-12.8
265.868	97.79
266.084	-35.33
266.3	71.17
266.516	-59.9
266.732	101.89
266.948	50.69
267.164	7.68
267.38	167.42
267.596	95.74
267.812	183.81
268.028	34.3
268.244	19.97
268.46	65.02
268.676	-31.23
268.892	19.97
269.108	-90.62
269.324	-0.51
269.54	-27.14
269.756	146.94
269.972	-49.66
270.188	11.78
270.403	-51.71
270.619	7.68
270.835	103.93
271.051	54.78
271.267	-29.18
271.483	24.06
271.698	52.74
271.914	161.28
272.13	-14.85
272.346	17.92
272.562	22.02
272.777	173.57
272.993	24.06
273.209	50.69
273.425	83.45
273.64	-64
273.856	54.78
274.072	1.54
274.287	-51.71
274.503	93.69
274.719	97.79
274.934	19.97
275.15	-29.18
275.366	56.83
275.581	9.73
275.797	9.73
276.012	36.35
276.228	26.11
276.444	1.54
276.659	126.46
276.875	-55.81
277.09	22.02
277.306	24.06
277.521	-29.18
277.737	85.5
277.952	122.37
278.168	136.7
278.383	50.69
278.599	24.06
278.814	75.26
279.03	34.3
279.245	136.7
279.461	24.06
279.676	103.93
279.892	-61.95
280.107	-35.33
280.322	-109.05
280.538	26.11
280.753	9.73
280.969	48.64
281.184	36.35
281.399	116.22
281.615	34.3
281.83	77.31
282.045	-20.99
282.26	-10.75
282.476	1.54
282.691	56.83
282.906	120.32
283.122	77.31
283.337	36.35
283.552	-0.51
283.767	19.97
283.983	69.12
284.198	62.98
284.413	65.02
284.628	-37.38
284.843	1.54
285.058	159.23
285.274	34.3
285.489	-55.81
285.704	81.41
285.919	-37.38
286.134	-45.57
286.349	58.88
286.564	-76.29
286.779	159.23
286.995	-25.09
287.21	-41.47
287.425	50.69
287.64	7.68
287.855	19.97
288.07	-41.47
288.285	58.88
288.5	124.41
288.715	110.08
288.93	11.78
289.145	-45.57
289.36	122.37
289.575	34.3
289.79	144.89
290.004	1.54
290.219	101.89
290.434	13.82
290.649	-16.9
290.864	44.54
291.079	1.54
291.294	42.5
291.509	40.45
291.724	30.21
291.938	13.82
292.153	79.36
292.368	3.58
292.583	69.12
292.798	155.13
293.012	15.87
293.227	81.41
293.442	-49.66
293.657	93.69
293.871	157.18
294.086	99.84
294.301	132.61
294.516	69.12
294.73	69.12
294.945	-33.28
295.16	-31.23
295.374	148.99
295.589	161.28
295.804	9.73
296.018	50.69
296.233	132.61
296.447	103.93
296.662	28.16
296.877	148.99
297.091	40.45
297.306	-10.75
297.52	-37.38
297.735	34.3
297.949	28.16
298.164	58.88
298.378	110.08
298.593	-49.66
298.807	-14.85
299.022	56.83
299.236	65.02
299.451	5.63
299.665	44.54
299.88	50.69
300.094	54.78
300.309	101.89
300.523	-12.8
300.737	65.02
300.952	50.69
301.166	114.17
301.381	-49.66
301.595	9.73
301.809	48.64
302.024	-12.8
302.238	-27.14
302.452	108.03
302.667	22.02
302.881	83.45
303.095	34.3
303.309	87.55
303.524	-49.66
303.738	-2.56
303.952	32.26
304.166	118.27
304.381	-59.9
304.595	187.9
304.809	7.68
305.023	5.63
305.237	32.26
305.452	40.45
305.666	54.78
305.88	5.63
306.094	130.56
306.308	60.93
306.522	62.98
306.736	50.69
306.95	110.08
307.164	44.54
307.379	77.31
307.593	128.51
307.807	116.22
308.021	105.98
308.235	67.07
308.449	-86.53
308.663	77.31
308.877	228.86
309.091	48.64
309.305	134.65
309.519	-59.9
309.733	189.95
309.947	-10.75
310.161	32.26
310.374	69.12
310.588	159.23
310.802	-20.99
311.016	5.63
311.23	58.88
311.444	-78.33
311.658	81.41
311.872	208.38
312.085	32.26
312.299	122.37
312.513	171.52
312.727	48.64
312.941	-8.7
313.154	99.84
313.368	52.74
313.582	17.92
313.796	1.54
314.009	-16.9
314.223	118.27
314.437	52.74
314.651	130.56
314.864	-25.09
315.078	5.63
315.292	-6.66
315.505	17.92
315.719	77.31
315.933	67.07
316.146	-2.56
316.36	22.02
316.573	173.57
316.787	62.98
317.001	116.22
317.214	-80.38
317.428	17.92
317.641	-29.18
317.855	-27.14
318.068	30.21
318.282	46.59
318.495	103.93
318.709	44.54
318.922	42.5
319.136	114.17
319.349	99.84
319.563	7.68
319.776	97.79
319.99	-92.67
320.203	34.3
320.417	-12.8
320.63	60.93
320.843	245.24
321.057	54.78
321.27	17.92
321.483	73.21
321.697	155.13
321.91	56.83
322.124	36.35
322.337	9.73
322.55	-18.94
322.763	58.88
322.977	-0.51
323.19	5.63
323.403	-14.85
323.617	56.83
323.83	58.88
324.043	-20.99
324.256	42.5
324.469	-70.14
324.683	-8.7
324.896	11.78
325.109	-49.66
325.322	-45.57
325.535	28.16
325.748	93.69
325.962	24.06
326.175	81.41
326.388	124.41
326.601	151.04
326.814	7.68
327.027	77.31
327.24	118.27
327.453	-102.91
327.666	103.93
327.879	110.08
328.092	34.3
328.305	91.65
328.518	-51.71
328.731	-76.29
328.944	48.64
329.157	114.17
329.37	-49.66
329.583	192
329.796	126.46
330.009	22.02
330.222	79.36
330.435	77.31
330.648	62.98
330.861	46.59
331.073	5.63
331.286	83.45
331.499	99.84
331.712	24.06
331.925	36.35
332.138	62.98
332.35	108.03
332.563	-27.14
332.776	183.81
332.989	-64
333.202	42.5
333.414	30.21
333.627	54.78
333.84	56.83
334.053	71.17
334.265	-37.38
334.478	-72.19
334.691	-4.61
334.903	73.21
335.116	-31.23
335.329	44.54
335.541	40.45
335.754	134.65
335.966	-20.99
336.179	42.5
336.392	-66.05
336.604	81.41
336.817	148.99
337.029	60.93
337.242	-23.04
337.454	67.07
337.667	22.02
337.88	126.46
338.092	105.98
338.305	83.45
338.517	-0.51
338.729	69.12
338.942	128.51
339.154	22.02
339.367	-27.14
339.579	138.75
339.792	-14.85
340.004	75.26
340.217	-12.8
340.429	87.55
340.641	52.74
340.854	-29.18
341.066	-31.23
341.278	69.12
341.491	208.38
341.703	103.93
341.915	69.12
342.128	185.85
342.34	9.73
342.552	38.4
342.764	22.02
342.977	65.02
343.189	83.45
343.401	-8.7
343.613	-57.86
343.826	-49.66
344.038	11.78
344.25	95.74
344.462	19.97
344.674	3.58
344.886	-6.66
345.099	69.12
345.311	187.9
345.523	28.16
345.735	-80.38
345.947	26.11
346.159	26.11
346.371	-43.52
346.583	-33.28
346.795	167.42
347.007	54.78
347.219	36.35
347.431	7.68
347.643	112.13
347.855	1.54
348.067	140.8
348.279	-49.66
348.491	-14.85
348.703	110.08
348.915	-74.24
349.127	-29.18
349.339	15.87
349.551	-18.94
349.763	42.5
349.975	15.87
350.187	11.78
350.399	128.51
350.61	79.36
350.822	-25.09
351.034	24.06
351.246	38.4
351.458	58.88
351.669	87.55
351.881	58.88
352.093	83.45
352.305	136.7
352.517	62.98
352.728	124.41
352.94	48.64
353.152	19.97
353.363	-53.76
353.575	36.35
353.787	181.76
353.999	28.16
354.21	177.66
354.422	-49.66
354.633	36.35
354.845	105.98
355.057	44.54
355.268	89.6
355.48	198.14
355.692	-35.33
355.903	36.35
356.115	-2.56
356.326	-66.05
356.538	175.61
356.749	67.07
356.961	138.75
357.172	36.35
357.384	-53.76
357.595	214.52
357.807	-39.42
358.018	9.73
358.23	-35.33
358.441	140.8
358.653	93.69
358.864	24.06
359.075	-61.95
359.287	44.54
359.498	110.08
359.709	65.02
359.921	19.97
360.132	11.78
360.344	15.87
360.555	19.97
360.766	-12.8
360.977	1.54
361.189	118.27
361.4	3.58
361.611	89.6
361.823	99.84
362.034	40.45
362.245	-4.61
362.456	40.45
362.667	112.13
362.879	-80.38
363.09	54.78
363.301	144.89
363.512	95.74
363.723	-64
363.935	-16.9
364.146	108.03
364.357	15.87
364.568	40.45
364.779	-18.94
364.99	116.22
365.201	13.82
365.412	124.41
365.623	-35.33
365.834	89.6
366.045	-25.09
366.256	38.4
366.467	67.07
366.678	11.78
366.889	-6.66
367.1	13.82
367.311	108.03
367.522	-53.76
367.733	83.45
367.944	105.98
368.155	7.68
368.366	103.93
368.577	103.93
368.788	79.36
368.999	13.82
369.209	28.16
369.42	148.99
369.631	204.28
369.842	-31.23
370.053	40.45
370.264	130.56
370.474	-43.52
370.685	36.35
370.896	-10.75
371.107	151.04
371.317	60.93
371.528	44.54
371.739	110.08
371.95	140.8
372.16	50.69
372.371	-64
372.582	-53.76
372.792	73.21
373.003	28.16
373.214	22.02
373.424	65.02
373.635	-14.85
373.846	128.51
374.056	3.58
374.267	95.74
374.477	81.41
374.688	-2.56
374.898	-6.66
375.109	69.12
375.319	50.69
375.53	75.26
375.74	126.46
375.951	19.97
376.161	40.45
376.372	124.41
376.582	22.02
376.793	36.35
377.003	-43.52
377.214	62.98
377.424	177.66
377.635	79.36
377.845	-27.14
378.055	134.65
378.266	-84.48
378.476	118.27
378.686	69.12
378.897	87.55
379.107	136.7
379.317	89.6
379.528	-10.75
379.738	44.54
379.948	-49.66
380.158	97.79
380.369	58.88
380.579	54.78
380.789	69.12
380.999	122.37
381.21	56.83
381.42	112.13
381.63	77.31
381.84	42.5
382.05	79.36
382.261	198.14
382.471	118.27
382.681	-37.38
382.891	230.91
383.101	144.89
383.311	-14.85
383.521	-39.42
383.731	65.02
383.941	97.79
384.151	83.45
384.361	114.17
384.571	-53.76
384.781	54.78
384.991	206.33
385.201	179.71
385.411	103.93
385.621	136.7
385.831	15.87
386.041	58.88
386.251	48.64
386.461	101.89
386.671	101.89
386.881	60.93
387.091	83.45
387.301	114.17
387.511	15.87
387.72	67.07
387.93	48.64
388.14	-70.14
388.35	116.22
388.56	110.08
388.769	114.17
388.979	19.97
389.189	15.87
389.399	44.54
389.609	91.65
389.818	114.17
390.028	24.06
390.238	79.36
390.447	-14.85
390.657	130.56
390.867	52.74
391.076	1.54
391.286	7.68
391.496	60.93
391.705	44.54
391.915	75.26
392.125	114.17
392.334	54.78
392.544	87.55
392.753	19.97
392.963	-23.04
393.172	110.08
393.382	-53.76
393.591	181.76
393.801	-51.71
394.01	216.57
394.22	99.84
394.429	89.6
394.639	32.26
394.848	65.02
395.058	19.97
395.267	26.11
395.477	11.78
395.686	62.98
395.895	228.86
396.105	130.56
396.314	36.35
396.524	24.06
396.733	11.78
396.942	126.46
397.152	87.55
397.361	22.02
397.57	116.22
397.78	-0.51
397.989	118.27
398.198	192
398.407	-2.56
398.617	58.88
398.826	50.69
399.035	-14.85
399.244	89.6
399.453	-29.18
399.663	77.31
399.872	48.64
400.081	-88.57
400.29	114.17
400.499	-39.42
400.708	159.23
400.917	32.26
401.127	26.11
401.336	71.17
401.545	204.28
401.754	183.81
401.963	62.98
402.172	-18.94
402.381	-37.38
402.59	30.21
402.799	73.21
403.008	28.16
403.217	62.98
403.426	83.45
403.635	-0.51
403.844	-4.61
404.053	38.4
404.262	32.26
404.471	171.52
404.68	93.69
404.888	40.45
405.097	22.02
405.306	91.65
405.515	103.93
405.724	3.58
405.933	65.02
406.142	26.11
406.35	114.17
406.559	91.65
406.768	79.36
406.977	192
407.185	62.98
407.394	22.02
407.603	24.06
407.812	77.31
408.02	146.94
408.229	9.73
408.438	24.06
408.646	-135.68
408.855	40.45
409.064	56.83
409.272	87.55
409.481	108.03
409.69	-4.61
409.898	-23.04
410.107	-8.7
410.315	128.51
410.524	40.45
410.733	38.4
410.941	42.5
411.15	83.45
411.358	110.08
411.567	173.57
411.775	101.89
411.984	22.02
412.192	108.03
412.401	-33.28
412.609	112.13
412.818	204.28
413.026	-23.04
413.234	-23.04
413.443	101.89
413.651	-102.91
413.86	79.36
414.068	132.61
414.276	130.56
414.485	48.64
414.693	138.75
414.901	183.81
415.11	81.41
415.318	24.06
415.526	11.78
415.734	5.63
415.943	142.85
416.151	120.32
416.359	34.3
416.567	99.84
416.776	79.36
416.984	77.31
417.192	210.43
417.4	-41.47
417.608	-33.28
417.817	17.92
418.025	120.32
418.233	157.18
418.441	-10.75
418.649	-4.61
418.857	38.4
419.065	130.56
419.273	-18.94
419.481	110.08
419.689	44.54
419.897	24.06
420.105	-6.66
420.313	85.5
420.521	103.93
420.729	130.56
420.937	11.78
421.145	-55.81
421.353	101.89
421.561	101.89
421.769	52.74
421.977	32.26
422.185	81.41
422.393	30.21
422.601	124.41
422.809	81.41
423.017	19.97
423.224	114.17
423.432	165.37
423.64	52.74
423.848	148.99
424.056	-43.52
424.263	81.41
424.471	-8.7
424.679	110.08
424.887	-70.14
425.094	134.65
425.302	103.93
425.51	122.37
425.718	97.79
425.925	48.64
426.133	-0.51
426.341	142.85
426.548	46.59
426.756	58.88
426.964	122.37
427.171	19.97
427.379	56.83
427.586	89.6
427.794	67.07
428.001	77.31
428.209	62.98
428.417	192
428.624	108.03
428.832	138.75
429.039	36.35
429.247	155.13
429.454	108.03
429.662	138.75
429.869	75.26
430.076	196.09
430.284	79.36
430.491	185.85
430.699	69.12
430.906	183.81
431.114	128.51
431.321	108.03
431.528	28.16
431.736	71.17
431.943	103.93
432.15	87.55
432.358	165.37
432.565	224.76
432.772	-8.7
432.979	169.47
433.187	108.03
433.394	155.13
433.601	83.45
433.808	175.61
434.016	171.52
434.223	194.05
434.43	138.75
434.637	126.46
434.844	192
435.052	112.13
435.259	251.39
435.466	230.91
435.673	110.08
435.88	196.09
436.087	251.39
436.294	232.96
436.501	165.37
436.708	278.01
436.915	183.81
437.122	364.03
437.329	148.99
437.537	220.67
437.743	257.53
437.95	351.74
438.157	302.59
438.364	376.31
438.571	337.4
438.778	341.5
438.985	278.01
439.192	351.74
439.399	308.73
439.606	306.68
439.813	398.84
440.02	509.43
440.227	536.06
440.433	343.55
440.64	454.14
440.847	271.87
441.054	402.94
441.261	640.5
441.467	493.05
441.674	366.07
441.881	536.06
442.088	491
442.294	577.02
442.501	556.54
442.708	718.33
442.914	529.91
443.121	577.02
443.328	654.84
443.534	648.69
443.741	656.89
443.948	617.97
444.154	708.09
444.361	759.28
444.568	767.48
444.774	703.99
444.981	579.06
445.187	839.16
445.394	843.25
445.6	755.19
445.807	927.22
446.013	882.16
446.22	968.18
446.426	945.65
446.633	1066.48
446.839	1172.97
447.046	949.75
447.252	1236.46
447.459	1066.48
447.665	1093.1
447.871	1213.93
448.078	1295.85
448.284	1367.53
448.491	1340.91
448.697	1412.59
448.903	1445.35
449.11	1562.09
449.316	1441.26
449.522	1783.27
449.728	1752.55
449.935	1789.41
450.141	1750.5
450.347	1996.26
450.553	1795.56
450.76	1910.24
450.966	1951.2
451.172	2026.98
451.378	2166.24
451.584	2133.47
451.791	2297.31
451.997	2438.62
452.203	2448.86
452.409	2745.81
452.615	2723.29
452.821	2713.05
453.027	2629.08
453.233	2997.71
453.44	2999.76
453.646	2997.71
453.852	3311.05
454.058	3399.12
454.264	3319.25
454.47	3726.79
454.676	3644.87
454.882	4062.66
455.088	3755.46
455.294	4031.94
455.5	4232.64
455.705	4679.1
455.911	4527.55
456.117	4607.42
456.323	4830.65
456.529	4963.76
456.735	5086.64
456.941	5287.34
457.147	5705.13
457.352	5856.68
457.558	5758.38
457.764	6409.63
457.97	6458.78
458.176	6669.72
458.381	6835.61
458.587	7228.82
458.793	7538.06
458.999	7476.62
459.204	8371.58
459.41	8633.72
459.616	8582.53
459.821	8998.26
460.027	9332.08
460.233	9880.94
460.438	9897.32
460.644	10444.13
460.85	10513.76
461.055	11169.11
461.261	11662.67
461.466	11359.57
461.672	11361.62
461.878	12954.94
462.083	12731.71
462.289	12913.98
462.494	13208.89
462.7	13665.58
462.905	13753.65
463.111	15056.15
463.316	15648.02
463.522	16004.36
463.727	16434.44
463.932	17042.68
464.138	17810.67
464.343	18506.98
464.549	18431.21
464.754	19801.3
464.959	20286.67
465.165	20772.04
465.37	20317.39
465.575	20663.49
465.781	21933.23
465.986	22477.99
466.191	22498.47
466.397	22604.97
466.602	22027.44
466.807	22912.16
467.012	23465.11
467.218	24022.16
467.423	24122.51
467.628	24970.37
467.833	26004.6
468.038	25443.45
468.244	24974.47
468.449	26496.11
468.654	26082.42
468.859	25930.87
469.064	25838.71
469.269	25128.06
469.474	25590.91
469.679	26176.62
469.885	25404.54
470.09	25941.11
470.295	25883.77
470.5	25238.65
470.705	25781.37
470.91	24982.66
471.115	24554.63
471.32	25158.78
471.525	24843.4
471.73	24157.33
471.935	23868.56
472.139	23180.45
472.344	23309.47
472.549	22916.26
472.754	22271.15
472.959	22299.82
473.164	21103.81
473.369	20993.22
473.574	21505.21
473.778	21146.81
473.983	20739.27
474.188	20315.34
474.393	19436.76
474.598	19367.13
474.802	18918.62
475.007	18537.7
475.212	18656.48
475.417	17790.19
475.621	17775.86
475.826	17456.37
476.031	17122.55
476.235	16717.06
476.44	16678.15
476.645	16209.16
476.849	15979.79
477.054	15701.26
477.259	15494.42
477.463	15660.31
477.668	15082.78
477.872	14851.36
478.077	14621.98
478.282	13882.67
478.486	14064.94
478.691	13587.76
478.895	13737.26
479.1	13655.34
479.304	13688.11
479.509	13141.3
479.713	13505.84
479.918	13094.2
480.122	12619.07
480.326	12860.73
480.531	12735.81
480.735	12727.61
480.94	12424.51
481.144	12703.04
481.348	12092.74
481.553	12008.78
481.757	12041.54
481.961	11896.14
482.166	12002.63
482.37	12131.65
482.574	11425.11
482.778	11679.05
482.983	11863.37
483.187	11576.66
483.391	11375.95
483.595	11314.52
483.8	11320.66
484.004	11142.49
484.208	11009.37
484.412	10841.43
484.616	10857.82
484.821	10884.44
485.025	10444.13
485.229	10427.74
485.433	10456.42
485.637	10116.45
485.841	10089.83
486.045	10022.25
486.249	9872.75
486.453	9530.73
486.657	9641.32
486.861	9239.92
487.065	9244.02
487.269	9151.86
487.473	8742.27
487.677	8852.86
487.881	8957.3
488.085	8410.5
488.289	8426.88
488.493	8209.79
488.697	8424.83
488.901	8134.02
489.105	7863.69
489.309	7740.81
489.512	7693.71
489.716	7544.2
489.92	7261.59
490.124	7347.6
490.328	7255.44
490.531	6882.71
490.735	6993.3
490.939	6415.77
491.143	6518.17
491.346	6337.95
491.55	6632.86
491.754	6208.93
491.958	6456.73
492.161	6034.85
492.365	5948.84
492.569	5920.17
492.772	5967.27
492.976	5754.28
493.18	5731.75
493.383	5729.7
493.587	5596.59
493.79	5553.58
493.994	5447.08
494.197	5217.71
494.401	5369.26
494.605	5350.83
494.808	5283.25
495.012	5178.8
495.215	5164.47
495.419	5197.23
495.622	4957.62
495.825	5092.79
496.029	4998.58
496.232	5129.65
496.436	4963.76
496.639	5115.31
496.843	4885.94
497.046	4933.04
497.249	5006.77
497.453	4961.72
497.656	4957.62
497.859	4949.43
498.063	5168.56
498.266	5066.16
498.469	4931
498.673	4814.26
498.876	5004.72
499.079	5074.35
499.282	4974
499.485	5279.15
499.689	4994.48
499.892	5193.14
500.095	5037.49
500.298	5230
500.501	5012.92
500.705	5381.55
500.908	5254.58
501.111	5354.93
501.314	5477.8
501.517	5588.39
501.72	5504.43
501.923	5580.2
502.126	5590.44
502.329	5791.14
502.532	5838.25
502.735	5596.59
502.938	5780.9
503.141	5952.93
503.344	5823.91
503.547	6043.04
503.75	5979.56
503.953	6159.78
504.156	6348.19
504.359	6333.86
504.562	6499.74
504.765	6569.37
504.968	6772.12
505.17	6749.59
505.373	6823.32
505.576	6892.95
505.779	6909.33
505.982	6976.92
506.185	7351.7
506.387	7421.33
506.59	7587.21
506.793	7724.43
506.996	7755.15
507.198	8023.43
507.401	8048.01
507.604	8039.81
507.807	8535.42
508.009	8594.81
508.212	8789.37
508.415	9063.8
508.617	9244.02
508.82	9260.4
509.022	9432.43
509.225	9663.85
509.428	9790.83
509.63	10007.91
509.833	10118.5
510.035	10722.65
510.238	10634.59
510.44	10868.06
510.643	11275.6
510.845	11556.18
511.048	11623.76
511.25	11720.01
511.453	12137.8
511.655	12739.9
511.858	12879.16
512.06	12963.13
512.262	13368.63
512.465	13333.81
512.667	13917.48
512.87	14179.62
513.072	14347.56
513.274	15072.54
513.477	15000.86
513.679	15519
513.881	15977.74
514.084	16282.89
514.286	16448.77
514.488	16827.65
514.69	17550.58
514.893	17923.31
515.095	17857.78
515.297	18541.8
515.499	18732.26
515.701	19018.97
515.904	19834.07
516.106	20395.21
516.308	20554.95
516.51	20923.58
516.712	21642.42
516.914	22002.86
517.116	22281.39
517.318	22633.64
517.52	23078.05
517.722	23440.54
517.925	24018.07
518.127	24851.59
518.329	24984.71
518.531	25193.6
518.733	25853.05
518.935	26160.24
519.136	26440.81
519.338	27214.94
519.54	27475.04
519.742	28105.81
519.944	28353.62
520.146	29123.65
520.348	29289.54
520.55	29426.75
520.752	30024.76
520.954	30227.51
521.155	30583.85
521.357	31556.64
521.559	31820.83
521.761	32347.15
521.963	32316.43
522.164	32699.41
522.366	32869.39
522.568	33332.23
522.77	33623.04
522.971	34317.3
523.173	33905.66
523.375	34524.15
523.576	34669.55
523.778	34606.06
523.98	35273.7
524.181	34989.03
524.383	35437.54
524.584	35834.85
524.786	35523.55
524.988	35873.76
525.189	35746.78
525.391	36004.83
525.592	36164.57
525.794	36424.66
525.995	35906.52
526.197	36312.02
526.398	36369.37
526.6	36355.03
526.801	36428.76
527.003	36402.13
527.204	35683.3
527.406	35931.1
527.607	36056.03
527.808	36191.19
528.01	34917.36
528.211	35314.66
528.412	35419.11
528.614	35324.9
528.815	35034.09
529.016	34708.46
529.218	34477.04
529.419	34425.84
529.62	33799.16
529.822	33608.7
530.023	33354.76
530.224	33207.3
530.425	32941.07
530.626	32179.22
530.828	31974.42
531.029	32189.46
531.23	31515.68
531.431	30948.39
531.632	31370.27
531.833	30526.51
532.035	30078.01
532.236	29965.37
532.437	29727.8
532.638	29105.22
532.839	29058.12
533.04	28759.11
533.241	28087.38
533.442	28290.13
533.643	27272.29
533.844	27180.13
534.045	26754.15
534.246	26315.89
534.447	26119.28
534.648	25777.27
534.849	25320.57
535.05	24943.75
535.251	24482.95
535.451	24472.71
535.652	24231.05
535.853	23772.31
536.054	23487.64
536.255	23170.21
536.456	22652.07
536.657	22740.13
536.857	22236.33
537.058	21963.95
537.259	21722.29
537.46	21396.67
537.66	21097.66
537.861	21085.37
538.062	20331.72
538.263	20337.87
538.463	20239.56
538.664	19799.25
538.865	19590.36
539.065	19518.68
539.266	18978.01
539.466	18980.06
539.667	18492.65
539.868	18412.78
540.068	18560.23
540.269	17960.17
540.469	17827.06
540.67	17517.81
540.87	17583.35
541.071	17351.93
541.271	17208.57
541.472	16661.76
541.672	16477.44
541.873	16354.57
542.073	16321.8
542.274	16051.47
542.474	16043.28
542.675	15772.94
542.875	15691.02
543.075	15082.78
543.276	15043.87
543.476	15230.23
543.676	14826.78
543.877	14794.01
544.077	14601.51
544.277	14130.47
544.478	14185.77
544.678	13989.16
544.878	13866.28
545.078	13862.19
545.279	13548.85
545.479	13331.76
545.679	13120.82
545.879	13092.15
546.079	12965.18
546.28	12545.34
546.48	12535.1
546.68	12467.52
546.88	12418.37
547.08	12340.55
547.28	12002.63
547.48	11846.99
547.68	11775.31
547.88	11543.89
548.081	11672.91
548.281	11404.63
548.481	11248.98
548.681	11212.12
548.881	10814.81
549.081	10808.67
549.28	10667.36
549.48	10429.79
549.68	10356.07
549.88	10198.37
550.08	10026.34
550.28	10030.44
550.48	9790.83
550.68	9725.29
550.88	9577.84
551.08	9360.75
551.279	9366.9
551.479	9098.61
551.679	9207.16
551.879	8762.75
552.079	8879.48
552.278	8732.03
552.478	8633.72
552.678	8480.13
552.878	8465.79
553.077	8230.27
553.277	7906.7
553.477	7794.06
553.676	7820.68
553.876	7794.06
554.076	7533.97
554.275	7363.98
554.475	7259.54
554.674	7255.44
554.874	7079.32
555.074	6706.59
555.273	6927.77
555.473	6614.43
555.672	6524.32
555.872	6661.53
556.071	6430.11
556.271	6548.89
556.47	6270.37
556.67	6180.26
556.869	5944.74
557.068	5721.51
557.268	5780.9
557.467	5666.22
557.667	5875.11
557.866	5549.48
558.065	5340.59
558.265	5569.96
558.464	5293.49
558.663	5287.34
558.863	5172.66
559.062	5117.36
559.261	4900.28
559.461	4951.48
559.66	4750.78
559.859	4615.61
560.058	4595.13
560.258	4525.5
560.457	4390.33
560.656	4498.88
560.855	4220.35
561.054	4257.22
561.253	4246.98
561.453	4249.02
561.652	4107.71
561.851	4070.85
562.05	4046.27
562.249	3780.04
562.448	3964.36
562.647	3683.78
562.846	3685.83
563.045	3718.6
563.244	3466.7
563.443	3505.61
563.642	3431.88
563.841	3503.56
564.04	3450.32
564.239	3341.77
564.438	3304.91
564.637	3130.83
564.836	3118.54
565.035	2985.43
565.234	3126.74
565.432	3050.96
565.631	2993.62
565.83	2854.36
566.029	2817.49
566.228	2815.45
566.427	2934.23
566.625	2680.28
566.824	2911.7
567.023	2653.66
567.222	2604.5
567.42	2639.32
567.619	2616.79
567.818	2571.74
568.016	2633.18
568.215	2463.19
568.414	2532.83
568.612	2395.61
568.811	2307.55
569.01	2399.71
569.208	2244.06
569.407	2289.12
569.605	2201.05
569.804	2242.01
570.002	2291.17
570.201	1955.3
570.4	2158.05
570.598	2106.85
570.797	2074.08
570.995	1957.35
571.193	1961.44
571.392	2063.84
571.59	1787.36
571.789	1920.48
571.987	1805.8
572.186	1871.33
572.384	1732.07
572.582	1836.52
572.781	1807.84
572.979	1691.11
573.177	1701.35
573.376	1654.25
573.574	1715.69
573.772	1586.66
573.971	1562.09
574.169	1443.31
574.367	1523.18
574.565	1471.98
574.763	1449.45
574.962	1478.12
575.16	1445.35
575.358	1297.9
575.556	1365.48
575.754	1285.61
575.952	1379.82
576.151	1314.28
576.349	1248.75
576.547	1218.03
576.745	1271.28
576.943	1340.91
577.141	1299.95
577.339	1166.83
577.537	1152.49
577.735	1080.82
577.933	1177.07
578.131	1058.29
578.329	1281.52
578.527	1119.73
578.725	1082.86
578.923	941.55
579.121	1015.28
579.319	943.6
579.516	919.03
579.714	1263.08
579.912	1023.47
580.11	742.9
580.308	904.69
580.506	888.31
580.704	843.25
580.901	896.5
581.099	1013.23
581.297	828.92
581.495	859.63
581.692	890.35
581.89	953.84
582.088	939.51
582.285	798.2
582.483	861.68
582.681	757.24
582.878	755.19
583.076	708.09
583.274	753.14
583.471	773.62
583.669	738.8
583.866	701.94
584.064	644.6
584.262	650.74
584.459	577.02
584.657	726.52
584.854	665.08
585.052	740.85
585.249	675.32
585.447	634.36
585.644	536.06
585.841	585.21
586.039	693.75
586.236	718.33
586.434	523.77
586.631	568.82
586.828	521.72
587.026	534.01
587.223	527.86
587.42	445.95
587.618	640.5
587.815	636.41
588.012	609.78
588.21	513.53
588.407	581.11
588.604	587.26
588.801	488.95
588.999	542.2
589.196	632.31
589.393	353.79
589.59	527.86
589.787	462.33
589.984	450.04
590.182	544.25
590.379	413.18
590.576	480.76
590.773	466.42
590.97	443.9
591.167	470.52
591.364	486.9
591.561	474.62
591.758	671.22
591.955	491
592.152	411.13
592.349	454.14
592.546	474.62
592.743	374.27
592.94	427.51
593.137	538.1
593.334	437.75
593.531	460.28
593.727	525.82
593.924	472.57
594.121	515.58
594.318	466.42
594.515	433.66
594.712	548.34
594.908	544.25
595.105	359.93
595.302	531.96
595.499	462.33
595.696	595.45
595.892	433.66
596.089	548.34
596.286	488.95
596.482	503.29
596.679	591.35
596.876	509.43
597.072	605.69
597.269	560.63
597.466	695.8
597.662	542.2
597.859	644.6
598.055	572.92
598.252	640.5
598.448	648.69
598.645	699.89
598.841	687.61
599.038	861.68
599.234	820.72
599.431	771.57
599.627	802.29
599.824	849.4
600.02	902.64
600.217	828.92
600.413	1019.38
600.609	994.8
600.806	1324.52
601.002	1089.01
601.198	941.55
601.395	1234.41
601.591	1252.84
601.787	1172.97
601.984	1256.94
602.18	1332.72
602.376	1383.91
602.572	1404.39
602.769	1629.67
602.965	1482.22
603.161	1664.49
603.357	1656.29
603.553	1760.74
603.75	1678.82
603.946	1738.21
604.142	1865.19
604.338	2123.23
604.534	1836.52
604.73	1992.16
604.926	1943.01
605.122	2280.93
605.318	2242.01
605.514	2373.08
605.71	2416.09
605.906	2516.44
606.102	2440.67
606.298	2631.13
606.494	2719.19
606.69	2758.1
606.886	2887.12
607.082	2926.04
607.278	3055.06
607.474	3159.5
607.67	3112.4
607.866	3122.64
608.062	3341.77
608.257	3343.82
608.453	3409.36
608.649	3599.82
608.845	3546.57
609.041	3737.03
609.236	3907.01
609.432	4021.7
609.628	4226.5
609.824	4199.87
610.019	4271.55
610.215	4529.59
610.411	4595.13
610.606	4656.57
610.802	4804.02
610.998	4875.7
611.193	5074.35
611.389	4926.9
611.584	5250.48
611.78	5367.21
611.976	5486
612.171	5889.45
612.367	5920.17
612.562	5881.25
612.758	6159.78
612.953	6217.12
613.149	6520.22
613.344	6741.4
613.539	6856.09
613.735	6952.34
613.93	7220.63
614.126	7468.43
614.321	7480.72
614.517	7861.64
614.712	8041.86
614.907	8334.72
615.103	8334.72
615.298	8582.53
615.493	8813.95
615.688	8863.1
615.884	9264.5
616.079	9293.17
616.274	9725.29
616.47	9852.27
616.665	10255.72
616.86	10356.07
617.055	10708.32
617.25	10728.8
617.445	11126.1
617.641	11289.94
617.836	11779.4
618.031	11681.1
618.226	12268.87
618.421	12518.72
618.616	12836.16
618.811	12979.51
619.006	13368.63
619.201	13608.24
619.396	13876.52
619.591	14236.97
619.786	14822.69
619.981	14828.83
620.176	15424.79
620.371	15416.6
620.566	15731.98
620.761	16129.29
620.956	16698.63
621.151	16641.28
621.346	17161.47
621.541	17120.51
621.735	17872.11
621.93	17857.78
622.125	18328.81
622.32	18468.07
622.515	19084.51
622.709	19524.82
622.904	19647.7
623.099	20022.48
623.294	20497.61
623.488	20716.74
623.683	20976.83
623.878	21335.23
624.072	22070.45
624.267	22269.1
624.462	22623.4
624.656	22447.27
624.851	23151.77
625.046	23465.11
625.24	23778.45
625.435	23927.95
625.629	24468.62
625.824	24847.49
626.018	25070.72
626.213	25021.57
626.407	25767.03
626.602	25519.23
626.796	26227.82
626.991	26190.96
627.185	26588.27
627.38	26948.71
627.574	27153.51
627.768	27040.87
627.963	27231.33
628.157	27278.43
628.352	27524.19
628.546	27067.49
628.74	27796.57
628.935	27380.83
629.129	27497.56
629.323	27171.94
629.517	27331.68
629.712	27212.9
629.906	27206.75
630.1	26596.46
630.294	26641.51
630.489	26307.69
630.683	26168.43
630.877	25298.05
631.071	25332.86
631.265	24609.93
631.459	24065.17
631.653	23448.73
631.848	22998.18
632.042	22574.25
632.236	22254.76
632.43	21335.23
632.624	21081.28
632.818	20102.35
633.012	19690.71
633.206	19064.03
633.4	18742.5
633.594	17810.67
633.788	17591.54
633.982	16719.1
634.176	16293.13
634.369	15703.31
634.563	15060.25
634.757	14445.86
634.951	13854
635.145	13444.4
635.339	12764.48
635.533	12260.68
635.726	11836.75
635.92	11410.77
636.114	11035.99
636.308	10415.46
636.501	10085.73
636.695	9583.98
636.889	9336.18
637.083	8908.15
637.276	8408.45
637.47	8170.88
637.664	7757.19
637.857	7554.44
638.051	7146.9
638.244	6856.09
638.438	6905.24
638.632	6337.95
638.825	6010.28
639.019	5883.3
639.212	5643.69
639.406	5615.02
639.599	5143.99
639.793	5037.49
639.986	4885.94
640.18	4576.7
640.373	4564.41
640.567	4203.97
640.76	4136.38
640.954	3896.77
641.147	3857.86
641.34	3687.88
641.534	3626.44
641.727	3427.79
641.92	3294.67
642.114	3136.98
642.307	2987.47
642.5	2821.59
642.694	2774.49
642.887	2657.75
643.08	2758.1
643.273	2610.65
643.467	2440.67
643.66	2399.71
643.853	2233.82
644.046	2053.6
644.239	1983.97
644.432	1805.8
644.626	1748.45
644.819	1715.69
645.012	1715.69
645.205	1693.16
645.398	1676.77
645.591	1605.1
645.784	1523.18
645.977	1467.88
646.17	1408.49
646.363	1435.11
646.556	1267.18
646.749	1089.01
646.942	1142.25
647.135	1269.23
647.328	1031.66
647.521	1179.12
647.714	1080.82
647.907	1041.9
648.099	820.72
648.292	1084.91
648.485	878.07
648.678	753.14
648.871	742.9
649.064	699.89
649.256	697.85
649.449	708.09
649.642	673.27
649.835	593.4
650.027	574.97
650.22	679.41
650.413	574.97
650.605	675.32
650.798	556.54
650.991	534.01
651.183	534.01
651.376	548.34
651.568	517.62
651.761	425.47
651.954	464.38
652.146	431.61
652.339	450.04
652.531	527.86
652.724	323.07
652.916	384.51
653.109	271.87
653.301	499.19
653.494	441.85
653.686	349.69
653.879	396.79
654.071	327.16
654.263	253.44
654.456	290.3
654.648	419.32
654.84	359.93
655.033	294.4
655.225	431.61
655.417	144.89
655.61	402.94
655.802	230.91
655.994	421.37
656.186	144.89
656.379	312.83
656.571	181.76
656.763	304.64
656.955	138.75
657.148	177.66
657.34	329.21
657.532	226.81
657.724	140.8
657.916	224.76
658.108	331.26
658.3	255.48
658.492	249.34
658.684	126.46
658.876	298.49
659.068	114.17
659.26	40.45
659.452	56.83
659.644	130.56
659.836	343.55
660.028	212.48
660.22	77.31
660.412	206.33
660.604	124.41
660.796	146.94
660.988	210.43
661.18	208.38
661.372	263.68
661.563	163.33
661.755	171.52
661.947	167.42
662.139	118.27
662.331	91.65
662.522	192
662.714	75.26
662.906	97.79
663.097	36.35
663.289	110.08
663.481	30.21
663.673	155.13
663.864	69.12
664.056	85.5
664.247	62.98
664.439	187.9
664.631	101.89
664.822	171.52
665.014	183.81
665.205	120.32
665.397	116.22
665.588	134.65
665.78	60.93
665.971	114.17
666.163	161.28
666.354	134.65
666.546	9.73
666.737	110.08
666.929	97.79
667.12	130.56
667.311	153.09
667.503	163.33
667.694	120.32
667.885	224.76
668.077	130.56
668.268	26.11
668.459	67.07
668.651	132.61
668.842	128.51
669.033	75.26
669.224	103.93
669.416	237.05
669.607	65.02
669.798	19.97
669.989	157.18
670.18	110.08
670.371	140.8
670.563	108.03
670.754	187.9
670.945	159.23
671.136	235
671.327	34.3
671.518	245.24
671.709	263.68
671.9	208.38
672.091	161.28
672.282	105.98
672.473	124.41
672.664	62.98
672.855	87.55
673.046	134.65
673.237	177.66
673.428	99.84
673.619	173.57
673.809	48.64
674	165.37
674.191	97.79
674.382	153.09
674.573	112.13
674.764	118.27
674.954	222.72
675.145	79.36
675.336	7.68
675.527	83.45
675.717	165.37
675.908	58.88
676.099	183.81
676.289	124.41
676.48	26.11
676.671	175.61
676.861	122.37
677.052	87.55
677.243	108.03
677.433	155.13
677.624	185.85
677.814	101.89
678.005	116.22
678.195	189.95
678.386	54.78
678.576	134.65
678.767	60.93
678.957	114.17
679.148	132.61
679.338	222.72
679.529	208.38
679.719	110.08
679.909	222.72
680.1	118.27
680.29	216.57
680.481	7.68
680.671	286.2
680.861	237.05
681.052	67.07
681.242	91.65
681.432	163.33
681.622	198.14
681.813	62.98
682.003	136.7
682.193	85.5
682.383	187.9
682.573	177.66
682.764	69.12
682.954	169.47
683.144	275.96
683.334	120.32
683.524	179.71
683.714	241.15
683.904	179.71
684.094	144.89
684.284	206.33
684.474	280.06
684.664	206.33
684.854	220.67
685.044	126.46
685.234	167.42
685.424	171.52
685.614	175.61
685.804	308.73
685.994	179.71
686.184	189.95
686.374	251.39
686.564	165.37
686.753	146.94
686.943	120.32
687.133	194.05
687.323	185.85
687.513	192
687.702	130.56
687.892	183.81
688.082	253.44
688.272	247.29
688.461	124.41
688.651	364.03
688.841	241.15
689.03	130.56
689.22	169.47
689.41	226.81
689.599	192
689.789	101.89
689.979	339.45
690.168	194.05
690.358	312.83
690.547	126.46
690.737	216.57
690.926	226.81
691.116	200.19
691.305	292.35
691.495	247.29
691.684	105.98
691.874	120.32
692.063	167.42
692.252	163.33
692.442	257.53
692.631	192
692.82	163.33
693.01	249.34
693.199	226.81
693.388	202.24
693.578	187.9
693.767	140.8
693.956	235
694.146	177.66
694.335	245.24
694.524	173.57
694.713	271.87
694.902	169.47
695.092	81.41
695.281	159.23
695.47	122.37
695.659	132.61
695.848	134.65
696.037	108.03
696.226	216.57
696.415	183.81
696.604	294.4
696.793	273.92
696.982	138.75
697.171	251.39
697.36	97.79
697.549	148.99
697.738	77.31
697.927	93.69
698.116	175.61
698.305	318.97
698.494	187.9
698.683	77.31
698.872	280.06
699.061	130.56
699.25	122.37
699.438	144.89
699.627	67.07
699.816	300.54
700.005	60.93
700.193	128.51
700.382	214.52
700.571	185.85
700.76	200.19
700.948	251.39
701.137	171.52
701.326	261.63
701.514	103.93
701.703	126.46
701.892	216.57
702.08	292.35
702.269	169.47
702.457	196.09
702.646	167.42
702.834	138.75
703.023	247.29
703.212	179.71
703.4	181.76
703.589	144.89
703.777	93.69
703.965	130.56
704.154	97.79
704.342	128.51
704.531	60.93
704.719	116.22
704.907	286.2
705.096	71.17
705.284	132.61
705.472	210.43
705.661	185.85
705.849	278.01
706.037	263.68
706.226	216.57
706.414	185.85
706.602	93.69
706.79	148.99
706.979	120.32
707.167	167.42
707.355	15.87
707.543	243.2
707.731	235
707.919	206.33
708.107	204.28
708.296	138.75
708.484	91.65
708.672	212.48
708.86	192
709.048	189.95
709.236	95.74
709.424	249.34
709.612	224.76
709.8	91.65
709.988	175.61
710.176	222.72
710.364	271.87
710.551	134.65
710.739	155.13
710.927	169.47
711.115	118.27
711.303	220.67
711.491	241.15
711.679	85.5
711.866	222.72
712.054	77.31
712.242	212.48
712.43	241.15
712.617	169.47
712.805	241.15
712.993	165.37
713.181	77.31
713.368	286.2
713.556	153.09
713.744	144.89
713.931	335.35
714.119	243.2
714.306	124.41
714.494	128.51
714.682	114.17
714.869	110.08
715.057	208.38
715.244	15.87
715.432	210.43
715.619	148.99
715.807	220.67
715.994	151.04
716.182	245.24
716.369	220.67
716.556	183.81
716.744	42.5
716.931	146.94
717.119	198.14
717.306	198.14
717.493	192
717.681	206.33
717.868	138.75
718.055	243.2
718.242	140.8
718.43	224.76
718.617	355.83
718.804	144.89
718.991	208.38
719.179	153.09
719.366	175.61
719.553	247.29
719.74	216.57
719.927	108.03
720.114	140.8
720.301	130.56
720.488	177.66
720.676	120.32
720.863	292.35
721.05	347.64
721.237	228.86
721.424	228.86
721.611	185.85
721.798	40.45
721.985	214.52
722.172	130.56
722.358	126.46
722.545	298.49
722.732	235
722.919	318.97
723.106	167.42
723.293	200.19
723.48	228.86
723.667	194.05
723.853	314.88
724.04	333.31
724.227	263.68
724.414	175.61
724.6	323.07
724.787	323.07
724.974	390.65
725.161	269.82
725.347	128.51
725.534	179.71
725.72	273.92
725.907	310.78
726.094	316.92
726.28	134.65
726.467	167.42
726.653	169.47
726.84	286.2
727.027	376.31
727.213	151.04
727.4	253.44
727.586	175.61
727.773	275.96
727.959	179.71
728.145	259.58
728.332	239.1
728.518	257.53
728.705	318.97
728.891	269.82
729.077	220.67
729.264	181.76
729.45	267.77
729.636	247.29
729.823	220.67
730.009	253.44
730.195	333.31
730.382	325.12
730.568	144.89
730.754	247.29
730.94	200.19
731.126	255.48
731.313	286.2
731.499	202.24
731.685	263.68
731.871	288.25
732.057	273.92
732.243	261.63
732.429	212.48
732.615	337.4
732.801	310.78
732.987	208.38
733.173	239.1
733.359	198.14
733.545	278.01
733.731	220.67
733.917	327.16
734.103	318.97
734.289	282.11
734.475	173.57
734.661	411.13
734.847	278.01
735.033	316.92
735.219	304.64
735.404	306.68
735.59	239.1
735.776	183.81
735.962	329.21
736.148	374.27
736.333	425.47
736.519	290.3
736.705	249.34
736.89	169.47
737.076	257.53
737.262	179.71
737.447	198.14
737.633	134.65
737.819	411.13
738.004	323.07
738.19	318.97
738.375	294.4
738.561	337.4
738.747	343.55
738.932	189.95
739.118	503.29
739.303	316.92
739.489	316.92
739.674	251.39
739.859	159.23
740.045	388.6
740.23	304.64
740.416	71.17
740.601	321.02
740.786	232.96
740.972	189.95
741.157	218.62
741.342	173.57
741.528	132.61
741.713	347.64
741.898	241.15
742.084	245.24
742.269	286.2
742.454	286.2
742.639	339.45
742.824	187.9
743.01	431.61
743.195	394.75
743.38	263.68
743.565	298.49
743.75	267.77
743.935	308.73
744.12	321.02
744.305	183.81
744.49	278.01
744.675	288.25
744.86	85.5
745.045	271.87
745.23	228.86
745.415	251.39
745.6	337.4
745.785	224.76
745.97	323.07
746.155	284.16
746.34	370.17
746.525	286.2
746.71	292.35
746.895	161.28
747.079	161.28
747.264	202.24
747.449	396.79
747.634	345.59
747.819	296.44
748.003	257.53
748.188	118.27
748.373	273.92
748.557	286.2
748.742	251.39
748.927	224.76
749.111	202.24
749.296	222.72
749.481	294.4
749.665	267.77
749.85	153.09
750.034	368.12
750.219	214.52
750.404	228.86
750.588	192
750.773	224.76
750.957	273.92
751.141	181.76
751.326	259.58
751.51	99.84
751.695	159.23
751.879	181.76
752.064	230.91
752.248	187.9
752.432	304.64
752.617	325.12
752.801	333.31
752.985	218.62
753.17	271.87
753.354	247.29
753.538	249.34
753.722	93.69
753.907	79.36
754.091	210.43
754.275	249.34
754.459	79.36
754.643	142.85
754.828	241.15
755.012	159.23
755.196	140.8
755.38	148.99
755.564	177.66
755.748	247.29
755.932	232.96
756.116	310.78
756.3	204.28
756.484	108.03
756.668	232.96
756.852	153.09
757.036	165.37
757.22	153.09
757.404	110.08
757.588	77.31
757.772	192
757.956	77.31
758.14	267.77
758.323	130.56
758.507	228.86
758.691	118.27
758.875	144.89
759.059	232.96
759.242	126.46
759.426	126.46
759.61	157.18
759.794	58.88
759.977	230.91
760.161	398.84
760.345	314.88
760.528	263.68
760.712	220.67
760.895	194.05
761.079	247.29
761.263	144.89
761.446	91.65
761.63	165.37
761.813	183.81
761.997	52.74
762.18	192
762.364	148.99
762.547	60.93
762.731	99.84
762.914	144.89
763.098	81.41
763.281	130.56
763.464	60.93
763.648	183.81
763.831	108.03
764.015	-6.66
764.198	200.19
764.381	126.46
764.564	83.45
764.748	181.76
764.931	224.76
765.114	95.74
765.297	196.09
765.481	-45.57
765.664	67.07
765.847	116.22
766.03	196.09
766.213	69.12
766.397	175.61
766.58	1.54
766.763	93.69
766.946	95.74
767.129	124.41
767.312	91.65
767.495	112.13
767.678	1.54
767.861	151.04
768.044	48.64
768.227	99.84
768.41	95.74
768.593	52.74
768.776	56.83
768.959	77.31
769.142	167.42
769.324	83.45
769.507	132.61
769.69	60.93
769.873	54.78
770.056	292.35
770.239	46.59
770.421	165.37
770.604	214.52
770.787	136.7
770.97	62.98
771.152	62.98
771.335	153.09
771.518	75.26
771.7	140.8
771.883	210.43
772.066	28.16
772.248	134.65
772.431	189.95
772.613	173.57
772.796	110.08
772.978	173.57
773.161	200.19
773.343	85.5
773.526	126.46
773.708	-47.62
773.891	-27.14
774.073	50.69
774.256	24.06
774.438	132.61
774.621	3.58
774.803	91.65
774.985	-0.51
775.168	202.24
775.35	165.37
775.532	120.32
775.715	-37.38
775.897	79.36
776.079	60.93
776.261	83.45
776.444	-20.99
776.626	112.13
776.808	101.89
776.99	5.63
777.173	52.74
777.355	11.78
777.537	124.41
777.719	136.7
777.901	36.35
778.083	-6.66
778.265	44.54
778.447	65.02
778.629	56.83
778.811	28.16
778.993	128.51
779.175	171.52
779.357	15.87
779.539	-0.51
779.721	15.87
779.903	108.03
780.085	7.68
780.267	52.74
780.449	60.93
780.631	60.93
780.812	159.23
780.994	110.08
781.176	105.98
781.358	58.88
781.54	87.55
781.721	140.8
781.903	130.56
782.085	22.02
782.267	93.69
782.448	89.6
782.63	73.21
782.812	105.98
782.993	36.35
783.175	91.65
783.357	32.26
783.538	40.45
783.72	32.26
783.901	65.02
784.083	87.55
784.264	77.31
784.446	-68.09
784.627	-33.28
784.809	122.37
784.99	-64
785.172	56.83
785.353	22.02
785.535	11.78
785.716	7.68
785.897	-53.76
786.079	32.26
786.26	69.12
786.441	62.98
786.623	-31.23
786.804	1.54
786.985	50.69
787.167	50.69
787.348	-39.42
787.529	-0.51
787.71	116.22
787.891	3.58
788.073	9.73
788.254	11.78
788.435	189.95
788.616	15.87
788.797	-66.05
788.978	-6.66
789.159	-27.14
789.34	89.6
789.522	-33.28
789.703	38.4
789.884	83.45
790.065	67.07
790.246	177.66
790.427	36.35
790.607	230.91
790.788	153.09
790.969	-35.33
791.15	71.17
791.331	1.54
791.512	-12.8
791.693	-29.18
791.874	75.26
792.054	202.24
792.235	161.28
792.416	-64
792.597	24.06
792.778	56.83
792.958	89.6
793.139	58.88
793.32	30.21
793.5	-20.99
793.681	116.22
793.862	-8.7
794.042	75.26
794.223	-100.86
794.404	15.87
794.584	-29.18
794.765	42.5
794.945	17.92
795.126	62.98
795.306	60.93
795.487	17.92
795.667	-14.85
795.848	1.54
796.028	-31.23
796.209	-53.76
796.389	34.3
796.57	73.21
796.75	-66.05
796.93	-27.14
797.111	32.26
797.291	67.07
797.471	95.74
797.652	3.58
797.832	-2.56
798.012	75.26
798.192	13.82
798.373	-84.48
798.553	-12.8
798.733	85.5
798.913	-16.9
799.093	13.82
799.274	-0.51
799.454	30.21
799.634	77.31
799.814	60.93
799.994	132.61
800.174	108.03
800.354	46.59
800.534	-33.28
800.714	56.83
800.894	-55.81
801.074	19.97
801.254	-45.57
801.434	-2.56
801.614	-68.09
801.794	-74.24
801.974	1758.69
802.154	-35.33
802.334	89.6
802.514	-125.44
802.693	-8.7
802.873	-16.9
803.053	75.26
803.233	48.64
803.413	-16.9
803.592	-12.8
803.772	-23.04
803.952	-20.99
804.131	-74.24
804.311	105.98
804.491	46.59
804.67	13.82
804.85	17.92
805.03	28.16
805.209	87.55
805.389	15.87
805.568	-49.66
805.748	9.73
805.928	48.64
806.107	17.92
806.287	34.3
806.466	19.97
806.646	-27.14
806.825	69.12
807.004	-49.66
807.184	50.69
807.363	28.16
807.543	24.06
807.722	-18.94
807.901	99.84
808.081	44.54
808.26	-197.12
808.439	87.55
808.619	22.02
808.798	48.64
808.977	52.74
809.156	77.31
809.336	38.4
809.515	118.27
809.694	-49.66
809.873	-53.76
810.052	38.4
810.231	52.74
810.411	-66.05
810.59	22.02
810.769	-2.56
810.948	83.45
811.127	-104.96
811.306	-10.75
811.485	-31.23
811.664	65.02
811.843	-18.94
812.022	36.35
812.201	54.78
812.38	19.97
812.559	5.63
812.737	-27.14
812.916	-33.28
813.095	-18.94
813.274	28.16
813.453	5.63
813.632	9.73
813.811	101.89
813.989	-94.72
814.168	46.59
814.347	-43.52
814.526	13.82
814.704	122.37
814.883	85.5
815.062	-41.47
815.24	-20.99
815.419	-49.66
815.598	40.45
815.776	-109.05
815.955	-102.91
816.133	-57.86
816.312	67.07
816.49	-27.14
816.669	26.11
816.847	36.35
817.026	52.74
817.204	-10.75
817.383	44.54
817.561	-61.95
817.74	110.08
817.918	46.59
818.097	7.68
818.275	-66.05
818.453	73.21
818.632	40.45
818.81	-53.76
818.988	-100.86
819.167	-12.8
819.345	79.36
819.523	28.16
819.701	54.78
819.879	-23.04
820.058	-37.38
820.236	38.4
820.414	26.11
820.592	28.16
820.77	36.35
820.948	32.26
821.127	5.63
821.305	7.68
821.483	-16.9
821.661	87.55
821.839	-59.9
822.017	-64
822.195	-43.52
822.373	32.26
822.551	15.87
822.729	9.73
822.907	-88.57
823.085	62.98
823.262	40.45
823.44	-14.85
823.618	9.73
823.796	42.5
823.974	-47.62
824.152	-45.57
824.329	-47.62
824.507	13.82
824.685	60.93
824.863	-45.57
825.04	-25.09
825.218	-0.51
825.396	-33.28
825.574	-10.75
825.751	-43.52
825.929	13.82
826.107	-123.39
826.284	32.26
826.462	13.82
826.639	-37.38
826.817	-102.91
826.994	24.06
827.172	-20.99
827.349	148.99
827.527	-8.7
827.704	54.78
827.882	99.84
828.059	-20.99
828.237	5.63
828.414	24.06
828.591	-125.44
828.769	77.31
828.946	-12.8
829.124	60.93
829.301	95.74
829.478	-70.14
829.655	48.64
829.833	85.5
830.01	-172.54
830.187	34.3
830.364	-0.51
830.542	93.69
830.719	118.27
830.896	-29.18
831.073	17.92
831.25	34.3
831.427	19.97
831.604	-0.51
831.782	-25.09
831.959	-20.99
832.136	22.02
832.313	5.63
832.49	-35.33
832.667	22.02
832.844	38.4
833.021	36.35
833.198	-39.42
833.374	11.78
833.551	-12.8
833.728	50.69
833.905	-6.66
834.082	-96.77
834.259	24.06
834.436	93.69
834.612	-86.53
834.789	-29.18
834.966	67.07
835.143	17.92
835.319	-94.72
835.496	38.4
835.673	40.45
835.85	46.59
836.026	34.3
836.203	91.65
836.38	-45.57
836.556	-25.09
836.733	-55.81
836.909	126.46
837.086	-88.57
837.262	-78.33
837.439	50.69
837.616	-115.2
837.792	-88.57
837.968	58.88
838.145	-139.77
838.321	-12.8
838.498	-14.85
838.674	44.54
838.851	-14.85
839.027	19.97
839.203	-100.86
839.38	-0.51
839.556	44.54
839.732	28.16
839.909	22.02
840.085	19.97
840.261	-39.42
840.437	11.78
840.614	-61.95
840.79	1.54
840.966	62.98
841.142	13.82
841.318	-8.7
841.494	110.08
841.671	56.83
841.847	-43.52
842.023	-82.43
842.199	15.87
842.375	91.65
842.551	-57.86
842.727	-139.77
842.903	91.65
843.079	-35.33
843.255	159.23
843.431	-53.76
843.607	34.3
843.783	-119.29
843.959	77.31
844.134	-47.62
844.31	38.4
844.486	-14.85
844.662	-70.14
844.838	-4.61
845.013	46.59
845.189	89.6
845.365	60.93
845.541	-31.23
845.716	-4.61
845.892	108.03
846.068	-68.09
846.244	-51.71
846.419	19.97
846.595	-68.09
846.77	-68.09
846.946	114.17
847.122	-20.99
847.297	1.54
847.473	110.08
847.648	-123.39
847.824	-14.85
847.999	-172.54
848.175	67.07
848.35	85.5
848.526	75.26
848.701	87.55
848.876	60.93
849.052	87.55
849.227	-64
849.403	-6.66
849.578	-12.8
849.753	34.3
849.929	91.65
850.104	9.73
850.279	22.02
850.454	-23.04
850.63	67.07
850.805	-117.25
850.98	-6.66
851.155	15.87
851.33	30.21
851.505	-74.24
851.681	138.75
851.856	9.73
852.031	36.35
852.206	13.82
852.381	-96.77
852.556	28.16
852.731	42.5
852.906	58.88
853.081	30.21
853.256	112.13
853.431	-109.05
853.606	-18.94
853.781	-66.05
853.956	-166.4
854.131	-53.76
854.305	40.45
854.48	-100.86
854.655	-135.68
854.83	-20.99
855.005	-12.8
855.18	44.54
855.354	-16.9
855.529	50.69
855.704	46.59
855.879	56.83
856.053	-29.18
856.228	36.35
856.403	-68.09
856.577	54.78
856.752	-61.95
856.926	-2.56
857.101	-43.52
857.276	-16.9
857.45	-6.66
857.625	77.31
857.799	-61.95
857.974	-53.76
858.148	-102.91
858.323	19.97
858.497	36.35
858.672	3.58
858.846	-8.7
859.02	116.22
859.195	-74.24
859.369	-31.23
859.543	28.16
859.718	5.63
859.892	28.16
860.066	58.88
860.241	-31.23
860.415	-8.7
860.589	38.4
860.763	7.68
860.938	-37.38
861.112	50.69
861.286	-104.96
861.46	1.54
861.634	-10.75
861.808	77.31
861.982	-102.91
862.157	22.02
862.331	-61.95
862.505	-70.14
862.679	-25.09
862.853	-64
863.027	3.58
863.201	60.93
863.375	-104.96
863.549	24.06
863.722	-14.85
863.896	-47.62
864.07	-61.95
864.244	-2.56
864.418	79.36
864.592	1.54
864.766	58.88
864.939	11.78
865.113	-45.57
865.287	101.89
865.461	-82.43
865.634	50.69
865.808	-29.18
865.982	-123.39
866.156	-16.9
866.329	-164.35
866.503	-8.7
866.676	3.58
866.85	34.3
867.024	-47.62
867.197	30.21
867.371	26.11
867.544	28.16
867.718	-86.53
867.891	-4.61
868.065	-121.34
868.238	5.63
868.412	161.28
868.585	15.87
868.759	-129.53
868.932	-59.9
869.105	-94.72
869.279	-49.66
869.452	-74.24
869.625	30.21
869.799	-84.48
869.972	-31.23
870.145	-29.18
870.319	-29.18
870.492	-43.52
870.665	-20.99
870.838	-82.43
871.011	-113.15
871.185	-53.76
871.358	-80.38
871.531	50.69
871.704	-33.28
871.877	-25.09
872.05	-6.66
872.223	-100.86
872.396	46.59
872.569	32.26
872.742	-31.23
872.915	-23.04
873.088	-39.42
873.261	-57.86
873.434	75.26
873.607	-47.62
873.78	28.16
873.953	-64
874.126	-57.86
874.299	24.06
874.471	-45.57
874.644	-78.33
874.817	-47.62
874.99	251.39
875.163	-41.47
875.335	-2.56
875.508	-53.76
875.681	-8.7
875.853	-76.29
876.026	-16.9
876.199	19.97
876.371	32.26
876.544	58.88
876.717	44.54
876.889	-90.62
877.062	42.5
877.234	-100.86
877.407	-33.28
877.579	-18.94
877.752	24.06
877.924	50.69
878.097	-14.85
878.269	-6.66
878.442	17.92
878.614	97.79
878.786	-64
878.959	-49.66
879.131	19.97
879.303	-100.86
879.476	-41.47
879.648	-2.56
879.82	-43.52
879.993	-20.99
880.165	-33.28
880.337	-76.29
880.509	-68.09
880.681	-150.01
880.854	-10.75
881.026	56.83
881.198	58.88
881.37	13.82
881.542	-41.47
881.714	-41.47
881.886	-33.28
882.058	-41.47
882.23	-29.18
882.402	9.73
882.574	50.69
882.746	54.78
882.918	103.93
883.09	-10.75
883.262	60.93
883.434	11.78
883.606	-78.33
883.778	40.45
883.95	77.31
884.122	-78.33
884.293	34.3
884.465	11.78
884.637	52.74
884.809	-64
884.98	-37.38
885.152	7.68
885.324	-14.85
885.496	-86.53
885.667	-29.18
885.839	-37.38
886.011	110.08
886.182	67.07
886.354	136.7
886.525	26.11
886.697	22.02
886.869	-61.95
887.04	-0.51
887.212	91.65
887.383	144.89
887.555	-37.38
887.726	-12.8
887.897	-82.43
888.069	34.3
888.24	19.97
888.412	-39.42
888.583	28.16
888.754	-41.47
888.926	-131.58
889.097	-113.15
889.268	-86.53
889.44	36.35
889.611	-76.29
889.782	-123.39
889.953	-90.62
890.125	161.28
890.296	-27.14
890.467	-10.75
890.638	-27.14
890.809	-25.09
890.98	13.82
891.151	44.54
891.323	60.93
891.494	-14.85
891.665	-25.09
891.836	-102.91
892.007	-29.18
892.178	30.21
892.349	-12.8
892.52	-57.86
892.691	36.35
892.862	-12.8
893.032	-129.53
893.203	5.63
893.374	28.16
893.545	110.08
893.716	-41.47
893.887	60.93
894.057	-33.28
894.228	-59.9
894.399	-64
894.57	93.69
894.74	-45.57
894.911	-8.7
895.082	-23.04
895.253	-47.62
895.423	-14.85
895.594	1.54
895.764	19.97
895.935	-27.14
896.106	22.02
896.276	-121.34
896.447	-29.18
896.617	-90.62
896.788	-92.67
896.958	-100.86
897.129	-10.75
897.299	3.58
897.47	97.79
897.64	1.54
897.81	-35.33
897.981	30.21
898.151	-96.77
898.322	46.59
898.492	105.98
898.662	-20.99
898.832	-10.75
899.003	-6.66
899.173	40.45
899.343	-4.61
899.513	-74.24
