Data from USB4F104151__53__11-30-44-765.txt Node

Date: Wed Feb 26 11:30:44 EST 2025
User: louis
Spectrometer: USB4F10415
Trigger mode: 4
Integration Time (sec): 1.000000E-1
Scans to average: 1
Electric dark correction enabled: true
Nonlinearity correction enabled: false
Boxcar width: 0
XAxis mode: Wavelengths
Number of Pixels in Spectrum: 3648
>>>>>Begin Spectral Data<<<<<
178.204	-389.97
178.424	-389.97
178.644	-389.97
178.864	-402.26
179.084	-465.74
179.304	29.87
179.524	-88.92
179.744	15.53
179.964	113.83
180.184	-50
180.404	-19.29
180.624	-19.29
180.844	19.63
181.064	-84.82
181.283	42.15
181.503	-35.67
181.723	76.97
181.943	-131.92
182.163	177.32
182.383	-39.76
182.602	107.69
182.822	95.4
183.042	89.26
183.262	-15.19
183.482	-25.43
183.701	-66.39
183.921	99.5
184.141	-60.24
184.361	44.2
184.58	60.59
184.8	44.2
185.02	-56.15
185.239	-15.19
185.459	48.3
185.679	23.72
185.898	-76.63
186.118	42.15
186.338	11.43
186.557	-11.09
186.777	-19.29
186.997	-33.62
187.216	15.53
187.436	238.76
187.655	15.53
187.875	109.74
188.095	-45.91
188.314	150.7
188.534	11.43
188.753	-52.05
188.973	74.92
189.192	109.74
189.412	-2.9
189.631	-21.33
189.851	-35.67
190.07	224.42
190.29	-37.72
190.509	-50
190.729	-4.95
190.948	70.83
191.168	281.77
191.387	101.55
191.607	13.48
191.826	81.07
192.045	27.82
192.265	-66.39
192.484	52.39
192.704	-9.05
192.923	11.43
193.142	165.03
193.362	-11.09
193.581	136.36
193.8	-35.67
194.02	103.59
194.239	31.91
194.458	146.6
194.678	58.54
194.897	-7
195.116	25.77
195.335	109.74
195.555	7.34
195.774	5.29
195.993	146.6
196.212	36.01
196.432	15.53
196.651	68.78
196.87	56.49
197.089	238.76
197.308	44.2
197.528	-7
197.747	-41.81
197.966	42.15
198.185	165.03
198.404	-82.77
198.623	154.79
198.842	111.78
199.062	91.31
199.281	87.21
199.5	7.34
199.719	97.45
199.938	-7
200.157	56.49
200.376	177.32
200.595	79.02
200.814	23.72
201.033	-19.29
201.252	175.27
201.471	95.4
201.69	33.96
201.909	48.3
202.128	150.7
202.347	5.29
202.566	38.06
202.785	-80.72
203.004	3.24
203.223	193.7
203.442	46.25
203.661	-52.05
203.879	85.16
204.098	152.74
204.317	-45.91
204.536	124.07
204.755	-27.48
204.974	91.31
205.193	-43.86
205.411	144.55
205.63	122.02
205.849	81.07
206.068	52.39
206.287	-54.1
206.505	95.4
206.724	-29.52
206.943	-56.15
207.162	42.15
207.381	105.64
207.599	89.26
207.818	87.21
208.037	-76.63
208.255	101.55
208.474	79.02
208.693	107.69
208.911	56.49
209.13	113.83
209.349	144.55
209.567	136.36
209.786	87.21
210.005	119.98
210.223	44.2
210.442	-121.68
210.661	-45.91
210.879	11.43
211.098	3.24
211.316	-27.48
211.535	87.21
211.753	103.59
211.972	-4.95
212.191	-70.48
212.409	44.2
212.628	52.39
212.846	-47.96
213.065	103.59
213.283	122.02
213.502	-13.14
213.72	66.73
213.938	52.39
214.157	68.78
214.375	60.59
214.594	-23.38
214.812	128.17
215.031	64.68
215.249	83.11
215.467	83.11
215.686	36.01
215.904	1.19
216.122	115.88
216.341	158.89
216.559	56.49
216.778	9.39
216.996	134.31
217.214	44.2
217.432	-68.44
217.651	-0.85
217.869	31.91
218.087	46.25
218.306	15.53
218.524	50.35
218.742	42.15
218.96	70.83
219.179	9.39
219.397	25.77
219.615	257.19
219.833	169.13
220.051	-54.1
220.27	201.9
220.488	156.84
220.706	76.97
220.924	23.72
221.142	-9.05
221.36	103.59
221.578	31.91
221.796	23.72
222.015	60.59
222.233	99.5
222.451	171.18
222.669	-39.76
222.887	72.87
223.105	23.72
223.323	-9.05
223.541	-4.95
223.759	64.68
223.977	-27.48
224.195	152.74
224.413	58.54
224.631	52.39
224.849	93.35
225.067	160.94
225.285	3.24
225.503	27.82
225.721	-117.59
225.939	62.63
226.157	-4.95
226.375	289.96
226.592	-9.05
226.81	-19.29
227.028	87.21
227.246	117.93
227.464	81.07
227.682	117.93
227.9	83.11
228.117	42.15
228.335	122.02
228.553	3.24
228.771	7.34
228.989	99.5
229.206	93.35
229.424	-9.05
229.642	-31.57
229.86	-66.39
230.077	191.66
230.295	33.96
230.513	64.68
230.731	68.78
230.948	148.65
231.166	156.84
231.384	-37.72
231.601	7.34
231.819	216.23
232.037	-78.68
232.254	-27.48
232.472	-19.29
232.689	31.91
232.907	101.55
233.125	-27.48
233.342	-37.72
233.56	-7
233.777	13.48
233.995	9.39
234.213	169.13
234.43	111.78
234.648	-62.29
234.865	33.96
235.083	136.36
235.3	27.82
235.518	50.35
235.735	249
235.953	89.26
236.17	38.06
236.388	1.19
236.605	60.59
236.822	15.53
237.04	154.79
237.257	58.54
237.475	25.77
237.692	-2.9
237.909	74.92
238.127	42.15
238.344	140.46
238.562	79.02
238.779	-17.24
238.996	-37.72
239.214	3.24
239.431	140.46
239.648	17.58
239.865	117.93
240.083	36.01
240.3	-39.76
240.517	36.01
240.735	38.06
240.952	83.11
241.169	44.2
241.386	44.2
241.603	93.35
241.821	-23.38
242.038	126.12
242.255	183.46
242.472	-15.19
242.689	76.97
242.907	36.01
243.124	31.91
243.341	-19.29
243.558	5.29
243.775	-78.68
243.992	-90.96
244.209	119.98
244.426	187.56
244.643	95.4
244.86	25.77
245.078	11.43
245.295	52.39
245.512	-31.57
245.729	7.34
245.946	81.07
246.163	87.21
246.38	15.53
246.597	99.5
246.814	115.88
247.031	21.67
247.248	70.83
247.464	87.21
247.681	27.82
247.898	29.87
248.115	50.35
248.332	29.87
248.549	187.56
248.766	126.12
248.983	76.97
249.2	15.53
249.417	146.6
249.633	1.19
249.85	103.59
250.067	38.06
250.284	85.16
250.501	107.69
250.717	103.59
250.934	-50
251.151	50.35
251.368	-13.14
251.585	-13.14
251.801	-21.33
252.018	-39.76
252.235	109.74
252.451	-45.91
252.668	-45.91
252.885	111.78
253.102	68.78
253.318	42.15
253.535	52.39
253.752	72.87
253.968	-21.33
254.185	-37.72
254.401	97.45
254.618	58.54
254.835	-25.43
255.051	128.17
255.268	50.35
255.484	70.83
255.701	27.82
255.917	36.01
256.134	-31.57
256.351	3.24
256.567	-47.96
256.784	31.91
257	-78.68
257.217	144.55
257.433	175.27
257.65	74.92
257.866	144.55
258.082	-9.05
258.299	-43.86
258.515	13.48
258.732	-2.9
258.948	-99.16
259.165	29.87
259.381	13.48
259.597	132.26
259.814	83.11
260.03	5.29
260.246	52.39
260.463	44.2
260.679	134.31
260.895	48.3
261.112	13.48
261.328	107.69
261.544	-50
261.761	148.65
261.977	-13.14
262.193	11.43
262.409	99.5
262.626	52.39
262.842	50.35
263.058	19.63
263.274	126.12
263.49	74.92
263.707	76.97
263.923	103.59
264.139	-7
264.355	38.06
264.571	44.2
264.787	101.55
265.004	148.65
265.22	83.11
265.436	58.54
265.652	23.72
265.868	19.63
266.084	-72.53
266.3	23.72
266.516	9.39
266.732	60.59
266.948	17.58
267.164	-47.96
267.38	105.64
267.596	25.77
267.812	95.4
268.028	-17.24
268.244	101.55
268.46	85.16
268.676	38.06
268.892	42.15
269.108	-25.43
269.324	17.58
269.54	-70.48
269.756	136.36
269.972	-25.43
270.188	58.54
270.403	40.11
270.619	-0.85
270.835	46.25
271.051	27.82
271.267	-33.62
271.483	38.06
271.698	101.55
271.914	-7
272.13	9.39
272.346	-13.14
272.562	62.63
272.777	124.07
272.993	44.2
273.209	31.91
273.425	60.59
273.64	-41.81
273.856	87.21
274.072	-0.85
274.287	58.54
274.503	83.11
274.719	74.92
274.934	7.34
275.15	-7
275.366	99.5
275.581	-25.43
275.797	-0.85
276.012	38.06
276.228	-11.09
276.444	126.12
276.659	132.26
276.875	23.72
277.09	40.11
277.306	-33.62
277.521	87.21
277.737	1.19
277.952	97.45
278.168	38.06
278.383	46.25
278.599	95.4
278.814	111.78
279.03	-2.9
279.245	130.22
279.461	83.11
279.676	130.22
279.892	-35.67
280.107	-41.81
280.322	-25.43
280.538	91.31
280.753	5.29
280.969	9.39
281.184	97.45
281.399	169.13
281.615	5.29
281.83	56.49
282.045	-41.81
282.26	25.77
282.476	19.63
282.691	79.02
282.906	62.63
283.122	46.25
283.337	-52.05
283.552	91.31
283.767	79.02
283.983	103.59
284.198	56.49
284.413	101.55
284.628	-9.05
284.843	60.59
285.058	91.31
285.274	-7
285.489	36.01
285.704	126.12
285.919	-23.38
286.134	-43.86
286.349	68.78
286.564	-39.76
286.779	95.4
286.995	81.07
287.21	-21.33
287.425	68.78
287.64	-60.24
287.855	42.15
288.07	-43.86
288.285	122.02
288.5	95.4
288.715	72.87
288.93	-13.14
289.145	-15.19
289.36	44.2
289.575	-21.33
289.79	66.73
290.004	21.67
290.219	101.55
290.434	9.39
290.649	7.34
290.864	-37.72
291.079	-4.95
291.294	62.63
291.509	62.63
291.724	103.59
291.938	19.63
292.153	5.29
292.368	-90.96
292.583	48.3
292.798	122.02
293.012	64.68
293.227	83.11
293.442	83.11
293.657	91.31
293.871	79.02
294.086	-9.05
294.301	162.98
294.516	103.59
294.73	-13.14
294.945	-62.29
295.16	-29.52
295.374	152.74
295.589	113.83
295.804	-47.96
296.018	52.39
296.233	109.74
296.447	33.96
296.662	-35.67
296.877	150.7
297.091	60.59
297.306	68.78
297.52	29.87
297.735	76.97
297.949	9.39
298.164	7.34
298.378	33.96
298.593	-0.85
298.807	-0.85
299.022	40.11
299.236	60.59
299.451	-4.95
299.665	56.49
299.88	15.53
300.094	85.16
300.309	21.67
300.523	62.63
300.737	85.16
300.952	11.43
301.166	46.25
301.381	-84.82
301.595	-84.82
301.809	97.45
302.024	52.39
302.238	3.24
302.452	122.02
302.667	36.01
302.881	203.94
303.095	68.78
303.309	25.77
303.524	21.67
303.738	48.3
303.952	-17.24
304.166	17.58
304.381	-174.93
304.595	181.42
304.809	-105.3
305.023	23.72
305.237	-2.9
305.452	52.39
305.666	9.39
305.88	56.49
306.094	93.35
306.308	66.73
306.522	31.91
306.736	31.91
306.95	87.21
307.164	31.91
307.379	-4.95
307.593	91.31
307.807	158.89
308.021	89.26
308.235	19.63
308.449	-95.06
308.663	19.63
308.877	201.9
309.091	48.3
309.305	124.07
309.519	-45.91
309.733	111.78
309.947	-33.62
310.161	62.63
310.374	72.87
310.588	99.5
310.802	-19.29
311.016	19.63
311.23	142.5
311.444	-72.53
311.658	60.59
311.872	203.94
312.085	111.78
312.299	154.79
312.513	173.22
312.727	95.4
312.941	-19.29
313.154	-27.48
313.368	31.91
313.582	105.64
313.796	-15.19
314.009	-41.81
314.223	183.46
314.437	52.39
314.651	46.25
314.864	-25.43
315.078	-7
315.292	13.48
315.505	42.15
315.719	72.87
315.933	62.63
316.146	-25.43
316.36	-56.15
316.573	197.8
316.787	95.4
317.001	111.78
317.214	-76.63
317.428	52.39
317.641	-2.9
317.855	-39.76
318.068	74.92
318.282	7.34
318.495	146.6
318.709	99.5
318.922	-21.33
319.136	169.13
319.349	70.83
319.563	17.58
319.776	42.15
319.99	-29.52
320.203	79.02
320.417	7.34
320.63	167.08
320.843	126.12
321.057	52.39
321.27	5.29
321.483	136.36
321.697	124.07
321.91	13.48
322.124	54.44
322.337	70.83
322.55	-27.48
322.763	68.78
322.977	-11.09
323.19	-58.2
323.403	-0.85
323.617	83.11
323.83	93.35
324.043	42.15
324.256	97.45
324.469	-19.29
324.683	79.02
324.896	-39.76
325.109	-7
325.322	-47.96
325.535	70.83
325.748	115.88
325.962	17.58
326.175	21.67
326.388	83.11
326.601	40.11
326.814	-43.86
327.027	99.5
327.24	201.9
327.453	-66.39
327.666	148.65
327.879	81.07
328.092	29.87
328.305	70.83
328.518	27.82
328.731	-58.2
328.944	-64.34
329.157	62.63
329.37	105.64
329.583	181.42
329.796	111.78
330.009	-60.24
330.222	93.35
330.435	54.44
330.648	33.96
330.861	38.06
331.073	-27.48
331.286	93.35
331.499	19.63
331.712	-41.81
331.925	-21.33
332.138	83.11
332.35	97.45
332.563	62.63
332.776	87.21
332.989	42.15
333.202	-33.62
333.414	115.88
333.627	66.73
333.84	-39.76
334.053	42.15
334.265	11.43
334.478	60.59
334.691	-43.86
334.903	15.53
335.116	17.58
335.329	-33.62
335.541	50.35
335.754	183.46
335.966	-11.09
336.179	1.19
336.392	103.59
336.604	7.34
336.817	95.4
337.029	21.67
337.242	48.3
337.454	154.79
337.667	-47.96
337.88	134.31
338.092	54.44
338.305	54.44
338.517	40.11
338.729	89.26
338.942	99.5
339.154	-68.44
339.367	-78.68
339.579	52.39
339.792	-0.85
340.004	52.39
340.217	-43.86
340.429	83.11
340.641	-41.81
340.854	-60.24
341.066	42.15
341.278	76.97
341.491	169.13
341.703	72.87
341.915	13.48
342.128	144.55
342.34	54.44
342.552	-86.87
342.764	11.43
342.977	-56.15
343.189	95.4
343.401	87.21
343.613	-90.96
343.826	-2.9
344.038	-50
344.25	81.07
344.462	-56.15
344.674	38.06
344.886	62.63
345.099	105.64
345.311	58.54
345.523	27.82
345.735	-37.72
345.947	93.35
346.159	97.45
346.371	-17.24
346.583	-13.14
346.795	205.99
347.007	48.3
347.219	33.96
347.431	68.78
347.643	130.22
347.855	27.82
348.067	46.25
348.279	-68.44
348.491	85.16
348.703	42.15
348.915	72.87
349.127	-29.52
349.339	132.26
349.551	11.43
349.763	91.31
349.975	117.93
350.187	87.21
350.399	152.74
350.61	50.35
350.822	54.44
351.034	95.4
351.246	38.06
351.458	11.43
351.669	56.49
351.881	150.7
352.093	160.94
352.305	101.55
352.517	44.2
352.728	117.93
352.94	70.83
353.152	87.21
353.363	-7
353.575	158.89
353.787	218.28
353.999	99.5
354.21	173.22
354.422	-72.53
354.633	21.67
354.845	17.58
355.057	79.02
355.268	5.29
355.48	70.83
355.692	-2.9
355.903	-47.96
356.115	-64.34
356.326	-50
356.538	119.98
356.749	3.24
356.961	201.9
357.172	99.5
357.384	-84.82
357.595	150.7
357.807	-17.24
358.018	17.58
358.23	29.87
358.441	165.03
358.653	117.93
358.864	85.16
359.075	-37.72
359.287	5.29
359.498	70.83
359.709	31.91
359.921	87.21
360.132	136.36
360.344	72.87
360.555	-80.72
360.766	33.96
360.977	33.96
361.189	38.06
361.4	27.82
361.611	93.35
361.823	95.4
362.034	33.96
362.245	-25.43
362.456	54.44
362.667	46.25
362.879	-31.57
363.09	83.11
363.301	111.78
363.512	48.3
363.723	-7
363.935	-70.48
364.146	124.07
364.357	124.07
364.568	48.3
364.779	-4.95
364.99	132.26
365.201	5.29
365.412	87.21
365.623	-125.78
365.834	72.87
366.045	15.53
366.256	95.4
366.467	64.68
366.678	50.35
366.889	29.87
367.1	1.19
367.311	113.83
367.522	15.53
367.733	83.11
367.944	179.37
368.155	19.63
368.366	85.16
368.577	103.59
368.788	76.97
368.999	-25.43
369.209	-76.63
369.42	216.23
369.631	287.91
369.842	44.2
370.053	-31.57
370.264	76.97
370.474	-0.85
370.685	-9.05
370.896	29.87
371.107	113.83
371.317	95.4
371.528	46.25
371.739	134.31
371.95	3.24
372.16	103.59
372.371	-68.44
372.582	-4.95
372.792	74.92
373.003	60.59
373.214	85.16
373.424	60.59
373.635	-68.44
373.846	187.56
374.056	7.34
374.267	74.92
374.477	79.02
374.688	46.25
374.898	132.26
375.109	23.72
375.319	42.15
375.53	115.88
375.74	52.39
375.951	-17.24
376.161	89.26
376.372	60.59
376.582	-58.2
376.793	29.87
377.003	113.83
377.214	11.43
377.424	27.82
377.635	85.16
377.845	-4.95
378.055	136.36
378.266	-50
378.476	-31.57
378.686	93.35
378.897	62.63
379.107	132.26
379.317	126.12
379.528	13.48
379.738	181.42
379.948	-25.43
380.158	109.74
380.369	87.21
380.579	56.49
380.789	87.21
380.999	68.78
381.21	91.31
381.42	230.57
381.63	48.3
381.84	115.88
382.05	124.07
382.261	44.2
382.471	158.89
382.681	-35.67
382.891	160.94
383.101	107.69
383.311	-27.48
383.521	-23.38
383.731	89.26
383.941	134.31
384.151	56.49
384.361	33.96
384.571	83.11
384.781	79.02
384.991	162.98
385.201	140.46
385.411	167.08
385.621	42.15
385.831	44.2
386.041	44.2
386.251	46.25
386.461	132.26
386.671	44.2
386.881	25.77
387.091	23.72
387.301	113.83
387.511	48.3
387.72	128.17
387.93	97.45
388.14	-88.92
388.35	58.54
388.56	93.35
388.769	21.67
388.979	97.45
389.189	-11.09
389.399	72.87
389.609	136.36
389.818	56.49
390.028	111.78
390.238	-17.24
390.447	58.54
390.657	72.87
390.867	91.31
391.076	-37.72
391.286	81.07
391.496	134.31
391.705	48.3
391.915	107.69
392.125	107.69
392.334	-15.19
392.544	99.5
392.753	42.15
392.963	-76.63
393.172	15.53
393.382	-11.09
393.591	158.89
393.801	-9.05
394.01	146.6
394.22	97.45
394.429	40.11
394.639	-64.34
394.848	46.25
395.058	13.48
395.267	9.39
395.477	89.26
395.686	38.06
395.895	199.85
396.105	210.09
396.314	79.02
396.524	50.35
396.733	105.64
396.942	134.31
397.152	91.31
397.361	109.74
397.57	117.93
397.78	-0.85
397.989	42.15
398.198	249
398.407	50.35
398.617	13.48
398.826	64.68
399.035	50.35
399.244	85.16
399.453	50.35
399.663	52.39
399.872	-23.38
400.081	-62.29
400.29	101.55
400.499	-80.72
400.708	124.07
400.917	91.31
401.127	38.06
401.336	85.16
401.545	283.81
401.754	171.18
401.963	87.21
402.172	1.19
402.381	-21.33
402.59	83.11
402.799	95.4
403.008	72.87
403.217	99.5
403.426	-23.38
403.635	9.39
403.844	68.78
404.053	27.82
404.262	85.16
404.471	189.61
404.68	44.2
404.888	21.67
405.097	-31.57
405.306	56.49
405.515	99.5
405.724	13.48
405.933	103.59
406.142	27.82
406.35	140.46
406.559	50.35
406.768	33.96
406.977	97.45
407.185	64.68
407.394	11.43
407.603	-4.95
407.812	-13.14
408.02	152.74
408.229	126.12
408.438	50.35
408.646	-133.97
408.855	46.25
409.064	31.91
409.272	33.96
409.481	76.97
409.69	68.78
409.898	-101.2
410.107	50.35
410.315	89.26
410.524	33.96
410.733	-15.19
410.941	46.25
411.15	85.16
411.358	44.2
411.567	173.22
411.775	9.39
411.984	52.39
412.192	15.53
412.401	11.43
412.609	193.7
412.818	122.02
413.026	91.31
413.234	19.63
413.443	124.07
413.651	25.77
413.86	40.11
414.068	173.22
414.276	208.04
414.485	17.58
414.693	101.55
414.901	156.84
415.11	87.21
415.318	-13.14
415.526	134.31
415.734	79.02
415.943	122.02
416.151	193.7
416.359	93.35
416.567	89.26
416.776	68.78
416.984	124.07
417.192	228.52
417.4	-25.43
417.608	-21.33
417.817	3.24
418.025	140.46
418.233	169.13
418.441	-41.81
418.649	5.29
418.857	79.02
419.065	130.22
419.273	27.82
419.481	89.26
419.689	17.58
419.897	44.2
420.105	-45.91
420.313	115.88
420.521	134.31
420.729	185.51
420.937	-78.68
421.145	33.96
421.353	132.26
421.561	216.23
421.769	58.54
421.977	31.91
422.185	119.98
422.393	70.83
422.601	173.22
422.809	48.3
423.017	48.3
423.224	91.31
423.432	132.26
423.64	52.39
423.848	165.03
424.056	36.01
424.263	97.45
424.471	87.21
424.679	105.64
424.887	-25.43
425.094	189.61
425.302	68.78
425.51	111.78
425.718	126.12
425.925	128.17
426.133	50.35
426.341	185.51
426.548	29.87
426.756	25.77
426.964	165.03
427.171	-9.05
427.379	109.74
427.586	81.07
427.794	54.44
428.001	142.5
428.209	162.98
428.417	152.74
428.624	160.94
428.832	160.94
429.039	74.92
429.247	91.31
429.454	119.98
429.662	185.51
429.869	85.16
430.076	56.49
430.284	111.78
430.491	162.98
430.699	138.41
430.906	195.75
431.114	150.7
431.321	105.64
431.528	42.15
431.736	193.7
431.943	160.94
432.15	134.31
432.358	119.98
432.565	251.05
432.772	60.59
432.979	171.18
433.187	95.4
433.394	160.94
433.601	158.89
433.808	234.66
434.016	263.33
434.223	208.04
434.43	246.95
434.637	226.47
434.844	275.62
435.052	257.19
435.259	242.85
435.466	242.85
435.673	193.7
435.88	234.66
436.087	345.25
436.294	273.57
436.501	322.73
436.708	275.62
436.915	257.19
437.122	316.58
437.329	251.05
437.537	396.45
437.743	347.3
437.95	416.93
438.157	322.73
438.364	369.83
438.571	328.87
438.778	455.84
438.985	414.88
439.192	525.47
439.399	386.21
439.606	453.8
439.813	490.66
440.02	552.1
440.227	744.61
440.433	588.96
440.64	498.85
440.847	511.14
441.054	593.06
441.261	634.02
441.467	586.91
441.674	484.52
441.881	691.36
442.088	562.34
442.294	738.46
442.501	742.56
442.708	824.48
442.914	722.08
443.121	836.77
443.328	881.82
443.534	943.26
443.741	957.6
443.948	767.13
444.154	830.62
444.361	996.51
444.568	957.6
444.774	965.79
444.981	945.31
445.187	1203.35
445.394	1090.71
445.6	1092.76
445.807	1229.98
446.013	1184.92
446.22	1131.67
446.426	1348.76
446.633	1432.72
446.839	1588.37
447.046	1377.43
447.252	1610.9
447.459	1658
447.665	1584.27
447.871	1744.02
448.078	1914
448.284	1811.6
448.491	2012.3
448.697	2020.49
448.903	2006.16
449.11	2129.03
449.316	2143.37
449.522	2311.3
449.728	2360.45
449.935	2397.32
450.141	2434.18
450.347	2692.23
450.553	2577.54
450.76	2741.38
450.966	2935.93
451.172	2894.97
451.378	3085.44
451.584	3007.61
451.791	3349.62
451.997	3525.75
452.203	3488.89
452.409	3617.91
452.615	3931.25
452.821	3708.02
453.027	3806.32
453.233	4420.71
453.44	4015.21
453.646	4537.45
453.852	4387.94
454.058	4678.76
454.264	4775.01
454.47	5069.92
454.676	5102.68
454.882	5674.07
455.088	5389.4
455.294	5821.52
455.5	6026.32
455.705	6458.44
455.911	6476.87
456.117	6437.96
456.323	6982.72
456.529	6741.06
456.735	7439.42
456.941	7646.26
457.147	7992.37
457.352	8217.65
457.558	8301.61
457.764	9079.84
457.97	9176.09
458.176	9557.02
458.381	10026
458.587	10222.61
458.793	10613.77
458.999	10759.17
459.204	12067.83
459.41	12372.97
459.616	12170.22
459.821	13089.76
460.027	13679.58
460.233	14166.99
460.438	14146.51
460.644	14971.85
460.85	15248.32
461.055	15758.27
461.261	16860.07
461.466	16280.5
461.672	16642.99
461.878	18621.33
462.083	18641.81
462.289	18688.91
462.494	19364.74
462.7	19643.26
462.905	19913.59
463.111	21504.87
463.316	22719.31
463.522	22733.65
463.727	23487.3
463.932	24718.13
464.138	25162.54
464.343	26698.52
464.549	26458.9
464.754	28400.38
464.959	29293.29
465.165	29545.19
465.37	29369.07
465.575	29514.47
465.781	31464.14
465.986	32072.39
466.191	32019.14
466.397	32142.02
466.602	31486.67
466.807	33366.7
467.012	33524.4
467.218	34300.58
467.423	34923.16
467.628	34876.05
467.833	37128.82
468.038	36303.49
468.244	35949.19
468.449	37534.32
468.654	36600.44
468.859	36735.61
469.064	36946.55
469.269	35850.89
469.474	36326.02
469.679	37304.95
469.885	36188.8
470.09	36604.54
470.295	36809.34
470.5	35797.64
470.705	36129.41
470.91	35162.77
471.115	35105.43
471.32	35596.94
471.525	35089.04
471.73	34316.96
471.935	33686.18
472.139	32578.23
472.344	32535.23
472.549	32207.55
472.754	31668.94
472.959	31058.64
473.164	30274.27
473.369	29653.73
473.574	30276.32
473.778	29838.05
473.983	29137.65
474.188	28433.14
474.393	27745.03
474.598	27161.36
474.802	26841.87
475.007	26297.11
475.212	26000.16
475.417	25150.25
475.621	24918.83
475.826	24517.43
476.031	23954.24
476.235	23567.17
476.44	23165.77
476.645	22983.5
476.849	22522.71
477.054	22338.39
477.259	21832.54
477.463	21556.07
477.668	21179.24
477.872	21230.44
478.077	20534.13
478.282	19911.55
478.486	20038.52
478.691	19735.42
478.895	19526.53
479.1	19176.33
479.304	19491.71
479.509	18551.7
479.713	18617.23
479.918	18457.49
480.122	17906.59
480.326	18346.9
480.531	18113.43
480.735	17927.07
480.94	17400.74
481.144	18103.19
481.348	17308.58
481.553	17216.42
481.757	16810.92
481.961	16991.14
482.166	17224.61
482.37	16985
482.574	16475.06
482.778	16438.19
482.983	16710.57
483.187	16378.8
483.391	16393.14
483.595	15979.45
483.8	15782.84
484.004	15971.25
484.208	15766.46
484.412	15418.3
484.616	15242.18
484.821	15051.72
485.025	14640.08
485.229	15078.34
485.433	14588.88
485.637	14429.13
485.841	14230.48
486.045	14025.68
486.249	13937.62
486.453	13528.03
486.657	13663.19
486.861	13245.41
487.065	12913.64
487.269	13061.09
487.473	12696.55
487.677	12612.59
487.881	12489.71
488.085	12043.25
488.289	12119.03
488.493	11688.95
488.697	11914.23
488.901	11387.9
489.105	10974.21
489.309	10935.3
489.512	11025.41
489.716	10527.75
489.92	10601.48
490.124	10120.21
490.328	10228.75
490.531	9853.97
490.735	9976.85
490.939	9708.57
491.143	9260.06
491.346	9366.56
491.55	9079.84
491.754	8993.83
491.958	8881.19
492.161	8875.04
492.365	8592.42
492.569	8430.63
492.772	8455.21
492.976	8098.86
493.18	8150.06
493.383	7980.08
493.587	7932.98
493.79	8043.57
493.994	7435.32
494.197	7556.15
494.401	7578.68
494.605	7439.42
494.808	7353.4
495.012	7472.18
495.215	7369.79
495.419	7443.51
495.622	7085.12
495.825	7179.33
496.029	7169.09
496.232	7248.96
496.436	7185.47
496.639	7173.18
496.843	7251
497.046	7121.98
497.249	7146.56
497.453	7046.21
497.656	6992.96
497.859	6952
498.063	7146.56
498.266	7148.61
498.469	7126.08
498.673	7107.65
498.876	7283.77
499.079	7259.2
499.282	7187.52
499.485	7631.93
499.689	7220.28
499.892	7496.76
500.095	7582.77
500.298	7554.1
500.501	7320.63
500.705	7644.21
500.908	7621.69
501.111	7697.46
501.314	7756.85
501.517	7939.12
501.72	8129.58
501.923	7889.97
502.126	8123.44
502.329	8297.52
502.532	8361
502.735	8434.73
502.938	8422.44
503.141	8602.66
503.344	8873
503.547	8893.47
503.75	8985.63
503.953	8950.82
504.156	9149.47
504.359	9206.81
504.562	9356.32
504.765	9681.94
504.968	9982.99
505.17	9960.47
505.373	10056.72
505.576	10392.59
505.779	10337.29
505.982	10365.96
506.185	10882.05
506.387	10966.02
506.59	10816.52
506.793	11408.38
506.996	11455.48
507.198	11871.22
507.401	12076.02
507.604	12489.71
507.807	12610.54
508.009	12794.86
508.212	12995.56
508.415	13364.19
508.617	13558.75
508.82	13677.53
509.022	14076.88
509.225	14519.25
509.428	14662.6
509.63	15039.43
509.833	15137.73
510.035	15764.41
510.238	16010.17
510.44	16264.11
510.643	16573.36
510.845	17206.18
511.048	17269.67
511.25	18037.66
511.453	18129.81
511.655	19188.61
511.858	19233.67
512.06	19575.68
512.262	19788.67
512.465	19911.55
512.667	20890.48
512.87	21324.65
513.072	21865.31
513.274	22518.61
513.477	22799.18
513.679	23411.53
513.881	23970.62
514.084	24636.21
514.286	24871.73
514.488	25449.25
514.69	26510.1
514.893	26522.39
515.095	27138.83
515.297	27839.23
515.499	28246.78
515.701	29254.38
515.904	29903.59
516.106	30259.93
516.308	30907.09
516.51	31709.89
516.712	31916.74
516.914	33014.45
517.116	33204.91
517.318	33946.28
517.52	34941.59
517.722	34966.17
517.925	35857.03
518.127	36946.55
518.329	37827.18
518.531	37661.29
518.733	38427.23
518.935	39191.12
519.136	39856.71
519.338	40237.64
519.54	40831.55
519.742	42207.78
519.944	42310.18
520.146	42662.43
520.348	43899.4
520.55	44515.84
520.752	44458.5
520.954	45599.22
521.155	45431.29
521.357	46225.9
521.559	47317.46
521.761	47811.03
521.963	48073.17
522.164	48261.58
522.366	48540.1
522.568	49684.92
522.77	49473.98
522.971	50379.18
523.173	49961.39
523.375	50753.96
523.576	50586.02
523.778	50882.98
523.98	51483.03
524.181	51939.73
524.383	51759.51
524.584	52238.73
524.786	52504.97
524.988	52195.73
525.189	52599.18
525.391	52763.01
525.592	52515.21
525.794	52914.56
525.995	52797.83
526.197	52537.74
526.398	52332.94
526.6	52662.66
526.801	52035.98
527.003	52666.76
527.204	52246.93
527.406	52341.13
527.607	51915.15
527.808	51700.12
528.01	50860.45
528.211	51173.79
528.412	51759.51
528.614	51124.64
528.815	50547.11
529.016	51397.02
529.218	49484.22
529.419	49166.78
529.62	48814.53
529.822	48568.77
530.023	48257.48
530.224	48007.63
530.425	47327.7
530.626	46418.41
530.828	45787.63
531.029	46942.69
531.23	44902.91
531.431	44837.37
531.632	44990.97
531.833	44321.29
532.035	43710.99
532.236	42887.71
532.437	43039.26
532.638	42322.47
532.839	41710.13
533.04	41159.22
533.241	40493.63
533.442	40866.36
533.643	39688.78
533.844	39096.92
534.045	38986.33
534.246	37864.04
534.447	37943.91
534.648	37325.43
534.849	36876.92
535.05	36106.88
535.251	35877.51
535.451	35326.61
535.652	34695.83
535.853	34456.22
536.054	34257.57
536.255	33360.56
536.456	32912.05
536.657	33000.12
536.857	32246.46
537.058	31632.07
537.259	31650.5
537.46	30970.58
537.66	30687.96
537.861	30294.75
538.062	29815.52
538.263	29420.27
538.463	28967.66
538.664	28627.7
538.865	28418.81
539.065	28537.59
539.266	27478.79
539.466	27525.89
539.667	26837.78
539.868	27253.51
540.068	26698.52
540.269	26120.99
540.469	26000.16
540.67	25545.51
540.87	25332.52
541.071	25127.72
541.271	24900.4
541.472	24474.42
541.672	24218.43
541.873	23841.6
542.073	23372.61
542.274	23714.62
542.474	23167.82
542.675	22539.09
542.875	22981.45
543.075	22401.88
543.276	22074.2
543.476	22063.96
543.676	21744.48
543.877	21521.25
544.077	21195.62
544.277	21095.27
544.478	20712.3
544.678	20589.42
544.878	20179.83
545.078	20079.48
545.279	19684.22
545.479	19211.14
545.679	19444.61
545.879	19297.16
546.079	19161.99
546.28	18459.54
546.48	18232.21
546.68	18529.17
546.88	17906.59
547.08	18021.27
547.28	17576.86
547.48	17546.14
547.68	17402.79
547.88	16976.81
548.081	17015.72
548.281	16530.35
548.481	16364.46
548.681	16524.21
548.881	15848.38
549.081	15690.68
549.28	15686.59
549.48	15399.87
549.68	15221.7
549.88	15322.05
550.08	14744.52
550.28	14562.25
550.48	14558.16
550.68	14357.46
550.88	14216.15
551.08	13702.11
551.279	13765.59
551.479	13390.81
551.679	13368.29
551.879	12829.67
552.079	13020.13
552.278	12604.39
552.478	12669.93
552.678	12366.83
552.878	11969.52
553.077	11961.33
553.277	11717.62
553.477	11932.66
553.676	11660.28
553.876	11394.04
554.076	11066.37
554.275	11156.48
554.475	10685.45
554.674	10720.26
554.874	10554.38
555.074	10279.95
555.273	10251.28
555.473	10011.67
555.672	9649.18
555.872	9460.76
556.071	9489.43
556.271	9274.4
556.47	9221.15
556.67	8946.72
556.869	8764.45
557.068	8725.54
557.268	8664.1
557.467	8274.99
557.667	8434.73
557.866	8340.52
558.065	7859.25
558.265	7863.35
558.464	7556.15
558.663	7627.83
558.863	7431.23
559.062	7586.87
559.261	7101.5
559.461	7343.16
559.66	6992.96
559.859	6947.9
560.058	6790.21
560.258	6706.24
560.457	6597.7
560.656	6620.23
560.855	6347.85
561.054	6409.29
561.253	6233.16
561.453	6323.27
561.652	6016.08
561.851	6145.1
562.05	5774.42
562.249	5647.44
562.448	5659.73
562.647	5407.83
562.846	5561.43
563.045	5522.52
563.244	5268.57
563.443	5282.91
563.642	5164.12
563.841	5114.97
564.04	5074.01
564.239	5014.62
564.438	4793.44
564.637	4906.08
564.836	4822.11
565.035	4662.37
565.234	4498.53
565.432	4498.53
565.631	4473.96
565.83	4435.05
566.029	4461.67
566.228	4244.59
566.427	4228.2
566.625	3986.54
566.824	4109.42
567.023	4250.73
567.222	3974.25
567.42	4004.97
567.619	3908.72
567.818	3871.86
568.016	3878
568.215	3730.55
568.414	3683.44
568.612	3710.07
568.811	3560.56
569.01	3619.96
569.208	3466.36
569.407	3329.14
569.605	3474.55
569.804	3308.66
570.002	3282.04
570.201	3138.68
570.4	3202.17
570.598	3128.44
570.797	3054.72
570.995	2999.42
571.193	3042.43
571.392	2993.28
571.59	2913.41
571.789	2761.86
571.987	2860.16
572.186	2815.1
572.384	2743.42
572.582	2653.31
572.781	2804.86
572.979	2522.24
573.177	2485.38
573.376	2522.24
573.574	2528.39
573.772	2428.04
573.971	2395.27
574.169	2231.43
574.367	2405.51
574.565	2333.83
574.763	2374.79
574.962	2210.95
575.16	2202.76
575.358	2073.74
575.556	2030.73
575.754	2026.64
575.952	2067.6
576.151	1967.24
576.349	1952.91
576.547	1852.56
576.745	1975.44
576.943	1887.37
577.141	1758.35
577.339	1715.34
577.537	1858.7
577.735	1799.31
577.933	1739.92
578.131	1737.87
578.329	1774.74
578.527	1633.43
578.725	1676.43
578.923	1463.44
579.121	1672.34
579.319	1416.34
579.516	1576.08
579.714	1670.29
579.912	1502.36
580.11	1440.92
580.308	1563.79
580.506	1365.14
580.704	1234.07
580.901	1363.09
581.099	1410.2
581.297	1356.95
581.495	1326.23
581.692	1293.46
581.89	1332.37
582.088	1260.7
582.285	1229.98
582.483	1229.98
582.681	1182.87
582.878	1160.34
583.076	1221.78
583.274	1213.59
583.471	1191.06
583.669	1137.82
583.866	1037.47
584.064	1064.09
584.262	1027.23
584.459	1010.84
584.657	1133.72
584.854	1238.17
585.052	994.46
585.249	1115.29
585.447	1037.47
585.644	902.3
585.841	1029.27
586.039	1043.61
586.236	1047.71
586.434	910.49
586.631	865.44
586.828	853.15
587.026	890.01
587.223	834.72
587.42	910.49
587.618	810.14
587.815	955.55
588.012	849.05
588.21	808.09
588.407	926.88
588.604	816.29
588.801	787.61
588.999	851.1
589.196	877.73
589.393	791.71
589.59	717.98
589.787	779.42
589.984	875.68
590.182	756.9
590.379	601.25
590.576	775.33
590.773	746.66
590.97	707.74
591.167	859.29
591.364	791.71
591.561	715.94
591.758	838.81
591.955	873.63
592.152	789.66
592.349	672.93
592.546	656.54
592.743	699.55
592.94	724.13
593.137	814.24
593.334	810.14
593.531	730.27
593.727	736.42
593.924	662.69
594.121	646.3
594.318	691.36
594.515	822.43
594.712	844.96
594.908	791.71
595.105	654.5
595.302	756.9
595.499	863.39
595.696	869.53
595.892	783.52
596.089	863.39
596.286	804
596.482	920.73
596.679	926.88
596.876	832.67
597.072	984.22
597.269	947.36
597.466	1014.94
597.662	935.07
597.859	1037.47
598.055	984.22
598.252	1002.65
598.448	1182.87
598.645	1160.34
598.841	1205.4
599.038	1332.37
599.234	1391.77
599.431	1332.37
599.627	1404.05
599.824	1279.13
600.02	1475.73
600.217	1535.12
600.413	1498.26
600.609	1701.01
600.806	1852.56
601.002	1739.92
601.198	1709.2
601.395	1916.05
601.591	1983.63
601.787	2067.6
601.984	2186.38
602.18	2208.9
602.376	2288.78
602.572	2409.61
602.769	2485.38
602.965	2501.76
603.161	2768
603.357	2755.71
603.553	2782.34
603.75	2813.06
603.946	3050.62
604.142	3003.52
604.338	3232.89
604.534	3181.69
604.73	3523.7
604.926	3409.01
605.122	3591.28
605.318	3683.44
605.514	3832.94
605.71	3959.92
605.906	4068.46
606.102	4084.84
606.298	4240.49
606.494	4449.38
606.69	4697.19
606.886	4760.67
607.082	4701.28
607.278	4924.51
607.474	5145.69
607.67	5092.44
607.866	5100.64
608.062	5504.09
608.257	5606.49
608.453	5616.72
608.649	5801.04
608.845	5968.98
609.041	6081.61
609.236	6450.25
609.432	6583.37
609.628	6704.2
609.824	6929.47
610.019	7158.85
610.215	7126.08
610.411	7519.29
610.606	7875.63
610.802	8049.71
610.998	8066.1
611.193	8467.5
611.389	8109.1
611.584	8608.81
611.78	8762.4
611.976	8989.73
612.171	9405.47
612.367	9690.13
612.562	10056.72
612.758	10042.39
612.953	10271.76
613.149	10701.83
613.344	11023.36
613.539	11283.45
613.735	11635.71
613.93	11936.76
614.126	12051.44
614.321	12415.98
614.517	12882.92
614.712	13061.09
614.907	13728.73
615.103	13814.74
615.298	13980.63
615.493	14705.61
615.688	14750.67
615.884	15186.88
616.079	15541.18
616.274	16042.93
616.47	16210.87
616.665	16542.64
616.86	17093.54
617.055	17576.86
617.25	17945.5
617.445	18539.41
617.641	18428.82
617.836	19229.57
618.031	19567.49
618.226	20622.19
618.421	20568.94
618.616	21363.56
618.811	21156.71
619.006	22385.49
619.201	22702.93
619.396	23262.02
619.591	23362.37
619.786	24220.47
619.981	24402.74
620.176	25156.39
620.371	25664.29
620.566	26202.91
620.761	26985.23
620.956	27665.16
621.151	27429.64
621.346	28338.94
621.541	28531.45
621.735	29272.81
621.93	29453.03
622.125	30137.05
622.32	30663.38
622.515	31298.25
622.709	31832.77
622.904	32688.82
623.099	32910
623.294	33528.49
623.488	33913.51
623.683	34904.73
623.878	35009.17
624.072	36086.4
624.267	36563.58
624.462	36948.6
624.656	37075.57
624.851	38083.17
625.046	38234.72
625.24	39144.02
625.435	39201.36
625.629	40014.41
625.824	40530.5
626.018	40831.55
626.213	40966.71
626.407	41867.82
626.602	41792.04
626.796	42467.87
626.991	43215.38
627.185	42863.13
627.38	43371.03
627.574	43231.77
627.768	43139.61
627.963	43817.49
628.157	43815.44
628.352	44177.93
628.546	43797.01
628.74	44321.29
628.935	43751.95
629.129	43745.81
629.323	43215.38
629.517	43022.87
629.712	42584.61
629.906	42363.43
630.1	41099.83
630.294	41560.62
630.489	40761.92
630.683	40618.56
630.877	39555.66
631.071	38537.82
631.265	38533.73
631.459	36819.58
631.653	36348.54
631.848	35725.96
632.042	34890.39
632.236	33491.63
632.43	32772.79
632.624	32053.95
632.818	30567.13
633.012	29795.04
633.206	28912.37
633.4	28039.93
633.594	26585.88
633.788	25887.52
633.982	25414.44
634.176	23989.05
634.369	23229.26
634.563	22481.75
634.757	21287.78
634.951	20663.15
635.145	19884.92
635.339	18926.47
635.533	18264.98
635.726	17976.22
635.92	16530.35
636.114	15999.93
636.308	15565.76
636.501	14971.85
636.695	14285.78
636.889	13591.52
637.083	13194.21
637.276	12553.2
637.47	11955.19
637.664	11488.25
637.857	11146.24
638.051	10703.88
638.244	9980.95
638.438	9716.76
638.632	9679.89
638.825	8811.56
639.019	8803.36
639.212	8188.97
639.406	8004.66
639.599	7691.32
639.793	7386.17
639.986	6964.29
640.18	7029.82
640.373	6476.87
640.567	6290.51
640.76	6145.1
640.954	5968.98
641.147	5413.98
641.34	5440.6
641.534	5221.47
641.727	5067.87
641.92	4887.65
642.114	4584.55
642.307	4383.85
642.5	4367.46
642.694	3972.21
642.887	3857.52
643.08	4007.02
643.273	3744.88
643.467	3462.26
643.66	3323
643.853	3208.31
644.046	3206.27
644.239	2976.89
644.432	2868.35
644.626	2737.28
644.819	2675.84
645.012	2423.94
645.205	2530.44
645.398	2419.85
645.591	2174.09
645.784	2165.9
645.977	2176.14
646.17	2032.78
646.363	1963.15
646.556	1836.17
646.749	1698.96
646.942	1662.1
647.135	1748.11
647.328	1592.47
647.521	1512.6
647.714	1461.4
647.907	1518.74
648.099	1285.27
648.292	1367.19
648.485	1313.94
648.678	1301.65
648.871	1152.15
649.064	1148.06
649.256	1051.8
649.449	1027.23
649.642	890.01
649.835	1033.37
650.027	810.14
650.22	969.88
650.413	869.53
650.605	873.63
650.798	832.67
650.991	822.43
651.183	758.94
651.376	828.57
651.568	769.18
651.761	619.68
651.954	640.16
652.146	603.3
652.339	693.41
652.531	609.44
652.724	502.95
652.916	533.67
653.109	443.56
653.301	623.78
653.494	599.2
653.686	502.95
653.879	595.11
654.071	461.99
654.263	472.23
654.456	502.95
654.648	601.25
654.84	519.33
655.033	380.07
655.225	617.63
655.417	394.4
655.61	457.89
655.802	429.22
655.994	541.86
656.186	265.38
656.379	386.21
656.571	330.92
656.763	261.29
656.955	314.53
657.148	269.48
657.34	459.94
657.532	212.14
657.724	246.95
657.916	246.95
658.108	418.98
658.3	326.82
658.492	351.4
658.684	197.8
658.876	343.21
659.068	193.7
659.26	212.14
659.452	156.84
659.644	187.56
659.836	355.49
660.028	234.66
660.22	294.05
660.412	232.62
660.604	136.36
660.796	277.67
660.988	234.66
661.18	205.99
661.372	238.76
661.563	203.94
661.755	146.6
661.947	160.94
662.139	171.18
662.331	195.75
662.522	185.51
662.714	119.98
662.906	122.02
663.097	253.09
663.289	113.83
663.481	76.97
663.673	259.24
663.864	154.79
664.056	210.09
664.247	146.6
664.439	253.09
664.631	246.95
664.822	232.62
665.014	216.23
665.205	64.68
665.397	117.93
665.588	126.12
665.78	185.51
665.971	275.62
666.163	156.84
666.354	117.93
666.546	68.78
666.737	93.35
666.929	115.88
667.12	111.78
667.311	177.32
667.503	171.18
667.694	136.36
667.885	162.98
668.077	208.04
668.268	23.72
668.459	156.84
668.651	154.79
668.842	124.07
669.033	29.87
669.224	85.16
669.416	261.29
669.607	105.64
669.798	23.72
669.989	214.18
670.18	95.4
670.371	205.99
670.563	89.26
670.754	160.94
670.945	175.27
671.136	199.85
671.327	119.98
671.518	152.74
671.709	310.44
671.9	177.32
672.091	218.28
672.282	68.78
672.473	140.46
672.664	115.88
672.855	70.83
673.046	91.31
673.237	148.65
673.428	113.83
673.619	142.5
673.809	33.96
674	230.57
674.191	173.22
674.382	91.31
674.573	126.12
674.764	138.41
674.954	158.89
675.145	101.55
675.336	109.74
675.527	138.41
675.717	115.88
675.908	38.06
676.099	56.49
676.289	148.65
676.48	-15.19
676.671	132.26
676.861	126.12
677.052	160.94
677.243	109.74
677.433	109.74
677.624	152.74
677.814	191.66
678.005	87.21
678.195	234.66
678.386	144.55
678.576	144.55
678.767	95.4
678.957	181.42
679.148	195.75
679.338	289.96
679.529	226.47
679.719	167.08
679.909	193.7
680.1	136.36
680.29	197.8
680.481	58.54
680.671	343.21
680.861	224.42
681.052	251.05
681.242	142.5
681.432	189.61
681.622	185.51
681.813	40.11
682.003	52.39
682.193	87.21
682.383	103.59
682.573	132.26
682.764	183.46
682.954	224.42
683.144	283.81
683.334	158.89
683.524	173.22
683.714	212.14
683.904	185.51
684.094	150.7
684.284	218.28
684.474	228.52
684.664	128.17
684.854	183.46
685.044	175.27
685.234	212.14
685.424	244.9
685.614	76.97
685.804	320.68
685.994	222.38
686.184	111.78
686.374	175.27
686.564	165.03
686.753	156.84
686.943	93.35
687.133	218.28
687.323	191.66
687.513	220.33
687.702	126.12
687.892	205.99
688.082	281.77
688.272	232.62
688.461	150.7
688.651	230.57
688.841	195.75
689.03	177.32
689.22	117.93
689.41	167.08
689.599	197.8
689.789	165.03
689.979	330.92
690.168	185.51
690.358	205.99
690.547	251.05
690.737	257.19
690.926	232.62
691.116	169.13
691.305	263.33
691.495	201.9
691.684	99.5
691.874	236.71
692.063	117.93
692.252	189.61
692.442	263.33
692.631	181.42
692.82	173.22
693.01	175.27
693.199	201.9
693.388	183.46
693.578	222.38
693.767	232.62
693.956	251.05
694.146	273.57
694.335	257.19
694.524	203.94
694.713	240.81
694.902	191.66
695.092	197.8
695.281	224.42
695.47	158.89
695.659	275.62
695.848	205.99
696.037	117.93
696.226	68.78
696.415	255.14
696.604	285.86
696.793	249
696.982	158.89
697.171	318.63
697.36	142.5
697.549	201.9
697.738	140.46
697.927	169.13
698.116	160.94
698.305	244.9
698.494	208.04
698.683	122.02
698.872	275.62
699.061	142.5
699.25	117.93
699.438	263.33
699.627	105.64
699.816	289.96
700.005	105.64
700.193	136.36
700.382	316.58
700.571	218.28
700.76	298.15
700.948	263.33
701.137	230.57
701.326	292.01
701.514	146.6
701.703	236.71
701.892	265.38
702.08	341.16
702.269	187.56
702.457	175.27
702.646	136.36
702.834	150.7
703.023	281.77
703.212	218.28
703.4	257.19
703.589	195.75
703.777	136.36
703.965	189.61
704.154	214.18
704.342	165.03
704.531	150.7
704.719	199.85
704.907	238.76
705.096	115.88
705.284	156.84
705.472	197.8
705.661	132.26
705.849	189.61
706.037	228.52
706.226	234.66
706.414	253.09
706.602	177.32
706.79	226.47
706.979	144.55
707.167	197.8
707.355	105.64
707.543	242.85
707.731	310.44
707.919	193.7
708.107	128.17
708.296	210.09
708.484	76.97
708.672	259.24
708.86	298.15
709.048	189.61
709.236	146.6
709.424	304.29
709.612	269.48
709.8	76.97
709.988	132.26
710.176	281.77
710.364	285.86
710.551	165.03
710.739	144.55
710.927	220.33
711.115	212.14
711.303	255.14
711.491	203.94
711.679	126.12
711.866	287.91
712.054	165.03
712.242	224.42
712.43	267.43
712.617	126.12
712.805	220.33
712.993	197.8
713.181	156.84
713.368	236.71
713.556	160.94
713.744	195.75
713.931	375.97
714.119	255.14
714.306	210.09
714.494	132.26
714.682	144.55
714.869	128.17
715.057	230.57
715.244	122.02
715.432	181.42
715.619	173.22
715.807	201.9
715.994	187.56
716.182	181.42
716.369	199.85
716.556	181.42
716.744	54.44
716.931	115.88
717.119	281.77
717.306	138.41
717.493	158.89
717.681	220.33
717.868	236.71
718.055	216.23
718.242	195.75
718.43	191.66
718.617	261.29
718.804	216.23
718.991	263.33
719.179	246.95
719.366	275.62
719.553	160.94
719.74	242.85
719.927	160.94
720.114	257.19
720.301	146.6
720.488	124.07
720.676	167.08
720.863	289.96
721.05	392.36
721.237	275.62
721.424	316.58
721.611	175.27
721.798	138.41
721.985	150.7
722.172	246.95
722.358	244.9
722.545	298.15
722.732	246.95
722.919	279.72
723.106	218.28
723.293	220.33
723.48	281.77
723.667	210.09
723.853	298.15
724.04	281.77
724.227	287.91
724.414	165.03
724.6	259.24
724.787	386.21
724.974	361.64
725.161	298.15
725.347	199.85
725.534	234.66
725.72	218.28
725.907	359.59
726.094	259.24
726.28	158.89
726.467	189.61
726.653	140.46
726.84	332.97
727.027	349.35
727.213	269.48
727.4	246.95
727.586	208.04
727.773	218.28
727.959	244.9
728.145	255.14
728.332	261.29
728.518	249
728.705	316.58
728.891	216.23
729.077	220.33
729.264	150.7
729.45	181.42
729.636	285.86
729.823	246.95
730.009	287.91
730.195	277.67
730.382	220.33
730.568	181.42
730.754	326.82
730.94	214.18
731.126	300.2
731.313	298.15
731.499	228.52
731.685	261.29
731.871	324.77
732.057	339.11
732.243	320.68
732.429	322.73
732.615	312.49
732.801	314.53
732.987	226.47
733.173	242.85
733.359	273.57
733.545	228.52
733.731	238.76
733.917	375.97
734.103	246.95
734.289	228.52
734.475	208.04
734.661	480.42
734.847	304.29
735.033	300.2
735.219	332.97
735.404	277.67
735.59	222.38
735.776	216.23
735.962	275.62
736.148	292.01
736.333	316.58
736.519	249
736.705	289.96
736.89	226.47
737.076	201.9
737.262	181.42
737.447	140.46
737.633	132.26
737.819	300.2
738.004	275.62
738.19	226.47
738.375	189.61
738.561	310.44
738.747	267.43
738.932	201.9
739.118	421.03
739.303	255.14
739.489	322.73
739.674	220.33
739.859	228.52
740.045	394.4
740.23	214.18
740.416	208.04
740.601	304.29
740.786	298.15
740.972	226.47
741.157	314.53
741.342	156.84
741.528	152.74
741.713	263.33
741.898	246.95
742.084	187.56
742.269	275.62
742.454	294.05
742.639	337.06
742.824	165.03
743.01	369.83
743.195	304.29
743.38	296.1
743.565	289.96
743.75	246.95
743.935	312.49
744.12	285.86
744.305	117.93
744.49	224.42
744.675	269.48
744.86	203.94
745.045	339.11
745.23	287.91
745.415	181.42
745.6	306.34
745.785	205.99
745.97	269.48
746.155	265.38
746.34	318.63
746.525	289.96
746.71	468.13
746.895	154.79
747.079	152.74
747.264	230.57
747.449	289.96
747.634	228.52
747.819	259.24
748.003	335.01
748.188	197.8
748.373	228.52
748.557	320.68
748.742	298.15
748.927	259.24
749.111	220.33
749.296	205.99
749.481	310.44
749.665	240.81
749.85	195.75
750.034	277.67
750.219	265.38
750.404	201.9
750.588	212.14
750.773	240.81
750.957	279.72
751.141	183.46
751.326	234.66
751.51	173.22
751.695	205.99
751.879	165.03
752.064	316.58
752.248	212.14
752.432	312.49
752.617	357.54
752.801	226.47
752.985	162.98
753.17	294.05
753.354	214.18
753.538	253.09
753.722	251.05
753.907	140.46
754.091	189.61
754.275	257.19
754.459	158.89
754.643	76.97
754.828	195.75
755.012	249
755.196	113.83
755.38	195.75
755.564	54.44
755.748	130.22
755.932	208.04
756.116	279.72
756.3	232.62
756.484	158.89
756.668	218.28
756.852	128.17
757.036	197.8
757.22	179.37
757.404	119.98
757.588	140.46
757.772	226.47
757.956	158.89
758.14	277.67
758.323	79.02
758.507	230.57
758.691	107.69
758.875	240.81
759.059	236.71
759.242	146.6
759.426	218.28
759.61	177.32
759.794	99.5
759.977	246.95
760.161	335.01
760.345	281.77
760.528	212.14
760.712	97.45
760.895	226.47
761.079	185.51
761.263	89.26
761.446	91.31
761.63	58.54
761.813	216.23
761.997	115.88
762.18	201.9
762.364	212.14
762.547	1.19
762.731	122.02
762.914	91.31
763.098	111.78
763.281	83.11
763.464	87.21
763.648	156.84
763.831	101.55
764.015	79.02
764.198	136.36
764.381	117.93
764.564	109.74
764.748	212.14
764.931	87.21
765.114	134.31
765.297	117.93
765.481	33.96
765.664	72.87
765.847	87.21
766.03	210.09
766.213	76.97
766.397	87.21
766.58	-41.81
766.763	214.18
766.946	68.78
767.129	97.45
767.312	38.06
767.495	68.78
767.678	99.5
767.861	144.55
768.044	101.55
768.227	42.15
768.41	60.59
768.593	103.59
768.776	109.74
768.959	122.02
769.142	175.27
769.324	-19.29
769.507	115.88
769.69	23.72
769.873	113.83
770.056	283.81
770.239	117.93
770.421	181.42
770.604	167.08
770.787	93.35
770.97	156.84
771.152	-17.24
771.335	44.2
771.518	44.2
771.7	302.25
771.883	210.09
772.066	83.11
772.248	122.02
772.431	158.89
772.613	99.5
772.796	64.68
772.978	132.26
773.161	203.94
773.343	95.4
773.526	97.45
773.708	15.53
773.891	-56.15
774.073	-19.29
774.256	48.3
774.438	205.99
774.621	-4.95
774.803	81.07
774.985	103.59
775.168	183.46
775.35	1.19
775.532	101.55
775.715	21.67
775.897	72.87
776.079	44.2
776.261	99.5
776.444	76.97
776.626	72.87
776.808	58.54
776.99	40.11
777.173	95.4
777.355	126.12
777.537	109.74
777.719	70.83
777.901	-2.9
778.083	-35.67
778.265	21.67
778.447	128.17
778.629	19.63
778.811	91.31
778.993	81.07
779.175	79.02
779.357	74.92
779.539	-23.38
779.721	85.16
779.903	89.26
780.085	54.44
780.267	58.54
780.449	21.67
780.631	17.58
780.812	146.6
780.994	124.07
781.176	72.87
781.358	68.78
781.54	42.15
781.721	148.65
781.903	122.02
782.085	115.88
782.267	74.92
782.448	3.24
782.63	31.91
782.812	72.87
782.993	60.59
783.175	38.06
783.357	1.19
783.538	87.21
783.72	-13.14
783.901	50.35
784.083	58.54
784.264	132.26
784.446	-70.48
784.627	-39.76
784.809	64.68
784.99	9.39
785.172	111.78
785.353	1.19
785.535	81.07
785.716	-23.38
785.897	7.34
786.079	48.3
786.26	9.39
786.441	13.48
786.623	-60.24
786.804	-72.53
786.985	-11.09
787.167	76.97
787.348	48.3
787.529	-31.57
787.71	117.93
787.891	52.39
788.073	25.77
788.254	-52.05
788.435	191.66
788.616	7.34
788.797	-23.38
788.978	74.92
789.159	-11.09
789.34	107.69
789.522	81.07
789.703	-29.52
789.884	54.44
790.065	13.48
790.246	74.92
790.427	-35.67
790.607	56.49
790.788	107.69
790.969	-25.43
791.15	48.3
791.331	-82.77
791.512	-27.48
791.693	-56.15
791.874	54.44
792.054	201.9
792.235	130.22
792.416	-35.67
792.597	-113.49
792.778	62.63
792.958	38.06
793.139	25.77
793.32	79.02
793.5	-31.57
793.681	162.98
793.862	74.92
794.042	19.63
794.223	-50
794.404	23.72
794.584	-23.38
794.765	-64.34
794.945	-45.91
795.126	97.45
795.306	21.67
795.487	-0.85
795.667	-37.72
795.848	42.15
796.028	1.19
796.209	46.25
796.389	25.77
796.57	-17.24
796.75	-47.96
796.93	70.83
797.111	25.77
797.291	1.19
797.471	150.7
797.652	7.34
797.832	-15.19
798.012	87.21
798.192	7.34
798.373	-21.33
798.553	-43.86
798.733	7.34
798.913	-21.33
799.093	38.06
799.274	54.44
799.454	99.5
799.634	17.58
799.814	93.35
799.994	54.44
800.174	79.02
800.354	107.69
800.534	-107.35
800.714	70.83
800.894	-99.16
801.074	-25.43
801.254	-64.34
801.434	54.44
801.614	-31.57
801.794	-35.67
801.974	1879.18
802.154	-47.96
802.334	124.07
802.514	-19.29
802.693	-80.72
802.873	-113.49
803.053	134.31
803.233	48.3
803.413	70.83
803.592	-23.38
803.772	36.01
803.952	-76.63
804.131	-60.24
804.311	140.46
804.491	144.55
804.67	-45.91
804.85	-64.34
805.03	81.07
805.209	56.49
805.389	-39.76
805.568	-39.76
805.748	19.63
805.928	-90.96
806.107	85.16
806.287	56.49
806.466	46.25
806.646	-52.05
806.825	27.82
807.004	13.48
807.184	17.58
807.363	87.21
807.543	-15.19
807.722	11.43
807.901	148.65
808.081	126.12
808.26	-72.53
808.439	31.91
808.619	23.72
808.798	-60.24
808.977	11.43
809.156	101.55
809.336	-31.57
809.515	68.78
809.694	-95.06
809.873	-19.29
810.052	11.43
810.231	93.35
810.411	-11.09
810.59	144.55
810.769	25.77
810.948	83.11
811.127	-142.16
811.306	-52.05
811.485	-47.96
811.664	142.5
811.843	11.43
812.022	-2.9
812.201	-80.72
812.38	-7
812.559	-17.24
812.737	42.15
812.916	-41.81
813.095	-43.86
813.274	-13.14
813.453	40.11
813.632	140.46
813.811	31.91
813.989	-56.15
814.168	70.83
814.347	-82.77
814.526	40.11
814.704	101.55
814.883	87.21
815.062	40.11
815.24	17.58
815.419	-21.33
815.598	56.49
815.776	-74.58
815.955	42.15
816.133	-168.79
816.312	58.54
816.49	-68.44
816.669	44.2
816.847	52.39
817.026	-21.33
817.204	-27.48
817.383	-9.05
817.561	-56.15
817.74	31.91
817.918	19.63
818.097	-72.53
818.275	-29.52
818.453	72.87
818.632	-4.95
818.81	-13.14
818.988	-21.33
819.167	-97.11
819.345	-7
819.523	-60.24
819.701	-45.91
819.879	52.39
820.058	3.24
820.236	-15.19
820.414	79.02
820.592	-105.3
820.77	-13.14
820.948	-27.48
821.127	-2.9
821.305	44.2
821.483	-76.63
821.661	31.91
821.839	62.63
822.017	-4.95
822.195	-84.82
822.373	50.35
822.551	-25.43
822.729	-17.24
822.907	-50
823.085	31.91
823.262	17.58
823.44	-0.85
823.618	-50
823.796	17.58
823.974	-15.19
824.152	-17.24
824.329	-15.19
824.507	-17.24
824.685	119.98
824.863	-29.52
825.04	52.39
825.218	-33.62
825.396	5.29
825.574	33.96
825.751	31.91
825.929	31.91
826.107	-0.85
826.284	-56.15
826.462	-2.9
826.639	-50
826.817	-90.96
826.994	101.55
827.172	-56.15
827.349	109.74
827.527	-58.2
827.704	-37.72
827.882	93.35
828.059	54.44
828.237	13.48
828.414	50.35
828.591	-119.64
828.769	60.59
828.946	-115.54
829.124	-23.38
829.301	105.64
829.478	21.67
829.655	62.63
829.833	-70.48
830.01	-117.59
830.187	31.91
830.364	-11.09
830.542	3.24
830.719	107.69
830.896	21.67
831.073	48.3
831.25	17.58
831.427	31.91
831.604	72.87
831.782	-25.43
831.959	64.68
832.136	-58.2
832.313	3.24
832.49	-7
832.667	-31.57
832.844	-19.29
833.021	132.26
833.198	42.15
833.374	21.67
833.551	70.83
833.728	-25.43
833.905	11.43
834.082	-121.68
834.259	68.78
834.436	122.02
834.612	-80.72
834.789	62.63
834.966	-31.57
835.143	27.82
835.319	-52.05
835.496	66.73
835.673	33.96
835.85	70.83
836.026	62.63
836.203	48.3
836.38	-70.48
836.556	-37.72
836.733	-21.33
836.909	97.45
837.086	9.39
837.262	-103.25
837.439	-35.67
837.616	-68.44
837.792	-21.33
837.968	48.3
838.145	-101.2
838.321	-25.43
838.498	81.07
838.674	74.92
838.851	5.29
839.027	-62.29
839.203	-7
839.38	19.63
839.556	-78.68
839.732	56.49
839.909	-56.15
840.085	117.93
840.261	-113.49
840.437	-47.96
840.614	-56.15
840.79	31.91
840.966	46.25
841.142	5.29
841.318	-15.19
841.494	-13.14
841.671	56.49
841.847	-29.52
842.023	-35.67
842.199	-33.62
842.375	52.39
842.551	-86.87
842.727	-74.58
842.903	-0.85
843.079	-43.86
843.255	-17.24
843.431	-29.52
843.607	-4.95
843.783	-39.76
843.959	5.29
844.134	-27.48
844.31	66.73
844.486	-2.9
844.662	-31.57
844.838	-54.1
845.013	42.15
845.189	109.74
845.365	60.59
845.541	83.11
845.716	21.67
845.892	81.07
846.068	-39.76
846.244	-23.38
846.419	-17.24
846.595	-60.24
846.77	-70.48
846.946	58.54
847.122	-25.43
847.297	25.77
847.473	132.26
847.648	-107.35
847.824	21.67
847.999	-125.78
848.175	-60.24
848.35	54.44
848.526	117.93
848.701	-13.14
848.876	89.26
849.052	117.93
849.227	-15.19
849.403	-52.05
849.578	9.39
849.753	5.29
849.929	81.07
850.104	-21.33
850.279	13.48
850.454	-23.38
850.63	29.87
850.805	15.53
850.98	-47.96
851.155	17.58
851.33	31.91
851.505	-82.77
851.681	136.36
851.856	-31.57
852.031	93.35
852.206	38.06
852.381	-70.48
852.556	7.34
852.731	11.43
852.906	17.58
853.081	-54.1
853.256	126.12
853.431	-54.1
853.606	-33.62
853.781	-78.68
853.956	-90.96
854.131	66.73
854.305	-23.38
854.48	-103.25
854.655	-68.44
854.83	-86.87
855.005	-50
855.18	70.83
855.354	7.34
855.529	40.11
855.704	-68.44
855.879	-7
856.053	-136.02
856.228	70.83
856.403	15.53
856.577	29.87
856.752	-74.58
856.926	1.19
857.101	-52.05
857.276	-115.54
857.45	-15.19
857.625	56.49
857.799	19.63
857.974	-60.24
858.148	-107.35
858.323	-7
858.497	-4.95
858.672	-58.2
858.846	-37.72
859.02	40.11
859.195	-105.3
859.369	3.24
859.543	-29.52
859.718	-23.38
859.892	21.67
860.066	-29.52
860.241	-52.05
860.415	13.48
860.589	-56.15
860.763	11.43
860.938	-82.77
861.112	-21.33
861.286	-43.86
861.46	23.72
861.634	-39.76
861.808	50.35
861.982	9.39
862.157	-93.01
862.331	-97.11
862.505	-66.39
862.679	-113.49
862.853	-82.77
863.027	-35.67
863.201	191.66
863.375	7.34
863.549	42.15
863.722	13.48
863.896	119.98
864.07	-2.9
864.244	19.63
864.418	58.54
864.592	-99.16
864.766	-93.01
864.939	36.01
865.113	-60.24
865.287	21.67
865.461	-50
865.634	-19.29
865.808	-31.57
865.982	-97.11
866.156	-88.92
866.329	-101.2
866.503	11.43
866.676	40.11
866.85	33.96
867.024	-74.58
867.197	76.97
867.371	40.11
867.544	19.63
867.718	-103.25
867.891	113.83
868.065	-144.21
868.238	-45.91
868.412	31.91
868.585	-0.85
868.759	-66.39
868.932	-56.15
869.105	-107.35
869.279	-43.86
869.452	-86.87
869.625	93.35
869.799	-74.58
869.972	-95.06
870.145	-9.05
870.319	72.87
870.492	-41.81
870.665	-56.15
870.838	-54.1
871.011	-158.55
871.185	-86.87
871.358	-35.67
871.531	23.72
871.704	-78.68
871.877	9.39
872.05	-27.48
872.223	-93.01
872.396	25.77
872.569	46.25
872.742	-121.68
872.915	38.06
873.088	-31.57
873.261	-23.38
873.434	17.58
873.607	-66.39
873.78	42.15
873.953	-78.68
874.126	48.3
874.299	23.72
874.471	17.58
874.644	-35.67
874.817	25.77
874.99	117.93
875.163	21.67
875.335	19.63
875.508	15.53
875.681	140.46
875.853	-80.72
876.026	-15.19
876.199	7.34
876.371	9.39
876.544	-50
876.717	-33.62
876.889	-50
877.062	72.87
877.234	-125.78
877.407	-76.63
877.579	-88.92
877.752	33.96
877.924	128.17
878.097	58.54
878.269	-13.14
878.442	7.34
878.614	1.19
878.786	-21.33
878.959	-19.29
879.131	13.48
879.303	-154.45
879.476	-31.57
879.648	117.93
879.82	-52.05
879.993	-76.63
880.165	-27.48
880.337	-117.59
880.509	-19.29
880.681	-68.44
880.854	-39.76
881.026	54.44
881.198	99.5
881.37	-56.15
881.542	-9.05
881.714	-39.76
881.886	-9.05
882.058	-25.43
882.23	52.39
882.402	-84.82
882.574	-11.09
882.746	58.54
882.918	87.21
883.09	-13.14
883.262	-33.62
883.434	-2.9
883.606	-86.87
883.778	-62.29
883.95	74.92
884.122	-78.68
884.293	52.39
884.465	-4.95
884.637	40.11
884.809	-29.52
884.98	19.63
885.152	97.45
885.324	11.43
885.496	-2.9
885.667	-56.15
885.839	44.2
886.011	79.02
886.182	-9.05
886.354	134.31
886.525	38.06
886.697	1.19
886.869	-45.91
887.04	44.2
887.212	44.2
887.383	146.6
887.555	38.06
887.726	-11.09
887.897	-93.01
888.069	-76.63
888.24	29.87
888.412	9.39
888.583	-50
888.754	-76.63
888.926	-146.26
889.097	-56.15
889.268	-127.83
889.44	-2.9
889.611	-127.83
889.782	-109.4
889.953	-86.87
890.125	74.92
890.296	-72.53
890.467	-78.68
890.638	-80.72
890.809	1.19
890.98	-11.09
891.151	19.63
891.323	113.83
891.494	-80.72
891.665	38.06
891.836	5.29
892.007	-7
892.178	21.67
892.349	23.72
892.52	-86.87
892.691	23.72
892.862	-11.09
893.032	-64.34
893.203	-88.92
893.374	-17.24
893.545	60.59
893.716	3.24
893.887	56.49
894.057	-25.43
894.228	-33.62
894.399	-84.82
894.57	72.87
894.74	-37.72
894.911	58.54
895.082	11.43
895.253	-43.86
895.423	-50
895.594	66.73
895.764	-11.09
895.935	-129.88
896.106	15.53
896.276	-70.48
896.447	52.39
896.617	-68.44
896.788	-78.68
896.958	-50
897.129	-84.82
897.299	3.24
897.47	60.59
897.64	15.53
897.81	-47.96
897.981	-11.09
898.151	-101.2
898.322	7.34
898.492	21.67
898.662	1.19
898.832	9.39
899.003	-9.05
899.173	66.73
899.343	-52.05
899.513	11.43
