Data from USB4F104151__14__11-24-26-707.txt Node

Date: Wed Feb 26 11:24:26 EST 2025
User: louis
Spectrometer: USB4F10415
Trigger mode: 4
Integration Time (sec): 1.000000E-1
Scans to average: 1
Electric dark correction enabled: true
Nonlinearity correction enabled: false
Boxcar width: 0
XAxis mode: Wavelengths
Number of Pixels in Spectrum: 3648
>>>>>Begin Spectral Data<<<<<
178.204	-308.22
178.424	-308.22
178.644	-308.22
178.864	-410.62
179.084	-431.1
179.304	13.31
179.524	-54.27
179.744	9.22
179.964	48.13
180.184	7.17
180.404	35.84
180.624	-58.37
180.844	-91.13
181.064	-35.84
181.283	33.79
181.503	5.12
181.723	87.04
181.943	-111.61
182.163	222.2
182.383	27.65
182.602	46.08
182.822	105.47
183.042	62.46
183.262	44.03
183.482	56.32
183.701	52.22
183.921	46.08
184.141	-25.6
184.361	89.09
184.58	89.09
184.8	113.66
185.02	35.84
185.239	154.62
185.459	105.47
185.679	150.53
185.898	-13.31
186.118	134.14
186.338	60.42
186.557	74.75
186.777	-25.6
186.997	48.13
187.216	25.6
187.436	209.92
187.655	123.9
187.875	68.61
188.095	72.7
188.314	265.21
188.534	66.56
188.753	-125.95
188.973	76.8
189.192	230.4
189.412	-29.7
189.631	39.94
189.851	-9.22
190.07	222.2
190.29	-17.41
190.509	21.5
190.729	101.37
190.948	191.49
191.168	183.29
191.387	50.18
191.607	50.18
191.826	66.56
192.045	21.5
192.265	-19.46
192.484	74.75
192.704	60.42
192.923	-66.56
193.142	205.82
193.362	111.61
193.581	140.29
193.8	74.75
194.02	115.71
194.239	13.31
194.458	125.95
194.678	31.74
194.897	9.22
195.116	113.66
195.335	152.57
195.555	74.75
195.774	62.46
195.993	175.1
196.212	101.37
196.432	-50.18
196.651	-84.99
196.87	54.27
197.089	218.11
197.308	-11.26
197.528	37.89
197.747	-60.42
197.966	39.94
198.185	123.9
198.404	-29.7
198.623	117.76
198.842	138.24
199.062	150.53
199.281	107.52
199.5	109.57
199.719	68.61
199.938	56.32
200.157	74.75
200.376	193.53
200.595	150.53
200.814	97.28
201.033	-15.36
201.252	140.29
201.471	-70.65
201.69	109.57
201.909	41.98
202.128	107.52
202.347	121.85
202.566	-11.26
202.785	-23.55
203.004	-5.12
203.223	224.25
203.442	46.08
203.661	17.41
203.879	35.84
204.098	109.57
204.317	46.08
204.536	107.52
204.755	142.33
204.974	121.85
205.193	74.75
205.411	222.2
205.63	68.61
205.849	95.23
206.068	44.03
206.287	-33.79
206.505	160.77
206.724	44.03
206.943	1.02
207.162	11.26
207.381	119.81
207.599	46.08
207.818	66.56
208.037	19.46
208.255	33.79
208.474	5.12
208.693	29.7
208.911	91.13
209.13	84.99
209.349	97.28
209.567	111.61
209.786	68.61
210.005	64.51
210.223	37.89
210.442	-62.46
210.661	76.8
210.879	91.13
211.098	89.09
211.316	58.37
211.535	5.12
211.753	64.51
211.972	76.8
212.191	23.55
212.409	29.7
212.628	109.57
212.846	41.98
213.065	19.46
213.283	166.91
213.502	15.36
213.72	91.13
213.938	64.51
214.157	27.65
214.375	48.13
214.594	3.07
214.812	154.62
215.031	95.23
215.249	23.55
215.467	93.18
215.686	39.94
215.904	123.9
216.122	121.85
216.341	74.75
216.559	48.13
216.778	134.14
216.996	103.42
217.214	27.65
217.432	15.36
217.651	-29.7
217.869	7.17
218.087	99.33
218.306	52.22
218.524	101.37
218.742	60.42
218.96	134.14
219.179	37.89
219.397	-15.36
219.615	259.07
219.833	136.19
220.051	-25.6
220.27	154.62
220.488	140.29
220.706	41.98
220.924	-11.26
221.142	-1.02
221.36	78.85
221.578	87.04
221.796	76.8
222.015	23.55
222.233	50.18
222.451	132.09
222.669	27.65
222.887	125.95
223.105	11.26
223.323	58.37
223.541	-5.12
223.759	54.27
223.977	33.79
224.195	195.58
224.413	84.99
224.631	46.08
224.849	113.66
225.067	244.73
225.285	66.56
225.503	37.89
225.721	-39.94
225.939	-17.41
226.157	-17.41
226.375	236.54
226.592	56.32
226.81	15.36
227.028	162.81
227.246	144.38
227.464	72.7
227.682	162.81
227.9	87.04
228.117	68.61
228.335	111.61
228.553	17.41
228.771	60.42
228.989	52.22
229.206	111.61
229.424	50.18
229.642	35.84
229.86	29.7
230.077	150.53
230.295	95.23
230.513	148.48
230.731	119.81
230.948	230.4
231.166	136.19
231.384	-37.89
231.601	37.89
231.819	142.33
232.037	-56.32
232.254	-19.46
232.472	95.23
232.689	9.22
232.907	25.6
233.125	78.85
233.342	97.28
233.56	-35.84
233.777	60.42
233.995	107.52
234.213	134.14
234.43	109.57
234.648	-13.31
234.865	52.22
235.083	68.61
235.3	3.07
235.518	125.95
235.735	201.72
235.953	84.99
236.17	105.47
236.388	7.17
236.605	115.71
236.822	166.91
237.04	89.09
237.257	-29.7
237.475	19.46
237.692	52.22
237.909	97.28
238.127	60.42
238.344	76.8
238.562	5.12
238.779	-29.7
238.996	-50.18
239.214	56.32
239.431	150.53
239.648	1.02
239.865	82.94
240.083	105.47
240.3	7.17
240.517	-54.27
240.735	87.04
240.952	187.39
241.169	80.89
241.386	107.52
241.603	29.7
241.821	-9.22
242.038	87.04
242.255	148.48
242.472	19.46
242.689	78.85
242.907	107.52
243.124	60.42
243.341	3.07
243.558	15.36
243.775	7.17
243.992	-52.22
244.209	93.18
244.426	162.81
244.643	68.61
244.86	-35.84
245.078	68.61
245.295	58.37
245.512	58.37
245.729	13.31
245.946	117.76
246.163	64.51
246.38	64.51
246.597	35.84
246.814	95.23
247.031	7.17
247.248	84.99
247.464	78.85
247.681	95.23
247.898	146.43
248.115	84.99
248.332	31.74
248.549	177.15
248.766	185.34
248.983	37.89
249.2	27.65
249.417	132.09
249.633	-52.22
249.85	74.75
250.067	82.94
250.284	123.9
250.501	105.47
250.717	25.6
250.934	-29.7
251.151	35.84
251.368	31.74
251.585	11.26
251.801	25.6
252.018	35.84
252.235	115.71
252.451	-21.5
252.668	3.07
252.885	72.7
253.102	117.76
253.318	-5.12
253.535	-13.31
253.752	97.28
253.968	54.27
254.185	5.12
254.401	-23.55
254.618	123.9
254.835	-25.6
255.051	121.85
255.268	64.51
255.484	66.56
255.701	56.32
255.917	115.71
256.134	27.65
256.351	103.42
256.567	-1.02
256.784	29.7
257	3.07
257.217	181.25
257.433	97.28
257.65	99.33
257.866	117.76
258.082	-74.75
258.299	-7.17
258.515	33.79
258.732	97.28
258.948	66.56
259.165	107.52
259.381	-7.17
259.597	68.61
259.814	89.09
260.03	-7.17
260.246	-3.07
260.463	187.39
260.679	87.04
260.895	80.89
261.112	44.03
261.328	74.75
261.544	13.31
261.761	97.28
261.977	25.6
262.193	-72.7
262.409	105.47
262.626	58.37
262.842	60.42
263.058	-5.12
263.274	117.76
263.49	21.5
263.707	160.77
263.923	111.61
264.139	-52.22
264.355	91.13
264.571	123.9
264.787	164.86
265.004	156.67
265.22	25.6
265.436	25.6
265.652	23.55
265.868	50.18
266.084	48.13
266.3	13.31
266.516	9.22
266.732	66.56
266.948	35.84
267.164	84.99
267.38	60.42
267.596	154.62
267.812	199.68
268.028	-25.6
268.244	76.8
268.46	76.8
268.676	-21.5
268.892	97.28
269.108	9.22
269.324	-50.18
269.54	-3.07
269.756	50.18
269.972	29.7
270.188	39.94
270.403	-7.17
270.619	60.42
270.835	142.33
271.051	56.32
271.267	9.22
271.483	17.41
271.698	148.48
271.914	50.18
272.13	103.42
272.346	39.94
272.562	89.09
272.777	195.58
272.993	99.33
273.209	125.95
273.425	62.46
273.64	-3.07
273.856	39.94
274.072	66.56
274.287	-52.22
274.503	64.51
274.719	91.13
274.934	11.26
275.15	-15.36
275.366	-29.7
275.581	-5.12
275.797	-5.12
276.012	-58.37
276.228	41.98
276.444	21.5
276.659	117.76
276.875	23.55
277.09	76.8
277.306	-21.5
277.521	74.75
277.737	97.28
277.952	87.04
278.168	-21.5
278.383	78.85
278.599	37.89
278.814	50.18
279.03	31.74
279.245	150.53
279.461	115.71
279.676	125.95
279.892	-1.02
280.107	33.79
280.322	-54.27
280.538	105.47
280.753	52.22
280.969	82.94
281.184	54.27
281.399	107.52
281.615	41.98
281.83	123.9
282.045	1.02
282.26	35.84
282.476	-15.36
282.691	70.65
282.906	78.85
283.122	60.42
283.337	7.17
283.552	97.28
283.767	-15.36
283.983	146.43
284.198	19.46
284.413	64.51
284.628	-11.26
284.843	154.62
285.058	50.18
285.274	1.02
285.489	19.46
285.704	113.66
285.919	11.26
286.134	44.03
286.349	60.42
286.564	58.37
286.779	132.09
286.995	74.75
287.21	-58.37
287.425	105.47
287.64	3.07
287.855	56.32
288.07	-35.84
288.285	103.42
288.5	125.95
288.715	105.47
288.93	-25.6
289.145	41.98
289.36	117.76
289.575	19.46
289.79	136.19
290.004	-19.46
290.219	138.24
290.434	-1.02
290.649	109.57
290.864	48.13
291.079	44.03
291.294	168.96
291.509	138.24
291.724	58.37
291.938	121.85
292.153	119.81
292.368	-15.36
292.583	76.8
292.798	158.72
293.012	72.7
293.227	44.03
293.442	58.37
293.657	97.28
293.871	146.43
294.086	154.62
294.301	142.33
294.516	95.23
294.73	58.37
294.945	-1.02
295.16	56.32
295.374	68.61
295.589	130.05
295.804	5.12
296.018	80.89
296.233	181.25
296.447	70.65
296.662	50.18
296.877	158.72
297.091	56.32
297.306	39.94
297.52	31.74
297.735	136.19
297.949	44.03
298.164	74.75
298.378	117.76
298.593	-7.17
298.807	9.22
299.022	27.65
299.236	119.81
299.451	11.26
299.665	58.37
299.88	25.6
300.094	21.5
300.309	72.7
300.523	89.09
300.737	33.79
300.952	154.62
301.166	93.18
301.381	23.55
301.595	-21.5
301.809	19.46
302.024	119.81
302.238	3.07
302.452	185.34
302.667	134.14
302.881	205.82
303.095	136.19
303.309	7.17
303.524	60.42
303.738	56.32
303.952	-23.55
304.166	91.13
304.381	-27.65
304.595	177.15
304.809	-37.89
305.023	11.26
305.237	-13.31
305.452	60.42
305.666	89.09
305.88	121.85
306.094	138.24
306.308	134.14
306.522	105.47
306.736	66.56
306.95	103.42
307.164	60.42
307.379	68.61
307.593	41.98
307.807	130.05
308.021	130.05
308.235	87.04
308.449	-50.18
308.663	-29.7
308.877	261.12
309.091	93.18
309.305	97.28
309.519	-52.22
309.733	183.29
309.947	-17.41
310.161	132.09
310.374	93.18
310.588	105.47
310.802	-41.98
311.016	-7.17
311.23	109.57
311.444	-5.12
311.658	50.18
311.872	115.71
312.085	146.43
312.299	164.86
312.513	117.76
312.727	13.31
312.941	-46.08
313.154	13.31
313.368	78.85
313.582	97.28
313.796	117.76
314.009	-1.02
314.223	37.89
314.437	97.28
314.651	142.33
314.864	-35.84
315.078	-1.02
315.292	-31.74
315.505	41.98
315.719	115.71
315.933	54.27
316.146	78.85
316.36	-15.36
316.573	201.72
316.787	35.84
317.001	70.65
317.214	-15.36
317.428	9.22
317.641	-54.27
317.855	54.27
318.068	11.26
318.282	52.22
318.495	144.38
318.709	76.8
318.922	1.02
319.136	152.57
319.349	181.25
319.563	23.55
319.776	70.65
319.99	-64.51
320.203	113.66
320.417	54.27
320.63	17.41
320.843	181.25
321.057	125.95
321.27	19.46
321.483	35.84
321.697	226.3
321.91	56.32
322.124	107.52
322.337	19.46
322.55	1.02
322.763	58.37
322.977	17.41
323.19	3.07
323.403	15.36
323.617	37.89
323.83	109.57
324.043	-41.98
324.256	93.18
324.469	-74.75
324.683	113.66
324.896	-25.6
325.109	76.8
325.322	-37.89
325.535	162.81
325.748	99.33
325.962	52.22
326.175	95.23
326.388	136.19
326.601	191.49
326.814	50.18
327.027	11.26
327.24	179.2
327.453	-87.04
327.666	142.33
327.879	228.35
328.092	46.08
328.305	84.99
328.518	29.7
328.731	-11.26
328.944	62.46
329.157	70.65
329.37	29.7
329.583	130.05
329.796	207.87
330.009	-27.65
330.222	95.23
330.435	179.2
330.648	35.84
330.861	105.47
331.073	111.61
331.286	72.7
331.499	74.75
331.712	1.02
331.925	-1.02
332.138	125.95
332.35	158.72
332.563	101.37
332.776	99.33
332.989	-60.42
333.202	52.22
333.414	39.94
333.627	74.75
333.84	56.32
334.053	82.94
334.265	-1.02
334.478	-39.94
334.691	39.94
334.903	52.22
335.116	89.09
335.329	27.65
335.541	128
335.754	146.43
335.966	-56.32
336.179	56.32
336.392	44.03
336.604	64.51
336.817	103.42
337.029	58.37
337.242	44.03
337.454	84.99
337.667	64.51
337.88	175.1
338.092	97.28
338.305	80.89
338.517	56.32
338.729	173.05
338.942	72.7
339.154	-21.5
339.367	-62.46
339.579	68.61
339.792	7.17
340.004	156.67
340.217	9.22
340.429	103.42
340.641	-13.31
340.854	-19.46
341.066	-3.07
341.278	91.13
341.491	263.16
341.703	80.89
341.915	-25.6
342.128	105.47
342.34	82.94
342.552	9.22
342.764	56.32
342.977	74.75
343.189	82.94
343.401	64.51
343.613	-109.57
343.826	52.22
344.038	-31.74
344.25	84.99
344.462	-29.7
344.674	76.8
344.886	-27.65
345.099	56.32
345.311	76.8
345.523	54.27
345.735	-84.99
345.947	68.61
346.159	72.7
346.371	68.61
346.583	76.8
346.795	230.4
347.007	44.03
347.219	89.09
347.431	31.74
347.643	209.92
347.855	-11.26
348.067	99.33
348.279	5.12
348.491	156.67
348.703	109.57
348.915	-37.89
349.127	-29.7
349.339	111.61
349.551	-19.46
349.763	103.42
349.975	7.17
350.187	109.57
350.399	142.33
350.61	91.13
350.822	-7.17
351.034	41.98
351.246	27.65
351.458	99.33
351.669	115.71
351.881	87.04
352.093	82.94
352.305	70.65
352.517	82.94
352.728	113.66
352.94	99.33
353.152	41.98
353.363	23.55
353.575	101.37
353.787	162.81
353.999	130.05
354.21	193.53
354.422	-17.41
354.633	35.84
354.845	17.41
355.057	66.56
355.268	70.65
355.48	123.9
355.692	44.03
355.903	56.32
356.115	-19.46
356.326	1.02
356.538	201.72
356.749	82.94
356.961	160.77
357.172	13.31
357.384	1.02
357.595	295.93
357.807	-5.12
358.018	-37.89
358.23	58.37
358.441	199.68
358.653	56.32
358.864	19.46
359.075	5.12
359.287	60.42
359.498	115.71
359.709	119.81
359.921	95.23
360.132	9.22
360.344	19.46
360.555	-9.22
360.766	25.6
360.977	7.17
361.189	181.25
361.4	87.04
361.611	101.37
361.823	93.18
362.034	121.85
362.245	-58.37
362.456	27.65
362.667	113.66
362.879	21.5
363.09	197.63
363.301	39.94
363.512	54.27
363.723	39.94
363.935	35.84
364.146	91.13
364.357	31.74
364.568	54.27
364.779	-7.17
364.99	179.2
365.201	1.02
365.412	175.1
365.623	-48.13
365.834	99.33
366.045	72.7
366.256	138.24
366.467	68.61
366.678	87.04
366.889	29.7
367.1	-5.12
367.311	82.94
367.522	-74.75
367.733	101.37
367.944	99.33
368.155	23.55
368.366	74.75
368.577	66.56
368.788	158.72
368.999	37.89
369.209	84.99
369.42	181.25
369.631	252.92
369.842	173.05
370.053	44.03
370.264	189.44
370.474	-5.12
370.685	33.79
370.896	54.27
371.107	97.28
371.317	125.95
371.528	70.65
371.739	177.15
371.95	9.22
372.16	93.18
372.371	-97.28
372.582	68.61
372.792	50.18
373.003	89.09
373.214	70.65
373.424	70.65
373.635	-17.41
373.846	123.9
374.056	9.22
374.267	-7.17
374.477	-70.65
374.688	125.95
374.898	117.76
375.109	109.57
375.319	76.8
375.53	121.85
375.74	60.42
375.951	25.6
376.161	154.62
376.372	105.47
376.582	15.36
376.793	33.79
377.003	95.23
377.214	21.5
377.424	134.14
377.635	50.18
377.845	19.46
378.055	166.91
378.266	35.84
378.476	80.89
378.686	82.94
378.897	39.94
379.107	164.86
379.317	70.65
379.528	-25.6
379.738	162.81
379.948	-99.33
380.158	78.85
380.369	33.79
380.579	31.74
380.789	-13.31
380.999	142.33
381.21	72.7
381.42	193.53
381.63	29.7
381.84	125.95
382.05	101.37
382.261	173.05
382.471	113.66
382.681	-39.94
382.891	123.9
383.101	84.99
383.311	-23.55
383.521	-33.79
383.731	179.2
383.941	181.25
384.151	41.98
384.361	50.18
384.571	115.71
384.781	109.57
384.991	259.07
385.201	271.36
385.411	136.19
385.621	-48.13
385.831	-15.36
386.041	89.09
386.251	140.29
386.461	152.57
386.671	41.98
386.881	115.71
387.091	-37.89
387.301	117.76
387.511	101.37
387.72	80.89
387.93	154.62
388.14	-64.51
388.35	95.23
388.56	154.62
388.769	152.57
388.979	58.37
389.189	52.22
389.399	97.28
389.609	150.53
389.818	68.61
390.028	123.9
390.238	78.85
390.447	21.5
390.657	70.65
390.867	-13.31
391.076	-41.98
391.286	78.85
391.496	29.7
391.705	37.89
391.915	121.85
392.125	99.33
392.334	-3.07
392.544	207.87
392.753	72.7
392.963	-7.17
393.172	128
393.382	39.94
393.591	181.25
393.801	48.13
394.01	103.42
394.22	58.37
394.429	84.99
394.639	41.98
394.848	37.89
395.058	84.99
395.267	60.42
395.477	68.61
395.686	72.7
395.895	209.92
396.105	171.01
396.314	58.37
396.524	136.19
396.733	111.61
396.942	150.53
397.152	84.99
397.361	148.48
397.57	62.46
397.78	74.75
397.989	177.15
398.198	214.01
398.407	76.8
398.617	11.26
398.826	52.22
399.035	37.89
399.244	164.86
399.453	93.18
399.663	-1.02
399.872	130.05
400.081	3.07
400.29	162.81
400.499	19.46
400.708	97.28
400.917	66.56
401.127	23.55
401.336	9.22
401.545	220.16
401.754	82.94
401.963	142.33
402.172	1.02
402.381	-52.22
402.59	39.94
402.799	76.8
403.008	173.05
403.217	27.65
403.426	132.09
403.635	-15.36
403.844	60.42
404.053	5.12
404.262	54.27
404.471	207.87
404.68	93.18
404.888	3.07
405.097	-3.07
405.306	50.18
405.515	125.95
405.724	-15.36
405.933	138.24
406.142	80.89
406.35	121.85
406.559	52.22
406.768	72.7
406.977	166.91
407.185	60.42
407.394	123.9
407.603	-62.46
407.812	150.53
408.02	93.18
408.229	113.66
408.438	44.03
408.646	3.07
408.855	87.04
409.064	33.79
409.272	140.29
409.481	121.85
409.69	87.04
409.898	-29.7
410.107	41.98
410.315	152.57
410.524	-9.22
410.733	54.27
410.941	70.65
411.15	64.51
411.358	113.66
411.567	158.72
411.775	109.57
411.984	74.75
412.192	66.56
412.401	27.65
412.609	240.64
412.818	72.7
413.026	72.7
413.234	-5.12
413.443	52.22
413.651	78.85
413.86	56.32
414.068	113.66
414.276	214.01
414.485	5.12
414.693	173.05
414.901	123.9
415.11	84.99
415.318	56.32
415.526	66.56
415.734	209.92
415.943	68.61
416.151	197.63
416.359	27.65
416.567	74.75
416.776	72.7
416.984	119.81
417.192	187.39
417.4	44.03
417.608	-19.46
417.817	-25.6
418.025	101.37
418.233	128
418.441	-70.65
418.649	-23.55
418.857	54.27
419.065	72.7
419.273	19.46
419.481	91.13
419.689	21.5
419.897	13.31
420.105	76.8
420.313	142.33
420.521	111.61
420.729	128
420.937	29.7
421.145	-31.74
421.353	117.76
421.561	195.58
421.769	58.37
421.977	11.26
422.185	119.81
422.393	117.76
422.601	93.18
422.809	84.99
423.017	70.65
423.224	130.05
423.432	220.16
423.64	76.8
423.848	121.85
424.056	3.07
424.263	193.53
424.471	35.84
424.679	232.44
424.887	3.07
425.094	177.15
425.302	125.95
425.51	44.03
425.718	113.66
425.925	82.94
426.133	17.41
426.341	263.16
426.548	107.52
426.756	15.36
426.964	111.61
427.171	48.13
427.379	101.37
427.586	74.75
427.794	84.99
428.001	181.25
428.209	78.85
428.417	134.14
428.624	148.48
428.832	105.47
429.039	171.01
429.247	99.33
429.454	74.75
429.662	218.11
429.869	160.77
430.076	187.39
430.284	109.57
430.491	271.36
430.699	197.63
430.906	252.92
431.114	168.96
431.321	177.15
431.528	171.01
431.736	128
431.943	201.72
432.15	271.36
432.358	259.07
432.565	302.08
432.772	99.33
432.979	238.59
433.187	128
433.394	201.72
433.601	119.81
433.808	259.07
434.016	289.79
434.223	218.11
434.43	242.68
434.637	240.64
434.844	343.03
435.052	291.84
435.259	379.9
435.466	277.5
435.673	306.17
435.88	326.65
436.087	381.95
436.294	365.56
436.501	408.57
436.708	410.62
436.915	320.51
437.122	396.28
437.329	293.88
437.537	347.13
437.743	361.47
437.95	457.72
438.157	390.14
438.364	383.99
438.571	406.52
438.778	445.43
438.985	408.57
439.192	543.74
439.399	433.15
439.606	484.34
439.813	531.45
440.02	650.23
440.227	658.42
440.433	566.26
440.64	551.93
440.847	531.45
441.054	680.95
441.261	840.69
441.467	781.3
441.674	644.09
441.881	664.57
442.088	758.77
442.294	807.92
442.501	910.32
442.708	842.74
442.914	824.31
443.121	928.75
443.328	875.51
443.534	1016.82
443.741	936.95
443.948	902.13
444.154	1027.06
444.361	1176.56
444.568	1061.87
444.774	1162.22
444.981	1047.54
445.187	1246.19
445.394	1311.72
445.6	1256.43
445.807	1463.27
446.013	1360.88
446.22	1295.34
446.426	1555.43
446.633	1569.77
446.839	1752.04
447.046	1463.27
447.252	1790.95
447.459	1801.19
447.665	1659.88
447.871	1985.51
448.078	2065.38
448.284	2034.66
448.491	2192.35
448.697	2218.97
448.903	2454.49
449.11	2198.49
449.316	2427.87
449.522	2511.83
449.728	2704.34
449.935	2816.98
450.141	2548.7
450.347	3007.44
450.553	2837.46
450.76	2937.81
450.966	3228.62
451.172	3142.61
451.378	3357.64
451.584	3374.03
451.791	3658.7
451.997	3761.09
452.203	3914.69
452.409	4047.81
452.615	4301.76
452.821	4178.88
453.027	4201.41
453.233	4660.15
453.44	4516.8
453.646	4746.17
453.852	4914.1
454.058	5231.54
454.264	5288.88
454.47	5782.44
454.676	5788.58
454.882	6232.99
455.088	5872.55
455.294	6216.61
455.5	6599.58
455.705	7046.04
455.911	7107.48
456.117	7154.58
456.323	7465.87
456.529	7420.81
456.735	8178.56
456.941	8444.8
457.147	8684.41
457.352	8969.08
457.558	9040.76
457.764	9665.39
457.97	10017.64
458.176	10326.88
458.381	10888.03
458.587	11205.46
458.793	11760.46
458.999	11735.88
459.204	13116.22
459.41	13458.23
459.616	13415.22
459.821	13906.73
460.027	14711.58
460.233	15506.2
460.438	15229.72
460.644	16468.74
460.85	16614.15
461.055	17050.36
461.261	17998.57
461.466	17855.22
461.672	18162.41
461.878	20054.73
462.083	19856.08
462.289	20204.24
462.494	21258.94
462.7	21183.16
462.905	21373.63
463.111	23675.54
463.316	24226.45
463.522	24664.71
463.727	25631.35
463.932	26530.41
464.138	27523.68
464.343	28549.71
464.549	29010.5
464.754	30812.71
464.959	31498.78
465.165	32033.3
465.37	31629.85
465.575	32117.27
465.781	33894.91
465.986	35090.92
466.191	34515.44
466.397	35068.39
466.602	34058.74
466.807	35906.01
467.012	36604.37
467.218	37474.76
467.423	37251.53
467.628	38803.89
467.833	40333.72
468.038	39643.56
468.244	39037.36
468.449	41114
468.654	39825.82
468.859	39956.89
469.064	40192.41
469.269	39358.89
469.474	39453.09
469.679	40878.48
469.885	39416.23
470.09	39983.52
470.295	40311.19
470.5	39367.08
470.705	39584.16
470.91	38539.7
471.115	38326.71
471.32	38404.53
471.525	38568.37
471.73	37478.85
471.935	37206.47
472.139	35867.1
472.344	36032.99
472.549	35955.16
472.754	35127.78
472.959	34255.35
473.164	33094.15
473.369	32537.1
473.574	33341.96
473.778	33028.62
473.983	32236.05
474.188	31601.18
474.393	30147.12
474.598	30208.56
474.802	29598.27
475.007	29278.79
475.212	28770.89
475.417	27761.24
475.621	27378.27
475.826	27071.07
476.031	26333.81
476.235	25834.1
476.44	26313.33
476.645	25565.82
476.849	25389.69
477.054	24797.83
477.259	23890.58
477.463	23958.16
477.668	23296.67
477.872	23415.45
478.077	22913.7
478.282	22405.8
478.486	21680.82
478.691	21623.48
478.895	21476.02
479.1	21357.24
479.304	21340.86
479.509	20464.33
479.713	20810.43
479.918	20185.8
480.122	19759.83
480.326	20073.17
480.531	20073.17
480.735	19671.76
480.94	19317.47
481.144	19765.97
481.348	18914.02
481.553	19159.77
481.757	18520.81
481.961	19008.22
482.166	18737.89
482.37	18588.39
482.574	18098.92
482.778	18291.43
482.983	18266.86
483.187	18117.36
483.391	18090.73
483.595	17656.56
483.8	17240.82
484.004	17326.84
484.208	17416.95
484.412	17167.1
484.616	16984.83
484.821	16657.15
485.025	16327.43
485.229	16562.95
485.433	16007.95
485.637	16186.12
485.841	15704.85
486.045	15551.25
486.249	15465.24
486.453	14859.04
486.657	14861.09
486.861	14938.91
487.065	14211.88
487.269	14326.57
487.473	13955.88
487.677	14121.77
487.881	13943.6
488.085	13296.44
488.289	13103.93
488.493	12847.93
488.697	12823.36
488.901	12688.19
489.105	12120.9
489.309	12079.94
489.512	12145.48
489.716	11748.17
489.92	11500.37
490.124	11309.91
490.328	11166.55
490.531	11041.62
490.735	10771.29
490.939	10543.97
491.143	10113.89
491.346	10275.68
491.55	9935.72
491.754	10052.45
491.958	9886.57
492.161	9575.28
492.365	9354.1
492.569	9257.84
492.772	9161.59
492.976	9126.77
493.18	8891.26
493.383	8856.44
493.587	8840.06
493.79	8987.51
493.994	8399.74
494.197	8401.79
494.401	8231.81
494.605	8342.4
494.808	8170.37
495.012	8113.03
495.215	8229.76
495.419	8043.4
495.622	7981.96
495.825	8010.63
496.029	7967.62
496.232	7986.05
496.436	7881.61
496.639	8053.64
496.843	7846.79
497.046	7875.46
497.249	7861.13
497.453	7963.53
497.656	7875.46
497.859	8061.83
498.063	7910.28
498.266	7984.01
498.469	7852.94
498.673	7869.32
498.876	7871.37
499.079	7889.8
499.282	7949.19
499.485	8379.26
499.689	8184.71
499.892	8328.06
500.095	8211.33
500.298	8174.47
500.501	8076.16
500.705	8440.7
500.908	8369.02
501.111	8567.68
501.314	8700.8
501.517	8797.05
501.72	8852.34
501.923	8721.27
502.126	8926.07
502.329	9194.36
502.532	9079.67
502.735	9085.81
502.938	9452.4
503.141	9423.73
503.344	9499.5
503.547	9454.45
503.75	9831.27
503.953	9935.72
504.156	10134.37
504.359	10244.96
504.562	10267.49
504.765	10349.41
504.968	10742.62
505.17	10754.91
505.373	10904.41
505.576	11033.43
505.779	11295.57
505.982	11406.16
506.185	11811.66
506.387	11711.31
506.59	12168.01
506.793	12106.57
506.996	12485.44
507.198	13073.21
507.401	12796.73
507.604	13142.84
507.807	13538.1
508.009	13685.55
508.212	13810.48
508.415	14089
508.617	14422.82
508.82	14652.19
509.022	14775.07
509.225	15498
509.428	15659.79
509.63	15911.69
509.833	16059.15
510.035	16974.59
510.238	17048.32
510.44	17185.53
510.643	17806.06
510.845	18359.02
511.048	18594.53
511.25	18752.23
511.453	19090.14
511.655	20275.91
511.858	20363.98
512.06	20605.64
512.262	21084.86
512.465	21248.7
512.667	22071.98
512.87	22121.13
513.072	23040.67
513.274	23421.59
513.477	24015.51
513.679	24656.52
513.881	24822.41
514.084	25459.32
514.286	25830.01
514.488	26647.15
514.69	27298.4
514.893	27865.69
515.095	28121.68
515.297	28912.2
515.499	29487.68
515.701	30153.27
515.904	30958.12
516.106	31214.12
516.308	31910.43
516.51	32961.03
516.712	33057.29
516.914	34034.17
517.116	34478.58
517.318	35058.15
517.52	35582.43
517.722	35922.4
517.925	36659.66
518.127	37982.65
518.329	38498.74
518.531	38478.26
518.733	39637.41
518.935	40173.98
519.136	40454.55
519.338	41138.57
519.54	41945.47
519.742	42639.73
519.944	42856.82
520.146	43667.81
520.348	44304.73
520.55	44497.24
520.752	45021.52
520.954	46264.64
521.155	45742.41
521.357	47046.96
521.559	47216.94
521.761	48134.43
521.963	48242.98
522.164	48449.82
522.366	48922.9
522.568	49422.61
522.77	49996.04
522.971	50661.63
523.173	49973.51
523.375	51032.31
523.576	51028.21
523.778	51169.52
523.98	51781.87
524.181	51949.8
524.383	51974.37
524.584	52373.73
524.786	52291.81
524.988	52015.33
525.189	52455.65
525.391	52703.45
525.592	52584.67
525.794	52543.71
525.995	52627.68
526.197	52644.06
526.398	52054.25
526.6	52261.09
526.801	52130.02
527.003	52363.49
527.204	51697.9
527.406	52154.6
527.607	51220.72
527.808	51894.5
528.01	50411.77
528.211	50452.73
528.412	51296.5
528.614	50276.61
528.815	50407.68
529.016	50274.56
529.218	48988.44
529.419	49271.06
529.62	48427.29
529.822	48247.07
530.023	47841.57
530.224	47169.84
530.425	46704.95
530.626	45836.61
530.828	45568.33
531.029	46070.08
531.23	44900.69
531.431	44208.48
531.632	44171.61
531.833	43792.74
532.035	43032.94
532.236	43010.42
532.437	41939.33
532.638	41595.27
532.839	40858
533.04	40907.15
533.241	39827.87
533.442	40014.24
533.643	39078.32
533.844	38281.66
534.045	37923.26
534.246	37016.01
534.447	37153.23
534.648	36395.48
534.849	36266.45
535.05	35088.87
535.251	34922.99
535.451	34537.97
535.652	34091.51
535.853	33683.97
536.054	33788.41
536.255	32885.26
536.456	32039.45
536.657	32270.87
536.857	31617.57
537.058	30927.4
537.259	30792.23
537.46	30716.46
537.66	29743.67
537.861	29717.05
538.062	28813.9
538.263	28723.79
538.463	28508.75
538.664	28090.96
538.865	27742.81
539.065	27365.98
539.266	26935.91
539.466	27064.93
539.667	26333.81
539.868	26360.43
540.068	25766.52
540.269	25490.04
540.469	25305.73
540.67	24740.49
540.87	24488.59
541.071	24349.32
541.271	24191.63
541.472	23702.17
541.672	23509.66
541.873	23009.95
542.073	22530.73
542.274	23009.95
542.474	22211.25
542.675	22223.53
542.875	22006.45
543.075	21701.3
543.276	20763.33
543.476	21369.53
543.676	20820.67
543.877	20722.37
544.077	20536.01
544.277	20155.08
544.478	19673.81
544.678	19808.98
544.878	19753.68
545.078	19526.36
545.279	18897.63
545.479	18705.12
545.679	18723.55
545.879	18365.16
546.079	18311.91
546.28	17791.73
546.48	18051.82
546.68	17838.83
546.88	17416.95
547.08	16941.82
547.28	16810.75
547.48	16450.31
547.68	16716.54
547.88	16450.31
548.081	16118.54
548.281	15819.53
548.481	15348.5
548.681	15743.76
548.881	15569.68
549.081	15248.15
549.28	14902.04
549.48	14811.93
549.68	14527.27
549.88	14629.66
550.08	13810.48
550.28	13996.84
550.48	13959.98
550.68	13695.79
550.88	13472.56
551.08	13140.79
551.279	13282.1
551.479	12737.34
551.679	12911.42
551.879	12626.75
552.079	12333.89
552.278	11955.02
552.478	12135.24
552.678	11899.72
552.878	11742.03
553.077	11526.99
553.277	11209.56
553.477	11127.64
553.676	11037.53
553.876	10756.96
554.076	10707.8
554.275	10384.23
554.475	10183.52
554.674	10062.69
554.874	9841.51
555.074	9694.06
555.273	9737.07
555.473	9595.76
555.672	9286.51
555.872	9106.29
556.071	9030.52
556.271	9071.48
556.47	8606.59
556.67	8457.09
556.869	8422.27
557.068	8266.63
557.268	8135.56
557.467	7955.33
557.667	8192.9
557.866	7859.08
558.065	7889.8
558.265	7560.08
558.464	7291.79
558.663	7523.21
558.863	7185.3
559.062	7308.18
559.261	6810.52
559.461	6927.25
559.66	6642.59
559.859	6562.72
560.058	6402.97
560.258	6364.06
560.457	6390.69
560.656	6421.41
560.855	5966.76
561.054	6114.21
561.253	5882.79
561.453	5954.47
561.652	5714.86
561.851	5874.6
562.05	5585.83
562.249	5389.23
562.448	5630.89
562.647	5290.93
562.846	5286.83
563.045	5229.49
563.244	5069.75
563.443	4987.83
563.642	4776.89
563.841	4877.24
564.04	4729.78
564.239	4785.08
564.438	4686.78
564.637	4613.05
564.836	4586.43
565.035	4430.78
565.234	4365.25
565.432	4346.81
565.631	4246.46
565.83	4230.08
566.029	3998.66
566.228	4080.58
566.427	4146.11
566.625	3935.17
566.824	3812.29
567.023	3914.69
567.222	3812.29
567.42	3683.27
567.619	3802.05
567.818	3673.03
568.016	3933.12
568.215	3537.87
568.414	3556.3
568.612	3476.43
568.811	3328.97
569.01	3369.93
569.208	3390.41
569.407	3341.26
569.605	3275.73
569.804	3265.49
570.002	3230.67
570.201	3136.46
570.4	3107.79
570.598	3003.35
570.797	2913.24
570.995	2837.46
571.193	2874.32
571.392	2892.76
571.59	2712.53
571.789	2673.62
571.987	2642.9
572.186	2773.97
572.384	2599.9
572.582	2683.86
572.781	2599.9
572.979	2448.35
573.177	2458.59
573.376	2567.13
573.574	2419.68
573.772	2411.48
573.971	2225.12
574.169	2202.59
574.367	2300.89
574.565	2178.01
574.763	2311.13
574.962	2110.43
575.16	2079.71
575.358	2155.49
575.556	1928.16
575.754	2108.38
575.952	2069.47
576.151	2063.33
576.349	2075.62
576.547	1780.71
576.745	1864.68
576.943	1895.4
577.141	1848.29
577.339	1690.6
577.537	1721.32
577.735	1735.65
577.933	1805.28
578.131	1633.26
578.329	1891.3
578.527	1637.35
578.725	1604.58
578.923	1567.72
579.121	1616.87
579.319	1289.2
579.516	1338.35
579.714	1680.36
579.912	1467.37
580.11	1313.77
580.308	1360.88
580.506	1442.79
580.704	1188.85
580.901	1289.2
581.099	1397.74
581.297	1342.44
581.495	1326.06
581.692	1248.24
581.89	1389.55
582.088	1278.96
582.285	1225.71
582.483	1074.16
582.681	1217.52
582.878	1199.09
583.076	1094.64
583.274	1086.45
583.471	1303.53
583.669	1166.32
583.866	1053.68
584.064	1098.74
584.262	1053.68
584.459	1018.86
584.657	1131.5
584.854	998.38
585.052	1145.84
585.249	1092.59
585.447	990.19
585.644	863.22
585.841	1004.53
586.039	959.47
586.236	1043.44
586.434	824.31
586.631	912.37
586.828	926.71
587.026	938.99
587.223	781.3
587.42	785.4
587.618	857.07
587.815	961.52
588.012	826.36
588.21	783.35
588.407	826.36
588.604	904.18
588.801	748.53
588.999	787.44
589.196	846.84
589.393	777.2
589.59	717.81
589.787	857.07
589.984	826.36
590.182	908.27
590.379	658.42
590.576	734.2
590.773	773.11
590.97	699.38
591.167	701.43
591.364	758.77
591.561	621.56
591.758	844.79
591.955	691.19
592.152	687.09
592.349	685.05
592.546	693.24
592.743	588.79
592.94	646.13
593.137	850.93
593.334	687.09
593.531	773.11
593.727	703.48
593.924	726
594.121	658.42
594.318	726
594.515	734.2
594.712	961.52
594.908	834.55
595.105	658.42
595.302	777.2
595.499	707.57
595.696	893.94
595.892	793.59
596.089	869.36
596.286	771.06
596.482	861.17
596.679	852.98
596.876	855.03
597.072	971.76
597.269	859.12
597.466	912.37
597.662	879.6
597.859	863.22
598.055	1047.54
598.252	1004.53
598.448	1186.8
598.645	1020.91
598.841	1137.65
599.038	1223.66
599.234	1205.23
599.431	1317.87
599.627	1369.07
599.824	1379.31
600.02	1410.03
600.217	1395.69
600.413	1502.19
600.609	1588.2
600.806	1854.44
601.002	1682.41
601.198	1694.69
601.395	1872.87
601.591	1901.54
601.787	1954.79
601.984	2042.85
602.18	2063.33
602.376	2096.1
602.572	2276.32
602.769	2487.26
602.965	2309.08
603.161	2526.17
603.357	2558.94
603.553	2833.36
603.75	2864.08
603.946	2888.66
604.142	2884.56
604.338	3126.22
604.534	2989.01
604.73	3118.03
604.926	3294.16
605.122	3521.48
605.318	3578.83
605.514	3746.76
605.71	3679.18
605.906	3890.12
606.102	4119.49
606.298	4203.46
606.494	4318.14
606.69	4453.31
606.886	4434.88
607.082	4615.1
607.278	4697.02
607.474	4885.43
607.67	5143.47
607.866	5032.88
608.062	5338.03
608.257	5499.82
608.453	5397.42
608.649	5972.9
608.845	5811.11
609.041	6056.87
609.236	6333.34
609.432	6319.01
609.628	6595.48
609.824	6855.58
610.019	6728.6
610.215	6957.97
610.411	7254.93
610.606	7422.86
610.802	7584.65
610.998	7748.49
611.193	7902.09
611.389	8203.14
611.584	8436.61
611.78	8424.32
611.976	8897.4
612.171	9333.62
612.367	9548.65
612.562	9423.73
612.758	9792.36
612.953	9913.19
613.149	10460
613.344	10523.49
613.539	10998.62
613.735	11285.33
613.93	11553.62
614.126	11938.63
614.321	12161.86
614.517	12536.64
614.712	12792.64
614.907	12931.9
615.103	13542.19
615.298	13724.46
615.493	14099.24
615.688	14275.37
615.884	14830.37
616.079	14879.52
616.274	15821.58
616.47	15848.21
616.665	16558.85
616.86	16620.29
617.055	17226.49
617.25	17439.48
617.445	18070.25
617.641	18375.4
617.836	18596.58
618.031	19094.24
618.226	19862.22
618.421	19972.82
618.616	20845.25
618.811	20806.34
619.006	21766.84
619.201	21955.25
619.396	22815.4
619.591	22891.17
619.786	23552.66
619.981	23941.78
620.176	24754.82
620.371	24855.17
620.566	25285.25
620.761	26217.07
620.956	26661.48
621.151	26694.25
621.346	27923.03
621.541	27769.43
621.735	28697.16
621.93	28721.74
622.125	29733.43
622.32	30165.56
622.515	30773.8
622.709	31547.93
622.904	32094.74
623.099	32393.75
623.294	33415.68
623.488	33126.92
623.683	34025.98
623.878	34615.79
624.072	35144.17
624.267	35774.94
624.462	35906.01
624.656	36821.45
624.851	37376.45
625.046	37669.31
625.24	38496.69
625.435	38543.8
625.629	39311.78
625.824	39885.22
626.018	40059.29
626.213	40327.58
626.407	41345.42
626.602	41345.42
626.796	42000.77
626.991	42656.12
627.185	42342.78
627.38	42690.93
627.574	43256.17
627.768	43524.46
627.963	43415.91
628.157	43770.21
628.352	44251.48
628.546	43549.03
628.74	44024.16
628.935	44114.27
629.129	43907.43
629.323	43446.63
629.517	43772.26
629.712	43182.45
629.906	43000.18
630.1	42457.46
630.294	42262.91
630.489	41890.18
630.683	41771.39
630.877	40481.17
631.071	39690.66
631.265	39592.36
631.459	38894
631.653	37880.25
631.848	36979.15
632.042	36274.65
632.236	35654.11
632.43	34445.81
632.624	33991.16
632.818	32717.32
633.012	31719.96
633.206	30562.86
633.4	30032.44
633.594	28607.05
633.788	27832.92
633.982	26974.82
634.176	26014.32
634.369	25033.35
634.563	24074.9
634.757	22993.57
634.951	22409.9
635.145	21422.78
635.339	20884.16
635.533	19919.57
635.726	19262.17
635.92	18350.82
636.114	17711.86
636.308	16753.41
636.501	16245.51
636.695	15665.94
636.889	14844.7
637.083	14252.84
637.276	13548.34
637.47	13159.22
637.664	12561.22
637.857	12159.81
638.051	11555.66
638.244	11129.69
638.438	10632.03
638.632	10543.97
638.825	9718.64
639.019	9724.78
639.212	8805.24
639.406	8901.5
639.599	8305.54
639.793	8084.36
639.986	7934.85
640.18	7504.78
640.373	7130
640.567	6957.97
640.76	6855.58
640.954	6433.69
641.147	6187.94
641.34	5858.21
641.534	5854.12
641.727	5690.28
641.92	5272.5
642.114	5141.43
642.307	4838.33
642.5	4832.18
642.694	4436.92
642.887	4379.58
643.08	4332.48
643.273	4191.17
643.467	3908.55
643.66	3724.23
643.853	3464.14
644.046	3664.84
644.239	3255.25
644.432	2968.53
644.626	3093.46
644.819	2948.05
645.012	2968.53
645.205	2788.31
645.398	2855.89
645.591	2638.81
645.784	2407.39
645.977	2362.33
646.17	2270.17
646.363	2165.73
646.556	2061.28
646.749	1975.27
646.942	2018.27
647.135	1981.41
647.328	1809.38
647.521	1803.24
647.714	1668.07
647.907	1694.69
648.099	1555.43
648.292	1641.45
648.485	1477.61
648.678	1342.44
648.871	1301.48
649.064	1319.92
649.256	1252.33
649.449	1168.37
649.642	1098.74
649.835	1080.3
650.027	971.76
650.22	1092.59
650.413	1119.21
650.605	1037.3
650.798	918.51
650.991	918.51
651.183	924.66
651.376	900.08
651.568	820.21
651.761	855.03
651.954	832.5
652.146	742.39
652.339	906.23
652.531	803.83
652.724	603.13
652.916	596.98
653.109	533.5
653.301	683
653.494	744.44
653.686	556.02
653.879	691.19
654.071	644.09
654.263	525.3
654.456	566.26
654.648	637.94
654.84	584.7
655.033	494.58
655.225	625.65
655.417	459.77
655.61	582.65
655.802	551.93
655.994	553.98
656.186	412.67
656.379	504.82
656.571	371.71
656.763	394.23
656.955	324.6
657.148	386.04
657.34	381.95
657.532	408.57
657.724	416.76
657.916	328.7
658.108	488.44
658.3	424.95
658.492	392.19
658.684	226.3
658.876	392.19
659.068	316.41
659.26	195.58
659.452	275.45
659.644	361.47
659.836	408.57
660.028	259.07
660.22	261.12
660.412	295.93
660.604	209.92
660.796	304.12
660.988	300.03
661.18	263.16
661.372	400.38
661.563	226.3
661.755	240.64
661.947	195.58
662.139	211.96
662.331	244.73
662.522	265.21
662.714	136.19
662.906	103.42
663.097	179.2
663.289	105.47
663.481	103.42
663.673	224.25
663.864	218.11
664.056	277.5
664.247	146.43
664.439	355.32
664.631	189.44
664.822	222.2
665.014	281.6
665.205	58.37
665.397	193.53
665.588	238.59
665.78	183.29
665.971	248.83
666.163	226.3
666.354	265.21
666.546	125.95
666.737	179.2
666.929	107.52
667.12	138.24
667.311	148.48
667.503	232.44
667.694	216.06
667.885	179.2
668.077	168.96
668.268	111.61
668.459	162.81
668.651	189.44
668.842	234.49
669.033	132.09
669.224	132.09
669.416	306.17
669.607	150.53
669.798	150.53
669.989	263.16
670.18	138.24
670.371	160.77
670.563	119.81
670.754	283.64
670.945	168.96
671.136	160.77
671.327	197.63
671.518	166.91
671.709	312.32
671.9	259.07
672.091	216.06
672.282	232.44
672.473	220.16
672.664	123.9
672.855	218.11
673.046	283.64
673.237	297.98
673.428	197.63
673.619	300.03
673.809	230.4
674	328.7
674.191	271.36
674.382	218.11
674.573	246.78
674.764	121.85
674.954	289.79
675.145	216.06
675.336	230.4
675.527	195.58
675.717	132.09
675.908	152.57
676.099	201.72
676.289	222.2
676.48	201.72
676.671	177.15
676.861	238.59
677.052	263.16
677.243	252.92
677.433	150.53
677.624	304.12
677.814	218.11
678.005	228.35
678.195	365.56
678.386	162.81
678.576	310.27
678.767	123.9
678.957	168.96
679.148	328.7
679.338	308.22
679.529	285.69
679.719	261.12
679.909	306.17
680.1	379.9
680.29	291.84
680.481	207.87
680.671	363.51
680.861	302.08
681.052	355.32
681.242	273.4
681.432	306.17
681.622	230.4
681.813	222.2
682.003	236.54
682.193	207.87
682.383	289.79
682.573	277.5
682.764	320.51
682.954	263.16
683.144	375.8
683.334	275.45
683.524	293.88
683.714	367.61
683.904	291.84
684.094	271.36
684.284	357.37
684.474	480.25
684.664	457.72
684.854	351.23
685.044	293.88
685.234	330.75
685.424	328.7
685.614	275.45
685.804	402.43
685.994	383.99
686.184	259.07
686.374	318.46
686.564	443.39
686.753	332.79
686.943	257.02
687.133	318.46
687.323	336.89
687.513	320.51
687.702	302.08
687.892	293.88
688.082	369.66
688.272	388.09
688.461	316.41
688.651	480.25
688.841	353.27
689.03	136.19
689.22	302.08
689.41	324.6
689.599	306.17
689.789	302.08
689.979	486.39
690.168	377.85
690.358	375.8
690.547	295.93
690.737	343.03
690.926	343.03
691.116	398.33
691.305	375.8
691.495	324.6
691.684	267.26
691.874	168.96
692.063	302.08
692.252	314.36
692.442	355.32
692.631	244.73
692.82	257.02
693.01	324.6
693.199	263.16
693.388	330.75
693.578	291.84
693.767	250.88
693.956	351.23
694.146	216.06
694.335	373.75
694.524	263.16
694.713	293.88
694.902	263.16
695.092	205.82
695.281	355.32
695.47	201.72
695.659	320.51
695.848	195.58
696.037	248.83
696.226	326.65
696.415	281.6
696.604	381.95
696.793	238.59
696.982	287.74
697.171	398.33
697.36	320.51
697.549	320.51
697.738	242.68
697.927	297.98
698.116	183.29
698.305	336.89
698.494	297.98
698.683	234.49
698.872	424.95
699.061	279.55
699.25	257.02
699.438	287.74
699.627	207.87
699.816	316.41
700.005	181.25
700.193	236.54
700.382	353.27
700.571	275.45
700.76	244.73
700.948	302.08
701.137	345.08
701.326	338.94
701.514	205.82
701.703	314.36
701.892	316.41
702.08	447.48
702.269	254.97
702.457	132.09
702.646	238.59
702.834	234.49
703.023	302.08
703.212	336.89
703.4	265.21
703.589	257.02
703.777	199.68
703.965	252.92
704.154	267.26
704.342	119.81
704.531	189.44
704.719	242.68
704.907	433.15
705.096	105.47
705.284	162.81
705.472	312.32
705.661	287.74
705.849	289.79
706.037	373.75
706.226	259.07
706.414	340.99
706.602	179.2
706.79	383.99
706.979	236.54
707.167	287.74
707.355	138.24
707.543	275.45
707.731	273.4
707.919	218.11
708.107	160.77
708.296	158.72
708.484	138.24
708.672	287.74
708.86	246.78
709.048	357.37
709.236	222.2
709.424	254.97
709.612	343.03
709.8	191.49
709.988	314.36
710.176	330.75
710.364	412.67
710.551	238.59
710.739	177.15
710.927	222.2
711.115	216.06
711.303	287.74
711.491	343.03
711.679	263.16
711.866	367.61
712.054	297.98
712.242	257.02
712.43	330.75
712.617	209.92
712.805	420.86
712.993	224.25
713.181	220.16
713.368	359.42
713.556	275.45
713.744	252.92
713.931	349.18
714.119	324.6
714.306	214.01
714.494	300.03
714.682	324.6
714.869	154.62
715.057	275.45
715.244	232.44
715.432	308.22
715.619	220.16
715.807	285.69
715.994	207.87
716.182	314.36
716.369	383.99
716.556	343.03
716.744	162.81
716.931	224.25
717.119	308.22
717.306	273.4
717.493	351.23
717.681	209.92
717.868	320.51
718.055	355.32
718.242	271.36
718.43	316.41
718.617	388.09
718.804	343.03
718.991	353.27
719.179	295.93
719.366	351.23
719.553	351.23
719.74	273.4
719.927	326.65
720.114	289.79
720.301	220.16
720.488	252.92
720.676	287.74
720.863	373.75
721.05	447.48
721.237	369.66
721.424	427
721.611	244.73
721.798	259.07
721.985	279.55
722.172	320.51
722.358	283.64
722.545	381.95
722.732	347.13
722.919	416.76
723.106	326.65
723.293	271.36
723.48	353.27
723.667	279.55
723.853	443.39
724.04	357.37
724.227	433.15
724.414	355.32
724.6	365.56
724.787	453.63
724.974	427
725.161	297.98
725.347	214.01
725.534	365.56
725.72	349.18
725.907	418.81
726.094	336.89
726.28	281.6
726.467	318.46
726.653	332.79
726.84	463.86
727.027	537.59
727.213	381.95
727.4	402.43
727.586	427
727.773	361.47
727.959	310.27
728.145	367.61
728.332	412.67
728.518	322.56
728.705	402.43
728.891	429.05
729.077	422.91
729.264	340.99
729.45	379.9
729.636	486.39
729.823	431.1
730.009	465.91
730.195	404.47
730.382	418.81
730.568	287.74
730.754	447.48
730.94	312.32
731.126	357.37
731.313	369.66
731.499	435.19
731.685	461.82
731.871	420.86
732.057	373.75
732.243	373.75
732.429	402.43
732.615	515.06
732.801	373.75
732.987	465.91
733.173	349.18
733.359	349.18
733.545	410.62
733.731	465.91
733.917	523.26
734.103	416.76
734.289	455.67
734.475	429.05
734.661	513.02
734.847	347.13
735.033	404.47
735.219	474.1
735.404	365.56
735.59	322.56
735.776	443.39
735.962	449.53
736.148	408.57
736.333	416.76
736.519	429.05
736.705	367.61
736.89	441.34
737.076	443.39
737.262	238.59
737.447	420.86
737.633	412.67
737.819	441.34
738.004	441.34
738.19	465.91
738.375	529.4
738.561	492.54
738.747	420.86
738.932	383.99
739.118	586.74
739.303	539.64
739.489	435.19
739.674	396.28
739.859	349.18
740.045	519.16
740.23	435.19
740.416	304.12
740.601	427
740.786	439.29
740.972	390.14
741.157	328.7
741.342	297.98
741.528	338.94
741.713	476.15
741.898	392.19
742.084	424.95
742.269	431.1
742.454	513.02
742.639	551.93
742.824	431.1
743.01	500.73
743.195	568.31
743.38	355.32
743.565	478.2
743.75	513.02
743.935	476.15
744.12	529.4
744.305	269.31
744.49	422.91
744.675	451.58
744.86	390.14
745.045	383.99
745.23	439.29
745.415	408.57
745.6	502.78
745.785	408.57
745.97	441.34
746.155	396.28
746.34	482.3
746.525	424.95
746.71	551.93
746.895	355.32
747.079	302.08
747.264	490.49
747.449	490.49
747.634	345.08
747.819	457.72
748.003	295.93
748.188	322.56
748.373	345.08
748.557	478.2
748.742	398.33
748.927	408.57
749.111	357.37
749.296	340.99
749.481	416.76
749.665	392.19
749.85	373.75
750.034	328.7
750.219	326.65
750.404	336.89
750.588	386.04
750.773	306.17
750.957	232.44
751.141	230.4
751.326	349.18
751.51	257.02
751.695	230.4
751.879	326.65
752.064	480.25
752.248	357.37
752.432	506.87
752.617	410.62
752.801	447.48
752.985	248.83
753.17	416.76
753.354	287.74
753.538	250.88
753.722	300.03
753.907	310.27
754.091	316.41
754.275	381.95
754.459	257.02
754.643	310.27
754.828	248.83
755.012	279.55
755.196	195.58
755.38	332.79
755.564	246.78
755.748	218.11
755.932	357.37
756.116	365.56
756.3	345.08
756.484	162.81
756.668	365.56
756.852	160.77
757.036	240.64
757.22	230.4
757.404	244.73
757.588	207.87
757.772	406.52
757.956	265.21
758.14	363.51
758.323	189.44
758.507	326.65
758.691	244.73
758.875	234.49
759.059	310.27
759.242	138.24
759.426	242.68
759.61	254.97
759.794	240.64
759.977	273.4
760.161	437.24
760.345	324.6
760.528	328.7
760.712	324.6
760.895	295.93
761.079	171.01
761.263	148.48
761.446	173.05
761.63	216.06
761.813	316.41
761.997	136.19
762.18	300.03
762.364	283.64
762.547	89.09
762.731	230.4
762.914	252.92
763.098	197.63
763.281	285.69
763.464	201.72
763.648	228.35
763.831	189.44
764.015	183.29
764.198	320.51
764.381	181.25
764.564	220.16
764.748	234.49
764.931	240.64
765.114	214.01
765.297	197.63
765.481	158.72
765.664	246.78
765.847	216.06
766.03	257.02
766.213	136.19
766.397	232.44
766.58	103.42
766.763	244.73
766.946	72.7
767.129	115.71
767.312	115.71
767.495	105.47
767.678	142.33
767.861	273.4
768.044	171.01
768.227	181.25
768.41	187.39
768.593	199.68
768.776	216.06
768.959	189.44
769.142	236.54
769.324	117.76
769.507	211.96
769.69	84.99
769.873	181.25
770.056	349.18
770.239	201.72
770.421	238.59
770.604	216.06
770.787	156.67
770.97	183.29
771.152	189.44
771.335	201.72
771.518	160.77
771.7	285.69
771.883	254.97
772.066	136.19
772.248	193.53
772.431	226.3
772.613	177.15
772.796	158.72
772.978	181.25
773.161	369.66
773.343	177.15
773.526	148.48
773.708	3.07
773.891	58.37
774.073	117.76
774.256	138.24
774.438	322.56
774.621	189.44
774.803	128
774.985	48.13
775.168	179.2
775.35	113.66
775.532	148.48
775.715	76.8
775.897	160.77
776.079	134.14
776.261	132.09
776.444	78.85
776.626	97.28
776.808	91.13
776.99	82.94
777.173	121.85
777.355	41.98
777.537	84.99
777.719	166.91
777.901	128
778.083	11.26
778.265	31.74
778.447	123.9
778.629	44.03
778.811	76.8
778.993	109.57
779.175	173.05
779.357	156.67
779.539	23.55
779.721	19.46
779.903	177.15
780.085	89.09
780.267	82.94
780.449	35.84
780.631	162.81
780.812	222.2
780.994	125.95
781.176	21.5
781.358	93.18
781.54	115.71
781.721	162.81
781.903	152.57
782.085	17.41
782.267	173.05
782.448	84.99
782.63	58.37
782.812	62.46
782.993	95.23
783.175	119.81
783.357	95.23
783.538	54.27
783.72	15.36
783.901	175.1
784.083	173.05
784.264	158.72
784.446	-5.12
784.627	35.84
784.809	162.81
784.99	80.89
785.172	111.61
785.353	64.51
785.535	70.65
785.716	1.02
785.897	-17.41
786.079	70.65
786.26	70.65
786.441	142.33
786.623	52.22
786.804	9.22
786.985	87.04
787.167	171.01
787.348	62.46
787.529	64.51
787.71	175.1
787.891	107.52
788.073	56.32
788.254	-9.22
788.435	175.1
788.616	113.66
788.797	35.84
788.978	101.37
789.159	25.6
789.34	56.32
789.522	3.07
789.703	-5.12
789.884	166.91
790.065	60.42
790.246	191.49
790.427	35.84
790.607	216.06
790.788	95.23
790.969	-25.6
791.15	140.29
791.331	11.26
791.512	99.33
791.693	1.02
791.874	72.7
792.054	224.25
792.235	109.57
792.416	-25.6
792.597	58.37
792.778	84.99
792.958	62.46
793.139	44.03
793.32	74.75
793.5	-19.46
793.681	146.43
793.862	103.42
794.042	23.55
794.223	17.41
794.404	-41.98
794.584	-21.5
794.765	70.65
794.945	52.22
795.126	41.98
795.306	113.66
795.487	17.41
795.667	9.22
795.848	103.42
796.028	19.46
796.209	60.42
796.389	121.85
796.57	76.8
796.75	13.31
796.93	60.42
797.111	13.31
797.291	50.18
797.471	82.94
797.652	37.89
797.832	15.36
798.012	105.47
798.192	54.27
798.373	-115.71
798.553	25.6
798.733	5.12
798.913	1.02
799.093	-3.07
799.274	5.12
799.454	74.75
799.634	101.37
799.814	56.32
799.994	97.28
800.174	128
800.354	35.84
800.534	-87.04
800.714	68.61
800.894	-19.46
801.074	-27.65
801.254	-1.02
801.434	191.49
801.614	13.31
801.794	-9.22
801.974	1709.03
802.154	17.41
802.334	31.74
802.514	-50.18
802.693	-37.89
802.873	-7.17
803.053	201.72
803.233	91.13
803.413	-29.7
803.592	-64.51
803.772	-17.41
803.952	1.02
804.131	-97.28
804.311	138.24
804.491	117.76
804.67	13.31
804.85	-7.17
805.03	54.27
805.209	134.14
805.389	-44.03
805.568	35.84
805.748	58.37
805.928	66.56
806.107	91.13
806.287	82.94
806.466	95.23
806.646	-25.6
806.825	-27.65
807.004	39.94
807.184	113.66
807.363	134.14
807.543	138.24
807.722	-31.74
807.901	115.71
808.081	41.98
808.26	3.07
808.439	48.13
808.619	27.65
808.798	41.98
808.977	1.02
809.156	166.91
809.336	15.36
809.515	136.19
809.694	9.22
809.873	-1.02
810.052	58.37
810.231	113.66
810.411	107.52
810.59	138.24
810.769	41.98
810.948	97.28
811.127	-125.95
811.306	-35.84
811.485	19.46
811.664	236.54
811.843	48.13
812.022	23.55
812.201	5.12
812.38	-48.13
812.559	-31.74
812.737	80.89
812.916	-58.37
813.095	48.13
813.274	1.02
813.453	-66.56
813.632	76.8
813.811	134.14
813.989	-44.03
814.168	11.26
814.347	3.07
814.526	-54.27
814.704	150.53
814.883	177.15
815.062	-25.6
815.24	101.37
815.419	1.02
815.598	78.85
815.776	-87.04
815.955	62.46
816.133	-62.46
816.312	-70.65
816.49	48.13
816.669	21.5
816.847	64.51
817.026	60.42
817.204	-60.42
817.383	41.98
817.561	-107.52
817.74	-21.5
817.918	109.57
818.097	-15.36
818.275	33.79
818.453	82.94
818.632	54.27
818.81	-27.65
818.988	-72.7
819.167	37.89
819.345	1.02
819.523	-41.98
819.701	91.13
819.879	39.94
820.058	60.42
820.236	19.46
820.414	80.89
820.592	-64.51
820.77	39.94
820.948	-37.89
821.127	56.32
821.305	19.46
821.483	-11.26
821.661	123.9
821.839	17.41
822.017	-93.18
822.195	1.02
822.373	82.94
822.551	50.18
822.729	113.66
822.907	-13.31
823.085	56.32
823.262	3.07
823.44	3.07
823.618	-7.17
823.796	-3.07
823.974	33.79
824.152	-41.98
824.329	-68.61
824.507	68.61
824.685	119.81
824.863	-7.17
825.04	15.36
825.218	23.55
825.396	27.65
825.574	46.08
825.751	29.7
825.929	35.84
826.107	-48.13
826.284	29.7
826.462	91.13
826.639	-46.08
826.817	-9.22
826.994	70.65
827.172	-15.36
827.349	72.7
827.527	35.84
827.704	82.94
827.882	21.5
828.059	1.02
828.237	-113.66
828.414	142.33
828.591	-113.66
828.769	-11.26
828.946	-13.31
829.124	76.8
829.301	58.37
829.478	13.31
829.655	70.65
829.833	70.65
830.01	-41.98
830.187	134.14
830.364	23.55
830.542	23.55
830.719	113.66
830.896	99.33
831.073	50.18
831.25	99.33
831.427	13.31
831.604	9.22
831.782	-97.28
831.959	50.18
832.136	29.7
832.313	33.79
832.49	7.17
832.667	-5.12
832.844	-1.02
833.021	76.8
833.198	84.99
833.374	11.26
833.551	35.84
833.728	46.08
833.905	84.99
834.082	-5.12
834.259	72.7
834.436	29.7
834.612	-89.09
834.789	97.28
834.966	99.33
835.143	84.99
835.319	-84.99
835.496	-19.46
835.673	91.13
835.85	82.94
836.026	62.46
836.203	113.66
836.38	-50.18
836.556	9.22
836.733	33.79
836.909	72.7
837.086	-23.55
837.262	-93.18
837.439	33.79
837.616	-41.98
837.792	-19.46
837.968	-39.94
838.145	-97.28
838.321	25.6
838.498	1.02
838.674	25.6
838.851	-5.12
839.027	-60.42
839.203	-50.18
839.38	78.85
839.556	60.42
839.732	99.33
839.909	-52.22
840.085	21.5
840.261	-11.26
840.437	-1.02
840.614	27.65
840.79	19.46
840.966	58.37
841.142	25.6
841.318	9.22
841.494	9.22
841.671	111.61
841.847	-84.99
842.023	-66.56
842.199	50.18
842.375	101.37
842.551	-119.81
842.727	-74.75
842.903	125.95
843.079	-74.75
843.255	105.47
843.431	15.36
843.607	68.61
843.783	-134.14
843.959	15.36
844.134	-64.51
844.31	142.33
844.486	-15.36
844.662	-58.37
844.838	-13.31
845.013	107.52
845.189	48.13
845.365	23.55
845.541	13.31
845.716	41.98
845.892	17.41
846.068	-11.26
846.244	-66.56
846.419	39.94
846.595	-15.36
846.77	-58.37
846.946	70.65
847.122	-31.74
847.297	-46.08
847.473	105.47
847.648	-46.08
847.824	87.04
847.999	-179.2
848.175	-17.41
848.35	70.65
848.526	87.04
848.701	64.51
848.876	44.03
849.052	58.37
849.227	52.22
849.403	-15.36
849.578	21.5
849.753	7.17
849.929	29.7
850.104	-107.52
850.279	-3.07
850.454	23.55
850.63	41.98
850.805	50.18
850.98	3.07
851.155	54.27
851.33	19.46
851.505	-31.74
851.681	93.18
851.856	-41.98
852.031	35.84
852.206	41.98
852.381	-41.98
852.556	54.27
852.731	50.18
852.906	74.75
853.081	21.5
853.256	113.66
853.431	-21.5
853.606	3.07
853.781	1.02
853.956	-60.42
854.131	33.79
854.305	-29.7
854.48	-21.5
854.655	-82.94
854.83	-23.55
855.005	-19.46
855.18	27.65
855.354	29.7
855.529	46.08
855.704	-50.18
855.879	15.36
856.053	-121.85
856.228	9.22
856.403	-80.89
856.577	91.13
856.752	-54.27
856.926	9.22
857.101	56.32
857.276	-27.65
857.45	60.42
857.625	119.81
857.799	37.89
857.974	19.46
858.148	-29.7
858.323	39.94
858.497	37.89
858.672	-23.55
858.846	-111.61
859.02	54.27
859.195	-3.07
859.369	-62.46
859.543	-37.89
859.718	-13.31
859.892	21.5
860.066	27.65
860.241	56.32
860.415	-33.79
860.589	11.26
860.763	13.31
860.938	-39.94
861.112	-9.22
861.286	-48.13
861.46	80.89
861.634	5.12
861.808	101.37
861.982	-97.28
862.157	-113.66
862.331	25.6
862.505	-25.6
862.679	-109.57
862.853	-70.65
863.027	-7.17
863.201	44.03
863.375	-54.27
863.549	-23.55
863.722	-56.32
863.896	62.46
864.07	11.26
864.244	13.31
864.418	56.32
864.592	-9.22
864.766	1.02
864.939	62.46
865.113	9.22
865.287	78.85
865.461	13.31
865.634	52.22
865.808	-3.07
865.982	17.41
866.156	-31.74
866.329	-95.23
866.503	-21.5
866.676	33.79
866.85	44.03
867.024	-58.37
867.197	50.18
867.371	74.75
867.544	17.41
867.718	-99.33
867.891	80.89
868.065	-46.08
868.238	68.61
868.412	35.84
868.585	-9.22
868.759	-56.32
868.932	-19.46
869.105	-60.42
869.279	-44.03
869.452	-29.7
869.625	21.5
869.799	37.89
869.972	-93.18
870.145	-13.31
870.319	107.52
870.492	11.26
870.665	-48.13
870.838	-39.94
871.011	-99.33
871.185	-60.42
871.358	-31.74
871.531	62.46
871.704	-13.31
871.877	-25.6
872.05	7.17
872.223	-44.03
872.396	84.99
872.569	-19.46
872.742	-103.42
872.915	113.66
873.088	-48.13
873.261	-74.75
873.434	142.33
873.607	-9.22
873.78	60.42
873.953	-44.03
874.126	-15.36
874.299	27.65
874.471	33.79
874.644	-17.41
874.817	99.33
874.99	142.33
875.163	-66.56
875.335	56.32
875.508	105.47
875.681	91.13
875.853	-7.17
876.026	25.6
876.199	1.02
876.371	50.18
876.544	-27.65
876.717	-21.5
876.889	-31.74
877.062	105.47
877.234	-99.33
877.407	-21.5
877.579	-1.02
877.752	-78.85
877.924	119.81
878.097	31.74
878.269	17.41
878.442	82.94
878.614	25.6
878.786	52.22
878.959	80.89
879.131	-33.79
879.303	-97.28
879.476	21.5
879.648	33.79
879.82	93.18
879.993	-25.6
880.165	-48.13
880.337	-76.8
880.509	-3.07
880.681	-50.18
880.854	-15.36
881.026	136.19
881.198	60.42
881.37	-19.46
881.542	-3.07
881.714	-74.75
881.886	-50.18
882.058	-41.98
882.23	-46.08
882.402	11.26
882.574	39.94
882.746	111.61
882.918	89.09
883.09	78.85
883.262	-50.18
883.434	52.22
883.606	-89.09
883.778	21.5
883.95	107.52
884.122	64.51
884.293	82.94
884.465	37.89
884.637	107.52
884.809	-97.28
884.98	-46.08
885.152	27.65
885.324	31.74
885.496	11.26
885.667	29.7
885.839	35.84
886.011	166.91
886.182	60.42
886.354	64.51
886.525	21.5
886.697	-9.22
886.869	-64.51
887.04	11.26
887.212	66.56
887.383	160.77
887.555	-37.89
887.726	-89.09
887.897	-35.84
888.069	-17.41
888.24	89.09
888.412	-33.79
888.583	3.07
888.754	-19.46
888.926	-113.66
889.097	31.74
889.268	-74.75
889.44	21.5
889.611	-82.94
889.782	-103.42
889.953	-19.46
890.125	56.32
890.296	-119.81
890.467	-11.26
890.638	-58.37
890.809	23.55
890.98	-13.31
891.151	23.55
891.323	37.89
891.494	11.26
891.665	-3.07
891.836	-5.12
892.007	-25.6
892.178	-19.46
892.349	44.03
892.52	9.22
892.691	-29.7
892.862	-31.74
893.032	-197.63
893.203	-17.41
893.374	-1.02
893.545	101.37
893.716	74.75
893.887	13.31
894.057	-19.46
894.228	52.22
894.399	-44.03
894.57	48.13
894.74	-48.13
894.911	31.74
895.082	-17.41
895.253	-7.17
895.423	56.32
895.594	156.67
895.764	-7.17
895.935	-41.98
896.106	66.56
896.276	21.5
896.447	13.31
896.617	-56.32
896.788	-41.98
896.958	-117.76
897.129	-70.65
897.299	-33.79
897.47	134.14
897.64	44.03
897.81	11.26
897.981	1.02
898.151	-109.57
898.322	60.42
898.492	-1.02
898.662	-33.79
898.832	5.12
899.003	41.98
899.173	64.51
899.343	-25.6
899.513	37.89
