Data from USB4F104151__56__11-30-46-565.txt Node

Date: Wed Feb 26 11:30:46 EST 2025
User: louis
Spectrometer: USB4F10415
Trigger mode: 4
Integration Time (sec): 1.000000E-1
Scans to average: 1
Electric dark correction enabled: true
Nonlinearity correction enabled: false
Boxcar width: 0
XAxis mode: Wavelengths
Number of Pixels in Spectrum: 3648
>>>>>Begin Spectral Data<<<<<
178.204	-428.71
178.424	-428.71
178.644	-428.71
178.864	-393.89
179.084	-316.07
179.304	-23.21
179.524	-17.07
179.744	52.56
179.964	21.84
180.184	-12.97
180.404	42.32
180.624	30.04
180.844	-66.22
181.064	-43.69
181.283	-0.68
181.503	-45.74
181.723	62.8
181.943	-111.27
182.163	226.64
182.383	-2.73
182.602	73.04
182.822	122.2
183.042	132.44
183.262	17.75
183.482	-12.97
183.701	34.13
183.921	130.39
184.141	-6.83
184.361	150.87
184.58	56.66
184.8	5.46
185.02	-8.87
185.239	-31.4
185.459	126.29
185.679	46.42
185.898	-72.36
186.118	42.32
186.338	68.95
186.557	124.24
186.777	-64.17
186.997	77.14
187.216	42.32
187.436	216.4
187.655	46.42
187.875	122.2
188.095	54.61
188.314	183.63
188.534	148.82
188.753	-47.79
188.973	122.2
189.192	130.39
189.412	-0.68
189.631	54.61
189.851	32.08
190.07	152.91
190.29	-70.31
190.509	-17.07
190.729	42.32
190.948	146.77
191.168	222.55
191.387	122.2
191.607	3.41
191.826	83.28
192.045	-33.45
192.265	-8.87
192.484	75.09
192.704	9.56
192.923	44.37
193.142	175.44
193.362	114
193.581	142.68
193.8	118.1
194.02	105.81
194.239	71
194.458	148.82
194.678	56.66
194.897	-2.73
195.116	89.43
195.335	89.43
195.555	136.53
195.774	54.61
195.993	118.1
196.212	79.19
196.432	13.65
196.651	-27.31
196.87	5.46
197.089	236.88
197.308	56.66
197.528	75.09
197.747	-19.11
197.966	15.7
198.185	169.3
198.404	11.61
198.623	195.92
198.842	228.69
199.062	87.38
199.281	99.67
199.5	97.62
199.719	97.62
199.938	50.52
200.157	46.42
200.376	50.52
200.595	124.24
200.814	85.33
201.033	3.41
201.252	140.63
201.471	73.04
201.69	140.63
201.909	118.1
202.128	120.15
202.347	-45.74
202.566	81.24
202.785	-62.12
203.004	38.23
203.223	226.64
203.442	58.71
203.661	-68.27
203.879	97.62
204.098	200.02
204.317	-31.4
204.536	34.13
204.755	27.99
204.974	171.35
205.193	60.76
205.411	173.39
205.63	68.95
205.849	7.51
206.068	34.13
206.287	54.61
206.505	218.45
206.724	42.32
206.943	46.42
207.162	3.41
207.381	11.61
207.599	68.95
207.818	99.67
208.037	-23.21
208.255	66.9
208.474	73.04
208.693	66.9
208.911	19.8
209.13	132.44
209.349	103.76
209.567	126.29
209.786	101.72
210.005	169.3
210.223	19.8
210.442	-62.12
210.661	138.58
210.879	66.9
211.098	38.23
211.316	62.8
211.535	157.01
211.753	91.48
211.972	114
212.191	54.61
212.409	95.57
212.628	103.76
212.846	11.61
213.065	101.72
213.283	122.2
213.502	38.23
213.72	77.14
213.938	77.14
214.157	-8.87
214.375	105.81
214.594	-8.87
214.812	64.85
215.031	-33.45
215.249	68.95
215.467	77.14
215.686	13.65
215.904	97.62
216.122	34.13
216.341	118.1
216.559	62.8
216.778	103.76
216.996	183.63
217.214	48.47
217.432	1.37
217.651	13.65
217.869	77.14
218.087	36.18
218.306	5.46
218.524	52.56
218.742	48.47
218.96	73.04
219.179	71
219.397	9.56
219.615	218.45
219.833	120.15
220.051	-12.97
220.27	15.7
220.488	126.29
220.706	19.8
220.924	19.8
221.142	36.18
221.36	48.47
221.578	87.38
221.796	42.32
222.015	109.91
222.233	73.04
222.451	230.74
222.669	-10.92
222.887	54.61
223.105	-6.83
223.323	13.65
223.541	3.41
223.759	58.71
223.977	42.32
224.195	175.44
224.413	42.32
224.631	-6.83
224.849	15.7
225.067	269.65
225.285	48.47
225.503	17.75
225.721	-64.17
225.939	105.81
226.157	68.95
226.375	214.35
226.592	19.8
226.81	58.71
227.028	148.82
227.246	122.2
227.464	5.46
227.682	163.15
227.9	58.71
228.117	46.42
228.335	87.38
228.553	81.24
228.771	3.41
228.989	118.1
229.206	183.63
229.424	21.84
229.642	5.46
229.86	-15.02
230.077	171.35
230.295	60.76
230.513	105.81
230.731	89.43
230.948	116.05
231.166	185.68
231.384	30.04
231.601	-37.55
231.819	189.78
232.037	-43.69
232.254	-12.97
232.472	77.14
232.689	-4.78
232.907	169.3
233.125	9.56
233.342	-78.51
233.56	36.18
233.777	30.04
233.995	56.66
234.213	210.26
234.43	152.91
234.648	30.04
234.865	-39.59
235.083	89.43
235.3	93.52
235.518	144.72
235.735	126.29
235.953	159.06
236.17	109.91
236.388	32.08
236.605	48.47
236.822	136.53
237.04	42.32
237.257	-2.73
237.475	-0.68
237.692	15.7
237.909	109.91
238.127	-17.07
238.344	15.7
238.562	21.84
238.779	-19.11
238.996	-25.26
239.214	7.51
239.431	27.99
239.648	-21.16
239.865	144.72
240.083	77.14
240.3	-15.02
240.517	73.04
240.735	109.91
240.952	128.34
241.169	52.56
241.386	40.28
241.603	23.89
241.821	50.52
242.038	77.14
242.255	99.67
242.472	9.56
242.689	25.94
242.907	71
243.124	87.38
243.341	85.33
243.558	3.41
243.775	30.04
243.992	-88.75
244.209	126.29
244.426	175.44
244.643	21.84
244.86	-15.02
245.078	114
245.295	52.56
245.512	-8.87
245.729	-17.07
245.946	130.39
246.163	73.04
246.38	21.84
246.597	73.04
246.814	58.71
247.031	87.38
247.248	97.62
247.464	75.09
247.681	40.28
247.898	68.95
248.115	134.48
248.332	-10.92
248.549	134.48
248.766	234.83
248.983	62.8
249.2	23.89
249.417	95.57
249.633	50.52
249.85	42.32
250.067	17.75
250.284	-47.79
250.501	81.24
250.717	85.33
250.934	-51.88
251.151	-10.92
251.368	52.56
251.585	58.71
251.801	75.09
252.018	-0.68
252.235	150.87
252.451	-35.5
252.668	9.56
252.885	165.2
253.102	23.89
253.318	-6.83
253.535	36.18
253.752	-29.35
253.968	40.28
254.185	-17.07
254.401	-0.68
254.618	36.18
254.835	-8.87
255.051	132.44
255.268	101.72
255.484	-49.83
255.701	68.95
255.917	71
256.134	13.65
256.351	62.8
256.567	-90.79
256.784	-6.83
257	-68.27
257.217	171.35
257.433	89.43
257.65	54.61
257.866	91.48
258.082	7.51
258.299	-41.64
258.515	19.8
258.732	-33.45
258.948	38.23
259.165	83.28
259.381	-12.97
259.597	48.47
259.814	77.14
260.03	89.43
260.246	93.52
260.463	171.35
260.679	165.2
260.895	109.91
261.112	-74.41
261.328	9.56
261.544	25.94
261.761	277.84
261.977	54.61
262.193	-21.16
262.409	118.1
262.626	25.94
262.842	68.95
263.058	101.72
263.274	91.48
263.49	-2.73
263.707	109.91
263.923	146.77
264.139	-74.41
264.355	38.23
264.571	118.1
264.787	81.24
265.004	140.63
265.22	128.34
265.436	111.96
265.652	50.52
265.868	13.65
266.084	-45.74
266.3	97.62
266.516	-4.78
266.732	36.18
266.948	46.42
267.164	46.42
267.38	71
267.596	23.89
267.812	181.59
268.028	105.81
268.244	36.18
268.46	109.91
268.676	81.24
268.892	81.24
269.108	13.65
269.324	38.23
269.54	-12.97
269.756	111.96
269.972	-103.08
270.188	40.28
270.403	34.13
270.619	27.99
270.835	144.72
271.051	3.41
271.267	-6.83
271.483	-45.74
271.698	118.1
271.914	64.85
272.13	81.24
272.346	48.47
272.562	3.41
272.777	202.07
272.993	23.89
273.209	-21.16
273.425	99.67
273.64	-31.4
273.856	124.24
274.072	81.24
274.287	-58.03
274.503	101.72
274.719	128.34
274.934	-53.93
275.15	-33.45
275.366	-27.31
275.581	-2.73
275.797	30.04
276.012	66.9
276.228	-10.92
276.444	48.47
276.659	9.56
276.875	-12.97
277.09	138.58
277.306	27.99
277.521	183.63
277.737	87.38
277.952	105.81
278.168	3.41
278.383	79.19
278.599	91.48
278.814	107.86
279.03	97.62
279.245	197.97
279.461	97.62
279.676	91.48
279.892	15.7
280.107	1.37
280.322	32.08
280.538	60.76
280.753	23.89
280.969	109.91
281.184	54.61
281.399	159.06
281.615	50.52
281.83	64.85
282.045	-21.16
282.26	21.84
282.476	103.76
282.691	122.2
282.906	150.87
283.122	38.23
283.337	66.9
283.552	66.9
283.767	-12.97
283.983	154.96
284.198	38.23
284.413	75.09
284.628	-8.87
284.843	15.7
285.058	101.72
285.274	-37.55
285.489	36.18
285.704	83.28
285.919	58.71
286.134	-17.07
286.349	111.96
286.564	-33.45
286.779	114
286.995	-17.07
287.21	5.46
287.425	95.57
287.64	48.47
287.855	83.28
288.07	-25.26
288.285	142.68
288.5	157.01
288.715	116.05
288.93	23.89
289.145	-41.64
289.36	109.91
289.575	30.04
289.79	136.53
290.004	79.19
290.219	111.96
290.434	-37.55
290.649	93.52
290.864	-45.74
291.079	34.13
291.294	46.42
291.509	95.57
291.724	25.94
291.938	109.91
292.153	19.8
292.368	40.28
292.583	118.1
292.798	64.85
293.012	101.72
293.227	97.62
293.442	-29.35
293.657	66.9
293.871	114
294.086	81.24
294.301	185.68
294.516	95.57
294.73	87.38
294.945	7.51
295.16	77.14
295.374	206.16
295.589	122.2
295.804	56.66
296.018	62.8
296.233	152.91
296.447	40.28
296.662	71
296.877	177.49
297.091	75.09
297.306	81.24
297.52	-23.21
297.735	77.14
297.949	64.85
298.164	21.84
298.378	42.32
298.593	-47.79
298.807	32.08
299.022	89.43
299.236	169.3
299.451	73.04
299.665	1.37
299.88	17.75
300.094	95.57
300.309	66.9
300.523	64.85
300.737	15.7
300.952	161.11
301.166	103.76
301.381	1.37
301.595	-51.88
301.809	101.72
302.024	38.23
302.238	7.51
302.452	154.96
302.667	99.67
302.881	175.44
303.095	111.96
303.309	146.77
303.524	66.9
303.738	17.75
303.952	44.37
304.166	64.85
304.381	-135.85
304.595	187.73
304.809	21.84
305.023	130.39
305.237	7.51
305.452	62.8
305.666	36.18
305.88	60.76
306.094	163.15
306.308	21.84
306.522	83.28
306.736	124.24
306.95	126.29
307.164	73.04
307.379	71
307.593	206.16
307.807	222.55
308.021	111.96
308.235	134.48
308.449	-55.98
308.663	34.13
308.877	159.06
309.091	66.9
309.305	99.67
309.519	7.51
309.733	126.29
309.947	-33.45
310.161	173.39
310.374	120.15
310.588	87.38
310.802	-41.64
311.016	-19.11
311.23	54.61
311.444	-39.59
311.658	85.33
311.872	120.15
312.085	107.86
312.299	171.35
312.513	150.87
312.727	152.91
312.941	-60.07
313.154	38.23
313.368	107.86
313.582	5.46
313.796	42.32
314.009	32.08
314.223	109.91
314.437	46.42
314.651	148.82
314.864	56.66
315.078	99.67
315.292	-41.64
315.505	56.66
315.719	118.1
315.933	171.35
316.146	111.96
316.36	-35.5
316.573	163.15
316.787	173.39
317.001	89.43
317.214	17.75
317.428	54.61
317.641	50.52
317.855	-27.31
318.068	-12.97
318.282	48.47
318.495	189.78
318.709	173.39
318.922	97.62
319.136	142.68
319.349	95.57
319.563	-8.87
319.776	116.05
319.99	-0.68
320.203	150.87
320.417	105.81
320.63	103.76
320.843	191.83
321.057	130.39
321.27	68.95
321.483	81.24
321.697	163.15
321.91	93.52
322.124	87.38
322.337	97.62
322.55	40.28
322.763	116.05
322.977	27.99
323.19	50.52
323.403	50.52
323.617	66.9
323.83	132.44
324.043	50.52
324.256	5.46
324.469	-6.83
324.683	122.2
324.896	79.19
325.109	97.62
325.322	-72.36
325.535	111.96
325.748	136.53
325.962	27.99
326.175	54.61
326.388	60.76
326.601	148.82
326.814	3.41
327.027	62.8
327.24	138.58
327.453	-103.08
327.666	25.94
327.879	122.2
328.092	54.61
328.305	60.76
328.518	-72.36
328.731	101.72
328.944	15.7
329.157	79.19
329.37	60.76
329.583	247.12
329.796	148.82
330.009	23.89
330.222	105.81
330.435	52.56
330.648	25.94
330.861	81.24
331.073	142.68
331.286	103.76
331.499	79.19
331.712	-21.16
331.925	71
332.138	120.15
332.35	195.92
332.563	-82.6
332.776	93.52
332.989	-51.88
333.202	-25.26
333.414	-0.68
333.627	77.14
333.84	42.32
334.053	79.19
334.265	3.41
334.478	52.56
334.691	34.13
334.903	44.37
335.116	-37.55
335.329	-60.07
335.541	154.96
335.754	124.24
335.966	27.99
336.179	66.9
336.392	46.42
336.604	54.61
336.817	114
337.029	40.28
337.242	68.95
337.454	111.96
337.667	105.81
337.88	177.49
338.092	83.28
338.305	30.04
338.517	-0.68
338.729	71
338.942	195.92
339.154	-15.02
339.367	-125.61
339.579	107.86
339.792	-33.45
340.004	79.19
340.217	50.52
340.429	95.57
340.641	-2.73
340.854	25.94
341.066	-10.92
341.278	140.63
341.491	185.68
341.703	85.33
341.915	17.75
342.128	44.37
342.34	66.9
342.552	-25.26
342.764	71
342.977	-6.83
343.189	103.76
343.401	103.76
343.613	-78.51
343.826	1.37
344.038	-12.97
344.25	68.95
344.462	13.65
344.674	99.67
344.886	27.99
345.099	103.76
345.311	44.37
345.523	-8.87
345.735	-43.69
345.947	128.34
346.159	93.52
346.371	71
346.583	30.04
346.795	195.92
347.007	75.09
347.219	109.91
347.431	62.8
347.643	132.44
347.855	13.65
348.067	247.12
348.279	9.56
348.491	56.66
348.703	71
348.915	91.48
349.127	-4.78
349.339	-31.4
349.551	17.75
349.763	122.2
349.975	9.56
350.187	130.39
350.399	85.33
350.61	103.76
350.822	11.61
351.034	-2.73
351.246	62.8
351.458	73.04
351.669	99.67
351.881	116.05
352.093	187.73
352.305	146.77
352.517	40.28
352.728	169.3
352.94	73.04
353.152	89.43
353.363	17.75
353.575	56.66
353.787	247.12
353.999	114
354.21	183.63
354.422	-49.83
354.633	13.65
354.845	56.66
355.057	50.52
355.268	5.46
355.48	85.33
355.692	-23.21
355.903	50.52
356.115	36.18
356.326	-37.55
356.538	134.48
356.749	81.24
356.961	163.15
357.172	73.04
357.384	-29.35
357.595	222.55
357.807	30.04
358.018	-10.92
358.23	48.47
358.441	183.63
358.653	58.71
358.864	15.7
359.075	13.65
359.287	95.57
359.498	185.68
359.709	103.76
359.921	30.04
360.132	124.24
360.344	-33.45
360.555	36.18
360.766	36.18
360.977	23.89
361.189	77.14
361.4	25.94
361.611	124.24
361.823	185.68
362.034	48.47
362.245	-25.26
362.456	-10.92
362.667	165.2
362.879	105.81
363.09	52.56
363.301	109.91
363.512	103.76
363.723	60.76
363.935	71
364.146	81.24
364.357	89.43
364.568	77.14
364.779	25.94
364.99	105.81
365.201	-47.79
365.412	146.77
365.623	-15.02
365.834	30.04
366.045	58.71
366.256	62.8
366.467	103.76
366.678	71
366.889	32.08
367.1	-6.83
367.311	130.39
367.522	3.41
367.733	120.15
367.944	23.89
368.155	138.58
368.366	91.48
368.577	81.24
368.788	148.82
368.999	5.46
369.209	124.24
369.42	173.39
369.631	197.97
369.842	161.11
370.053	-29.35
370.264	89.43
370.474	-27.31
370.685	52.56
370.896	97.62
371.107	134.48
371.317	105.81
371.528	-33.45
371.739	157.01
371.95	87.38
372.16	105.81
372.371	1.37
372.582	120.15
372.792	56.66
373.003	-15.02
373.214	79.19
373.424	97.62
373.635	3.41
373.846	144.72
374.056	77.14
374.267	40.28
374.477	62.8
374.688	85.33
374.898	46.42
375.109	42.32
375.319	126.29
375.53	204.11
375.74	109.91
375.951	19.8
376.161	97.62
376.372	243.03
376.582	62.8
376.793	83.28
377.003	36.18
377.214	-35.5
377.424	142.68
377.635	105.81
377.845	-82.6
378.055	169.3
378.266	-6.83
378.476	36.18
378.686	114
378.897	128.34
379.107	91.48
379.317	79.19
379.528	23.89
379.738	105.81
379.948	9.56
380.158	224.59
380.369	66.9
380.579	93.52
380.789	85.33
380.999	107.86
381.21	167.25
381.42	230.74
381.63	1.37
381.84	146.77
382.05	58.71
382.261	120.15
382.471	128.34
382.681	54.61
382.891	105.81
383.101	17.75
383.311	11.61
383.521	34.13
383.731	224.59
383.941	122.2
384.151	116.05
384.361	25.94
384.571	68.95
384.781	85.33
384.991	271.7
385.201	154.96
385.411	161.11
385.621	105.81
385.831	-23.21
386.041	120.15
386.251	7.51
386.461	105.81
386.671	36.18
386.881	25.94
387.091	38.23
387.301	48.47
387.511	77.14
387.72	50.52
387.93	126.29
388.14	-29.35
388.35	91.48
388.56	89.43
388.769	89.43
388.979	89.43
389.189	101.72
389.399	122.2
389.609	118.1
389.818	116.05
390.028	-8.87
390.238	107.86
390.447	62.8
390.657	54.61
390.867	13.65
391.076	-35.5
391.286	118.1
391.496	36.18
391.705	19.8
391.915	171.35
392.125	216.4
392.334	48.47
392.544	105.81
392.753	11.61
392.963	15.7
393.172	36.18
393.382	-29.35
393.591	193.87
393.801	62.8
394.01	136.53
394.22	101.72
394.429	32.08
394.639	46.42
394.848	54.61
395.058	77.14
395.267	19.8
395.477	126.29
395.686	87.38
395.895	177.49
396.105	171.35
396.314	124.24
396.524	27.99
396.733	-2.73
396.942	167.25
397.152	48.47
397.361	245.07
397.57	107.86
397.78	132.44
397.989	79.19
398.198	228.69
398.407	81.24
398.617	40.28
398.826	62.8
399.035	85.33
399.244	99.67
399.453	58.71
399.663	58.71
399.872	91.48
400.081	-37.55
400.29	79.19
400.499	62.8
400.708	40.28
400.917	46.42
401.127	7.51
401.336	66.9
401.545	234.83
401.754	144.72
401.963	81.24
402.172	15.7
402.381	-68.27
402.59	19.8
402.799	48.47
403.008	77.14
403.217	77.14
403.426	107.86
403.635	-84.65
403.844	81.24
404.053	-66.22
404.262	34.13
404.471	79.19
404.68	13.65
404.888	111.96
405.097	34.13
405.306	103.76
405.515	126.29
405.724	48.47
405.933	144.72
406.142	116.05
406.35	130.39
406.559	132.44
406.768	62.8
406.977	265.55
407.185	44.37
407.394	71
407.603	27.99
407.812	68.95
408.02	159.06
408.229	68.95
408.438	120.15
408.646	9.56
408.855	-10.92
409.064	95.57
409.272	21.84
409.481	91.48
409.69	5.46
409.898	30.04
410.107	173.39
410.315	208.21
410.524	-27.31
410.733	136.53
410.941	99.67
411.15	144.72
411.358	136.53
411.567	189.78
411.775	95.57
411.984	60.76
412.192	140.63
412.401	73.04
412.609	189.78
412.818	183.63
413.026	62.8
413.234	-31.4
413.443	48.47
413.651	56.66
413.86	-35.5
414.068	191.83
414.276	167.25
414.485	60.76
414.693	185.68
414.901	243.03
415.11	97.62
415.318	60.76
415.526	77.14
415.734	79.19
415.943	142.68
416.151	152.91
416.359	40.28
416.567	3.41
416.776	85.33
416.984	136.53
417.192	183.63
417.4	-8.87
417.608	42.32
417.817	1.37
418.025	136.53
418.233	128.34
418.441	-41.64
418.649	-68.27
418.857	73.04
419.065	122.2
419.273	46.42
419.481	111.96
419.689	30.04
419.897	9.56
420.105	27.99
420.313	95.57
420.521	167.25
420.729	73.04
420.937	46.42
421.145	27.99
421.353	93.52
421.561	195.92
421.769	48.47
421.977	30.04
422.185	91.48
422.393	107.86
422.601	118.1
422.809	159.06
423.017	25.94
423.224	111.96
423.432	122.2
423.64	46.42
423.848	195.92
424.056	11.61
424.263	150.87
424.471	126.29
424.679	187.73
424.887	30.04
425.094	99.67
425.302	216.4
425.51	50.52
425.718	79.19
425.925	79.19
426.133	71
426.341	208.21
426.548	46.42
426.756	58.71
426.964	118.1
427.171	75.09
427.379	40.28
427.586	140.63
427.794	81.24
428.001	261.46
428.209	146.77
428.417	171.35
428.624	150.87
428.832	148.82
429.039	54.61
429.247	99.67
429.454	97.62
429.662	202.07
429.869	122.2
430.076	66.9
430.284	247.12
430.491	269.65
430.699	181.59
430.906	173.39
431.114	163.15
431.321	154.96
431.528	79.19
431.736	159.06
431.943	195.92
432.15	189.78
432.358	214.35
432.565	185.68
432.772	32.08
432.979	208.21
433.187	181.59
433.394	238.93
433.601	169.3
433.808	228.69
434.016	257.36
434.223	333.14
434.43	255.31
434.637	286.03
434.844	200.02
435.052	206.16
435.259	271.7
435.466	251.22
435.673	210.26
435.88	265.55
436.087	257.36
436.294	314.7
436.501	386.38
436.708	279.89
436.915	290.13
437.122	339.28
437.329	312.66
437.537	365.9
437.743	359.76
437.95	447.82
438.157	304.46
438.364	357.71
438.571	374.1
438.778	472.4
438.985	439.63
439.192	539.98
439.399	486.73
439.606	527.69
439.813	482.64
440.02	597.32
440.227	648.52
440.433	552.27
440.64	521.55
440.847	476.49
441.054	650.57
441.261	697.67
441.467	685.39
441.674	546.12
441.881	695.63
442.088	582.99
442.294	726.35
442.501	726.35
442.708	816.46
442.914	755.02
443.121	851.27
443.328	896.33
443.534	929.1
443.741	849.22
443.948	755.02
444.154	830.79
444.361	1217.86
444.568	1029.45
444.774	988.49
444.981	994.63
445.187	1121.6
445.394	1072.45
445.6	1070.4
445.807	1203.52
446.013	1246.53
446.22	1252.67
446.426	1365.31
446.633	1496.38
446.839	1510.72
447.046	1420.61
447.252	1566.01
447.459	1514.81
447.665	1545.53
447.871	1815.87
448.078	1916.22
448.284	1805.63
448.491	1893.69
448.697	1957.18
448.903	2155.83
449.11	2133.3
449.316	2161.97
449.522	2334
449.728	2393.39
449.935	2350.39
450.141	2444.59
450.347	2659.63
450.553	2665.77
450.76	2708.78
450.966	2823.47
451.172	2905.38
451.378	3026.22
451.584	3149.09
451.791	3267.88
451.997	3458.34
452.203	3560.73
452.409	3712.28
452.615	3763.48
452.821	3761.44
453.027	3806.49
453.233	4218.13
453.44	4060.44
453.646	4449.55
453.852	4367.63
454.058	4685.07
454.264	4756.75
454.47	5182.73
454.676	5166.34
454.882	5598.46
455.088	5467.39
455.294	5764.35
455.5	5850.36
455.705	6411.51
455.911	6374.64
456.117	6585.58
456.323	6776.05
456.529	6819.05
456.735	7474.4
456.941	7775.45
457.147	7849.18
457.352	8133.85
457.558	8508.63
457.764	8864.97
457.97	9196.74
458.176	9602.24
458.381	9813.18
458.587	9993.4
458.793	10704.05
458.999	10652.85
459.204	12051.61
459.41	12420.25
459.616	12068
459.821	12977.3
460.027	13540.49
460.233	14234.75
460.438	14247.04
460.644	15055.98
460.85	15238.25
461.055	15807.59
461.261	16563.29
461.466	16174.17
461.672	16649.3
461.878	18390.08
462.083	18256.96
462.289	18584.63
462.494	19180.59
462.7	19321.9
462.905	19821.61
463.111	21191.7
463.316	22461.44
463.522	22825.98
463.727	23329.78
463.932	24509.41
464.138	25125.85
464.343	26241.99
464.549	26457.03
464.754	28226.47
464.959	28902.3
465.165	29301.65
465.37	29186.97
465.575	29346.71
465.781	31101.82
465.986	32260.97
466.191	31726.45
466.397	31845.23
466.602	31452.02
466.807	33538.9
467.012	33551.19
467.218	34095.95
467.423	34411.34
467.628	35099.45
467.833	36838.18
468.038	36166.45
468.244	36018.99
468.449	37575.45
468.654	36905.76
468.859	36459.31
469.064	36623.14
469.269	35898.16
469.474	36168.49
469.679	37266.2
469.885	36107.05
470.09	36573.99
470.295	36645.67
470.5	35636.02
470.705	36100.91
470.91	35156.8
471.115	34804.55
471.32	35601.21
471.525	35263.29
471.73	34243.4
471.935	34034.51
472.139	32580.45
472.344	32463.72
472.549	32392.04
472.754	31628.15
472.959	31087.48
473.164	29950.86
473.369	29840.27
473.574	30667.65
473.778	29856.65
473.983	28959.64
474.188	28677.02
474.393	27493.3
474.598	27251.64
474.802	26784.7
475.007	26239.94
475.212	26418.11
475.417	24832.99
475.621	24974.3
475.826	24411.1
476.031	23952.36
476.235	23321.59
476.44	23438.32
476.645	22776.83
476.849	22707.19
477.054	22139.91
477.259	21730.31
477.463	21599.24
477.668	20818.97
477.872	21314.58
478.077	20530.2
478.282	19934.25
478.486	19770.41
478.691	19412.01
478.895	19106.87
479.1	19035.19
479.304	19035.19
479.509	18562.11
479.713	18877.49
479.918	18283.58
480.122	17708.1
480.326	18238.53
480.531	18005.06
480.735	17712.2
480.94	17648.71
481.144	18148.42
481.348	16835.67
481.553	17372.24
481.757	16856.15
481.961	17220.69
482.166	17208.4
482.37	16917.59
482.574	16256.09
482.778	16481.37
482.983	16536.67
483.187	16356.44
483.391	16176.22
483.595	16057.44
483.8	15758.44
484.004	15774.82
484.208	15889.51
484.412	15586.41
484.616	15430.76
484.821	15246.44
485.025	14711.92
485.229	14855.28
485.433	14611.57
485.637	14687.35
485.841	14253.18
486.045	14181.5
486.249	13941.89
486.453	13663.36
486.657	13653.12
486.861	13390.98
487.065	12901.52
487.269	12942.48
487.473	12321.95
487.677	12690.58
487.881	12723.35
488.085	12090.52
488.289	12094.62
488.493	11695.27
488.697	11697.31
488.901	11381.93
489.105	11183.27
489.309	10964.14
489.512	10968.24
489.716	10691.76
489.92	10437.81
490.124	10194.11
490.328	10355.9
490.531	9772.22
490.735	9919.68
490.939	9643.2
491.143	9336.01
491.346	9227.46
491.55	9125.07
491.754	8950.99
491.958	9004.24
492.161	8635.6
492.365	8545.49
492.569	8258.78
492.772	8402.13
492.976	8254.68
493.18	8170.71
493.383	8103.13
493.587	7795.93
493.79	7931.1
493.994	7521.51
494.197	7515.36
494.401	7789.79
494.605	7505.12
494.808	7488.74
495.012	7419.11
495.215	7458.02
495.419	7294.18
495.622	7294.18
495.825	7195.88
496.029	7159.02
496.232	7142.63
496.436	7111.91
496.639	7183.59
496.843	6972.65
497.046	7197.93
497.249	7156.97
497.453	7189.74
497.656	7212.26
497.859	7159.02
498.063	7259.37
498.266	7120.1
498.469	7111.91
498.673	7156.97
498.876	7208.17
499.079	7253.22
499.282	7146.73
499.485	7486.69
499.689	7458.02
499.892	7474.4
500.095	7396.58
500.298	7601.38
500.501	7302.37
500.705	7732.45
500.908	7888.09
501.111	7808.22
501.314	7875.81
501.517	8039.64
501.72	8115.42
501.923	8209.62
502.126	8262.87
502.329	8490.2
502.532	8475.86
502.735	8424.66
502.938	8817.87
503.141	8658.13
503.344	8619.22
503.547	8864.97
503.75	8950.99
503.953	8971.47
504.156	9268.42
504.359	9338.05
504.562	9405.64
504.765	9624.77
504.968	9862.33
505.17	10036.41
505.373	10147
505.576	10335.42
505.779	10421.43
505.982	10710.19
506.185	10869.94
506.387	10894.51
506.59	11134.12
506.793	11388.07
506.996	11498.66
507.198	11852.96
507.401	12063.9
507.604	12428.44
507.807	12391.58
508.009	12788.88
508.212	13094.03
508.415	13114.51
508.617	13507.72
508.82	13661.32
509.022	13935.74
509.225	14423.16
509.428	14644.34
509.63	15084.66
509.833	15111.28
510.035	15789.16
510.238	15936.61
510.44	16456.79
510.643	16630.87
510.845	16868.44
511.048	17458.25
511.25	17763.4
511.453	18281.53
511.655	18797.62
511.858	19229.74
512.06	19424.3
512.262	20053.03
512.465	20225.06
512.667	20816.92
512.87	21120.02
513.072	21523.47
513.274	22371.33
513.477	22950.9
513.679	23495.66
513.881	23802.86
514.084	24271.84
514.286	24533.98
514.488	25183.19
514.69	26434.5
514.893	26373.06
515.095	27200.44
515.297	27868.08
515.499	28085.16
515.701	28851.1
515.904	29508.5
516.106	30264.2
516.308	30354.31
516.51	31574.9
516.712	31794.03
516.914	32641.89
517.116	33416.02
517.318	33823.57
517.52	34798.4
517.722	34849.6
517.925	35765.04
518.127	36494.12
518.329	37165.85
518.531	37323.55
518.733	38826.76
518.935	39123.71
519.136	39369.47
519.338	40286.96
519.54	41036.52
519.742	41630.43
519.944	42238.67
520.146	43328.19
520.348	43397.82
520.55	43543.23
520.752	44415.66
520.954	45437.6
521.155	45140.64
521.357	46068.37
521.559	46711.44
521.761	47467.14
521.963	48099.96
522.164	48226.93
522.366	48720.49
522.568	48818.8
522.77	49902.17
522.971	50111.06
523.173	50180.7
523.375	50596.43
523.576	50518.61
523.778	50664.02
523.98	51454.53
524.181	51704.38
524.383	51839.55
524.584	52134.46
524.786	52040.25
524.988	51874.37
525.189	52630.07
525.391	52566.58
525.592	52431.41
525.794	52939.31
525.995	52650.55
526.197	52206.14
526.398	52851.25
526.6	52824.62
526.801	52187.71
527.003	52603.44
527.204	51991.1
527.406	52378.17
527.607	51829.31
527.808	51862.08
528.01	50958.92
528.211	51061.32
528.412	51452.48
528.614	50723.41
528.815	50451.03
529.016	50504.27
529.218	49244.77
529.419	49590.88
529.62	49054.31
529.822	48726.64
530.023	48329.33
530.224	48009.85
530.425	47600.25
530.626	46217.88
530.828	46144.15
531.029	46797.45
531.23	45460.13
531.431	44823.21
531.632	44634.8
531.833	44311.22
532.035	43649.72
532.236	43352.77
532.437	42799.82
532.638	42087.12
532.839	41796.31
533.04	41370.33
533.241	40297.2
533.442	40651.5
533.643	40159.98
533.844	39543.55
534.045	38581
534.246	37927.7
534.447	38236.94
534.648	37110.56
534.849	37294.88
535.05	36217.64
535.251	35629.88
535.451	35300.15
535.652	35005.25
535.853	34509.64
536.054	34210.64
536.255	33579.86
536.456	32805.73
536.657	33131.36
536.857	32023.4
537.058	31798.13
537.259	31802.22
537.46	31134.59
537.66	30405.51
537.861	30276.49
538.062	29995.92
538.263	29580.18
538.463	28760.99
538.664	28654.5
538.865	28593.06
539.065	28455.84
539.266	27493.3
539.466	27485.11
539.667	27083.7
539.868	27108.28
540.068	26600.38
540.269	26563.52
540.469	26067.91
540.67	25109.46
540.87	25324.5
541.071	25111.51
541.271	25039.83
541.472	24765.4
541.672	24349.67
541.873	23671.79
542.073	23323.63
542.274	23569.39
542.474	22877.18
542.675	22518.78
542.875	22830.07
543.075	22500.35
543.276	22088.71
543.476	22164.48
543.676	21701.64
543.877	21388.3
544.077	21257.23
544.277	21220.37
544.478	20337.69
544.678	20255.78
544.878	20096.03
545.078	20159.52
545.279	19928.1
545.479	19518.51
545.679	19219.5
545.879	19305.52
546.079	18965.56
546.28	18654.26
546.48	18285.63
546.68	18334.78
546.88	18041.92
547.08	17884.23
547.28	17691.72
547.48	17407.05
547.68	17366.09
547.88	17126.48
548.081	17011.79
548.281	16763.99
548.481	16581.72
548.681	16604.25
548.881	16004.19
549.081	15938.66
549.28	15584.36
549.48	15453.29
549.68	15215.73
549.88	15264.88
550.08	14466.17
550.28	14756.98
550.48	14529.66
550.68	14578.81
550.88	14089.34
551.08	13765.76
551.279	13563.01
551.479	13450.38
551.679	13462.66
551.879	13071.5
552.079	12831.89
552.278	12668.05
552.478	12483.73
552.678	12354.71
552.878	12373.14
553.077	12096.67
553.277	11760.8
553.477	11658.4
553.676	11369.64
553.876	11338.92
554.076	10765.49
554.275	10865.84
554.475	10673.33
554.674	10841.26
554.874	10296.5
555.074	10222.78
555.273	10312.89
555.473	9757.89
555.672	9987.26
555.872	9600.19
556.071	9340.1
556.271	9553.09
556.47	9131.21
556.67	8922.32
556.869	8934.6
557.068	8746.19
557.268	8418.52
557.467	8473.81
557.667	8549.59
557.866	8053.98
558.065	8017.11
558.265	7795.93
558.464	7714.02
558.663	7826.65
558.863	7478.5
559.062	7683.3
559.261	7273.7
559.461	7300.33
559.66	6991.08
559.859	7056.62
560.058	6843.63
560.258	6714.61
560.457	6753.52
560.656	6782.19
560.855	6302.97
561.054	6495.47
561.253	6294.77
561.453	6147.32
561.652	6108.41
561.851	5965.05
562.05	5827.84
562.249	5760.25
562.448	5772.54
562.647	5557.5
562.846	5565.7
563.045	5463.3
563.244	5213.45
563.443	5389.57
563.642	5027.08
563.841	5215.49
564.04	4893.96
564.239	4898.06
564.438	4979.98
564.637	4795.66
564.836	4807.95
565.035	4539.66
565.234	4531.47
565.432	4613.39
565.631	4451.6
565.83	4470.03
566.029	4373.78
566.228	4338.96
566.427	4353.3
566.625	4037.91
566.824	3990.81
567.023	4066.58
567.222	3951.9
567.42	4001.05
567.619	3767.58
567.818	3777.82
568.016	3812.64
568.215	3773.72
568.414	3648.8
568.612	3722.52
568.811	3542.3
569.01	3497.25
569.208	3421.47
569.407	3525.92
569.605	3392.8
569.804	3265.83
570.002	3353.89
570.201	3269.92
570.4	3228.96
570.598	3110.18
570.797	3038.5
570.995	2870.57
571.193	2932.01
571.392	2927.91
571.59	2831.66
571.789	3013.93
571.987	2829.61
572.186	2727.21
572.384	2731.31
572.582	2725.16
572.781	2749.74
572.979	2546.99
573.177	2602.29
573.376	2483.5
573.574	2684.2
573.772	2501.94
573.971	2508.08
574.169	2299.19
574.367	2336.05
574.565	2284.85
574.763	2227.51
574.962	2286.9
575.16	2213.17
575.358	2090.29
575.556	2073.91
575.754	2188.6
575.952	2032.95
576.151	2084.15
576.349	2047.29
576.547	1867.06
576.745	2078.01
576.943	1844.54
577.141	1877.3
577.339	1832.25
577.537	1838.39
577.735	1846.59
577.933	1740.09
578.131	1754.43
578.329	1742.14
578.527	1649.98
578.725	1766.71
578.923	1561.92
579.121	1656.12
579.319	1488.19
579.516	1533.25
579.714	1701.18
579.912	1512.77
580.11	1436.99
580.308	1492.29
580.506	1502.53
580.704	1334.59
580.901	1377.6
581.099	1480
581.297	1439.04
581.495	1283.39
581.692	1264.96
581.89	1396.03
582.088	1336.64
582.285	1230.15
582.483	1250.63
582.681	1156.42
582.878	1160.52
583.076	1160.52
583.274	1176.9
583.471	1242.43
583.669	1160.52
583.866	1066.31
584.064	1066.31
584.262	1004.87
584.459	1080.64
584.657	1164.61
584.854	1025.35
585.052	1072.45
585.249	1066.31
585.447	1064.26
585.644	867.66
585.841	1176.9
586.039	1097.03
586.236	1000.77
586.434	902.47
586.631	773.45
586.828	918.86
587.026	931.14
587.223	744.78
587.42	888.14
587.618	892.23
587.815	1008.97
588.012	873.8
588.21	769.35
588.407	884.04
588.604	894.28
588.801	769.35
588.999	738.63
589.196	986.44
589.393	693.58
589.59	777.55
589.787	822.6
589.984	765.26
590.182	738.63
590.379	738.63
590.576	732.49
590.773	771.4
590.97	802.12
591.167	795.98
591.364	890.18
591.561	812.36
591.758	812.36
591.955	699.72
592.152	759.11
592.349	775.5
592.546	722.25
592.743	613.71
592.94	732.49
593.137	742.73
593.334	748.87
593.531	687.43
593.727	781.64
593.924	832.84
594.121	761.16
594.318	755.02
594.515	769.35
594.712	830.79
594.908	875.85
595.105	693.58
595.302	785.74
595.499	804.17
595.696	937.29
595.892	783.69
596.089	957.77
596.286	855.37
596.482	937.29
596.679	951.62
596.876	873.8
597.072	1019.21
597.269	1004.87
597.466	976.2
597.662	974.15
597.859	996.68
598.055	994.63
598.252	1125.7
598.448	1133.89
598.645	1152.32
598.841	1295.68
599.038	1381.7
599.234	1381.7
599.431	1383.74
599.627	1361.22
599.824	1492.29
600.02	1508.67
600.217	1482.05
600.413	1549.63
600.609	1588.54
600.806	1842.49
601.002	1826.11
601.198	1707.32
601.395	1838.39
601.591	2071.86
601.787	2053.43
601.984	2188.6
602.18	2198.84
602.376	2309.43
602.572	2321.71
602.769	2444.59
602.965	2442.54
603.161	2635.05
603.357	2794.79
603.553	2774.31
603.75	2772.27
603.946	2972.97
604.142	3106.09
604.338	3302.69
604.534	3276.07
604.73	3306.79
604.926	3357.99
605.122	3511.58
605.318	3761.44
605.514	3802.4
605.71	3947.8
605.906	4007.19
606.102	4021.53
606.298	4273.43
606.494	4392.21
606.69	4572.43
606.886	4695.31
607.082	4672.78
607.278	4785.42
607.474	4795.66
607.67	5127.43
607.866	5188.87
608.062	5577.98
608.257	5530.88
608.453	5618.94
608.649	5897.47
608.845	6085.88
609.041	6204.66
609.236	6505.71
609.432	6563.06
609.628	6851.82
609.824	6886.64
610.019	6845.68
610.215	7359.72
610.411	7582.95
610.606	7498.98
610.802	7797.98
610.998	8099.03
611.193	8408.28
611.389	8369.37
611.584	8682.7
611.78	8750.29
611.976	9075.91
612.171	9440.45
612.367	9477.32
612.562	9993.4
612.758	9964.73
612.953	10202.3
613.149	10816.69
613.344	10865.84
613.539	11388.07
613.735	11463.85
613.93	11797.67
614.126	11799.71
614.321	12418.2
614.517	12909.71
614.712	12901.52
614.907	13354.12
615.103	13663.36
615.298	13974.66
615.493	14398.59
615.688	14558.33
615.884	15098.99
616.079	15326.32
616.274	15993.95
616.47	16188.51
616.665	16497.75
616.86	16964.69
617.055	17224.78
617.25	17880.13
617.445	18459.71
617.641	18453.56
617.836	19303.47
618.031	19219.5
618.226	20247.58
618.421	20522.01
618.616	21320.72
618.811	21398.54
619.006	22064.13
619.201	22094.85
619.396	22965.24
619.591	23233.52
619.786	24212.45
619.981	24009.7
620.176	25226.2
620.371	25293.78
620.566	25840.59
620.761	26489.79
620.956	27202.49
621.151	27206.58
621.346	28066.73
621.541	28335.01
621.735	29301.65
621.93	29363.09
622.125	30241.67
622.32	30350.21
622.515	31218.55
622.709	31593.33
622.904	32529.25
623.099	32959.33
623.294	33532.76
623.488	33575.76
623.683	34511.69
623.878	34622.28
624.072	35674.93
624.267	36342.57
624.462	36471.59
624.656	37165.85
624.851	37667.61
625.046	37903.12
625.24	38439.69
625.435	39023.36
625.629	39709.43
625.824	40090.35
626.018	41034.47
626.213	40682.22
626.407	41345.76
626.602	41614.04
626.796	42169.04
626.991	42943.17
627.185	42998.47
627.38	43164.35
627.574	43487.93
627.768	43229.89
627.963	43418.3
628.157	43303.62
628.352	44167.86
628.546	43182.79
628.74	43963.06
628.935	43469.5
629.129	43614.91
629.323	42775.24
629.517	42648.27
629.712	42750.67
629.906	42160.85
630.1	41810.65
630.294	41243.36
630.489	40667.88
630.683	40852.2
630.877	39348.99
631.071	38757.13
631.265	38243.09
631.459	37604.12
631.653	36338.47
631.848	35822.39
632.042	34509.64
632.236	34165.58
632.43	32852.83
632.624	32404.33
632.818	30786.43
633.012	29750.16
633.206	29111.19
633.4	28199.85
633.594	26870.72
633.788	26186.69
633.982	25293.78
634.176	24663
634.369	23335.92
634.563	22215.68
634.757	21535.76
634.951	20802.58
635.145	20073.51
635.339	19319.85
635.533	18418.75
635.726	17812.55
635.92	16723.03
636.114	16184.41
636.308	15653.99
636.501	14849.14
636.695	14607.48
636.889	13753.48
637.083	13151.37
637.276	12541.08
637.47	12047.52
637.664	11674.79
637.857	11164.84
638.051	10831.02
638.244	10163.39
638.438	9972.93
638.632	9774.27
638.825	8979.66
639.019	8682.7
639.212	8479.96
639.406	7970.01
639.599	7761.12
639.793	7376.1
639.986	7199.98
640.18	6862.06
640.373	6675.7
640.567	6405.36
640.76	6302.97
640.954	5856.51
641.147	5661.95
641.34	5459.2
641.534	5272.84
641.727	5256.45
641.92	4930.83
642.114	4615.44
642.307	4560.14
642.5	4408.59
642.694	4037.91
642.887	4033.82
643.08	3992.86
643.273	3857.69
643.467	3550.5
643.66	3417.38
643.853	3331.36
644.046	3165.48
644.239	3089.7
644.432	2934.06
644.626	2784.55
644.819	2735.4
645.012	2682.16
645.205	2524.46
645.398	2403.63
645.591	2340.15
645.784	2149.68
645.977	2045.24
646.17	2002.23
646.363	2059.57
646.556	1832.25
646.749	1760.57
646.942	1822.01
647.135	1760.57
647.328	1672.51
647.521	1662.27
647.714	1557.82
647.907	1469.76
648.099	1385.79
648.292	1436.99
648.485	1369.41
648.678	1092.93
648.871	1197.38
649.064	1144.13
649.256	1031.49
649.449	970.05
649.642	1043.78
649.835	906.57
650.027	933.19
650.22	992.58
650.413	867.66
650.605	925
650.798	775.5
650.991	859.46
651.183	900.42
651.376	857.42
651.568	838.98
651.761	689.48
651.954	652.62
652.146	664.91
652.339	740.68
652.531	644.43
652.724	601.42
652.916	658.76
653.109	460.11
653.301	591.18
653.494	515.41
653.686	556.36
653.879	611.66
654.071	560.46
654.263	470.35
654.456	523.6
654.648	613.71
654.84	531.79
655.033	392.53
655.225	566.6
655.417	357.71
655.61	607.56
655.802	433.49
655.994	556.36
656.186	308.56
656.379	456.01
656.571	439.63
656.763	326.99
656.955	318.8
657.148	320.85
657.34	474.45
657.532	261.46
657.724	310.61
657.916	306.51
658.108	400.72
658.3	326.99
658.492	421.2
658.684	298.32
658.876	433.49
659.068	261.46
659.26	232.79
659.452	193.87
659.644	210.26
659.836	470.35
660.028	335.18
660.22	281.94
660.412	236.88
660.604	288.08
660.796	259.41
660.988	273.75
661.18	206.16
661.372	372.05
661.563	189.78
661.755	265.55
661.947	109.91
662.139	146.77
662.331	288.08
662.522	255.31
662.714	171.35
662.906	220.5
663.097	179.54
663.289	167.25
663.481	27.99
663.673	193.87
663.864	230.74
664.056	179.54
664.247	95.57
664.439	269.65
664.631	157.01
664.822	157.01
665.014	195.92
665.205	126.29
665.397	118.1
665.588	171.35
665.78	226.64
665.971	204.11
666.163	150.87
666.354	136.53
666.546	66.9
666.737	181.59
666.929	71
667.12	140.63
667.311	159.06
667.503	138.58
667.694	240.98
667.885	214.35
668.077	232.79
668.268	68.95
668.459	152.91
668.651	165.2
668.842	161.11
669.033	79.19
669.224	38.23
669.416	431.44
669.607	62.8
669.798	103.76
669.989	206.16
670.18	177.49
670.371	97.62
670.563	32.08
670.754	152.91
670.945	161.11
671.136	220.5
671.327	154.96
671.518	257.36
671.709	259.41
671.9	202.07
672.091	210.26
672.282	191.83
672.473	79.19
672.664	93.52
672.855	169.3
673.046	118.1
673.237	267.6
673.428	197.97
673.619	228.69
673.809	136.53
674	234.83
674.191	263.51
674.382	138.58
674.573	134.48
674.764	136.53
674.954	226.64
675.145	124.24
675.336	81.24
675.527	56.66
675.717	159.06
675.908	109.91
676.099	91.48
676.289	189.78
676.48	60.76
676.671	85.33
676.861	91.48
677.052	167.25
677.243	146.77
677.433	109.91
677.624	212.31
677.814	163.15
678.005	34.13
678.195	308.56
678.386	124.24
678.576	116.05
678.767	89.43
678.957	175.44
679.148	255.31
679.338	224.59
679.529	191.83
679.719	206.16
679.909	193.87
680.1	183.63
680.29	245.07
680.481	128.34
680.671	232.79
680.861	202.07
681.052	279.89
681.242	132.44
681.432	154.96
681.622	191.83
681.813	132.44
682.003	193.87
682.193	169.3
682.383	220.5
682.573	208.21
682.764	220.5
682.954	255.31
683.144	263.51
683.334	126.29
683.524	157.01
683.714	236.88
683.904	167.25
684.094	150.87
684.284	218.45
684.474	279.89
684.664	249.17
684.854	187.73
685.044	216.4
685.234	253.27
685.424	210.26
685.614	181.59
685.804	316.75
685.994	179.54
686.184	165.2
686.374	240.98
686.564	275.79
686.753	249.17
686.943	93.52
687.133	163.15
687.323	167.25
687.513	320.85
687.702	195.92
687.892	277.84
688.082	298.32
688.272	337.23
688.461	232.79
688.651	288.08
688.841	259.41
689.03	163.15
689.22	144.72
689.41	175.44
689.599	308.56
689.789	173.39
689.979	286.03
690.168	214.35
690.358	286.03
690.547	283.98
690.737	157.01
690.926	286.03
691.116	271.7
691.305	240.98
691.495	331.09
691.684	97.62
691.874	206.16
692.063	191.83
692.252	294.22
692.442	240.98
692.631	169.3
692.82	181.59
693.01	253.27
693.199	159.06
693.388	251.22
693.578	243.03
693.767	232.79
693.956	247.12
694.146	212.31
694.335	220.5
694.524	216.4
694.713	310.61
694.902	181.59
695.092	232.79
695.281	228.69
695.47	154.96
695.659	138.58
695.848	257.36
696.037	210.26
696.226	343.38
696.415	187.73
696.604	326.99
696.793	326.99
696.982	247.12
697.171	378.19
697.36	185.68
697.549	206.16
697.738	111.96
697.927	204.11
698.116	165.2
698.305	263.51
698.494	204.11
698.683	193.87
698.872	296.27
699.061	249.17
699.25	222.55
699.438	271.7
699.627	220.5
699.816	326.99
700.005	228.69
700.193	175.44
700.382	326.99
700.571	267.6
700.76	224.59
700.948	302.42
701.137	281.94
701.326	298.32
701.514	185.68
701.703	253.27
701.892	263.51
702.08	351.57
702.269	228.69
702.457	161.11
702.646	257.36
702.834	202.07
703.023	245.07
703.212	345.42
703.4	216.4
703.589	210.26
703.777	200.02
703.965	183.63
704.154	124.24
704.342	116.05
704.531	202.07
704.719	249.17
704.907	314.7
705.096	165.2
705.284	204.11
705.472	216.4
705.661	290.13
705.849	329.04
706.037	247.12
706.226	249.17
706.414	329.04
706.602	163.15
706.79	267.6
706.979	132.44
707.167	197.97
707.355	130.39
707.543	226.64
707.731	261.46
707.919	216.4
708.107	210.26
708.296	212.31
708.484	27.99
708.672	257.36
708.86	267.6
709.048	271.7
709.236	146.77
709.424	232.79
709.612	302.42
709.8	64.85
709.988	232.79
710.176	286.03
710.364	310.61
710.551	253.27
710.739	275.79
710.927	204.11
711.115	175.44
711.303	277.84
711.491	380.24
711.679	232.79
711.866	331.09
712.054	154.96
712.242	267.6
712.43	367.95
712.617	159.06
712.805	314.7
712.993	152.91
713.181	181.59
713.368	232.79
713.556	247.12
713.744	249.17
713.931	361.81
714.119	296.27
714.306	265.55
714.494	257.36
714.682	267.6
714.869	107.86
715.057	214.35
715.244	118.1
715.432	189.78
715.619	173.39
715.807	232.79
715.994	279.89
716.182	179.54
716.369	314.7
716.556	310.61
716.744	169.3
716.931	87.38
717.119	230.74
717.306	271.7
717.493	290.13
717.681	247.12
717.868	240.98
718.055	312.66
718.242	195.92
718.43	281.94
718.617	331.09
718.804	249.17
718.991	390.48
719.179	136.53
719.366	245.07
719.553	185.68
719.74	146.77
719.927	247.12
720.114	218.45
720.301	154.96
720.488	234.83
720.676	150.87
720.863	341.33
721.05	363.86
721.237	286.03
721.424	230.74
721.611	240.98
721.798	169.3
721.985	179.54
722.172	238.93
722.358	326.99
722.545	177.49
722.732	322.9
722.919	341.33
723.106	212.31
723.293	329.04
723.48	302.42
723.667	222.55
723.853	341.33
724.04	288.08
724.227	314.7
724.414	251.22
724.6	290.13
724.787	425.29
724.974	388.43
725.161	216.4
725.347	195.92
725.534	290.13
725.72	224.59
725.907	343.38
726.094	288.08
726.28	169.3
726.467	216.4
726.653	144.72
726.84	353.62
727.027	359.76
727.213	283.98
727.4	361.81
727.586	277.84
727.773	245.07
727.959	247.12
728.145	247.12
728.332	222.55
728.518	197.97
728.705	333.14
728.891	286.03
729.077	324.94
729.264	222.55
729.45	269.65
729.636	322.9
729.823	255.31
730.009	255.31
730.195	335.18
730.382	269.65
730.568	263.51
730.754	304.46
730.94	271.7
731.126	259.41
731.313	333.14
731.499	343.38
731.685	341.33
731.871	349.52
732.057	292.18
732.243	308.56
732.429	316.75
732.615	372.05
732.801	380.24
732.987	326.99
733.173	314.7
733.359	204.11
733.545	357.71
733.731	261.46
733.917	451.92
734.103	337.23
734.289	304.46
734.475	202.07
734.661	433.49
734.847	292.18
735.033	283.98
735.219	279.89
735.404	288.08
735.59	316.75
735.776	165.2
735.962	302.42
736.148	259.41
736.333	306.51
736.519	298.32
736.705	333.14
736.89	281.94
737.076	304.46
737.262	269.65
737.447	271.7
737.633	177.49
737.819	335.18
738.004	335.18
738.19	308.56
738.375	335.18
738.561	376.14
738.747	292.18
738.932	226.64
739.118	456.01
739.303	316.75
739.489	372.05
739.674	259.41
739.859	290.13
740.045	357.71
740.23	253.27
740.416	281.94
740.601	286.03
740.786	324.94
740.972	320.85
741.157	197.97
741.342	173.39
741.528	240.98
741.713	437.58
741.898	265.55
742.084	329.04
742.269	222.55
742.454	376.14
742.639	390.48
742.824	318.8
743.01	335.18
743.195	417.1
743.38	320.85
743.565	261.46
743.75	304.46
743.935	243.03
744.12	351.57
744.305	208.21
744.49	193.87
744.675	279.89
744.86	263.51
745.045	257.36
745.23	292.18
745.415	245.07
745.6	339.28
745.785	232.79
745.97	367.95
746.155	255.31
746.34	314.7
746.525	351.57
746.71	351.57
746.895	222.55
747.079	228.69
747.264	197.97
747.449	339.28
747.634	370
747.819	269.65
748.003	226.64
748.188	273.75
748.373	333.14
748.557	359.76
748.742	333.14
748.927	378.19
749.111	232.79
749.296	187.73
749.481	367.95
749.665	279.89
749.85	296.27
750.034	271.7
750.219	259.41
750.404	212.31
750.588	279.89
750.773	204.11
750.957	333.14
751.141	232.79
751.326	277.84
751.51	163.15
751.695	195.92
751.879	249.17
752.064	349.52
752.248	228.69
752.432	349.52
752.617	345.42
752.801	283.98
752.985	277.84
753.17	322.9
753.354	240.98
753.538	271.7
753.722	132.44
753.907	187.73
754.091	148.82
754.275	269.65
754.459	138.58
754.643	138.58
754.828	218.45
755.012	222.55
755.196	157.01
755.38	181.59
755.564	161.11
755.748	240.98
755.932	193.87
756.116	306.51
756.3	277.84
756.484	77.14
756.668	304.46
756.852	111.96
757.036	64.85
757.22	210.26
757.404	222.55
757.588	154.96
757.772	253.27
757.956	251.22
758.14	318.8
758.323	71
758.507	202.07
758.691	200.02
758.875	281.94
759.059	283.98
759.242	157.01
759.426	114
759.61	171.35
759.794	157.01
759.977	263.51
760.161	275.79
760.345	333.14
760.528	206.16
760.712	200.02
760.895	214.35
761.079	154.96
761.263	130.39
761.446	60.76
761.63	185.68
761.813	277.84
761.997	111.96
762.18	175.44
762.364	163.15
762.547	126.29
762.731	150.87
762.914	189.78
763.098	103.76
763.281	140.63
763.464	105.81
763.648	189.78
763.831	183.63
764.015	66.9
764.198	208.21
764.381	99.67
764.564	44.37
764.748	159.06
764.931	175.44
765.114	191.83
765.297	236.88
765.481	64.85
765.664	165.2
765.847	130.39
766.03	238.93
766.213	75.09
766.397	167.25
766.58	105.81
766.763	148.82
766.946	193.87
767.129	105.81
767.312	56.66
767.495	122.2
767.678	13.65
767.861	144.72
768.044	105.81
768.227	64.85
768.41	93.52
768.593	128.34
768.776	150.87
768.959	23.89
769.142	204.11
769.324	89.43
769.507	81.24
769.69	152.91
769.873	46.42
770.056	240.98
770.239	105.81
770.421	187.73
770.604	189.78
770.787	124.24
770.97	132.44
771.152	105.81
771.335	146.77
771.518	93.52
771.7	197.97
771.883	253.27
772.066	103.76
772.248	114
772.431	222.55
772.613	136.53
772.796	195.92
772.978	144.72
773.161	157.01
773.343	91.48
773.526	56.66
773.708	56.66
773.891	9.56
774.073	124.24
774.256	75.09
774.438	167.25
774.621	128.34
774.803	71
774.985	126.29
775.168	118.1
775.35	73.04
775.532	175.44
775.715	101.72
775.897	42.32
776.079	21.84
776.261	111.96
776.444	132.44
776.626	46.42
776.808	142.68
776.99	-15.02
777.173	222.55
777.355	64.85
777.537	62.8
777.719	97.62
777.901	109.91
778.083	83.28
778.265	-72.36
778.447	171.35
778.629	73.04
778.811	91.48
778.993	152.91
779.175	124.24
779.357	177.49
779.539	77.14
779.721	81.24
779.903	152.91
780.085	25.94
780.267	101.72
780.449	64.85
780.631	154.96
780.812	208.21
780.994	114
781.176	50.52
781.358	79.19
781.54	124.24
781.721	93.52
781.903	132.44
782.085	-12.97
782.267	99.67
782.448	54.61
782.63	40.28
782.812	120.15
782.993	128.34
783.175	138.58
783.357	116.05
783.538	48.47
783.72	-12.97
783.901	23.89
784.083	50.52
784.264	120.15
784.446	79.19
784.627	13.65
784.809	60.76
784.99	42.32
785.172	62.8
785.353	50.52
785.535	13.65
785.716	-25.26
785.897	50.52
786.079	-4.78
786.26	77.14
786.441	171.35
786.623	-8.87
786.804	71
786.985	42.32
787.167	75.09
787.348	103.76
787.529	13.65
787.71	154.96
787.891	64.85
788.073	-4.78
788.254	42.32
788.435	118.1
788.616	15.7
788.797	-41.64
788.978	81.24
789.159	-17.07
789.34	91.48
789.522	-8.87
789.703	-70.31
789.884	85.33
790.065	17.75
790.246	148.82
790.427	62.8
790.607	146.77
790.788	107.86
790.969	36.18
791.15	120.15
791.331	9.56
791.512	15.7
791.693	-31.4
791.874	-4.78
792.054	277.84
792.235	126.29
792.416	-31.4
792.597	-27.31
792.778	111.96
792.958	38.23
793.139	64.85
793.32	75.09
793.5	-21.16
793.681	85.33
793.862	83.28
794.042	40.28
794.223	-23.21
794.404	91.48
794.584	-66.22
794.765	50.52
794.945	93.52
795.126	27.99
795.306	120.15
795.487	73.04
795.667	46.42
795.848	79.19
796.028	89.43
796.209	42.32
796.389	152.91
796.57	62.8
796.75	-6.83
796.93	48.47
797.111	-23.21
797.291	-17.07
797.471	195.92
797.652	-10.92
797.832	-41.64
798.012	56.66
798.192	32.08
798.373	-21.16
798.553	-21.16
798.733	58.71
798.913	38.23
799.093	-53.93
799.274	19.8
799.454	101.72
799.634	163.15
799.814	42.32
799.994	75.09
800.174	89.43
800.354	107.86
800.534	-78.51
800.714	13.65
800.894	-25.26
801.074	-72.36
801.254	23.89
801.434	97.62
801.614	-55.98
801.794	-6.83
801.974	1965.37
802.154	77.14
802.334	105.81
802.514	-19.11
802.693	3.41
802.873	17.75
803.053	169.3
803.233	161.11
803.413	7.51
803.592	17.75
803.772	93.52
803.952	52.56
804.131	-43.69
804.311	87.38
804.491	54.61
804.67	-33.45
804.85	-2.73
805.03	52.56
805.209	36.18
805.389	36.18
805.568	7.51
805.748	42.32
805.928	36.18
806.107	19.8
806.287	21.84
806.466	71
806.646	25.94
806.825	89.43
807.004	19.8
807.184	93.52
807.363	66.9
807.543	95.57
807.722	-55.98
807.901	128.34
808.081	99.67
808.26	-53.93
808.439	13.65
808.619	62.8
808.798	34.13
808.977	95.57
809.156	161.11
809.336	81.24
809.515	103.76
809.694	40.28
809.873	3.41
810.052	146.77
810.231	81.24
810.411	38.23
810.59	19.8
810.769	75.09
810.948	73.04
811.127	-60.07
811.306	-41.64
811.485	-53.93
811.664	122.2
811.843	-17.07
812.022	83.28
812.201	-37.55
812.38	15.7
812.559	17.75
812.737	68.95
812.916	-119.46
813.095	40.28
813.274	36.18
813.453	-29.35
813.632	81.24
813.811	136.53
813.989	-8.87
814.168	40.28
814.347	-47.79
814.526	-21.16
814.704	163.15
814.883	85.33
815.062	-86.7
815.24	101.72
815.419	-47.79
815.598	68.95
815.776	-66.22
815.955	62.8
816.133	-103.08
816.312	95.57
816.49	23.89
816.669	62.8
816.847	36.18
817.026	95.57
817.204	19.8
817.383	-19.11
817.561	-88.75
817.74	27.99
817.918	75.09
818.097	-2.73
818.275	7.51
818.453	68.95
818.632	50.52
818.81	38.23
818.988	11.61
819.167	-74.41
819.345	-19.11
819.523	-21.16
819.701	23.89
819.879	40.28
820.058	97.62
820.236	58.71
820.414	36.18
820.592	-21.16
820.77	-23.21
820.948	17.75
821.127	36.18
821.305	50.52
821.483	-39.59
821.661	105.81
821.839	9.56
822.017	-51.88
822.195	7.51
822.373	116.05
822.551	85.33
822.729	19.8
822.907	25.94
823.085	32.08
823.262	-10.92
823.44	-4.78
823.618	-62.12
823.796	68.95
823.974	17.75
824.152	-0.68
824.329	19.8
824.507	1.37
824.685	71
824.863	-8.87
825.04	13.65
825.218	54.61
825.396	-41.64
825.574	62.8
825.751	79.19
825.929	25.94
826.107	-82.6
826.284	68.95
826.462	64.85
826.639	-8.87
826.817	-6.83
826.994	-2.73
827.172	-25.26
827.349	189.78
827.527	32.08
827.704	58.71
827.882	101.72
828.059	13.65
828.237	81.24
828.414	120.15
828.591	-82.6
828.769	23.89
828.946	-21.16
829.124	105.81
829.301	107.86
829.478	-12.97
829.655	-17.07
829.833	56.66
830.01	-148.14
830.187	62.8
830.364	62.8
830.542	-64.17
830.719	161.11
830.896	-0.68
831.073	58.71
831.25	34.13
831.427	130.39
831.604	38.23
831.782	-51.88
831.959	48.47
832.136	5.46
832.313	38.23
832.49	-23.21
832.667	19.8
832.844	-4.78
833.021	124.24
833.198	-2.73
833.374	-10.92
833.551	-31.4
833.728	32.08
833.905	81.24
834.082	-137.9
834.259	-0.68
834.436	109.91
834.612	-25.26
834.789	60.76
834.966	62.8
835.143	44.37
835.319	-152.23
835.496	62.8
835.673	111.96
835.85	54.61
836.026	71
836.203	36.18
836.38	-27.31
836.556	-62.12
836.733	-35.5
836.909	136.53
837.086	46.42
837.262	-49.83
837.439	17.75
837.616	-15.02
837.792	-12.97
837.968	5.46
838.145	-111.27
838.321	23.89
838.498	-10.92
838.674	50.52
838.851	-68.27
839.027	-29.35
839.203	48.47
839.38	21.84
839.556	-33.45
839.732	1.37
839.909	-17.07
840.085	83.28
840.261	48.47
840.437	-33.45
840.614	-70.31
840.79	77.14
840.966	81.24
841.142	48.47
841.318	-31.4
841.494	124.24
841.671	105.81
841.847	-88.75
842.023	-41.64
842.199	3.41
842.375	75.09
842.551	-76.46
842.727	-27.31
842.903	136.53
843.079	-31.4
843.255	109.91
843.431	3.41
843.607	13.65
843.783	-90.79
843.959	101.72
844.134	-43.69
844.31	71
844.486	71
844.662	-21.16
844.838	19.8
845.013	15.7
845.189	48.47
845.365	11.61
845.541	32.08
845.716	109.91
845.892	75.09
846.068	-60.07
846.244	-47.79
846.419	44.37
846.595	-6.83
846.77	-62.12
846.946	68.95
847.122	-8.87
847.297	-43.69
847.473	161.11
847.648	-35.5
847.824	36.18
847.999	-148.14
848.175	-4.78
848.35	17.75
848.526	95.57
848.701	101.72
848.876	103.76
849.052	79.19
849.227	-82.6
849.403	30.04
849.578	52.56
849.753	64.85
849.929	120.15
850.104	13.65
850.279	-43.69
850.454	27.99
850.63	87.38
850.805	5.46
850.98	-29.35
851.155	23.89
851.33	83.28
851.505	-12.97
851.681	97.62
851.856	-27.31
852.031	83.28
852.206	77.14
852.381	-88.75
852.556	32.08
852.731	81.24
852.906	75.09
853.081	46.42
853.256	146.77
853.431	-10.92
853.606	38.23
853.781	-21.16
853.956	-121.51
854.131	111.96
854.305	19.8
854.48	-45.74
854.655	-19.11
854.83	-62.12
855.005	5.46
855.18	-35.5
855.354	-41.64
855.529	27.99
855.704	-27.31
855.879	56.66
856.053	-55.98
856.228	-17.07
856.403	-88.75
856.577	85.33
856.752	-70.31
856.926	-43.69
857.101	50.52
857.276	-45.74
857.45	77.14
857.625	42.32
857.799	1.37
857.974	5.46
858.148	-131.75
858.323	19.8
858.497	-31.4
858.672	-35.5
858.846	-31.4
859.02	44.37
859.195	-6.83
859.369	-35.5
859.543	13.65
859.718	44.37
859.892	-21.16
860.066	95.57
860.241	25.94
860.415	19.8
860.589	-21.16
860.763	23.89
860.938	-25.26
861.112	60.76
861.286	-6.83
861.46	66.9
861.634	-39.59
861.808	42.32
861.982	-31.4
862.157	-74.41
862.331	-64.17
862.505	-111.27
862.679	-35.5
862.853	32.08
863.027	-53.93
863.201	64.85
863.375	-37.55
863.549	7.51
863.722	-21.16
863.896	116.05
864.07	-8.87
864.244	-2.73
864.418	87.38
864.592	36.18
864.766	36.18
864.939	-33.45
865.113	19.8
865.287	91.48
865.461	9.56
865.634	83.28
865.808	15.7
865.982	3.41
866.156	-107.18
866.329	-66.22
866.503	-29.35
866.676	116.05
866.85	-15.02
867.024	-39.59
867.197	73.04
867.371	32.08
867.544	21.84
867.718	-39.59
867.891	58.71
868.065	-68.27
868.238	-4.78
868.412	109.91
868.585	-53.93
868.759	-43.69
868.932	-19.11
869.105	-41.64
869.279	19.8
869.452	-60.07
869.625	42.32
869.799	-23.21
869.972	-119.46
870.145	-39.59
870.319	130.39
870.492	-27.31
870.665	-6.83
870.838	-19.11
871.011	-154.28
871.185	-12.97
871.358	-2.73
871.531	44.37
871.704	-55.98
871.877	-47.79
872.05	15.7
872.223	-58.03
872.396	73.04
872.569	89.43
872.742	-53.93
872.915	105.81
873.088	9.56
873.261	-8.87
873.434	116.05
873.607	44.37
873.78	116.05
873.953	-135.85
874.126	-47.79
874.299	89.43
874.471	-17.07
874.644	-10.92
874.817	54.61
874.99	138.58
875.163	-0.68
875.335	42.32
875.508	-41.64
875.681	128.34
875.853	-82.6
876.026	46.42
876.199	21.84
876.371	23.89
876.544	-10.92
876.717	19.8
876.889	-35.5
877.062	71
877.234	-135.85
877.407	-27.31
877.579	-66.22
877.752	-45.74
877.924	62.8
878.097	60.76
878.269	-0.68
878.442	-8.87
878.614	64.85
878.786	50.52
878.959	-0.68
879.131	46.42
879.303	1.37
879.476	25.94
879.648	97.62
879.82	-37.55
879.993	25.94
880.165	-31.4
880.337	-70.31
880.509	56.66
880.681	-21.16
880.854	-41.64
881.026	30.04
881.198	259.41
881.37	-43.69
881.542	-35.5
881.714	60.76
881.886	44.37
882.058	-27.31
882.23	-0.68
882.402	7.51
882.574	46.42
882.746	68.95
882.918	62.8
883.09	91.48
883.262	-64.17
883.434	-39.59
883.606	-17.07
883.778	-15.02
883.95	109.91
884.122	77.14
884.293	32.08
884.465	-64.17
884.637	79.19
884.809	-70.31
884.98	11.61
885.152	75.09
885.324	23.89
885.496	-47.79
885.667	9.56
885.839	23.89
886.011	83.28
886.182	58.71
886.354	68.95
886.525	1.37
886.697	9.56
886.869	-74.41
887.04	9.56
887.212	44.37
887.383	200.02
887.555	-15.02
887.726	44.37
887.897	-82.6
888.069	13.65
888.24	87.38
888.412	30.04
888.583	-12.97
888.754	13.65
888.926	-164.52
889.097	34.13
889.268	-74.41
889.44	56.66
889.611	-6.83
889.782	-43.69
889.953	-84.65
890.125	93.52
890.296	-70.31
890.467	44.37
890.638	-25.26
890.809	46.42
890.98	-2.73
891.151	36.18
891.323	109.91
891.494	11.61
891.665	5.46
891.836	-6.83
892.007	13.65
892.178	5.46
892.349	42.32
892.52	9.56
892.691	13.65
892.862	52.56
893.032	-68.27
893.203	-74.41
893.374	38.23
893.545	134.48
893.716	-15.02
893.887	116.05
894.057	52.56
894.228	109.91
894.399	-53.93
894.57	130.39
894.74	7.51
894.911	71
895.082	7.51
895.253	25.94
895.423	1.37
895.594	154.96
895.764	7.51
895.935	-64.17
896.106	56.66
896.276	-39.59
896.447	48.47
896.617	-47.79
896.788	-47.79
896.958	-41.64
897.129	-19.11
897.299	17.75
897.47	103.76
897.64	64.85
897.81	-53.93
897.981	83.28
898.151	-58.03
898.322	-27.31
898.492	3.41
898.662	-66.22
898.832	-70.31
899.003	-60.07
899.173	60.76
899.343	-74.41
899.513	-64.17
