Data from USB4F104151__91__11-31-41-160.txt Node

Date: Wed Feb 26 11:31:41 EST 2025
User: louis
Spectrometer: USB4F10415
Trigger mode: 4
Integration Time (sec): 1.000000E-1
Scans to average: 1
Electric dark correction enabled: true
Nonlinearity correction enabled: false
Boxcar width: 0
XAxis mode: Wavelengths
Number of Pixels in Spectrum: 3648
>>>>>Begin Spectral Data<<<<<
178.204	-418.13
178.424	-418.13
178.644	-418.13
178.864	-469.33
179.084	-409.94
179.304	7.85
179.524	-33.11
179.744	-26.96
179.964	26.28
180.184	44.71
180.404	11.95
180.624	48.81
180.844	42.67
181.064	-135.51
181.283	3.75
181.503	-2.39
181.723	11.95
181.943	-141.65
182.163	93.87
182.383	-49.49
182.602	40.62
182.822	214.7
183.042	73.39
183.262	-31.06
183.482	-51.54
183.701	22.19
183.921	-37.2
184.141	-29.01
184.361	81.58
184.58	-18.77
184.8	-20.82
185.02	-29.01
185.239	69.29
185.459	46.76
185.679	50.86
185.898	-137.56
186.118	-35.16
186.338	50.86
186.557	116.39
186.777	-72.02
186.997	3.75
187.216	42.67
187.436	167.59
187.655	46.76
187.875	20.14
188.095	-0.34
188.314	95.91
188.534	32.43
188.753	-119.12
188.973	136.87
189.192	95.91
189.412	7.85
189.631	-10.58
189.851	40.62
190.07	165.54
190.29	-74.07
190.509	3.75
190.729	30.38
190.948	161.45
191.168	194.22
191.387	89.77
191.607	79.53
191.826	-24.92
192.045	16.04
192.265	-10.58
192.484	69.29
192.704	48.81
192.923	-94.55
193.142	112.3
193.362	79.53
193.581	77.48
193.8	91.82
194.02	7.85
194.239	7.85
194.458	48.81
194.678	-80.21
194.897	-2.39
195.116	-18.77
195.335	9.9
195.555	30.38
195.774	30.38
195.993	97.96
196.212	26.28
196.432	16.04
196.651	-26.96
196.87	-43.35
197.089	159.4
197.308	9.9
197.528	34.47
197.747	-20.82
197.966	36.52
198.185	93.87
198.404	-74.07
198.623	116.39
198.842	106.15
199.062	79.53
199.281	46.76
199.5	-2.39
199.719	120.49
199.938	38.57
200.157	65.19
200.376	95.91
200.595	138.92
200.814	91.82
201.033	-18.77
201.252	140.97
201.471	-33.11
201.69	75.43
201.909	48.81
202.128	140.97
202.347	52.91
202.566	52.91
202.785	-86.36
203.004	-43.35
203.223	245.41
203.442	36.52
203.661	-55.64
203.879	106.15
204.098	106.15
204.317	-0.34
204.536	54.95
204.755	71.34
204.974	93.87
205.193	-12.63
205.411	140.97
205.63	132.78
205.849	87.72
206.068	75.43
206.287	-2.39
206.505	102.06
206.724	34.47
206.943	-129.36
207.162	1.71
207.381	7.85
207.599	54.95
207.818	-26.96
208.037	5.8
208.255	24.23
208.474	-20.82
208.693	-37.2
208.911	69.29
209.13	11.95
209.349	52.91
209.567	130.73
209.786	28.33
210.005	85.67
210.223	-53.59
210.442	-143.7
210.661	38.57
210.879	22.19
211.098	-29.01
211.316	11.95
211.535	100.01
211.753	-20.82
211.972	13.99
212.191	5.8
212.409	-74.07
212.628	122.54
212.846	-10.58
213.065	69.29
213.283	128.68
213.502	-8.53
213.72	61.1
213.938	-55.64
214.157	1.71
214.375	93.87
214.594	-65.88
214.812	-12.63
215.031	-33.11
215.249	30.38
215.467	97.96
215.686	-67.92
215.904	24.23
216.122	57
216.341	183.98
216.559	30.38
216.778	22.19
216.996	128.68
217.214	5.8
217.432	20.14
217.651	-51.54
217.869	-4.44
218.087	20.14
218.306	-6.49
218.524	-20.82
218.742	40.62
218.96	48.81
219.179	-22.87
219.397	-18.77
219.615	231.08
219.833	85.67
220.051	-59.73
220.27	-4.44
220.488	118.44
220.706	120.49
220.924	26.28
221.142	22.19
221.36	91.82
221.578	30.38
221.796	93.87
222.015	-2.39
222.233	13.99
222.451	151.21
222.669	-41.3
222.887	38.57
223.105	-12.63
223.323	-8.53
223.541	-63.83
223.759	83.63
223.977	-12.63
224.195	122.54
224.413	93.87
224.631	22.19
224.849	54.95
225.067	186.02
225.285	-6.49
225.503	-78.16
225.721	-90.45
225.939	50.86
226.157	32.43
226.375	259.75
226.592	-18.77
226.81	1.71
227.028	57
227.246	147.11
227.464	87.72
227.682	114.34
227.9	50.86
228.117	18.09
228.335	38.57
228.553	52.91
228.771	30.38
228.989	100.01
229.206	104.11
229.424	-0.34
229.642	-18.77
229.86	-53.59
230.077	97.96
230.295	13.99
230.513	106.15
230.731	65.19
230.948	122.54
231.166	126.63
231.384	1.71
231.601	-16.73
231.819	218.79
232.037	-22.87
232.254	-47.44
232.472	-33.11
232.689	-90.45
232.907	110.25
233.125	-90.45
233.342	-24.92
233.56	100.01
233.777	-61.78
233.995	40.62
234.213	61.1
234.43	7.85
234.648	-49.49
234.865	48.81
235.083	16.04
235.3	77.48
235.518	100.01
235.735	140.97
235.953	110.25
236.17	50.86
236.388	-20.82
236.605	54.95
236.822	-4.44
237.04	75.43
237.257	-10.58
237.475	-49.49
237.692	-8.53
237.909	46.76
238.127	-47.44
238.344	13.99
238.562	54.95
238.779	-51.54
238.996	-35.16
239.214	-53.59
239.431	151.21
239.648	108.2
239.865	30.38
240.083	87.72
240.3	-14.68
240.517	-18.77
240.735	30.38
240.952	95.91
241.169	134.82
241.386	5.8
241.603	-26.96
241.821	-16.73
242.038	26.28
242.255	165.54
242.472	-129.36
242.689	22.19
242.907	104.11
243.124	32.43
243.341	3.75
243.558	-57.68
243.775	-47.44
243.992	7.85
244.209	81.58
244.426	177.83
244.643	95.91
244.86	-6.49
245.078	97.96
245.295	77.48
245.512	9.9
245.729	-24.92
245.946	63.15
246.163	28.33
246.38	16.04
246.597	108.2
246.814	28.33
247.031	40.62
247.248	-2.39
247.464	38.57
247.681	-29.01
247.898	54.95
248.115	50.86
248.332	-20.82
248.549	159.4
248.766	112.3
248.983	-14.68
249.2	102.06
249.417	-26.96
249.633	-20.82
249.85	32.43
250.067	28.33
250.284	38.57
250.501	85.67
250.717	87.72
250.934	-65.88
251.151	-20.82
251.368	-12.63
251.585	75.43
251.801	-12.63
252.018	-61.78
252.235	124.58
252.451	-26.96
252.668	-35.16
252.885	75.43
253.102	13.99
253.318	61.1
253.535	-41.3
253.752	-33.11
253.968	-106.84
254.185	-84.31
254.401	54.95
254.618	50.86
254.835	5.8
255.051	130.73
255.268	126.63
255.484	79.53
255.701	-16.73
255.917	54.95
256.134	-33.11
256.351	16.04
256.567	16.04
256.784	46.76
257	3.75
257.217	102.06
257.433	79.53
257.65	-18.77
257.866	48.81
258.082	-37.2
258.299	5.8
258.515	57
258.732	40.62
258.948	-20.82
259.165	46.76
259.381	-26.96
259.597	32.43
259.814	-8.53
260.03	36.52
260.246	-2.39
260.463	165.54
260.679	181.93
260.895	40.62
261.112	-4.44
261.328	1.71
261.544	-2.39
261.761	54.95
261.977	-47.44
262.193	-20.82
262.409	34.47
262.626	108.2
262.842	-0.34
263.058	36.52
263.274	11.95
263.49	52.91
263.707	83.63
263.923	114.34
264.139	-102.74
264.355	46.76
264.571	91.82
264.787	42.67
265.004	77.48
265.22	-35.16
265.436	3.75
265.652	-57.68
265.868	67.24
266.084	-47.44
266.3	7.85
266.516	-43.35
266.732	85.67
266.948	-69.97
267.164	-53.59
267.38	124.58
267.596	24.23
267.812	177.83
268.028	26.28
268.244	9.9
268.46	40.62
268.676	11.95
268.892	26.28
269.108	-4.44
269.324	-18.77
269.54	-59.73
269.756	149.16
269.972	-29.01
270.188	42.67
270.403	-4.44
270.619	-10.58
270.835	67.24
271.051	7.85
271.267	-22.87
271.483	-4.44
271.698	44.71
271.914	18.09
272.13	9.9
272.346	-20.82
272.562	36.52
272.777	124.58
272.993	-0.34
273.209	-82.26
273.425	79.53
273.64	-22.87
273.856	5.8
274.072	-22.87
274.287	-26.96
274.503	52.91
274.719	87.72
274.934	-6.49
275.15	-80.21
275.366	61.1
275.581	-61.78
275.797	36.52
276.012	59.05
276.228	26.28
276.444	-2.39
276.659	81.58
276.875	-6.49
277.09	-31.06
277.306	-78.16
277.521	102.06
277.737	-18.77
277.952	40.62
278.168	63.15
278.383	52.91
278.599	54.95
278.814	134.82
279.03	-41.3
279.245	179.88
279.461	-20.82
279.676	26.28
279.892	-174.42
280.107	-26.96
280.322	-10.58
280.538	32.43
280.753	1.71
280.969	42.67
281.184	44.71
281.399	155.3
281.615	-4.44
281.83	-4.44
282.045	-82.26
282.26	-43.35
282.476	-2.39
282.691	54.95
282.906	85.67
283.122	52.91
283.337	-20.82
283.552	42.67
283.767	-59.73
283.983	42.67
284.198	7.85
284.413	40.62
284.628	-18.77
284.843	77.48
285.058	36.52
285.274	18.09
285.489	-102.74
285.704	151.21
285.919	-49.49
286.134	-53.59
286.349	-29.01
286.564	30.38
286.779	104.11
286.995	46.76
287.21	-84.31
287.425	71.34
287.64	18.09
287.855	110.25
288.07	-78.16
288.285	95.91
288.5	138.92
288.715	63.15
288.93	-10.58
289.145	1.71
289.36	24.23
289.575	-0.34
289.79	120.49
290.004	7.85
290.219	114.34
290.434	-100.69
290.649	-51.54
290.864	-16.73
291.079	-69.97
291.294	63.15
291.509	36.52
291.724	73.39
291.938	7.85
292.153	9.9
292.368	24.23
292.583	75.43
292.798	59.05
293.012	44.71
293.227	54.95
293.442	5.8
293.657	46.76
293.871	120.49
294.086	38.57
294.301	143.02
294.516	140.97
294.73	22.19
294.945	-119.12
295.16	38.57
295.374	163.5
295.589	108.2
295.804	40.62
296.018	-8.53
296.233	89.77
296.447	-0.34
296.662	-37.2
296.877	104.11
297.091	97.96
297.306	40.62
297.52	-39.25
297.735	16.04
297.949	75.43
298.164	3.75
298.378	26.28
298.593	-45.4
298.807	-55.64
299.022	69.29
299.236	114.34
299.451	20.14
299.665	-33.11
299.88	52.91
300.094	65.19
300.309	9.9
300.523	-16.73
300.737	-57.68
300.952	116.39
301.166	38.57
301.381	-12.63
301.595	-59.73
301.809	26.28
302.024	9.9
302.238	-31.06
302.452	128.68
302.667	20.14
302.881	110.25
303.095	26.28
303.309	44.71
303.524	-74.07
303.738	-2.39
303.952	-37.2
304.166	16.04
304.381	-127.32
304.595	143.02
304.809	-82.26
305.023	-2.39
305.237	-82.26
305.452	7.85
305.666	73.39
305.88	138.92
306.094	26.28
306.308	36.52
306.522	106.15
306.736	149.16
306.95	91.82
307.164	-59.73
307.379	69.29
307.593	138.92
307.807	83.63
308.021	-4.44
308.235	24.23
308.449	-74.07
308.663	1.71
308.877	247.46
309.091	54.95
309.305	57
309.519	-69.97
309.733	104.11
309.947	-129.36
310.161	59.05
310.374	59.05
310.588	118.44
310.802	-37.2
311.016	24.23
311.23	57
311.444	-88.4
311.658	-16.73
311.872	157.35
312.085	89.77
312.299	118.44
312.513	61.1
312.727	50.86
312.941	-155.99
313.154	81.58
313.368	-33.11
313.582	30.38
313.796	71.34
314.009	-10.58
314.223	132.78
314.437	73.39
314.651	97.96
314.864	-24.92
315.078	26.28
315.292	-31.06
315.505	-24.92
315.719	81.58
315.933	-4.44
316.146	-84.31
316.36	-18.77
316.573	149.16
316.787	89.77
317.001	34.47
317.214	1.71
317.428	-16.73
317.641	-88.4
317.855	-53.59
318.068	77.48
318.282	24.23
318.495	171.69
318.709	18.09
318.922	18.09
319.136	67.24
319.349	104.11
319.563	73.39
319.776	3.75
319.99	-65.88
320.203	75.43
320.417	11.95
320.63	159.4
320.843	145.06
321.057	28.33
321.27	5.8
321.483	30.38
321.697	143.02
321.91	46.76
322.124	87.72
322.337	48.81
322.55	3.75
322.763	46.76
322.977	38.57
323.19	34.47
323.403	-61.78
323.617	75.43
323.83	116.39
324.043	24.23
324.256	89.77
324.469	-43.35
324.683	36.52
324.896	61.1
325.109	-4.44
325.322	-4.44
325.535	73.39
325.748	63.15
325.962	-22.87
326.175	30.38
326.388	26.28
326.601	83.63
326.814	54.95
327.027	-10.58
327.24	145.06
327.453	-102.74
327.666	77.48
327.879	100.01
328.092	7.85
328.305	38.57
328.518	143.02
328.731	22.19
328.944	67.24
329.157	87.72
329.37	-20.82
329.583	202.41
329.796	192.17
330.009	-47.44
330.222	38.57
330.435	147.11
330.648	42.67
330.861	73.39
331.073	-10.58
331.286	81.58
331.499	28.33
331.712	-2.39
331.925	44.71
332.138	20.14
332.35	124.58
332.563	22.19
332.776	112.3
332.989	-12.63
333.202	-41.3
333.414	16.04
333.627	-16.73
333.84	-26.96
334.053	3.75
334.265	22.19
334.478	9.9
334.691	-12.63
334.903	42.67
335.116	-45.4
335.329	-55.64
335.541	97.96
335.754	136.87
335.966	67.24
336.179	32.43
336.392	-14.68
336.604	5.8
336.817	102.06
337.029	36.52
337.242	-39.25
337.454	93.87
337.667	5.8
337.88	63.15
338.092	46.76
338.305	46.76
338.517	-14.68
338.729	20.14
338.942	163.5
339.154	-67.92
339.367	-24.92
339.579	63.15
339.792	-57.68
340.004	44.71
340.217	11.95
340.429	50.86
340.641	-147.8
340.854	-94.55
341.066	69.29
341.278	108.2
341.491	140.97
341.703	-22.87
341.915	-45.4
342.128	106.15
342.34	95.91
342.552	-96.6
342.764	40.62
342.977	-14.68
343.189	46.76
343.401	16.04
343.613	-37.2
343.826	42.67
344.038	3.75
344.25	138.92
344.462	-102.74
344.674	-2.39
344.886	-22.87
345.099	50.86
345.311	63.15
345.523	-26.96
345.735	-35.16
345.947	83.63
346.159	26.28
346.371	3.75
346.583	-24.92
346.795	169.64
347.007	-33.11
347.219	28.33
347.431	52.91
347.643	79.53
347.855	-4.44
348.067	71.34
348.279	-76.12
348.491	38.57
348.703	59.05
348.915	26.28
349.127	-12.63
349.339	-55.64
349.551	38.57
349.763	120.49
349.975	-0.34
350.187	30.38
350.399	114.34
350.61	-6.49
350.822	3.75
351.034	-2.39
351.246	73.39
351.458	77.48
351.669	57
351.881	132.78
352.093	63.15
352.305	67.24
352.517	-6.49
352.728	179.88
352.94	69.29
353.152	128.68
353.363	-4.44
353.575	46.76
353.787	214.7
353.999	97.96
354.21	97.96
354.422	-18.77
354.633	-2.39
354.845	-4.44
355.057	79.53
355.268	5.8
355.48	87.72
355.692	-67.92
355.903	-43.35
356.115	-6.49
356.326	-51.54
356.538	177.83
356.749	95.91
356.961	87.72
357.172	18.09
357.384	-53.59
357.595	204.46
357.807	-2.39
358.018	-53.59
358.23	28.33
358.441	83.63
358.653	40.62
358.864	48.81
359.075	-26.96
359.287	71.34
359.498	95.91
359.709	13.99
359.921	81.58
360.132	42.67
360.344	16.04
360.555	-16.73
360.766	22.19
360.977	-18.77
361.189	75.43
361.4	-10.58
361.611	173.74
361.823	67.24
362.034	20.14
362.245	-57.68
362.456	69.29
362.667	32.43
362.879	-51.54
363.09	40.62
363.301	-6.49
363.512	26.28
363.723	-35.16
363.935	32.43
364.146	26.28
364.357	-0.34
364.568	-6.49
364.779	-6.49
364.99	155.3
365.201	18.09
365.412	71.34
365.623	-131.41
365.834	-16.73
366.045	13.99
366.256	61.1
366.467	24.23
366.678	28.33
366.889	22.19
367.1	67.24
367.311	106.15
367.522	3.75
367.733	130.73
367.944	124.58
368.155	1.71
368.366	102.06
368.577	108.2
368.788	57
368.999	13.99
369.209	59.05
369.42	249.51
369.631	200.36
369.842	126.63
370.053	69.29
370.264	59.05
370.474	-67.92
370.685	1.71
370.896	11.95
371.107	104.11
371.317	93.87
371.528	3.75
371.739	73.39
371.95	120.49
372.16	46.76
372.371	-57.68
372.582	-18.77
372.792	95.91
373.003	26.28
373.214	65.19
373.424	100.01
373.635	-65.88
373.846	147.11
374.056	-65.88
374.267	77.48
374.477	85.67
374.688	-4.44
374.898	122.54
375.109	104.11
375.319	20.14
375.53	75.43
375.74	89.77
375.951	100.01
376.161	93.87
376.372	147.11
376.582	3.75
376.793	16.04
377.003	-22.87
377.214	112.3
377.424	42.67
377.635	46.76
377.845	63.15
378.055	122.54
378.266	-61.78
378.476	-4.44
378.686	81.58
378.897	22.19
379.107	75.43
379.317	44.71
379.528	-61.78
379.738	106.15
379.948	-135.51
380.158	118.44
380.369	40.62
380.579	5.8
380.789	20.14
380.999	112.3
381.21	81.58
381.42	249.51
381.63	42.67
381.84	50.86
382.05	52.91
382.261	104.11
382.471	136.87
382.681	22.19
382.891	204.46
383.101	-12.63
383.311	-53.59
383.521	13.99
383.731	65.19
383.941	114.34
384.151	24.23
384.361	22.19
384.571	30.38
384.781	-22.87
384.991	167.59
385.201	134.82
385.411	57
385.621	77.48
385.831	87.72
386.041	79.53
386.251	5.8
386.461	61.1
386.671	5.8
386.881	46.76
387.091	-10.58
387.301	16.04
387.511	114.34
387.72	100.01
387.93	118.44
388.14	-78.16
388.35	85.67
388.56	-0.34
388.769	57
388.979	79.53
389.189	-65.88
389.399	59.05
389.609	65.19
389.818	106.15
390.028	67.24
390.238	38.57
390.447	34.47
390.657	28.33
390.867	1.71
391.076	-29.01
391.286	71.34
391.496	24.23
391.705	-72.02
391.915	159.4
392.125	83.63
392.334	20.14
392.544	93.87
392.753	11.95
392.963	-10.58
393.172	77.48
393.382	32.43
393.591	159.4
393.801	-10.58
394.01	151.21
394.22	95.91
394.429	36.52
394.639	18.09
394.848	26.28
395.058	73.39
395.267	79.53
395.477	89.77
395.686	7.85
395.895	186.02
396.105	134.82
396.314	-2.39
396.524	54.95
396.733	-39.25
396.942	155.3
397.152	97.96
397.361	149.16
397.57	28.33
397.78	18.09
397.989	44.71
398.198	212.65
398.407	40.62
398.617	32.43
398.826	18.09
399.035	13.99
399.244	97.96
399.453	16.04
399.663	20.14
399.872	-4.44
400.081	-80.21
400.29	132.78
400.499	-92.5
400.708	65.19
400.917	46.76
401.127	30.38
401.336	79.53
401.545	153.26
401.754	50.86
401.963	3.75
402.172	-10.58
402.381	-96.6
402.59	-0.34
402.799	67.24
403.008	104.11
403.217	30.38
403.426	61.1
403.635	-57.68
403.844	-14.68
404.053	22.19
404.262	26.28
404.471	198.31
404.68	46.76
404.888	-31.06
405.097	32.43
405.306	24.23
405.515	89.77
405.724	77.48
405.933	57
406.142	63.15
406.35	102.06
406.559	-61.78
406.768	59.05
406.977	173.74
407.185	75.43
407.394	104.11
407.603	-47.44
407.812	77.48
408.02	100.01
408.229	100.01
408.438	1.71
408.646	-57.68
408.855	5.8
409.064	9.9
409.272	-2.39
409.481	89.77
409.69	-6.49
409.898	-51.54
410.107	71.34
410.315	118.44
410.524	11.95
410.733	73.39
410.941	36.52
411.15	81.58
411.358	79.53
411.567	122.54
411.775	22.19
411.984	59.05
412.192	83.63
412.401	-74.07
412.609	130.73
412.818	61.1
413.026	130.73
413.234	-67.92
413.443	-14.68
413.651	42.67
413.86	9.9
414.068	151.21
414.276	157.35
414.485	71.34
414.693	106.15
414.901	247.46
415.11	32.43
415.318	42.67
415.526	40.62
415.734	102.06
415.943	114.34
416.151	186.02
416.359	-22.87
416.567	38.57
416.776	65.19
416.984	50.86
417.192	175.78
417.4	-6.49
417.608	-16.73
417.817	-22.87
418.025	120.49
418.233	206.5
418.441	-59.73
418.649	26.28
418.857	46.76
419.065	114.34
419.273	-67.92
419.481	112.3
419.689	-14.68
419.897	7.85
420.105	54.95
420.313	67.24
420.521	145.06
420.729	83.63
420.937	40.62
421.145	-51.54
421.353	167.59
421.561	192.17
421.769	48.81
421.977	46.76
422.185	106.15
422.393	-10.58
422.601	65.19
422.809	75.43
423.017	65.19
423.224	57
423.432	97.96
423.64	-20.82
423.848	85.67
424.056	22.19
424.263	145.06
424.471	38.57
424.679	167.59
424.887	-12.63
425.094	116.39
425.302	179.88
425.51	104.11
425.718	222.89
425.925	26.28
426.133	46.76
426.341	132.78
426.548	52.91
426.756	77.48
426.964	143.02
427.171	46.76
427.379	120.49
427.586	138.92
427.794	81.58
428.001	93.87
428.209	114.34
428.417	161.45
428.624	124.58
428.832	77.48
429.039	97.96
429.247	169.64
429.454	186.02
429.662	196.26
429.869	134.82
430.076	208.55
430.284	112.3
430.491	198.31
430.699	128.68
430.906	202.41
431.114	167.59
431.321	134.82
431.528	120.49
431.736	149.16
431.943	249.51
432.15	114.34
432.358	202.41
432.565	245.41
432.772	34.47
432.979	231.08
433.187	171.69
433.394	284.33
433.601	153.26
433.808	204.46
434.016	317.09
434.223	269.99
434.43	204.46
434.637	261.8
434.844	259.75
435.052	226.98
435.259	294.57
435.466	288.42
435.673	251.56
435.88	310.95
436.087	353.96
436.294	341.67
436.501	286.37
436.708	282.28
436.915	407.2
437.122	360.1
437.329	372.39
437.537	386.72
437.743	272.04
437.95	446.12
438.157	323.24
438.364	435.88
438.571	480.93
438.778	407.2
438.985	538.27
439.192	601.76
439.399	419.49
439.606	519.84
439.813	534.18
440.02	736.93
440.227	706.21
440.433	599.71
440.64	577.19
440.847	579.23
441.054	630.43
441.261	775.84
441.467	601.76
441.674	640.67
441.881	792.22
442.088	769.69
442.294	751.26
442.501	882.33
442.708	878.24
442.914	888.48
443.121	943.77
443.328	976.54
443.534	964.25
443.741	919.2
443.948	968.35
444.154	1087.13
444.361	1320.6
444.568	1130.14
444.774	1111.71
444.981	1113.75
445.187	1369.75
445.394	1320.6
445.6	1377.94
445.807	1441.43
446.013	1437.33
446.22	1394.33
446.426	1459.86
446.633	1707.66
446.839	1820.3
447.046	1590.93
447.252	1824.4
447.459	1848.97
447.665	1965.71
447.871	2031.24
448.078	2186.89
448.284	2225.8
448.491	2178.7
448.697	2375.3
448.903	2412.17
449.11	2455.17
449.316	2543.24
449.522	2578.05
449.728	2772.61
449.935	2977.41
450.141	2891.39
450.347	3088
450.553	2985.6
450.76	3350.14
450.966	3387
451.172	3343.99
451.378	3632.76
451.584	3577.46
451.791	3806.83
451.997	3929.71
452.203	3958.38
452.409	4355.69
452.615	4398.7
452.821	4327.02
453.027	4331.11
453.233	4957.79
453.44	4847.2
453.646	5285.47
453.852	5297.75
454.058	5535.32
454.264	5693.01
454.47	5934.67
454.676	6063.69
454.882	6602.31
455.088	6379.08
455.294	6856.26
455.5	7183.93
455.705	7501.37
455.911	7763.51
456.117	7745.08
456.323	8019.5
456.529	7976.5
456.735	8773.16
456.941	8998.43
457.147	9268.77
457.352	9606.68
457.558	9784.85
457.764	10509.83
457.97	10708.49
458.176	11048.45
458.381	11795.96
458.587	11929.08
458.793	12279.28
458.999	12312.05
459.204	14237.14
459.41	14609.87
459.616	14269.9
459.821	15338.94
460.027	15742.39
460.233	16666.03
460.438	16635.31
460.644	17677.72
460.85	17665.44
461.055	18533.78
461.261	19301.76
461.466	19058.06
461.672	19197.32
461.878	21349.73
462.083	21290.34
462.289	21996.89
462.494	22572.37
462.7	22959.44
462.905	23713.09
463.111	24997.17
463.316	26150.17
463.522	26553.62
463.727	27788.55
463.932	28777.72
464.138	29136.11
464.343	30751.96
464.549	30905.56
464.754	33385.65
464.959	34063.52
465.165	34835.61
465.37	34489.5
465.575	34247.84
465.781	36594.81
465.986	37889.13
466.191	37194.87
466.397	37807.21
466.602	36658.3
466.807	38736.99
467.012	39726.16
467.218	40059.98
467.423	40023.11
467.628	41397.3
467.833	43488.28
468.038	42691.62
468.244	41792.56
468.449	43963.4
468.654	43213.85
468.859	42961.95
469.064	42804.25
469.269	42376.23
469.474	42093.61
469.679	43394.07
469.885	42109.99
470.09	42619.94
470.295	42726.43
470.5	41874.48
470.705	41956.39
470.91	40711.23
471.115	40875.07
471.32	41511.99
471.525	41045.05
471.73	40129.61
471.935	39996.49
472.139	38138.98
472.344	38632.54
472.549	37778.54
472.754	37672.04
472.959	36615.29
473.164	35533.96
473.369	34634.91
473.574	35708.04
473.778	34944.15
473.983	34512.03
474.188	33772.71
474.393	32238.78
474.598	32310.46
474.802	31272.14
475.007	31202.51
475.212	30897.36
475.417	29334.76
475.621	29129.97
475.826	28896.5
476.031	28441.85
476.235	27497.74
476.44	27620.61
476.645	26885.39
476.849	26522.9
477.054	26311.96
477.259	25611.56
477.463	25865.5
477.668	24999.21
477.872	24765.74
478.077	24259.9
478.282	23629.12
478.486	23440.71
478.691	23018.83
478.895	22893.9
479.1	22760.78
479.304	22416.72
479.509	21583.2
479.713	22467.92
479.918	21618.02
480.122	21173.61
480.326	21507.43
480.531	21603.68
480.735	21138.79
480.94	20542.83
481.144	21501.28
481.348	20006.27
481.553	20589.94
481.757	19766.65
481.961	20079.99
482.166	20239.73
482.37	20096.38
482.574	19361.16
482.778	19498.37
482.983	19740.03
483.187	19271.04
483.391	19084.68
483.595	18902.41
483.8	18314.64
484.004	18769.29
484.208	18800.01
484.412	18412.95
484.616	18134.42
484.821	18124.18
485.025	17540.51
485.229	17477.02
485.433	17124.77
485.637	17204.64
485.841	16604.59
486.045	16383.41
486.249	16397.74
486.453	16014.77
486.657	16162.23
486.861	15594.94
487.065	15238.59
487.269	15283.65
487.473	14720.46
487.677	14697.93
487.881	14722.51
488.085	14144.98
488.289	13956.57
488.493	13739.48
488.697	13614.55
488.901	13518.3
489.105	13063.65
489.309	12760.55
489.512	12905.96
489.716	12340.72
489.92	12197.36
490.124	12035.57
490.328	12043.76
490.531	11501.05
490.735	11425.28
490.939	11208.19
491.143	10847.75
491.346	10810.89
491.55	10767.88
491.754	10606.09
491.958	10198.54
492.161	10040.85
492.365	9979.41
492.569	9690.65
492.772	9549.34
492.976	9512.47
493.18	9285.15
493.383	9508.38
493.587	9178.65
493.79	9115.17
493.994	8996.39
494.197	8867.36
494.401	8730.15
494.605	8699.43
494.808	8740.39
495.012	8517.16
495.215	8560.17
495.419	8500.78
495.622	8257.07
495.825	8058.42
496.029	8183.34
496.232	8232.49
496.436	7984.69
496.639	8291.88
496.843	8021.55
497.046	8291.88
497.249	8105.52
497.453	8068.66
497.656	8007.22
497.859	7925.3
498.063	8160.81
498.266	8273.45
498.469	8121.9
498.673	8293.93
498.876	8064.56
499.079	8300.08
499.282	8029.74
499.485	8381.99
499.689	8263.21
499.892	8500.78
500.095	8281.64
500.298	8539.69
500.501	8375.85
500.705	8543.78
500.908	8586.79
501.111	8699.43
501.314	8746.53
501.517	8824.36
501.72	8910.37
501.923	8787.49
502.126	8951.33
502.329	9348.64
502.532	9137.7
502.735	9279.01
502.938	9659.93
503.141	9524.76
503.344	9475.61
503.547	9848.34
503.75	9743.89
503.953	9946.64
504.156	10229.26
504.359	10192.4
504.562	10063.38
504.765	10612.23
504.968	10665.48
505.17	10817.03
505.373	10991.11
505.576	11136.51
505.779	11460.09
505.982	11345.41
506.185	11544.06
506.387	11877.88
506.59	11931.12
506.793	12506.6
506.996	12277.23
507.198	12946.92
507.401	12836.33
507.604	13139.43
507.807	13532.64
508.009	13723.1
508.212	13858.26
508.415	14022.1
508.617	14292.43
508.82	14667.21
509.022	14648.78
509.225	15379.9
509.428	15766.97
509.63	16006.58
509.833	16221.62
510.035	17161.64
510.238	16956.84
510.44	17165.73
510.643	17669.53
510.845	18326.93
511.048	18437.52
511.25	18865.55
511.453	19199.37
511.655	20137.34
511.858	20198.77
512.06	20477.3
512.262	21155.18
512.465	21235.05
512.667	21742.94
512.87	22222.17
513.072	22713.68
513.274	23401.8
513.477	24010.04
513.679	24571.19
513.881	24964.4
514.084	25398.57
514.286	26221.85
514.488	26600.72
514.69	27397.38
514.893	27589.89
515.095	28425.46
515.297	28867.83
515.499	29715.69
515.701	30096.61
515.904	31106.26
516.106	31583.43
516.308	32226.49
516.51	32894.13
516.712	33143.98
516.914	33758.38
517.116	34868.37
517.318	35210.39
517.52	36068.48
517.722	36797.56
517.925	37397.62
518.127	37688.43
518.329	39044.18
518.531	39089.24
518.733	39959.62
518.935	40676.41
519.136	41016.38
519.338	41675.82
519.54	42642.46
519.742	43265.05
519.944	43490.32
520.146	44649.47
520.348	45425.65
520.55	45376.5
520.752	46111.72
520.954	47119.32
521.155	46633.96
521.357	48131.02
521.559	48749.51
521.761	49185.72
521.963	48999.36
522.164	49800.11
522.366	49900.47
522.568	50424.75
522.77	50901.92
522.971	51596.18
523.173	51305.37
523.375	52327.31
523.576	52218.77
523.778	52071.31
523.98	53009.28
524.181	53468.03
524.383	53330.81
524.584	53957.49
524.786	53644.15
524.988	53367.68
525.189	54291.31
525.391	54401.9
525.592	53922.68
525.794	54547.31
525.995	54514.54
526.197	54070.13
526.398	53742.45
526.6	54287.21
526.801	53988.21
527.003	53857.14
527.204	54035.31
527.406	53955.44
527.607	53410.68
527.808	53713.78
528.01	52562.82
528.211	52370.32
528.412	52833.16
528.614	52398.99
528.815	51645.33
529.016	52034.45
529.218	50848.67
529.419	50494.38
529.62	50299.82
529.822	49769.4
530.023	49562.55
530.224	49146.81
530.425	48540.61
530.626	48020.43
530.828	47313.88
531.029	48128.97
531.23	46881.76
531.431	46128.11
531.632	45661.17
531.833	45636.59
532.035	45061.12
532.236	44407.81
532.437	44125.19
532.638	43588.63
532.839	43217.94
533.04	43082.78
533.241	41782.32
533.442	41827.37
533.643	40873.02
533.844	40404.03
534.045	40199.24
534.246	39056.47
534.447	39228.5
534.648	38069.35
534.849	37876.84
535.05	36988.02
535.251	36828.28
535.451	36150.4
535.652	35918.98
535.853	35220.63
536.054	35196.05
536.255	34622.62
536.456	33574.06
536.657	33905.83
536.857	33242.29
537.058	32623.8
537.259	32636.09
537.46	32142.53
537.66	31489.23
537.861	31130.83
538.062	30577.88
538.263	29975.78
538.463	29836.52
538.664	29748.45
538.865	29410.54
539.065	28814.58
539.266	28386.55
539.466	28411.13
539.667	27536.65
539.868	27585.8
540.068	27245.83
540.269	26981.65
540.469	26420.5
540.67	26408.22
540.87	26027.29
541.071	25378.09
541.271	25453.86
541.472	24984.88
541.672	24845.62
541.873	24274.23
542.073	24061.24
542.274	24061.24
542.474	23825.73
542.675	23362.89
542.875	23358.79
543.075	22916.43
543.276	22576.47
543.476	22496.6
543.676	22306.13
543.877	21957.98
544.077	21695.84
544.277	21720.42
544.478	21261.67
544.678	21153.13
544.878	20661.62
545.078	20536.69
545.279	20223.35
545.479	20094.33
545.679	19875.2
545.879	19142.02
546.079	19297.67
546.28	19049.86
546.48	19172.74
546.68	18816.4
546.88	18732.43
547.08	18304.4
547.28	18052.5
547.48	17698.2
547.68	17626.53
547.88	17169.83
548.081	17194.4
548.281	16842.15
548.481	16635.31
548.681	16950.7
548.881	16262.58
549.081	16096.69
549.28	15996.34
549.48	15766.97
549.68	15603.13
549.88	15549.89
550.08	15164.87
550.28	15173.06
550.48	14820.81
550.68	14665.16
550.88	14382.54
551.08	14099.92
551.279	13985.24
551.479	13753.82
551.679	13645.27
551.879	13250.02
552.079	13096.42
552.278	12807.66
552.478	12848.61
552.678	12633.58
552.878	12477.93
553.077	12195.31
553.277	11990.52
553.477	11935.22
553.676	11570.68
553.876	11449.85
554.076	11339.26
554.275	11154.94
554.475	10841.61
554.674	10923.52
554.874	10472.97
555.074	10278.41
555.273	10243.6
555.473	9985.55
555.672	9709.08
555.872	9780.76
556.071	9758.23
556.271	9629.21
556.47	9319.96
556.67	9266.72
556.869	9061.92
557.068	8914.47
557.268	8635.94
557.467	8615.46
557.667	8687.14
557.866	8429.1
558.065	7964.21
558.265	8179.25
558.464	8019.5
558.663	7910.96
558.863	7558.71
559.062	7616.05
559.261	7390.78
559.461	7331.39
559.66	7196.22
559.859	7226.94
560.058	6835.78
560.258	6952.51
560.457	6862.4
560.656	6772.29
560.855	6395.47
561.054	6696.52
561.253	6424.14
561.453	6331.98
561.652	6180.43
561.851	6108.75
562.05	5959.25
562.249	5750.35
562.448	5715.54
562.647	5674.58
562.846	5555.8
563.045	5537.37
563.244	5537.37
563.443	5662.29
563.642	5248.6
563.841	5297.75
564.04	5221.98
564.239	5209.69
564.438	5109.34
564.637	4808.29
564.836	4685.41
565.035	4621.92
565.234	4683.36
565.432	4634.21
565.631	4531.81
565.83	4716.13
566.029	4484.71
566.228	4292.2
566.427	4466.28
566.625	4150.89
566.824	4101.74
567.023	4189.8
567.222	3978.86
567.42	4001.39
567.619	3987.05
567.818	3931.76
568.016	4083.31
568.215	3866.22
568.414	3823.22
568.612	3708.53
568.811	3833.46
569.01	3544.69
569.208	3475.06
569.407	3550.84
569.605	3454.58
569.804	3335.8
570.002	3348.09
570.201	3135.1
570.4	3192.44
570.598	3214.97
570.797	3128.95
570.995	2948.73
571.193	3036.8
571.392	3014.27
571.59	2895.49
571.789	2940.54
571.987	2866.81
572.186	2883.2
572.384	2774.66
572.582	2750.08
572.781	2805.38
572.979	2557.57
573.177	2573.96
573.376	2533
573.574	2610.82
573.772	2543.24
573.971	2461.32
574.169	2377.35
574.367	2352.77
574.565	2338.44
574.763	2375.3
574.962	2317.96
575.16	2272.9
575.358	2123.4
575.556	2172.55
575.754	2076.3
575.952	2086.54
576.151	2219.66
576.349	2115.21
576.547	1924.75
576.745	2000.52
576.943	2045.58
577.141	1971.85
577.339	1857.17
577.537	1906.32
577.735	1908.37
577.933	1810.06
578.131	1674.9
578.329	1629.84
578.527	1726.1
578.725	1877.65
578.923	1638.03
579.121	1666.71
579.319	1494.68
579.516	1562.26
579.714	1824.4
579.912	1533.59
580.11	1490.58
580.308	1476.24
580.506	1363.61
580.704	1326.74
580.901	1373.85
581.099	1535.64
581.297	1302.17
581.495	1423
581.692	1271.45
581.89	1396.37
582.088	1240.73
582.285	1339.03
582.483	1246.87
582.681	1250.97
582.878	1187.48
583.076	1236.63
583.274	1091.23
583.471	1267.35
583.669	1230.49
583.866	1042.07
584.064	970.4
584.262	978.59
584.459	1095.32
584.657	1140.38
584.854	1064.6
585.052	1148.57
585.249	1111.71
585.447	1091.23
585.644	974.49
585.841	1095.32
586.039	1021.6
586.236	1052.31
586.434	994.97
586.631	802.46
586.828	925.34
587.026	923.29
587.223	843.42
587.42	855.71
587.618	814.75
587.815	1003.16
588.012	796.32
588.21	806.56
588.407	933.53
588.604	902.81
588.801	751.26
588.999	882.33
589.196	802.46
589.393	757.41
589.59	818.85
589.787	980.64
589.984	888.48
590.182	847.52
590.379	759.46
590.576	700.06
590.773	802.46
590.97	700.06
591.167	784.03
591.364	841.37
591.561	695.97
591.758	835.23
591.955	779.93
592.152	749.22
592.349	677.54
592.546	644.77
592.743	636.58
592.94	693.92
593.137	698.02
593.334	827.04
593.531	753.31
593.727	771.74
593.924	747.17
594.121	689.82
594.318	714.4
594.515	726.69
594.712	861.85
594.908	775.84
595.105	708.26
595.302	865.95
595.499	806.56
595.696	923.29
595.892	792.22
596.089	898.72
596.286	992.92
596.482	1062.55
596.679	933.53
596.876	839.33
597.072	1023.64
597.269	1005.21
597.466	968.35
597.662	1015.45
597.859	1083.03
598.055	1164.95
598.252	1226.39
598.448	1318.55
598.645	1253.02
598.841	1189.53
599.038	1484.44
599.234	1574.55
599.431	1443.48
599.627	1416.85
599.824	1537.68
600.02	1611.41
600.217	1552.02
600.413	1707.66
600.609	1808.02
600.806	2113.16
601.002	1959.56
601.198	1879.69
601.395	1982.09
601.591	2072.2
601.787	2133.64
601.984	2369.16
602.18	2348.68
602.376	2471.56
602.572	2430.6
602.769	2778.75
602.965	2713.22
603.161	2862.72
603.357	2907.77
603.553	3032.7
603.75	3100.28
603.946	3135.1
604.142	3290.74
604.338	3509.88
604.534	3432.05
604.73	3692.15
604.926	3620.47
605.122	4036.21
605.318	4095.6
605.514	4130.41
605.71	4144.75
605.906	4327.02
606.102	4568.68
606.298	4890.21
606.494	4978.27
606.69	5154.4
606.886	5115.48
607.082	5375.58
607.278	5328.47
607.474	5545.56
607.67	5809.75
607.866	5803.6
608.062	6073.93
608.257	6319.69
608.453	6358.6
608.649	6563.4
608.845	6610.5
609.041	6852.16
609.236	7097.92
609.432	7378.49
609.628	7532.09
609.824	7837.24
610.019	7915.06
610.215	8107.57
610.411	8367.66
610.606	8687.14
610.802	8582.7
610.998	9057.82
611.193	9381.4
611.389	9559.58
611.584	9713.17
611.78	9825.81
611.976	10243.6
612.171	10667.53
612.367	10993.15
612.562	10909.19
612.758	11259.39
612.953	11482.62
613.149	11763.19
613.344	11978.23
613.539	12561.9
613.735	12955.11
613.93	13110.75
614.126	13503.96
614.321	13936.09
614.517	14202.32
614.712	14665.16
614.907	15168.96
615.103	15408.58
615.298	15568.32
615.493	16209.33
615.688	16401.84
615.884	17040.81
616.079	17270.18
616.274	17870.23
616.47	18197.91
616.665	18761.1
616.86	19105.16
617.055	19547.52
617.25	19901.82
617.445	20598.13
617.641	20786.54
617.836	21443.94
618.031	21675.36
618.226	22918.48
618.421	22807.89
618.616	23967.04
618.811	23864.64
619.006	25148.71
619.201	25077.04
619.396	26098.97
619.591	26164.51
619.786	27090.19
619.981	27051.28
620.176	28259.58
620.371	28306.68
620.566	29244.65
620.761	29410.54
620.956	30520.54
621.151	30923.99
621.346	31601.86
621.541	31876.29
621.735	33053.87
621.93	33057.97
622.125	34157.73
622.32	34294.94
622.515	35075.22
622.709	36033.67
622.904	36447.36
623.099	37198.96
623.294	37735.53
623.488	37975.14
623.683	38990.94
623.878	39087.19
624.072	40315.97
624.267	40756.28
624.462	41264.18
624.656	41647.15
624.851	42562.59
625.046	43357.21
625.24	43576.34
625.435	44086.28
625.629	44878.85
625.824	45433.85
626.018	45839.34
626.213	45638.64
626.407	46691.3
626.602	47023.07
626.796	47760.34
626.991	48014.29
627.185	48690.12
627.38	49032.13
627.574	49091.52
627.768	48724.93
627.963	49318.84
628.157	49361.85
628.352	50092.97
628.546	49275.83
628.74	50297.77
628.935	49548.21
629.129	49871.79
629.323	49019.84
629.517	49288.12
629.712	48997.31
629.906	48505.8
630.1	47330.26
630.294	47885.26
630.489	46887.9
630.683	46636
630.877	45274.1
631.071	44674.05
631.265	44563.46
631.459	43424.79
631.653	42329.12
631.848	41774.13
632.042	40320.07
632.236	39470.16
632.43	38587.49
632.624	37942.38
632.818	36412.54
633.012	35304.59
633.206	34147.49
633.4	33234.1
633.594	31640.78
633.788	30870.74
633.982	29727.97
634.176	28777.72
634.369	27708.68
634.563	26633.49
634.757	25722.15
634.951	24866.1
635.145	23608.64
635.339	22963.53
635.533	21783.9
635.726	21366.12
635.92	19799.42
636.114	19381.63
636.308	18693.52
636.501	17972.63
636.695	17171.88
636.889	16358.83
637.083	15803.83
637.276	14960.07
637.47	14325.2
637.664	13766.1
637.857	13186.53
638.051	12951.01
638.244	12322.29
638.438	11931.12
638.632	11396.6
638.825	10698.25
639.019	10266.13
639.212	9807.38
639.406	9702.93
639.599	9254.43
639.793	8984.1
639.986	8437.29
640.18	8224.3
640.373	7837.24
640.567	7583.29
640.76	7310.91
640.954	6929.98
641.147	6465.1
641.34	6428.23
641.534	6293.07
641.727	6047.31
641.92	5930.58
642.114	5660.24
642.307	5373.53
642.5	5328.47
642.694	4875.87
642.887	4929.12
643.08	4806.24
643.273	4519.53
643.467	4265.58
643.66	3950.19
643.853	3860.08
644.046	3774.07
644.239	3616.37
644.432	3417.72
644.626	3237.5
644.819	3196.54
645.012	3165.82
645.205	3128.95
645.398	2981.5
645.591	2782.85
645.784	2711.17
645.977	2522.76
646.17	2395.78
646.363	2346.63
646.556	2279.05
646.749	2172.55
646.942	2039.44
647.135	2168.46
647.328	1965.71
647.521	1834.64
647.714	1676.95
647.907	1871.5
648.099	1635.99
648.292	1681.04
648.485	1461.91
648.678	1517.2
648.871	1373.85
649.064	1463.96
649.256	1183.38
649.449	1314.45
649.642	1099.42
649.835	1205.91
650.027	1099.42
650.22	1144.47
650.413	1070.75
650.605	1070.75
650.798	935.58
650.991	884.38
651.183	861.85
651.376	923.29
651.568	874.14
651.761	769.69
651.954	812.7
652.146	781.98
652.339	728.74
652.531	698.02
652.724	671.39
652.916	638.62
653.109	550.56
653.301	718.5
653.494	706.21
653.686	673.44
653.879	648.86
654.071	581.28
654.263	554.66
654.456	620.19
654.648	648.86
654.84	550.56
655.033	458.4
655.225	603.81
655.417	302.76
655.61	528.03
655.802	552.61
655.994	519.84
656.186	372.39
656.379	532.13
656.571	384.68
656.763	413.35
656.955	317.09
657.148	456.36
657.34	476.84
657.532	374.44
657.724	401.06
657.916	401.06
658.108	476.84
658.3	433.83
658.492	421.54
658.684	294.57
658.876	372.39
659.068	288.42
659.26	210.6
659.452	272.04
659.644	345.77
659.836	368.29
660.028	364.2
660.22	169.64
660.412	196.26
660.604	243.37
660.796	241.32
660.988	349.86
661.18	261.8
661.372	259.75
661.563	269.99
661.755	245.41
661.947	173.74
662.139	143.02
662.331	210.6
662.522	255.65
662.714	220.84
662.906	247.46
663.097	325.29
663.289	97.96
663.481	18.09
663.673	192.17
663.864	235.18
664.056	269.99
664.247	124.58
664.439	298.66
664.631	222.89
664.822	214.7
665.014	181.93
665.205	177.83
665.397	249.51
665.588	192.17
665.78	153.26
665.971	229.03
666.163	169.64
666.354	173.74
666.546	124.58
666.737	130.73
666.929	198.31
667.12	138.92
667.311	188.07
667.503	200.36
667.694	190.12
667.885	243.37
668.077	200.36
668.268	106.15
668.459	212.65
668.651	143.02
668.842	261.8
669.033	89.77
669.224	87.72
669.416	288.42
669.607	104.11
669.798	95.91
669.989	349.86
670.18	226.98
670.371	194.22
670.563	134.82
670.754	259.75
670.945	280.23
671.136	306.85
671.327	87.72
671.518	265.89
671.709	374.44
671.9	196.26
672.091	284.33
672.282	161.45
672.473	239.27
672.664	95.91
672.855	243.37
673.046	243.37
673.237	208.55
673.428	233.13
673.619	235.18
673.809	149.16
674	349.86
674.191	372.39
674.382	110.25
674.573	202.41
674.764	210.6
674.954	294.57
675.145	136.87
675.336	134.82
675.527	147.11
675.717	124.58
675.908	261.8
676.099	204.46
676.289	202.41
676.48	157.35
676.671	261.8
676.861	222.89
677.052	233.13
677.243	265.89
677.433	169.64
677.624	345.77
677.814	292.52
678.005	214.7
678.195	343.72
678.386	231.08
678.576	243.37
678.767	231.08
678.957	257.7
679.148	358.05
679.338	431.78
679.529	315.05
679.719	267.94
679.909	388.77
680.1	362.15
680.29	333.48
680.481	245.41
680.671	405.16
680.861	300.71
681.052	245.41
681.242	241.32
681.432	331.43
681.622	347.81
681.813	214.7
682.003	329.38
682.193	323.24
682.383	325.29
682.573	345.77
682.764	372.39
682.954	310.95
683.144	460.45
683.334	360.1
683.524	399.01
683.714	306.85
683.904	417.44
684.094	366.25
684.284	399.01
684.474	515.75
684.664	452.26
684.854	368.29
685.044	458.4
685.234	317.09
685.424	339.62
685.614	306.85
685.804	515.75
685.994	370.34
686.184	409.25
686.374	353.96
686.564	349.86
686.753	374.44
686.943	255.65
687.133	267.94
687.323	435.88
687.513	472.74
687.702	405.16
687.892	390.82
688.082	474.79
688.272	427.68
688.461	452.26
688.651	591.52
688.841	382.63
689.03	325.29
689.22	372.39
689.41	388.77
689.599	378.53
689.789	267.94
689.979	505.51
690.168	255.65
690.358	495.27
690.547	419.49
690.737	378.53
690.926	456.36
691.116	333.48
691.305	480.93
691.495	405.16
691.684	329.38
691.874	319.14
692.063	331.43
692.252	415.4
692.442	413.35
692.631	347.81
692.82	300.71
693.01	343.72
693.199	272.04
693.388	362.15
693.578	276.13
693.767	386.72
693.956	427.68
694.146	366.25
694.335	360.1
694.524	329.38
694.713	417.44
694.902	267.94
695.092	272.04
695.281	472.74
695.47	239.27
695.659	253.61
695.848	386.72
696.037	267.94
696.226	390.82
696.415	396.96
696.604	454.31
696.793	349.86
696.982	259.75
697.171	409.25
697.36	284.33
697.549	323.24
697.738	200.36
697.927	304.81
698.116	253.61
698.305	368.29
698.494	347.81
698.683	321.19
698.872	509.6
699.061	343.72
699.25	329.38
699.438	351.91
699.627	358.05
699.816	458.4
700.005	333.48
700.193	325.29
700.382	429.73
700.571	335.53
700.76	333.48
700.948	407.2
701.137	360.1
701.326	341.67
701.514	282.28
701.703	399.01
701.892	396.96
702.08	476.84
702.269	331.43
702.457	331.43
702.646	362.15
702.834	321.19
703.023	411.3
703.212	396.96
703.4	272.04
703.589	325.29
703.777	327.33
703.965	218.79
704.154	317.09
704.342	253.61
704.531	298.66
704.719	353.96
704.907	403.11
705.096	313
705.284	317.09
705.472	341.67
705.661	380.58
705.849	458.4
706.037	376.48
706.226	321.19
706.414	384.68
706.602	265.89
706.79	405.16
706.979	343.72
707.167	308.9
707.355	220.84
707.543	415.4
707.731	378.53
707.919	237.22
708.107	298.66
708.296	276.13
708.484	284.33
708.672	435.88
708.86	331.43
709.048	300.71
709.236	259.75
709.424	439.97
709.612	353.96
709.8	306.85
709.988	306.85
710.176	403.11
710.364	499.36
710.551	294.57
710.739	347.81
710.927	290.47
711.115	327.33
711.303	351.91
711.491	460.45
711.679	274.09
711.866	392.87
712.054	290.47
712.242	378.53
712.43	353.96
712.617	366.25
712.805	413.35
712.993	372.39
713.181	220.84
713.368	411.3
713.556	327.33
713.744	317.09
713.931	495.27
714.119	390.82
714.306	343.72
714.494	313
714.682	333.48
714.869	251.56
715.057	343.72
715.244	233.13
715.432	392.87
715.619	278.18
715.807	292.52
715.994	353.96
716.182	392.87
716.369	382.63
716.556	427.68
716.744	235.18
716.931	276.13
717.119	319.14
717.306	399.01
717.493	325.29
717.681	302.76
717.868	282.28
718.055	335.53
718.242	335.53
718.43	419.49
718.617	466.6
718.804	292.52
718.991	425.64
719.179	386.72
719.366	325.29
719.553	327.33
719.74	282.28
719.927	327.33
720.114	417.44
720.301	382.63
720.488	267.94
720.676	313
720.863	419.49
721.05	466.6
721.237	380.58
721.424	437.92
721.611	388.77
721.798	253.61
721.985	280.23
722.172	401.06
722.358	306.85
722.545	437.92
722.732	454.31
722.919	525.99
723.106	401.06
723.293	437.92
723.48	415.4
723.667	372.39
723.853	388.77
724.04	396.96
724.227	470.69
724.414	421.54
724.6	403.11
724.787	417.44
724.974	519.84
725.161	378.53
725.347	292.52
725.534	384.68
725.72	450.21
725.907	464.55
726.094	478.88
726.28	353.96
726.467	431.78
726.653	269.99
726.84	509.6
727.027	444.07
727.213	433.83
727.4	460.45
727.586	493.22
727.773	413.35
727.959	431.78
728.145	399.01
728.332	425.64
728.518	368.29
728.705	454.31
728.891	458.4
729.077	390.82
729.264	337.57
729.45	460.45
729.636	474.79
729.823	425.64
730.009	523.94
730.195	433.83
730.382	482.98
730.568	313
730.754	339.62
730.94	448.16
731.126	505.51
731.313	413.35
731.499	405.16
731.685	507.55
731.871	528.03
732.057	501.41
732.243	474.79
732.429	444.07
732.615	554.66
732.801	429.73
732.987	435.88
733.173	450.21
733.359	392.87
733.545	470.69
733.731	396.96
733.917	546.47
734.103	534.18
734.289	505.51
734.475	341.67
734.661	626.34
734.847	536.23
735.033	487.08
735.219	536.23
735.404	382.63
735.59	435.88
735.776	497.32
735.962	347.81
736.148	489.12
736.333	491.17
736.519	435.88
736.705	534.18
736.89	460.45
737.076	423.59
737.262	382.63
737.447	501.41
737.633	435.88
737.819	550.56
738.004	460.45
738.19	433.83
738.375	511.65
738.561	575.14
738.747	474.79
738.932	417.44
739.118	568.99
739.303	601.76
739.489	554.66
739.674	523.94
739.859	442.02
740.045	573.09
740.23	464.55
740.416	333.48
740.601	480.93
740.786	454.31
740.972	380.58
741.157	435.88
741.342	409.25
741.528	437.92
741.713	456.36
741.898	472.74
742.084	396.96
742.269	503.46
742.454	480.93
742.639	476.84
742.824	491.17
743.01	521.89
743.195	544.42
743.38	464.55
743.565	525.99
743.75	548.51
743.935	503.46
744.12	505.51
744.305	399.01
744.49	407.2
744.675	503.46
744.86	489.12
745.045	509.6
745.23	405.16
745.415	431.78
745.6	538.27
745.785	353.96
745.97	474.79
746.155	374.44
746.34	499.36
746.525	427.68
746.71	591.52
746.895	380.58
747.079	464.55
747.264	423.59
747.449	439.97
747.634	464.55
747.819	480.93
748.003	472.74
748.188	390.82
748.373	485.03
748.557	458.4
748.742	382.63
748.927	450.21
749.111	413.35
749.296	396.96
749.481	429.73
749.665	399.01
749.85	429.73
750.034	345.77
750.219	437.92
750.404	431.78
750.588	394.92
750.773	298.66
750.957	347.81
751.141	386.72
751.326	419.49
751.51	298.66
751.695	399.01
751.879	298.66
752.064	435.88
752.248	374.44
752.432	519.84
752.617	429.73
752.801	433.83
752.985	333.48
753.17	415.4
753.354	370.34
753.538	366.25
753.722	296.61
753.907	356.01
754.091	247.46
754.275	358.05
754.459	247.46
754.643	323.24
754.828	401.06
755.012	333.48
755.196	259.75
755.38	296.61
755.564	341.67
755.748	317.09
755.932	251.56
756.116	327.33
756.3	370.34
756.484	339.62
756.668	458.4
756.852	126.63
757.036	259.75
757.22	253.61
757.404	198.31
757.588	276.13
757.772	313
757.956	280.23
758.14	419.49
758.323	290.47
758.507	276.13
758.691	229.03
758.875	276.13
759.059	327.33
759.242	237.22
759.426	261.8
759.61	253.61
759.794	202.41
759.977	392.87
760.161	396.96
760.345	284.33
760.528	290.47
760.712	339.62
760.895	278.18
761.079	198.31
761.263	231.08
761.446	179.88
761.63	249.51
761.813	284.33
761.997	153.26
762.18	282.28
762.364	263.85
762.547	126.63
762.731	218.79
762.914	210.6
763.098	194.22
763.281	186.02
763.464	181.93
763.648	257.7
763.831	186.02
764.015	140.97
764.198	288.42
764.381	276.13
764.564	294.57
764.748	198.31
764.931	188.07
765.114	116.39
765.297	235.18
765.481	122.54
765.664	188.07
765.847	231.08
766.03	274.09
766.213	169.64
766.397	200.36
766.58	-0.34
766.763	280.23
766.946	138.92
767.129	173.74
767.312	104.11
767.495	159.4
767.678	157.35
767.861	108.2
768.044	177.83
768.227	118.44
768.41	181.93
768.593	161.45
768.776	259.75
768.959	179.88
769.142	298.66
769.324	161.45
769.507	128.68
769.69	147.11
769.873	126.63
770.056	329.38
770.239	181.93
770.421	257.7
770.604	132.78
770.787	149.16
770.97	190.12
771.152	138.92
771.335	163.5
771.518	71.34
771.7	177.83
771.883	169.64
772.066	116.39
772.248	173.74
772.431	253.61
772.613	194.22
772.796	149.16
772.978	130.73
773.161	204.46
773.343	93.87
773.526	114.34
773.708	130.73
773.891	-39.25
774.073	93.87
774.256	120.49
774.438	333.48
774.621	177.83
774.803	124.58
774.985	145.06
775.168	124.58
775.35	116.39
775.532	159.4
775.715	75.43
775.897	177.83
776.079	63.15
776.261	83.63
776.444	108.2
776.626	112.3
776.808	106.15
776.99	18.09
777.173	130.73
777.355	126.63
777.537	104.11
777.719	169.64
777.901	122.54
778.083	77.48
778.265	102.06
778.447	132.78
778.629	97.96
778.811	122.54
778.993	169.64
779.175	171.69
779.357	138.92
779.539	44.71
779.721	177.83
779.903	87.72
780.085	44.71
780.267	44.71
780.449	87.72
780.631	89.77
780.812	163.5
780.994	28.33
781.176	42.67
781.358	69.29
781.54	83.63
781.721	79.53
781.903	169.64
782.085	9.9
782.267	161.45
782.448	11.95
782.63	22.19
782.812	126.63
782.993	97.96
783.175	159.4
783.357	63.15
783.538	85.67
783.72	5.8
783.901	30.38
784.083	61.1
784.264	77.48
784.446	-24.92
784.627	-18.77
784.809	140.97
784.99	46.76
785.172	134.82
785.353	26.28
785.535	126.63
785.716	-8.53
785.897	28.33
786.079	-16.73
786.26	71.34
786.441	79.53
786.623	3.75
786.804	52.91
786.985	79.53
787.167	81.58
787.348	75.43
787.529	32.43
787.71	183.98
787.891	42.67
788.073	57
788.254	-45.4
788.435	145.06
788.616	126.63
788.797	-39.25
788.978	-61.78
789.159	-51.54
789.34	124.58
789.522	30.38
789.703	-57.68
789.884	65.19
790.065	-51.54
790.246	243.37
790.427	46.76
790.607	120.49
790.788	124.58
790.969	-10.58
791.15	104.11
791.331	5.8
791.512	28.33
791.693	16.04
791.874	11.95
792.054	192.17
792.235	118.44
792.416	-22.87
792.597	32.43
792.778	95.91
792.958	75.43
793.139	40.62
793.32	1.71
793.5	32.43
793.681	136.87
793.862	32.43
794.042	18.09
794.223	-33.11
794.404	9.9
794.584	-20.82
794.765	32.43
794.945	-74.07
795.126	-20.82
795.306	73.39
795.487	-41.3
795.667	46.76
795.848	-2.39
796.028	71.34
796.209	5.8
796.389	77.48
796.57	5.8
796.75	95.91
796.93	48.81
797.111	-41.3
797.291	52.91
797.471	36.52
797.652	22.19
797.832	-31.06
798.012	44.71
798.192	-76.12
798.373	-65.88
798.553	-12.63
798.733	54.95
798.913	-39.25
799.093	-78.16
799.274	1.71
799.454	61.1
799.634	26.28
799.814	52.91
799.994	93.87
800.174	48.81
800.354	87.72
800.534	-53.59
800.714	159.4
800.894	-47.44
801.074	-4.44
801.254	-51.54
801.434	95.91
801.614	-26.96
801.794	-18.77
801.974	1732.24
802.154	-37.2
802.334	42.67
802.514	-35.16
802.693	40.62
802.873	-49.49
803.053	91.82
803.233	126.63
803.413	-18.77
803.592	-12.63
803.772	16.04
803.952	13.99
804.131	-96.6
804.311	36.52
804.491	110.25
804.67	-80.21
804.85	-78.16
805.03	34.47
805.209	130.73
805.389	59.05
805.568	59.05
805.748	-0.34
805.928	-24.92
806.107	44.71
806.287	-41.3
806.466	42.67
806.646	-47.44
806.825	-31.06
807.004	-6.49
807.184	77.48
807.363	67.24
807.543	-63.83
807.722	-57.68
807.901	106.15
808.081	50.86
808.26	-129.36
808.439	22.19
808.619	-49.49
808.798	-10.58
808.977	18.09
809.156	67.24
809.336	38.57
809.515	46.76
809.694	-47.44
809.873	-57.68
810.052	28.33
810.231	59.05
810.411	61.1
810.59	48.81
810.769	11.95
810.948	61.1
811.127	-110.93
811.306	-67.92
811.485	-2.39
811.664	124.58
811.843	-20.82
812.022	-18.77
812.201	26.28
812.38	-8.53
812.559	18.09
812.737	-6.49
812.916	-127.32
813.095	-84.31
813.274	30.38
813.453	28.33
813.632	-63.83
813.811	61.1
813.989	-31.06
814.168	-55.64
814.347	-61.78
814.526	-2.39
814.704	46.76
814.883	77.48
815.062	-26.96
815.24	48.81
815.419	-69.97
815.598	11.95
815.776	-119.12
815.955	-43.35
816.133	-45.4
816.312	36.52
816.49	-61.78
816.669	-39.25
816.847	-57.68
817.026	36.52
817.204	-18.77
817.383	-39.25
817.561	-53.59
817.74	9.9
817.918	13.99
818.097	-45.4
818.275	-0.34
818.453	46.76
818.632	42.67
818.81	-96.6
818.988	-94.55
819.167	-74.07
819.345	26.28
819.523	-135.51
819.701	20.14
819.879	-22.87
820.058	65.19
820.236	20.14
820.414	13.99
820.592	-35.16
820.77	16.04
820.948	-37.2
821.127	-69.97
821.305	36.52
821.483	5.8
821.661	44.71
821.839	54.95
822.017	-69.97
822.195	9.9
822.373	75.43
822.551	-45.4
822.729	54.95
822.907	-63.83
823.085	79.53
823.262	77.48
823.44	-4.44
823.618	-67.92
823.796	-16.73
823.974	20.14
824.152	-100.69
824.329	16.04
824.507	-6.49
824.685	22.19
824.863	-43.35
825.04	-16.73
825.218	57
825.396	-14.68
825.574	52.91
825.751	32.43
825.929	5.8
826.107	-78.16
826.284	-24.92
826.462	-29.01
826.639	-55.64
826.817	-72.02
826.994	11.95
827.172	-14.68
827.349	118.44
827.527	28.33
827.704	-2.39
827.882	38.57
828.059	-80.21
828.237	-61.78
828.414	46.76
828.591	-104.79
828.769	-24.92
828.946	-53.59
829.124	40.62
829.301	32.43
829.478	9.9
829.655	69.29
829.833	-24.92
830.01	-143.7
830.187	5.8
830.364	-16.73
830.542	-14.68
830.719	91.82
830.896	22.19
831.073	61.1
831.25	-45.4
831.427	50.86
831.604	26.28
831.782	-31.06
831.959	9.9
832.136	11.95
832.313	18.09
832.49	-35.16
832.667	65.19
832.844	-69.97
833.021	95.91
833.198	-24.92
833.374	-26.96
833.551	18.09
833.728	-16.73
833.905	50.86
834.082	-178.51
834.259	87.72
834.436	79.53
834.612	-16.73
834.789	65.19
834.966	-53.59
835.143	-4.44
835.319	-102.74
835.496	116.39
835.673	100.01
835.85	30.38
836.026	18.09
836.203	46.76
836.38	-55.64
836.556	-94.55
836.733	-49.49
836.909	69.29
837.086	-104.79
837.262	-143.7
837.439	-57.68
837.616	-53.59
837.792	32.43
837.968	-4.44
838.145	-176.47
838.321	-8.53
838.498	104.11
838.674	20.14
838.851	-8.53
839.027	-45.4
839.203	-72.02
839.38	3.75
839.556	-37.2
839.732	63.15
839.909	48.81
840.085	26.28
840.261	3.75
840.437	48.81
840.614	-57.68
840.79	63.15
840.966	52.91
841.142	-43.35
841.318	-2.39
841.494	11.95
841.671	18.09
841.847	-63.83
842.023	-86.36
842.199	46.76
842.375	102.06
842.551	-112.98
842.727	-82.26
842.903	59.05
843.079	-51.54
843.255	93.87
843.431	-22.87
843.607	46.76
843.783	-117.08
843.959	13.99
844.134	-76.12
844.31	153.26
844.486	-29.01
844.662	-65.88
844.838	-10.58
845.013	63.15
845.189	-4.44
845.365	28.33
845.541	-51.54
845.716	-29.01
845.892	30.38
846.068	-51.54
846.244	-78.16
846.419	38.57
846.595	-55.64
846.77	-133.46
846.946	26.28
847.122	-67.92
847.297	-45.4
847.473	151.21
847.648	-139.6
847.824	-24.92
847.999	-151.89
848.175	63.15
848.35	-26.96
848.526	87.72
848.701	11.95
848.876	7.85
849.052	9.9
849.227	-67.92
849.403	-4.44
849.578	-33.11
849.753	-78.16
849.929	54.95
850.104	-166.23
850.279	-20.82
850.454	-2.39
850.63	57
850.805	7.85
850.98	63.15
851.155	-31.06
851.33	-45.4
851.505	-100.69
851.681	120.49
851.856	3.75
852.031	-49.49
852.206	26.28
852.381	-129.36
852.556	-6.49
852.731	67.24
852.906	75.43
853.081	28.33
853.256	155.3
853.431	50.86
853.606	-90.45
853.781	-45.4
853.956	-123.22
854.131	32.43
854.305	-72.02
854.48	-26.96
854.655	-92.5
854.83	-57.68
855.005	-94.55
855.18	-26.96
855.354	-29.01
855.529	20.14
855.704	-29.01
855.879	110.25
856.053	-39.25
856.228	11.95
856.403	-39.25
856.577	-16.73
856.752	-106.84
856.926	-33.11
857.101	22.19
857.276	-86.36
857.45	13.99
857.625	73.39
857.799	67.24
857.974	24.23
858.148	-178.51
858.323	-35.16
858.497	26.28
858.672	-45.4
858.846	-31.06
859.02	20.14
859.195	-104.79
859.369	-82.26
859.543	-108.88
859.718	-39.25
859.892	108.2
860.066	18.09
860.241	-84.31
860.415	-26.96
860.589	-45.4
860.763	-8.53
860.938	-125.27
861.112	50.86
861.286	28.33
861.46	50.86
861.634	32.43
861.808	38.57
861.982	-24.92
862.157	-135.51
862.331	-51.54
862.505	-86.36
862.679	-53.59
862.853	-22.87
863.027	-90.45
863.201	118.44
863.375	-80.21
863.549	11.95
863.722	-31.06
863.896	102.06
864.07	-63.83
864.244	-39.25
864.418	87.72
864.592	-37.2
864.766	26.28
864.939	-16.73
865.113	-76.12
865.287	81.58
865.461	-69.97
865.634	-20.82
865.808	16.04
865.982	-96.6
866.156	-18.77
866.329	-88.4
866.503	-61.78
866.676	11.95
866.85	57
867.024	-51.54
867.197	32.43
867.371	13.99
867.544	42.67
867.718	-125.27
867.891	-0.34
868.065	-125.27
868.238	-63.83
868.412	-41.3
868.585	-88.4
868.759	-29.01
868.932	44.71
869.105	-80.21
869.279	5.8
869.452	-69.97
869.625	59.05
869.799	-49.49
869.972	-18.77
870.145	-78.16
870.319	-0.34
870.492	-47.44
870.665	-57.68
870.838	-82.26
871.011	-129.36
871.185	-65.88
871.358	-6.49
871.531	11.95
871.704	-72.02
871.877	-16.73
872.05	-43.35
872.223	-31.06
872.396	18.09
872.569	13.99
872.742	-63.83
872.915	1.71
873.088	-55.64
873.261	32.43
873.434	26.28
873.607	-61.78
873.78	54.95
873.953	-90.45
874.126	-55.64
874.299	1.71
874.471	-96.6
874.644	-72.02
874.817	1.71
874.99	116.39
875.163	-98.64
875.335	52.91
875.508	-63.83
875.681	77.48
875.853	-43.35
876.026	-12.63
876.199	11.95
876.371	-35.16
876.544	-41.3
876.717	-16.73
876.889	-92.5
877.062	-35.16
877.234	-39.25
877.407	-80.21
877.579	-123.22
877.752	-51.54
877.924	13.99
878.097	54.95
878.269	3.75
878.442	-74.07
878.614	-37.2
878.786	16.04
878.959	-43.35
879.131	-29.01
879.303	-78.16
879.476	-8.53
879.648	38.57
879.82	-29.01
879.993	-84.31
880.165	-49.49
880.337	-155.99
880.509	-39.25
880.681	-115.03
880.854	-104.79
881.026	89.77
881.198	159.4
881.37	-10.58
881.542	22.19
881.714	-51.54
881.886	-33.11
882.058	69.29
882.23	48.81
882.402	-26.96
882.574	1.71
882.746	57
882.918	50.86
883.09	32.43
883.262	-45.4
883.434	9.9
883.606	-110.93
883.778	22.19
883.95	147.11
884.122	9.9
884.293	26.28
884.465	-16.73
884.637	100.01
884.809	-63.83
884.98	-47.44
885.152	-8.53
885.324	112.3
885.496	-49.49
885.667	16.04
885.839	-49.49
886.011	34.47
886.182	-14.68
886.354	32.43
886.525	24.23
886.697	46.76
886.869	-106.84
887.04	-37.2
887.212	3.75
887.383	114.34
887.555	-10.58
887.726	-35.16
887.897	-12.63
888.069	-33.11
888.24	32.43
888.412	57
888.583	-84.31
888.754	-76.12
888.926	-131.41
889.097	-102.74
889.268	-82.26
889.44	-31.06
889.611	-121.17
889.782	-115.03
889.953	-94.55
890.125	16.04
890.296	-31.06
890.467	-63.83
890.638	-141.65
890.809	-102.74
890.98	-39.25
891.151	61.1
891.323	50.86
891.494	20.14
891.665	-8.53
891.836	-72.02
892.007	-55.64
892.178	-65.88
892.349	-4.44
892.52	-39.25
892.691	-129.36
892.862	-74.07
893.032	-121.17
893.203	-69.97
893.374	-22.87
893.545	61.1
893.716	-14.68
893.887	83.63
894.057	-145.75
894.228	-45.4
894.399	-121.17
894.57	69.29
894.74	-63.83
894.911	30.38
895.082	-63.83
895.253	-86.36
895.423	-49.49
895.594	9.9
895.764	-6.49
895.935	-115.03
896.106	-14.68
896.276	-33.11
896.447	-33.11
896.617	-155.99
896.788	-78.16
896.958	-67.92
897.129	-76.12
897.299	-0.34
897.47	75.43
897.64	11.95
897.81	-86.36
897.981	54.95
898.151	-86.36
898.322	-49.49
898.492	20.14
898.662	-104.79
898.832	-67.92
899.003	-67.92
899.173	126.63
899.343	-72.02
899.513	-104.79
