Data from USB4F104151__16__09-25-19-322.txt Node

Date: Wed Feb 26 09:25:19 EST 2025
User: louis
Spectrometer: USB4F10415
Trigger mode: 4
Integration Time (sec): 1.000000E-1
Scans to average: 1
Electric dark correction enabled: true
Nonlinearity correction enabled: false
Boxcar width: 0
XAxis mode: Wavelengths
Number of Pixels in Spectrum: 3648
>>>>>Begin Spectral Data<<<<<
178.204	-292.18
178.424	-292.18
178.644	-292.18
178.864	-337.23
179.084	-339.28
179.304	-9.56
179.524	-11.61
179.744	43.69
179.964	47.79
180.184	10.92
180.404	-40.28
180.624	-58.71
180.844	47.79
181.064	-27.99
181.283	10.92
181.503	-73.04
181.723	60.07
181.943	-77.14
182.163	201.38
182.383	-3.41
182.602	70.31
182.822	150.18
183.042	25.26
183.262	-101.72
183.482	53.93
183.701	27.31
183.921	51.88
184.141	27.31
184.361	103.08
184.58	80.55
184.8	35.5
185.02	-1.37
185.239	127.66
185.459	103.08
185.679	139.94
185.898	-99.67
186.118	76.46
186.338	55.98
186.557	72.36
186.777	-32.08
186.997	-58.71
187.216	72.36
187.436	152.23
187.655	64.17
187.875	215.72
188.095	15.02
188.314	82.6
188.534	150.18
188.753	12.97
188.973	103.08
189.192	121.51
189.412	6.83
189.631	-23.89
189.851	84.65
190.07	76.46
190.29	-9.56
190.509	10.92
190.729	43.69
190.948	172.71
191.168	240.29
191.387	64.17
191.607	31.4
191.826	144.04
192.045	62.12
192.265	29.35
192.484	15.02
192.704	19.11
192.923	2.73
193.142	156.33
193.362	72.36
193.581	144.04
193.8	107.18
194.02	103.08
194.239	127.66
194.458	92.84
194.678	-27.99
194.897	78.51
195.116	10.92
195.335	39.59
195.555	105.13
195.774	-89.43
195.993	121.51
196.212	55.98
196.432	29.35
196.651	105.13
196.87	55.98
197.089	219.82
197.308	154.28
197.528	105.13
197.747	119.46
197.966	53.93
198.185	105.13
198.404	27.31
198.623	105.13
198.842	115.37
199.062	162.47
199.281	129.7
199.5	72.36
199.719	96.94
199.938	74.41
200.157	98.99
200.376	23.21
200.595	64.17
200.814	-1.37
201.033	25.26
201.252	154.28
201.471	21.16
201.69	19.11
201.909	45.74
202.128	78.51
202.347	60.07
202.566	10.92
202.785	-1.37
203.004	-25.94
203.223	236.2
203.442	47.79
203.661	23.21
203.879	53.93
204.098	105.13
204.317	31.4
204.536	94.89
204.755	109.22
204.974	127.66
205.193	21.16
205.411	182.95
205.63	70.31
205.849	27.31
206.068	2.73
206.287	-11.61
206.505	88.75
206.724	19.11
206.943	-58.71
207.162	68.27
207.381	94.89
207.599	51.88
207.818	70.31
208.037	10.92
208.255	23.21
208.474	39.59
208.693	88.75
208.911	66.22
209.13	117.42
209.349	43.69
209.567	55.98
209.786	66.22
210.005	23.21
210.223	6.83
210.442	-68.95
210.661	2.73
210.879	70.31
211.098	37.55
211.316	96.94
211.535	37.55
211.753	8.87
211.972	27.31
212.191	21.16
212.409	12.97
212.628	92.84
212.846	-15.7
213.065	53.93
213.283	78.51
213.502	-17.75
213.72	-11.61
213.938	117.42
214.157	-13.65
214.375	96.94
214.594	6.83
214.812	127.66
215.031	119.46
215.249	47.79
215.467	113.32
215.686	-42.32
215.904	113.32
216.122	45.74
216.341	129.7
216.559	-1.37
216.778	133.8
216.996	150.18
217.214	29.35
217.432	17.07
217.651	-32.08
217.869	21.16
218.087	64.17
218.306	84.65
218.524	27.31
218.742	35.5
218.96	27.31
219.179	-1.37
219.397	-5.46
219.615	225.96
219.833	150.18
220.051	6.83
220.27	150.18
220.488	170.66
220.706	70.31
220.924	-50.52
221.142	-23.89
221.36	55.98
221.578	35.5
221.796	94.89
222.015	43.69
222.233	-11.61
222.451	156.33
222.669	51.88
222.887	146.09
223.105	-64.85
223.323	43.69
223.541	-50.52
223.759	55.98
223.977	15.02
224.195	154.28
224.413	82.6
224.631	17.07
224.849	15.02
225.067	162.47
225.285	-9.56
225.503	-3.41
225.721	4.78
225.939	43.69
226.157	90.79
226.375	354.98
226.592	25.26
226.81	23.21
227.028	62.12
227.246	101.03
227.464	109.22
227.682	98.99
227.9	62.12
228.117	49.83
228.335	19.11
228.553	21.16
228.771	47.79
228.989	105.13
229.206	113.32
229.424	-58.71
229.642	47.79
229.86	-54.61
230.077	101.03
230.295	68.27
230.513	115.37
230.731	170.66
230.948	178.86
231.166	96.94
231.384	37.55
231.601	-42.32
231.819	88.75
232.037	64.17
232.254	27.31
232.472	47.79
232.689	-97.62
232.907	187.05
233.125	39.59
233.342	0.68
233.56	-48.47
233.777	64.17
233.995	86.7
234.213	70.31
234.43	84.65
234.648	8.87
234.865	2.73
235.083	76.46
235.3	29.35
235.518	94.89
235.735	47.79
235.953	62.12
236.17	68.27
236.388	86.7
236.605	47.79
236.822	96.94
237.04	121.51
237.257	-27.99
237.475	-73.04
237.692	10.92
237.909	96.94
238.127	19.11
238.344	88.75
238.562	27.31
238.779	23.21
238.996	-46.42
239.214	92.84
239.431	111.27
239.648	33.45
239.865	43.69
240.083	31.4
240.3	103.08
240.517	-25.94
240.735	45.74
240.952	84.65
241.169	19.11
241.386	43.69
241.603	45.74
241.821	-15.7
242.038	125.61
242.255	58.03
242.472	-1.37
242.689	23.21
242.907	103.08
243.124	68.27
243.341	21.16
243.558	6.83
243.775	-40.28
243.992	-1.37
244.209	21.16
244.426	137.9
244.643	76.46
244.86	-1.37
245.078	94.89
245.295	37.55
245.512	64.17
245.729	-15.7
245.946	76.46
246.163	55.98
246.38	8.87
246.597	103.08
246.814	45.74
247.031	49.83
247.248	-1.37
247.464	23.21
247.681	-13.65
247.898	33.45
248.115	72.36
248.332	23.21
248.549	96.94
248.766	219.82
248.983	84.65
249.2	125.61
249.417	119.46
249.633	10.92
249.85	103.08
250.067	15.02
250.284	45.74
250.501	6.83
250.717	80.55
250.934	47.79
251.151	-13.65
251.368	53.93
251.585	92.84
251.801	-7.51
252.018	43.69
252.235	137.9
252.451	51.88
252.668	41.64
252.885	60.07
253.102	113.32
253.318	19.11
253.535	45.74
253.752	10.92
253.968	2.73
254.185	23.21
254.401	68.27
254.618	74.41
254.835	-66.9
255.051	101.03
255.268	111.27
255.484	119.46
255.701	43.69
255.917	68.27
256.134	12.97
256.351	31.4
256.567	-68.95
256.784	62.12
257	-50.52
257.217	92.84
257.433	74.41
257.65	88.75
257.866	182.95
258.082	-17.75
258.299	-9.56
258.515	66.22
258.732	62.12
258.948	-15.7
259.165	90.79
259.381	21.16
259.597	60.07
259.814	15.02
260.03	15.02
260.246	10.92
260.463	105.13
260.679	170.66
260.895	29.35
261.112	4.78
261.328	23.21
261.544	-1.37
261.761	180.9
261.977	39.59
262.193	15.02
262.409	88.75
262.626	39.59
262.842	94.89
263.058	12.97
263.274	133.8
263.49	49.83
263.707	80.55
263.923	29.35
264.139	17.07
264.355	64.17
264.571	150.18
264.787	72.36
265.004	62.12
265.22	58.03
265.436	-68.95
265.652	62.12
265.868	80.55
266.084	10.92
266.3	27.31
266.516	-58.71
266.732	51.88
266.948	51.88
267.164	94.89
267.38	156.33
267.596	25.26
267.812	152.23
268.028	86.7
268.244	23.21
268.46	6.83
268.676	23.21
268.892	103.08
269.108	80.55
269.324	-23.89
269.54	2.73
269.756	47.79
269.972	-1.37
270.188	-1.37
270.403	-34.13
270.619	-46.42
270.835	109.22
271.051	72.36
271.267	49.83
271.483	23.21
271.698	37.55
271.914	4.78
272.13	74.41
272.346	29.35
272.562	-1.37
272.777	96.94
272.993	-7.51
273.209	-21.85
273.425	78.51
273.64	-46.42
273.856	94.89
274.072	10.92
274.287	35.5
274.503	27.31
274.719	127.66
274.934	37.55
275.15	-50.52
275.366	45.74
275.581	15.02
275.797	-40.28
276.012	23.21
276.228	84.65
276.444	72.36
276.659	129.7
276.875	-77.14
277.09	105.13
277.306	47.79
277.521	80.55
277.737	64.17
277.952	121.51
278.168	103.08
278.383	74.41
278.599	66.22
278.814	84.65
279.03	29.35
279.245	141.99
279.461	80.55
279.676	166.57
279.892	-11.61
280.107	31.4
280.322	-66.9
280.538	53.93
280.753	-27.99
280.969	53.93
281.184	62.12
281.399	72.36
281.615	45.74
281.83	10.92
282.045	-48.47
282.26	-56.66
282.476	29.35
282.691	58.03
282.906	64.17
283.122	39.59
283.337	-17.75
283.552	76.46
283.767	96.94
283.983	105.13
284.198	47.79
284.413	78.51
284.628	-142.68
284.843	49.83
285.058	55.98
285.274	19.11
285.489	-13.65
285.704	80.55
285.919	55.98
286.134	-54.61
286.349	72.36
286.564	66.22
286.779	137.9
286.995	10.92
287.21	-13.65
287.425	10.92
287.64	-3.41
287.855	41.64
288.07	-11.61
288.285	66.22
288.5	113.32
288.715	72.36
288.93	64.17
289.145	17.07
289.36	6.83
289.575	60.07
289.79	119.46
290.004	27.31
290.219	94.89
290.434	43.69
290.649	41.64
290.864	84.65
291.079	76.46
291.294	64.17
291.509	-30.04
291.724	-23.89
291.938	45.74
292.153	64.17
292.368	37.55
292.583	60.07
292.798	109.22
293.012	10.92
293.227	58.03
293.442	96.94
293.657	60.07
293.871	78.51
294.086	64.17
294.301	4.78
294.516	70.31
294.73	43.69
294.945	-9.56
295.16	72.36
295.374	135.85
295.589	146.09
295.804	27.31
296.018	31.4
296.233	242.34
296.447	94.89
296.662	27.31
296.877	80.55
297.091	103.08
297.306	27.31
297.52	62.12
297.735	98.99
297.949	80.55
298.164	62.12
298.378	51.88
298.593	-42.32
298.807	-23.89
299.022	55.98
299.236	137.9
299.451	72.36
299.665	-17.75
299.88	43.69
300.094	86.7
300.309	4.78
300.523	66.22
300.737	53.93
300.952	62.12
301.166	-1.37
301.381	-30.04
301.595	-17.75
301.809	43.69
302.024	98.99
302.238	-5.46
302.452	107.18
302.667	68.27
302.881	80.55
303.095	27.31
303.309	23.21
303.524	78.51
303.738	-32.08
303.952	6.83
304.166	88.75
304.381	-38.23
304.595	121.51
304.809	23.21
305.023	39.59
305.237	-44.37
305.452	-56.66
305.666	64.17
305.88	-11.61
306.094	23.21
306.308	-5.46
306.522	90.79
306.736	115.37
306.95	137.9
307.164	43.69
307.379	53.93
307.593	105.13
307.807	162.47
308.021	51.88
308.235	88.75
308.449	-54.61
308.663	23.21
308.877	232.1
309.091	96.94
309.305	47.79
309.519	-66.9
309.733	109.22
309.947	-42.32
310.161	119.46
310.374	117.42
310.588	135.85
310.802	-52.56
311.016	23.21
311.23	74.41
311.444	12.97
311.658	4.78
311.872	156.33
312.085	154.28
312.299	127.66
312.513	101.03
312.727	41.64
312.941	-17.75
313.154	51.88
313.368	62.12
313.582	49.83
313.796	39.59
314.009	70.31
314.223	70.31
314.437	82.6
314.651	70.31
314.864	21.16
315.078	-11.61
315.292	-3.41
315.505	45.74
315.719	55.98
315.933	39.59
316.146	6.83
316.36	37.55
316.573	60.07
316.787	80.55
317.001	101.03
317.214	-17.75
317.428	-17.75
317.641	12.97
317.855	29.35
318.068	72.36
318.282	0.68
318.495	213.67
318.709	70.31
318.922	115.37
319.136	174.76
319.349	51.88
319.563	4.78
319.776	82.6
319.99	-77.14
320.203	74.41
320.417	10.92
320.63	121.51
320.843	185
321.057	23.21
321.27	15.02
321.483	45.74
321.697	51.88
321.91	103.08
322.124	55.98
322.337	96.94
322.55	-11.61
322.763	21.16
322.977	15.02
323.19	-17.75
323.403	21.16
323.617	68.27
323.83	101.03
324.043	2.73
324.256	86.7
324.469	-42.32
324.683	107.18
324.896	72.36
325.109	51.88
325.322	-13.65
325.535	37.55
325.748	55.98
325.962	88.75
326.175	127.66
326.388	139.94
326.601	133.8
326.814	-1.37
327.027	19.11
327.24	84.65
327.453	-21.85
327.666	129.7
327.879	117.42
328.092	76.46
328.305	117.42
328.518	80.55
328.731	23.21
328.944	15.02
329.157	37.55
329.37	-5.46
329.583	94.89
329.796	160.42
330.009	-46.42
330.222	121.51
330.435	105.13
330.648	113.32
330.861	47.79
331.073	105.13
331.286	109.22
331.499	70.31
331.712	-71
331.925	23.21
332.138	74.41
332.35	135.85
332.563	-9.56
332.776	90.79
332.989	-7.51
333.202	12.97
333.414	-25.94
333.627	47.79
333.84	8.87
334.053	72.36
334.265	-30.04
334.478	4.78
334.691	43.69
334.903	105.13
335.116	21.16
335.329	66.22
335.541	62.12
335.754	170.66
335.966	27.31
336.179	53.93
336.392	31.4
336.604	-50.52
336.817	96.94
337.029	78.51
337.242	103.08
337.454	117.42
337.667	-3.41
337.88	64.17
338.092	-7.51
338.305	35.5
338.517	-17.75
338.729	113.32
338.942	121.51
339.154	-25.94
339.367	23.21
339.579	176.81
339.792	2.73
340.004	96.94
340.217	-9.56
340.429	43.69
340.641	96.94
340.854	-34.13
341.066	41.64
341.278	43.69
341.491	182.95
341.703	41.64
341.915	41.64
342.128	84.65
342.34	55.98
342.552	-9.56
342.764	60.07
342.977	12.97
343.189	23.21
343.401	94.89
343.613	17.07
343.826	31.4
344.038	-13.65
344.25	35.5
344.462	-42.32
344.674	76.46
344.886	53.93
345.099	23.21
345.311	64.17
345.523	35.5
345.735	-11.61
345.947	70.31
346.159	15.02
346.371	41.64
346.583	15.02
346.795	162.47
347.007	-30.04
347.219	111.27
347.431	-9.56
347.643	111.27
347.855	72.36
348.067	78.51
348.279	-62.8
348.491	-15.7
348.703	60.07
348.915	72.36
349.127	25.26
349.339	72.36
349.551	-3.41
349.763	92.84
349.975	78.51
350.187	-13.65
350.399	185
350.61	64.17
350.822	80.55
351.034	66.22
351.246	80.55
351.458	123.56
351.669	27.31
351.881	51.88
352.093	47.79
352.305	37.55
352.517	80.55
352.728	137.9
352.94	51.88
353.152	105.13
353.363	29.35
353.575	33.45
353.787	158.38
353.999	72.36
354.21	94.89
354.422	-7.51
354.633	10.92
354.845	27.31
355.057	31.4
355.268	0.68
355.48	35.5
355.692	-25.94
355.903	-27.99
356.115	-91.48
356.326	-48.47
356.538	101.03
356.749	62.12
356.961	125.61
357.172	-23.89
357.384	-13.65
357.595	160.42
357.807	6.83
358.018	27.31
358.23	70.31
358.441	201.38
358.653	62.12
358.864	60.07
359.075	31.4
359.287	-17.75
359.498	158.38
359.709	43.69
359.921	64.17
360.132	29.35
360.344	17.07
360.555	35.5
360.766	51.88
360.977	-25.94
361.189	94.89
361.4	23.21
361.611	103.08
361.823	96.94
362.034	39.59
362.245	2.73
362.456	66.22
362.667	6.83
362.879	-1.37
363.09	37.55
363.301	41.64
363.512	31.4
363.723	-21.85
363.935	-1.37
364.146	105.13
364.357	21.16
364.568	45.74
364.779	-50.52
364.99	66.22
365.201	21.16
365.412	174.76
365.623	-27.99
365.834	88.75
366.045	-23.89
366.256	64.17
366.467	139.94
366.678	23.21
366.889	10.92
367.1	-25.94
367.311	98.99
367.522	70.31
367.733	60.07
367.944	51.88
368.155	37.55
368.366	47.79
368.577	88.75
368.788	117.42
368.999	17.07
369.209	23.21
369.42	195.24
369.631	209.58
369.842	86.7
370.053	80.55
370.264	15.02
370.474	-30.04
370.685	6.83
370.896	55.98
371.107	80.55
371.317	31.4
371.528	88.75
371.739	105.13
371.95	82.6
372.16	178.86
372.371	21.16
372.582	53.93
372.792	35.5
373.003	53.93
373.214	141.99
373.424	111.27
373.635	23.21
373.846	129.7
374.056	47.79
374.267	27.31
374.477	109.22
374.688	-7.51
374.898	80.55
375.109	-27.99
375.319	-17.75
375.53	55.98
375.74	109.22
375.951	-13.65
376.161	41.64
376.372	15.02
376.582	23.21
376.793	68.27
377.003	-1.37
377.214	82.6
377.424	88.75
377.635	21.16
377.845	-56.66
378.055	121.51
378.266	2.73
378.476	25.26
378.686	94.89
378.897	72.36
379.107	66.22
379.317	21.16
379.528	55.98
379.738	84.65
379.948	68.27
380.158	115.37
380.369	141.99
380.579	121.51
380.789	31.4
380.999	86.7
381.21	121.51
381.42	201.38
381.63	64.17
381.84	25.26
382.05	47.79
382.261	68.27
382.471	105.13
382.681	43.69
382.891	158.38
383.101	15.02
383.311	6.83
383.521	10.92
383.731	121.51
383.941	35.5
384.151	60.07
384.361	60.07
384.571	39.59
384.781	29.35
384.991	144.04
385.201	127.66
385.411	88.75
385.621	96.94
385.831	74.41
386.041	72.36
386.251	-13.65
386.461	39.59
386.671	68.27
386.881	6.83
387.091	-13.65
387.301	150.18
387.511	23.21
387.72	90.79
387.93	105.13
388.14	-21.85
388.35	64.17
388.56	133.8
388.769	96.94
388.979	29.35
389.189	-66.9
389.399	21.16
389.609	-9.56
389.818	176.81
390.028	23.21
390.238	2.73
390.447	21.16
390.657	86.7
390.867	62.12
391.076	-68.95
391.286	37.55
391.496	0.68
391.705	6.83
391.915	72.36
392.125	150.18
392.334	-71
392.544	166.57
392.753	88.75
392.963	10.92
393.172	39.59
393.382	-52.56
393.591	137.9
393.801	-62.8
394.01	193.19
394.22	101.03
394.429	49.83
394.639	76.46
394.848	101.03
395.058	111.27
395.267	92.84
395.477	17.07
395.686	72.36
395.895	168.62
396.105	137.9
396.314	66.22
396.524	76.46
396.733	29.35
396.942	80.55
397.152	92.84
397.361	156.33
397.57	62.12
397.78	25.26
397.989	113.32
398.198	219.82
398.407	33.45
398.617	29.35
398.826	45.74
399.035	-38.23
399.244	154.28
399.453	96.94
399.663	19.11
399.872	49.83
400.081	-17.75
400.29	146.09
400.499	45.74
400.708	53.93
400.917	92.84
401.127	51.88
401.336	-38.23
401.545	123.56
401.754	105.13
401.963	21.16
402.172	58.03
402.381	23.21
402.59	-7.51
402.799	64.17
403.008	131.75
403.217	88.75
403.426	78.51
403.635	72.36
403.844	80.55
404.053	12.97
404.262	43.69
404.471	203.43
404.68	133.8
404.888	55.98
405.097	76.46
405.306	70.31
405.515	133.8
405.724	15.02
405.933	187.05
406.142	115.37
406.35	107.18
406.559	15.02
406.768	33.45
406.977	105.13
407.185	84.65
407.394	80.55
407.603	-73.04
407.812	111.27
408.02	70.31
408.229	39.59
408.438	84.65
408.646	-60.76
408.855	43.69
409.064	21.16
409.272	96.94
409.481	94.89
409.69	2.73
409.898	43.69
410.107	76.46
410.315	105.13
410.524	-5.46
410.733	105.13
410.941	23.21
411.15	111.27
411.358	101.03
411.567	150.18
411.775	0.68
411.984	-1.37
412.192	53.93
412.401	4.78
412.609	197.29
412.818	133.8
413.026	111.27
413.234	6.83
413.443	55.98
413.651	-1.37
413.86	74.41
414.068	182.95
414.276	141.99
414.485	70.31
414.693	201.38
414.901	78.51
415.11	105.13
415.318	12.97
415.526	62.12
415.734	35.5
415.943	131.75
416.151	8.87
416.359	19.11
416.567	31.4
416.776	125.61
416.984	96.94
417.192	191.14
417.4	6.83
417.608	39.59
417.817	64.17
418.025	146.09
418.233	137.9
418.441	6.83
418.649	4.78
418.857	74.41
419.065	133.8
419.273	10.92
419.481	92.84
419.689	107.18
419.897	49.83
420.105	-9.56
420.313	111.27
420.521	137.9
420.729	119.46
420.937	-58.71
421.145	49.83
421.353	141.99
421.561	86.7
421.769	6.83
421.977	55.98
422.185	72.36
422.393	64.17
422.601	117.42
422.809	45.74
423.017	92.84
423.224	101.03
423.432	150.18
423.64	88.75
423.848	191.14
424.056	37.55
424.263	133.8
424.471	64.17
424.679	211.62
424.887	2.73
425.094	103.08
425.302	103.08
425.51	-3.41
425.718	123.56
425.925	78.51
426.133	49.83
426.341	131.75
426.548	55.98
426.756	90.79
426.964	92.84
427.171	-50.52
427.379	117.42
427.586	15.02
427.794	64.17
428.001	131.75
428.209	72.36
428.417	221.86
428.624	109.22
428.832	125.61
429.039	6.83
429.247	49.83
429.454	152.23
429.662	219.82
429.869	141.99
430.076	80.55
430.284	113.32
430.491	217.77
430.699	178.86
430.906	172.71
431.114	162.47
431.321	55.98
431.528	131.75
431.736	121.51
431.943	176.81
432.15	219.82
432.358	172.71
432.565	244.39
432.772	96.94
432.979	217.77
433.187	113.32
433.394	305.83
433.601	203.43
433.808	268.97
434.016	211.62
434.223	268.97
434.43	133.8
434.637	213.67
434.844	268.97
435.052	193.19
435.259	146.09
435.466	268.97
435.673	215.72
435.88	285.35
436.087	285.35
436.294	301.73
436.501	299.69
436.708	295.59
436.915	277.16
437.122	301.73
437.329	324.26
437.537	338.6
437.743	303.78
437.95	371.36
438.157	332.45
438.364	418.47
438.571	305.83
438.778	367.27
438.985	422.56
439.192	471.72
439.399	346.79
439.606	457.38
439.813	518.82
440.02	506.53
440.227	651.94
440.433	490.15
440.64	514.72
440.847	502.43
441.054	567.97
441.261	676.51
441.467	604.83
441.674	613.03
441.881	639.65
442.088	637.6
442.294	713.38
442.501	690.85
442.708	715.42
442.914	690.85
443.121	721.57
443.328	840.35
443.534	946.84
443.741	846.49
443.948	807.58
444.154	830.11
444.361	987.8
444.568	920.22
444.774	899.74
444.981	881.31
445.187	1159.83
445.394	1112.73
445.6	1039
445.807	1237.66
446.013	1071.77
446.22	1137.31
446.426	1311.38
446.633	1477.27
446.839	1553.04
447.046	1325.72
447.252	1587.86
447.459	1542.8
447.665	1550.99
447.871	1667.73
448.078	1839.76
448.284	1727.12
448.491	1768.08
448.697	1911.44
448.903	1999.5
449.11	2062.99
449.316	1968.78
449.522	2228.87
449.728	2235.02
449.935	2450.05
450.141	2251.4
450.347	2452.1
450.553	2544.26
450.76	2568.84
450.966	2671.23
451.172	2734.72
451.378	2804.35
451.584	3103.36
451.791	3224.19
451.997	3170.94
452.203	3312.25
452.409	3545.72
452.615	3658.35
452.821	3488.37
453.027	3603.06
453.233	3940.97
453.44	3891.82
453.646	4215.4
453.852	4291.18
454.058	4495.97
454.264	4635.24
454.47	4911.71
454.676	4905.57
454.882	5202.52
455.088	5122.65
455.294	5450.33
455.5	5812.82
455.705	6158.92
455.911	6199.88
456.117	6257.23
456.323	6646.34
456.529	6455.88
456.735	7152.19
456.941	7250.49
457.147	7658.04
457.352	7776.82
457.558	7916.08
457.764	8391.21
457.97	8688.17
458.176	9222.69
458.381	9423.39
458.587	9419.29
458.793	10123.79
458.999	10123.79
459.204	11137.54
459.41	11819.51
459.616	11782.65
459.821	12341.74
460.027	12868.07
460.233	13316.58
460.438	13476.32
460.644	14205.39
460.85	14242.26
461.055	15129.03
461.261	15706.55
461.466	15366.59
461.672	15677.88
461.878	17285.54
462.083	17138.09
462.289	17541.53
462.494	18311.57
462.7	18565.52
462.905	19038.6
463.111	20232.57
463.316	21023.08
463.522	21625.18
463.727	22174.04
463.932	23112.01
464.138	23722.3
464.343	24815.92
464.549	24772.91
464.754	26458.39
464.959	27099.41
465.165	27697.41
465.37	27699.46
465.575	27734.28
465.781	29593.83
465.986	30705.88
466.191	30015.71
466.397	30064.86
466.602	29546.73
466.807	31072.46
467.012	31627.46
467.218	32489.66
467.423	32436.41
467.628	33484.97
467.833	34838.68
468.038	33986.72
468.244	33816.74
468.449	35190.93
468.654	34672.79
468.859	34773.14
469.064	34424.99
469.269	33781.93
469.474	34015.4
469.679	35111.06
469.885	33853.61
470.09	34740.38
470.295	34719.9
470.5	33908.9
470.705	34283.68
470.91	33171.63
471.115	32975.03
471.32	33157.3
471.525	33112.24
471.73	32229.57
471.935	31981.76
472.139	30859.48
472.344	30931.15
472.549	30724.31
472.754	29870.31
472.959	29516.01
473.164	28467.45
473.369	27996.42
473.574	28866.8
473.778	28195.07
473.983	27654.4
474.188	27279.63
474.393	25790.75
474.598	25864.48
474.802	25428.26
475.007	24523.06
475.212	24521.01
475.417	23789.89
475.621	23777.6
475.826	23269.7
476.031	22987.08
476.235	22010.2
476.44	22215
476.645	21737.82
476.849	21440.87
477.054	21086.57
477.259	20623.73
477.463	20650.35
477.668	20054.39
477.872	19894.65
478.077	19556.74
478.282	18794.89
478.486	18907.53
478.691	18710.93
478.895	18743.69
479.1	18334.1
479.304	18278.8
479.509	17275.3
479.713	18022.81
479.918	17414.56
480.122	17187.24
480.326	17351.07
480.531	17150.37
480.735	17146.28
480.94	16591.28
481.144	17330.59
481.348	16359.86
481.553	16402.86
481.757	16169.4
481.961	16124.34
482.166	16107.96
482.37	15970.74
482.574	15727.03
482.778	15690.17
482.983	15960.5
483.187	15655.36
483.391	15671.74
483.595	14981.57
483.8	14940.61
484.004	15198.66
484.208	14717.39
484.412	14836.17
484.616	14705.1
484.821	14307.79
485.025	13912.53
485.229	14215.63
485.433	13814.23
485.637	13660.63
485.841	13464.03
486.045	13369.82
486.249	13386.21
486.453	12952.04
486.657	12902.89
486.861	12941.8
487.065	12253.68
487.269	12540.4
487.473	11940.34
487.677	12128.75
487.881	11866.61
488.085	11704.82
488.289	11682.3
488.493	11219.46
488.697	10983.94
488.901	10973.7
489.105	10568.2
489.309	10539.53
489.512	10535.43
489.716	10299.92
489.92	9900.56
490.124	9706.01
490.328	9914.9
490.531	9450.01
490.735	9318.94
490.939	9382.43
491.143	9011.75
491.346	8864.29
491.55	8866.34
491.754	8888.87
491.958	8544.81
492.161	8673.83
492.365	8303.15
492.569	8243.76
492.772	7922.23
492.976	8020.53
493.18	7981.62
493.383	8000.05
493.587	7617.08
493.79	7772.72
493.994	7709.24
494.197	7510.58
494.401	7434.81
494.605	7426.62
494.808	7582.26
495.012	7379.51
495.215	7393.85
495.419	7459.38
495.622	7092.8
495.825	7201.34
496.029	7219.77
496.232	7418.43
496.436	7201.34
496.639	7391.8
496.843	7193.15
497.046	7260.73
497.249	7352.89
497.453	7408.19
497.656	7184.96
497.859	7389.75
498.063	7330.36
498.266	7526.97
498.469	7350.84
498.673	7436.86
498.876	7434.81
499.079	7389.75
499.282	7502.39
499.485	7699
499.689	7531.06
499.892	7774.77
500.095	7655.99
500.298	7651.89
500.501	7924.27
500.705	7889.46
500.908	8079.92
501.111	8098.35
501.314	8155.69
501.517	8356.4
501.72	8358.44
501.923	8335.92
502.126	8579.62
502.329	8931.87
502.532	8841.76
502.735	8931.87
502.938	9146.91
503.141	9032.22
503.344	9312.8
503.547	9353.76
503.75	9390.62
503.953	9663
504.156	9738.77
504.359	10052.11
504.562	9820.69
504.765	10283.53
504.968	10461.71
505.17	10574.35
505.373	10648.07
505.576	11008.51
505.779	11264.51
505.982	11180.54
506.185	11514.36
506.387	11414.01
506.59	12282.35
506.793	12233.2
506.996	12290.54
507.198	12753.38
507.401	12847.59
507.604	13251.04
507.807	13607.39
508.009	13687.26
508.212	13996.5
508.415	14250.45
508.617	14643.66
508.82	14975.43
509.022	15083.97
509.225	15600.06
509.428	15841.72
509.63	16202.16
509.833	16333.23
510.035	17246.63
510.238	17234.34
510.44	17619.36
510.643	17873.31
510.845	18514.32
511.048	18667.92
511.25	19046.79
511.453	19569.02
511.655	20367.73
511.858	20384.12
512.06	21156.2
512.262	21592.42
512.465	21899.61
512.667	22454.61
512.87	22606.16
513.072	23230.79
513.274	23968.06
513.477	24594.74
513.679	25002.29
513.881	25383.21
514.084	26138.91
514.286	26511.64
514.488	27328.78
514.69	28406.01
514.893	28717.3
515.095	29149.42
515.297	29839.59
515.499	30351.58
515.701	30875.86
515.904	31772.87
516.106	32366.78
516.308	32796.85
516.51	33548.46
516.712	34226.34
516.914	35086.48
517.116	35686.54
517.318	36055.17
517.52	36737.15
517.722	37214.32
517.925	37863.53
518.127	39127.13
518.329	39645.26
518.531	39542.86
518.733	40605.76
518.935	41570.35
519.136	41863.21
519.338	42446.88
519.54	42977.31
519.742	44378.12
519.944	44251.14
520.146	45420.53
520.348	46055.4
520.55	46249.96
520.752	46673.89
520.954	47935.44
521.155	47523.8
521.357	48897.98
521.559	49412.02
521.761	50141.1
521.963	49930.16
522.164	50364.33
522.366	51185.57
522.568	51566.49
522.77	52381.58
522.971	52789.13
523.173	52168.59
523.375	53149.57
523.576	53309.31
523.778	52924.29
523.98	53852.02
524.181	53958.52
524.383	54191.98
524.584	54458.22
524.786	54626.15
524.988	54452.08
525.189	54779.75
525.391	54740.84
525.592	54460.27
525.794	55443.29
525.995	55002.98
526.197	54880.1
526.398	54931.3
526.6	54869.86
526.801	54476.65
527.003	54542.19
527.204	54394.73
527.406	54308.72
527.607	54241.13
527.808	54148.98
528.01	52795.27
528.211	52977.54
528.412	53405.56
528.614	53151.62
528.815	52563.85
529.016	52516.75
529.218	51457.95
529.419	51113.89
529.62	50880.42
529.822	50192.3
530.023	49801.14
530.224	49745.84
530.425	49192.89
530.626	48218.06
530.828	47898.58
531.029	48111.56
531.23	46772.19
531.431	46596.07
531.632	46407.65
531.833	46106.6
532.035	45236.22
532.236	44638.21
532.437	44664.83
532.638	43194.39
532.839	43311.13
533.04	42807.33
533.241	41715.76
533.442	42100.78
533.643	41132.09
533.844	40599.62
534.045	40038.47
534.246	39190.61
534.447	38903.9
534.648	38199.4
534.849	38256.74
535.05	37421.17
535.251	36980.85
535.451	36493.44
535.652	36067.46
535.853	35238.03
536.054	35244.18
536.255	34889.88
536.456	33935.52
536.657	34488.48
536.857	33120.43
537.058	32997.56
537.259	32766.13
537.46	32170.18
537.66	31688.9
537.861	31377.61
538.062	31090.9
538.263	30370.01
538.463	29796.58
538.664	29794.53
538.865	29274.35
539.065	28999.92
539.266	28518.65
539.466	28686.58
539.667	27717.89
539.868	27885.83
540.068	27228.43
540.269	27187.47
540.469	26743.06
540.67	26229.02
540.87	26321.18
541.071	25723.17
541.271	25774.37
541.472	25282.86
541.672	24963.37
541.873	24643.89
542.073	24279.35
542.274	24127.8
542.474	23972.16
542.675	23560.52
542.875	23478.6
543.075	23136.59
543.276	22761.81
543.476	22704.46
543.676	22231.38
543.877	22204.76
544.077	21916
544.277	21852.51
544.478	21182.82
544.678	21322.09
544.878	20912.49
545.078	20844.91
545.279	20246.9
545.479	20251
545.679	19704.19
545.879	19794.3
546.079	19560.83
546.28	19048.84
546.48	18917.77
546.68	18923.91
546.88	18801.04
547.08	18153.88
547.28	18069.91
547.48	17865.11
547.68	17815.96
547.88	17516.96
548.081	17340.83
548.281	17101.22
548.481	17007.02
548.681	16699.82
548.881	16466.35
549.081	16343.47
549.28	15837.62
549.48	15761.85
549.68	15495.61
549.88	15466.94
550.08	14950.85
550.28	15098.31
550.48	14727.63
550.68	14780.87
550.88	14277.07
551.08	14211.54
551.279	14076.37
551.479	13586.91
551.679	13625.82
551.879	13283.81
552.079	13261.28
552.278	13054.44
552.478	12773.86
552.678	12548.59
552.878	12835.3
553.077	12296.69
553.277	11878.9
553.477	12050.93
553.676	11545.08
553.876	11491.84
554.076	11393.53
554.275	11293.18
554.475	10899.97
554.674	11000.32
554.874	10639.88
555.074	10517
555.273	10402.32
555.473	10332.68
555.672	9980.43
555.872	9896.47
556.071	9505.31
556.271	9734.68
556.47	9536.03
556.67	9050.66
556.869	8944.16
557.068	8991.27
557.268	8788.52
557.467	8653.35
557.667	8639.01
557.866	8487.47
558.065	8317.48
558.265	8086.06
558.464	7936.56
558.663	7805.49
558.863	7649.85
559.062	7764.53
559.261	7330.36
559.461	7412.28
559.66	7246.4
559.859	7066.17
560.058	6904.39
560.258	6824.51
560.457	6916.67
560.656	6982.21
560.855	6423.11
561.054	6509.13
561.253	6429.26
561.453	6302.28
561.652	6144.59
561.851	6193.74
562.05	5878.35
562.249	5876.3
562.448	5935.7
562.647	5515.86
562.846	5718.61
563.045	5753.43
563.244	5503.57
563.443	5526.1
563.642	5253.72
563.841	5153.37
564.04	5196.38
564.239	5202.52
564.438	4987.49
564.637	4827.74
564.836	4835.94
565.035	4821.6
565.234	4622.95
565.432	4774.5
565.631	4618.85
565.83	4545.13
566.029	4524.65
566.228	4528.74
566.427	4461.16
566.625	4319.85
566.824	4225.64
567.023	4094.57
567.222	3908.21
567.42	4012.65
567.619	3932.78
567.818	3715.7
568.016	4008.56
568.215	3871.34
568.414	3766.9
568.612	3699.31
568.811	3695.22
569.01	3492.47
569.208	3506.81
569.407	3584.63
569.605	3361.4
569.804	3402.36
570.002	3476.09
570.201	3172.99
570.4	3271.29
570.598	3152.51
570.797	3224.19
570.995	2976.38
571.193	3134.07
571.392	3035.77
571.59	2951.81
571.789	3021.44
571.987	2923.13
572.186	2884.22
572.384	2777.73
572.582	2658.95
572.781	2869.89
572.979	2624.13
573.177	2558.6
573.376	2624.13
573.574	2581.12
573.772	2517.64
573.971	2386.57
574.169	2484.87
574.367	2325.13
574.565	2325.13
574.763	2361.99
574.962	2345.61
575.16	2136.71
575.358	2208.39
575.556	2257.54
575.754	2144.91
575.952	2095.75
576.151	2085.51
576.349	2015.88
576.547	1974.92
576.745	2052.75
576.943	1989.26
577.141	1847.95
577.339	1843.85
577.537	1878.67
577.735	1880.72
577.933	1704.59
578.131	1784.46
578.329	1804.94
578.527	1634.96
578.725	1669.78
578.923	1577.62
579.121	1688.21
579.319	1467.03
579.516	1598.1
579.714	1710.74
579.912	1594
580.11	1460.88
580.308	1530.52
580.506	1417.88
580.704	1372.82
580.901	1358.49
581.099	1483.41
581.297	1542.8
581.495	1348.25
581.692	1301.14
581.89	1438.36
582.088	1245.85
582.285	1315.48
582.483	1290.9
582.681	1233.56
582.878	1262.23
583.076	1272.47
583.274	1182.36
583.471	1159.83
583.669	1159.83
583.866	1039
584.064	1057.43
584.262	1057.43
584.459	1055.39
584.657	1059.48
584.854	1202.84
585.052	1090.2
585.249	1094.3
585.447	1018.52
585.644	875.17
585.841	979.61
586.039	1032.86
586.236	1036.95
586.434	946.84
586.631	955.04
586.828	848.54
587.026	873.12
587.223	815.77
587.42	721.57
587.618	879.26
587.815	955.04
588.012	842.4
588.21	811.68
588.407	883.36
588.604	842.4
588.801	793.25
588.999	821.92
589.196	907.93
589.393	774.81
589.59	756.38
589.787	840.35
589.984	801.44
590.182	750.24
590.379	719.52
590.576	762.53
590.773	715.42
590.97	756.38
591.167	776.86
591.364	821.92
591.561	750.24
591.758	815.77
591.955	744.1
592.152	725.66
592.349	701.09
592.546	668.32
592.743	678.56
592.94	686.75
593.137	727.71
593.334	752.29
593.531	819.87
593.727	776.86
593.924	785.05
594.121	713.38
594.318	764.57
594.515	791.2
594.712	844.45
594.908	756.38
595.105	678.56
595.302	760.48
595.499	846.49
595.696	891.55
595.892	686.75
596.089	854.69
596.286	682.66
596.482	957.08
596.679	866.97
596.876	942.75
597.072	1002.14
597.269	920.22
597.466	967.32
597.662	905.88
597.859	940.7
598.055	996
598.252	1073.82
598.448	1127.07
598.645	1176.22
598.841	1110.68
599.038	1288.85
599.234	1397.4
599.431	1292.95
599.627	1346.2
599.824	1462.93
600.02	1387.16
600.217	1456.79
600.413	1596.05
600.609	1667.73
600.806	1868.43
601.002	1718.93
601.198	1888.91
601.395	1886.86
601.591	1923.73
601.787	2091.66
601.984	2144.91
602.18	2251.4
602.376	2235.02
602.572	2275.98
602.769	2509.44
602.965	2472.58
603.161	2595.46
603.357	2720.39
603.553	2755.2
603.75	2742.91
603.946	2957.95
604.142	3072.64
604.338	3199.61
604.534	3209.85
604.73	3412.6
604.926	3461.75
605.122	3635.83
605.318	3740.27
605.514	3908.21
605.71	3900.02
605.906	4123.24
606.102	4201.07
606.298	4346.47
606.494	4448.87
606.69	4663.91
606.886	4557.41
607.082	4807.27
607.278	4950.62
607.474	5114.46
607.67	5306.97
607.866	5196.38
608.062	5571.16
608.257	5814.87
608.453	5831.25
608.649	5947.98
608.845	6013.52
609.041	6267.47
609.236	6580.81
609.432	6715.97
609.628	6818.37
609.824	6996.54
610.019	6980.16
610.215	7279.16
610.411	7723.57
610.606	7756.34
610.802	7985.71
610.998	8006.19
611.193	8378.92
611.389	8671.78
611.584	8897.06
611.78	8946.21
611.976	9320.99
612.171	9820.69
612.367	9865.75
612.562	9957.91
612.758	10222.09
612.953	10449.42
613.149	10848.77
613.344	10949.12
613.539	11520.51
613.735	11762.17
613.93	11946.48
614.126	12415.47
614.321	12653.03
614.517	12843.49
614.712	13386.21
614.907	13775.32
615.103	13957.59
615.298	14176.72
615.493	14723.53
615.688	14875.08
615.884	15600.06
616.079	15620.54
616.274	16382.38
616.47	16390.58
616.665	16906.66
616.86	17275.3
617.055	18061.72
617.25	18391.44
617.445	19108.23
617.641	19114.38
617.836	19904.89
618.031	20064.63
618.226	20918.64
618.421	21336.42
618.616	21696.86
618.811	22028.63
619.006	22651.22
619.201	22608.21
619.396	23570.75
619.591	23726.4
619.786	24674.61
619.981	24754.48
620.176	25714.98
620.371	25680.16
620.566	26603.8
620.761	27402.5
620.956	28227.84
621.151	28186.88
621.346	28655.86
621.541	29106.41
621.735	30249.18
621.93	30181.6
622.125	31135.95
622.32	30902.48
622.515	32078.02
622.709	32411.84
622.904	33374.38
623.099	33310.89
623.294	34445.47
623.488	34726.04
623.683	35360.91
623.878	35809.42
624.072	36577.4
624.267	37335.15
624.462	38008.93
624.656	38258.79
624.851	39094.36
625.046	39522.38
625.24	40042.57
625.435	40427.59
625.629	41033.78
625.824	41300.02
626.018	42285.09
626.213	41852.97
626.407	42706.97
626.602	43108.38
626.796	43606.03
626.991	44429.32
627.185	44437.51
627.38	44394.5
627.574	45066.23
627.768	44957.69
627.963	45146.11
628.157	45352.95
628.352	45780.98
628.546	45236.22
628.74	45957.1
628.935	45441.01
629.129	45860.85
629.323	45416.44
629.517	45017.08
629.712	44779.52
629.906	44711.94
630.1	43614.23
630.294	43780.11
630.489	43360.28
630.683	43345.94
630.877	41785.39
631.071	41234.49
631.265	40794.17
631.459	39946.31
631.653	38977.62
631.848	38129.76
632.042	37257.33
632.236	36888.7
632.43	35260.56
632.624	34881.69
632.818	33792.17
633.012	32592.06
633.206	31580.36
633.4	30886.1
633.594	29245.68
633.788	28635.38
633.982	27480.33
634.176	26872.08
634.369	25512.23
634.563	24967.47
634.757	23691.59
634.951	23007.56
635.145	22155.61
635.339	21162.34
635.533	20277.62
635.726	19593.6
635.92	18723.21
636.114	18039.19
636.308	17209.76
636.501	16798.12
636.695	16048.57
636.889	15360.45
637.083	14533.07
637.276	13910.49
637.47	13552.09
637.664	12943.85
637.857	12509.68
638.051	12087.79
638.244	11448.83
638.438	10883.59
638.632	10684.94
638.825	10144.27
639.019	9976.34
639.212	9554.46
639.406	9134.62
639.599	8546.86
639.793	8495.66
639.986	7952.95
640.18	7739.96
640.373	7414.33
640.567	7008.83
640.76	6826.56
640.954	6742.6
641.147	6087.25
641.34	6085.2
641.534	5814.87
641.727	5886.54
641.92	5433.94
642.114	5227.1
642.307	5122.65
642.5	4848.22
642.694	4604.52
642.887	4504.17
643.08	4401.77
643.273	4276.84
643.467	3967.6
643.66	3861.1
643.853	3752.56
644.046	3515
644.239	3347.06
644.432	3215.99
644.626	3150.46
644.819	3003
645.012	3060.35
645.205	2865.79
645.398	2759.3
645.591	2607.75
645.784	2550.4
645.977	2439.81
646.17	2468.48
646.363	2325.13
646.556	2091.66
646.749	1952.4
646.942	2157.19
647.135	1942.16
647.328	1841.81
647.521	1895.05
647.714	1600.15
647.907	1690.26
648.099	1555.09
648.292	1522.32
648.485	1479.32
648.678	1442.45
648.871	1276.57
649.064	1458.84
649.256	1268.38
649.449	1098.39
649.642	1227.42
649.835	1163.93
650.027	1088.15
650.22	1100.44
650.413	946.84
650.605	1086.11
650.798	926.36
650.991	889.5
651.183	832.16
651.376	955.04
651.568	871.07
651.761	856.73
651.954	795.29
652.146	717.47
652.339	780.96
652.531	789.15
652.724	727.71
652.916	670.37
653.109	606.88
653.301	604.83
653.494	682.66
653.686	643.74
653.879	690.85
654.071	670.37
654.263	508.58
654.456	498.34
654.648	561.83
654.84	510.63
655.033	420.52
655.225	572.07
655.417	373.41
655.61	475.81
655.802	522.91
655.994	570.02
656.186	412.32
656.379	514.72
656.571	387.75
656.763	426.66
656.955	371.36
657.148	369.32
657.34	531.11
657.532	375.46
657.724	266.92
657.916	328.36
658.108	361.13
658.3	383.65
658.492	457.38
658.684	191.14
658.876	432.8
659.068	242.34
659.26	248.49
659.452	301.73
659.644	322.21
659.836	373.41
660.028	256.68
660.22	291.49
660.412	363.17
660.604	260.77
660.796	250.53
660.988	373.41
661.18	256.68
661.372	320.17
661.563	301.73
661.755	293.54
661.947	182.95
662.139	103.08
662.331	295.59
662.522	230.06
662.714	127.66
662.906	154.28
663.097	209.58
663.289	185
663.481	135.85
663.673	277.16
663.864	215.72
664.056	219.82
664.247	88.75
664.439	254.63
664.631	154.28
664.822	238.25
665.014	260.77
665.205	84.65
665.397	129.7
665.588	217.77
665.78	185
665.971	301.73
666.163	154.28
666.354	242.34
666.546	209.58
666.737	199.34
666.929	203.43
667.12	105.13
667.311	174.76
667.503	172.71
667.694	199.34
667.885	178.86
668.077	201.38
668.268	74.41
668.459	166.57
668.651	127.66
668.842	236.2
669.033	139.94
669.224	119.46
669.416	361.13
669.607	195.24
669.798	139.94
669.989	287.4
670.18	250.53
670.371	191.14
670.563	119.46
670.754	299.69
670.945	178.86
671.136	252.58
671.327	111.27
671.518	176.81
671.709	301.73
671.9	260.77
672.091	295.59
672.282	252.58
672.473	129.7
672.664	185
672.855	195.24
673.046	176.81
673.237	295.59
673.428	201.38
673.619	305.83
673.809	203.43
674	277.16
674.191	203.43
674.382	141.99
674.573	324.26
674.764	199.34
674.954	258.73
675.145	158.38
675.336	141.99
675.527	187.05
675.717	232.1
675.908	242.34
676.099	219.82
676.289	211.62
676.48	238.25
676.671	275.11
676.861	180.9
677.052	281.25
677.243	246.44
677.433	154.28
677.624	230.06
677.814	277.16
678.005	244.39
678.195	279.21
678.386	238.25
678.576	252.58
678.767	219.82
678.957	252.58
679.148	297.64
679.338	334.5
679.529	297.64
679.719	244.39
679.909	318.12
680.1	428.71
680.29	314.02
680.481	162.47
680.671	318.12
680.861	287.4
681.052	262.82
681.242	246.44
681.432	383.65
681.622	318.12
681.813	238.25
682.003	301.73
682.193	309.93
682.383	301.73
682.573	225.96
682.764	207.53
682.954	301.73
683.144	397.99
683.334	232.1
683.524	330.41
683.714	402.08
683.904	334.5
684.094	336.55
684.284	330.41
684.474	447.14
684.664	367.27
684.854	322.21
685.044	387.75
685.234	359.08
685.424	316.07
685.614	311.97
685.804	490.15
685.994	359.08
686.184	336.55
686.374	330.41
686.564	324.26
686.753	354.98
686.943	332.45
687.133	342.69
687.323	309.93
687.513	397.99
687.702	338.6
687.892	291.49
688.082	404.13
688.272	438.95
688.461	375.46
688.651	457.38
688.841	385.7
689.03	350.89
689.22	383.65
689.41	400.04
689.599	359.08
689.789	295.59
689.979	408.23
690.168	332.45
690.358	373.41
690.547	348.84
690.737	365.22
690.926	252.58
691.116	340.65
691.305	385.7
691.495	277.16
691.684	309.93
691.874	344.74
692.063	365.22
692.252	383.65
692.442	379.56
692.631	297.64
692.82	346.79
693.01	307.88
693.199	311.97
693.388	338.6
693.578	252.58
693.767	359.08
693.956	436.9
694.146	268.97
694.335	404.13
694.524	328.36
694.713	395.94
694.902	273.06
695.092	273.06
695.281	385.7
695.47	350.89
695.659	375.46
695.848	344.74
696.037	240.29
696.226	352.93
696.415	301.73
696.604	311.97
696.793	391.84
696.982	264.87
697.171	389.8
697.36	262.82
697.549	279.21
697.738	127.66
697.927	359.08
698.116	242.34
698.305	340.65
698.494	375.46
698.683	359.08
698.872	395.94
699.061	307.88
699.25	395.94
699.438	295.59
699.627	283.3
699.816	453.28
700.005	348.84
700.193	281.25
700.382	293.54
700.571	279.21
700.76	344.74
700.948	334.5
701.137	381.6
701.326	391.84
701.514	307.88
701.703	326.31
701.892	268.97
702.08	463.52
702.269	275.11
702.457	262.82
702.646	363.17
702.834	318.12
703.023	385.7
703.212	309.93
703.4	432.8
703.589	279.21
703.777	301.73
703.965	291.49
704.154	326.31
704.342	271.01
704.531	228.01
704.719	344.74
704.907	422.56
705.096	238.25
705.284	211.62
705.472	334.5
705.661	264.87
705.849	359.08
706.037	424.61
706.226	314.02
706.414	363.17
706.602	285.35
706.79	359.08
706.979	297.64
707.167	375.46
707.355	248.49
707.543	322.21
707.731	395.94
707.919	338.6
708.107	301.73
708.296	176.81
708.484	168.62
708.672	381.6
708.86	383.65
709.048	383.65
709.236	215.72
709.424	332.45
709.612	383.65
709.8	211.62
709.988	297.64
710.176	389.8
710.364	350.89
710.551	318.12
710.739	326.31
710.927	236.2
711.115	338.6
711.303	375.46
711.491	363.17
711.679	316.07
711.866	393.89
712.054	309.93
712.242	342.69
712.43	381.6
712.617	225.96
712.805	377.51
712.993	217.77
713.181	217.77
713.368	400.04
713.556	297.64
713.744	324.26
713.931	527.01
714.119	293.54
714.306	264.87
714.494	271.01
714.682	434.85
714.869	314.02
715.057	363.17
715.244	256.68
715.432	354.98
715.619	391.84
715.807	322.21
715.994	318.12
716.182	371.36
716.369	354.98
716.556	406.18
716.744	258.73
716.931	334.5
717.119	410.28
717.306	334.5
717.493	389.8
717.681	344.74
717.868	326.31
718.055	371.36
718.242	375.46
718.43	404.13
718.617	441
718.804	342.69
718.991	387.75
719.179	332.45
719.366	377.51
719.553	336.55
719.74	400.04
719.927	342.69
720.114	350.89
720.301	322.21
720.488	363.17
720.676	363.17
720.863	477.86
721.05	461.48
721.237	479.91
721.424	350.89
721.611	430.76
721.798	303.78
721.985	354.98
722.172	330.41
722.358	395.94
722.545	412.32
722.732	473.76
722.919	400.04
723.106	389.8
723.293	422.56
723.48	438.95
723.667	301.73
723.853	465.57
724.04	463.52
724.227	383.65
724.414	381.6
724.6	443.04
724.787	502.43
724.974	477.86
725.161	389.8
725.347	373.41
725.534	408.23
725.72	494.24
725.907	502.43
726.094	520.87
726.28	365.22
726.467	375.46
726.653	420.52
726.84	529.06
727.027	512.67
727.213	400.04
727.4	473.76
727.586	441
727.773	410.28
727.959	389.8
728.145	393.89
728.332	307.88
728.518	291.49
728.705	400.04
728.891	426.66
729.077	529.06
729.264	342.69
729.45	496.29
729.636	522.91
729.823	404.13
730.009	510.63
730.195	432.8
730.382	453.28
730.568	453.28
730.754	402.08
730.94	461.48
731.126	432.8
731.313	529.06
731.499	432.8
731.685	432.8
731.871	432.8
732.057	459.43
732.243	563.87
732.429	436.9
732.615	477.86
732.801	434.85
732.987	455.33
733.173	338.6
733.359	418.47
733.545	553.63
733.731	416.42
733.917	529.06
734.103	492.2
734.289	580.26
734.475	361.13
734.661	549.54
734.847	469.67
735.033	449.19
735.219	510.63
735.404	395.94
735.59	387.75
735.776	438.95
735.962	529.06
736.148	547.49
736.333	561.83
736.519	408.23
736.705	506.53
736.89	463.52
737.076	453.28
737.262	420.52
737.447	422.56
737.633	443.04
737.819	522.91
738.004	367.27
738.19	453.28
738.375	570.02
738.561	465.57
738.747	436.9
738.932	453.28
739.118	639.65
739.303	469.67
739.489	486.05
739.674	408.23
739.859	408.23
740.045	608.93
740.23	492.2
740.416	350.89
740.601	498.34
740.786	404.13
740.972	414.37
741.157	486.05
741.342	447.14
741.528	426.66
741.713	574.11
741.898	449.19
742.084	383.65
742.269	522.91
742.454	457.38
742.639	545.44
742.824	469.67
743.01	565.92
743.195	510.63
743.38	381.6
743.565	455.33
743.75	498.34
743.935	441
744.12	565.92
744.305	354.98
744.49	420.52
744.675	449.19
744.86	430.76
745.045	449.19
745.23	463.52
745.415	465.57
745.6	522.91
745.785	400.04
745.97	436.9
746.155	447.14
746.34	484
746.525	508.58
746.71	592.55
746.895	416.42
747.079	307.88
747.264	449.19
747.449	496.29
747.634	434.85
747.819	395.94
748.003	307.88
748.188	336.55
748.373	445.09
748.557	490.15
748.742	359.08
748.927	342.69
749.111	340.65
749.296	326.31
749.481	502.43
749.665	400.04
749.85	377.51
750.034	412.32
750.219	416.42
750.404	461.48
750.588	408.23
750.773	295.59
750.957	406.18
751.141	430.76
751.326	441
751.51	256.68
751.695	375.46
751.879	250.53
752.064	469.67
752.248	377.51
752.432	445.09
752.617	408.23
752.801	418.47
752.985	420.52
753.17	514.72
753.354	334.5
753.538	354.98
753.722	338.6
753.907	262.82
754.091	174.76
754.275	400.04
754.459	268.97
754.643	178.86
754.828	346.79
755.012	334.5
755.196	236.2
755.38	373.41
755.564	256.68
755.748	340.65
755.932	375.46
756.116	242.34
756.3	367.27
756.484	324.26
756.668	307.88
756.852	225.96
757.036	318.12
757.22	258.73
757.404	172.71
757.588	211.62
757.772	228.01
757.956	246.44
758.14	420.52
758.323	271.01
758.507	264.87
758.691	228.01
758.875	359.08
759.059	342.69
759.242	246.44
759.426	330.41
759.61	215.72
759.794	248.49
759.977	367.27
760.161	449.19
760.345	352.93
760.528	305.83
760.712	154.28
760.895	314.02
761.079	266.92
761.263	146.09
761.446	244.39
761.63	293.54
761.813	297.64
761.997	201.38
762.18	215.72
762.364	318.12
762.547	189.1
762.731	219.82
762.914	293.54
763.098	154.28
763.281	117.42
763.464	156.33
763.648	236.2
763.831	215.72
764.015	148.14
764.198	309.93
764.381	228.01
764.564	195.24
764.748	244.39
764.931	232.1
765.114	195.24
765.297	262.82
765.481	127.66
765.664	168.62
765.847	170.66
766.03	244.39
766.213	176.81
766.397	119.46
766.58	152.23
766.763	244.39
766.946	178.86
767.129	205.48
767.312	137.9
767.495	189.1
767.678	154.28
767.861	154.28
768.044	178.86
768.227	144.04
768.41	230.06
768.593	172.71
768.776	258.73
768.959	174.76
769.142	264.87
769.324	178.86
769.507	121.51
769.69	127.66
769.873	166.57
770.056	314.02
770.239	182.95
770.421	191.14
770.604	187.05
770.787	150.18
770.97	164.52
771.152	74.41
771.335	234.15
771.518	191.14
771.7	203.43
771.883	266.92
772.066	80.55
772.248	185
772.431	244.39
772.613	164.52
772.796	137.9
772.978	225.96
773.161	193.19
773.343	119.46
773.526	115.37
773.708	37.55
773.891	35.5
774.073	160.42
774.256	109.22
774.438	311.97
774.621	135.85
774.803	191.14
774.985	123.56
775.168	209.58
775.35	144.04
775.532	201.38
775.715	51.88
775.897	137.9
776.079	119.46
776.261	125.61
776.444	277.16
776.626	109.22
776.808	78.51
776.99	72.36
777.173	70.31
777.355	92.84
777.537	185
777.719	146.09
777.901	53.93
778.083	6.83
778.265	4.78
778.447	152.23
778.629	72.36
778.811	96.94
778.993	162.47
779.175	187.05
779.357	144.04
779.539	27.31
779.721	187.05
779.903	129.7
780.085	105.13
780.267	185
780.449	137.9
780.631	127.66
780.812	178.86
780.994	70.31
781.176	90.79
781.358	164.52
781.54	154.28
781.721	144.04
781.903	211.62
782.085	121.51
782.267	150.18
782.448	4.78
782.63	92.84
782.812	182.95
782.993	101.03
783.175	109.22
783.357	90.79
783.538	154.28
783.72	37.55
783.901	109.22
784.083	170.66
784.264	123.56
784.446	21.16
784.627	-25.94
784.809	182.95
784.99	68.27
785.172	152.23
785.353	64.17
785.535	105.13
785.716	60.07
785.897	80.55
786.079	162.47
786.26	96.94
786.441	98.99
786.623	-3.41
786.804	43.69
786.985	62.12
787.167	170.66
787.348	47.79
787.529	17.07
787.71	195.24
787.891	101.03
788.073	82.6
788.254	17.07
788.435	121.51
788.616	141.99
788.797	-7.51
788.978	113.32
789.159	-1.37
789.34	96.94
789.522	123.56
789.703	19.11
789.884	72.36
790.065	-1.37
790.246	168.62
790.427	27.31
790.607	150.18
790.788	135.85
790.969	109.22
791.15	103.08
791.331	35.5
791.512	64.17
791.693	-9.56
791.874	33.45
792.054	185
792.235	105.13
792.416	76.46
792.597	-13.65
792.778	92.84
792.958	109.22
793.139	6.83
793.32	43.69
793.5	-66.9
793.681	139.94
793.862	109.22
794.042	88.75
794.223	55.98
794.404	41.64
794.584	-3.41
794.765	15.02
794.945	55.98
795.126	135.85
795.306	109.22
795.487	51.88
795.667	4.78
795.848	70.31
796.028	47.79
796.209	41.64
796.389	127.66
796.57	41.64
796.75	-52.56
796.93	51.88
797.111	-9.56
797.291	-11.61
797.471	51.88
797.652	35.5
797.832	-48.47
798.012	92.84
798.192	-44.37
798.373	-34.13
798.553	2.73
798.733	111.27
798.913	17.07
799.093	-19.8
799.274	15.02
799.454	47.79
799.634	105.13
799.814	162.47
799.994	129.7
800.174	72.36
800.354	80.55
800.534	-48.47
800.714	125.61
800.894	-3.41
801.074	-34.13
801.254	15.02
801.434	125.61
801.614	12.97
801.794	-5.46
801.974	1632.91
802.154	-19.8
802.334	176.81
802.514	-44.37
802.693	23.21
802.873	78.51
803.053	121.51
803.233	4.78
803.413	4.78
803.592	-13.65
803.772	-15.7
803.952	80.55
804.131	12.97
804.311	23.21
804.491	146.09
804.67	-36.18
804.85	23.21
805.03	105.13
805.209	146.09
805.389	21.16
805.568	60.07
805.748	92.84
805.928	-34.13
806.107	33.45
806.287	21.16
806.466	82.6
806.646	68.27
806.825	-7.51
807.004	35.5
807.184	45.74
807.363	35.5
807.543	70.31
807.722	-7.51
807.901	37.55
808.081	101.03
808.26	-142.68
808.439	10.92
808.619	-15.7
808.798	64.17
808.977	-1.37
809.156	150.18
809.336	35.5
809.515	101.03
809.694	-42.32
809.873	-9.56
810.052	29.35
810.231	117.42
810.411	-21.85
810.59	35.5
810.769	23.21
810.948	113.32
811.127	-60.76
811.306	23.21
811.485	37.55
811.664	92.84
811.843	-1.37
812.022	-21.85
812.201	35.5
812.38	-15.7
812.559	21.16
812.737	6.83
812.916	2.73
813.095	-11.61
813.274	43.69
813.453	53.93
813.632	43.69
813.811	47.79
813.989	-9.56
814.168	2.73
814.347	-17.75
814.526	-19.8
814.704	135.85
814.883	148.14
815.062	-83.28
815.24	-25.94
815.419	-9.56
815.598	113.32
815.776	-85.33
815.955	-48.47
816.133	-87.38
816.312	23.21
816.49	-36.18
816.669	39.59
816.847	58.03
817.026	84.65
817.204	-75.09
817.383	4.78
817.561	-54.61
817.74	-40.28
817.918	6.83
818.097	31.4
818.275	15.02
818.453	2.73
818.632	129.7
818.81	-42.32
818.988	-19.8
819.167	2.73
819.345	23.21
819.523	53.93
819.701	21.16
819.879	6.83
820.058	53.93
820.236	10.92
820.414	-52.56
820.592	-30.04
820.77	49.83
820.948	-15.7
821.127	6.83
821.305	19.11
821.483	6.83
821.661	37.55
821.839	92.84
822.017	-58.71
822.195	-44.37
822.373	51.88
822.551	29.35
822.729	88.75
822.907	19.11
823.085	92.84
823.262	53.93
823.44	-21.85
823.618	39.59
823.796	76.46
823.974	-17.75
824.152	8.87
824.329	-17.75
824.507	33.45
824.685	139.94
824.863	-7.51
825.04	23.21
825.218	-30.04
825.396	55.98
825.574	39.59
825.751	35.5
825.929	45.74
826.107	-5.46
826.284	10.92
826.462	51.88
826.639	64.17
826.817	-116.05
826.994	-91.48
827.172	-97.62
827.349	176.81
827.527	66.22
827.704	10.92
827.882	27.31
828.059	-30.04
828.237	-1.37
828.414	39.59
828.591	-71
828.769	29.35
828.946	15.02
829.124	121.51
829.301	41.64
829.478	-46.42
829.655	80.55
829.833	-13.65
830.01	-13.65
830.187	76.46
830.364	55.98
830.542	-46.42
830.719	109.22
830.896	96.94
831.073	60.07
831.25	-1.37
831.427	68.27
831.604	29.35
831.782	29.35
831.959	-1.37
832.136	-36.18
832.313	70.31
832.49	-60.76
832.667	47.79
832.844	-58.71
833.021	92.84
833.198	25.26
833.374	31.4
833.551	103.08
833.728	49.83
833.905	-1.37
834.082	-99.67
834.259	27.31
834.436	66.22
834.612	-58.71
834.789	135.85
834.966	15.02
835.143	-15.7
835.319	-21.85
835.496	41.64
835.673	6.83
835.85	12.97
836.026	70.31
836.203	62.12
836.38	-19.8
836.556	17.07
836.733	-46.42
836.909	113.32
837.086	12.97
837.262	-124.24
837.439	64.17
837.616	-46.42
837.792	-7.51
837.968	-1.37
838.145	-148.82
838.321	33.45
838.498	94.89
838.674	98.99
838.851	-3.41
839.027	-1.37
839.203	37.55
839.38	29.35
839.556	-85.33
839.732	105.13
839.909	29.35
840.085	51.88
840.261	-25.94
840.437	-13.65
840.614	-36.18
840.79	111.27
840.966	55.98
841.142	-1.37
841.318	-1.37
841.494	31.4
841.671	29.35
841.847	31.4
842.023	-68.95
842.199	62.12
842.375	117.42
842.551	-126.29
842.727	-83.28
842.903	90.79
843.079	-75.09
843.255	88.75
843.431	-71
843.607	45.74
843.783	-103.76
843.959	-3.41
844.134	-3.41
844.31	51.88
844.486	19.11
844.662	2.73
844.838	-38.23
845.013	-36.18
845.189	37.55
845.365	31.4
845.541	-7.51
845.716	-50.52
845.892	150.18
846.068	-17.75
846.244	-19.8
846.419	19.11
846.595	-17.75
846.77	-21.85
846.946	64.17
847.122	-11.61
847.297	-60.76
847.473	111.27
847.648	-38.23
847.824	39.59
847.999	-116.05
848.175	31.4
848.35	6.83
848.526	37.55
848.701	2.73
848.876	121.51
849.052	98.99
849.227	-40.28
849.403	35.5
849.578	-1.37
849.753	43.69
849.929	27.31
850.104	-165.2
850.279	-54.61
850.454	39.59
850.63	17.07
850.805	58.03
850.98	25.26
851.155	-95.57
851.33	-5.46
851.505	-58.71
851.681	115.37
851.856	-25.94
852.031	31.4
852.206	31.4
852.381	-40.28
852.556	-52.56
852.731	19.11
852.906	66.22
853.081	15.02
853.256	109.22
853.431	-25.94
853.606	-38.23
853.781	-105.81
853.956	-136.53
854.131	-7.51
854.305	-52.56
854.48	35.5
854.655	-5.46
854.83	35.5
855.005	8.87
855.18	-5.46
855.354	-19.8
855.529	49.83
855.704	-21.85
855.879	23.21
856.053	-58.71
856.228	4.78
856.403	31.4
856.577	66.22
856.752	-60.76
856.926	-7.51
857.101	-91.48
857.276	-11.61
857.45	15.02
857.625	29.35
857.799	47.79
857.974	-15.7
858.148	-73.04
858.323	-64.85
858.497	-1.37
858.672	-50.52
858.846	-66.9
859.02	60.07
859.195	43.69
859.369	-17.75
859.543	-36.18
859.718	-56.66
859.892	47.79
860.066	39.59
860.241	-9.56
860.415	12.97
860.589	10.92
860.763	-60.76
860.938	29.35
861.112	53.93
861.286	-7.51
861.46	-50.52
861.634	-13.65
861.808	47.79
861.982	4.78
862.157	-107.86
862.331	-101.72
862.505	-9.56
862.679	-34.13
862.853	-68.95
863.027	-30.04
863.201	58.03
863.375	-64.85
863.549	-11.61
863.722	31.4
863.896	80.55
864.07	-44.37
864.244	43.69
864.418	6.83
864.592	29.35
864.766	58.03
864.939	-3.41
865.113	-52.56
865.287	135.85
865.461	-32.08
865.634	-1.37
865.808	6.83
865.982	-75.09
866.156	-25.94
866.329	-60.76
866.503	43.69
866.676	78.51
866.85	23.21
867.024	-38.23
867.197	70.31
867.371	39.59
867.544	98.99
867.718	-46.42
867.891	29.35
868.065	-97.62
868.238	2.73
868.412	60.07
868.585	-11.61
868.759	-60.76
868.932	-1.37
869.105	-79.19
869.279	6.83
869.452	-99.67
869.625	76.46
869.799	-34.13
869.972	-32.08
870.145	-25.94
870.319	29.35
870.492	-66.9
870.665	-40.28
870.838	-34.13
871.011	-103.76
871.185	-58.71
871.358	-62.8
871.531	53.93
871.704	-3.41
871.877	-1.37
872.05	-56.66
872.223	-58.71
872.396	4.78
872.569	64.17
872.742	-54.61
872.915	74.41
873.088	-21.85
873.261	-9.56
873.434	113.32
873.607	23.21
873.78	103.08
873.953	-42.32
874.126	12.97
874.299	107.18
874.471	-99.67
874.644	-25.94
874.817	109.22
874.99	86.7
875.163	-17.75
875.335	55.98
875.508	-3.41
875.681	64.17
875.853	15.02
876.026	29.35
876.199	-21.85
876.371	10.92
876.544	15.02
876.717	37.55
876.889	-5.46
877.062	-44.37
877.234	-109.91
877.407	-11.61
877.579	4.78
877.752	51.88
877.924	88.75
878.097	45.74
878.269	-30.04
878.442	98.99
878.614	27.31
878.786	47.79
878.959	-68.95
879.131	-25.94
879.303	-79.19
879.476	25.26
879.648	43.69
879.82	-11.61
879.993	-34.13
880.165	-17.75
880.337	-66.9
880.509	8.87
880.681	-85.33
880.854	-68.95
881.026	19.11
881.198	154.28
881.37	12.97
881.542	-25.94
881.714	19.11
881.886	-17.75
882.058	37.55
882.23	-34.13
882.402	29.35
882.574	60.07
882.746	-17.75
882.918	47.79
883.09	23.21
883.262	-89.43
883.434	10.92
883.606	-56.66
883.778	-32.08
883.95	60.07
884.122	10.92
884.293	94.89
884.465	8.87
884.637	121.51
884.809	-38.23
884.98	-17.75
885.152	12.97
885.324	60.07
885.496	-66.9
885.667	-38.23
885.839	-42.32
886.011	82.6
886.182	15.02
886.354	101.03
886.525	90.79
886.697	-19.8
886.869	-36.18
887.04	-75.09
887.212	92.84
887.383	225.96
887.555	-13.65
887.726	-17.75
887.897	-50.52
888.069	31.4
888.24	2.73
888.412	51.88
888.583	-77.14
888.754	4.78
888.926	-152.92
889.097	-42.32
889.268	-73.04
889.44	-38.23
889.611	-77.14
889.782	-97.62
889.953	-3.41
890.125	94.89
890.296	-44.37
890.467	-48.47
890.638	-68.95
890.809	-13.65
890.98	-32.08
891.151	10.92
891.323	51.88
891.494	23.21
891.665	21.16
891.836	-79.19
892.007	-5.46
892.178	27.31
892.349	-13.65
892.52	-19.8
892.691	19.11
892.862	-34.13
893.032	-107.86
893.203	-46.42
893.374	19.11
893.545	58.03
893.716	-83.28
893.887	31.4
894.057	27.31
894.228	62.12
894.399	-60.76
894.57	15.02
894.74	-42.32
894.911	74.41
895.082	-62.8
895.253	-54.61
895.423	23.21
895.594	96.94
895.764	35.5
895.935	-64.85
896.106	115.37
896.276	-99.67
896.447	-11.61
896.617	-46.42
896.788	-5.46
896.958	29.35
897.129	-5.46
897.299	-79.19
897.47	111.27
897.64	60.07
897.81	21.16
897.981	-25.94
898.151	4.78
898.322	-9.56
898.492	31.4
898.662	-105.81
898.832	-34.13
899.003	-7.51
899.173	80.55
899.343	-36.18
899.513	-68.95
