Data from USB4F104151__45__10-25-13-535.txt Node

Date: Wed Feb 26 10:25:13 EST 2025
User: louis
Spectrometer: USB4F10415
Trigger mode: 4
Integration Time (sec): 1.000000E-1
Scans to average: 1
Electric dark correction enabled: true
Nonlinearity correction enabled: false
Boxcar width: 0
XAxis mode: Wavelengths
Number of Pixels in Spectrum: 3648
>>>>>Begin Spectral Data<<<<<
178.204	-419.49
178.424	-419.49
178.644	-419.49
178.864	-401.06
179.084	-427.68
179.304	-44.71
179.524	33.11
179.744	39.25
179.964	69.97
180.184	-30.38
180.404	-7.85
180.624	20.82
180.844	-83.63
181.064	-32.43
181.283	41.3
181.503	-46.76
181.723	41.3
181.943	-36.52
182.163	98.64
182.383	55.64
182.602	74.07
182.822	172.37
183.042	69.97
183.262	-52.91
183.482	16.73
183.701	8.53
183.921	96.6
184.141	4.44
184.361	98.64
184.58	92.5
184.8	123.22
185.02	-1.71
185.239	131.41
185.459	123.22
185.679	162.13
185.898	-151.21
186.118	94.55
186.338	69.97
186.557	104.79
186.777	26.96
186.997	16.73
187.216	55.64
187.436	176.47
187.655	53.59
187.875	74.07
188.095	29.01
188.314	121.17
188.534	108.88
188.753	-16.04
188.973	162.13
189.192	129.36
189.412	59.73
189.631	51.54
189.851	43.35
190.07	227.67
190.29	-36.52
190.509	-5.8
190.729	10.58
190.948	108.88
191.168	176.47
191.387	78.16
191.607	2.39
191.826	55.64
192.045	59.73
192.265	0.34
192.484	135.51
192.704	69.97
192.923	-36.52
193.142	194.9
193.362	160.08
193.581	137.56
193.8	72.02
194.02	102.74
194.239	43.35
194.458	98.64
194.678	104.79
194.897	59.73
195.116	86.36
195.335	94.55
195.555	51.54
195.774	20.82
195.993	125.27
196.212	53.59
196.432	-44.71
196.651	-11.95
196.87	24.92
197.089	178.51
197.308	90.45
197.528	102.74
197.747	20.82
197.966	96.6
198.185	123.22
198.404	20.82
198.623	74.07
198.842	108.88
199.062	84.31
199.281	110.93
199.5	94.55
199.719	49.49
199.938	53.59
200.157	112.98
200.376	8.53
200.595	102.74
200.814	0.34
201.033	-34.47
201.252	184.66
201.471	69.97
201.69	115.03
201.909	41.3
202.128	104.79
202.347	127.32
202.566	82.26
202.785	-52.91
203.004	49.49
203.223	239.95
203.442	22.87
203.661	-30.38
203.879	137.56
204.098	141.65
204.317	-3.75
204.536	96.6
204.755	57.68
204.974	96.6
205.193	22.87
205.411	188.75
205.63	106.84
205.849	29.01
206.068	72.02
206.287	31.06
206.505	160.08
206.724	133.46
206.943	49.49
207.162	4.44
207.381	63.83
207.599	12.63
207.818	18.77
208.037	47.44
208.255	88.4
208.474	72.02
208.693	63.83
208.911	41.3
209.13	49.49
209.349	86.36
209.567	57.68
209.786	78.16
210.005	72.02
210.223	72.02
210.442	-77.48
210.661	-30.38
210.879	88.4
211.098	45.4
211.316	41.3
211.535	104.79
211.753	94.55
211.972	39.25
212.191	-1.71
212.409	41.3
212.628	127.32
212.846	-48.81
213.065	61.78
213.283	123.22
213.502	108.88
213.72	98.64
213.938	0.34
214.157	20.82
214.375	141.65
214.594	117.08
214.812	4.44
215.031	-5.8
215.249	61.78
215.467	133.46
215.686	29.01
215.904	129.36
216.122	80.21
216.341	139.6
216.559	67.92
216.778	182.61
216.996	139.6
217.214	0.34
217.432	-38.57
217.651	29.01
217.869	98.64
218.087	-9.9
218.306	35.16
218.524	123.22
218.742	106.84
218.96	80.21
219.179	-32.43
219.397	-5.8
219.615	252.24
219.833	162.13
220.051	20.82
220.27	100.69
220.488	-7.85
220.706	14.68
220.924	24.92
221.142	29.01
221.36	57.68
221.578	158.03
221.796	22.87
222.015	65.88
222.233	29.01
222.451	121.17
222.669	-46.76
222.887	86.36
223.105	-1.71
223.323	37.2
223.541	-95.91
223.759	106.84
223.977	33.11
224.195	145.75
224.413	20.82
224.631	33.11
224.849	110.93
225.067	205.14
225.285	90.45
225.503	-50.86
225.721	-149.16
225.939	29.01
226.157	82.26
226.375	250.19
226.592	45.4
226.81	-5.8
227.028	76.12
227.246	82.26
227.464	-40.62
227.682	47.44
227.9	108.88
228.117	-22.19
228.335	155.99
228.553	96.6
228.771	61.78
228.989	78.16
229.206	115.03
229.424	-18.09
229.642	47.44
229.86	-7.85
230.077	186.71
230.295	131.41
230.513	115.03
230.731	143.7
230.948	190.8
231.166	115.03
231.384	4.44
231.601	-1.71
231.819	102.74
232.037	-9.9
232.254	-32.43
232.472	94.55
232.689	10.58
232.907	90.45
233.125	-9.9
233.342	8.53
233.56	16.73
233.777	0.34
233.995	-48.81
234.213	78.16
234.43	94.55
234.648	-26.28
234.865	8.53
235.083	72.02
235.3	55.64
235.518	63.83
235.735	201.04
235.953	59.73
236.17	31.06
236.388	65.88
236.605	78.16
236.822	155.99
237.04	170.32
237.257	49.49
237.475	6.49
237.692	-9.9
237.909	45.4
238.127	24.92
238.344	117.08
238.562	14.68
238.779	-46.76
238.996	-36.52
239.214	16.73
239.431	108.88
239.648	39.25
239.865	65.88
240.083	65.88
240.3	6.49
240.517	-42.67
240.735	100.69
240.952	100.69
241.169	86.36
241.386	59.73
241.603	26.96
241.821	-69.29
242.038	106.84
242.255	67.92
242.472	-87.72
242.689	117.08
242.907	63.83
243.124	49.49
243.341	72.02
243.558	16.73
243.775	-24.23
243.992	-16.04
244.209	69.97
244.426	168.27
244.643	125.27
244.86	45.4
245.078	143.7
245.295	127.32
245.512	133.46
245.729	8.53
245.946	112.98
246.163	106.84
246.38	35.16
246.597	108.88
246.814	-50.86
247.031	-32.43
247.248	-24.23
247.464	33.11
247.681	45.4
247.898	162.13
248.115	90.45
248.332	14.68
248.549	153.94
248.766	123.22
248.983	47.44
249.2	31.06
249.417	39.25
249.633	-36.52
249.85	51.54
250.067	37.2
250.284	47.44
250.501	67.92
250.717	51.54
250.934	20.82
251.151	24.92
251.368	-34.47
251.585	69.97
251.801	69.97
252.018	65.88
252.235	117.08
252.451	14.68
252.668	-63.15
252.885	76.12
253.102	55.64
253.318	-50.86
253.535	-11.95
253.752	29.01
253.968	90.45
254.185	-34.47
254.401	12.63
254.618	61.78
254.835	-1.71
255.051	127.32
255.268	102.74
255.484	10.58
255.701	41.3
255.917	47.44
256.134	22.87
256.351	31.06
256.567	-9.9
256.784	55.64
257	-11.95
257.217	117.08
257.433	59.73
257.65	35.16
257.866	35.16
258.082	-1.71
258.299	-18.09
258.515	6.49
258.732	-22.19
258.948	-7.85
259.165	63.83
259.381	-1.71
259.597	80.21
259.814	6.49
260.03	35.16
260.246	2.39
260.463	119.12
260.679	178.51
260.895	100.69
261.112	37.2
261.328	-3.75
261.544	-91.82
261.761	176.47
261.977	29.01
262.193	-69.29
262.409	61.78
262.626	47.44
262.842	8.53
263.058	-104.11
263.274	96.6
263.49	90.45
263.707	86.36
263.923	123.22
264.139	-97.96
264.355	-11.95
264.571	112.98
264.787	74.07
265.004	192.85
265.22	49.49
265.436	74.07
265.652	-1.71
265.868	76.12
266.084	-11.95
266.3	4.44
266.516	-11.95
266.732	106.84
266.948	82.26
267.164	-24.23
267.38	61.78
267.596	86.36
267.812	164.18
268.028	41.3
268.244	-13.99
268.46	82.26
268.676	-46.76
268.892	80.21
269.108	-22.19
269.324	-1.71
269.54	-59.05
269.756	61.78
269.972	-67.24
270.188	37.2
270.403	-63.15
270.619	8.53
270.835	12.63
271.051	10.58
271.267	-5.8
271.483	-24.23
271.698	108.88
271.914	94.55
272.13	-16.04
272.346	18.77
272.562	92.5
272.777	125.27
272.993	45.4
273.209	-13.99
273.425	104.79
273.64	-67.24
273.856	72.02
274.072	39.25
274.287	-42.67
274.503	51.54
274.719	22.87
274.934	-20.14
275.15	-30.38
275.366	94.55
275.581	37.2
275.797	45.4
276.012	67.92
276.228	-65.19
276.444	0.34
276.659	100.69
276.875	-1.71
277.09	41.3
277.306	-13.99
277.521	31.06
277.737	69.97
277.952	147.8
278.168	18.77
278.383	29.01
278.599	2.39
278.814	86.36
279.03	-16.04
279.245	137.56
279.461	10.58
279.676	76.12
279.892	-61.1
280.107	0.34
280.322	37.2
280.538	65.88
280.753	115.03
280.969	-3.75
281.184	-7.85
281.399	192.85
281.615	16.73
281.83	59.73
282.045	-71.34
282.26	31.06
282.476	39.25
282.691	141.65
282.906	-18.09
283.122	22.87
283.337	35.16
283.552	86.36
283.767	6.49
283.983	80.21
284.198	49.49
284.413	106.84
284.628	24.92
284.843	63.83
285.058	90.45
285.274	0.34
285.489	-9.9
285.704	57.68
285.919	67.92
286.134	-1.71
286.349	100.69
286.564	65.88
286.779	137.56
286.995	45.4
287.21	-75.43
287.425	61.78
287.64	4.44
287.855	82.26
288.07	-32.43
288.285	102.74
288.5	127.32
288.715	180.56
288.93	22.87
289.145	14.68
289.36	39.25
289.575	2.39
289.79	123.22
290.004	-1.71
290.219	74.07
290.434	-26.28
290.649	-1.71
290.864	-7.85
291.079	53.59
291.294	67.92
291.509	53.59
291.724	88.4
291.938	-75.43
292.153	67.92
292.368	-11.95
292.583	82.26
292.798	74.07
293.012	110.93
293.227	123.22
293.442	-54.95
293.657	59.73
293.871	133.46
294.086	-18.09
294.301	147.8
294.516	155.99
294.73	96.6
294.945	43.35
295.16	0.34
295.374	86.36
295.589	186.71
295.804	12.63
296.018	92.5
296.233	168.27
296.447	47.44
296.662	-16.04
296.877	55.64
297.091	112.98
297.306	-48.81
297.52	22.87
297.735	63.83
297.949	37.2
298.164	41.3
298.378	55.64
298.593	-169.64
298.807	-91.82
299.022	24.92
299.236	86.36
299.451	86.36
299.665	-11.95
299.88	65.88
300.094	121.17
300.309	22.87
300.523	53.59
300.737	57.68
300.952	121.17
301.166	0.34
301.381	8.53
301.595	69.97
301.809	88.4
302.024	49.49
302.238	47.44
302.452	205.14
302.667	-13.99
302.881	162.13
303.095	104.79
303.309	33.11
303.524	20.82
303.738	61.78
303.952	-11.95
304.166	78.16
304.381	-91.82
304.595	92.5
304.809	8.53
305.023	10.58
305.237	67.92
305.452	33.11
305.666	63.83
305.88	59.73
306.094	76.12
306.308	43.35
306.522	84.31
306.736	-30.38
306.95	24.92
307.164	4.44
307.379	29.01
307.593	143.7
307.807	153.94
308.021	84.31
308.235	125.27
308.449	-61.1
308.663	37.2
308.877	205.14
309.091	55.64
309.305	125.27
309.519	-44.71
309.733	137.56
309.947	-54.95
310.161	92.5
310.374	123.22
310.588	86.36
310.802	-46.76
311.016	-20.14
311.23	80.21
311.444	-52.91
311.658	-7.85
311.872	153.94
312.085	84.31
312.299	76.12
312.513	88.4
312.727	47.44
312.941	-61.1
313.154	94.55
313.368	135.51
313.582	53.59
313.796	80.21
314.009	8.53
314.223	143.7
314.437	80.21
314.651	127.32
314.864	-73.39
315.078	16.73
315.292	33.11
315.505	-48.81
315.719	76.12
315.933	82.26
316.146	-28.33
316.36	-26.28
316.573	106.84
316.787	-1.71
317.001	80.21
317.214	-34.47
317.428	-1.71
317.641	-73.39
317.855	8.53
318.068	41.3
318.282	92.5
318.495	98.64
318.709	51.54
318.922	74.07
319.136	139.6
319.349	155.99
319.563	59.73
319.776	137.56
319.99	-65.19
320.203	104.79
320.417	59.73
320.63	72.02
320.843	280.91
321.057	39.25
321.27	47.44
321.483	49.49
321.697	104.79
321.91	59.73
322.124	82.26
322.337	35.16
322.55	43.35
322.763	18.77
322.977	14.68
323.19	26.96
323.403	35.16
323.617	49.49
323.83	104.79
324.043	53.59
324.256	98.64
324.469	-24.23
324.683	145.75
324.896	0.34
325.109	67.92
325.322	-52.91
325.535	123.22
325.748	168.27
325.962	8.53
326.175	98.64
326.388	61.78
326.601	94.55
326.814	80.21
327.027	24.92
327.24	104.79
327.453	-97.96
327.666	74.07
327.879	82.26
328.092	155.99
328.305	41.3
328.518	-40.62
328.731	-48.81
328.944	-22.19
329.157	94.55
329.37	-13.99
329.583	168.27
329.796	117.08
330.009	-147.11
330.222	33.11
330.435	39.25
330.648	-24.23
330.861	45.4
331.073	33.11
331.286	67.92
331.499	41.3
331.712	8.53
331.925	76.12
332.138	35.16
332.35	104.79
332.563	41.3
332.776	110.93
332.989	-75.43
333.202	18.77
333.414	108.88
333.627	57.68
333.84	-11.95
334.053	104.79
334.265	37.2
334.478	-38.57
334.691	41.3
334.903	49.49
335.116	6.49
335.329	2.39
335.541	162.13
335.754	194.9
335.966	-30.38
336.179	78.16
336.392	8.53
336.604	102.74
336.817	78.16
337.029	39.25
337.242	53.59
337.454	57.68
337.667	4.44
337.88	82.26
338.092	86.36
338.305	102.74
338.517	6.49
338.729	102.74
338.942	74.07
339.154	-16.04
339.367	-83.63
339.579	65.88
339.792	57.68
340.004	100.69
340.217	61.78
340.429	16.73
340.641	-24.23
340.854	18.77
341.066	18.77
341.278	117.08
341.491	184.66
341.703	29.01
341.915	12.63
342.128	160.08
342.34	26.96
342.552	-38.57
342.764	-9.9
342.977	8.53
343.189	86.36
343.401	12.63
343.613	-63.15
343.826	61.78
344.038	14.68
344.25	98.64
344.462	18.77
344.674	43.35
344.886	26.96
345.099	74.07
345.311	74.07
345.523	67.92
345.735	-114.34
345.947	53.59
346.159	57.68
346.371	18.77
346.583	-16.04
346.795	145.75
347.007	6.49
347.219	41.3
347.431	33.11
347.643	135.51
347.855	55.64
348.067	51.54
348.279	-13.99
348.491	-7.85
348.703	10.58
348.915	37.2
349.127	20.82
349.339	100.69
349.551	-9.9
349.763	194.9
349.975	-48.81
350.187	47.44
350.399	115.03
350.61	172.37
350.822	-30.38
351.034	149.84
351.246	69.97
351.458	51.54
351.669	129.36
351.881	65.88
352.093	72.02
352.305	76.12
352.517	35.16
352.728	162.13
352.94	149.84
353.152	131.41
353.363	43.35
353.575	35.16
353.787	121.17
353.999	63.83
354.21	131.41
354.422	-50.86
354.633	137.56
354.845	16.73
355.057	0.34
355.268	90.45
355.48	43.35
355.692	-7.85
355.903	37.2
356.115	29.01
356.326	12.63
356.538	151.89
356.749	47.44
356.961	155.99
357.172	55.64
357.384	-95.91
357.595	162.13
357.807	-65.19
358.018	12.63
358.23	88.4
358.441	123.22
358.653	24.92
358.864	72.02
359.075	-24.23
359.287	74.07
359.498	98.64
359.709	57.68
359.921	33.11
360.132	76.12
360.344	-5.8
360.555	-28.33
360.766	29.01
360.977	117.08
361.189	129.36
361.4	20.82
361.611	127.32
361.823	135.51
362.034	59.73
362.245	-34.47
362.456	24.92
362.667	110.93
362.879	2.39
363.09	53.59
363.301	127.32
363.512	102.74
363.723	16.73
363.935	20.82
364.146	84.31
364.357	-3.75
364.568	20.82
364.779	4.44
364.99	139.6
365.201	-7.85
365.412	194.9
365.623	-106.15
365.834	92.5
366.045	-3.75
366.256	108.88
366.467	129.36
366.678	45.4
366.889	69.97
367.1	-46.76
367.311	135.51
367.522	4.44
367.733	57.68
367.944	127.32
368.155	-28.33
368.366	51.54
368.577	72.02
368.788	18.77
368.999	-48.81
369.209	88.4
369.42	180.56
369.631	264.53
369.842	135.51
370.053	14.68
370.264	80.21
370.474	-52.91
370.685	106.84
370.896	-3.75
371.107	59.73
371.317	74.07
371.528	47.44
371.739	90.45
371.95	41.3
372.16	98.64
372.371	-3.75
372.582	-18.09
372.792	59.73
373.003	88.4
373.214	67.92
373.424	102.74
373.635	72.02
373.846	106.84
374.056	47.44
374.267	67.92
374.477	72.02
374.688	-24.23
374.898	37.2
375.109	98.64
375.319	133.46
375.53	76.12
375.74	72.02
375.951	-9.9
376.161	94.55
376.372	106.84
376.582	-5.8
376.793	57.68
377.003	-38.57
377.214	26.96
377.424	69.97
377.635	-57
377.845	33.11
378.055	129.36
378.266	-42.67
378.476	41.3
378.686	35.16
378.897	29.01
379.107	104.79
379.317	76.12
379.528	86.36
379.738	123.22
379.948	-18.09
380.158	129.36
380.369	92.5
380.579	12.63
380.789	63.83
380.999	96.6
381.21	78.16
381.42	155.99
381.63	22.87
381.84	121.17
382.05	12.63
382.261	141.65
382.471	72.02
382.681	14.68
382.891	102.74
383.101	22.87
383.311	-28.33
383.521	31.06
383.731	100.69
383.941	119.12
384.151	69.97
384.361	43.35
384.571	16.73
384.781	90.45
384.991	192.85
385.201	133.46
385.411	53.59
385.621	88.4
385.831	-11.95
386.041	96.6
386.251	37.2
386.461	131.41
386.671	-38.57
386.881	61.78
387.091	-24.23
387.301	92.5
387.511	69.97
387.72	86.36
387.93	123.22
388.14	0.34
388.35	16.73
388.56	145.75
388.769	82.26
388.979	31.06
389.189	0.34
389.399	88.4
389.609	24.92
389.818	170.32
390.028	112.98
390.238	147.8
390.447	33.11
390.657	137.56
390.867	0.34
391.076	4.44
391.286	37.2
391.496	92.5
391.705	51.54
391.915	119.12
392.125	115.03
392.334	6.49
392.544	160.08
392.753	90.45
392.963	-16.04
393.172	92.5
393.382	29.01
393.591	117.08
393.801	-34.47
394.01	76.12
394.22	131.41
394.429	2.39
394.639	86.36
394.848	86.36
395.058	49.49
395.267	74.07
395.477	98.64
395.686	84.31
395.895	205.14
396.105	121.17
396.314	69.97
396.524	2.39
396.733	41.3
396.942	139.6
397.152	67.92
397.361	141.65
397.57	33.11
397.78	88.4
397.989	59.73
398.198	178.51
398.407	41.3
398.617	106.84
398.826	41.3
399.035	6.49
399.244	78.16
399.453	69.97
399.663	-24.23
399.872	43.35
400.081	-5.8
400.29	86.36
400.499	10.58
400.708	57.68
400.917	45.4
401.127	47.44
401.336	-5.8
401.545	117.08
401.754	121.17
401.963	22.87
402.172	74.07
402.381	16.73
402.59	-38.57
402.799	88.4
403.008	127.32
403.217	125.27
403.426	-13.99
403.635	-13.99
403.844	26.96
404.053	-13.99
404.262	-36.52
404.471	162.13
404.68	117.08
404.888	59.73
405.097	12.63
405.306	53.59
405.515	102.74
405.724	84.31
405.933	108.88
406.142	82.26
406.35	143.7
406.559	-1.71
406.768	106.84
406.977	115.03
407.185	84.31
407.394	121.17
407.603	43.35
407.812	72.02
408.02	108.88
408.229	22.87
408.438	31.06
408.646	-77.48
408.855	4.44
409.064	72.02
409.272	2.39
409.481	74.07
409.69	-13.99
409.898	-18.09
410.107	-7.85
410.315	67.92
410.524	12.63
410.733	96.6
410.941	74.07
411.15	24.92
411.358	65.88
411.567	98.64
411.775	49.49
411.984	98.64
412.192	102.74
412.401	55.64
412.609	123.22
412.818	123.22
413.026	139.6
413.234	53.59
413.443	82.26
413.651	4.44
413.86	39.25
414.068	190.8
414.276	115.03
414.485	24.92
414.693	188.75
414.901	174.42
415.11	92.5
415.318	78.16
415.526	90.45
415.734	106.84
415.943	53.59
416.151	135.51
416.359	72.02
416.567	63.83
416.776	78.16
416.984	57.68
417.192	201.04
417.4	-13.99
417.608	29.01
417.817	-83.63
418.025	145.75
418.233	117.08
418.441	-16.04
418.649	0.34
418.857	88.4
419.065	74.07
419.273	-57
419.481	74.07
419.689	24.92
419.897	37.2
420.105	-11.95
420.313	135.51
420.521	135.51
420.729	110.93
420.937	-13.99
421.145	29.01
421.353	164.18
421.561	125.27
421.769	90.45
421.977	-75.43
422.185	125.27
422.393	65.88
422.601	149.84
422.809	147.8
423.017	26.96
423.224	127.32
423.432	176.47
423.64	80.21
423.848	133.46
424.056	-1.71
424.263	188.75
424.471	92.5
424.679	196.95
424.887	-7.85
425.094	260.43
425.302	74.07
425.51	33.11
425.718	59.73
425.925	14.68
426.133	41.3
426.341	227.67
426.548	31.06
426.756	112.98
426.964	82.26
427.171	0.34
427.379	88.4
427.586	137.56
427.794	63.83
428.001	129.36
428.209	39.25
428.417	225.62
428.624	174.42
428.832	151.89
429.039	59.73
429.247	129.36
429.454	131.41
429.662	211.28
429.869	104.79
430.076	100.69
430.284	106.84
430.491	254.29
430.699	121.17
430.906	147.8
431.114	106.84
431.321	76.12
431.528	145.75
431.736	188.75
431.943	137.56
432.15	207.19
432.358	201.04
432.565	246.1
432.772	31.06
432.979	274.77
433.187	112.98
433.394	299.34
433.601	155.99
433.808	223.57
434.016	307.54
434.223	221.52
434.43	196.95
434.637	254.29
434.844	198.99
435.052	299.34
435.259	272.72
435.466	297.3
435.673	229.71
435.88	227.67
436.087	282.96
436.294	457.04
436.501	328.02
436.708	264.53
436.915	319.82
437.122	360.78
437.329	301.39
437.537	375.12
437.743	334.16
437.95	444.75
438.157	377.17
438.364	399.7
438.571	432.46
438.778	420.17
438.985	395.6
439.192	454.99
439.399	424.27
439.606	485.71
439.813	516.43
440.02	688.46
440.227	692.55
440.433	629.07
440.64	485.71
440.847	563.53
441.054	659.79
441.261	735.56
441.467	635.21
441.674	584.01
441.881	807.24
442.088	686.41
442.294	768.33
442.501	833.86
442.708	850.25
442.914	840.01
443.121	921.93
443.328	913.74
443.534	1030.47
443.741	942.41
443.948	840.01
444.154	1042.76
444.361	1276.23
444.568	1044.81
444.774	1100.1
444.981	1098.05
445.187	1231.17
445.394	1204.55
445.6	1179.97
445.807	1390.91
446.013	1272.13
446.22	1378.62
446.426	1462.59
446.633	1659.2
446.839	1706.3
447.046	1397.06
447.252	1763.64
447.459	1741.11
447.665	1792.31
447.871	1984.82
448.078	2091.32
448.284	2044.21
448.491	2156.85
448.697	2206
448.903	2185.52
449.11	2404.66
449.316	2302.26
449.522	2462
449.728	2580.78
449.935	2707.76
450.141	2703.66
450.347	2769.2
450.553	2949.42
450.76	3006.76
450.966	3229.99
451.172	3080.49
451.378	3346.72
451.584	3369.25
451.791	3680.54
451.997	3627.29
452.203	3836.19
452.409	3907.87
452.615	4186.39
452.821	3954.97
453.027	4116.76
453.233	4720.91
453.44	4577.55
453.646	4800.78
453.852	4960.52
454.058	5169.41
454.264	5316.87
454.47	5640.45
454.676	5576.96
454.882	6093.05
455.088	5808.38
455.294	6428.92
455.5	6641.9
455.705	7080.17
455.911	6983.91
456.117	7334.12
456.323	7352.55
456.529	7454.95
456.735	8132.83
456.941	8354.01
457.147	8822.99
457.352	8984.78
457.558	9320.65
457.764	9812.16
457.97	9922.75
458.176	10369.21
458.381	10873.01
458.587	11122.86
458.793	11641
458.999	11489.45
459.204	12882.06
459.41	13469.83
459.616	13314.19
459.821	13881.47
460.027	14846.07
460.233	15427.69
460.438	15403.11
460.644	16162.91
460.85	16492.63
461.055	17356.88
461.261	17846.34
461.466	17403.98
461.672	17813.57
461.878	19910.69
462.083	20074.53
462.289	20396.06
462.494	21176.34
462.7	21110.8
462.905	21317.65
463.111	23312.37
463.316	24240.1
463.522	24829.91
463.727	25452.5
463.932	26580.93
464.138	27531.19
464.343	28581.79
464.549	28538.79
464.754	30756.74
464.959	31516.53
465.165	32216.94
465.37	32104.3
465.575	32100.2
465.781	34246.47
465.986	34991.94
466.191	34228.04
466.397	35000.13
466.602	34240.33
466.807	35772.21
467.012	36345.64
467.218	36972.32
467.423	37402.39
467.628	38104.85
467.833	40212.21
468.038	39356.16
468.244	38760.2
468.449	40494.83
468.654	39835.38
468.859	40081.14
469.064	40097.52
469.269	39245.57
469.474	38999.81
469.679	40439.53
469.885	39327.49
470.09	40044.27
470.295	39941.88
470.5	38950.66
470.705	39098.11
470.91	38332.17
471.115	37951.25
471.32	38461.19
471.525	38231.82
471.73	37256.99
471.935	37127.97
472.139	35559.22
472.344	35788.6
472.549	35688.24
472.754	34899.78
472.959	34152.27
473.164	32540.52
473.369	32806.75
473.574	33881.94
473.778	32630.63
473.983	32188.27
474.188	31584.12
474.393	29867.92
474.598	30355.33
474.802	29061.02
475.007	29003.67
475.212	28690.34
475.417	27676.59
475.621	27076.54
475.826	27094.97
476.031	26329.03
476.235	25960.39
476.44	26212.29
476.645	25405.39
476.849	24827.87
477.054	24782.81
477.259	23785.45
477.463	24014.82
477.668	23283.7
477.872	23246.83
478.077	22800.38
478.282	21829.64
478.486	22116.36
478.691	21604.36
478.895	21686.28
479.1	21284.88
479.304	21168.15
479.509	20400.16
479.713	20588.57
479.918	20250.66
480.122	19896.36
480.326	20045.86
480.531	20125.73
480.735	19740.71
480.94	19482.67
481.144	19834.92
481.348	19050.55
481.553	18966.58
481.757	18440.25
481.961	18991.16
482.166	19001.4
482.37	18577.47
482.574	18057.28
482.778	18049.09
482.983	18151.49
483.187	18071.62
483.391	17995.84
483.595	17750.09
483.8	17303.63
484.004	17850.44
484.208	17428.56
484.412	17313.87
484.616	16947.28
484.821	16865.36
485.025	16365.66
485.229	16267.36
485.433	16183.39
485.637	16115.81
485.841	15638.63
486.045	15503.46
486.249	15351.92
486.453	15044.72
486.657	14925.94
486.861	14704.76
487.065	14178.43
487.269	14481.53
487.473	13686.92
487.677	13897.86
487.881	13904
488.085	13179.02
488.289	13326.47
488.493	12859.54
488.697	13158.54
488.901	12839.06
489.105	12378.26
489.309	12058.78
489.512	12056.73
489.716	11802.79
489.92	11595.94
490.124	11397.29
490.328	11192.49
490.531	10713.27
490.735	10868.91
490.939	10397.88
491.143	10318.01
491.346	10287.29
491.55	10062.01
491.754	9988.28
491.958	9646.27
492.161	9619.65
492.365	9410.76
492.569	9038.03
492.772	9021.64
492.976	9160.91
493.18	9031.88
493.383	8794.32
493.587	8710.35
493.79	8708.3
493.994	8558.8
494.197	8374.49
494.401	8290.52
494.605	8143.07
494.808	8159.45
495.012	8153.3
495.215	8157.4
495.419	7952.6
495.622	7979.23
495.825	7907.55
496.029	7856.35
496.232	8069.34
496.436	7663.84
496.639	7960.8
496.843	7862.49
497.046	7786.72
497.249	8016.09
497.453	7874.78
497.656	7809.25
497.859	7702.75
498.063	7842.01
498.266	7913.69
498.469	7723.23
498.673	7786.72
498.876	7694.56
499.079	7835.87
499.282	7891.16
499.485	8274.14
499.689	8065.24
499.892	8118.49
500.095	7975.13
500.298	8120.54
500.501	7993.56
500.705	8384.73
500.908	8392.92
501.111	8335.57
501.314	8403.16
501.517	8618.19
501.72	8560.85
501.923	8671.44
502.126	8661.2
502.329	9074.89
502.532	8812.75
502.735	8876.24
502.938	9316.55
503.141	9232.58
503.344	9341.13
503.547	9459.91
503.75	9615.55
503.953	9679.04
504.156	9904.32
504.359	10037.44
504.562	9828.54
504.765	9982.14
504.968	10653.87
505.17	10457.27
505.373	10641.59
505.576	10762.42
505.779	10983.6
505.982	11231.4
506.185	11475.11
506.387	11452.58
506.59	11821.22
506.793	12140.7
506.996	12079.26
507.198	12640.4
507.401	12495
507.604	12949.65
507.807	13168.78
508.009	13291.66
508.212	13600.9
508.415	13838.47
508.617	14205.05
508.82	14266.49
509.022	14616.69
509.225	14934.13
509.428	15196.27
509.63	15652.97
509.833	15577.19
510.035	16570.46
510.238	16410.71
510.44	16627.8
510.643	17176.66
510.845	17578.06
511.048	17883.2
511.25	18227.26
511.453	18698.3
511.655	19488.81
511.858	19320.88
512.06	19972.13
512.262	20103.2
512.465	20750.36
512.667	21291.02
512.87	21594.12
513.072	22161.41
513.274	22626.3
513.477	23246.83
513.679	23791.59
513.881	24115.17
514.084	25124.82
514.286	25128.92
514.488	25593.81
514.69	26357.7
514.893	26892.22
515.095	27465.65
515.297	27936.68
515.499	28129.19
515.701	29050.78
515.904	29394.84
516.106	30377.86
516.308	30560.13
516.51	31395.7
516.712	31362.93
516.914	32716.64
517.116	33169.24
517.318	33396.57
517.52	33992.53
517.722	34400.07
517.925	35450.68
518.127	35786.55
518.329	36628.26
518.531	36716.33
518.733	38033.17
518.935	38500.11
519.136	38405.9
519.338	39452.41
519.54	39880.44
519.742	40783.59
519.944	40994.53
520.146	42256.08
520.348	42239.7
520.55	42806.98
520.752	43173.57
520.954	44138.16
521.155	43769.53
521.357	45078.18
521.559	45299.36
521.761	46065.3
521.963	45840.03
522.164	46368.4
522.366	46988.94
522.568	47154.82
522.77	47636.09
522.971	48338.55
523.173	47863.42
523.375	48350.84
523.576	48588.4
523.778	48643.7
523.98	49239.65
524.181	49284.71
524.383	49174.12
524.584	49833.56
524.786	49350.24
524.988	49022.57
525.189	50144.86
525.391	50144.86
525.592	50296.41
525.794	49665.63
525.995	49948.25
526.197	49682.02
526.398	49684.06
526.6	49645.15
526.801	49614.43
527.003	49305.19
527.204	49219.17
527.406	49452.64
527.607	49010.28
527.808	49188.45
528.01	47773.31
528.211	47957.63
528.412	48078.46
528.614	47998.58
528.815	47347.33
529.016	47279.75
529.218	46685.84
529.419	46339.73
529.62	45983.38
529.822	45317.79
530.023	44867.24
530.224	44867.24
530.425	44013.24
530.626	43245.25
530.828	42852.04
531.029	43073.22
531.23	42000.08
531.431	41789.14
531.632	41486.04
531.833	41123.55
532.035	40427.24
532.236	39919.35
532.437	39372.54
532.638	38653.7
532.839	38622.98
533.04	38418.19
533.241	37343
533.442	37537.56
533.643	36732.71
533.844	35936.05
534.045	35864.37
534.246	35059.52
534.447	34705.22
534.648	34477.9
534.849	33994.57
535.05	33464.15
535.251	32900.96
535.451	32462.69
535.652	31928.17
535.853	31555.44
536.054	31145.85
536.255	30883.71
536.456	30412.68
536.657	29984.65
536.857	29618.07
537.058	28921.76
537.259	29032.35
537.46	28704.67
537.66	27848.62
537.861	28071.85
538.062	27219.89
538.263	26843.07
538.463	26613.7
538.664	26243.01
538.865	25935.82
539.065	25731.02
539.266	25155.54
539.466	25124.82
539.667	24758.24
539.868	24444.9
540.068	24172.52
540.269	23717.87
540.469	23621.61
540.67	23175.16
540.87	23238.64
541.071	22755.32
541.271	22523.9
541.472	22474.75
541.672	21991.43
541.873	21735.43
542.073	20992.02
542.274	21172.24
542.474	21043.22
542.675	20643.87
542.875	20809.75
543.075	20539.42
543.276	19666.99
543.476	20045.86
543.676	19683.37
543.877	19322.93
544.077	19298.35
544.277	19208.24
544.478	18585.66
544.678	18802.74
544.878	18448.44
545.078	17936.45
545.279	17619.02
545.479	17852.48
545.679	17524.81
545.879	17190.99
546.079	16971.86
546.28	17008.72
546.48	16619.61
546.68	16654.42
546.88	16298.08
547.08	16136.29
547.28	16167.01
547.48	15876.2
547.68	15825
547.88	15370.35
548.081	15100.01
548.281	14930.03
548.481	14708.85
548.681	14717.04
548.881	14352.51
549.081	14082.17
549.28	14004.35
549.48	13955.2
549.68	13686.92
549.88	13746.31
550.08	13224.08
550.28	13170.83
550.48	13009.04
550.68	12777.62
550.88	12388.5
551.08	12345.5
551.279	12275.87
551.479	12038.3
551.679	12071.07
551.879	11702.43
552.079	11550.89
552.278	11509.93
552.478	11530.41
552.678	11038.89
552.878	11090.09
553.077	10713.27
553.277	10584.24
553.477	10438.84
553.676	10297.53
553.876	10260.66
554.076	9842.88
554.275	9959.61
554.475	9498.82
554.674	9457.86
554.874	9421
555.074	9054.41
555.273	9195.72
555.473	8904.91
555.672	8730.83
555.872	8624.34
556.071	8540.37
556.271	8466.64
556.47	8245.46
556.67	8165.59
556.869	7936.22
557.068	7946.46
557.268	7622.88
557.467	7516.39
557.667	7690.46
557.866	7370.98
558.065	7262.44
558.265	6981.87
558.464	6846.7
558.663	7031.02
558.863	6664.43
559.062	6711.53
559.261	6652.14
559.461	6596.85
559.66	6398.2
559.859	6320.37
560.058	6230.26
560.258	5867.77
560.457	5908.73
560.656	6066.42
560.855	5800.19
561.054	5767.42
561.253	5685.5
561.453	5691.65
561.652	5595.39
561.851	5396.74
562.05	5175.56
562.249	5120.26
562.448	5241.09
562.647	5120.26
562.846	4792.59
563.045	5017.86
563.244	4780.3
563.443	4622.61
563.642	4604.18
563.841	4638.99
564.04	4702.48
564.239	4491.54
564.438	4434.19
564.637	4262.16
564.836	4276.5
565.035	4296.98
565.234	4235.54
565.432	4118.81
565.631	4163.86
565.83	4096.28
566.029	3918.11
566.228	3717.4
566.427	4032.79
566.625	3604.77
566.824	3850.52
567.023	3715.36
567.222	3596.57
567.42	3600.67
567.619	3520.8
567.818	3500.32
568.016	3504.42
568.215	3432.74
568.414	3391.78
568.612	3350.82
568.811	3195.17
569.01	3254.56
569.208	3268.9
569.407	3017
569.605	3070.25
569.804	2976.04
570.002	2990.38
570.201	2949.42
570.4	3006.76
570.598	2908.46
570.797	2767.15
570.995	2722.09
571.193	2599.21
571.392	2662.7
571.59	2519.34
571.789	2726.19
571.987	2541.87
572.186	2666.8
572.384	2564.4
572.582	2494.77
572.781	2511.15
572.979	2361.65
573.177	2404.66
573.376	2318.64
573.574	2322.74
573.772	2249.01
573.971	2234.68
574.169	1995.06
574.367	2167.09
574.565	2175.28
574.763	2029.88
574.962	2093.37
575.16	2054.45
575.358	1954.1
575.556	1970.49
575.754	1970.49
575.952	1911.1
576.151	1874.23
576.349	1898.81
576.547	1708.35
576.745	1882.42
576.943	1642.81
577.141	1702.2
577.339	1618.24
577.537	1816.89
577.735	1728.83
577.933	1616.19
578.131	1552.7
578.329	1677.63
578.527	1521.98
578.725	1571.13
578.923	1431.87
579.121	1583.42
579.319	1317.19
579.516	1366.34
579.714	1616.19
579.912	1440.06
580.11	1317.19
580.308	1308.99
580.506	1268.03
580.704	1212.74
580.901	1216.83
581.099	1311.04
581.297	1313.09
581.495	1300.8
581.692	1145.16
581.89	1374.53
582.088	1202.5
582.285	1210.69
582.483	1083.72
582.681	1073.48
582.878	1169.73
583.076	1077.57
583.274	1141.06
583.471	1188.16
583.669	1100.1
583.866	948.55
584.064	985.41
584.262	919.88
584.459	969.03
584.657	1065.29
584.854	1034.57
585.052	897.35
585.249	999.75
585.447	954.69
585.644	770.38
585.841	969.03
586.039	958.79
586.236	991.56
586.434	897.35
586.631	872.78
586.828	870.73
587.026	760.14
587.223	799.05
587.42	737.61
587.618	760.14
587.815	842.06
588.012	827.72
588.21	799.05
588.407	776.52
588.604	768.33
588.801	751.95
588.999	680.27
589.196	745.8
589.393	682.31
589.59	854.34
589.787	815.43
589.984	766.28
590.182	672.08
590.379	631.12
590.576	756.04
590.773	602.44
590.97	686.41
591.167	840.01
591.364	760.14
591.561	657.74
591.758	868.68
591.955	803.15
592.152	715.08
592.349	647.5
592.546	602.44
592.743	633.16
592.94	635.21
593.137	643.4
593.334	739.66
593.531	725.32
593.727	719.18
593.924	698.7
594.121	694.6
594.318	602.44
594.515	715.08
594.712	764.23
594.908	917.83
595.105	608.59
595.302	733.51
595.499	745.8
595.696	844.1
595.892	702.79
596.089	829.77
596.286	764.23
596.482	874.82
596.679	780.62
596.876	749.9
597.072	887.11
597.269	758.09
597.466	979.27
597.662	829.77
597.859	893.26
598.055	995.65
598.252	1030.47
598.448	1026.37
598.645	1057.09
598.841	1116.48
599.038	1294.66
599.234	1302.85
599.431	1263.94
599.627	1290.56
599.824	1417.54
600.02	1280.32
600.217	1409.34
600.413	1579.33
600.609	1534.27
600.806	1827.13
601.002	1681.72
601.198	1616.19
601.395	1878.33
601.591	1792.31
601.787	1886.52
601.984	1970.49
602.18	2052.41
602.376	2124.08
602.572	2294.07
602.769	2326.83
602.965	2466.1
603.161	2613.55
603.357	2679.08
603.553	2793.77
603.75	2744.62
603.946	2865.45
604.142	2943.27
604.338	3055.91
604.534	3064.1
604.73	3199.27
604.926	3262.76
605.122	3504.42
605.318	3627.29
605.514	3535.14
605.71	3633.44
605.906	3944.73
606.102	4038.94
606.298	4184.34
606.494	4337.94
606.69	4442.39
606.886	4514.06
607.082	4577.55
607.278	4747.53
607.474	4907.27
607.67	4911.37
607.866	5015.82
608.062	5394.69
608.257	5652.74
608.453	5544.19
608.649	5820.67
608.845	5773.57
609.041	6047.99
609.236	6340.85
609.432	6533.36
609.628	6609.14
609.824	6877.42
610.019	6772.97
610.215	7078.12
610.411	7385.32
610.606	7321.83
610.802	7694.56
610.998	7868.64
611.193	8108.25
611.389	8345.81
611.584	8437.97
611.78	8677.58
611.976	8929.49
612.171	9398.47
612.367	9371.85
612.562	9679.04
612.758	9836.74
612.953	9926.85
613.149	10434.74
613.344	10721.46
613.539	11110.57
613.735	11362.47
613.93	11538.6
614.126	11911.33
614.321	12392.6
614.517	12652.69
614.712	12857.49
614.907	13066.38
615.103	13551.75
615.298	13713.54
615.493	14194.81
615.688	14350.46
615.884	15237.23
616.079	15327.34
616.274	15788.13
616.47	15802.47
616.665	16519.26
616.86	16623.7
617.055	17315.92
617.25	17625.16
617.445	18208.83
617.641	18421.82
617.836	18968.63
618.031	19200.05
618.226	19898.41
618.421	20514.84
618.616	21205.01
618.811	21254.16
619.006	21970.95
619.201	22063.11
619.396	22749.18
619.591	23183.35
619.786	23922.66
619.981	24002.54
620.176	25229.27
620.371	24877.02
620.566	25735.12
620.761	26292.16
620.956	27164.6
621.151	27445.17
621.346	28188.58
621.541	28164.01
621.735	29034.39
621.93	29290.39
622.125	29972.36
622.32	30205.83
622.515	31324.02
622.709	31696.75
622.904	31962.99
623.099	32747.36
623.294	33732.43
623.488	34004.81
623.683	34867.01
623.878	34733.89
624.072	35624.76
624.267	35872.56
624.462	36505.38
624.656	36908.83
624.851	37705.49
625.046	38248.21
625.24	38717.19
625.435	39362.3
625.629	40060.66
625.824	40492.78
626.018	40916.71
626.213	40494.83
626.407	41944.79
626.602	41717.46
626.796	42763.98
626.991	43355.84
627.185	42913.48
627.38	43306.69
627.574	43488.96
627.768	44048.05
627.963	44299.95
628.157	43968.18
628.352	45002.41
628.546	44172.98
628.74	45262.5
628.935	44285.62
629.129	44750.51
629.323	44596.91
629.517	44594.86
629.712	43933.37
629.906	43673.27
630.1	42864.33
630.294	43171.52
630.489	42084.05
630.683	42022.61
630.877	41182.94
631.071	40906.47
631.265	40171.25
631.459	39454.46
631.653	38455.05
631.848	38127.38
632.042	36747.04
632.236	36280.11
632.43	35206.97
632.624	34398.02
632.818	33222.49
633.012	32159.59
633.206	31315.83
633.4	30414.73
633.594	29009.82
633.788	28266.41
633.982	27742.13
634.176	26441.67
634.369	25638.86
634.563	24209.38
634.757	23463.92
634.951	23021.56
635.145	22263.81
635.339	20951.06
635.533	20027.43
635.726	19873.83
635.92	18763.83
636.114	18036.8
636.308	17133.65
636.501	16427.1
636.695	16025.7
636.889	15069.3
637.083	14456.95
637.276	14047.36
637.47	13443.21
637.664	12671.12
637.857	12525.72
638.051	11950.24
638.244	11477.16
638.438	10989.74
638.632	10705.07
638.825	10074.3
639.019	9517.25
639.212	9347.27
639.406	8986.83
639.599	8507.6
639.793	8206.55
639.986	7917.79
640.18	7457
640.373	7377.12
640.567	7170.28
640.76	6791.41
640.954	6701.3
641.147	6246.65
641.34	5910.78
641.534	5818.62
641.727	5671.17
641.92	5572.86
642.114	5202.18
642.307	5013.77
642.5	4944.14
642.694	4524.3
642.887	4442.39
643.08	4485.39
643.273	4337.94
643.467	3944.73
643.66	3711.26
643.853	3639.58
644.046	3555.62
644.239	3451.17
644.432	3246.37
644.626	3023.14
644.819	2953.51
645.012	3023.14
645.205	2873.64
645.398	2720.04
645.591	2582.83
645.784	2361.65
645.977	2361.65
646.17	2312.5
646.363	2259.25
646.556	2109.75
646.749	2064.69
646.942	2054.45
647.135	1958.2
647.328	1814.84
647.521	1907
647.714	1626.43
647.907	1685.82
648.099	1511.74
648.292	1558.85
648.485	1468.73
648.678	1386.82
648.871	1245.51
649.064	1319.23
649.256	1151.3
649.449	1077.57
649.642	1210.69
649.835	1038.66
650.027	1141.06
650.22	1120.58
650.413	1024.33
650.605	932.17
650.798	1053
650.991	966.98
651.183	952.65
651.376	960.84
651.568	944.45
651.761	788.81
651.954	895.3
652.146	778.57
652.339	821.58
652.531	807.24
652.724	526.67
652.916	547.15
653.109	545.1
653.301	739.66
653.494	616.78
653.686	555.34
653.879	739.66
654.071	616.78
654.263	504.14
654.456	500.05
654.648	520.53
654.84	538.96
655.033	452.94
655.225	557.39
655.417	342.35
655.61	502.09
655.802	504.14
655.994	493.9
656.186	383.31
656.379	604.49
656.571	344.4
656.763	379.22
656.955	317.78
657.148	366.93
657.34	495.95
657.532	346.45
657.724	291.15
657.916	352.59
658.108	399.7
658.3	407.89
658.492	366.93
658.684	233.81
658.876	364.88
659.068	121.17
659.26	215.38
659.452	198.99
659.644	276.82
659.836	444.75
660.028	221.52
660.22	244.05
660.412	278.87
660.604	311.63
660.796	170.32
660.988	289.1
661.18	258.39
661.372	250.19
661.563	293.2
661.755	301.39
661.947	149.84
662.139	219.47
662.331	145.75
662.522	233.81
662.714	172.37
662.906	186.71
663.097	221.52
663.289	207.19
663.481	147.8
663.673	266.58
663.864	285.01
664.056	227.67
664.247	49.49
664.439	299.34
664.631	168.27
664.822	274.77
665.014	233.81
665.205	209.23
665.397	139.6
665.588	127.32
665.78	260.43
665.971	242
666.163	139.6
666.354	233.81
666.546	94.55
666.737	106.84
666.929	176.47
667.12	96.6
667.311	182.61
667.503	223.57
667.694	153.94
667.885	196.95
668.077	252.24
668.268	92.5
668.459	213.33
668.651	215.38
668.842	186.71
669.033	209.23
669.224	-3.75
669.416	336.21
669.607	135.51
669.798	110.93
669.989	229.71
670.18	74.07
670.371	164.18
670.563	47.44
670.754	117.08
670.945	201.04
671.136	246.1
671.327	112.98
671.518	248.15
671.709	239.95
671.9	198.99
672.091	260.43
672.282	121.17
672.473	119.12
672.664	162.13
672.855	174.42
673.046	205.14
673.237	227.67
673.428	137.56
673.619	162.13
673.809	153.94
674	270.67
674.191	176.47
674.382	174.42
674.573	209.23
674.764	112.98
674.954	242
675.145	194.9
675.336	172.37
675.527	153.94
675.717	110.93
675.908	168.27
676.099	246.1
676.289	196.95
676.48	127.32
676.671	194.9
676.861	80.21
677.052	143.7
677.243	110.93
677.433	76.12
677.624	242
677.814	221.52
678.005	201.04
678.195	319.82
678.386	151.89
678.576	133.46
678.767	72.02
678.957	127.32
679.148	192.85
679.338	303.44
679.529	274.77
679.719	172.37
679.909	309.58
680.1	278.87
680.29	244.05
680.481	168.27
680.671	270.67
680.861	293.2
681.052	231.76
681.242	112.98
681.432	293.2
681.622	278.87
681.813	108.88
682.003	254.29
682.193	86.36
682.383	225.62
682.573	242
682.764	237.91
682.954	172.37
683.144	317.78
683.334	104.79
683.524	203.09
683.714	352.59
683.904	295.25
684.094	246.1
684.284	233.81
684.474	383.31
684.664	198.99
684.854	266.58
685.044	196.95
685.234	221.52
685.424	227.67
685.614	201.04
685.804	397.65
685.994	192.85
686.184	258.39
686.374	242
686.564	194.9
686.753	235.86
686.943	196.95
687.133	184.66
687.323	139.6
687.513	278.87
687.702	219.47
687.892	280.91
688.082	385.36
688.272	289.1
688.461	264.53
688.651	364.88
688.841	334.16
689.03	242
689.22	323.92
689.41	227.67
689.599	278.87
689.789	190.8
689.979	338.26
690.168	209.23
690.358	260.43
690.547	285.01
690.737	262.48
690.926	246.1
691.116	170.32
691.305	340.3
691.495	289.1
691.684	194.9
691.874	211.28
692.063	221.52
692.252	274.77
692.442	235.86
692.631	155.99
692.82	225.62
693.01	233.81
693.199	125.27
693.388	211.28
693.578	166.23
693.767	297.3
693.956	215.38
694.146	203.09
694.335	291.15
694.524	172.37
694.713	268.63
694.902	254.29
695.092	188.75
695.281	242
695.47	143.7
695.659	194.9
695.848	330.06
696.037	194.9
696.226	215.38
696.415	192.85
696.604	291.15
696.793	282.96
696.982	205.14
697.171	336.21
697.36	223.57
697.549	182.61
697.738	123.22
697.927	174.42
698.116	139.6
698.305	235.86
698.494	178.51
698.683	155.99
698.872	411.98
699.061	162.13
699.25	166.23
699.438	233.81
699.627	86.36
699.816	285.01
700.005	174.42
700.193	196.95
700.382	280.91
700.571	268.63
700.76	254.29
700.948	307.54
701.137	242
701.326	227.67
701.514	155.99
701.703	184.66
701.892	221.52
702.08	405.84
702.269	262.48
702.457	115.03
702.646	192.85
702.834	194.9
703.023	205.14
703.212	219.47
703.4	205.14
703.589	168.27
703.777	227.67
703.965	141.65
704.154	123.22
704.342	131.41
704.531	158.03
704.719	244.05
704.907	274.77
705.096	94.55
705.284	112.98
705.472	254.29
705.661	203.09
705.849	305.49
706.037	188.75
706.226	254.29
706.414	258.39
706.602	217.43
706.79	254.29
706.979	131.41
707.167	221.52
707.355	100.69
707.543	280.91
707.731	276.82
707.919	123.22
708.107	151.89
708.296	139.6
708.484	139.6
708.672	262.48
708.86	215.38
709.048	239.95
709.236	115.03
709.424	317.78
709.612	231.76
709.8	86.36
709.988	198.99
710.176	258.39
710.364	119.12
710.551	137.56
710.739	205.14
710.927	201.04
711.115	168.27
711.303	272.72
711.491	274.77
711.679	172.37
711.866	299.34
712.054	184.66
712.242	274.77
712.43	330.06
712.617	198.99
712.805	272.72
712.993	198.99
713.181	59.73
713.368	239.95
713.556	225.62
713.744	180.56
713.931	311.63
714.119	164.18
714.306	168.27
714.494	213.33
714.682	225.62
714.869	129.36
715.057	166.23
715.244	78.16
715.432	215.38
715.619	155.99
715.807	172.37
715.994	223.57
716.182	258.39
716.369	385.36
716.556	213.33
716.744	141.65
716.931	145.75
717.119	180.56
717.306	266.58
717.493	254.29
717.681	227.67
717.868	198.99
718.055	274.77
718.242	252.24
718.43	258.39
718.617	315.73
718.804	190.8
718.991	319.82
719.179	196.95
719.366	229.71
719.553	239.95
719.74	289.1
719.927	192.85
720.114	323.92
720.301	207.19
720.488	168.27
720.676	153.94
720.863	260.43
721.05	346.45
721.237	295.25
721.424	350.54
721.611	242
721.798	205.14
721.985	149.84
722.172	244.05
722.358	264.53
722.545	323.92
722.732	319.82
722.919	309.58
723.106	213.33
723.293	239.95
723.48	186.71
723.667	149.84
723.853	414.03
724.04	289.1
724.227	319.82
724.414	266.58
724.6	246.1
724.787	440.65
724.974	467.28
725.161	207.19
725.347	172.37
725.534	379.22
725.72	385.36
725.907	328.02
726.094	256.34
726.28	264.53
726.467	217.43
726.653	205.14
726.84	393.55
727.027	373.07
727.213	317.78
727.4	383.31
727.586	321.87
727.773	293.2
727.959	315.73
728.145	301.39
728.332	319.82
728.518	272.72
728.705	299.34
728.891	252.24
729.077	364.88
729.264	239.95
729.45	233.81
729.636	362.83
729.823	346.45
730.009	387.41
730.195	287.06
730.382	362.83
730.568	182.61
730.754	278.87
730.94	344.4
731.126	371.02
731.313	368.98
731.499	328.02
731.685	489.81
731.871	405.84
732.057	371.02
732.243	471.37
732.429	403.79
732.615	475.47
732.801	399.7
732.987	330.06
733.173	418.13
733.359	354.64
733.545	325.97
733.731	301.39
733.917	401.74
734.103	348.5
734.289	303.44
734.475	291.15
734.661	512.33
734.847	375.12
735.033	289.1
735.219	461.13
735.404	368.98
735.59	403.79
735.776	258.39
735.962	299.34
736.148	403.79
736.333	397.65
736.519	295.25
736.705	262.48
736.89	356.69
737.076	375.12
737.262	328.02
737.447	258.39
737.633	344.4
737.819	393.55
738.004	375.12
738.19	397.65
738.375	385.36
738.561	391.5
738.747	336.21
738.932	342.35
739.118	483.66
739.303	438.61
739.489	444.75
739.674	366.93
739.859	266.58
740.045	444.75
740.23	426.32
740.416	215.38
740.601	385.36
740.786	375.12
740.972	303.44
741.157	371.02
741.342	350.54
741.528	303.44
741.713	504.14
741.898	258.39
742.084	358.74
742.269	424.27
742.454	364.88
742.639	438.61
742.824	448.85
743.01	430.41
743.195	461.13
743.38	368.98
743.565	323.92
743.75	389.46
743.935	368.98
744.12	422.22
744.305	342.35
744.49	342.35
744.675	381.26
744.86	280.91
745.045	368.98
745.23	414.03
745.415	348.5
745.6	469.33
745.785	309.58
745.97	469.33
746.155	411.98
746.34	420.17
746.525	332.11
746.71	446.8
746.895	266.58
747.079	237.91
747.264	352.59
747.449	442.7
747.634	399.7
747.819	414.03
748.003	295.25
748.188	250.19
748.373	354.64
748.557	381.26
748.742	411.98
748.927	295.25
749.111	325.97
749.296	379.22
749.481	346.45
749.665	371.02
749.85	270.67
750.034	362.83
750.219	354.64
750.404	317.78
750.588	274.77
750.773	270.67
750.957	313.68
751.141	278.87
751.326	334.16
751.51	170.32
751.695	303.44
751.879	317.78
752.064	418.13
752.248	248.15
752.432	395.6
752.617	395.6
752.801	280.91
752.985	282.96
753.17	358.74
753.354	301.39
753.538	295.25
753.722	209.23
753.907	209.23
754.091	235.86
754.275	371.02
754.459	219.47
754.643	237.91
754.828	334.16
755.012	276.82
755.196	164.18
755.38	244.05
755.564	207.19
755.748	176.47
755.932	278.87
756.116	207.19
756.3	323.92
756.484	229.71
756.668	354.64
756.852	170.32
757.036	207.19
757.22	313.68
757.404	219.47
757.588	209.23
757.772	311.63
757.956	178.51
758.14	360.78
758.323	155.99
758.507	244.05
758.691	278.87
758.875	350.54
759.059	383.31
759.242	250.19
759.426	246.1
759.61	221.52
759.794	186.71
759.977	254.29
760.161	371.02
760.345	315.73
760.528	366.93
760.712	225.62
760.895	293.2
761.079	198.99
761.263	125.27
761.446	178.51
761.63	231.76
761.813	344.4
761.997	147.8
762.18	231.76
762.364	235.86
762.547	41.3
762.731	112.98
762.914	196.95
763.098	155.99
763.281	217.43
763.464	168.27
763.648	172.37
763.831	90.45
764.015	174.42
764.198	209.23
764.381	106.84
764.564	158.03
764.748	235.86
764.931	229.71
765.114	227.67
765.297	252.24
765.481	106.84
765.664	182.61
765.847	223.57
766.03	325.97
766.213	162.13
766.397	198.99
766.58	94.55
766.763	262.48
766.946	170.32
767.129	147.8
767.312	20.82
767.495	123.22
767.678	123.22
767.861	137.56
768.044	168.27
768.227	143.7
768.41	155.99
768.593	205.14
768.776	198.99
768.959	149.84
769.142	268.63
769.324	76.12
769.507	137.56
769.69	2.39
769.873	133.46
770.056	301.39
770.239	147.8
770.421	254.29
770.604	176.47
770.787	131.41
770.97	215.38
771.152	158.03
771.335	213.33
771.518	18.77
771.7	176.47
771.883	198.99
772.066	153.94
772.248	162.13
772.431	213.33
772.613	145.75
772.796	98.64
772.978	239.95
773.161	213.33
773.343	86.36
773.526	88.4
773.708	37.2
773.891	-24.23
774.073	102.74
774.256	80.21
774.438	174.42
774.621	106.84
774.803	182.61
774.985	96.6
775.168	190.8
775.35	166.23
775.532	125.27
775.715	41.3
775.897	98.64
776.079	8.53
776.261	143.7
776.444	108.88
776.626	76.12
776.808	100.69
776.99	49.49
777.173	117.08
777.355	86.36
777.537	65.88
777.719	151.89
777.901	153.94
778.083	112.98
778.265	45.4
778.447	182.61
778.629	-22.19
778.811	74.07
778.993	100.69
779.175	239.95
779.357	121.17
779.539	8.53
779.721	145.75
779.903	106.84
780.085	49.49
780.267	57.68
780.449	67.92
780.631	201.04
780.812	184.66
780.994	82.26
781.176	-7.85
781.358	39.25
781.54	86.36
781.721	61.78
781.903	72.02
782.085	61.78
782.267	178.51
782.448	41.3
782.63	49.49
782.812	4.44
782.993	76.12
783.175	76.12
783.357	117.08
783.538	88.4
783.72	41.3
783.901	96.6
784.083	108.88
784.264	203.09
784.446	-38.57
784.627	41.3
784.809	92.5
784.99	-24.23
785.172	112.98
785.353	72.02
785.535	20.82
785.716	47.44
785.897	-16.04
786.079	94.55
786.26	45.4
786.441	135.51
786.623	-48.81
786.804	37.2
786.985	47.44
787.167	102.74
787.348	63.83
787.529	59.73
787.71	172.37
787.891	92.5
788.073	65.88
788.254	41.3
788.435	194.9
788.616	90.45
788.797	6.49
788.978	14.68
789.159	-42.67
789.34	155.99
789.522	33.11
789.703	-61.1
789.884	4.44
790.065	106.84
790.246	164.18
790.427	65.88
790.607	127.32
790.788	151.89
790.969	29.01
791.15	82.26
791.331	-36.52
791.512	33.11
791.693	37.2
791.874	-11.95
792.054	180.56
792.235	129.36
792.416	20.82
792.597	80.21
792.778	57.68
792.958	80.21
793.139	72.02
793.32	121.17
793.5	-46.76
793.681	182.61
793.862	72.02
794.042	51.54
794.223	-118.44
794.404	37.2
794.584	-106.15
794.765	12.63
794.945	123.22
795.126	69.97
795.306	133.46
795.487	57.68
795.667	-28.33
795.848	80.21
796.028	12.63
796.209	29.01
796.389	78.16
796.57	-1.71
796.75	16.73
796.93	0.34
797.111	26.96
797.291	49.49
797.471	100.69
797.652	-24.23
797.832	-26.28
798.012	4.44
798.192	39.25
798.373	-28.33
798.553	20.82
798.733	35.16
798.913	-3.75
799.093	-57
799.274	4.44
799.454	47.44
799.634	90.45
799.814	84.31
799.994	112.98
800.174	67.92
800.354	0.34
800.534	-77.48
800.714	90.45
800.894	-120.49
801.074	-50.86
801.254	-22.19
801.434	67.92
801.614	-11.95
801.794	-34.47
801.974	1694.01
802.154	59.73
802.334	84.31
802.514	-20.14
802.693	-20.14
802.873	16.73
803.053	137.56
803.233	51.54
803.413	51.54
803.592	10.58
803.772	10.58
803.952	31.06
804.131	-3.75
804.311	88.4
804.491	51.54
804.67	8.53
804.85	-69.29
805.03	16.73
805.209	119.12
805.389	74.07
805.568	-69.29
805.748	-32.43
805.928	29.01
806.107	72.02
806.287	-7.85
806.466	53.59
806.646	43.35
806.825	74.07
807.004	29.01
807.184	125.27
807.363	90.45
807.543	37.2
807.722	-46.76
807.901	117.08
808.081	29.01
808.26	-149.16
808.439	10.58
808.619	-24.23
808.798	12.63
808.977	-24.23
809.156	186.71
809.336	22.87
809.515	80.21
809.694	-36.52
809.873	-11.95
810.052	110.93
810.231	47.44
810.411	96.6
810.59	72.02
810.769	51.54
810.948	-9.9
811.127	-110.25
811.306	-77.48
811.485	-44.71
811.664	147.8
811.843	20.82
812.022	69.97
812.201	-22.19
812.38	-34.47
812.559	-16.04
812.737	106.84
812.916	-38.57
813.095	106.84
813.274	-9.9
813.453	45.4
813.632	20.82
813.811	22.87
813.989	-102.06
814.168	88.4
814.347	-61.1
814.526	35.16
814.704	125.27
814.883	33.11
815.062	-34.47
815.24	20.82
815.419	-57
815.598	123.22
815.776	-134.82
815.955	-36.52
816.133	-128.68
816.312	41.3
816.49	4.44
816.669	22.87
816.847	-102.06
817.026	0.34
817.204	-30.38
817.383	55.64
817.561	-67.24
817.74	12.63
817.918	16.73
818.097	-1.71
818.275	-36.52
818.453	84.31
818.632	37.2
818.81	61.78
818.988	-28.33
819.167	0.34
819.345	10.58
819.523	-65.19
819.701	65.88
819.879	41.3
820.058	-22.19
820.236	49.49
820.414	90.45
820.592	14.68
820.77	-40.62
820.948	65.88
821.127	-34.47
821.305	0.34
821.483	-48.81
821.661	84.31
821.839	4.44
822.017	-110.25
822.195	-79.53
822.373	63.83
822.551	69.97
822.729	53.59
822.907	29.01
823.085	74.07
823.262	18.77
823.44	-30.38
823.618	-5.8
823.796	-26.28
823.974	-36.52
824.152	-38.57
824.329	94.55
824.507	155.99
824.685	92.5
824.863	-20.14
825.04	-16.04
825.218	88.4
825.396	37.2
825.574	80.21
825.751	-16.04
825.929	155.99
826.107	-48.81
826.284	67.92
826.462	-1.71
826.639	-9.9
826.817	55.64
826.994	4.44
827.172	-54.95
827.349	37.2
827.527	45.4
827.704	24.92
827.882	78.16
828.059	-110.25
828.237	-57
828.414	125.27
828.591	-140.97
828.769	-20.14
828.946	-85.67
829.124	43.35
829.301	59.73
829.478	-42.67
829.655	-5.8
829.833	18.77
830.01	-71.34
830.187	102.74
830.364	41.3
830.542	-30.38
830.719	112.98
830.896	65.88
831.073	69.97
831.25	61.78
831.427	-11.95
831.604	47.44
831.782	-59.05
831.959	12.63
832.136	20.82
832.313	88.4
832.49	-100.01
832.667	31.06
832.844	-61.1
833.021	-28.33
833.198	47.44
833.374	49.49
833.551	31.06
833.728	-18.09
833.905	69.97
834.082	-85.67
834.259	2.39
834.436	82.26
834.612	-85.67
834.789	63.83
834.966	-48.81
835.143	65.88
835.319	-71.34
835.496	53.59
835.673	49.49
835.85	35.16
836.026	57.68
836.203	51.54
836.38	2.39
836.556	-1.71
836.733	-22.19
836.909	149.84
837.086	-26.28
837.262	-106.15
837.439	12.63
837.616	-59.05
837.792	-22.19
837.968	53.59
838.145	-89.77
838.321	-11.95
838.498	14.68
838.674	-102.06
838.851	-20.14
839.027	35.16
839.203	51.54
839.38	41.3
839.556	35.16
839.732	108.88
839.909	-22.19
840.085	31.06
840.261	-16.04
840.437	22.87
840.614	-81.58
840.79	63.83
840.966	69.97
841.142	57.68
841.318	-89.77
841.494	8.53
841.671	92.5
841.847	-73.39
842.023	-63.15
842.199	-7.85
842.375	76.12
842.551	-73.39
842.727	-69.29
842.903	137.56
843.079	-30.38
843.255	61.78
843.431	-52.91
843.607	8.53
843.783	-130.73
843.959	82.26
844.134	-34.47
844.31	106.84
844.486	-54.95
844.662	-85.67
844.838	8.53
845.013	55.64
845.189	84.31
845.365	63.83
845.541	8.53
845.716	57.68
845.892	98.64
846.068	26.96
846.244	-73.39
846.419	69.97
846.595	20.82
846.77	-40.62
846.946	110.93
847.122	-1.71
847.297	18.77
847.473	127.32
847.648	-93.87
847.824	67.92
847.999	-79.53
848.175	-18.09
848.35	74.07
848.526	174.42
848.701	31.06
848.876	94.55
849.052	86.36
849.227	-52.91
849.403	-9.9
849.578	20.82
849.753	61.78
849.929	49.49
850.104	-16.04
850.279	20.82
850.454	65.88
850.63	47.44
850.805	16.73
850.98	67.92
851.155	37.2
851.33	45.4
851.505	-97.96
851.681	88.4
851.856	-30.38
852.031	69.97
852.206	78.16
852.381	-71.34
852.556	-50.86
852.731	-67.24
852.906	-1.71
853.081	45.4
853.256	55.64
853.431	6.49
853.606	8.53
853.781	53.59
853.956	-126.63
854.131	74.07
854.305	6.49
854.48	-44.71
854.655	22.87
854.83	-65.19
855.005	-38.57
855.18	18.77
855.354	69.97
855.529	94.55
855.704	20.82
855.879	35.16
856.053	-112.3
856.228	55.64
856.403	-75.43
856.577	39.25
856.752	-126.63
856.926	-5.8
857.101	-11.95
857.276	-112.3
857.45	-36.52
857.625	88.4
857.799	39.25
857.974	20.82
858.148	-116.39
858.323	-7.85
858.497	-30.38
858.672	-22.19
858.846	-63.15
859.02	22.87
859.195	-138.92
859.369	-30.38
859.543	33.11
859.718	-7.85
859.892	33.11
860.066	6.49
860.241	-57
860.415	0.34
860.589	12.63
860.763	-24.23
860.938	-36.52
861.112	76.12
861.286	-85.67
861.46	-13.99
861.634	-30.38
861.808	57.68
861.982	-140.97
862.157	-136.87
862.331	-28.33
862.505	-57
862.679	-110.25
862.853	-40.62
863.027	76.12
863.201	160.08
863.375	6.49
863.549	69.97
863.722	53.59
863.896	74.07
864.07	-48.81
864.244	-87.72
864.418	108.88
864.592	-20.14
864.766	-40.62
864.939	39.25
865.113	-24.23
865.287	45.4
865.461	-46.76
865.634	39.25
865.808	12.63
865.982	-30.38
866.156	-93.87
866.329	-18.09
866.503	8.53
866.676	76.12
866.85	74.07
867.024	51.54
867.197	-20.14
867.371	45.4
867.544	22.87
867.718	-171.69
867.891	59.73
868.065	-36.52
868.238	-13.99
868.412	57.68
868.585	8.53
868.759	-20.14
868.932	47.44
869.105	-108.2
869.279	18.77
869.452	-30.38
869.625	67.92
869.799	22.87
869.972	-106.15
870.145	-40.62
870.319	39.25
870.492	-54.95
870.665	-36.52
870.838	-106.15
871.011	-161.45
871.185	8.53
871.358	-20.14
871.531	16.73
871.704	-61.1
871.877	-5.8
872.05	45.4
872.223	-81.58
872.396	61.78
872.569	63.83
872.742	-108.2
872.915	65.88
873.088	-108.2
873.261	-28.33
873.434	29.01
873.607	16.73
873.78	131.41
873.953	-147.11
874.126	26.96
874.299	67.92
874.471	16.73
874.644	-48.81
874.817	47.44
874.99	141.65
875.163	43.35
875.335	29.01
875.508	-18.09
875.681	-1.71
875.853	-71.34
876.026	26.96
876.199	115.03
876.371	12.63
876.544	74.07
876.717	-63.15
876.889	-52.91
877.062	-13.99
877.234	-52.91
877.407	-44.71
877.579	-42.67
877.752	20.82
877.924	6.49
878.097	37.2
878.269	51.54
878.442	57.68
878.614	72.02
878.786	0.34
878.959	2.39
879.131	53.59
879.303	-89.77
879.476	-38.57
879.648	45.4
879.82	0.34
879.993	-38.57
880.165	-89.77
880.337	-5.8
880.509	39.25
880.681	-73.39
880.854	2.39
881.026	29.01
881.198	194.9
881.37	-9.9
881.542	-26.28
881.714	-16.04
881.886	10.58
882.058	-77.48
882.23	6.49
882.402	0.34
882.574	6.49
882.746	12.63
882.918	90.45
883.09	78.16
883.262	39.25
883.434	-77.48
883.606	-61.1
883.778	24.92
883.95	96.6
884.122	-65.19
884.293	35.16
884.465	61.78
884.637	82.26
884.809	-143.02
884.98	20.82
885.152	0.34
885.324	51.54
885.496	-24.23
885.667	53.59
885.839	16.73
886.011	125.27
886.182	31.06
886.354	57.68
886.525	-20.14
886.697	-18.09
886.869	-28.33
887.04	-190.12
887.212	123.22
887.383	149.84
887.555	-3.75
887.726	-20.14
887.897	-20.14
888.069	67.92
888.24	80.21
888.412	-20.14
888.583	-24.23
888.754	-11.95
888.926	-151.21
889.097	-81.58
889.268	-87.72
889.44	59.73
889.611	-128.68
889.782	-40.62
889.953	-106.15
890.125	69.97
890.296	-52.91
890.467	16.73
890.638	-77.48
890.809	10.58
890.98	-13.99
891.151	-1.71
891.323	84.31
891.494	-22.19
891.665	29.01
891.836	-46.76
892.007	-26.28
892.178	33.11
892.349	-59.05
892.52	-114.34
892.691	-120.49
892.862	24.92
893.032	-122.54
893.203	22.87
893.374	12.63
893.545	63.83
893.716	-128.68
893.887	92.5
894.057	-85.67
894.228	-75.43
894.399	-69.29
894.57	96.6
894.74	0.34
894.911	45.4
895.082	-38.57
895.253	-102.06
895.423	12.63
895.594	102.74
895.764	72.02
895.935	29.01
896.106	-9.9
896.276	20.82
896.447	67.92
896.617	-63.15
896.788	-81.58
896.958	-40.62
897.129	-63.15
897.299	6.49
897.47	14.68
897.64	22.87
897.81	-57
897.981	6.49
898.151	-75.43
898.322	88.4
898.492	69.97
898.662	-130.73
898.832	55.64
899.003	43.35
899.173	43.35
899.343	-3.75
899.513	-52.91
