Data from USB4F104151__66__10-27-04-123.txt Node

Date: Wed Feb 26 10:27:04 EST 2025
User: louis
Spectrometer: USB4F10415
Trigger mode: 4
Integration Time (sec): 1.000000E-1
Scans to average: 1
Electric dark correction enabled: true
Nonlinearity correction enabled: false
Boxcar width: 0
XAxis mode: Wavelengths
Number of Pixels in Spectrum: 3648
>>>>>Begin Spectral Data<<<<<
178.204	-391.67
178.424	-391.67
178.644	-391.67
178.864	-379.39
179.084	-350.71
179.304	7.68
179.524	13.82
179.744	-12.8
179.964	11.78
180.184	19.97
180.404	-23.04
180.624	40.45
180.844	30.21
181.064	-74.24
181.283	5.63
181.503	-53.76
181.723	34.3
181.943	-68.09
182.163	148.99
182.383	-78.33
182.602	93.69
182.822	165.37
183.042	116.22
183.262	40.45
183.482	-55.81
183.701	-14.85
183.921	19.97
184.141	-23.04
184.361	99.84
184.58	22.02
184.8	38.4
185.02	-82.43
185.239	34.3
185.459	99.84
185.679	124.41
185.898	-102.91
186.118	46.59
186.338	1.54
186.557	177.66
186.777	-4.61
186.997	17.92
187.216	26.11
187.436	255.48
187.655	46.59
187.875	69.12
188.095	22.02
188.314	130.56
188.534	132.61
188.753	-82.43
188.973	101.89
189.192	210.43
189.412	67.07
189.631	1.54
189.851	69.12
190.07	185.85
190.29	-16.9
190.509	-8.7
190.729	11.78
190.948	116.22
191.168	124.41
191.387	62.98
191.607	36.35
191.826	34.3
192.045	1.54
192.265	77.31
192.484	73.21
192.704	56.83
192.923	-68.09
193.142	198.14
193.362	50.69
193.581	91.65
193.8	91.65
194.02	32.26
194.239	22.02
194.458	81.41
194.678	40.45
194.897	34.3
195.116	-10.75
195.335	9.73
195.555	15.87
195.774	-18.94
195.993	167.42
196.212	34.3
196.432	44.54
196.651	-55.81
196.87	120.32
197.089	237.05
197.308	71.17
197.528	11.78
197.747	-20.99
197.966	87.55
198.185	118.27
198.404	5.63
198.623	97.79
198.842	95.74
199.062	144.89
199.281	132.61
199.5	-27.14
199.719	54.78
199.938	44.54
200.157	87.55
200.376	83.45
200.595	81.41
200.814	95.74
201.033	-117.25
201.252	161.28
201.471	67.07
201.69	65.02
201.909	7.68
202.128	103.93
202.347	87.55
202.566	28.16
202.785	-107.01
203.004	-12.8
203.223	163.33
203.442	36.35
203.661	38.4
203.879	38.4
204.098	118.27
204.317	-37.38
204.536	112.13
204.755	114.17
204.974	87.55
205.193	36.35
205.411	116.22
205.63	48.64
205.849	93.69
206.068	-4.61
206.287	-66.05
206.505	128.51
206.724	105.98
206.943	40.45
207.162	-29.18
207.381	95.74
207.599	-27.14
207.818	-31.23
208.037	9.73
208.255	-43.52
208.474	-47.62
208.693	126.46
208.911	-29.18
209.13	65.02
209.349	52.74
209.567	79.36
209.786	124.41
210.005	99.84
210.223	32.26
210.442	-90.62
210.661	-14.85
210.879	-14.85
211.098	-8.7
211.316	-10.75
211.535	73.21
211.753	22.02
211.972	91.65
212.191	-4.61
212.409	85.5
212.628	-20.99
212.846	15.87
213.065	91.65
213.283	134.65
213.502	42.5
213.72	50.69
213.938	38.4
214.157	38.4
214.375	108.03
214.594	-14.85
214.812	114.17
215.031	-70.14
215.249	95.74
215.467	-37.38
215.686	77.31
215.904	79.36
216.122	28.16
216.341	130.56
216.559	85.5
216.778	75.26
216.996	77.31
217.214	-23.04
217.432	-49.66
217.651	-68.09
217.869	54.78
218.087	24.06
218.306	22.02
218.524	114.17
218.742	-23.04
218.96	108.03
219.179	38.4
219.397	-61.95
219.615	284.16
219.833	77.31
220.051	-43.52
220.27	60.93
220.488	69.12
220.706	83.45
220.924	-6.66
221.142	-41.47
221.36	-6.66
221.578	85.5
221.796	22.02
222.015	40.45
222.233	1.54
222.451	87.55
222.669	-94.72
222.887	128.51
223.105	-14.85
223.323	15.87
223.541	-27.14
223.759	13.82
223.977	-6.66
224.195	214.52
224.413	71.17
224.631	5.63
224.849	124.41
225.067	232.96
225.285	-31.23
225.503	-80.38
225.721	-127.49
225.939	30.21
226.157	48.64
226.375	216.57
226.592	-2.56
226.81	42.5
227.028	134.65
227.246	112.13
227.464	69.12
227.682	124.41
227.9	81.41
228.117	58.88
228.335	30.21
228.553	19.97
228.771	3.58
228.989	50.69
229.206	62.98
229.424	-61.95
229.642	22.02
229.86	-8.7
230.077	192
230.295	103.93
230.513	108.03
230.731	89.6
230.948	153.09
231.166	138.75
231.384	-51.71
231.601	-43.52
231.819	144.89
232.037	11.78
232.254	-66.05
232.472	1.54
232.689	-2.56
232.907	175.61
233.125	11.78
233.342	-61.95
233.56	79.36
233.777	54.78
233.995	-4.61
234.213	65.02
234.43	40.45
234.648	-12.8
234.865	9.73
235.083	105.98
235.3	56.83
235.518	105.98
235.735	161.28
235.953	67.07
236.17	58.88
236.388	34.3
236.605	73.21
236.822	155.13
237.04	89.6
237.257	46.59
237.475	-94.72
237.692	19.97
237.909	146.94
238.127	-59.9
238.344	-31.23
238.562	-37.38
238.779	-70.14
238.996	34.3
239.214	38.4
239.431	116.22
239.648	-20.99
239.865	40.45
240.083	89.6
240.3	-49.66
240.517	-23.04
240.735	67.07
240.952	91.65
241.169	11.78
241.386	120.32
241.603	-35.33
241.821	-111.1
242.038	108.03
242.255	52.74
242.472	-43.52
242.689	73.21
242.907	-8.7
243.124	30.21
243.341	83.45
243.558	-64
243.775	-23.04
243.992	-33.28
244.209	146.94
244.426	138.75
244.643	46.59
244.86	50.69
245.078	87.55
245.295	46.59
245.512	-12.8
245.729	-37.38
245.946	208.38
246.163	58.88
246.38	13.82
246.597	-10.75
246.814	7.68
247.031	105.98
247.248	75.26
247.464	62.98
247.681	38.4
247.898	93.69
248.115	17.92
248.332	36.35
248.549	126.46
248.766	97.79
248.983	105.98
249.2	134.65
249.417	34.3
249.633	-39.42
249.85	99.84
250.067	13.82
250.284	44.54
250.501	93.69
250.717	105.98
250.934	-100.86
251.151	60.93
251.368	-31.23
251.585	134.65
251.801	3.58
252.018	-53.76
252.235	50.69
252.451	-55.81
252.668	36.35
252.885	148.99
253.102	67.07
253.318	-35.33
253.535	-45.57
253.752	-8.7
253.968	-0.51
254.185	-72.19
254.401	24.06
254.618	136.7
254.835	-10.75
255.051	148.99
255.268	38.4
255.484	97.79
255.701	-31.23
255.917	5.63
256.134	15.87
256.351	13.82
256.567	-39.42
256.784	40.45
257	-53.76
257.217	108.03
257.433	73.21
257.65	24.06
257.866	81.41
258.082	-76.29
258.299	-23.04
258.515	79.36
258.732	-18.94
258.948	-80.38
259.165	22.02
259.381	-59.9
259.597	91.65
259.814	79.36
260.03	40.45
260.246	69.12
260.463	97.79
260.679	159.23
260.895	5.63
261.112	114.17
261.328	-64
261.544	-51.71
261.761	112.13
261.977	11.78
262.193	11.78
262.409	97.79
262.626	1.54
262.842	30.21
263.058	-12.8
263.274	116.22
263.49	7.68
263.707	32.26
263.923	93.69
264.139	-162.3
264.355	-4.61
264.571	116.22
264.787	7.68
265.004	126.46
265.22	71.17
265.436	-59.9
265.652	-2.56
265.868	22.02
266.084	-59.9
266.3	9.73
266.516	-23.04
266.732	38.4
266.948	-6.66
267.164	-43.52
267.38	99.84
267.596	56.83
267.812	196.09
268.028	85.5
268.244	5.63
268.46	-0.51
268.676	-18.94
268.892	5.63
269.108	-18.94
269.324	1.54
269.54	30.21
269.756	85.5
269.972	-59.9
270.188	15.87
270.403	-20.99
270.619	-25.09
270.835	99.84
271.051	-98.81
271.267	-59.9
271.483	-31.23
271.698	95.74
271.914	67.07
272.13	30.21
272.346	36.35
272.562	1.54
272.777	54.78
272.993	-10.75
273.209	-31.23
273.425	105.98
273.64	-119.29
273.856	67.07
274.072	-82.43
274.287	-25.09
274.503	44.54
274.719	93.69
274.934	-45.57
275.15	-78.33
275.366	-0.51
275.581	-45.57
275.797	-12.8
276.012	75.26
276.228	-16.9
276.444	7.68
276.659	42.5
276.875	-57.86
277.09	-31.23
277.306	44.54
277.521	38.4
277.737	91.65
277.952	91.65
278.168	11.78
278.383	-10.75
278.599	17.92
278.814	52.74
279.03	15.87
279.245	148.99
279.461	83.45
279.676	128.51
279.892	-59.9
280.107	-37.38
280.322	-18.94
280.538	28.16
280.753	-25.09
280.969	93.69
281.184	56.83
281.399	155.13
281.615	52.74
281.83	177.66
282.045	-72.19
282.26	11.78
282.476	13.82
282.691	97.79
282.906	67.07
283.122	60.93
283.337	5.63
283.552	44.54
283.767	9.73
283.983	48.64
284.198	40.45
284.413	67.07
284.628	-61.95
284.843	24.06
285.058	71.17
285.274	38.4
285.489	-47.62
285.704	128.51
285.919	3.58
286.134	-4.61
286.349	38.4
286.564	26.11
286.779	208.38
286.995	-0.51
287.21	-43.52
287.425	101.89
287.64	-6.66
287.855	34.3
288.07	-53.76
288.285	95.74
288.5	132.61
288.715	65.02
288.93	5.63
289.145	9.73
289.36	97.79
289.575	46.59
289.79	97.79
290.004	-18.94
290.219	132.61
290.434	-31.23
290.649	-33.28
290.864	19.97
291.079	-25.09
291.294	62.98
291.509	11.78
291.724	-57.86
291.938	-18.94
292.153	87.55
292.368	-8.7
292.583	60.93
292.798	110.08
293.012	81.41
293.227	116.22
293.442	-86.53
293.657	122.37
293.871	132.61
294.086	-27.14
294.301	153.09
294.516	103.93
294.73	44.54
294.945	-4.61
295.16	34.3
295.374	136.7
295.589	128.51
295.804	-31.23
296.018	50.69
296.233	77.31
296.447	54.78
296.662	-55.81
296.877	130.56
297.091	120.32
297.306	44.54
297.52	-4.61
297.735	105.98
297.949	60.93
298.164	-0.51
298.378	54.78
298.593	-43.52
298.807	-100.86
299.022	26.11
299.236	136.7
299.451	-47.62
299.665	30.21
299.88	26.11
300.094	124.41
300.309	-16.9
300.523	50.69
300.737	-72.19
300.952	95.74
301.166	26.11
301.381	-43.52
301.595	-20.99
301.809	32.26
302.024	44.54
302.238	-47.62
302.452	85.5
302.667	73.21
302.881	83.45
303.095	220.67
303.309	103.93
303.524	22.02
303.738	48.64
303.952	32.26
304.166	56.83
304.381	-107.01
304.595	206.33
304.809	-47.62
305.023	11.78
305.237	75.26
305.452	52.74
305.666	134.65
305.88	52.74
306.094	69.12
306.308	83.45
306.522	75.26
306.736	-35.33
306.95	67.07
307.164	46.59
307.379	-20.99
307.593	165.37
307.807	67.07
308.021	73.21
308.235	83.45
308.449	-86.53
308.663	22.02
308.877	214.52
309.091	75.26
309.305	101.89
309.519	-39.42
309.733	142.85
309.947	-74.24
310.161	165.37
310.374	13.82
310.588	97.79
310.802	-8.7
311.016	5.63
311.23	128.51
311.444	-37.38
311.658	-8.7
311.872	155.13
312.085	155.13
312.299	46.59
312.513	175.61
312.727	62.98
312.941	-88.57
313.154	11.78
313.368	28.16
313.582	58.88
313.796	105.98
314.009	-14.85
314.223	120.32
314.437	36.35
314.651	114.17
314.864	9.73
315.078	73.21
315.292	-20.99
315.505	-23.04
315.719	79.36
315.933	13.82
316.146	-20.99
316.36	19.97
316.573	148.99
316.787	136.7
317.001	71.17
317.214	-20.99
317.428	65.02
317.641	-98.81
317.855	-53.76
318.068	28.16
318.282	75.26
318.495	159.23
318.709	69.12
318.922	15.87
319.136	120.32
319.349	-2.56
319.563	-12.8
319.776	73.21
319.99	-57.86
320.203	60.93
320.417	42.5
320.63	110.08
320.843	181.76
321.057	56.83
321.27	5.63
321.483	40.45
321.697	148.99
321.91	52.74
322.124	40.45
322.337	50.69
322.55	22.02
322.763	-27.14
322.977	-45.57
323.19	71.17
323.403	99.84
323.617	93.69
323.83	112.13
324.043	46.59
324.256	79.36
324.469	-57.86
324.683	56.83
324.896	30.21
325.109	60.93
325.322	-68.09
325.535	112.13
325.748	108.03
325.962	15.87
326.175	30.21
326.388	67.07
326.601	108.03
326.814	42.5
327.027	65.02
327.24	181.76
327.453	-10.75
327.666	81.41
327.879	159.23
328.092	22.02
328.305	83.45
328.518	-0.51
328.731	-14.85
328.944	3.58
329.157	85.5
329.37	-4.61
329.583	175.61
329.796	89.6
330.009	-123.39
330.222	167.42
330.435	114.17
330.648	161.28
330.861	38.4
331.073	73.21
331.286	58.88
331.499	44.54
331.712	-53.76
331.925	93.69
332.138	22.02
332.35	65.02
332.563	-64
332.776	42.5
332.989	65.02
333.202	44.54
333.414	3.58
333.627	-55.81
333.84	52.74
334.053	87.55
334.265	5.63
334.478	1.54
334.691	26.11
334.903	62.98
335.116	-64
335.329	-2.56
335.541	60.93
335.754	202.24
335.966	46.59
336.179	54.78
336.392	11.78
336.604	-12.8
336.817	97.79
337.029	-0.51
337.242	-23.04
337.454	110.08
337.667	26.11
337.88	97.79
338.092	-4.61
338.305	110.08
338.517	-33.28
338.729	81.41
338.942	22.02
339.154	-39.42
339.367	-39.42
339.579	54.78
339.792	15.87
340.004	108.03
340.217	32.26
340.429	65.02
340.641	-37.38
340.854	3.58
341.066	34.3
341.278	120.32
341.491	112.13
341.703	-33.28
341.915	-84.48
342.128	75.26
342.34	3.58
342.552	-84.48
342.764	77.31
342.977	3.58
343.189	13.82
343.401	-2.56
343.613	-96.77
343.826	-23.04
344.038	-6.66
344.25	101.89
344.462	15.87
344.674	65.02
344.886	-49.66
345.099	-6.66
345.311	62.98
345.523	19.97
345.735	-64
345.947	83.45
346.159	-59.9
346.371	13.82
346.583	-0.51
346.795	194.05
347.007	30.21
347.219	148.99
347.431	15.87
347.643	138.75
347.855	11.78
348.067	196.09
348.279	-31.23
348.491	89.6
348.703	101.89
348.915	112.13
349.127	-27.14
349.339	67.07
349.551	-18.94
349.763	101.89
349.975	44.54
350.187	71.17
350.399	116.22
350.61	9.73
350.822	7.68
351.034	73.21
351.246	54.78
351.458	52.74
351.669	69.12
351.881	122.37
352.093	114.17
352.305	153.09
352.517	112.13
352.728	144.89
352.94	-10.75
353.152	85.5
353.363	-72.19
353.575	112.13
353.787	120.32
353.999	54.78
354.21	181.76
354.422	-66.05
354.633	13.82
354.845	44.54
355.057	134.65
355.268	62.98
355.48	44.54
355.692	-107.01
355.903	11.78
356.115	-25.09
356.326	-98.81
356.538	108.03
356.749	-23.04
356.961	75.26
357.172	5.63
357.384	11.78
357.595	99.84
357.807	52.74
358.018	28.16
358.23	9.73
358.441	192
358.653	32.26
358.864	19.97
359.075	-51.71
359.287	58.88
359.498	52.74
359.709	128.51
359.921	-43.52
360.132	56.83
360.344	38.4
360.555	11.78
360.766	67.07
360.977	-25.09
361.189	73.21
361.4	54.78
361.611	138.75
361.823	116.22
362.034	-0.51
362.245	-59.9
362.456	50.69
362.667	5.63
362.879	19.97
363.09	1.54
363.301	-12.8
363.512	7.68
363.723	-86.53
363.935	-27.14
364.146	77.31
364.357	28.16
364.568	99.84
364.779	-41.47
364.99	71.17
365.201	-35.33
365.412	79.36
365.623	-2.56
365.834	132.61
366.045	15.87
366.256	73.21
366.467	67.07
366.678	38.4
366.889	79.36
367.1	-18.94
367.311	155.13
367.522	-29.18
367.733	26.11
367.944	34.3
368.155	26.11
368.366	28.16
368.577	118.27
368.788	79.36
368.999	36.35
369.209	32.26
369.42	142.85
369.631	226.81
369.842	38.4
370.053	15.87
370.264	-4.61
370.474	-6.66
370.685	26.11
370.896	46.59
371.107	87.55
371.317	73.21
371.528	26.11
371.739	75.26
371.95	22.02
372.16	67.07
372.371	-127.49
372.582	58.88
372.792	97.79
373.003	-31.23
373.214	116.22
373.424	83.45
373.635	-61.95
373.846	153.09
374.056	52.74
374.267	52.74
374.477	110.08
374.688	17.92
374.898	42.5
375.109	-8.7
375.319	7.68
375.53	112.13
375.74	26.11
375.951	-37.38
376.161	19.97
376.372	77.31
376.582	1.54
376.793	-49.66
377.003	-14.85
377.214	17.92
377.424	30.21
377.635	22.02
377.845	71.17
378.055	122.37
378.266	-86.53
378.476	22.02
378.686	105.98
378.897	153.09
379.107	116.22
379.317	1.54
379.528	44.54
379.738	140.8
379.948	-64
380.158	105.98
380.369	-0.51
380.579	17.92
380.789	-47.62
380.999	52.74
381.21	97.79
381.42	206.33
381.63	69.12
381.84	138.75
382.05	103.93
382.261	65.02
382.471	97.79
382.681	32.26
382.891	52.74
383.101	99.84
383.311	-61.95
383.521	-31.23
383.731	42.5
383.941	153.09
384.151	77.31
384.361	-4.61
384.571	105.98
384.781	44.54
384.991	136.7
385.201	165.37
385.411	44.54
385.621	46.59
385.831	-2.56
386.041	48.64
386.251	-14.85
386.461	79.36
386.671	50.69
386.881	52.74
387.091	-14.85
387.301	116.22
387.511	30.21
387.72	48.64
387.93	85.5
388.14	-2.56
388.35	46.59
388.56	138.75
388.769	48.64
388.979	85.5
389.189	50.69
389.399	38.4
389.609	108.03
389.818	-6.66
390.028	112.13
390.238	60.93
390.447	-37.38
390.657	67.07
390.867	34.3
391.076	-100.86
391.286	32.26
391.496	83.45
391.705	5.63
391.915	65.02
392.125	75.26
392.334	40.45
392.544	151.04
392.753	44.54
392.963	-4.61
393.172	42.5
393.382	-2.56
393.591	110.08
393.801	1.54
394.01	116.22
394.22	77.31
394.429	-33.28
394.639	17.92
394.848	71.17
395.058	-23.04
395.267	-8.7
395.477	60.93
395.686	24.06
395.895	130.56
396.105	177.66
396.314	77.31
396.524	-27.14
396.733	30.21
396.942	122.37
397.152	93.69
397.361	81.41
397.57	79.36
397.78	-6.66
397.989	153.09
398.198	183.81
398.407	85.5
398.617	-16.9
398.826	-2.56
399.035	54.78
399.244	48.64
399.453	89.6
399.663	83.45
399.872	91.65
400.081	-37.38
400.29	103.93
400.499	-41.47
400.708	120.32
400.917	-33.28
401.127	1.54
401.336	-27.14
401.545	192
401.754	120.32
401.963	114.17
402.172	-12.8
402.381	-35.33
402.59	77.31
402.799	13.82
403.008	120.32
403.217	26.11
403.426	46.59
403.635	-100.86
403.844	73.21
404.053	-27.14
404.262	-2.56
404.471	142.85
404.68	40.45
404.888	19.97
405.097	32.26
405.306	69.12
405.515	122.37
405.724	15.87
405.933	83.45
406.142	103.93
406.35	95.74
406.559	44.54
406.768	124.41
406.977	24.06
407.185	54.78
407.394	52.74
407.603	-6.66
407.812	71.17
408.02	79.36
408.229	-6.66
408.438	52.74
408.646	1.54
408.855	-4.61
409.064	40.45
409.272	28.16
409.481	67.07
409.69	-47.62
409.898	-84.48
410.107	13.82
410.315	58.88
410.524	-6.66
410.733	-0.51
410.941	13.82
411.15	130.56
411.358	30.21
411.567	79.36
411.775	32.26
411.984	36.35
412.192	101.89
412.401	-12.8
412.609	169.47
412.818	110.08
413.026	75.26
413.234	36.35
413.443	-18.94
413.651	-49.66
413.86	19.97
414.068	222.72
414.276	146.94
414.485	-18.94
414.693	144.89
414.901	253.44
415.11	85.5
415.318	7.68
415.526	22.02
415.734	101.89
415.943	34.3
416.151	134.65
416.359	46.59
416.567	120.32
416.776	79.36
416.984	118.27
417.192	130.56
417.4	40.45
417.608	5.63
417.817	1.54
418.025	130.56
418.233	167.42
418.441	-41.47
418.649	-31.23
418.857	38.4
419.065	103.93
419.273	-0.51
419.481	60.93
419.689	7.68
419.897	22.02
420.105	9.73
420.313	89.6
420.521	163.33
420.729	87.55
420.937	-35.33
421.145	-27.14
421.353	124.41
421.561	140.8
421.769	54.78
421.977	19.97
422.185	159.23
422.393	13.82
422.601	181.76
422.809	58.88
423.017	22.02
423.224	69.12
423.432	128.51
423.64	34.3
423.848	128.51
424.056	-2.56
424.263	95.74
424.471	60.93
424.679	171.52
424.887	-59.9
425.094	124.41
425.302	34.3
425.51	52.74
425.718	87.55
425.925	101.89
426.133	-51.71
426.341	218.62
426.548	-33.28
426.756	13.82
426.964	108.03
427.171	-66.05
427.379	122.37
427.586	11.78
427.794	50.69
428.001	128.51
428.209	97.79
428.417	114.17
428.624	87.55
428.832	38.4
429.039	124.41
429.247	60.93
429.454	83.45
429.662	140.8
429.869	112.13
430.076	87.55
430.284	153.09
430.491	99.84
430.699	173.57
430.906	177.66
431.114	87.55
431.321	159.23
431.528	65.02
431.736	22.02
431.943	105.98
432.15	103.93
432.358	120.32
432.565	216.57
432.772	1.54
432.979	245.24
433.187	103.93
433.394	144.89
433.601	103.93
433.808	173.57
434.016	161.28
434.223	192
434.43	173.57
434.637	284.16
434.844	220.67
435.052	228.86
435.259	206.33
435.466	288.25
435.673	247.29
435.88	306.68
436.087	261.63
436.294	329.21
436.501	222.72
436.708	224.76
436.915	237.05
437.122	280.06
437.329	257.53
437.537	284.16
437.743	306.68
437.95	357.88
438.157	329.21
438.364	351.74
438.571	335.35
438.778	419.32
438.985	378.36
439.192	452.09
439.399	427.51
439.606	450.04
439.813	542.2
440.02	495.1
440.227	605.69
440.433	527.86
440.64	435.71
440.847	437.75
441.054	585.21
441.261	601.59
441.467	497.14
441.674	505.34
441.881	671.22
442.088	632.31
442.294	615.93
442.501	728.56
442.708	724.47
442.914	685.56
443.121	755.19
443.328	869.87
443.534	747
443.741	800.24
443.948	773.62
444.154	843.25
444.361	968.18
444.568	886.26
444.774	992.75
444.981	808.44
445.187	1170.93
445.394	1025.52
445.6	1058.29
445.807	1218.03
446.013	1226.22
446.22	1201.65
446.426	1189.36
446.633	1312.24
446.839	1541.61
447.046	1222.13
447.252	1564.14
447.459	1418.73
447.665	1482.22
447.871	1637.86
448.078	1691.11
448.284	1754.6
448.491	1893.86
448.697	1863.14
448.903	2002.4
449.11	1953.25
449.316	1940.96
449.522	2043.36
449.728	2272.73
449.935	2348.51
450.141	2405.85
450.347	2438.62
450.553	2483.67
450.76	2534.87
450.966	2635.22
451.172	2741.72
451.378	2926.04
451.584	2889.17
451.791	3190.22
451.997	3130.83
452.203	3136.98
452.409	3505.61
452.615	3452.36
452.821	3440.08
453.027	3540.43
453.233	3868.1
453.44	3818.95
453.646	3990.98
453.852	4048.32
454.058	4472.25
454.264	4406.72
454.47	4621.75
454.676	4920.76
454.882	5189.04
455.088	5002.68
455.294	5223.86
455.5	5621.16
455.705	5899.69
455.911	5893.54
456.117	5959.08
456.323	6344.1
456.529	6419.87
456.735	6878.62
456.941	7032.21
457.147	7366.03
457.352	7320.98
457.558	7658.89
457.764	8332.67
457.97	8277.38
458.176	8760.7
458.381	9067.89
458.587	9268.59
458.793	9897.32
458.999	9813.35
459.204	11074.9
459.41	11281.75
459.616	11232.6
459.821	11730.25
460.027	12555.58
460.233	12782.91
460.438	13040.95
460.644	13602.1
460.85	13821.23
461.055	14282.02
461.261	15166.74
461.466	14841.12
461.672	15113.5
461.878	16946.43
462.083	16780.54
462.289	16733.44
462.494	17724.66
462.7	17593.59
462.905	17939.69
463.111	19512.53
463.316	20317.39
463.522	20942.02
463.727	21425.34
463.932	22434.99
464.138	22772.9
464.343	23819.41
464.549	24540.3
464.754	25875.57
464.959	26522.73
465.165	27407.45
465.37	26567.79
465.575	26944.61
465.781	28376.14
465.986	29598.78
466.191	28795.98
466.397	29150.28
466.602	28562.51
466.807	30043.19
467.012	30905.38
467.218	31071.27
467.423	31597.6
467.628	32693.26
467.833	33967.1
468.038	33176.58
468.244	32709.64
468.449	33987.58
468.654	33176.58
468.859	33571.84
469.064	33989.63
469.269	32285.72
469.474	32764.94
469.679	33879.04
469.885	33061.9
470.09	33289.22
470.295	33680.38
470.5	32971.78
470.705	33100.81
470.91	32148.5
471.115	32097.3
471.32	32201.75
471.525	32396.31
471.73	31169.57
471.935	30954.54
472.139	29758.52
472.344	29912.12
472.549	29797.43
472.754	29191.23
472.959	28191.83
473.164	27298.91
473.369	27303.01
473.574	27833.43
473.778	27384.93
473.983	26561.64
474.188	26102.9
474.393	24863.88
474.598	24870.02
474.802	24407.18
475.007	24218.77
475.212	24083.6
475.417	22865.06
475.621	22779.04
475.826	22299.82
476.031	22068.4
476.235	21554.36
476.44	21650.61
476.645	21097.66
476.849	20755.65
477.054	20583.62
477.259	19930.32
477.463	19821.78
477.668	19680.47
477.872	19555.54
478.077	18838.75
478.282	18257.13
478.486	18234.6
478.691	18207.98
478.895	17728.75
479.1	17683.7
479.304	17577.2
479.509	16903.42
479.713	17175.8
479.918	16661.76
480.122	16319.75
480.326	16846.08
480.531	16588.03
480.735	16065.8
480.94	15996.17
481.144	16721.15
481.348	15686.93
481.553	15666.45
481.757	15336.73
481.961	15562
482.166	15697.17
482.37	15543.57
482.574	15158.55
482.778	14873.89
482.983	15367.45
483.187	14939.42
483.391	14667.04
483.595	14693.66
483.8	14302.5
484.004	14388.52
484.208	14370.08
484.412	14066.99
484.616	13849.9
484.821	13917.48
485.025	13428.02
485.229	13673.78
485.433	13335.86
485.637	13012.28
485.841	12713.28
486.045	12905.79
486.249	12680.51
486.453	12387.65
486.657	12373.32
486.861	12068.17
487.065	11713.87
487.269	11902.28
487.473	11228.5
487.677	11476.3
487.881	11371.86
488.085	10902.87
488.289	10802.52
488.493	10448.22
488.697	10605.92
488.901	10339.68
489.105	10005.86
489.309	9694.57
489.512	9745.77
489.716	9434.48
489.92	9465.2
490.124	9282.93
490.328	9190.77
490.531	8854.9
490.735	8879.48
490.939	8500.61
491.143	8457.6
491.346	8385.92
491.55	8226.18
491.754	7959.94
491.958	8078.72
492.161	7603.6
492.365	7560.59
492.569	7470.48
492.772	7261.59
492.976	7445.9
493.18	7142.8
493.383	7026.07
493.587	6995.35
493.79	6962.58
493.994	6768.02
494.197	6735.26
494.401	6532.51
494.605	6405.53
494.808	6485.41
495.012	6380.96
495.215	6485.41
495.419	6397.34
495.622	6233.5
495.825	6251.94
496.029	6067.62
496.232	6053.28
496.436	6088.1
496.639	6110.63
496.843	5940.65
497.046	6165.92
497.249	6227.36
497.453	6129.06
497.656	6010.28
497.859	6096.29
498.063	6108.58
498.266	6180.26
498.469	5825.96
498.673	5985.7
498.876	5993.89
499.079	5979.56
499.282	5959.08
499.485	6333.86
499.689	6124.96
499.892	6104.48
500.095	6208.93
500.298	6118.82
500.501	5934.5
500.705	6231.46
500.908	6292.9
501.111	6219.17
501.314	6137.25
501.517	6503.84
501.72	6577.56
501.923	6432.16
502.126	6469.02
502.329	6649.24
502.532	6575.52
502.735	6604.19
502.938	6968.73
503.141	6890.9
503.344	7009.69
503.547	7110.04
503.75	6999.45
503.953	6948.25
504.156	7386.51
504.359	7392.66
504.562	7433.61
504.765	7507.34
504.968	7638.41
505.17	7705.99
505.373	7812.49
505.576	8052.1
505.779	8226.18
505.982	8043.91
506.185	8365.44
506.387	8336.77
506.59	8637.82
506.793	8775.03
506.996	8754.55
507.198	9041.27
507.401	9102.71
507.604	9196.92
507.807	9276.79
508.009	9672.04
508.212	9801.07
508.415	9946.47
508.617	9993.58
508.82	10188.13
509.022	10308.96
509.225	10650.97
509.428	10757.47
509.63	11058.52
509.833	11042.14
510.035	11660.62
510.238	11584.85
510.44	11990.35
510.643	12510.53
510.845	12551.49
511.048	12610.88
511.25	12834.11
511.453	13086.01
511.655	13774.13
511.858	13786.41
512.06	14216.49
512.262	14142.76
512.465	14654.75
512.667	14912.8
512.87	15187.22
513.072	15664.4
513.274	16127.24
513.477	16362.76
513.679	16497.92
513.881	16942.33
514.084	17474.81
514.286	17902.83
514.488	18197.74
514.69	18463.97
514.893	18980.06
515.095	19371.22
515.297	19438.81
515.499	19938.51
515.701	20397.26
515.904	20724.93
516.106	21103.81
516.308	21470.39
516.51	22142.13
516.712	22131.89
516.914	22879.39
517.116	23358.62
517.318	23536.79
517.52	23936.15
517.722	24530.06
517.925	24765.57
518.127	25326.72
518.329	26018.93
518.531	25951.35
518.733	26928.23
518.935	27147.36
519.136	27448.41
519.338	28036.18
519.54	28103.76
519.742	28902.47
519.944	29187.14
520.146	29834.3
520.348	29635.64
520.55	30278.71
520.752	30641.2
520.954	31372.32
521.155	31005.73
521.357	31700
521.559	32246.8
521.761	32816.14
521.963	32627.73
522.164	33025.03
522.366	32971.78
522.568	34016.25
522.77	33631.23
522.971	34419.7
523.173	34018.3
523.375	34900.97
523.576	34595.82
523.778	34501.62
523.98	35226.6
524.181	35167.21
524.383	35316.71
524.584	35394.53
524.786	35466.21
524.988	35421.16
525.189	35949.53
525.391	35820.51
525.592	35847.13
525.794	35707.87
525.995	35722.21
526.197	36066.27
526.398	35650.53
526.6	35404.77
526.801	35584.99
527.003	35642.34
527.204	35087.34
527.406	35242.98
527.607	34937.83
527.808	35093.48
528.01	34110.46
528.211	34513.91
528.412	34622.45
528.614	34675.69
528.815	34038.78
529.016	34116.6
529.218	33063.94
529.419	33268.74
529.62	33012.74
529.822	32513.04
530.023	32472.08
530.224	32314.39
530.425	31677.47
530.626	31458.34
530.828	30866.47
531.029	30766.12
531.23	30485.55
531.431	30092.34
531.632	29828.15
531.833	29588.54
532.035	29221.95
532.236	29062.21
532.437	28474.45
532.638	27849.82
532.839	27849.82
533.04	27419.74
533.241	26901.61
533.442	26817.64
533.643	26274.93
533.844	26041.46
534.045	25730.17
534.246	24956.04
534.447	25070.72
534.648	24607.88
534.849	24702.09
535.05	23901.33
535.251	23768.21
535.451	23635.1
535.652	23198.88
535.853	22650.02
536.054	22336.68
536.255	22195.37
536.456	21560.5
536.657	21787.83
536.857	21394.62
537.058	20866.24
537.259	20882.63
537.46	20505.8
537.66	20053.2
537.861	20012.24
538.062	19780.82
538.263	19309.79
538.463	18947.29
538.664	18945.25
538.865	18779.36
539.065	18576.61
539.266	18263.27
539.466	18222.31
539.667	17896.69
539.868	17925.36
540.068	17274.1
540.269	17108.22
540.469	16950.53
540.67	16739.58
540.87	16723.2
541.071	16276.74
541.271	16117
541.472	16073.99
541.672	15824.14
541.873	15578.39
542.073	15279.38
542.274	15623.44
542.474	15113.5
542.675	14867.74
542.875	14753.05
543.075	14419.24
543.276	14130.47
543.476	14333.22
543.676	14023.98
543.877	13931.82
544.077	13856.04
544.277	13772.08
544.478	13403.44
544.678	13284.66
544.878	13215.03
545.078	13153.59
545.279	12899.64
545.479	12864.83
545.679	12653.89
545.879	12217.67
546.079	12436.8
546.28	12225.86
546.48	12025.16
546.68	11978.06
546.88	11836.75
547.08	11523.41
547.28	11597.14
547.48	11195.73
547.68	11210.07
547.88	10976.6
548.081	11025.75
548.281	10601.82
548.481	10634.59
548.681	10734.94
548.881	10421.6
549.081	10159.46
549.28	10065.25
549.48	9917.8
549.68	9928.04
549.88	9768.3
550.08	9686.38
550.28	9399.66
550.48	9479.54
550.68	9137.52
550.88	9112.95
551.08	8949.11
551.279	9018.74
551.479	8729.98
551.679	8717.69
551.879	8236.42
552.079	8398.21
552.278	8117.64
552.478	8193.41
552.678	8045.96
552.878	7972.23
553.077	7740.81
553.277	7538.06
553.477	7546.25
553.676	7505.29
553.876	7210.39
554.076	7146.9
554.275	7118.23
554.475	6712.73
554.674	6825.37
554.874	6714.78
555.074	6610.33
555.273	6481.31
555.473	6518.17
555.672	6325.66
555.872	6266.27
556.071	6073.76
556.271	6196.64
556.47	5934.5
556.67	5725.61
556.869	5750.18
557.068	5539.24
557.268	5580.2
557.467	5479.85
557.667	5502.38
557.866	5369.26
558.065	5010.87
558.265	5047.73
558.464	4894.13
558.663	4988.34
558.863	4974
559.062	4945.33
559.261	4496.83
559.461	4851.13
559.66	4615.61
559.859	4380.09
560.058	4214.21
560.258	4175.3
560.457	4414.91
560.656	4267.45
560.855	4048.32
561.054	4332.99
561.253	4033.99
561.453	3962.31
561.652	3818.95
561.851	3880.39
562.05	3765.7
562.249	3581.39
562.448	3605.96
562.647	3528.14
562.846	3530.19
563.045	3628.49
563.244	3333.58
563.443	3581.39
563.642	3319.25
563.841	3360.2
564.04	3257.81
564.239	3126.74
564.438	3222.99
564.637	3020.24
564.836	3096.02
565.035	2975.19
565.234	3073.49
565.432	3018.19
565.631	2928.08
565.83	2825.68
566.029	2717.14
566.228	2762.2
566.427	2723.29
566.625	2682.33
566.824	2684.38
567.023	2631.13
567.222	2516.44
567.42	2452.95
567.619	2536.92
567.818	2338.27
568.016	2672.09
568.215	2459.1
568.414	2500.06
568.612	2325.98
568.811	2270.69
569.01	2184.67
569.208	2303.45
569.407	2225.63
569.605	2217.44
569.804	2061.79
570.002	2127.33
570.201	2080.22
570.4	2035.17
570.598	1922.53
570.797	2000.35
570.995	1871.33
571.193	1859.04
571.392	1940.96
571.59	1791.46
571.789	1973.73
571.987	1787.36
572.186	1830.37
572.384	1711.59
572.582	1750.5
572.781	1842.66
572.979	1588.71
573.177	1598.95
573.376	1605.1
573.574	1668.58
573.772	1603.05
573.971	1564.14
574.169	1406.44
574.367	1465.83
574.565	1388.01
574.763	1326.57
574.962	1465.83
575.16	1406.44
575.358	1355.24
575.556	1353.2
575.754	1345
575.952	1283.56
576.151	1285.61
576.349	1465.83
576.547	1158.64
576.745	1234.41
576.943	1285.61
577.141	1177.07
577.339	1132.01
577.537	1191.41
577.735	1299.95
577.933	1177.07
578.131	974.32
578.329	1195.5
578.527	1093.1
578.725	1138.16
578.923	988.66
579.121	1226.22
579.319	937.46
579.516	908.79
579.714	1222.13
579.912	1031.66
580.11	859.63
580.308	921.07
580.506	894.45
580.704	833.01
580.901	904.69
581.099	1002.99
581.297	837.11
581.495	816.63
581.692	792.05
581.89	986.61
582.088	783.86
582.285	816.63
582.483	804.34
582.681	822.77
582.878	755.19
583.076	787.96
583.274	734.71
583.471	880.11
583.669	790
583.866	640.5
584.064	759.28
584.262	624.12
584.459	605.69
584.657	687.61
584.854	742.9
585.052	812.53
585.249	650.74
585.447	630.26
585.644	570.87
585.841	773.62
586.039	710.13
586.236	734.71
586.434	507.38
586.631	607.73
586.828	601.59
587.026	658.93
587.223	474.62
587.42	491
587.618	534.01
587.815	648.69
588.012	558.58
588.21	562.68
588.407	499.19
588.604	632.31
588.801	509.43
588.999	529.91
589.196	577.02
589.393	468.47
589.59	544.25
589.787	564.73
589.984	519.67
590.182	513.53
590.379	419.32
590.576	456.19
590.773	427.51
590.97	503.29
591.167	529.91
591.364	509.43
591.561	546.3
591.758	585.21
591.955	503.29
592.152	359.93
592.349	456.19
592.546	468.47
592.743	413.18
592.94	550.39
593.137	495.1
593.334	544.25
593.531	572.92
593.727	521.72
593.924	562.68
594.121	443.9
594.318	421.37
594.515	466.42
594.712	562.68
594.908	685.56
595.105	364.03
595.302	570.87
595.499	556.54
595.696	593.4
595.892	476.66
596.089	574.97
596.286	556.54
596.482	689.65
596.679	626.17
596.876	587.26
597.072	843.25
597.269	630.26
597.466	683.51
597.662	613.88
597.859	615.93
598.055	697.85
598.252	652.79
598.448	822.77
598.645	779.76
598.841	888.31
599.038	968.18
599.234	888.31
599.431	968.18
599.627	1017.33
599.824	1080.82
600.02	1025.52
600.217	1002.99
600.413	1119.73
600.609	1095.15
600.806	1285.61
601.002	1310.19
601.198	1201.65
601.395	1336.81
601.591	1320.43
601.787	1500.65
601.984	1467.88
602.18	1383.91
602.376	1601
602.572	1639.91
602.769	1734.12
602.965	1676.77
603.161	1754.6
603.357	1891.81
603.553	2018.79
603.75	2020.83
603.946	1992.16
604.142	2196.96
604.338	2315.74
604.534	2301.4
604.73	2389.47
604.926	2536.92
605.122	2586.07
605.318	2624.98
605.514	2721.24
605.71	2811.35
605.906	2991.57
606.102	2823.64
606.298	3218.89
606.494	3192.27
606.69	3409.36
606.886	3300.81
607.082	3268.05
607.278	3538.38
607.474	3579.34
607.67	3777.99
607.866	3616.2
608.062	4038.08
608.257	4070.85
608.453	4079.04
608.649	4271.55
608.845	4316.61
609.041	4507.07
609.236	4572.6
609.432	4842.93
609.628	4810.17
609.824	5074.35
610.019	5062.07
610.215	5078.45
610.411	5492.14
610.606	5549.48
610.802	5631.4
610.998	5903.78
611.193	6071.72
611.389	5977.51
611.584	6290.85
611.78	6329.76
611.976	6645.15
612.171	6989.21
612.367	7177.62
612.562	7208.34
612.758	7406.99
612.953	7386.51
613.149	7734.67
613.344	7789.96
613.539	8336.77
613.735	8246.66
613.93	8623.48
614.126	8727.93
614.321	9074.04
614.517	9196.92
614.712	9434.48
614.907	9432.43
615.103	10085.73
615.298	10079.59
615.493	10431.84
615.688	10548.58
615.884	11079
616.079	11212.12
616.274	11679.05
616.47	11795.79
616.665	12131.65
616.86	12285.25
617.055	12709.18
617.25	13153.59
617.445	13374.77
617.641	13307.19
617.836	13894.96
618.031	14153
618.226	14748.96
618.421	14925.08
618.616	15506.71
618.811	15648.02
619.006	16438.53
619.201	16293.13
619.396	16964.86
619.591	16997.63
619.786	17480.95
619.981	17595.64
620.176	18703.59
620.371	18572.52
620.566	19029.21
620.761	19576.02
620.956	20192.46
621.151	19993.81
621.346	20704.45
621.541	20464.84
621.735	21284.03
621.93	21607.61
622.125	22174.89
622.32	22312.11
622.515	22992.03
622.709	23162.01
622.904	23981.2
623.099	24034.45
623.294	24761.48
623.488	25029.76
623.683	25590.91
623.878	25621.63
624.072	26555.5
624.267	26614.89
624.462	27192.42
624.656	27171.94
624.851	28087.38
625.046	28032.08
625.24	28529.74
625.435	29031.49
625.629	29776.95
625.824	29883.45
626.018	30426.16
626.213	30004.28
626.407	30698.54
626.602	31067.17
626.796	31491.1
626.991	32166.93
627.185	32005.14
627.38	32050.2
627.574	32611.34
627.768	32375.83
627.963	32726.03
628.157	32949.26
628.352	32904.2
628.546	32783.37
628.74	33387.52
628.935	32832.52
629.129	33203.21
629.323	32488.46
629.517	32519.18
629.712	32470.03
629.906	32267.28
630.1	32078.87
630.294	31882.27
630.489	31269.92
630.683	31372.32
630.877	30585.9
631.071	30069.81
631.265	29850.68
631.459	29109.32
631.653	28488.78
631.848	28255.31
632.042	27391.07
632.236	26772.58
632.43	25918.58
632.624	25345.15
632.818	24419.47
633.012	23975.06
633.206	23032.99
633.4	22434.99
633.594	21630.13
633.788	21062.85
633.982	20307.15
634.176	19750.1
634.369	18623.72
634.563	18023.66
634.757	17030.4
634.951	16854.27
635.145	16192.78
635.339	15633.68
635.533	14824.73
635.726	14380.32
635.92	13585.71
636.114	13098.3
636.308	12533.06
636.501	12172.61
636.695	11529.55
636.889	11175.25
637.083	10773.85
637.276	10325.35
637.47	9880.94
637.664	9403.76
637.857	9065.85
638.051	8832.38
638.244	8443.26
638.438	7990.66
638.632	7832.97
638.825	7253.39
639.019	7191.95
639.212	6882.71
639.406	6755.74
639.599	6299.04
639.793	6200.74
639.986	5899.69
640.18	5830.06
640.373	5383.6
640.567	5215.66
640.76	5098.93
640.954	4769.21
641.147	4652.47
641.34	4437.44
641.534	4359.61
641.727	4378.05
641.92	4079.04
642.114	3714.5
642.307	3651.02
642.5	3573.19
642.694	3444.17
642.887	3171.79
643.08	3306.96
643.273	3106.26
643.467	2733.53
643.66	2702.81
643.853	2565.59
644.046	2692.57
644.239	2555.35
644.432	2391.52
644.626	2215.39
644.819	2145.76
645.012	2151.9
645.205	2104.8
645.398	2008.55
645.591	1996.26
645.784	1693.16
645.977	1648.1
646.17	1766.89
646.363	1732.07
646.556	1545.7
646.749	1451.5
646.942	1545.7
647.135	1408.49
647.328	1367.53
647.521	1314.28
647.714	1252.84
647.907	1269.23
648.099	1076.72
648.292	1162.73
648.485	1111.54
648.678	1052.14
648.871	1027.57
649.064	957.94
649.256	882.16
649.449	927.22
649.642	763.38
649.835	740.85
650.027	775.67
650.22	824.82
650.413	640.5
650.605	777.72
650.798	695.8
650.991	669.17
651.183	732.66
651.376	728.56
651.568	722.42
651.761	566.78
651.954	566.78
652.146	538.1
652.339	695.8
652.531	699.89
652.724	476.66
652.916	525.82
653.109	370.17
653.301	507.38
653.494	513.53
653.686	472.57
653.879	497.14
654.071	458.23
654.263	374.27
654.456	382.46
654.648	439.8
654.84	443.9
655.033	308.73
655.225	404.99
655.417	314.88
655.61	429.56
655.802	370.17
655.994	581.11
656.186	194.05
656.379	398.84
656.571	263.68
656.763	263.68
656.955	251.39
657.148	224.76
657.34	370.17
657.532	275.96
657.724	275.96
657.916	204.28
658.108	314.88
658.3	359.93
658.492	329.21
658.684	208.38
658.876	312.83
659.068	134.65
659.26	151.04
659.452	151.04
659.644	224.76
659.836	335.35
660.028	228.86
660.22	136.7
660.412	159.23
660.604	208.38
660.796	220.67
660.988	292.35
661.18	237.05
661.372	257.53
661.563	288.25
661.755	138.75
661.947	99.84
662.139	112.13
662.331	151.04
662.522	124.41
662.714	173.57
662.906	93.69
663.097	269.82
663.289	114.17
663.481	77.31
663.673	198.14
663.864	103.93
664.056	247.29
664.247	36.35
664.439	269.82
664.631	120.32
664.822	204.28
665.014	169.47
665.205	58.88
665.397	126.46
665.588	144.89
665.78	159.23
665.971	163.33
666.163	157.18
666.354	192
666.546	93.69
666.737	144.89
666.929	67.07
667.12	50.69
667.311	163.33
667.503	165.37
667.694	81.41
667.885	142.85
668.077	144.89
668.268	-12.8
668.459	148.99
668.651	71.17
668.842	175.61
669.033	134.65
669.224	140.8
669.416	286.2
669.607	116.22
669.798	71.17
669.989	210.43
670.18	167.42
670.371	128.51
670.563	169.47
670.754	294.4
670.945	224.76
671.136	161.28
671.327	140.8
671.518	241.15
671.709	308.73
671.9	200.19
672.091	257.53
672.282	177.66
672.473	171.52
672.664	110.08
672.855	159.23
673.046	157.18
673.237	112.13
673.428	118.27
673.619	202.24
673.809	105.98
674	323.07
674.191	204.28
674.382	54.78
674.573	173.57
674.764	161.28
674.954	290.3
675.145	110.08
675.336	194.05
675.527	118.27
675.717	108.03
675.908	148.99
676.099	62.98
676.289	200.19
676.48	54.78
676.671	218.62
676.861	173.57
677.052	212.48
677.243	140.8
677.433	208.38
677.624	314.88
677.814	202.24
678.005	214.52
678.195	235
678.386	230.91
678.576	181.76
678.767	142.85
678.957	222.72
679.148	265.72
679.338	271.87
679.529	220.67
679.719	179.71
679.909	230.91
680.1	304.64
680.29	300.54
680.481	161.28
680.671	286.2
680.861	251.39
681.052	286.2
681.242	175.61
681.432	296.44
681.622	269.82
681.813	202.24
682.003	239.1
682.193	189.95
682.383	140.8
682.573	235
682.764	310.78
682.954	235
683.144	302.59
683.334	265.72
683.524	245.24
683.714	331.26
683.904	273.92
684.094	280.06
684.284	339.45
684.474	421.37
684.664	343.55
684.854	337.4
685.044	339.45
685.234	290.3
685.424	327.16
685.614	269.82
685.804	380.41
685.994	261.63
686.184	386.55
686.374	261.63
686.564	282.11
686.753	269.82
686.943	204.28
687.133	218.62
687.323	251.39
687.513	361.98
687.702	249.34
687.892	232.96
688.082	368.12
688.272	374.27
688.461	255.48
688.651	378.36
688.841	376.31
689.03	235
689.22	325.12
689.41	374.27
689.599	364.03
689.789	353.79
689.979	318.97
690.168	269.82
690.358	308.73
690.547	314.88
690.737	304.64
690.926	345.59
691.116	222.72
691.305	398.84
691.495	347.64
691.684	302.59
691.874	267.77
692.063	243.2
692.252	429.56
692.442	300.54
692.631	228.86
692.82	290.3
693.01	304.64
693.199	237.05
693.388	321.02
693.578	241.15
693.767	314.88
693.956	235
694.146	282.11
694.335	323.07
694.524	239.1
694.713	323.07
694.902	273.92
695.092	224.76
695.281	300.54
695.47	206.33
695.659	138.75
695.848	339.45
696.037	249.34
696.226	337.4
696.415	198.14
696.604	300.54
696.793	302.59
696.982	267.77
697.171	460.28
697.36	185.85
697.549	290.3
697.738	120.32
697.927	189.95
698.116	136.7
698.305	249.34
698.494	192
698.683	265.72
698.872	415.23
699.061	263.68
699.25	230.91
699.438	253.44
699.627	189.95
699.816	331.26
700.005	54.78
700.193	155.13
700.382	269.82
700.571	290.3
700.76	255.48
700.948	280.06
701.137	212.48
701.326	341.5
701.514	216.57
701.703	263.68
701.892	230.91
702.08	454.14
702.269	192
702.457	153.09
702.646	192
702.834	192
703.023	255.48
703.212	230.91
703.4	187.9
703.589	206.33
703.777	153.09
703.965	226.81
704.154	196.09
704.342	118.27
704.531	187.9
704.719	169.47
704.907	282.11
705.096	116.22
705.284	136.7
705.472	151.04
705.661	323.07
705.849	282.11
706.037	347.64
706.226	271.87
706.414	216.57
706.602	118.27
706.79	286.2
706.979	175.61
707.167	245.24
707.355	87.55
707.543	241.15
707.731	265.72
707.919	189.95
708.107	245.24
708.296	196.09
708.484	189.95
708.672	251.39
708.86	210.43
709.048	228.86
709.236	81.41
709.424	220.67
709.612	245.24
709.8	187.9
709.988	165.37
710.176	286.2
710.364	361.98
710.551	171.52
710.739	192
710.927	263.68
711.115	230.91
711.303	275.96
711.491	353.79
711.679	187.9
711.866	273.92
712.054	241.15
712.242	302.59
712.43	333.31
712.617	218.62
712.805	263.68
712.993	237.05
713.181	118.27
713.368	280.06
713.556	189.95
713.744	196.09
713.931	419.32
714.119	263.68
714.306	157.18
714.494	316.92
714.682	239.1
714.869	159.23
715.057	267.77
715.244	54.78
715.432	296.44
715.619	159.23
715.807	243.2
715.994	212.48
716.182	282.11
716.369	378.36
716.556	286.2
716.744	194.05
716.931	126.46
717.119	331.26
717.306	329.21
717.493	222.72
717.681	183.81
717.868	239.1
718.055	290.3
718.242	142.85
718.43	189.95
718.617	382.46
718.804	249.34
718.991	298.49
719.179	286.2
719.366	288.25
719.553	331.26
719.74	269.82
719.927	259.58
720.114	296.44
720.301	214.52
720.488	228.86
720.676	210.43
720.863	398.84
721.05	433.66
721.237	304.64
721.424	382.46
721.611	296.44
721.798	212.48
721.985	185.85
722.172	247.29
722.358	286.2
722.545	265.72
722.732	310.78
722.919	450.04
723.106	243.2
723.293	273.92
723.48	300.54
723.667	275.96
723.853	368.12
724.04	388.6
724.227	402.94
724.414	300.54
724.6	333.31
724.787	386.55
724.974	431.61
725.161	333.31
725.347	271.87
725.534	271.87
725.72	421.37
725.907	454.14
726.094	372.22
726.28	282.11
726.467	321.02
726.653	378.36
726.84	368.12
727.027	447.99
727.213	327.16
727.4	382.46
727.586	396.79
727.773	368.12
727.959	382.46
728.145	392.7
728.332	284.16
728.518	304.64
728.705	300.54
728.891	347.64
729.077	318.97
729.264	349.69
729.45	280.06
729.636	390.65
729.823	472.57
730.009	337.4
730.195	321.02
730.382	394.75
730.568	304.64
730.754	384.51
730.94	353.79
731.126	376.31
731.313	411.13
731.499	376.31
731.685	415.23
731.871	456.19
732.057	378.36
732.243	437.75
732.429	503.29
732.615	538.1
732.801	450.04
732.987	343.55
733.173	364.03
733.359	331.26
733.545	431.61
733.731	331.26
733.917	525.82
734.103	396.79
734.289	450.04
734.475	302.59
734.661	607.73
734.847	302.59
735.033	534.01
735.219	423.42
735.404	341.5
735.59	333.31
735.776	333.31
735.962	460.28
736.148	452.09
736.333	439.8
736.519	466.42
736.705	421.37
736.89	458.23
737.076	400.89
737.262	357.88
737.447	439.8
737.633	386.55
737.819	445.95
738.004	443.9
738.19	419.32
738.375	464.38
738.561	417.27
738.747	417.27
738.932	409.08
739.118	527.86
739.303	491
739.489	425.47
739.674	380.41
739.859	337.4
740.045	531.96
740.23	466.42
740.416	290.3
740.601	429.56
740.786	388.6
740.972	329.21
741.157	400.89
741.342	396.79
741.528	323.07
741.713	536.06
741.898	427.51
742.084	464.38
742.269	415.23
742.454	456.19
742.639	466.42
742.824	396.79
743.01	527.86
743.195	464.38
743.38	450.04
743.565	464.38
743.75	384.51
743.935	464.38
744.12	568.82
744.305	321.02
744.49	323.07
744.675	335.35
744.86	341.5
745.045	407.03
745.23	486.9
745.415	380.41
745.6	497.14
745.785	382.46
745.97	454.14
746.155	355.83
746.34	415.23
746.525	427.51
746.71	435.71
746.895	280.06
747.079	304.64
747.264	386.55
747.449	456.19
747.634	421.37
747.819	392.7
748.003	333.31
748.188	314.88
748.373	466.42
748.557	398.84
748.742	425.47
748.927	435.71
749.111	329.21
749.296	318.97
749.481	308.73
749.665	361.98
749.85	312.83
750.034	325.12
750.219	429.56
750.404	339.45
750.588	423.42
750.773	327.16
750.957	368.12
751.141	267.77
751.326	345.59
751.51	192
751.695	353.79
751.879	243.2
752.064	433.66
752.248	300.54
752.432	378.36
752.617	370.17
752.801	314.88
752.985	251.39
753.17	388.6
753.354	292.35
753.538	339.45
753.722	278.01
753.907	237.05
754.091	173.57
754.275	343.55
754.459	230.91
754.643	296.44
754.828	345.59
755.012	378.36
755.196	179.71
755.38	333.31
755.564	275.96
755.748	237.05
755.932	339.45
756.116	333.31
756.3	329.21
756.484	226.81
756.668	310.78
756.852	151.04
757.036	368.12
757.22	251.39
757.404	179.71
757.588	222.72
757.772	327.16
757.956	241.15
758.14	431.61
758.323	165.37
758.507	325.12
758.691	185.85
758.875	259.58
759.059	278.01
759.242	284.16
759.426	239.1
759.61	200.19
759.794	239.1
759.977	284.16
760.161	407.03
760.345	314.88
760.528	339.45
760.712	257.53
760.895	323.07
761.079	329.21
761.263	130.56
761.446	179.71
761.63	189.95
761.813	257.53
761.997	24.06
762.18	245.24
762.364	239.1
762.547	73.21
762.731	175.61
762.914	228.86
763.098	185.85
763.281	167.42
763.464	239.1
763.648	171.52
763.831	148.99
764.015	99.84
764.198	259.58
764.381	214.52
764.564	220.67
764.748	212.48
764.931	179.71
765.114	189.95
765.297	214.52
765.481	146.94
765.664	122.37
765.847	136.7
766.03	347.64
766.213	134.65
766.397	132.61
766.58	103.93
766.763	185.85
766.946	85.5
767.129	159.23
767.312	140.8
767.495	85.5
767.678	95.74
767.861	138.75
768.044	140.8
768.227	167.42
768.41	83.45
768.593	167.42
768.776	202.24
768.959	134.65
769.142	204.28
769.324	171.52
769.507	128.51
769.69	183.81
769.873	198.14
770.056	294.4
770.239	202.24
770.421	165.37
770.604	275.96
770.787	151.04
770.97	122.37
771.152	169.47
771.335	189.95
771.518	103.93
771.7	237.05
771.883	226.81
772.066	48.64
772.248	138.75
772.431	165.37
772.613	220.67
772.796	157.18
772.978	189.95
773.161	187.9
773.343	19.97
773.526	110.08
773.708	-2.56
773.891	38.4
774.073	103.93
774.256	48.64
774.438	265.72
774.621	32.26
774.803	132.61
774.985	112.13
775.168	161.28
775.35	130.56
775.532	153.09
775.715	19.97
775.897	124.41
776.079	194.05
776.261	95.74
776.444	112.13
776.626	89.6
776.808	177.66
776.99	97.79
777.173	175.61
777.355	26.11
777.537	124.41
777.719	167.42
777.901	85.5
778.083	73.21
778.265	75.26
778.447	122.37
778.629	3.58
778.811	101.89
778.993	155.13
779.175	167.42
779.357	167.42
779.539	-72.19
779.721	73.21
779.903	146.94
780.085	73.21
780.267	148.99
780.449	165.37
780.631	112.13
780.812	183.81
780.994	52.74
781.176	22.02
781.358	58.88
781.54	71.17
781.721	132.61
781.903	128.51
782.085	15.87
782.267	128.51
782.448	-53.76
782.63	71.17
782.812	89.6
782.993	85.5
783.175	128.51
783.357	103.93
783.538	136.7
783.72	22.02
783.901	83.45
784.083	56.83
784.264	79.36
784.446	-18.94
784.627	24.06
784.809	73.21
784.99	-31.23
785.172	67.07
785.353	3.58
785.535	89.6
785.716	-35.33
785.897	9.73
786.079	75.26
786.26	114.17
786.441	118.27
786.623	-55.81
786.804	-27.14
786.985	13.82
787.167	122.37
787.348	15.87
787.529	32.26
787.71	167.42
787.891	50.69
788.073	11.78
788.254	-84.48
788.435	157.18
788.616	54.78
788.797	42.5
788.978	3.58
789.159	-39.42
789.34	44.54
789.522	52.74
789.703	-14.85
789.884	62.98
790.065	81.41
790.246	97.79
790.427	75.26
790.607	210.43
790.788	112.13
790.969	-31.23
791.15	58.88
791.331	69.12
791.512	7.68
791.693	-25.09
791.874	-25.09
792.054	222.72
792.235	142.85
792.416	-8.7
792.597	-2.56
792.778	116.22
792.958	71.17
793.139	38.4
793.32	58.88
793.5	-143.87
793.681	46.59
793.862	54.78
794.042	-2.56
794.223	-25.09
794.404	26.11
794.584	-51.71
794.765	28.16
794.945	-6.66
795.126	19.97
795.306	38.4
795.487	17.92
795.667	-35.33
795.848	48.64
796.028	30.21
796.209	-25.09
796.389	157.18
796.57	-47.62
796.75	-8.7
796.93	-0.51
797.111	13.82
797.291	11.78
797.471	34.3
797.652	-12.8
797.832	-23.04
798.012	130.56
798.192	22.02
798.373	-68.09
798.553	-27.14
798.733	22.02
798.913	-16.9
799.093	-33.28
799.274	91.65
799.454	97.79
799.634	1.54
799.814	83.45
799.994	93.69
800.174	112.13
800.354	101.89
800.534	-137.73
800.714	65.02
800.894	-57.86
801.074	-82.43
801.254	-49.66
801.434	122.37
801.614	-61.95
801.794	-27.14
801.974	1824.23
802.154	-23.04
802.334	105.98
802.514	-23.04
802.693	-98.81
802.873	-0.51
803.053	124.41
803.233	67.07
803.413	3.58
803.592	67.07
803.772	-51.71
803.952	67.07
804.131	-80.38
804.311	71.17
804.491	89.6
804.67	15.87
804.85	-16.9
805.03	34.3
805.209	50.69
805.389	-43.52
805.568	-51.71
805.748	-10.75
805.928	-31.23
806.107	30.21
806.287	67.07
806.466	22.02
806.646	-35.33
806.825	-16.9
807.004	-45.57
807.184	30.21
807.363	22.02
807.543	-10.75
807.722	-92.67
807.901	112.13
808.081	28.16
808.26	-78.33
808.439	62.98
808.619	-2.56
808.798	-88.57
808.977	42.5
809.156	34.3
809.336	81.41
809.515	34.3
809.694	3.58
809.873	-51.71
810.052	-12.8
810.231	44.54
810.411	89.6
810.59	40.45
810.769	-20.99
810.948	73.21
811.127	-68.09
811.306	-35.33
811.485	-18.94
811.664	194.05
811.843	7.68
812.022	7.68
812.201	93.69
812.38	-29.18
812.559	-41.47
812.737	38.4
812.916	-90.62
813.095	-74.24
813.274	-16.9
813.453	17.92
813.632	128.51
813.811	85.5
813.989	-20.99
814.168	15.87
814.347	-57.86
814.526	54.78
814.704	126.46
814.883	120.32
815.062	-66.05
815.24	108.03
815.419	-113.15
815.598	9.73
815.776	-84.48
815.955	-0.51
816.133	-51.71
816.312	36.35
816.49	-61.95
816.669	93.69
816.847	19.97
817.026	-25.09
817.204	-8.7
817.383	9.73
817.561	5.63
817.74	67.07
817.918	36.35
818.097	-131.58
818.275	-55.81
818.453	65.02
818.632	30.21
818.81	38.4
818.988	40.45
819.167	-0.51
819.345	7.68
819.523	-55.81
819.701	85.5
819.879	48.64
820.058	22.02
820.236	-16.9
820.414	58.88
820.592	26.11
820.77	34.3
820.948	-78.33
821.127	-12.8
821.305	22.02
821.483	-76.29
821.661	97.79
821.839	34.3
822.017	-47.62
822.195	22.02
822.373	28.16
822.551	24.06
822.729	58.88
822.907	32.26
823.085	85.5
823.262	-0.51
823.44	-23.04
823.618	-23.04
823.796	56.83
823.974	3.58
824.152	-92.67
824.329	7.68
824.507	15.87
824.685	77.31
824.863	-20.99
825.04	24.06
825.218	87.55
825.396	-35.33
825.574	-33.28
825.751	-20.99
825.929	-0.51
826.107	-100.86
826.284	13.82
826.462	105.98
826.639	-64
826.817	-37.38
826.994	-4.61
827.172	-55.81
827.349	69.12
827.527	85.5
827.704	11.78
827.882	73.21
828.059	-20.99
828.237	-33.28
828.414	26.11
828.591	-57.86
828.769	52.74
828.946	-68.09
829.124	36.35
829.301	105.98
829.478	36.35
829.655	5.63
829.833	-61.95
830.01	-117.25
830.187	9.73
830.364	-23.04
830.542	54.78
830.719	192
830.896	48.64
831.073	112.13
831.25	85.5
831.427	22.02
831.604	-39.42
831.782	-86.53
831.959	60.93
832.136	-29.18
832.313	19.97
832.49	-10.75
832.667	91.65
832.844	-84.48
833.021	-2.56
833.198	13.82
833.374	56.83
833.551	1.54
833.728	-6.66
833.905	-14.85
834.082	-156.16
834.259	79.36
834.436	128.51
834.612	-55.81
834.789	28.16
834.966	-10.75
835.143	77.31
835.319	-31.23
835.496	60.93
835.673	-90.62
835.85	146.94
836.026	83.45
836.203	15.87
836.38	-72.19
836.556	-4.61
836.733	-84.48
836.909	91.65
837.086	-4.61
837.262	-51.71
837.439	-39.42
837.616	15.87
837.792	-4.61
837.968	81.41
838.145	-119.29
838.321	60.93
838.498	-2.56
838.674	58.88
838.851	24.06
839.027	-74.24
839.203	40.45
839.38	79.36
839.556	-31.23
839.732	22.02
839.909	-72.19
840.085	62.98
840.261	-70.14
840.437	79.36
840.614	-8.7
840.79	65.02
840.966	83.45
841.142	93.69
841.318	-27.14
841.494	-39.42
841.671	9.73
841.847	-98.81
842.023	-27.14
842.199	24.06
842.375	89.6
842.551	-84.48
842.727	-35.33
842.903	187.9
843.079	-119.29
843.255	105.98
843.431	1.54
843.607	-14.85
843.783	-88.57
843.959	54.78
844.134	-88.57
844.31	83.45
844.486	-80.38
844.662	-27.14
844.838	-43.52
845.013	48.64
845.189	67.07
845.365	-98.81
845.541	-18.94
845.716	26.11
845.892	40.45
846.068	-125.44
846.244	-109.05
846.419	69.12
846.595	-0.51
846.77	-70.14
846.946	89.6
847.122	5.63
847.297	-0.51
847.473	101.89
847.648	-100.86
847.824	-53.76
847.999	-102.91
848.175	50.69
848.35	9.73
848.526	28.16
848.701	75.26
848.876	71.17
849.052	95.74
849.227	-35.33
849.403	-53.76
849.578	-72.19
849.753	-43.52
849.929	-14.85
850.104	-80.38
850.279	-45.57
850.454	38.4
850.63	116.22
850.805	30.21
850.98	-6.66
851.155	13.82
851.33	40.45
851.505	-102.91
851.681	194.05
851.856	-104.96
852.031	13.82
852.206	22.02
852.381	-45.57
852.556	-53.76
852.731	-29.18
852.906	75.26
853.081	36.35
853.256	153.09
853.431	-53.76
853.606	-59.9
853.781	-72.19
853.956	-102.91
854.131	-6.66
854.305	-59.9
854.48	5.63
854.655	-53.76
854.83	-2.56
855.005	-57.86
855.18	-4.61
855.354	19.97
855.529	24.06
855.704	52.74
855.879	30.21
856.053	-68.09
856.228	-0.51
856.403	-55.81
856.577	9.73
856.752	-66.05
856.926	-25.09
857.101	-2.56
857.276	-170.49
857.45	75.26
857.625	103.93
857.799	93.69
857.974	-111.1
858.148	-121.34
858.323	9.73
858.497	34.3
858.672	-16.9
858.846	-86.53
859.02	13.82
859.195	-43.52
859.369	36.35
859.543	7.68
859.718	22.02
859.892	52.74
860.066	-14.85
860.241	24.06
860.415	-41.47
860.589	-18.94
860.763	69.12
860.938	50.69
861.112	40.45
861.286	-74.24
861.46	24.06
861.634	-104.96
861.808	52.74
861.982	-14.85
862.157	-86.53
862.331	-0.51
862.505	-143.87
862.679	-125.44
862.853	-35.33
863.027	17.92
863.201	89.6
863.375	-31.23
863.549	56.83
863.722	-27.14
863.896	151.04
864.07	-53.76
864.244	-18.94
864.418	1.54
864.592	11.78
864.766	-31.23
864.939	-80.38
865.113	-16.9
865.287	93.69
865.461	-119.29
865.634	101.89
865.808	11.78
865.982	7.68
866.156	7.68
866.329	-141.82
866.503	22.02
866.676	3.58
866.85	73.21
867.024	-88.57
867.197	-2.56
867.371	15.87
867.544	-51.71
867.718	-90.62
867.891	142.85
868.065	-121.34
868.238	13.82
868.412	50.69
868.585	22.02
868.759	-12.8
868.932	-64
869.105	-57.86
869.279	-0.51
869.452	-82.43
869.625	-2.56
869.799	5.63
869.972	-162.3
870.145	-74.24
870.319	-8.7
870.492	-12.8
870.665	9.73
870.838	30.21
871.011	-215.55
871.185	-78.33
871.358	-29.18
871.531	75.26
871.704	7.68
871.877	-37.38
872.05	5.63
872.223	-47.62
872.396	-8.7
872.569	-6.66
872.742	-137.73
872.915	32.26
873.088	-47.62
873.261	-64
873.434	-20.99
873.607	-49.66
873.78	95.74
873.953	34.3
874.126	7.68
874.299	-10.75
874.471	5.63
874.644	-57.86
874.817	-6.66
874.99	114.17
875.163	-61.95
875.335	-4.61
875.508	-53.76
875.681	30.21
875.853	9.73
876.026	24.06
876.199	62.98
876.371	-57.86
876.544	67.07
876.717	-2.56
876.889	-61.95
877.062	110.08
877.234	-57.86
877.407	-59.9
877.579	-45.57
877.752	15.87
877.924	62.98
878.097	-0.51
878.269	15.87
878.442	34.3
878.614	13.82
878.786	-49.66
878.959	32.26
879.131	15.87
879.303	-96.77
879.476	-39.42
879.648	73.21
879.82	-43.52
879.993	-49.66
880.165	-29.18
880.337	-45.57
880.509	1.54
880.681	-70.14
880.854	-31.23
881.026	17.92
881.198	136.7
881.37	-49.66
881.542	-35.33
881.714	-14.85
881.886	-68.09
882.058	-20.99
882.23	71.17
882.402	-59.9
882.574	73.21
882.746	9.73
882.918	124.41
883.09	77.31
883.262	-12.8
883.434	-12.8
883.606	-66.05
883.778	-29.18
883.95	99.84
884.122	-43.52
884.293	40.45
884.465	26.11
884.637	71.17
884.809	-147.97
884.98	91.65
885.152	15.87
885.324	85.5
885.496	1.54
885.667	-18.94
885.839	26.11
886.011	101.89
886.182	28.16
886.354	-35.33
886.525	101.89
886.697	-16.9
886.869	-39.42
887.04	-109.05
887.212	60.93
887.383	144.89
887.555	40.45
887.726	-14.85
887.897	-107.01
888.069	9.73
888.24	5.63
888.412	-35.33
888.583	-25.09
888.754	24.06
888.926	-166.4
889.097	-90.62
889.268	-107.01
889.44	56.83
889.611	-29.18
889.782	-61.95
889.953	-12.8
890.125	83.45
890.296	-119.29
890.467	-64
890.638	-57.86
890.809	-20.99
890.98	-111.1
891.151	36.35
891.323	105.98
891.494	11.78
891.665	-111.1
891.836	-96.77
892.007	-0.51
892.178	5.63
892.349	-10.75
892.52	-109.05
892.691	-27.14
892.862	-137.73
893.032	-100.86
893.203	-57.86
893.374	60.93
893.545	110.08
893.716	-41.47
893.887	11.78
894.057	-53.76
894.228	-41.47
894.399	-113.15
894.57	-53.76
894.74	19.97
894.911	7.68
895.082	-4.61
895.253	-92.67
895.423	60.93
895.594	-6.66
895.764	50.69
895.935	-45.57
896.106	24.06
896.276	11.78
896.447	112.13
896.617	-135.68
896.788	-98.81
896.958	-12.8
897.129	-39.42
897.299	-2.56
897.47	179.71
897.64	52.74
897.81	13.82
897.981	11.78
898.151	-61.95
898.322	40.45
898.492	136.7
898.662	-74.24
898.832	-53.76
899.003	-80.38
899.173	40.45
899.343	-66.05
899.513	-39.42
