Data from USB4F104151__100__10-35-37-127.txt Node

Date: Wed Feb 26 10:35:37 EST 2025
User: louis
Spectrometer: USB4F10415
Trigger mode: 4
Integration Time (sec): 1.000000E-1
Scans to average: 1
Electric dark correction enabled: true
Nonlinearity correction enabled: false
Boxcar width: 0
XAxis mode: Wavelengths
Number of Pixels in Spectrum: 3648
>>>>>Begin Spectral Data<<<<<
178.204	-419.49
178.424	-419.49
178.644	-419.49
178.864	-472.74
179.084	-347.81
179.304	10.58
179.524	41.3
179.744	16.73
179.964	6.49
180.184	-26.28
180.404	47.44
180.624	18.77
180.844	63.83
181.064	-77.48
181.283	-63.15
181.503	-79.53
181.723	41.3
181.943	-54.95
182.163	168.27
182.383	-73.39
182.602	55.64
182.822	45.4
183.042	88.4
183.262	-91.82
183.482	2.39
183.701	0.34
183.921	12.63
184.141	-81.58
184.361	119.12
184.58	69.97
184.8	63.83
185.02	-11.95
185.239	141.65
185.459	86.36
185.679	166.23
185.898	-73.39
186.118	26.96
186.338	-34.47
186.557	223.57
186.777	78.16
186.997	-42.67
187.216	12.63
187.436	129.36
187.655	69.97
187.875	61.78
188.095	-5.8
188.314	141.65
188.534	108.88
188.753	-26.28
188.973	98.64
189.192	205.14
189.412	29.01
189.631	53.59
189.851	63.83
190.07	215.38
190.29	-59.05
190.509	2.39
190.729	16.73
190.948	178.51
191.168	235.86
191.387	78.16
191.607	10.58
191.826	67.92
192.045	125.27
192.265	0.34
192.484	82.26
192.704	37.2
192.923	-44.71
193.142	192.85
193.362	121.17
193.581	166.23
193.8	92.5
194.02	80.21
194.239	-20.14
194.458	45.4
194.678	-1.71
194.897	78.16
195.116	41.3
195.335	39.25
195.555	86.36
195.774	24.92
195.993	174.42
196.212	-61.1
196.432	-57
196.651	-13.99
196.87	6.49
197.089	250.19
197.308	61.78
197.528	10.58
197.747	6.49
197.966	47.44
198.185	180.56
198.404	8.53
198.623	155.99
198.842	74.07
199.062	100.69
199.281	98.64
199.5	80.21
199.719	84.31
199.938	74.07
200.157	141.65
200.376	65.88
200.595	119.12
200.814	35.16
201.033	43.35
201.252	164.18
201.471	65.88
201.69	53.59
201.909	14.68
202.128	53.59
202.347	131.41
202.566	18.77
202.785	-34.47
203.004	-32.43
203.223	317.78
203.442	20.82
203.661	-75.43
203.879	63.83
204.098	135.51
204.317	-26.28
204.536	65.88
204.755	84.31
204.974	78.16
205.193	35.16
205.411	78.16
205.63	90.45
205.849	14.68
206.068	41.3
206.287	-22.19
206.505	102.74
206.724	31.06
206.943	-65.19
207.162	-40.62
207.381	86.36
207.599	0.34
207.818	69.97
208.037	-26.28
208.255	35.16
208.474	104.79
208.693	35.16
208.911	47.44
209.13	108.88
209.349	92.5
209.567	88.4
209.786	35.16
210.005	59.73
210.223	6.49
210.442	-75.43
210.661	10.58
210.879	78.16
211.098	45.4
211.316	53.59
211.535	35.16
211.753	108.88
211.972	119.12
212.191	59.73
212.409	4.44
212.628	39.25
212.846	53.59
213.065	-7.85
213.283	49.49
213.502	-59.05
213.72	12.63
213.938	98.64
214.157	18.77
214.375	135.51
214.594	-38.57
214.812	108.88
215.031	31.06
215.249	82.26
215.467	10.58
215.686	26.96
215.904	94.55
216.122	8.53
216.341	137.56
216.559	4.44
216.778	135.51
216.996	182.61
217.214	65.88
217.432	65.88
217.651	-87.72
217.869	121.17
218.087	-18.09
218.306	49.49
218.524	108.88
218.742	-3.75
218.96	65.88
219.179	-130.73
219.397	-13.99
219.615	182.61
219.833	94.55
220.051	-48.81
220.27	69.97
220.488	72.02
220.706	94.55
220.924	24.92
221.142	20.82
221.36	-34.47
221.578	41.3
221.796	-11.95
222.015	59.73
222.233	59.73
222.451	98.64
222.669	-32.43
222.887	74.07
223.105	16.73
223.323	108.88
223.541	4.44
223.759	47.44
223.977	37.2
224.195	207.19
224.413	4.44
224.631	24.92
224.849	47.44
225.067	215.38
225.285	-36.52
225.503	14.68
225.721	-132.78
225.939	-30.38
226.157	20.82
226.375	207.19
226.592	-24.23
226.81	74.07
227.028	74.07
227.246	170.32
227.464	24.92
227.682	137.56
227.9	84.31
228.117	45.4
228.335	55.64
228.553	47.44
228.771	65.88
228.989	33.11
229.206	117.08
229.424	-40.62
229.642	-3.75
229.86	-46.76
230.077	110.93
230.295	76.12
230.513	35.16
230.731	37.2
230.948	162.13
231.166	110.93
231.384	-9.9
231.601	-32.43
231.819	110.93
232.037	43.35
232.254	-59.05
232.472	22.87
232.689	29.01
232.907	162.13
233.125	-9.9
233.342	-73.39
233.56	4.44
233.777	14.68
233.995	16.73
234.213	63.83
234.43	43.35
234.648	16.73
234.865	4.44
235.083	76.12
235.3	53.59
235.518	59.73
235.735	31.06
235.953	135.51
236.17	16.73
236.388	65.88
236.605	-11.95
236.822	86.36
237.04	145.75
237.257	31.06
237.475	-91.82
237.692	2.39
237.909	49.49
238.127	4.44
238.344	65.88
238.562	76.12
238.779	-73.39
238.996	-116.39
239.214	74.07
239.431	74.07
239.648	43.35
239.865	78.16
240.083	45.4
240.3	-34.47
240.517	16.73
240.735	8.53
240.952	153.94
241.169	147.8
241.386	-24.23
241.603	26.96
241.821	-61.1
242.038	78.16
242.255	143.7
242.472	-104.11
242.689	104.79
242.907	84.31
243.124	26.96
243.341	74.07
243.558	55.64
243.775	-5.8
243.992	-9.9
244.209	20.82
244.426	127.32
244.643	51.54
244.86	24.92
245.078	90.45
245.295	92.5
245.512	12.63
245.729	29.01
245.946	41.3
246.163	76.12
246.38	-18.09
246.597	102.74
246.814	-9.9
247.031	10.58
247.248	69.97
247.464	123.22
247.681	31.06
247.898	51.54
248.115	115.03
248.332	20.82
248.549	198.99
248.766	141.65
248.983	96.6
249.2	55.64
249.417	88.4
249.633	26.96
249.85	67.92
250.067	-22.19
250.284	-24.23
250.501	72.02
250.717	82.26
250.934	-54.95
251.151	59.73
251.368	-1.71
251.585	29.01
251.801	24.92
252.018	-61.1
252.235	100.69
252.451	-40.62
252.668	-18.09
252.885	153.94
253.102	74.07
253.318	-22.19
253.535	0.34
253.752	33.11
253.968	-7.85
254.185	-34.47
254.401	127.32
254.618	78.16
254.835	29.01
255.051	129.36
255.268	104.79
255.484	63.83
255.701	26.96
255.917	41.3
256.134	-59.05
256.351	31.06
256.567	-28.33
256.784	26.96
257	-65.19
257.217	88.4
257.433	37.2
257.65	-3.75
257.866	76.12
258.082	-5.8
258.299	-26.28
258.515	61.78
258.732	-132.78
258.948	-3.75
259.165	2.39
259.381	-59.05
259.597	74.07
259.814	-5.8
260.03	26.96
260.246	12.63
260.463	82.26
260.679	162.13
260.895	55.64
261.112	41.3
261.328	76.12
261.544	12.63
261.761	174.42
261.977	-28.33
262.193	-57
262.409	92.5
262.626	80.21
262.842	10.58
263.058	6.49
263.274	137.56
263.49	-13.99
263.707	102.74
263.923	98.64
264.139	-26.28
264.355	98.64
264.571	84.31
264.787	90.45
265.004	121.17
265.22	-40.62
265.436	-18.09
265.652	8.53
265.868	29.01
266.084	-16.04
266.3	-13.99
266.516	-50.86
266.732	29.01
266.948	112.98
267.164	57.68
267.38	182.61
267.596	61.78
267.812	153.94
268.028	22.87
268.244	88.4
268.46	24.92
268.676	4.44
268.892	35.16
269.108	-81.58
269.324	18.77
269.54	-59.05
269.756	184.66
269.972	4.44
270.188	-34.47
270.403	14.68
270.619	31.06
270.835	57.68
271.051	20.82
271.267	6.49
271.483	16.73
271.698	117.08
271.914	49.49
272.13	-1.71
272.346	24.92
272.562	39.25
272.777	112.98
272.993	4.44
273.209	-83.63
273.425	59.73
273.64	-85.67
273.856	100.69
274.072	-22.19
274.287	2.39
274.503	90.45
274.719	96.6
274.934	63.83
275.15	-38.57
275.366	0.34
275.581	37.2
275.797	55.64
276.012	43.35
276.228	6.49
276.444	31.06
276.659	174.42
276.875	-5.8
277.09	22.87
277.306	59.73
277.521	53.59
277.737	57.68
277.952	92.5
278.168	65.88
278.383	86.36
278.599	-11.95
278.814	67.92
279.03	22.87
279.245	100.69
279.461	-13.99
279.676	78.16
279.892	-40.62
280.107	6.49
280.322	-75.43
280.538	55.64
280.753	-32.43
280.969	86.36
281.184	45.4
281.399	80.21
281.615	6.49
281.83	-1.71
282.045	-102.06
282.26	-116.39
282.476	108.88
282.691	80.21
282.906	-11.95
283.122	16.73
283.337	6.49
283.552	49.49
283.767	-38.57
283.983	61.78
284.198	37.2
284.413	78.16
284.628	-59.05
284.843	53.59
285.058	88.4
285.274	-7.85
285.489	8.53
285.704	194.9
285.919	14.68
286.134	41.3
286.349	160.08
286.564	6.49
286.779	59.73
286.995	45.4
287.21	76.12
287.425	24.92
287.64	24.92
287.855	129.36
288.07	16.73
288.285	102.74
288.5	86.36
288.715	69.97
288.93	14.68
289.145	-50.86
289.36	147.8
289.575	-11.95
289.79	57.68
290.004	-26.28
290.219	123.22
290.434	-13.99
290.649	29.01
290.864	4.44
291.079	16.73
291.294	112.98
291.509	78.16
291.724	47.44
291.938	-52.91
292.153	90.45
292.368	53.59
292.583	61.78
292.798	53.59
293.012	-3.75
293.227	43.35
293.442	18.77
293.657	55.64
293.871	117.08
294.086	6.49
294.301	201.04
294.516	108.88
294.73	61.78
294.945	0.34
295.16	49.49
295.374	63.83
295.589	121.17
295.804	-1.71
296.018	86.36
296.233	57.68
296.447	22.87
296.662	6.49
296.877	106.84
297.091	51.54
297.306	-22.19
297.52	6.49
297.735	57.68
297.949	-30.38
298.164	18.77
298.378	51.54
298.593	-34.47
298.807	12.63
299.022	84.31
299.236	158.03
299.451	18.77
299.665	29.01
299.88	78.16
300.094	41.3
300.309	55.64
300.523	24.92
300.737	22.87
300.952	39.25
301.166	160.08
301.381	-11.95
301.595	-13.99
301.809	12.63
302.024	-50.86
302.238	-36.52
302.452	125.27
302.667	14.68
302.881	188.75
303.095	39.25
303.309	102.74
303.524	43.35
303.738	-22.19
303.952	10.58
304.166	115.03
304.381	-130.73
304.595	106.84
304.809	2.39
305.023	92.5
305.237	0.34
305.452	-20.14
305.666	127.32
305.88	178.51
306.094	143.7
306.308	96.6
306.522	133.46
306.736	49.49
306.95	20.82
307.164	-46.76
307.379	18.77
307.593	0.34
307.807	176.47
308.021	63.83
308.235	45.4
308.449	-30.38
308.663	53.59
308.877	190.8
309.091	49.49
309.305	61.78
309.519	-91.82
309.733	51.54
309.947	-48.81
310.161	43.35
310.374	55.64
310.588	84.31
310.802	-79.53
311.016	29.01
311.23	37.2
311.444	-5.8
311.658	-1.71
311.872	172.37
312.085	121.17
312.299	125.27
312.513	123.22
312.727	-11.95
312.941	2.39
313.154	108.88
313.368	10.58
313.582	94.55
313.796	57.68
314.009	-5.8
314.223	108.88
314.437	53.59
314.651	86.36
314.864	20.82
315.078	69.97
315.292	-18.09
315.505	-11.95
315.719	74.07
315.933	96.6
316.146	-104.11
316.36	0.34
316.573	106.84
316.787	69.97
317.001	53.59
317.214	31.06
317.428	55.64
317.641	-63.15
317.855	26.96
318.068	90.45
318.282	94.55
318.495	112.98
318.709	16.73
318.922	-13.99
319.136	102.74
319.349	166.23
319.563	-16.04
319.776	67.92
319.99	-75.43
320.203	147.8
320.417	78.16
320.63	88.4
320.843	129.36
321.057	29.01
321.27	88.4
321.483	51.54
321.697	121.17
321.91	4.44
322.124	-5.8
322.337	39.25
322.55	0.34
322.763	63.83
322.977	-3.75
323.19	-75.43
323.403	47.44
323.617	76.12
323.83	106.84
324.043	-34.47
324.256	43.35
324.469	14.68
324.683	145.75
324.896	92.5
325.109	119.12
325.322	-28.33
325.535	121.17
325.748	139.6
325.962	-1.71
326.175	74.07
326.388	69.97
326.601	78.16
326.814	-32.43
327.027	-7.85
327.24	121.17
327.453	12.63
327.666	129.36
327.879	133.46
328.092	100.69
328.305	104.79
328.518	-38.57
328.731	16.73
328.944	69.97
329.157	47.44
329.37	18.77
329.583	196.95
329.796	119.12
330.009	20.82
330.222	0.34
330.435	98.64
330.648	80.21
330.861	-11.95
331.073	47.44
331.286	129.36
331.499	82.26
331.712	37.2
331.925	63.83
332.138	74.07
332.35	96.6
332.563	8.53
332.776	129.36
332.989	0.34
333.202	2.39
333.414	51.54
333.627	24.92
333.84	-7.85
334.053	2.39
334.265	-24.23
334.478	35.16
334.691	67.92
334.903	63.83
335.116	4.44
335.329	57.68
335.541	104.79
335.754	115.03
335.966	-24.23
336.179	47.44
336.392	2.39
336.604	84.31
336.817	96.6
337.029	45.4
337.242	49.49
337.454	141.65
337.667	10.58
337.88	121.17
338.092	18.77
338.305	53.59
338.517	16.73
338.729	106.84
338.942	69.97
339.154	-11.95
339.367	-46.76
339.579	94.55
339.792	29.01
340.004	158.03
340.217	72.02
340.429	110.93
340.641	10.58
340.854	-20.14
341.066	-24.23
341.278	106.84
341.491	158.03
341.703	6.49
341.915	-5.8
342.128	82.26
342.34	6.49
342.552	10.58
342.764	67.92
342.977	-44.71
343.189	47.44
343.401	33.11
343.613	-48.81
343.826	96.6
344.038	-52.91
344.25	108.88
344.462	49.49
344.674	31.06
344.886	63.83
345.099	160.08
345.311	96.6
345.523	37.2
345.735	-89.77
345.947	92.5
346.159	-52.91
346.371	6.49
346.583	14.68
346.795	149.84
347.007	41.3
347.219	86.36
347.431	6.49
347.643	147.8
347.855	10.58
348.067	94.55
348.279	-34.47
348.491	53.59
348.703	131.41
348.915	8.53
349.127	18.77
349.339	74.07
349.551	24.92
349.763	61.78
349.975	8.53
350.187	145.75
350.399	119.12
350.61	74.07
350.822	31.06
351.034	31.06
351.246	72.02
351.458	102.74
351.669	137.56
351.881	80.21
352.093	135.51
352.305	127.32
352.517	22.87
352.728	78.16
352.94	29.01
353.152	110.93
353.363	-30.38
353.575	8.53
353.787	106.84
353.999	59.73
354.21	149.84
354.422	-9.9
354.633	-77.48
354.845	4.44
355.057	-54.95
355.268	49.49
355.48	67.92
355.692	41.3
355.903	2.39
356.115	-40.62
356.326	-46.76
356.538	90.45
356.749	94.55
356.961	166.23
357.172	98.64
357.384	-32.43
357.595	242
357.807	67.92
358.018	37.2
358.23	90.45
358.441	96.6
358.653	41.3
358.864	-5.8
359.075	-73.39
359.287	53.59
359.498	141.65
359.709	92.5
359.921	-3.75
360.132	82.26
360.344	-13.99
360.555	-9.9
360.766	72.02
360.977	-3.75
361.189	90.45
361.4	117.08
361.611	63.83
361.823	108.88
362.034	6.49
362.245	-36.52
362.456	63.83
362.667	47.44
362.879	-32.43
363.09	29.01
363.301	94.55
363.512	37.2
363.723	29.01
363.935	-77.48
364.146	129.36
364.357	33.11
364.568	110.93
364.779	-73.39
364.99	186.71
365.201	29.01
365.412	137.56
365.623	-65.19
365.834	6.49
366.045	55.64
366.256	55.64
366.467	24.92
366.678	-28.33
366.889	26.96
367.1	6.49
367.311	37.2
367.522	37.2
367.733	100.69
367.944	80.21
368.155	-30.38
368.366	72.02
368.577	96.6
368.788	47.44
368.999	-65.19
369.209	45.4
369.42	172.37
369.631	215.38
369.842	88.4
370.053	16.73
370.264	125.27
370.474	-40.62
370.685	61.78
370.896	29.01
371.107	162.13
371.317	59.73
371.528	4.44
371.739	108.88
371.95	49.49
372.16	88.4
372.371	-106.15
372.582	53.59
372.792	14.68
373.003	59.73
373.214	61.78
373.424	80.21
373.635	14.68
373.846	110.93
374.056	65.88
374.267	0.34
374.477	78.16
374.688	-89.77
374.898	37.2
375.109	47.44
375.319	74.07
375.53	123.22
375.74	61.78
375.951	-5.8
376.161	22.87
376.372	53.59
376.582	47.44
376.793	65.88
377.003	59.73
377.214	-5.8
377.424	47.44
377.635	24.92
377.845	37.2
378.055	143.7
378.266	-73.39
378.476	24.92
378.686	-11.95
378.897	123.22
379.107	160.08
379.317	110.93
379.528	-83.63
379.738	94.55
379.948	-89.77
380.158	80.21
380.369	0.34
380.579	112.98
380.789	43.35
380.999	74.07
381.21	0.34
381.42	184.66
381.63	18.77
381.84	104.79
382.05	12.63
382.261	119.12
382.471	78.16
382.681	-36.52
382.891	143.7
383.101	76.12
383.311	-81.58
383.521	-22.19
383.731	53.59
383.941	127.32
384.151	94.55
384.361	29.01
384.571	29.01
384.781	86.36
384.991	213.33
385.201	176.47
385.411	39.25
385.621	-1.71
385.831	20.82
386.041	33.11
386.251	24.92
386.461	57.68
386.671	-9.9
386.881	74.07
387.091	-26.28
387.301	151.89
387.511	51.54
387.72	37.2
387.93	135.51
388.14	-95.91
388.35	86.36
388.56	102.74
388.769	129.36
388.979	-13.99
389.189	26.96
389.399	10.58
389.609	53.59
389.818	106.84
390.028	35.16
390.238	51.54
390.447	-26.28
390.657	57.68
390.867	20.82
391.076	-73.39
391.286	-20.14
391.496	-36.52
391.705	45.4
391.915	201.04
392.125	74.07
392.334	-22.19
392.544	78.16
392.753	119.12
392.963	-32.43
393.172	-48.81
393.382	-5.8
393.591	162.13
393.801	12.63
394.01	252.24
394.22	61.78
394.429	8.53
394.639	72.02
394.848	22.87
395.058	31.06
395.267	-32.43
395.477	110.93
395.686	35.16
395.895	252.24
396.105	178.51
396.314	115.03
396.524	86.36
396.733	6.49
396.942	100.69
397.152	137.56
397.361	41.3
397.57	80.21
397.78	-1.71
397.989	88.4
398.198	145.75
398.407	-54.95
398.617	55.64
398.826	29.01
399.035	160.08
399.244	80.21
399.453	51.54
399.663	53.59
399.872	35.16
400.081	20.82
400.29	158.03
400.499	53.59
400.708	41.3
400.917	0.34
401.127	55.64
401.336	0.34
401.545	223.57
401.754	201.04
401.963	98.64
402.172	20.82
402.381	-28.33
402.59	4.44
402.799	22.87
403.008	131.41
403.217	4.44
403.426	121.17
403.635	-50.86
403.844	-48.81
404.053	-57
404.262	-42.67
404.471	178.51
404.68	57.68
404.888	65.88
405.097	104.79
405.306	78.16
405.515	129.36
405.724	-3.75
405.933	78.16
406.142	108.88
406.35	98.64
406.559	47.44
406.768	45.4
406.977	237.91
407.185	24.92
407.394	26.96
407.603	-48.81
407.812	94.55
408.02	110.93
408.229	-11.95
408.438	53.59
408.646	-44.71
408.855	53.59
409.064	53.59
409.272	63.83
409.481	35.16
409.69	-65.19
409.898	88.4
410.107	61.78
410.315	106.84
410.524	45.4
410.733	-9.9
410.941	104.79
411.15	115.03
411.358	135.51
411.567	129.36
411.775	55.64
411.984	-28.33
412.192	33.11
412.401	78.16
412.609	235.86
412.818	190.8
413.026	90.45
413.234	-13.99
413.443	61.78
413.651	43.35
413.86	61.78
414.068	147.8
414.276	172.37
414.485	-36.52
414.693	131.41
414.901	186.71
415.11	121.17
415.318	-22.19
415.526	96.6
415.734	76.12
415.943	65.88
416.151	158.03
416.359	45.4
416.567	43.35
416.776	115.03
416.984	153.94
417.192	151.89
417.4	-95.91
417.608	41.3
417.817	-3.75
418.025	160.08
418.233	133.46
418.441	55.64
418.649	29.01
418.857	94.55
419.065	135.51
419.273	76.12
419.481	84.31
419.689	20.82
419.897	51.54
420.105	-9.9
420.313	170.32
420.521	172.37
420.729	100.69
420.937	69.97
421.145	14.68
421.353	47.44
421.561	151.89
421.769	-28.33
421.977	-97.96
422.185	112.98
422.393	-5.8
422.601	90.45
422.809	67.92
423.017	20.82
423.224	168.27
423.432	78.16
423.64	20.82
423.848	131.41
424.056	-7.85
424.263	41.3
424.471	55.64
424.679	102.74
424.887	-1.71
425.094	145.75
425.302	125.27
425.51	41.3
425.718	143.7
425.925	110.93
426.133	61.78
426.341	131.41
426.548	74.07
426.756	94.55
426.964	45.4
427.171	-54.95
427.379	-20.14
427.586	182.61
427.794	53.59
428.001	149.84
428.209	82.26
428.417	123.22
428.624	143.7
428.832	102.74
429.039	22.87
429.247	92.5
429.454	59.73
429.662	186.71
429.869	57.68
430.076	127.32
430.284	100.69
430.491	213.33
430.699	178.51
430.906	215.38
431.114	117.08
431.321	166.23
431.528	61.78
431.736	61.78
431.943	119.12
432.15	121.17
432.358	133.46
432.565	215.38
432.772	24.92
432.979	123.22
433.187	125.27
433.394	176.47
433.601	104.79
433.808	280.91
434.016	256.34
434.223	239.95
434.43	196.95
434.637	192.85
434.844	260.43
435.052	260.43
435.259	176.47
435.466	184.66
435.673	178.51
435.88	229.71
436.087	313.68
436.294	377.17
436.501	215.38
436.708	235.86
436.915	227.67
437.122	344.4
437.329	145.75
437.537	328.02
437.743	317.78
437.95	358.74
438.157	391.5
438.364	319.82
438.571	373.07
438.778	424.27
438.985	416.08
439.192	485.71
439.399	416.08
439.606	405.84
439.813	418.13
440.02	586.06
440.227	561.48
440.433	506.19
440.64	362.83
440.847	469.33
441.054	559.44
441.261	749.9
441.467	551.24
441.674	518.48
441.881	594.25
442.088	592.2
442.294	721.23
442.501	645.45
442.708	649.55
442.914	696.65
443.121	842.06
443.328	756.04
443.534	860.49
443.741	782.67
443.948	645.45
444.154	909.64
444.361	1038.66
444.568	829.77
444.774	913.74
444.981	799.05
445.187	1083.72
445.394	1005.89
445.6	989.51
445.807	1149.25
446.013	1096
446.22	1104.2
446.426	1329.47
446.633	1349.95
446.839	1540.41
447.046	1202.5
447.252	1458.5
447.459	1538.37
447.665	1415.49
447.871	1669.44
448.078	1763.64
448.284	1575.23
448.491	1792.31
448.697	1796.41
448.903	1861.94
449.11	1966.39
449.316	1982.78
449.522	2140.47
449.728	2281.78
449.935	2226.48
450.141	2214.2
450.347	2425.14
450.553	2341.17
450.76	2455.86
450.966	2613.55
451.172	2664.75
451.378	2840.87
451.584	2908.46
451.791	3199.27
451.997	3148.07
452.203	3262.76
452.409	3344.67
452.615	3526.94
452.821	3295.52
453.027	3361.06
453.233	3897.63
453.44	3619.1
453.646	4065.56
453.852	4100.37
454.058	4352.27
454.264	4532.5
454.47	4761.87
454.676	4759.82
454.882	5329.16
455.088	4890.89
455.294	5189.89
455.5	5441.79
455.705	5779.71
455.911	5781.76
456.117	5849.34
456.323	6324.47
456.529	6277.37
456.735	6848.75
456.941	6967.53
457.147	7104.74
457.352	7549.15
457.558	7622.88
457.764	8143.07
457.97	8323.29
458.176	8722.64
458.381	9152.71
458.587	9345.22
458.793	9707.71
458.999	9619.65
459.204	10637.49
459.41	11270.31
459.616	11172.01
459.821	11794.59
460.027	12374.17
460.233	12763.28
460.438	12892.3
460.644	13400.2
460.85	13721.73
461.055	14272.64
461.261	15024.24
461.466	14469.24
461.672	15261.8
461.878	16988.24
462.083	16423
462.289	16775.25
462.494	17653.83
462.7	17489.99
462.905	18049.09
463.111	19195.95
463.316	20428.83
463.522	20428.83
463.727	21510.16
463.932	22263.81
464.138	22810.62
464.343	23971.82
464.549	23861.23
464.754	25522.13
464.959	26202.05
465.165	26609.6
465.37	26689.47
465.575	26701.76
465.781	28526.5
465.986	29466.52
466.191	28544.93
466.397	29302.68
466.602	28151.72
466.807	29998.99
467.012	30414.73
467.218	30984.06
467.423	30924.67
467.628	31788.91
467.833	33627.99
468.038	33101.66
468.244	32370.54
468.449	34367.3
468.654	33165.15
468.859	33240.92
469.064	33638.23
469.269	32356.2
469.474	32816.99
469.679	33480.53
469.885	32720.74
470.09	33443.67
470.295	33300.31
470.5	32647.01
470.705	32733.03
470.91	32315.24
471.115	31592.31
471.32	32388.97
471.525	31868.78
471.73	30814.08
471.935	30633.86
472.139	29626.26
472.344	29716.37
472.549	29501.33
472.754	28888.99
472.959	28499.87
473.164	27334.58
473.369	26904.51
473.574	27832.24
473.778	27000.76
473.983	26552.26
474.188	26113.99
474.393	24754.14
474.598	24909.79
474.802	24532.96
475.007	24125.41
475.212	24362.98
475.417	22857.72
475.621	22859.77
475.826	22450.17
476.031	21907.46
476.235	21078.04
476.44	21581.84
476.645	20779.03
476.849	20668.44
477.054	19953.7
477.259	19478.57
477.463	20002.85
477.668	19439.66
477.872	19492.91
478.077	18882.61
478.282	18159.68
478.486	17901.64
478.691	17692.74
478.895	17604.68
479.1	17455.18
479.304	17459.27
479.509	17080.4
479.713	17281.1
479.918	16662.62
480.122	16205.92
480.326	16445.53
480.531	16402.52
480.735	16087.14
480.94	15898.72
481.144	16207.97
481.348	15419.5
481.553	15478.89
481.757	15020.14
481.961	15251.56
482.166	15509.61
482.37	15190.13
482.574	14909.55
482.778	14774.39
482.983	15085.68
483.187	14770.29
483.391	14725.24
483.595	14524.54
483.8	14176.38
484.004	14243.96
484.208	14315.64
484.412	13932.67
484.616	13738.12
484.821	13725.83
485.025	13424.78
485.229	13486.22
485.433	13047.95
485.637	13047.95
485.841	12652.69
486.045	12679.32
486.249	12730.52
486.453	12325.02
486.657	12040.35
486.861	11772.07
487.065	11692.19
487.269	11948.19
487.473	11341.99
487.677	11380.9
487.881	11307.18
488.085	11010.22
488.289	10813.62
488.493	10494.13
488.697	10524.85
488.901	10160.31
489.105	9943.23
489.309	9670.85
489.512	9787.58
489.716	9498.82
489.92	9269.45
490.124	9048.27
490.328	9185.48
490.531	8827.09
490.735	8820.94
490.939	8597.71
491.143	8491.22
491.346	8083.67
491.55	8138.97
491.754	8009.95
491.958	7803.1
492.161	7794.91
492.365	7610.59
492.569	7280.87
492.772	7301.35
492.976	7282.92
493.18	7094.51
493.383	7110.89
493.587	7018.73
493.79	6840.56
493.994	6750.45
494.197	6748.4
494.401	6537.46
494.605	6326.52
494.808	6514.93
495.012	6412.53
495.215	6447.35
495.419	6422.77
495.622	6213.88
495.825	6232.31
496.029	5959.93
496.232	6367.48
496.436	5998.84
496.639	6076.66
496.843	6056.18
497.046	5888.25
497.249	6179.06
497.453	5996.79
497.656	5812.48
497.859	6037.75
498.063	5968.12
498.266	6117.62
498.469	5886.2
498.673	6009.08
498.876	6035.71
499.079	6107.38
499.282	5820.67
499.485	6228.21
499.689	5959.93
499.892	6224.12
500.095	5986.55
500.298	6154.49
500.501	6105.34
500.705	6254.84
500.908	6263.03
501.111	6387.96
501.314	6408.44
501.517	6551.79
501.72	6381.81
501.923	6392.05
502.126	6502.64
502.329	6920.43
502.532	6609.14
502.735	6705.39
502.938	6897.9
503.141	6940.91
503.344	6856.94
503.547	7092.46
503.75	7090.41
503.953	7137.51
504.156	7196.9
504.359	7370.98
504.562	7555.3
504.765	7649.5
504.968	7526.63
505.17	7848.16
505.373	7928.03
505.576	8026.33
505.779	8177.88
505.982	8196.31
506.185	8331.48
506.387	8554.71
506.59	8798.42
506.793	8675.54
506.996	8849.61
507.198	9298.12
507.401	8909.01
507.604	9269.45
507.807	9574.6
508.009	9638.08
508.212	9990.33
508.415	9912.51
508.617	10260.66
508.82	10416.31
509.022	10522.8
509.225	11010.22
509.428	11149.48
509.63	11481.25
509.833	11565.22
510.035	12132.51
510.238	11886.75
510.44	12128.41
510.643	12757.14
510.845	13095.05
511.048	12837.01
511.25	13369.48
511.453	13670.53
511.655	14471.29
511.858	14456.95
512.06	14737.52
512.262	14780.53
512.465	15270
512.667	15497.32
512.87	15902.82
513.072	16191.58
513.274	16582.74
513.477	16918.61
513.679	17193.04
513.881	17614.92
514.084	17727.56
514.286	18503.74
514.488	18636.86
514.69	19482.67
514.893	19693.61
515.095	20201.51
515.297	20508.7
515.499	20996.12
515.701	21512.21
515.904	22081.54
516.106	22403.07
516.308	23009.27
516.51	23508.97
516.712	23863.27
516.914	24344.55
517.116	25085.91
517.318	25188.31
517.52	25640.91
517.722	26064.84
517.925	26757.05
518.127	27424.69
518.329	28141.48
518.531	27793.33
518.733	28579.75
518.935	29327.25
519.136	29460.37
519.338	30314.37
519.54	30803.84
519.742	31405.94
519.944	31481.72
520.146	32268.14
520.348	32501.61
520.55	32597.86
520.752	33806.16
520.954	34051.92
521.155	33967.95
521.357	34803.52
521.559	34963.26
521.761	35477.3
521.963	35847.99
522.164	36419.37
522.366	36759.33
522.568	37207.84
522.77	37070.62
522.971	37639.96
523.173	37791.51
523.375	38137.62
523.576	38047.5
523.778	38127.38
523.98	38440.71
524.181	38878.98
524.383	38993.67
524.584	39089.92
524.786	39255.81
524.988	39157.5
525.189	39489.27
525.391	39929.59
525.592	39945.97
525.794	40193.78
525.995	39706.36
526.197	39704.31
526.398	39757.56
526.6	39978.74
526.801	39747.32
527.003	39583.48
527.204	39460.6
527.406	39429.88
527.607	39204.61
527.808	39614.2
528.01	38498.06
528.211	38504.2
528.412	38930.18
528.614	38846.21
528.815	38326.03
529.016	38311.69
529.218	37328.67
529.419	37383.96
529.62	37445.4
529.822	36572.97
530.023	36800.29
530.224	36560.68
530.425	35835.7
530.626	35297.08
530.828	34660.16
531.029	35252.03
531.23	34176.84
531.431	33761.11
531.632	33863.5
531.833	33341.27
532.035	32661.35
532.236	32542.56
532.437	32567.14
532.638	31530.87
532.839	31498.1
533.04	31254.39
533.241	30220.17
533.442	30695.3
533.643	30113.67
533.844	29554.58
534.045	29271.96
534.246	28428.2
534.447	28493.73
534.648	28030.89
534.849	27824.04
535.05	27174.84
535.251	26953.66
535.451	26824.64
535.652	25917.39
535.853	25909.19
536.054	25831.37
536.255	25202.64
536.456	24520.67
536.657	24731.61
536.857	24207.33
537.058	23887.85
537.259	24137.7
537.46	23099.38
537.66	23107.57
537.861	22642.68
538.062	22294.53
538.263	21821.45
538.463	21641.23
538.664	21587.98
538.865	21389.33
539.065	21090.32
539.266	20731.93
539.466	20652.06
539.667	20068.39
539.868	20336.67
540.068	19662.89
540.269	19642.41
540.469	19410.99
540.67	18886.71
540.87	18931.76
541.071	18669.62
541.271	18473.02
541.472	18196.54
541.672	18161.73
541.873	17557.58
542.073	17457.23
542.274	17543.24
542.474	17422.41
542.675	16732.25
542.875	16910.42
543.075	16584.79
543.276	16146.53
543.476	16369.76
543.676	16148.57
543.877	16187.49
544.077	15825
544.277	15591.53
544.478	15257.71
544.678	15257.71
544.878	14911.6
545.078	14735.48
545.279	14622.84
545.479	14612.6
545.679	14321.79
545.879	14190.72
546.079	13971.58
546.28	13877.38
546.48	13734.02
546.68	13695.11
546.88	13461.64
547.08	13244.56
547.28	13000.85
547.48	12732.56
547.68	12863.63
547.88	12595.35
548.081	12451.99
548.281	12286.11
548.481	12134.56
548.681	12277.91
548.881	12040.35
549.081	11587.75
549.28	11399.34
549.48	11268.27
549.68	10918.06
549.88	11157.68
550.08	10805.42
550.28	10834.1
550.48	10598.58
550.68	10559.67
550.88	10262.71
551.08	10176.7
551.279	10223.8
551.479	9720
551.679	9857.21
551.879	9607.36
552.079	9390.28
552.278	9330.89
552.478	9507.01
552.678	8956.11
552.878	9013.45
553.077	8919.25
553.277	8620.24
553.477	8657.11
553.676	8456.4
553.876	8356.05
554.076	8036.57
554.275	8036.57
554.475	7930.08
554.674	7854.3
554.874	7573.73
555.074	7401.7
555.273	7325.93
555.473	7102.7
555.672	7178.47
555.872	7172.33
556.071	7002.35
556.271	6910.19
556.47	6615.28
556.67	6576.37
556.869	6453.49
557.068	6390
557.268	6260.98
557.467	6097.14
557.667	6187.25
557.866	5746.94
558.065	5925.11
558.265	5703.93
558.464	5701.89
558.663	5650.69
558.863	5564.67
559.062	5542.14
559.261	5323.01
559.461	5341.44
559.66	5175.56
559.859	4940.04
560.058	5034.25
560.258	4780.3
560.457	4870.41
560.656	4739.34
560.855	4673.81
561.054	4682
561.253	4645.13
561.453	4602.13
561.652	4354.32
561.851	4534.54
562.05	4110.61
562.249	4030.74
562.448	4260.12
562.647	4018.46
562.846	3883.29
563.045	4030.74
563.244	3959.06
563.443	3961.11
563.642	3737.88
563.841	3817.76
564.04	3696.92
564.239	3520.8
564.438	3598.62
564.637	3393.83
564.836	3465.5
565.035	3361.06
565.234	3242.28
565.432	3260.71
565.631	3238.18
565.83	3283.24
566.029	3070.25
566.228	3033.38
566.427	3080.49
566.625	2887.98
566.824	2957.61
567.023	2869.55
567.222	2824.49
567.42	2814.25
567.619	2810.15
567.818	2785.58
568.016	2904.36
568.215	2582.83
568.414	2775.34
568.612	2611.5
568.811	2431.28
569.01	2554.16
569.208	2515.25
569.407	2490.67
569.605	2427.18
569.804	2396.46
570.002	2281.78
570.201	2228.53
570.4	2281.78
570.598	2249.01
570.797	2212.15
570.995	2146.61
571.193	2195.76
571.392	2054.45
571.59	1982.78
571.789	2087.22
571.987	2163
572.186	2023.73
572.384	1874.23
572.582	1800.51
572.781	1960.25
572.979	1743.16
573.177	1816.89
573.376	1796.41
573.574	1868.09
573.772	1665.34
573.971	1620.28
574.169	1571.13
574.367	1665.34
574.565	1835.32
574.763	1540.41
574.962	1579.33
575.16	1503.55
575.358	1524.03
575.556	1499.45
575.754	1411.39
575.952	1528.13
576.151	1245.51
576.349	1476.93
576.547	1335.62
576.745	1390.91
576.943	1339.71
577.141	1253.7
577.339	1372.48
577.537	1110.34
577.735	1300.8
577.933	1245.51
578.131	1188.16
578.329	1272.13
578.527	1079.62
578.725	1153.35
578.923	913.74
579.121	1216.83
579.319	936.26
579.516	1139.01
579.714	1268.03
579.912	1149.25
580.11	952.65
580.308	1016.13
580.506	911.69
580.704	891.21
580.901	981.32
581.099	1079.62
581.297	893.26
581.495	958.79
581.692	887.11
581.89	1132.87
582.088	1030.47
582.285	764.23
582.483	737.61
582.681	840.01
582.878	803.15
583.076	936.26
583.274	737.61
583.471	1001.8
583.669	735.56
583.866	717.13
584.064	747.85
584.262	719.18
584.459	698.7
584.657	721.23
584.854	778.57
585.052	753.99
585.249	708.94
585.447	665.93
585.644	536.91
585.841	811.34
586.039	753.99
586.236	717.13
586.434	649.55
586.631	510.29
586.828	614.73
587.026	655.69
587.223	508.24
587.42	610.64
587.618	612.68
587.815	706.89
588.012	631.12
588.21	567.63
588.407	614.73
588.604	586.06
588.801	581.96
588.999	530.77
589.196	577.87
589.393	575.82
589.59	555.34
589.787	555.34
589.984	512.33
590.182	555.34
590.379	368.98
590.576	512.33
590.773	559.44
590.97	452.94
591.167	569.68
591.364	479.57
591.561	530.77
591.758	702.79
591.955	610.64
592.152	452.94
592.349	438.61
592.546	414.03
592.743	426.32
592.94	510.29
593.137	418.13
593.334	506.19
593.531	528.72
593.727	500.05
593.924	489.81
594.121	414.03
594.318	495.95
594.515	586.06
594.712	483.66
594.908	567.63
595.105	448.85
595.302	532.81
595.499	538.96
595.696	637.26
595.892	475.47
596.089	602.44
596.286	452.94
596.482	723.27
596.679	590.16
596.876	598.35
597.072	659.79
597.269	581.96
597.466	659.79
597.662	610.64
597.859	731.47
598.055	694.6
598.252	735.56
598.448	772.43
598.645	856.39
598.841	833.86
599.038	995.65
599.234	995.65
599.431	1014.09
599.627	1014.09
599.824	944.45
600.02	991.56
600.217	1014.09
600.413	1038.66
600.609	1175.88
600.806	1372.48
601.002	1196.36
601.198	1134.92
601.395	1450.3
601.591	1366.34
601.787	1390.91
601.984	1435.97
602.18	1530.17
602.376	1585.47
602.572	1620.28
602.769	1747.26
602.965	1720.64
603.161	1849.66
603.357	1943.86
603.553	2011.45
603.75	1833.27
603.946	2079.03
604.142	2136.37
604.338	2300.21
604.534	2152.76
604.73	2371.89
604.926	2363.7
605.122	2572.59
605.318	2507.06
605.514	2677.04
605.71	2777.39
605.906	2795.82
606.102	2896.17
606.298	3019.05
606.494	3082.53
606.69	3270.95
606.886	3318.05
607.082	3330.34
607.278	3389.73
607.474	3514.66
607.67	3666.21
607.866	3436.83
608.062	3868.95
608.257	4008.22
608.453	3887.39
608.649	4016.41
608.845	4157.72
609.041	4227.35
609.236	4483.34
609.432	4600.08
609.628	4790.54
609.824	5028.1
610.019	4978.95
610.215	5058.82
610.411	5390.6
610.606	5400.83
610.802	5513.47
610.998	5650.69
611.193	5890.3
611.389	5826.81
611.584	6047.99
611.78	6193.4
611.976	6351.09
612.171	6613.23
612.367	6746.35
612.562	6762.73
612.758	7084.27
612.953	6947.05
613.149	7475.43
613.344	7612.64
613.539	7850.21
613.735	7891.16
613.93	8311
614.126	8427.73
614.321	8898.77
614.517	8741.07
614.712	9253.06
614.907	9412.81
615.103	9550.02
615.298	9812.16
615.493	10074.3
615.688	10166.46
615.884	10506.42
616.079	10784.94
616.274	11122.86
616.47	11194.54
616.665	11573.41
616.86	11753.63
617.055	12327.07
617.25	12408.98
617.445	12701.84
617.641	13039.76
617.836	13389.96
618.031	13602.95
618.226	14391.42
618.421	14506.1
618.616	14841.97
618.811	14848.11
619.006	15491.18
619.201	15716.45
619.396	16134.24
619.591	16072.8
619.786	16769.11
619.981	16803.92
620.176	17401.93
620.371	17827.91
620.566	18212.93
620.761	18669.62
620.956	19017.78
621.151	19435.56
621.346	19742.76
621.541	19591.21
621.735	20318.24
621.93	20518.94
622.125	21213.2
622.32	21239.83
622.515	21780.49
622.709	22181.89
622.904	22497.28
623.099	22894.58
623.294	23429.1
623.488	23656.43
623.683	24266.72
623.878	24281.06
624.072	25024.47
624.267	25485.26
624.462	25569.23
624.656	25853.9
624.851	26539.97
625.046	26701.76
625.24	27396.02
625.435	26990.52
625.629	28022.7
625.824	28266.41
626.018	28841.89
626.213	28460.96
626.407	29194.14
626.602	29091.74
626.796	29628.31
626.991	30211.98
627.185	30265.22
627.38	30654.34
627.574	30746.5
627.768	30775.17
627.963	31129.47
628.157	30967.68
628.352	31549.3
628.546	30904.19
628.74	31725.43
628.935	31373.17
629.129	31547.25
629.323	30795.65
629.517	30861.18
629.712	30756.74
629.906	30719.87
630.1	30021.52
630.294	30234.5
630.489	29831.05
630.683	29056.92
630.877	28661.66
631.071	28592.03
631.265	28161.96
631.459	27176.89
631.653	26779.58
631.848	26023.88
632.042	25505.74
632.236	25288.66
632.43	24276.96
632.624	23975.91
632.818	23056.37
633.012	22177.79
633.206	21542.92
633.4	21426.19
633.594	19912.74
633.788	19585.07
633.982	18825.27
634.176	18325.57
634.369	17446.99
634.563	17188.94
634.757	16037.98
634.951	15599.72
635.145	15130.73
635.339	14581.88
635.533	13811.84
635.726	13484.17
635.92	12531.86
636.114	12183.71
636.308	11593.89
636.501	11452.58
636.695	10778.8
636.889	10246.33
637.083	9914.56
637.276	9429.19
637.47	9203.91
637.664	8759.5
637.857	8388.82
638.051	8095.96
638.244	7825.63
638.438	7336.17
638.632	7117.03
638.825	6758.64
639.019	6615.28
639.212	6211.83
639.406	6242.55
639.599	5818.62
639.793	5669.12
639.986	5345.54
640.18	5290.24
640.373	4981
640.567	4823.31
640.76	4628.75
640.954	4393.23
641.147	4086.04
641.34	4075.8
641.534	4092.18
641.727	3830.04
641.92	3752.22
642.114	3553.57
642.307	3297.57
642.5	3461.41
642.694	3086.63
642.887	3084.58
643.08	2986.28
643.273	2834.73
643.467	2627.89
643.66	2521.39
643.853	2511.15
644.046	2478.38
644.239	2197.81
644.432	2183.48
644.626	2062.65
644.819	2156.85
645.012	1898.81
645.205	1923.38
645.398	1904.95
645.591	1739.07
645.784	1665.34
645.977	1564.99
646.17	1513.79
646.363	1507.65
646.556	1433.92
646.749	1276.23
646.942	1311.04
647.135	1376.58
647.328	1200.45
647.521	1165.64
647.714	1194.31
647.907	1091.91
648.099	1028.42
648.292	1040.71
648.485	987.46
648.678	911.69
648.871	856.39
649.064	854.34
649.256	782.67
649.449	725.32
649.642	653.64
649.835	827.72
650.027	684.36
650.22	790.86
650.413	704.84
650.605	741.71
650.798	604.49
650.991	561.48
651.183	584.01
651.376	596.3
651.568	575.82
651.761	493.9
651.954	559.44
652.146	479.57
652.339	553.29
652.531	512.33
652.724	407.89
652.916	411.98
653.109	336.21
653.301	454.99
653.494	454.99
653.686	395.6
653.879	538.96
654.071	411.98
654.263	360.78
654.456	352.59
654.648	438.61
654.84	364.88
655.033	280.91
655.225	387.41
655.417	239.95
655.61	414.03
655.802	299.34
655.994	342.35
656.186	198.99
656.379	344.4
656.571	233.81
656.763	278.87
656.955	201.04
657.148	164.18
657.34	323.92
657.532	231.76
657.724	188.75
657.916	262.48
658.108	215.38
658.3	293.2
658.492	256.34
658.684	166.23
658.876	174.42
659.068	160.08
659.26	115.03
659.452	129.36
659.644	188.75
659.836	260.43
660.028	246.1
660.22	153.94
660.412	102.74
660.604	188.75
660.796	92.5
660.988	198.99
661.18	96.6
661.372	248.15
661.563	180.56
661.755	186.71
661.947	115.03
662.139	143.7
662.331	92.5
662.522	153.94
662.714	51.54
662.906	143.7
663.097	129.36
663.289	162.13
663.481	35.16
663.673	117.08
663.864	63.83
664.056	117.08
664.247	106.84
664.439	266.58
664.631	108.88
664.822	168.27
665.014	131.41
665.205	88.4
665.397	22.87
665.588	129.36
665.78	123.22
665.971	100.69
666.163	94.55
666.354	139.6
666.546	117.08
666.737	92.5
666.929	53.59
667.12	72.02
667.311	203.09
667.503	129.36
667.694	164.18
667.885	76.12
668.077	162.13
668.268	14.68
668.459	49.49
668.651	188.75
668.842	143.7
669.033	49.49
669.224	49.49
669.416	244.05
669.607	47.44
669.798	86.36
669.989	176.47
670.18	26.96
670.371	201.04
670.563	72.02
670.754	213.33
670.945	168.27
671.136	125.27
671.327	55.64
671.518	223.57
671.709	260.43
671.9	178.51
672.091	227.67
672.282	57.68
672.473	155.99
672.664	127.32
672.855	176.47
673.046	123.22
673.237	129.36
673.428	141.65
673.619	155.99
673.809	76.12
674	203.09
674.191	172.37
674.382	180.56
674.573	57.68
674.764	82.26
674.954	188.75
675.145	84.31
675.336	76.12
675.527	115.03
675.717	110.93
675.908	133.46
676.099	57.68
676.289	170.32
676.48	-34.47
676.671	65.88
676.861	61.78
677.052	131.41
677.243	69.97
677.433	127.32
677.624	180.56
677.814	100.69
678.005	67.92
678.195	219.47
678.386	96.6
678.576	176.47
678.767	72.02
678.957	149.84
679.148	65.88
679.338	250.19
679.529	108.88
679.719	178.51
679.909	221.52
680.1	223.57
680.29	266.58
680.481	119.12
680.671	276.82
680.861	174.42
681.052	170.32
681.242	123.22
681.432	143.7
681.622	274.77
681.813	76.12
682.003	135.51
682.193	14.68
682.383	139.6
682.573	207.19
682.764	164.18
682.954	229.71
683.144	182.61
683.334	188.75
683.524	166.23
683.714	260.43
683.904	170.32
684.094	143.7
684.284	207.19
684.474	297.3
684.664	301.39
684.854	215.38
685.044	112.98
685.234	115.03
685.424	209.23
685.614	143.7
685.804	321.87
685.994	223.57
686.184	201.04
686.374	221.52
686.564	180.56
686.753	160.08
686.943	213.33
687.133	74.07
687.323	127.32
687.513	135.51
687.702	153.94
687.892	182.61
688.082	207.19
688.272	297.3
688.461	246.1
688.651	358.74
688.841	180.56
689.03	190.8
689.22	153.94
689.41	250.19
689.599	270.67
689.789	164.18
689.979	342.35
690.168	108.88
690.358	235.86
690.547	239.95
690.737	180.56
690.926	229.71
691.116	229.71
691.305	272.72
691.495	280.91
691.684	98.64
691.874	162.13
692.063	217.43
692.252	311.63
692.442	207.19
692.631	184.66
692.82	246.1
693.01	229.71
693.199	129.36
693.388	186.71
693.578	194.9
693.767	201.04
693.956	225.62
694.146	141.65
694.335	160.08
694.524	166.23
694.713	239.95
694.902	158.03
695.092	49.49
695.281	174.42
695.47	164.18
695.659	186.71
695.848	153.94
696.037	127.32
696.226	229.71
696.415	209.23
696.604	254.29
696.793	311.63
696.982	74.07
697.171	303.44
697.36	67.92
697.549	194.9
697.738	106.84
697.927	235.86
698.116	129.36
698.305	196.95
698.494	160.08
698.683	153.94
698.872	270.67
699.061	172.37
699.25	164.18
699.438	162.13
699.627	203.09
699.816	272.72
700.005	26.96
700.193	166.23
700.382	248.15
700.571	174.42
700.76	158.03
700.948	223.57
701.137	246.1
701.326	262.48
701.514	180.56
701.703	252.24
701.892	112.98
702.08	289.1
702.269	160.08
702.457	117.08
702.646	190.8
702.834	133.46
703.023	239.95
703.212	227.67
703.4	196.95
703.589	184.66
703.777	205.14
703.965	162.13
704.154	4.44
704.342	61.78
704.531	160.08
704.719	264.53
704.907	231.76
705.096	160.08
705.284	141.65
705.472	196.95
705.661	158.03
705.849	145.75
706.037	287.06
706.226	233.81
706.414	168.27
706.602	88.4
706.79	280.91
706.979	110.93
707.167	190.8
707.355	108.88
707.543	190.8
707.731	217.43
707.919	155.99
708.107	137.56
708.296	115.03
708.484	104.79
708.672	239.95
708.86	162.13
709.048	158.03
709.236	201.04
709.424	192.85
709.612	303.44
709.8	100.69
709.988	174.42
710.176	205.14
710.364	227.67
710.551	143.7
710.739	215.38
710.927	129.36
711.115	143.7
711.303	252.24
711.491	268.63
711.679	125.27
711.866	233.81
712.054	88.4
712.242	176.47
712.43	244.05
712.617	172.37
712.805	239.95
712.993	209.23
713.181	86.36
713.368	225.62
713.556	209.23
713.744	178.51
713.931	262.48
714.119	239.95
714.306	145.75
714.494	160.08
714.682	201.04
714.869	57.68
715.057	115.03
715.244	69.97
715.432	133.46
715.619	151.89
715.807	143.7
715.994	141.65
716.182	201.04
716.369	254.29
716.556	188.75
716.744	29.01
716.931	80.21
717.119	219.47
717.306	76.12
717.493	172.37
717.681	174.42
717.868	149.84
718.055	246.1
718.242	143.7
718.43	209.23
718.617	203.09
718.804	252.24
718.991	233.81
719.179	233.81
719.366	233.81
719.553	168.27
719.74	170.32
719.927	123.22
720.114	180.56
720.301	139.6
720.488	194.9
720.676	221.52
720.863	264.53
721.05	397.65
721.237	205.14
721.424	223.57
721.611	141.65
721.798	141.65
721.985	207.19
722.172	176.47
722.358	139.6
722.545	323.92
722.732	260.43
722.919	233.81
723.106	299.34
723.293	242
723.48	233.81
723.667	155.99
723.853	295.25
724.04	184.66
724.227	242
724.414	137.56
724.6	289.1
724.787	272.72
724.974	397.65
725.161	149.84
725.347	100.69
725.534	231.76
725.72	180.56
725.907	250.19
726.094	217.43
726.28	264.53
726.467	264.53
726.653	139.6
726.84	377.17
727.027	336.21
727.213	244.05
727.4	295.25
727.586	141.65
727.773	166.23
727.959	221.52
728.145	250.19
728.332	278.87
728.518	174.42
728.705	237.91
728.891	285.01
729.077	196.95
729.264	227.67
729.45	244.05
729.636	270.67
729.823	282.96
730.009	250.19
730.195	287.06
730.382	266.58
730.568	115.03
730.754	213.33
730.94	190.8
731.126	217.43
731.313	264.53
731.499	268.63
731.685	248.15
731.871	305.49
732.057	276.82
732.243	301.39
732.429	323.92
732.615	364.88
732.801	260.43
732.987	223.57
733.173	180.56
733.359	233.81
733.545	246.1
733.731	188.75
733.917	319.82
734.103	336.21
734.289	295.25
734.475	272.72
734.661	424.27
734.847	287.06
735.033	264.53
735.219	268.63
735.404	293.2
735.59	252.24
735.776	295.25
735.962	258.39
736.148	305.49
736.333	360.78
736.519	229.71
736.705	272.72
736.89	295.25
737.076	270.67
737.262	162.13
737.447	233.81
737.633	272.72
737.819	303.44
738.004	282.96
738.19	252.24
738.375	242
738.561	289.1
738.747	270.67
738.932	201.04
739.118	446.8
739.303	268.63
739.489	344.4
739.674	264.53
739.859	313.68
740.045	332.11
740.23	305.49
740.416	92.5
740.601	289.1
740.786	237.91
740.972	170.32
741.157	215.38
741.342	166.23
741.528	219.47
741.713	377.17
741.898	250.19
742.084	280.91
742.269	278.87
742.454	321.87
742.639	242
742.824	227.67
743.01	360.78
743.195	373.07
743.38	242
743.565	213.33
743.75	219.47
743.935	403.79
744.12	336.21
744.305	174.42
744.49	205.14
744.675	321.87
744.86	297.3
745.045	295.25
745.23	258.39
745.415	119.12
745.6	323.92
745.785	201.04
745.97	280.91
746.155	315.73
746.34	371.02
746.525	262.48
746.71	342.35
746.895	170.32
747.079	219.47
747.264	219.47
747.449	278.87
747.634	344.4
747.819	266.58
748.003	135.51
748.188	227.67
748.373	266.58
748.557	287.06
748.742	213.33
748.927	270.67
749.111	225.62
749.296	250.19
749.481	184.66
749.665	211.28
749.85	129.36
750.034	270.67
750.219	211.28
750.404	139.6
750.588	190.8
750.773	174.42
750.957	223.57
751.141	188.75
751.326	295.25
751.51	184.66
751.695	170.32
751.879	217.43
752.064	293.2
752.248	209.23
752.432	338.26
752.617	291.15
752.801	258.39
752.985	229.71
753.17	262.48
753.354	205.14
753.538	166.23
753.722	123.22
753.907	168.27
754.091	29.01
754.275	172.37
754.459	117.08
754.643	133.46
754.828	196.95
755.012	194.9
755.196	170.32
755.38	192.85
755.564	153.94
755.748	125.27
755.932	233.81
756.116	285.01
756.3	180.56
756.484	164.18
756.668	135.51
756.852	162.13
757.036	172.37
757.22	211.28
757.404	205.14
757.588	215.38
757.772	205.14
757.956	149.84
758.14	299.34
758.323	78.16
758.507	180.56
758.691	125.27
758.875	180.56
759.059	235.86
759.242	86.36
759.426	149.84
759.61	135.51
759.794	170.32
759.977	188.75
760.161	391.5
760.345	176.47
760.528	227.67
760.712	209.23
760.895	162.13
761.079	168.27
761.263	22.87
761.446	39.25
761.63	57.68
761.813	217.43
761.997	102.74
762.18	92.5
762.364	92.5
762.547	0.34
762.731	153.94
762.914	74.07
763.098	119.12
763.281	47.44
763.464	80.21
763.648	98.64
763.831	139.6
764.015	106.84
764.198	174.42
764.381	69.97
764.564	106.84
764.748	121.17
764.931	192.85
765.114	117.08
765.297	176.47
765.481	155.99
765.664	201.04
765.847	69.97
766.03	190.8
766.213	-22.19
766.397	147.8
766.58	-7.85
766.763	121.17
766.946	49.49
767.129	10.58
767.312	29.01
767.495	102.74
767.678	108.88
767.861	26.96
768.044	123.22
768.227	184.66
768.41	39.25
768.593	61.78
768.776	158.03
768.959	129.36
769.142	158.03
769.324	61.78
769.507	76.12
769.69	80.21
769.873	125.27
770.056	303.44
770.239	4.44
770.421	207.19
770.604	151.89
770.787	106.84
770.97	112.98
771.152	10.58
771.335	135.51
771.518	24.92
771.7	237.91
771.883	182.61
772.066	135.51
772.248	92.5
772.431	178.51
772.613	108.88
772.796	141.65
772.978	82.26
773.161	209.23
773.343	67.92
773.526	86.36
773.708	-65.19
773.891	0.34
774.073	57.68
774.256	127.32
774.438	233.81
774.621	51.54
774.803	121.17
774.985	67.92
775.168	45.4
775.35	22.87
775.532	94.55
775.715	100.69
775.897	67.92
776.079	88.4
776.261	72.02
776.444	119.12
776.626	49.49
776.808	37.2
776.99	43.35
777.173	47.44
777.355	119.12
777.537	139.6
777.719	55.64
777.901	80.21
778.083	-38.57
778.265	18.77
778.447	182.61
778.629	22.87
778.811	131.41
778.993	53.59
779.175	131.41
779.357	155.99
779.539	-38.57
779.721	149.84
779.903	131.41
780.085	55.64
780.267	31.06
780.449	41.3
780.631	172.37
780.812	104.79
780.994	47.44
781.176	80.21
781.358	4.44
781.54	-11.95
781.721	104.79
781.903	61.78
782.085	8.53
782.267	143.7
782.448	-77.48
782.63	63.83
782.812	108.88
782.993	121.17
783.175	115.03
783.357	86.36
783.538	45.4
783.72	-34.47
783.901	86.36
784.083	86.36
784.264	43.35
784.446	-20.14
784.627	-38.57
784.809	106.84
784.99	-54.95
785.172	49.49
785.353	80.21
785.535	88.4
785.716	14.68
785.897	-46.76
786.079	29.01
786.26	49.49
786.441	63.83
786.623	57.68
786.804	74.07
786.985	76.12
787.167	69.97
787.348	-7.85
787.529	86.36
787.71	151.89
787.891	90.45
788.073	-30.38
788.254	-67.24
788.435	203.09
788.616	53.59
788.797	26.96
788.978	-20.14
789.159	-11.95
789.34	29.01
789.522	78.16
789.703	-7.85
789.884	69.97
790.065	69.97
790.246	141.65
790.427	45.4
790.607	192.85
790.788	86.36
790.969	24.92
791.15	121.17
791.331	-40.62
791.512	22.87
791.693	-118.44
791.874	16.73
792.054	198.99
792.235	117.08
792.416	-9.9
792.597	-7.85
792.778	67.92
792.958	102.74
793.139	47.44
793.32	8.53
793.5	-32.43
793.681	84.31
793.862	47.44
794.042	24.92
794.223	-20.14
794.404	4.44
794.584	-42.67
794.765	18.77
794.945	80.21
795.126	98.64
795.306	72.02
795.487	-20.14
795.667	47.44
795.848	6.49
796.028	63.83
796.209	57.68
796.389	94.55
796.57	-18.09
796.75	-48.81
796.93	86.36
797.111	-69.29
797.291	14.68
797.471	55.64
797.652	86.36
797.832	37.2
798.012	86.36
798.192	51.54
798.373	-75.43
798.553	10.58
798.733	86.36
798.913	8.53
799.093	2.39
799.274	-20.14
799.454	92.5
799.634	-18.09
799.814	94.55
799.994	57.68
800.174	96.6
800.354	45.4
800.534	-71.34
800.714	119.12
800.894	-67.24
801.074	2.39
801.254	41.3
801.434	123.22
801.614	-26.28
801.794	-65.19
801.974	2003.25
802.154	55.64
802.334	100.69
802.514	-40.62
802.693	59.73
802.873	8.53
803.053	117.08
803.233	53.59
803.413	29.01
803.592	31.06
803.772	16.73
803.952	26.96
804.131	-136.87
804.311	51.54
804.491	100.69
804.67	-30.38
804.85	-20.14
805.03	61.78
805.209	14.68
805.389	-65.19
805.568	53.59
805.748	-42.67
805.928	8.53
806.107	63.83
806.287	80.21
806.466	33.11
806.646	29.01
806.825	0.34
807.004	-67.24
807.184	35.16
807.363	61.78
807.543	74.07
807.722	53.59
807.901	104.79
808.081	59.73
808.26	-104.11
808.439	33.11
808.619	4.44
808.798	10.58
808.977	63.83
809.156	55.64
809.336	45.4
809.515	96.6
809.694	-36.52
809.873	-38.57
810.052	78.16
810.231	43.35
810.411	115.03
810.59	125.27
810.769	10.58
810.948	65.88
811.127	-75.43
811.306	12.63
811.485	-24.23
811.664	188.75
811.843	-22.19
812.022	51.54
812.201	18.77
812.38	-36.52
812.559	-5.8
812.737	53.59
812.916	-83.63
813.095	-38.57
813.274	84.31
813.453	-38.57
813.632	76.12
813.811	74.07
813.989	-44.71
814.168	45.4
814.347	-87.72
814.526	-18.09
814.704	43.35
814.883	117.08
815.062	-3.75
815.24	18.77
815.419	-134.82
815.598	49.49
815.776	-93.87
815.955	37.2
816.133	-104.11
816.312	41.3
816.49	-44.71
816.669	10.58
816.847	-18.09
817.026	51.54
817.204	86.36
817.383	-13.99
817.561	-34.47
817.74	20.82
817.918	-3.75
818.097	-54.95
818.275	-40.62
818.453	41.3
818.632	125.27
818.81	-16.04
818.988	-42.67
819.167	6.49
819.345	-3.75
819.523	-59.05
819.701	88.4
819.879	35.16
820.058	29.01
820.236	14.68
820.414	-13.99
820.592	-32.43
820.77	-28.33
820.948	-54.95
821.127	-1.71
821.305	24.92
821.483	-73.39
821.661	106.84
821.839	47.44
822.017	-13.99
822.195	-7.85
822.373	106.84
822.551	6.49
822.729	72.02
822.907	-24.23
823.085	-20.14
823.262	125.27
823.44	-57
823.618	20.82
823.796	-16.04
823.974	6.49
824.152	12.63
824.329	-11.95
824.507	-63.15
824.685	57.68
824.863	-34.47
825.04	-65.19
825.218	37.2
825.396	-73.39
825.574	8.53
825.751	94.55
825.929	43.35
826.107	-30.38
826.284	18.77
826.462	16.73
826.639	-57
826.817	-67.24
826.994	39.25
827.172	-50.86
827.349	131.41
827.527	53.59
827.704	10.58
827.882	-16.04
828.059	-116.39
828.237	14.68
828.414	98.64
828.591	-52.91
828.769	49.49
828.946	-69.29
829.124	45.4
829.301	112.98
829.478	-11.95
829.655	45.4
829.833	14.68
830.01	-143.02
830.187	94.55
830.364	22.87
830.542	12.63
830.719	94.55
830.896	65.88
831.073	43.35
831.25	41.3
831.427	92.5
831.604	18.77
831.782	-46.76
831.959	108.88
832.136	2.39
832.313	6.49
832.49	6.49
832.667	115.03
832.844	-61.1
833.021	94.55
833.198	16.73
833.374	12.63
833.551	47.44
833.728	-11.95
833.905	121.17
834.082	-130.73
834.259	-18.09
834.436	98.64
834.612	-30.38
834.789	100.69
834.966	0.34
835.143	-9.9
835.319	-11.95
835.496	-28.33
835.673	14.68
835.85	112.98
836.026	69.97
836.203	84.31
836.38	-85.67
836.556	-46.76
836.733	35.16
836.909	65.88
837.086	-85.67
837.262	-16.04
837.439	-34.47
837.616	-126.63
837.792	-40.62
837.968	-69.29
838.145	-91.82
838.321	6.49
838.498	55.64
838.674	2.39
838.851	67.92
839.027	41.3
839.203	51.54
839.38	72.02
839.556	-104.11
839.732	98.64
839.909	-18.09
840.085	125.27
840.261	-116.39
840.437	-40.62
840.614	-30.38
840.79	84.31
840.966	82.26
841.142	2.39
841.318	-46.76
841.494	6.49
841.671	47.44
841.847	-44.71
842.023	-20.14
842.199	49.49
842.375	158.03
842.551	-46.76
842.727	-11.95
842.903	94.55
843.079	-106.15
843.255	129.36
843.431	37.2
843.607	4.44
843.783	-128.68
843.959	80.21
844.134	-20.14
844.31	143.7
844.486	-7.85
844.662	-20.14
844.838	-7.85
845.013	82.26
845.189	31.06
845.365	12.63
845.541	-40.62
845.716	59.73
845.892	55.64
846.068	12.63
846.244	-22.19
846.419	10.58
846.595	-87.72
846.77	-36.52
846.946	80.21
847.122	-48.81
847.297	-54.95
847.473	61.78
847.648	-130.73
847.824	24.92
847.999	-196.26
848.175	24.92
848.35	72.02
848.526	102.74
848.701	26.96
848.876	39.25
849.052	117.08
849.227	-26.28
849.403	-11.95
849.578	37.2
849.753	10.58
849.929	78.16
850.104	-48.81
850.279	10.58
850.454	67.92
850.63	22.87
850.805	-5.8
850.98	51.54
851.155	47.44
851.33	65.88
851.505	-106.15
851.681	53.59
851.856	-52.91
852.031	43.35
852.206	2.39
852.381	-77.48
852.556	-26.28
852.731	22.87
852.906	102.74
853.081	55.64
853.256	39.25
853.431	-38.57
853.606	45.4
853.781	-46.76
853.956	-120.49
854.131	33.11
854.305	-110.25
854.48	-79.53
854.655	-38.57
854.83	-122.54
855.005	-16.04
855.18	-65.19
855.354	16.73
855.529	4.44
855.704	-54.95
855.879	29.01
856.053	-75.43
856.228	96.6
856.403	-36.52
856.577	-48.81
856.752	-63.15
856.926	35.16
857.101	8.53
857.276	-63.15
857.45	-9.9
857.625	151.89
857.799	-5.8
857.974	33.11
858.148	-59.05
858.323	4.44
858.497	-89.77
858.672	-24.23
858.846	0.34
859.02	39.25
859.195	-112.3
859.369	-44.71
859.543	-5.8
859.718	80.21
859.892	-34.47
860.066	-44.71
860.241	-9.9
860.415	-71.34
860.589	-16.04
860.763	41.3
860.938	-11.95
861.112	51.54
861.286	-71.34
861.46	-28.33
861.634	-5.8
861.808	53.59
861.982	-38.57
862.157	-85.67
862.331	-52.91
862.505	-30.38
862.679	-30.38
862.853	12.63
863.027	8.53
863.201	47.44
863.375	35.16
863.549	41.3
863.722	76.12
863.896	98.64
864.07	-71.34
864.244	-24.23
864.418	4.44
864.592	-69.29
864.766	61.78
864.939	-22.19
865.113	-7.85
865.287	98.64
865.461	-22.19
865.634	117.08
865.808	-46.76
865.982	-120.49
866.156	-42.67
866.329	-67.24
866.503	-52.91
866.676	10.58
866.85	57.68
867.024	-1.71
867.197	63.83
867.371	-3.75
867.544	-9.9
867.718	-110.25
867.891	76.12
868.065	-50.86
868.238	10.58
868.412	117.08
868.585	-22.19
868.759	20.82
868.932	-50.86
869.105	-95.91
869.279	57.68
869.452	-36.52
869.625	4.44
869.799	-77.48
869.972	-34.47
870.145	-26.28
870.319	78.16
870.492	0.34
870.665	-22.19
870.838	-69.29
871.011	-183.98
871.185	-73.39
871.358	-44.71
871.531	47.44
871.704	65.88
871.877	-59.05
872.05	-34.47
872.223	-9.9
872.396	6.49
872.569	74.07
872.742	-36.52
872.915	-5.8
873.088	4.44
873.261	-63.15
873.434	98.64
873.607	29.01
873.78	49.49
873.953	-67.24
874.126	-5.8
874.299	14.68
874.471	4.44
874.644	-71.34
874.817	96.6
874.99	55.64
875.163	-61.1
875.335	53.59
875.508	41.3
875.681	65.88
875.853	-48.81
876.026	-7.85
876.199	-26.28
876.371	6.49
876.544	-77.48
876.717	16.73
876.889	-16.04
877.062	-1.71
877.234	-71.34
877.407	-89.77
877.579	22.87
877.752	-7.85
877.924	53.59
878.097	86.36
878.269	59.73
878.442	31.06
878.614	4.44
878.786	41.3
878.959	8.53
879.131	4.44
879.303	-128.68
879.476	22.87
879.648	37.2
879.82	-18.09
879.993	-54.95
880.165	39.25
880.337	-89.77
880.509	39.25
880.681	-110.25
880.854	-18.09
881.026	26.96
881.198	180.56
881.37	-61.1
881.542	20.82
881.714	4.44
881.886	-71.34
882.058	-34.47
882.23	0.34
882.402	-20.14
882.574	-22.19
882.746	78.16
882.918	190.8
883.09	-5.8
883.262	-22.19
883.434	16.73
883.606	-153.26
883.778	53.59
883.95	98.64
884.122	-36.52
884.293	51.54
884.465	82.26
884.637	76.12
884.809	-18.09
884.98	98.64
885.152	65.88
885.324	-26.28
885.496	-71.34
885.667	-50.86
885.839	-48.81
886.011	67.92
886.182	100.69
886.354	49.49
886.525	33.11
886.697	37.2
886.869	-61.1
887.04	24.92
887.212	121.17
887.383	158.03
887.555	-28.33
887.726	-61.1
887.897	-67.24
888.069	-16.04
888.24	39.25
888.412	37.2
888.583	-26.28
888.754	-61.1
888.926	-48.81
889.097	-59.05
889.268	-44.71
889.44	-52.91
889.611	-104.11
889.782	-83.63
889.953	-97.96
890.125	80.21
890.296	-5.8
890.467	-26.28
890.638	-28.33
890.809	2.39
890.98	-46.76
891.151	0.34
891.323	53.59
891.494	2.39
891.665	-59.05
891.836	24.92
892.007	-44.71
892.178	43.35
892.349	-42.67
892.52	-81.58
892.691	29.01
892.862	-36.52
893.032	-71.34
893.203	-32.43
893.374	8.53
893.545	49.49
893.716	-71.34
893.887	43.35
894.057	-69.29
894.228	43.35
894.399	-85.67
894.57	129.36
894.74	-13.99
894.911	33.11
895.082	8.53
895.253	-22.19
895.423	22.87
895.594	65.88
895.764	61.78
895.935	-50.86
896.106	-5.8
896.276	-65.19
896.447	-114.34
896.617	-147.11
896.788	-75.43
896.958	29.01
897.129	-69.29
897.299	-48.81
897.47	61.78
897.64	41.3
897.81	26.96
897.981	43.35
898.151	-46.76
898.322	20.82
898.492	59.73
898.662	-102.06
898.832	-28.33
899.003	-3.75
899.173	20.82
899.343	-42.67
899.513	2.39
