Data from USB4F104151__68__09-29-29-995.txt Node

Date: Wed Feb 26 09:29:29 EST 2025
User: louis
Spectrometer: USB4F10415
Trigger mode: 4
Integration Time (sec): 1.000000E-1
Scans to average: 1
Electric dark correction enabled: true
Nonlinearity correction enabled: false
Boxcar width: 0
XAxis mode: Wavelengths
Number of Pixels in Spectrum: 3648
>>>>>Begin Spectral Data<<<<<
178.204	-340.65
178.424	-340.65
178.644	-340.65
178.864	-307.88
179.084	-357.03
179.304	40.28
179.524	-33.45
179.744	-103.08
179.964	54.61
180.184	-29.35
180.404	89.43
180.624	1.37
180.844	-2.73
181.064	-51.88
181.283	3.41
181.503	13.65
181.723	17.75
181.943	-51.88
182.163	146.77
182.383	97.62
182.602	132.44
182.822	118.1
183.042	42.32
183.262	11.61
183.482	34.13
183.701	-55.98
183.921	3.41
184.141	-53.93
184.361	17.75
184.58	111.96
184.8	9.56
185.02	5.46
185.239	165.2
185.459	171.35
185.679	116.05
185.898	-80.55
186.118	71
186.338	38.23
186.557	116.05
186.777	7.51
186.997	58.71
187.216	38.23
187.436	122.2
187.655	-6.83
187.875	114
188.095	46.42
188.314	148.82
188.534	122.2
188.753	-4.78
188.973	157.01
189.192	152.91
189.412	-17.07
189.631	30.04
189.851	83.28
190.07	202.07
190.29	-35.5
190.509	-12.97
190.729	54.61
190.948	118.1
191.168	220.5
191.387	38.23
191.607	42.32
191.826	25.94
192.045	89.43
192.265	42.32
192.484	109.91
192.704	34.13
192.923	-31.4
193.142	183.63
193.362	111.96
193.581	132.44
193.8	58.71
194.02	114
194.239	93.52
194.458	60.76
194.678	19.8
194.897	60.76
195.116	62.8
195.335	50.52
195.555	52.56
195.774	71
195.993	48.47
196.212	71
196.432	38.23
196.651	38.23
196.87	36.18
197.089	265.55
197.308	-2.73
197.528	144.72
197.747	40.28
197.966	58.71
198.185	146.77
198.404	13.65
198.623	111.96
198.842	163.15
199.062	130.39
199.281	116.05
199.5	44.37
199.719	124.24
199.938	30.04
200.157	122.2
200.376	183.63
200.595	148.82
200.814	122.2
201.033	-25.26
201.252	116.05
201.471	58.71
201.69	7.51
201.909	36.18
202.128	95.57
202.347	109.91
202.566	46.42
202.785	-41.64
203.004	-60.07
203.223	247.12
203.442	54.61
203.661	25.94
203.879	99.67
204.098	87.38
204.317	46.42
204.536	118.1
204.755	68.95
204.974	79.19
205.193	-2.73
205.411	152.91
205.63	136.53
205.849	21.85
206.068	42.32
206.287	17.75
206.505	109.91
206.724	-10.92
206.943	-33.45
207.162	-35.5
207.381	52.56
207.599	34.13
207.818	58.71
208.037	42.32
208.255	83.28
208.474	52.56
208.693	83.28
208.911	21.85
209.13	126.29
209.349	114
209.567	187.73
209.786	200.02
210.005	30.04
210.223	19.8
210.442	-101.03
210.661	44.37
210.879	21.85
211.098	-45.74
211.316	60.76
211.535	50.52
211.753	5.46
211.972	38.23
212.191	-0.68
212.409	46.42
212.628	97.62
212.846	107.86
213.065	75.09
213.283	126.29
213.502	7.51
213.72	7.51
213.938	58.71
214.157	9.56
214.375	75.09
214.594	19.8
214.812	15.7
215.031	-2.73
215.249	17.75
215.467	34.13
215.686	21.85
215.904	105.81
216.122	46.42
216.341	128.34
216.559	13.65
216.778	132.44
216.996	136.53
217.214	-35.5
217.432	71
217.651	-27.31
217.869	36.18
218.087	-49.83
218.306	-125.61
218.524	27.99
218.742	-8.87
218.96	38.23
219.179	-31.4
219.397	-21.16
219.615	214.35
219.833	187.73
220.051	-12.97
220.27	128.34
220.488	66.9
220.706	60.76
220.924	44.37
221.142	-0.68
221.36	75.09
221.578	103.76
221.796	77.14
222.015	34.13
222.233	13.65
222.451	200.02
222.669	-37.55
222.887	95.57
223.105	71
223.323	64.85
223.541	-10.92
223.759	46.42
223.977	52.56
224.195	144.72
224.413	128.34
224.631	71
224.849	52.56
225.067	165.2
225.285	-49.83
225.503	-12.97
225.721	-62.12
225.939	-43.69
226.157	56.66
226.375	163.15
226.592	17.75
226.81	40.28
227.028	120.15
227.246	111.96
227.464	54.61
227.682	58.71
227.9	62.8
228.117	52.56
228.335	111.96
228.553	38.23
228.771	54.61
228.989	111.96
229.206	118.1
229.424	17.75
229.642	-39.59
229.86	-0.68
230.077	95.57
230.295	38.23
230.513	154.96
230.731	-0.68
230.948	177.49
231.166	169.3
231.384	7.51
231.601	-23.21
231.819	167.25
232.037	56.66
232.254	-0.68
232.472	27.99
232.689	27.99
232.907	99.67
233.125	34.13
233.342	-17.07
233.56	13.65
233.777	-76.46
233.995	5.46
234.213	167.25
234.43	42.32
234.648	60.76
234.865	-23.21
235.083	79.19
235.3	60.76
235.518	120.15
235.735	60.76
235.953	85.33
236.17	30.04
236.388	62.8
236.605	38.23
236.822	56.66
237.04	44.37
237.257	101.72
237.475	-111.27
237.692	19.8
237.909	114
238.127	-8.87
238.344	114
238.562	50.52
238.779	38.23
238.996	11.61
239.214	107.86
239.431	114
239.648	27.99
239.865	77.14
240.083	79.19
240.3	21.85
240.517	-68.27
240.735	48.47
240.952	136.53
241.169	97.62
241.386	97.62
241.603	44.37
241.821	-47.79
242.038	85.33
242.255	122.2
242.472	-21.16
242.689	30.04
242.907	91.48
243.124	116.05
243.341	-94.89
243.558	13.65
243.775	17.75
243.992	-64.17
244.209	25.94
244.426	177.49
244.643	79.19
244.86	27.99
245.078	103.76
245.295	81.24
245.512	27.99
245.729	27.99
245.946	91.48
246.163	-10.92
246.38	38.23
246.597	91.48
246.814	-6.83
247.031	105.81
247.248	-0.68
247.464	32.08
247.681	17.75
247.898	75.09
248.115	42.32
248.332	-55.98
248.549	138.58
248.766	144.72
248.983	32.08
249.2	68.95
249.417	161.11
249.633	19.8
249.85	93.52
250.067	23.89
250.284	79.19
250.501	56.66
250.717	142.68
250.934	9.56
251.151	83.28
251.368	77.14
251.585	83.28
251.801	71
252.018	25.94
252.235	124.24
252.451	-117.42
252.668	-15.02
252.885	126.29
253.102	93.52
253.318	46.42
253.535	66.9
253.752	19.8
253.968	73.04
254.185	-55.98
254.401	46.42
254.618	13.65
254.835	-8.87
255.051	107.86
255.268	79.19
255.484	71
255.701	-21.16
255.917	93.52
256.134	-25.26
256.351	17.75
256.567	1.37
256.784	30.04
257	-35.5
257.217	13.65
257.433	93.52
257.65	36.18
257.866	120.15
258.082	-35.5
258.299	25.94
258.515	54.61
258.732	9.56
258.948	103.76
259.165	66.9
259.381	-10.92
259.597	71
259.814	50.52
260.03	-6.83
260.246	-8.87
260.463	146.77
260.679	142.68
260.895	44.37
261.112	54.61
261.328	54.61
261.544	-19.11
261.761	152.91
261.977	38.23
262.193	-64.17
262.409	136.53
262.626	89.43
262.842	75.09
263.058	3.41
263.274	54.61
263.49	64.85
263.707	83.28
263.923	91.48
264.139	-45.74
264.355	60.76
264.571	157.01
264.787	91.48
265.004	200.02
265.22	-0.68
265.436	-45.74
265.652	91.48
265.868	91.48
266.084	27.99
266.3	34.13
266.516	-80.55
266.732	54.61
266.948	103.76
267.164	-45.74
267.38	60.76
267.596	30.04
267.812	202.07
268.028	60.76
268.244	1.37
268.46	103.76
268.676	79.19
268.892	54.61
269.108	-2.73
269.324	-10.92
269.54	-31.4
269.756	3.41
269.972	-117.42
270.188	68.95
270.403	-21.16
270.619	99.67
270.835	103.76
271.051	-31.4
271.267	34.13
271.483	30.04
271.698	50.52
271.914	91.48
272.13	9.56
272.346	9.56
272.562	15.7
272.777	73.04
272.993	36.18
273.209	15.7
273.425	136.53
273.64	-84.65
273.856	126.29
274.072	-35.5
274.287	-10.92
274.503	34.13
274.719	25.94
274.934	5.46
275.15	-137.9
275.366	13.65
275.581	-58.03
275.797	36.18
276.012	62.8
276.228	3.41
276.444	60.76
276.659	157.01
276.875	-31.4
277.09	-4.78
277.306	-35.5
277.521	79.19
277.737	54.61
277.952	58.71
278.168	36.18
278.383	91.48
278.599	50.52
278.814	116.05
279.03	58.71
279.245	128.34
279.461	46.42
279.676	50.52
279.892	-31.4
280.107	-80.55
280.322	-31.4
280.538	79.19
280.753	46.42
280.969	85.33
281.184	7.51
281.399	154.96
281.615	71
281.83	165.2
282.045	-84.65
282.26	23.89
282.476	46.42
282.691	91.48
282.906	13.65
283.122	15.7
283.337	32.08
283.552	50.52
283.767	52.56
283.983	19.8
284.198	-64.17
284.413	83.28
284.628	5.46
284.843	-4.78
285.058	93.52
285.274	13.65
285.489	9.56
285.704	-10.92
285.919	21.85
286.134	1.37
286.349	79.19
286.564	-19.11
286.779	148.82
286.995	42.32
287.21	-39.59
287.425	44.37
287.64	103.76
287.855	15.7
288.07	-27.31
288.285	93.52
288.5	122.2
288.715	50.52
288.93	15.7
289.145	-37.55
289.36	103.76
289.575	40.28
289.79	97.62
290.004	-10.92
290.219	181.59
290.434	-15.02
290.649	-55.98
290.864	5.46
291.079	-49.83
291.294	58.71
291.509	79.19
291.724	-70.31
291.938	-35.5
292.153	15.7
292.368	21.85
292.583	93.52
292.798	134.48
293.012	83.28
293.227	105.81
293.442	-4.78
293.657	56.66
293.871	109.91
294.086	87.38
294.301	193.87
294.516	85.33
294.73	95.57
294.945	-17.07
295.16	60.76
295.374	87.38
295.589	71
295.804	13.65
296.018	83.28
296.233	103.76
296.447	114
296.662	17.75
296.877	101.72
297.091	62.8
297.306	120.15
297.52	40.28
297.735	87.38
297.949	46.42
298.164	77.14
298.378	89.43
298.593	-27.31
298.807	40.28
299.022	-27.31
299.236	234.83
299.451	111.96
299.665	103.76
299.88	109.91
300.094	68.95
300.309	93.52
300.523	87.38
300.737	-17.07
300.952	54.61
301.166	83.28
301.381	-60.07
301.595	-33.45
301.809	99.67
302.024	-37.55
302.238	-31.4
302.452	48.47
302.667	58.71
302.881	114
303.095	195.92
303.309	56.66
303.524	-35.5
303.738	-31.4
303.952	68.95
304.166	62.8
304.381	-60.07
304.595	140.63
304.809	-37.55
305.023	11.61
305.237	32.08
305.452	3.41
305.666	114
305.88	66.9
306.094	109.91
306.308	81.24
306.522	93.52
306.736	11.61
306.95	85.33
307.164	85.33
307.379	83.28
307.593	138.58
307.807	107.86
308.021	52.56
308.235	107.86
308.449	-68.27
308.663	48.47
308.877	140.63
309.091	68.95
309.305	32.08
309.519	-96.94
309.733	85.33
309.947	-19.11
310.161	79.19
310.374	30.04
310.588	120.15
310.802	34.13
311.016	11.61
311.23	48.47
311.444	-2.73
311.658	68.95
311.872	163.15
312.085	152.91
312.299	165.2
312.513	126.29
312.727	27.99
312.941	-4.78
313.154	101.72
313.368	68.95
313.582	99.67
313.796	60.76
314.009	-19.11
314.223	169.3
314.437	89.43
314.651	114
314.864	-39.59
315.078	-64.17
315.292	-23.21
315.505	32.08
315.719	71
315.933	120.15
316.146	-15.02
316.36	-68.27
316.573	81.24
316.787	101.72
317.001	83.28
317.214	11.61
317.428	38.23
317.641	-62.12
317.855	-4.78
318.068	1.37
318.282	50.52
318.495	200.02
318.709	85.33
318.922	-4.78
319.136	120.15
319.349	62.8
319.563	-4.78
319.776	-21.16
319.99	-121.51
320.203	48.47
320.417	30.04
320.63	144.72
320.843	161.11
321.057	54.61
321.27	62.8
321.483	114
321.697	159.06
321.91	91.48
322.124	30.04
322.337	75.09
322.55	-113.32
322.763	-2.73
322.977	-39.59
323.19	54.61
323.403	58.71
323.617	58.71
323.83	116.05
324.043	42.32
324.256	64.85
324.469	1.37
324.683	109.91
324.896	44.37
325.109	-0.68
325.322	-96.94
325.535	-2.73
325.748	128.34
325.962	87.38
326.175	30.04
326.388	19.8
326.601	83.28
326.814	30.04
327.027	60.76
327.24	154.96
327.453	-25.26
327.666	40.28
327.879	177.49
328.092	169.3
328.305	111.96
328.518	34.13
328.731	-31.4
328.944	-6.83
329.157	-4.78
329.37	-37.55
329.583	179.54
329.796	175.44
330.009	-39.59
330.222	99.67
330.435	85.33
330.648	124.24
330.861	71
331.073	120.15
331.286	87.38
331.499	71
331.712	-55.98
331.925	85.33
332.138	25.94
332.35	89.43
332.563	50.52
332.776	87.38
332.989	-45.74
333.202	-10.92
333.414	107.86
333.627	25.94
333.84	48.47
334.053	165.2
334.265	-15.02
334.478	-19.11
334.691	21.85
334.903	50.52
335.116	-10.92
335.329	79.19
335.541	34.13
335.754	150.87
335.966	13.65
336.179	50.52
336.392	11.61
336.604	17.75
336.817	36.18
337.029	44.37
337.242	38.23
337.454	23.89
337.667	-8.87
337.88	128.34
338.092	66.9
338.305	120.15
338.517	19.8
338.729	120.15
338.942	124.24
339.154	75.09
339.367	21.85
339.579	73.04
339.792	13.65
340.004	95.57
340.217	13.65
340.429	-23.21
340.641	-62.12
340.854	-33.45
341.066	79.19
341.278	73.04
341.491	118.1
341.703	-19.11
341.915	-53.93
342.128	146.77
342.34	62.8
342.552	-35.5
342.764	91.48
342.977	23.89
343.189	81.24
343.401	-15.02
343.613	-119.46
343.826	58.71
344.038	-47.79
344.25	85.33
344.462	-4.78
344.674	71
344.886	62.8
345.099	124.24
345.311	91.48
345.523	-23.21
345.735	-101.03
345.947	50.52
346.159	36.18
346.371	15.7
346.583	36.18
346.795	185.68
347.007	-27.31
347.219	73.04
347.431	23.89
347.643	152.91
347.855	93.52
348.067	42.32
348.279	50.52
348.491	73.04
348.703	120.15
348.915	13.65
349.127	-53.93
349.339	66.9
349.551	-31.4
349.763	105.81
349.975	7.51
350.187	116.05
350.399	103.76
350.61	181.59
350.822	-29.35
351.034	75.09
351.246	17.75
351.458	23.89
351.669	71
351.881	91.48
352.093	208.21
352.305	62.8
352.517	142.68
352.728	97.62
352.94	25.94
353.152	40.28
353.363	-6.83
353.575	27.99
353.787	118.1
353.999	95.57
354.21	103.76
354.422	-84.65
354.633	-21.16
354.845	68.95
355.057	11.61
355.268	46.42
355.48	36.18
355.692	36.18
355.903	85.33
356.115	-0.68
356.326	-12.97
356.538	126.29
356.749	95.57
356.961	226.64
357.172	15.7
357.384	23.89
357.595	247.12
357.807	-51.88
358.018	7.51
358.23	91.48
358.441	191.83
358.653	99.67
358.864	50.52
359.075	-47.79
359.287	103.76
359.498	101.72
359.709	54.61
359.921	-6.83
360.132	71
360.344	60.76
360.555	-2.73
360.766	101.72
360.977	-2.73
361.189	73.04
361.4	5.46
361.611	134.48
361.823	163.15
362.034	25.94
362.245	-35.5
362.456	-2.73
362.667	42.32
362.879	-15.02
363.09	95.57
363.301	30.04
363.512	32.08
363.723	-12.97
363.935	58.71
364.146	138.58
364.357	-43.69
364.568	46.42
364.779	-15.02
364.99	130.39
365.201	-4.78
365.412	87.38
365.623	-119.46
365.834	32.08
366.045	19.8
366.256	46.42
366.467	97.62
366.678	66.9
366.889	30.04
367.1	-60.07
367.311	89.43
367.522	-0.68
367.733	128.34
367.944	-21.16
368.155	1.37
368.366	60.76
368.577	73.04
368.788	126.29
368.999	15.7
369.209	13.65
369.42	189.78
369.631	165.2
369.842	-29.35
370.053	-12.97
370.264	157.01
370.474	-10.92
370.685	38.23
370.896	36.18
371.107	120.15
371.317	71
371.528	27.99
371.739	93.52
371.95	99.67
372.16	40.28
372.371	-2.73
372.582	-33.45
372.792	71
373.003	124.24
373.214	95.57
373.424	107.86
373.635	1.37
373.846	200.02
374.056	75.09
374.267	66.9
374.477	144.72
374.688	-19.11
374.898	83.28
375.109	27.99
375.319	62.8
375.53	101.72
375.74	85.33
375.951	23.89
376.161	7.51
376.372	56.66
376.582	27.99
376.793	83.28
377.003	-21.16
377.214	-15.02
377.424	99.67
377.635	116.05
377.845	-27.31
378.055	111.96
378.266	25.94
378.476	5.46
378.686	21.85
378.897	-43.69
379.107	81.24
379.317	11.61
379.528	122.2
379.738	46.42
379.948	-12.97
380.158	122.2
380.369	58.71
380.579	38.23
380.789	21.85
380.999	122.2
381.21	118.1
381.42	144.72
381.63	71
381.84	93.52
382.05	71
382.261	97.62
382.471	40.28
382.681	21.85
382.891	161.11
383.101	25.94
383.311	17.75
383.521	7.51
383.731	87.38
383.941	101.72
384.151	87.38
384.361	58.71
384.571	38.23
384.781	128.34
384.991	189.78
385.201	212.31
385.411	11.61
385.621	15.7
385.831	13.65
386.041	40.28
386.251	44.37
386.461	148.82
386.671	46.42
386.881	66.9
387.091	13.65
387.301	163.15
387.511	68.95
387.72	77.14
387.93	126.29
388.14	30.04
388.35	83.28
388.56	111.96
388.769	46.42
388.979	38.23
389.189	5.46
389.399	200.02
389.609	36.18
389.818	62.8
390.028	62.8
390.238	66.9
390.447	27.99
390.657	30.04
390.867	50.52
391.076	-37.55
391.286	134.48
391.496	60.76
391.705	50.52
391.915	107.86
392.125	-8.87
392.334	-2.73
392.544	173.39
392.753	83.28
392.963	-6.83
393.172	68.95
393.382	1.37
393.591	122.2
393.801	-2.73
394.01	79.19
394.22	73.04
394.429	52.56
394.639	36.18
394.848	54.61
395.058	120.15
395.267	-12.97
395.477	38.23
395.686	81.24
395.895	109.91
396.105	144.72
396.314	46.42
396.524	89.43
396.733	30.04
396.942	163.15
397.152	68.95
397.361	79.19
397.57	134.48
397.78	44.37
397.989	77.14
398.198	175.44
398.407	40.28
398.617	5.46
398.826	103.76
399.035	5.46
399.244	83.28
399.453	62.8
399.663	27.99
399.872	128.34
400.081	46.42
400.29	185.68
400.499	-27.31
400.708	142.68
400.917	11.61
401.127	87.38
401.336	46.42
401.545	142.68
401.754	120.15
401.963	66.9
402.172	30.04
402.381	-4.78
402.59	3.41
402.799	66.9
403.008	116.05
403.217	79.19
403.426	68.95
403.635	-23.21
403.844	75.09
404.053	30.04
404.262	25.94
404.471	66.9
404.68	42.32
404.888	42.32
405.097	25.94
405.306	34.13
405.515	27.99
405.724	79.19
405.933	91.48
406.142	62.8
406.35	93.52
406.559	17.75
406.768	87.38
406.977	116.05
407.185	-27.31
407.394	128.34
407.603	-127.66
407.812	62.8
408.02	85.33
408.229	71
408.438	50.52
408.646	-60.07
408.855	38.23
409.064	95.57
409.272	77.14
409.481	91.48
409.69	-76.46
409.898	-62.12
410.107	21.85
410.315	140.63
410.524	44.37
410.733	109.91
410.941	-15.02
411.15	140.63
411.358	99.67
411.567	136.53
411.775	62.8
411.984	44.37
412.192	93.52
412.401	107.86
412.609	157.01
412.818	171.35
413.026	42.32
413.234	85.33
413.443	79.19
413.651	11.61
413.86	-27.31
414.068	95.57
414.276	128.34
414.485	46.42
414.693	165.2
414.901	79.19
415.11	79.19
415.318	36.18
415.526	40.28
415.734	87.38
415.943	42.32
416.151	150.87
416.359	-35.5
416.567	21.85
416.776	97.62
416.984	116.05
417.192	175.44
417.4	46.42
417.608	54.61
417.817	11.61
418.025	85.33
418.233	136.53
418.441	-27.31
418.649	1.37
418.857	122.2
419.065	197.97
419.273	3.41
419.481	58.71
419.689	111.96
419.897	77.14
420.105	13.65
420.313	116.05
420.521	157.01
420.729	111.96
420.937	-2.73
421.145	79.19
421.353	71
421.561	171.35
421.769	71
421.977	13.65
422.185	157.01
422.393	46.42
422.601	60.76
422.809	54.61
423.017	120.15
423.224	83.28
423.432	81.24
423.64	58.71
423.848	64.85
424.056	34.13
424.263	97.62
424.471	75.09
424.679	101.72
424.887	-72.36
425.094	202.07
425.302	68.95
425.51	40.28
425.718	114
425.925	128.34
426.133	-35.5
426.341	101.72
426.548	38.23
426.756	-15.02
426.964	101.72
427.171	87.38
427.379	60.76
427.586	-19.11
427.794	103.76
428.001	128.34
428.209	83.28
428.417	181.59
428.624	60.76
428.832	114
429.039	132.44
429.247	99.67
429.454	89.43
429.662	206.16
429.869	118.1
430.076	73.04
430.284	148.82
430.491	202.07
430.699	95.57
430.906	159.06
431.114	126.29
431.321	60.76
431.528	62.8
431.736	218.45
431.943	210.26
432.15	228.69
432.358	169.3
432.565	224.59
432.772	93.52
432.979	144.72
433.187	118.1
433.394	161.11
433.601	177.49
433.808	144.72
434.016	187.73
434.223	202.07
434.43	175.44
434.637	210.26
434.844	304.46
435.052	204.11
435.259	165.2
435.466	185.68
435.673	288.08
435.88	247.12
436.087	288.08
436.294	331.09
436.501	370
436.708	292.18
436.915	236.88
437.122	300.37
437.329	273.75
437.537	300.37
437.743	267.6
437.95	513.36
438.157	359.76
438.364	286.03
438.571	365.9
438.778	435.53
438.985	415.06
439.192	390.48
439.399	326.99
439.606	447.82
439.813	552.27
440.02	550.22
440.227	587.08
440.433	419.15
440.64	466.25
440.847	484.69
441.054	560.46
441.261	658.76
441.467	582.99
441.674	492.88
441.881	664.91
442.088	632.14
442.294	648.52
442.501	740.68
442.708	734.54
442.914	804.17
443.121	802.12
443.328	828.74
443.534	849.22
443.741	804.17
443.948	808.27
444.154	963.91
444.361	1021.25
444.568	955.72
444.774	941.38
444.981	836.94
445.187	1174.85
445.394	1025.35
445.6	1043.78
445.807	1178.95
446.013	1062.21
446.22	1092.93
446.426	1305.92
446.633	1383.74
446.839	1555.77
447.046	1230.15
447.252	1506.62
447.459	1383.74
447.665	1490.24
447.871	1660.22
448.078	1668.41
448.284	1799.48
448.491	1897.78
448.697	1967.42
448.903	1975.61
449.11	1938.74
449.316	1983.8
449.522	2198.84
449.728	2272.56
449.935	2190.64
450.141	2278.71
450.347	2530.61
450.553	2475.31
450.76	2397.49
450.966	2637.1
451.172	2774.31
451.378	2788.65
451.584	2829.61
451.791	3048.74
451.997	3028.26
452.203	3233.06
452.409	3519.78
452.615	3507.49
452.821	3384.61
453.027	3480.86
453.233	4085.01
453.44	3853.59
453.646	4044.06
453.852	4142.36
454.058	4359.44
454.264	4498.7
454.47	4797.71
454.676	4713.74
454.882	5254.41
455.088	4949.26
455.294	5248.26
455.5	5575.94
455.705	5932.28
455.911	5799.16
456.117	6128.89
456.323	6096.12
456.529	6280.44
456.735	7034.09
456.941	7025.9
457.147	7498.98
457.352	7474.4
457.558	7724.26
457.764	8107.23
457.97	8352.98
458.176	8838.35
458.381	9196.74
458.587	9413.83
458.793	9729.22
458.999	9567.43
459.204	10869.94
459.41	11435.17
459.616	11011.25
459.821	11867.3
460.027	12166.3
460.233	12965.01
460.438	12792.98
460.644	13644.93
460.85	13780.1
461.055	14484.6
461.261	15025.26
461.466	14681.21
461.672	14855.28
461.878	16696.41
462.083	16585.82
462.289	16694.36
462.494	17697.86
462.7	17747.01
462.905	17900.61
463.111	19407.92
463.316	20343.84
463.522	20988.95
463.727	21163.03
463.932	22180.87
464.138	22699
464.343	23933.93
464.549	23854.06
464.754	25564.11
464.959	26418.11
465.165	26696.64
465.37	26483.65
465.575	26823.61
465.781	28263.33
465.986	29361.05
466.191	28996.51
466.397	28832.67
466.602	28472.23
466.807	29858.7
467.012	30575.49
467.218	30845.82
467.423	31058.81
467.628	31775.6
467.833	33553.24
468.038	33250.14
468.244	32273.26
468.449	34179.92
468.654	33448.79
468.859	33002.33
469.064	33123.16
469.269	32340.84
469.474	32611.17
469.679	33737.55
469.885	32942.94
470.09	33454.93
470.295	33045.34
470.5	32398.18
470.705	32623.46
470.91	32119.66
471.115	31486.84
471.32	32500.58
471.525	32123.76
471.73	30837.63
471.935	30950.27
472.139	29670.29
472.344	30022.54
472.549	29817.74
472.754	28887.96
472.959	28529.57
473.164	27198.39
473.369	26794.94
473.574	27837.36
473.778	27026.36
473.983	26387.39
474.188	26328
474.393	25007.06
474.598	24742.88
474.802	24357.86
475.007	23827.43
475.212	24056.81
475.417	22780.92
475.621	22944.76
475.826	22569.98
476.031	21648.4
476.235	21201.94
476.44	21691.4
476.645	20829.21
476.849	20763.67
477.054	20100.13
477.259	20001.83
477.463	19618.86
477.668	19192.88
477.872	19098.67
478.077	18517.05
478.282	18447.42
478.486	18248.77
478.691	17841.22
478.895	17761.35
479.1	17501.26
479.304	17511.5
479.509	16909.4
479.713	17306.7
479.918	16637.02
480.122	16280.67
480.326	16596.06
480.531	16397.4
480.735	16329.82
480.94	16129.12
481.144	16356.44
481.348	15293.55
481.553	15711.33
481.757	15209.58
481.961	15336.56
482.166	15451.24
482.37	15160.43
482.574	14883.95
482.778	15000.69
482.983	15246.44
483.187	14906.48
483.391	14630.01
483.595	14466.17
483.8	14251.13
484.004	14562.42
484.208	14339.19
484.412	14025.86
484.616	13864.07
484.821	13778.05
485.025	13479.05
485.229	13712.52
485.433	13151.37
485.637	13132.94
485.841	12891.28
486.045	12795.03
486.249	12577.94
486.453	12545.17
486.657	12227.74
486.861	11932.83
487.065	11766.95
487.269	11732.13
487.473	11340.97
487.677	11478.18
487.881	11359.4
488.085	11089.07
488.289	10720.43
488.493	10509.49
488.697	10677.43
488.901	10130.62
489.105	10009.79
489.309	10001.6
489.512	9549
489.716	9647.3
489.92	9270.47
490.124	9280.71
490.328	9157.83
490.531	8764.62
490.735	9069.77
490.939	8484.05
491.143	8531.16
491.346	8328.41
491.55	8187.1
491.754	7984.35
491.958	8041.69
492.161	7703.78
492.365	7515.36
492.569	7757.02
492.772	7556.32
492.976	7384.29
493.18	7224.55
493.383	7197.93
493.587	7136.49
493.79	7062.76
493.994	6864.11
494.197	6999.27
494.401	6817.01
494.605	6638.83
494.808	6737.13
495.012	6655.22
495.215	6610.16
495.419	6546.67
495.622	6278.39
495.825	6483.19
496.029	6235.38
496.232	6311.16
496.436	6161.66
496.639	6436.08
496.843	6298.87
497.046	6094.07
497.249	6456.56
497.453	6272.25
497.656	6182.13
497.859	6182.13
498.063	6337.78
498.266	6460.66
498.469	6194.42
498.673	6286.58
498.876	6221.05
499.079	6255.86
499.282	6087.93
499.485	6569.2
499.689	6454.51
499.892	6550.77
500.095	6370.55
500.298	6509.81
500.501	6409.46
500.705	6778.09
500.908	6677.74
501.111	6606.06
501.314	6903.02
501.517	7091.43
501.72	6862.06
501.923	6776.05
502.126	6894.83
502.329	7015.66
502.532	7019.75
502.735	6919.4
502.938	7439.59
503.141	7279.85
503.344	7314.66
503.547	7443.68
503.75	7681.25
503.953	7853.28
504.156	7795.93
504.359	7836.89
504.562	7857.37
504.765	8154.33
504.968	8178.9
505.17	8281.3
505.373	8279.25
505.576	8715.47
505.779	8621.27
505.982	8754.38
506.185	9204.94
506.387	9217.22
506.59	9190.6
506.793	9551.04
506.996	9602.24
507.198	9923.77
507.401	9823.42
507.604	10144.95
507.807	10601.65
508.009	10675.38
508.212	10611.89
508.415	10945.71
508.617	11015.34
508.82	11144.36
509.022	11310.25
509.225	11777.19
509.428	11812
509.63	12225.69
509.833	12248.22
510.035	12860.56
510.238	12891.28
510.44	13446.28
510.643	13417.61
510.845	13882.5
511.048	14093.44
511.25	14410.87
511.453	14791.8
511.655	15156.33
511.858	15203.44
512.06	15762.53
512.262	15930.47
512.465	16258.14
512.667	16645.21
512.87	17134.67
513.072	17527.88
513.274	18134.08
513.477	18076.74
513.679	18517.05
513.881	18990.13
514.084	19309.61
514.286	19622.95
514.488	20061.22
514.69	21222.42
514.893	21459.98
515.095	21394.45
515.297	22004.74
515.499	22481.92
515.701	22952.95
515.904	23366.64
516.106	24003.56
516.308	24404.96
516.51	24714.2
516.712	25066.45
516.914	25656.27
517.116	26051.53
517.318	26756.03
517.52	27046.84
517.722	27354.04
517.925	27976.62
518.127	28816.29
518.329	29244.31
518.531	29363.09
518.733	29870.99
518.935	30507.91
519.136	30921.6
519.338	31603.57
519.54	31941.49
519.742	32365.42
519.944	32930.65
520.146	33592.15
520.348	33852.24
520.55	34153.29
520.752	34210.64
520.954	35291.96
521.155	34708.29
521.357	36107.05
521.559	36223.79
521.761	36696.87
521.963	36916
522.164	37217.05
522.366	37716.76
522.568	37972.75
522.77	38392.59
522.971	38763.27
523.173	38247.18
523.375	39107.33
523.576	39060.23
523.778	39269.12
523.98	39635.7
524.181	39729.91
524.383	39594.75
524.584	40264.43
524.786	40370.93
524.988	40471.28
525.189	40241.9
525.391	40102.64
525.592	40073.97
525.794	40133.36
525.995	40393.45
526.197	40297.2
526.398	40354.54
526.6	40250.1
526.801	40301.29
527.003	40094.45
527.204	39762.68
527.406	39928.56
527.607	39609.08
527.808	39918.32
528.01	38611.72
528.211	39103.23
528.412	39430.91
528.614	39107.33
528.815	38607.62
529.016	38664.97
529.218	37731.09
529.419	37759.77
529.62	37067.55
529.822	36653.86
530.023	36256.56
530.224	36408.11
530.425	36059.95
530.626	35367.74
530.828	34962.24
531.029	35658.55
531.23	34341.71
531.431	33995.6
531.632	33606.48
531.833	33358.68
532.035	32910.18
532.236	32650.08
532.437	32369.51
532.638	31718.26
532.839	31505.27
533.04	31554.42
533.241	30360.45
533.442	30753.66
533.643	29989.77
533.844	29377.43
534.045	29166.49
534.246	28865.44
534.447	28474.27
534.648	28152.74
534.849	28017.58
535.05	27370.42
535.251	26964.92
535.451	26389.44
535.652	26229.7
535.853	25983.94
536.054	25623.5
536.255	25248.72
536.456	24523.74
536.657	24411.1
536.857	24263.65
537.058	23624.68
537.259	23444.46
537.46	23284.72
537.66	22815.74
537.861	23020.53
538.062	22508.54
538.263	21765.13
538.463	21677.07
538.664	21548.04
538.865	21392.4
539.065	21117.97
539.266	20612.12
539.466	20691.99
539.667	20141.09
539.868	20456.48
540.068	19692.58
540.269	19688.49
540.469	19377.2
540.67	19227.7
540.87	19051.57
541.071	18580.54
541.271	18498.62
541.472	18451.52
541.672	17873.99
541.873	17751.11
542.073	17210.45
542.274	17589.32
542.474	17163.34
542.675	17015.89
542.875	16919.64
543.075	16512.09
543.276	16172.13
543.476	16370.78
543.676	16122.98
543.877	15895.65
544.077	15735.91
544.277	15629.41
544.478	15277.16
544.678	15187.05
544.878	15029.36
545.078	14900.34
545.279	14724.21
545.479	14566.52
545.679	14363.77
545.879	14296.19
546.079	14103.68
546.28	13706.37
546.48	13755.52
546.68	13427.85
546.88	13388.94
547.08	13298.83
547.28	12936.34
547.48	12770.45
547.68	12905.62
547.88	12500.12
548.081	12344.47
548.281	12096.67
548.481	12078.24
548.681	11934.88
548.881	11863.2
549.081	11611.3
549.28	11441.32
549.48	11269.29
549.68	11312.3
549.88	11257
550.08	10714.29
550.28	10917.04
550.48	10446.01
550.68	10644.66
550.88	10353.85
551.08	10112.19
551.279	10149.05
551.479	9856.19
551.679	9954.49
551.879	9460.93
552.079	9684.16
552.278	9073.87
552.478	9438.41
552.678	9041.1
552.878	9014.48
553.077	8738
553.277	8635.6
553.477	8664.27
553.676	8541.39
553.876	8312.02
554.076	8131.8
554.275	8047.83
554.475	7752.93
554.674	7924.96
554.874	7673.06
555.074	7484.64
555.273	7419.11
555.473	7361.76
555.672	6980.84
555.872	7156.97
556.071	6935.79
556.271	6976.75
556.47	6675.7
556.67	6550.77
556.869	6591.73
557.068	6499.57
557.268	6190.33
557.467	6243.57
557.667	6196.47
557.866	5870.84
558.065	5807.36
558.265	5788.92
558.464	5709.05
558.663	5612.8
558.863	5528.83
559.062	5557.5
559.261	5424.39
559.461	5412.1
559.66	5182.73
559.859	5043.46
560.058	4830.48
560.258	4832.52
560.457	4773.13
560.656	4920.59
560.855	4668.69
561.054	4631.82
561.253	4613.39
561.453	4597.01
561.652	4533.52
561.851	4357.39
562.05	4230.42
562.249	4173.08
562.448	4115.73
562.647	3982.62
562.846	4035.86
563.045	4109.59
563.244	3859.74
563.443	3915.03
563.642	3732.76
563.841	3726.62
564.04	3632.41
564.239	3788.06
564.438	3618.08
564.637	3421.47
564.836	3462.43
565.035	3388.71
565.234	3306.79
565.432	3280.16
565.631	3296.55
565.83	3302.69
566.029	3095.85
566.228	3122.47
566.427	3126.57
566.625	3081.51
566.824	2981.16
567.023	3015.98
567.222	2807.08
567.42	2829.61
567.619	2878.76
567.818	2692.4
568.016	2915.62
568.215	2755.88
568.414	2901.29
568.612	2676.01
568.811	2680.11
569.01	2518.32
569.208	2604.33
569.407	2520.37
569.605	2442.54
569.804	2379.06
570.002	2467.12
570.201	2221.36
570.4	2297.14
570.598	2131.25
570.797	2121.01
570.995	2143.54
571.193	2112.82
571.392	2184.5
571.59	2073.91
571.789	2045.24
571.987	2035
572.186	2157.88
572.384	1987.89
572.582	1948.98
572.781	1926.46
572.979	1910.07
573.177	1807.67
573.376	1910.07
573.574	1752.38
573.772	1822.01
573.971	1748.28
574.169	1692.99
574.367	1703.23
574.565	1705.28
574.763	1668.41
574.962	1619.26
575.16	1566.01
575.358	1606.97
575.556	1619.26
575.754	1428.8
575.952	1594.68
576.151	1445.18
576.349	1537.34
576.547	1402.18
576.745	1432.9
576.943	1520.96
577.141	1328.45
577.339	1355.07
577.537	1201.47
577.735	1379.65
577.933	1375.55
578.131	1166.66
578.329	1267.01
578.527	1154.37
578.725	1217.86
578.923	1172.8
579.121	1174.85
579.319	1133.89
579.516	1226.05
579.714	1258.82
579.912	1201.47
580.11	994.63
580.308	988.49
580.506	1035.59
580.704	947.53
580.901	978.25
581.099	1119.56
581.297	972.1
581.495	933.19
581.692	886.09
581.89	984.39
582.088	927.05
582.285	972.1
582.483	904.52
582.681	918.86
582.878	869.7
583.076	867.66
583.274	906.57
583.471	1025.35
583.669	857.42
583.866	810.31
584.064	775.5
584.262	699.72
584.459	757.07
584.657	673.1
584.854	724.3
585.052	755.02
585.249	820.55
585.447	838.98
585.644	591.18
585.841	783.69
586.039	689.48
586.236	775.5
586.434	660.81
586.631	560.46
586.828	644.43
587.026	628.04
587.223	628.04
587.42	675.15
587.618	607.56
587.815	673.1
588.012	578.89
588.21	560.46
588.407	648.52
588.604	611.66
588.801	595.28
588.999	609.61
589.196	578.89
589.393	613.71
589.59	576.84
589.787	515.41
589.984	533.84
590.182	560.46
590.379	527.69
590.576	468.3
590.773	546.12
590.97	544.08
591.167	566.6
591.364	554.32
591.561	464.21
591.758	642.38
591.955	591.18
592.152	560.46
592.349	478.54
592.546	435.53
592.743	521.55
592.94	466.25
593.137	613.71
593.334	519.5
593.531	632.14
593.727	537.93
593.924	593.23
594.121	587.08
594.318	460.11
594.515	482.64
594.712	619.85
594.908	626
595.105	503.12
595.302	488.78
595.499	593.23
595.696	623.95
595.892	496.97
596.089	601.42
596.286	582.99
596.482	707.91
596.679	660.81
596.876	650.57
597.072	748.87
597.269	617.8
597.466	746.83
597.662	648.52
597.859	638.28
598.055	695.63
598.252	771.4
598.448	822.6
598.645	777.55
598.841	873.8
599.038	965.96
599.234	877.9
599.431	914.76
599.627	951.62
599.824	951.62
600.02	1092.93
600.217	933.19
600.413	1101.12
600.609	1051.97
600.806	1389.89
601.002	1256.77
601.198	1258.82
601.395	1371.46
601.591	1412.42
601.787	1373.5
601.984	1461.57
602.18	1504.57
602.376	1619.26
602.572	1869.11
602.769	1666.36
602.965	1725.75
603.161	1930.55
603.357	1959.22
603.553	2045.24
603.75	1957.18
603.946	2061.62
604.142	2133.3
604.338	2413.87
604.534	2268.47
604.73	2385.2
604.926	2426.16
605.122	2624.81
605.318	2596.14
605.514	2802.99
605.71	2725.16
605.906	2876.71
606.102	2956.58
606.298	2977.06
606.494	3200.29
606.69	3345.7
606.886	3290.4
607.082	3353.89
607.278	3409.19
607.474	3532.06
607.67	3628.32
607.866	3831.07
608.062	3984.66
608.257	4111.64
608.453	3955.99
608.649	4353.3
608.845	4283.67
609.041	4308.24
609.236	4623.63
609.432	4728.08
609.628	4879.63
609.824	4910.35
610.019	4969.74
610.215	5149.96
610.411	5430.53
610.606	5508.35
610.802	5494.02
610.998	5676.29
611.193	5995.77
611.389	6087.93
611.584	6296.82
611.78	6221.05
611.976	6395.12
612.171	6649.07
612.367	7021.8
612.562	7032.04
612.758	7187.69
612.953	7273.7
613.149	7812.32
613.344	7836.89
613.539	8019.16
613.735	8209.62
613.93	8441.04
614.126	8631.51
614.321	8899.79
614.517	9178.31
614.712	9333.96
614.907	9407.69
615.103	9796.8
615.298	9903.29
615.493	10194.11
615.688	10636.47
615.884	10953.9
616.079	10785.97
616.274	11414.7
616.47	11508.9
616.665	12055.71
616.86	12113.05
617.055	12313.75
617.25	12485.78
617.445	13214.86
617.641	13038.73
617.836	13835.39
618.031	14001.28
618.226	14767.22
618.421	14957.68
618.616	15346.8
618.811	15299.69
619.006	15828.07
619.201	15938.66
619.396	16686.17
619.591	16626.78
619.786	17222.73
619.981	17495.11
620.176	18132.03
620.371	18328.64
620.566	18533.43
620.761	18910.26
620.956	19149.87
621.151	19684.39
621.346	20560.92
621.541	20347.93
621.735	21130.26
621.93	21386.26
622.125	21670.92
622.32	21937.16
622.515	22356.99
622.709	22774.78
622.904	23211
623.099	23510
623.294	24136.68
623.488	24269.8
623.683	25035.74
623.878	24945.62
624.072	25465.81
624.267	26170.31
624.462	26471.36
624.656	26667.97
624.851	27472.82
625.046	27610.03
625.24	27999.15
625.435	28263.33
625.629	28726.17
625.824	29066.14
626.018	29381.53
626.213	29385.62
626.407	30118.79
626.602	30081.93
626.796	30681.99
626.991	31288.18
627.185	31374.2
627.38	31318.9
627.574	31736.69
627.768	32021.36
627.963	32019.31
628.157	32168.81
628.352	32662.37
628.546	32017.26
628.74	32598.88
628.935	32263.02
629.129	32492.39
629.323	32269.16
629.517	32029.55
629.712	31810.42
629.906	31642.48
630.1	31368.05
630.294	31140.73
630.489	30569.35
630.683	30792.58
630.877	29807.5
631.071	29404.05
631.265	29326.23
631.459	28560.29
631.653	27640.75
631.848	27624.37
632.042	26604.48
632.236	26239.94
632.43	25490.38
632.624	24845.27
632.818	24019.94
633.012	23317.49
633.206	22651.9
633.4	22283.27
633.594	21034
633.788	20626.46
633.982	20026.4
634.176	19338.29
634.369	18340.93
634.563	17830.98
634.757	17159.25
634.951	16735.32
635.145	15901.79
635.339	15207.53
635.533	14597.24
635.726	14165.12
635.92	13372.55
636.114	12866.7
636.308	12272.79
636.501	12119.2
636.695	11537.57
636.889	10837.17
637.083	10548.4
637.276	10020.03
637.47	9592
637.664	9151.69
637.857	9012.43
638.051	8582.35
638.244	8178.9
638.438	7826.65
638.632	7957.72
638.825	7251.17
639.019	7048.43
639.212	6520.05
639.406	6511.86
639.599	6391.03
639.793	6014.2
639.986	5778.69
640.18	5715.2
640.373	5266.69
640.567	4992.27
640.76	4871.43
640.954	4773.13
641.147	4549.9
641.34	4338.96
641.534	4193.56
641.727	4121.88
641.92	3994.9
642.114	3839.26
642.307	3470.62
642.5	3552.54
642.694	3167.52
642.887	3302.69
643.08	3241.25
643.273	3130.66
643.467	2831.66
643.66	2733.36
643.853	2716.97
644.046	2551.09
644.239	2508.08
644.432	2278.71
644.626	2168.12
644.819	2147.64
645.012	1987.89
645.205	2057.53
645.398	1998.13
645.591	1824.06
645.784	1680.7
645.977	1701.18
646.17	1713.47
646.363	1520.96
646.556	1566.01
646.749	1420.61
646.942	1467.71
647.135	1426.75
647.328	1277.25
647.521	1295.68
647.714	1226.05
647.907	1217.86
648.099	1099.08
648.292	1127.75
648.485	1117.51
648.678	996.68
648.871	996.68
649.064	951.62
649.256	841.03
649.449	767.31
649.642	802.12
649.835	822.6
650.027	771.4
650.22	843.08
650.413	709.96
650.605	812.36
650.798	701.77
650.991	662.86
651.183	648.52
651.376	626
651.568	650.57
651.761	533.84
651.954	677.19
652.146	554.32
652.339	636.24
652.531	587.08
652.724	527.69
652.916	505.17
653.109	365.9
653.301	447.82
653.494	505.17
653.686	384.34
653.879	537.93
654.071	576.84
654.263	382.29
654.456	374.1
654.648	447.82
654.84	345.42
655.033	365.9
655.225	453.97
655.417	339.28
655.61	460.11
655.802	392.53
655.994	435.53
656.186	202.07
656.379	402.77
656.571	288.08
656.763	245.07
656.955	202.07
657.148	316.75
657.34	406.86
657.532	251.22
657.724	251.22
657.916	247.12
658.108	390.48
658.3	208.21
658.492	275.79
658.684	159.06
658.876	206.16
659.068	150.87
659.26	97.62
659.452	142.68
659.644	173.39
659.836	300.37
660.028	245.07
660.22	183.63
660.412	234.83
660.604	154.96
660.796	210.26
660.988	234.83
661.18	169.3
661.372	234.83
661.563	259.41
661.755	124.24
661.947	118.1
662.139	189.78
662.331	189.78
662.522	185.68
662.714	85.33
662.906	161.11
663.097	167.25
663.289	66.9
663.481	75.09
663.673	216.4
663.864	118.1
664.056	173.39
664.247	66.9
664.439	249.17
664.631	146.77
664.822	220.5
665.014	130.39
665.205	175.44
665.397	54.61
665.588	83.28
665.78	111.96
665.971	187.73
666.163	79.19
666.354	152.91
666.546	132.44
666.737	87.38
666.929	42.32
667.12	87.38
667.311	200.02
667.503	83.28
667.694	107.86
667.885	116.05
668.077	157.01
668.268	15.7
668.459	103.76
668.651	208.21
668.842	109.91
669.033	116.05
669.224	62.8
669.416	300.37
669.607	109.91
669.798	40.28
669.989	191.83
670.18	95.57
670.371	91.48
670.563	54.61
670.754	132.44
670.945	161.11
671.136	148.82
671.327	54.61
671.518	152.91
671.709	200.02
671.9	206.16
672.091	152.91
672.282	50.52
672.473	169.3
672.664	44.37
672.855	54.61
673.046	157.01
673.237	169.3
673.428	114
673.619	165.2
673.809	75.09
674	197.97
674.191	232.79
674.382	38.23
674.573	99.67
674.764	146.77
674.954	204.11
675.145	64.85
675.336	38.23
675.527	38.23
675.717	17.75
675.908	124.24
676.099	109.91
676.289	91.48
676.48	7.51
676.671	79.19
676.861	105.81
677.052	140.63
677.243	114
677.433	52.56
677.624	200.02
677.814	218.45
678.005	50.52
678.195	187.73
678.386	79.19
678.576	202.07
678.767	68.95
678.957	142.68
679.148	204.11
679.338	281.94
679.529	132.44
679.719	91.48
679.909	251.22
680.1	230.74
680.29	173.39
680.481	71
680.671	267.6
680.861	154.96
681.052	169.3
681.242	159.06
681.432	134.48
681.622	169.3
681.813	75.09
682.003	197.97
682.193	71
682.383	232.79
682.573	87.38
682.764	87.38
682.954	159.06
683.144	185.68
683.334	193.87
683.524	124.24
683.714	193.87
683.904	132.44
684.094	128.34
684.284	148.82
684.474	253.27
684.664	161.11
684.854	185.68
685.044	152.91
685.234	259.41
685.424	130.39
685.614	157.01
685.804	189.78
685.994	206.16
686.184	216.4
686.374	208.21
686.564	214.35
686.753	169.3
686.943	3.41
687.133	134.48
687.323	185.68
687.513	216.4
687.702	169.3
687.892	183.63
688.082	218.45
688.272	200.02
688.461	191.83
688.651	298.32
688.841	169.3
689.03	161.11
689.22	140.63
689.41	197.97
689.599	238.93
689.789	87.38
689.979	251.22
690.168	179.54
690.358	134.48
690.547	118.1
690.737	150.87
690.926	206.16
691.116	224.59
691.305	234.83
691.495	210.26
691.684	111.96
691.874	142.68
692.063	202.07
692.252	154.96
692.442	159.06
692.631	54.61
692.82	101.72
693.01	173.39
693.199	142.68
693.388	247.12
693.578	161.11
693.767	169.3
693.956	111.96
694.146	75.09
694.335	154.96
694.524	208.21
694.713	202.07
694.902	132.44
695.092	161.11
695.281	181.59
695.47	134.48
695.659	183.63
695.848	165.2
696.037	185.68
696.226	189.78
696.415	142.68
696.604	269.65
696.793	202.07
696.982	197.97
697.171	249.17
697.36	85.33
697.549	167.25
697.738	7.51
697.927	191.83
698.116	132.44
698.305	232.79
698.494	99.67
698.683	179.54
698.872	337.23
699.061	56.66
699.25	136.53
699.438	183.63
699.627	124.24
699.816	304.46
700.005	101.72
700.193	124.24
700.382	247.12
700.571	179.54
700.76	222.55
700.948	161.11
701.137	128.34
701.326	138.58
701.514	97.62
701.703	193.87
701.892	191.83
702.08	298.32
702.269	101.72
702.457	118.1
702.646	148.82
702.834	136.53
703.023	259.41
703.212	204.11
703.4	165.2
703.589	165.2
703.777	179.54
703.965	140.63
704.154	130.39
704.342	150.87
704.531	93.52
704.719	134.48
704.907	200.02
705.096	95.57
705.284	85.33
705.472	103.76
705.661	216.4
705.849	167.25
706.037	193.87
706.226	183.63
706.414	179.54
706.602	81.24
706.79	251.22
706.979	163.15
707.167	99.67
707.355	120.15
707.543	144.72
707.731	152.91
707.919	142.68
708.107	157.01
708.296	105.81
708.484	83.28
708.672	152.91
708.86	181.59
709.048	144.72
709.236	120.15
709.424	169.3
709.612	185.68
709.8	124.24
709.988	144.72
710.176	234.83
710.364	247.12
710.551	75.09
710.739	126.29
710.927	124.24
711.115	177.49
711.303	175.44
711.491	261.46
711.679	64.85
711.866	157.01
712.054	118.1
712.242	181.59
712.43	228.69
712.617	157.01
712.805	216.4
712.993	161.11
713.181	68.95
713.368	167.25
713.556	144.72
713.744	144.72
713.931	345.42
714.119	202.07
714.306	157.01
714.494	58.71
714.682	128.34
714.869	95.57
715.057	189.78
715.244	46.42
715.432	154.96
715.619	128.34
715.807	128.34
715.994	144.72
716.182	130.39
716.369	204.11
716.556	251.22
716.744	73.04
716.931	134.48
717.119	240.98
717.306	232.79
717.493	206.16
717.681	95.57
717.868	140.63
718.055	95.57
718.242	140.63
718.43	181.59
718.617	333.14
718.804	116.05
718.991	275.79
719.179	130.39
719.366	261.46
719.553	134.48
719.74	130.39
719.927	142.68
720.114	116.05
720.301	111.96
720.488	171.35
720.676	177.49
720.863	290.13
721.05	283.98
721.237	226.64
721.424	206.16
721.611	120.15
721.798	85.33
721.985	163.15
722.172	97.62
722.358	257.36
722.545	265.55
722.732	218.45
722.919	261.46
723.106	247.12
723.293	208.21
723.48	169.3
723.667	109.91
723.853	312.66
724.04	298.32
724.227	263.51
724.414	132.44
724.6	234.83
724.787	324.94
724.974	345.42
725.161	228.69
725.347	71
725.534	208.21
725.72	263.51
725.907	243.03
726.094	353.62
726.28	189.78
726.467	245.07
726.653	157.01
726.84	279.89
727.027	292.18
727.213	263.51
727.4	273.75
727.586	183.63
727.773	226.64
727.959	251.22
728.145	197.97
728.332	236.88
728.518	214.35
728.705	226.64
728.891	226.64
729.077	226.64
729.264	193.87
729.45	146.77
729.636	197.97
729.823	275.79
730.009	269.65
730.195	202.07
730.382	240.98
730.568	173.39
730.754	206.16
730.94	185.68
731.126	212.31
731.313	267.6
731.499	232.79
731.685	281.94
731.871	269.65
732.057	181.59
732.243	296.27
732.429	234.83
732.615	353.62
732.801	230.74
732.987	181.59
733.173	304.46
733.359	128.34
733.545	277.84
733.731	177.49
733.917	341.33
734.103	212.31
734.289	273.75
734.475	261.46
734.661	415.06
734.847	329.04
735.033	304.46
735.219	269.65
735.404	228.69
735.59	230.74
735.776	222.55
735.962	259.41
736.148	212.31
736.333	294.22
736.519	236.88
736.705	202.07
736.89	228.69
737.076	275.79
737.262	165.2
737.447	185.68
737.633	243.03
737.819	341.33
738.004	257.36
738.19	308.56
738.375	163.15
738.561	279.89
738.747	257.36
738.932	208.21
739.118	361.81
739.303	363.86
739.489	290.13
739.674	177.49
739.859	140.63
740.045	294.22
740.23	267.6
740.416	146.77
740.601	245.07
740.786	308.56
740.972	238.93
741.157	259.41
741.342	169.3
741.528	159.06
741.713	281.94
741.898	243.03
742.084	281.94
742.269	240.98
742.454	259.41
742.639	271.7
742.824	220.5
743.01	304.46
743.195	419.15
743.38	283.98
743.565	335.18
743.75	286.03
743.935	185.68
744.12	271.7
744.305	191.83
744.49	140.63
744.675	243.03
744.86	173.39
745.045	267.6
745.23	320.85
745.415	283.98
745.6	308.56
745.785	206.16
745.97	304.46
746.155	243.03
746.34	290.13
746.525	370
746.71	316.75
746.895	132.44
747.079	159.06
747.264	167.25
747.449	265.55
747.634	333.14
747.819	247.12
748.003	195.92
748.188	136.53
748.373	271.7
748.557	283.98
748.742	183.63
748.927	122.2
749.111	175.44
749.296	148.82
749.481	273.75
749.665	202.07
749.85	159.06
750.034	165.2
750.219	206.16
750.404	56.66
750.588	228.69
750.773	175.44
750.957	243.03
751.141	214.35
751.326	337.23
751.51	236.88
751.695	177.49
751.879	122.2
752.064	300.37
752.248	308.56
752.432	300.37
752.617	261.46
752.801	247.12
752.985	128.34
753.17	310.61
753.354	251.22
753.538	228.69
753.722	132.44
753.907	132.44
754.091	140.63
754.275	247.12
754.459	128.34
754.643	142.68
754.828	163.15
755.012	197.97
755.196	103.76
755.38	163.15
755.564	159.06
755.748	177.49
755.932	275.79
756.116	202.07
756.3	259.41
756.484	169.3
756.668	228.69
756.852	48.47
757.036	101.72
757.22	191.83
757.404	148.82
757.588	208.21
757.772	142.68
757.956	122.2
758.14	222.55
758.323	89.43
758.507	292.18
758.691	73.04
758.875	210.26
759.059	193.87
759.242	77.14
759.426	152.91
759.61	136.53
759.794	83.28
759.977	177.49
760.161	296.27
760.345	253.27
760.528	243.03
760.712	177.49
760.895	136.53
761.079	105.81
761.263	118.1
761.446	142.68
761.63	124.24
761.813	179.54
761.997	75.09
762.18	116.05
762.364	183.63
762.547	62.8
762.731	128.34
762.914	62.8
763.098	167.25
763.281	148.82
763.464	9.56
763.648	181.59
763.831	124.24
764.015	118.1
764.198	111.96
764.381	62.8
764.564	83.28
764.748	120.15
764.931	157.01
765.114	91.48
765.297	75.09
765.481	66.9
765.664	99.67
765.847	146.77
766.03	171.35
766.213	7.51
766.397	54.61
766.58	105.81
766.763	148.82
766.946	89.43
767.129	95.57
767.312	136.53
767.495	107.86
767.678	46.42
767.861	95.57
768.044	148.82
768.227	173.39
768.41	34.13
768.593	185.68
768.776	122.2
768.959	77.14
769.142	210.26
769.324	27.99
769.507	95.57
769.69	95.57
769.873	95.57
770.056	243.03
770.239	42.32
770.421	191.83
770.604	134.48
770.787	128.34
770.97	85.33
771.152	25.94
771.335	128.34
771.518	32.08
771.7	197.97
771.883	214.35
772.066	66.9
772.248	132.44
772.431	216.4
772.613	189.78
772.796	66.9
772.978	97.62
773.161	181.59
773.343	17.75
773.526	165.2
773.708	71
773.891	-0.68
774.073	120.15
774.256	95.57
774.438	232.79
774.621	-0.68
774.803	87.38
774.985	9.56
775.168	97.62
775.35	30.04
775.532	36.18
775.715	36.18
775.897	185.68
776.079	87.38
776.261	130.39
776.444	144.72
776.626	81.24
776.808	62.8
776.99	62.8
777.173	60.76
777.355	107.86
777.537	73.04
777.719	99.67
777.901	-8.87
778.083	30.04
778.265	30.04
778.447	111.96
778.629	-25.26
778.811	103.76
778.993	157.01
779.175	208.21
779.357	128.34
779.539	21.85
779.721	97.62
779.903	136.53
780.085	77.14
780.267	64.85
780.449	114
780.631	150.87
780.812	105.81
780.994	138.58
781.176	19.8
781.358	27.99
781.54	116.05
781.721	152.91
781.903	114
782.085	58.71
782.267	191.83
782.448	15.7
782.63	-39.59
782.812	157.01
782.993	99.67
783.175	5.46
783.357	44.37
783.538	64.85
783.72	44.37
783.901	79.19
784.083	103.76
784.264	64.85
784.446	62.8
784.627	13.65
784.809	128.34
784.99	89.43
785.172	50.52
785.353	13.65
785.535	34.13
785.716	71
785.897	40.28
786.079	56.66
786.26	27.99
786.441	17.75
786.623	-37.55
786.804	81.24
786.985	68.95
787.167	46.42
787.348	81.24
787.529	36.18
787.71	107.86
787.891	46.42
788.073	50.52
788.254	-2.73
788.435	134.48
788.616	-0.68
788.797	-19.11
788.978	19.8
789.159	-29.35
789.34	42.32
789.522	32.08
789.703	-21.16
789.884	46.42
790.065	60.76
790.246	157.01
790.427	56.66
790.607	134.48
790.788	144.72
790.969	21.85
791.15	93.52
791.331	27.99
791.512	54.61
791.693	-15.02
791.874	60.76
792.054	251.22
792.235	83.28
792.416	-70.31
792.597	-25.26
792.778	118.1
792.958	62.8
793.139	68.95
793.32	85.33
793.5	-39.59
793.681	101.72
793.862	99.67
794.042	21.85
794.223	-41.64
794.404	44.37
794.584	-27.31
794.765	36.18
794.945	1.37
795.126	15.7
795.306	159.06
795.487	9.56
795.667	27.99
795.848	95.57
796.028	56.66
796.209	46.42
796.389	116.05
796.57	87.38
796.75	-19.11
796.93	30.04
797.111	-27.31
797.291	5.46
797.471	75.09
797.652	-31.4
797.832	-68.27
798.012	56.66
798.192	5.46
798.373	-43.69
798.553	71
798.733	36.18
798.913	-47.79
799.093	32.08
799.274	68.95
799.454	48.47
799.634	17.75
799.814	54.61
799.994	21.85
800.174	71
800.354	-2.73
800.534	-115.37
800.714	66.9
800.894	-49.83
801.074	-64.17
801.254	-41.64
801.434	152.91
801.614	-60.07
801.794	-10.92
801.974	1506.62
802.154	-19.11
802.334	48.47
802.514	25.94
802.693	-29.35
802.873	42.32
803.053	148.82
803.233	19.8
803.413	42.32
803.592	58.71
803.772	-27.31
803.952	40.28
804.131	-88.75
804.311	68.95
804.491	54.61
804.67	-33.45
804.85	3.41
805.03	93.52
805.209	111.96
805.389	-66.22
805.568	5.46
805.748	-41.64
805.928	32.08
806.107	52.56
806.287	13.65
806.466	60.76
806.646	58.71
806.825	19.8
807.004	-6.83
807.184	-4.78
807.363	77.14
807.543	62.8
807.722	-76.46
807.901	83.28
808.081	48.47
808.26	-72.36
808.439	71
808.619	60.76
808.798	-51.88
808.977	-4.78
809.156	85.33
809.336	95.57
809.515	68.95
809.694	-17.07
809.873	5.46
810.052	58.71
810.231	58.71
810.411	50.52
810.59	101.72
810.769	107.86
810.948	50.52
811.127	-101.03
811.306	-60.07
811.485	-51.88
811.664	105.81
811.843	46.42
812.022	-12.97
812.201	-19.11
812.38	66.9
812.559	15.7
812.737	7.51
812.916	-41.64
813.095	-66.22
813.274	19.8
813.453	93.52
813.632	21.85
813.811	50.52
813.989	-111.27
814.168	30.04
814.347	-37.55
814.526	-27.31
814.704	71
814.883	136.53
815.062	-60.07
815.24	93.52
815.419	-43.69
815.598	36.18
815.776	-62.12
815.955	46.42
816.133	9.56
816.312	105.81
816.49	-19.11
816.669	68.95
816.847	-43.69
817.026	-4.78
817.204	-51.88
817.383	-10.92
817.561	-96.94
817.74	58.71
817.918	114
818.097	-41.64
818.275	-47.79
818.453	85.33
818.632	-2.73
818.81	30.04
818.988	23.89
819.167	-2.73
819.345	46.42
819.523	-2.73
819.701	-39.59
819.879	66.9
820.058	21.85
820.236	66.9
820.414	30.04
820.592	38.23
820.77	25.94
820.948	-78.51
821.127	-29.35
821.305	48.47
821.483	-49.83
821.661	40.28
821.839	56.66
822.017	109.91
822.195	5.46
822.373	13.65
822.551	30.04
822.729	56.66
822.907	-6.83
823.085	62.8
823.262	1.37
823.44	-21.16
823.618	-109.23
823.796	-31.4
823.974	75.09
824.152	5.46
824.329	-10.92
824.507	-47.79
824.685	-12.97
824.863	-2.73
825.04	-37.55
825.218	79.19
825.396	-17.07
825.574	56.66
825.751	60.76
825.929	-6.83
826.107	-35.5
826.284	44.37
826.462	118.1
826.639	-29.35
826.817	-10.92
826.994	40.28
827.172	52.56
827.349	79.19
827.527	13.65
827.704	68.95
827.882	101.72
828.059	-45.74
828.237	-35.5
828.414	71
828.591	-29.35
828.769	3.41
828.946	-17.07
829.124	71
829.301	56.66
829.478	-37.55
829.655	-2.73
829.833	-6.83
830.01	-78.51
830.187	7.51
830.364	-12.97
830.542	-17.07
830.719	71
830.896	58.71
831.073	38.23
831.25	75.09
831.427	15.7
831.604	-43.69
831.782	21.85
831.959	-19.11
832.136	-4.78
832.313	-33.45
832.49	71
832.667	7.51
832.844	3.41
833.021	52.56
833.198	32.08
833.374	-70.31
833.551	62.8
833.728	-33.45
833.905	52.56
834.082	-66.22
834.259	7.51
834.436	103.76
834.612	-96.94
834.789	66.9
834.966	27.99
835.143	62.8
835.319	-84.65
835.496	75.09
835.673	77.14
835.85	77.14
836.026	-4.78
836.203	32.08
836.38	-76.46
836.556	-60.07
836.733	-2.73
836.909	101.72
837.086	-21.16
837.262	-96.94
837.439	13.65
837.616	-55.98
837.792	-0.68
837.968	-23.21
838.145	-84.65
838.321	30.04
838.498	36.18
838.674	52.56
838.851	19.8
839.027	-58.03
839.203	1.37
839.38	95.57
839.556	21.85
839.732	60.76
839.909	-2.73
840.085	95.57
840.261	-31.4
840.437	17.75
840.614	-31.4
840.79	56.66
840.966	116.05
841.142	-0.68
841.318	56.66
841.494	-12.97
841.671	56.66
841.847	-43.69
842.023	46.42
842.199	-103.08
842.375	109.91
842.551	-27.31
842.727	-43.69
842.903	77.14
843.079	-70.31
843.255	79.19
843.431	-12.97
843.607	52.56
843.783	-111.27
843.959	17.75
844.134	52.56
844.31	122.2
844.486	-31.4
844.662	-53.93
844.838	-27.31
845.013	56.66
845.189	111.96
845.365	58.71
845.541	-19.11
845.716	-2.73
845.892	64.85
846.068	-8.87
846.244	1.37
846.419	62.8
846.595	-15.02
846.77	-117.42
846.946	132.44
847.122	-10.92
847.297	21.85
847.473	101.72
847.648	-117.42
847.824	32.08
847.999	-92.84
848.175	17.75
848.35	9.56
848.526	124.24
848.701	15.7
848.876	87.38
849.052	21.85
849.227	34.13
849.403	-37.55
849.578	-12.97
849.753	50.52
849.929	-17.07
850.104	-92.84
850.279	13.65
850.454	89.43
850.63	-6.83
850.805	42.32
850.98	-8.87
851.155	-103.08
851.33	40.28
851.505	5.46
851.681	165.2
851.856	-0.68
852.031	17.75
852.206	-8.87
852.381	-68.27
852.556	62.8
852.731	-23.21
852.906	44.37
853.081	17.75
853.256	68.95
853.431	23.89
853.606	-35.5
853.781	-139.94
853.956	15.7
854.131	17.75
854.305	-6.83
854.48	-62.12
854.655	-88.75
854.83	-45.74
855.005	-27.31
855.18	71
855.354	-19.11
855.529	-64.17
855.704	-25.26
855.879	64.85
856.053	34.13
856.228	77.14
856.403	-29.35
856.577	9.56
856.752	-92.84
856.926	-21.16
857.101	40.28
857.276	-94.89
857.45	38.23
857.625	103.76
857.799	79.19
857.974	30.04
858.148	-23.21
858.323	-51.88
858.497	17.75
858.672	-64.17
858.846	-45.74
859.02	48.47
859.195	-78.51
859.369	-53.93
859.543	-12.97
859.718	27.99
859.892	-23.21
860.066	21.85
860.241	-19.11
860.415	-35.5
860.589	-96.94
860.763	-12.97
860.938	19.8
861.112	21.85
861.286	-6.83
861.46	27.99
861.634	58.71
861.808	36.18
861.982	-74.41
862.157	-66.22
862.331	-10.92
862.505	34.13
862.679	-58.03
862.853	46.42
863.027	1.37
863.201	136.53
863.375	-12.97
863.549	38.23
863.722	-31.4
863.896	36.18
864.07	1.37
864.244	-10.92
864.418	36.18
864.592	25.94
864.766	-68.27
864.939	-35.5
865.113	-47.79
865.287	-27.31
865.461	-80.55
865.634	83.28
865.808	46.42
865.982	-19.11
866.156	-45.74
866.329	-55.98
866.503	-6.83
866.676	105.81
866.85	-35.5
867.024	-94.89
867.197	-19.11
867.371	91.48
867.544	-43.69
867.718	-121.51
867.891	150.87
868.065	-49.83
868.238	-37.55
868.412	68.95
868.585	34.13
868.759	-70.31
868.932	19.8
869.105	-60.07
869.279	5.46
869.452	-23.21
869.625	34.13
869.799	-10.92
869.972	-15.02
870.145	-27.31
870.319	42.32
870.492	-6.83
870.665	-35.5
870.838	-23.21
871.011	-92.84
871.185	50.52
871.358	13.65
871.531	56.66
871.704	-27.31
871.877	32.08
872.05	46.42
872.223	-6.83
872.396	50.52
872.569	21.85
872.742	-78.51
872.915	40.28
873.088	-12.97
873.261	-68.27
873.434	103.76
873.607	19.8
873.78	83.28
873.953	-51.88
874.126	62.8
874.299	62.8
874.471	15.7
874.644	36.18
874.817	-33.45
874.99	136.53
875.163	-27.31
875.335	95.57
875.508	64.85
875.681	111.96
875.853	-37.55
876.026	3.41
876.199	87.38
876.371	5.46
876.544	71
876.717	30.04
876.889	9.56
877.062	13.65
877.234	-55.98
877.407	-25.26
877.579	5.46
877.752	-19.11
877.924	-10.92
878.097	66.9
878.269	23.89
878.442	21.85
878.614	30.04
878.786	56.66
878.959	27.99
879.131	-10.92
879.303	-146.09
879.476	30.04
879.648	48.47
879.82	-4.78
879.993	17.75
880.165	-70.31
880.337	-35.5
880.509	71
880.681	-35.5
880.854	-33.45
881.026	32.08
881.198	77.14
881.37	11.61
881.542	25.94
881.714	54.61
881.886	58.71
882.058	-10.92
882.23	-31.4
882.402	34.13
882.574	-35.5
882.746	52.56
882.918	13.65
883.09	1.37
883.262	13.65
883.434	-10.92
883.606	-78.51
883.778	-49.83
883.95	60.76
884.122	-19.11
884.293	157.01
884.465	27.99
884.637	42.32
884.809	-60.07
884.98	13.65
885.152	46.42
885.324	89.43
885.496	-76.46
885.667	-2.73
885.839	-35.5
886.011	46.42
886.182	-39.59
886.354	38.23
886.525	54.61
886.697	32.08
886.869	-55.98
887.04	-80.55
887.212	128.34
887.383	73.04
887.555	23.89
887.726	-15.02
887.897	-19.11
888.069	-53.93
888.24	60.76
888.412	62.8
888.583	1.37
888.754	46.42
888.926	-88.75
889.097	-55.98
889.268	-23.21
889.44	-39.59
889.611	-70.31
889.782	-115.37
889.953	-19.11
890.125	107.86
890.296	-39.59
890.467	-41.64
890.638	-27.31
890.809	19.8
890.98	-86.7
891.151	50.52
891.323	19.8
891.494	-55.98
891.665	13.65
891.836	-68.27
892.007	48.47
892.178	107.86
892.349	27.99
892.52	-10.92
892.691	-10.92
892.862	36.18
893.032	-84.65
893.203	-8.87
893.374	-31.4
893.545	66.9
893.716	-68.27
893.887	36.18
894.057	-39.59
894.228	25.94
894.399	-27.31
894.57	-4.78
894.74	30.04
894.911	-2.73
895.082	-31.4
895.253	-60.07
895.423	60.76
895.594	3.41
895.764	46.42
895.935	-72.36
896.106	-33.45
896.276	-45.74
896.447	52.56
896.617	-86.7
896.788	19.8
896.958	-37.55
897.129	-64.17
897.299	-8.87
897.47	71
897.64	17.75
897.81	11.61
897.981	-60.07
898.151	-101.03
898.322	15.7
898.492	-19.11
898.662	-64.17
898.832	-84.65
899.003	-31.4
899.173	54.61
899.343	-49.83
899.513	-8.87
