Data from USB4F104151__76__11-31-06-663.txt Node

Date: Wed Feb 26 11:31:06 EST 2025
User: louis
Spectrometer: USB4F10415
Trigger mode: 4
Integration Time (sec): 1.000000E-1
Scans to average: 1
Electric dark correction enabled: true
Nonlinearity correction enabled: false
Boxcar width: 0
XAxis mode: Wavelengths
Number of Pixels in Spectrum: 3648
>>>>>Begin Spectral Data<<<<<
178.204	-379.39
178.424	-379.39
178.644	-379.39
178.864	-451.07
179.084	-420.35
179.304	28.16
179.524	30.21
179.744	-14.85
179.964	17.92
180.184	67.07
180.404	108.03
180.624	-49.66
180.844	17.92
181.064	-104.96
181.283	19.97
181.503	-135.68
181.723	15.87
181.943	-47.62
182.163	124.41
182.383	-16.9
182.602	97.79
182.822	126.46
183.042	32.26
183.262	-53.76
183.482	-20.99
183.701	19.97
183.921	108.03
184.141	42.5
184.361	128.51
184.58	26.11
184.8	65.02
185.02	17.92
185.239	155.13
185.459	165.37
185.679	136.7
185.898	-33.28
186.118	36.35
186.338	99.84
186.557	60.93
186.777	-94.72
186.997	19.97
187.216	54.78
187.436	237.05
187.655	77.31
187.875	159.23
188.095	79.36
188.314	155.13
188.534	73.21
188.753	-74.24
188.973	144.89
189.192	196.09
189.412	36.35
189.631	22.02
189.851	44.54
190.07	173.57
190.29	-20.99
190.509	28.16
190.729	17.92
190.948	136.7
191.168	253.44
191.387	75.26
191.607	9.73
191.826	97.79
192.045	46.59
192.265	-45.57
192.484	103.93
192.704	48.64
192.923	7.68
193.142	183.81
193.362	19.97
193.581	122.37
193.8	169.47
194.02	65.02
194.239	54.78
194.458	73.21
194.678	69.12
194.897	-12.8
195.116	79.36
195.335	69.12
195.555	67.07
195.774	15.87
195.993	138.75
196.212	44.54
196.432	-27.14
196.651	-68.09
196.87	-6.66
197.089	282.11
197.308	97.79
197.528	93.69
197.747	19.97
197.966	40.45
198.185	185.85
198.404	-82.43
198.623	122.37
198.842	101.89
199.062	138.75
199.281	81.41
199.5	3.58
199.719	128.51
199.938	54.78
200.157	85.5
200.376	202.24
200.595	134.65
200.814	83.45
201.033	13.82
201.252	142.85
201.471	140.8
201.69	132.61
201.909	58.88
202.128	85.5
202.347	62.98
202.566	101.89
202.785	-86.53
203.004	-39.42
203.223	282.11
203.442	9.73
203.661	1.54
203.879	73.21
204.098	81.41
204.317	48.64
204.536	136.7
204.755	-10.75
204.974	126.46
205.193	-29.18
205.411	214.52
205.63	83.45
205.849	36.35
206.068	3.58
206.287	-12.8
206.505	105.98
206.724	32.26
206.943	11.78
207.162	26.11
207.381	50.69
207.599	-39.42
207.818	71.17
208.037	-53.76
208.255	73.21
208.474	105.98
208.693	69.12
208.911	11.78
209.13	50.69
209.349	54.78
209.567	85.5
209.786	122.37
210.005	134.65
210.223	116.22
210.442	-82.43
210.661	-8.7
210.879	95.74
211.098	17.92
211.316	77.31
211.535	40.45
211.753	22.02
211.972	-51.71
212.191	52.74
212.409	28.16
212.628	58.88
212.846	-0.51
213.065	75.26
213.283	181.76
213.502	-0.51
213.72	60.93
213.938	3.58
214.157	58.88
214.375	95.74
214.594	95.74
214.812	161.28
215.031	62.98
215.249	48.64
215.467	99.84
215.686	103.93
215.904	99.84
216.122	105.98
216.341	144.89
216.559	56.83
216.778	116.22
216.996	173.57
217.214	54.78
217.432	17.92
217.651	-82.43
217.869	-18.94
218.087	54.78
218.306	83.45
218.524	3.58
218.742	69.12
218.96	136.7
219.179	-10.75
219.397	34.3
219.615	292.35
219.833	126.46
220.051	-33.28
220.27	93.69
220.488	65.02
220.706	97.79
220.924	3.58
221.142	5.63
221.36	-0.51
221.578	99.84
221.796	-6.66
222.015	40.45
222.233	36.35
222.451	110.08
222.669	-27.14
222.887	132.61
223.105	-59.9
223.323	46.59
223.541	-86.53
223.759	81.41
223.977	79.36
224.195	251.39
224.413	122.37
224.631	44.54
224.849	73.21
225.067	226.81
225.285	73.21
225.503	17.92
225.721	-61.95
225.939	34.3
226.157	65.02
226.375	175.61
226.592	69.12
226.81	85.5
227.028	124.41
227.246	128.51
227.464	38.4
227.682	114.17
227.9	130.56
228.117	83.45
228.335	52.74
228.553	122.37
228.771	58.88
228.989	116.22
229.206	112.13
229.424	26.11
229.642	73.21
229.86	-53.76
230.077	132.61
230.295	60.93
230.513	77.31
230.731	89.6
230.948	181.76
231.166	175.61
231.384	-10.75
231.601	-29.18
231.819	214.52
232.037	22.02
232.254	81.41
232.472	73.21
232.689	42.5
232.907	60.93
233.125	54.78
233.342	-18.94
233.56	15.87
233.777	75.26
233.995	69.12
234.213	110.08
234.43	118.27
234.648	38.4
234.865	-45.57
235.083	56.83
235.3	62.98
235.518	171.52
235.735	108.03
235.953	93.69
236.17	54.78
236.388	-39.42
236.605	85.5
236.822	105.98
237.04	65.02
237.257	130.56
237.475	-41.47
237.692	85.5
237.909	15.87
238.127	42.5
238.344	46.59
238.562	24.06
238.779	-57.86
238.996	-49.66
239.214	48.64
239.431	85.5
239.648	17.92
239.865	120.32
240.083	87.55
240.3	-27.14
240.517	54.78
240.735	91.65
240.952	167.42
241.169	3.58
241.386	75.26
241.603	81.41
241.821	-104.96
242.038	73.21
242.255	3.58
242.472	9.73
242.689	26.11
242.907	167.42
243.124	91.65
243.341	40.45
243.558	-78.33
243.775	19.97
243.992	-20.99
244.209	112.13
244.426	222.72
244.643	11.78
244.86	24.06
245.078	108.03
245.295	67.07
245.512	-10.75
245.729	60.93
245.946	-4.61
246.163	105.98
246.38	11.78
246.597	120.32
246.814	26.11
247.031	71.17
247.248	30.21
247.464	105.98
247.681	50.69
247.898	97.79
248.115	-2.56
248.332	3.58
248.549	196.09
248.766	153.09
248.983	118.27
249.2	97.79
249.417	194.05
249.633	42.5
249.85	79.36
250.067	30.21
250.284	3.58
250.501	13.82
250.717	85.5
250.934	73.21
251.151	93.69
251.368	46.59
251.585	1.54
251.801	11.78
252.018	13.82
252.235	151.04
252.451	3.58
252.668	3.58
252.885	99.84
253.102	91.65
253.318	11.78
253.535	34.3
253.752	38.4
253.968	-25.09
254.185	-49.66
254.401	83.45
254.618	69.12
254.835	-43.52
255.051	116.22
255.268	71.17
255.484	93.69
255.701	28.16
255.917	73.21
256.134	-31.23
256.351	91.65
256.567	-92.67
256.784	75.26
257	-20.99
257.217	118.27
257.433	36.35
257.65	126.46
257.866	108.03
258.082	-82.43
258.299	-43.52
258.515	13.82
258.732	73.21
258.948	-8.7
259.165	67.07
259.381	-27.14
259.597	105.98
259.814	136.7
260.03	52.74
260.246	9.73
260.463	155.13
260.679	60.93
260.895	54.78
261.112	52.74
261.328	7.68
261.544	-39.42
261.761	124.41
261.977	-31.23
262.193	38.4
262.409	75.26
262.626	42.5
262.842	-53.76
263.058	22.02
263.274	105.98
263.49	85.5
263.707	132.61
263.923	58.88
264.139	30.21
264.355	9.73
264.571	75.26
264.787	13.82
265.004	208.38
265.22	3.58
265.436	-27.14
265.652	-18.94
265.868	-14.85
266.084	-31.23
266.3	26.11
266.516	-98.81
266.732	114.17
266.948	13.82
267.164	-31.23
267.38	151.04
267.596	85.5
267.812	212.48
268.028	85.5
268.244	19.97
268.46	101.89
268.676	17.92
268.892	32.26
269.108	13.82
269.324	-64
269.54	-47.62
269.756	67.07
269.972	-51.71
270.188	67.07
270.403	-12.8
270.619	-0.51
270.835	95.74
271.051	71.17
271.267	44.54
271.483	-59.9
271.698	101.89
271.914	44.54
272.13	1.54
272.346	32.26
272.562	67.07
272.777	167.42
272.993	77.31
273.209	-4.61
273.425	187.9
273.64	-14.85
273.856	69.12
274.072	-35.33
274.287	36.35
274.503	132.61
274.719	93.69
274.934	-12.8
275.15	-55.81
275.366	-2.56
275.581	54.78
275.797	116.22
276.012	95.74
276.228	54.78
276.444	97.79
276.659	17.92
276.875	-61.95
277.09	-16.9
277.306	50.69
277.521	13.82
277.737	62.98
277.952	116.22
278.168	65.02
278.383	67.07
278.599	13.82
278.814	71.17
279.03	-29.18
279.245	101.89
279.461	58.88
279.676	42.5
279.892	-68.09
280.107	9.73
280.322	-29.18
280.538	91.65
280.753	44.54
280.969	42.5
281.184	73.21
281.399	155.13
281.615	28.16
281.83	108.03
282.045	-14.85
282.26	79.36
282.476	130.56
282.691	112.13
282.906	85.5
283.122	54.78
283.337	75.26
283.552	105.98
283.767	52.74
283.983	42.5
284.198	7.68
284.413	101.89
284.628	-98.81
284.843	60.93
285.058	69.12
285.274	11.78
285.489	7.68
285.704	122.37
285.919	42.5
286.134	-51.71
286.349	148.99
286.564	46.59
286.779	60.93
286.995	38.4
287.21	-25.09
287.425	52.74
287.64	-35.33
287.855	19.97
288.07	-64
288.285	73.21
288.5	138.75
288.715	97.79
288.93	-12.8
289.145	-14.85
289.36	93.69
289.575	-14.85
289.79	163.33
290.004	-6.66
290.219	85.5
290.434	-64
290.649	-0.51
290.864	-31.23
291.079	15.87
291.294	52.74
291.509	112.13
291.724	26.11
291.938	-45.57
292.153	48.64
292.368	24.06
292.583	-10.75
292.798	65.02
293.012	3.58
293.227	91.65
293.442	-20.99
293.657	56.83
293.871	116.22
294.086	32.26
294.301	173.57
294.516	118.27
294.73	40.45
294.945	24.06
295.16	69.12
295.374	112.13
295.589	97.79
295.804	-6.66
296.018	28.16
296.233	173.57
296.447	40.45
296.662	-88.57
296.877	126.46
297.091	56.83
297.306	89.6
297.52	58.88
297.735	67.07
297.949	40.45
298.164	54.78
298.378	71.17
298.593	42.5
298.807	-8.7
299.022	-12.8
299.236	200.19
299.451	-12.8
299.665	13.82
299.88	42.5
300.094	134.65
300.309	40.45
300.523	15.87
300.737	-55.81
300.952	81.41
301.166	52.74
301.381	-53.76
301.595	73.21
301.809	3.58
302.024	153.09
302.238	-33.28
302.452	93.69
302.667	28.16
302.881	159.23
303.095	155.13
303.309	118.27
303.524	-16.9
303.738	36.35
303.952	7.68
304.166	13.82
304.381	-176.64
304.595	157.18
304.809	-2.56
305.023	75.26
305.237	26.11
305.452	52.74
305.666	-23.04
305.88	128.51
306.094	101.89
306.308	-12.8
306.522	85.5
306.736	26.11
306.95	155.13
307.164	40.45
307.379	58.88
307.593	208.38
307.807	105.98
308.021	122.37
308.235	69.12
308.449	-37.38
308.663	-14.85
308.877	257.53
309.091	24.06
309.305	112.13
309.519	-104.96
309.733	128.51
309.947	-68.09
310.161	52.74
310.374	58.88
310.588	128.51
310.802	-10.75
311.016	-33.28
311.23	44.54
311.444	17.92
311.658	126.46
311.872	58.88
312.085	126.46
312.299	153.09
312.513	140.8
312.727	83.45
312.941	28.16
313.154	58.88
313.368	85.5
313.582	-8.7
313.796	71.17
314.009	28.16
314.223	56.83
314.437	58.88
314.651	89.6
314.864	-57.86
315.078	17.92
315.292	22.02
315.505	1.54
315.719	56.83
315.933	56.83
316.146	-6.66
316.36	-14.85
316.573	103.93
316.787	81.41
317.001	126.46
317.214	11.78
317.428	32.26
317.641	-0.51
317.855	34.3
318.068	58.88
318.282	58.88
318.495	183.81
318.709	77.31
318.922	-23.04
319.136	159.23
319.349	95.74
319.563	-12.8
319.776	97.79
319.99	-61.95
320.203	73.21
320.417	50.69
320.63	118.27
320.843	163.33
321.057	73.21
321.27	36.35
321.483	93.69
321.697	122.37
321.91	7.68
322.124	58.88
322.337	77.31
322.55	34.3
322.763	69.12
322.977	-29.18
323.19	89.6
323.403	77.31
323.617	101.89
323.83	159.23
324.043	42.5
324.256	69.12
324.469	-49.66
324.683	91.65
324.896	87.55
325.109	1.54
325.322	-29.18
325.535	40.45
325.748	116.22
325.962	67.07
326.175	79.36
326.388	34.3
326.601	148.99
326.814	73.21
327.027	34.3
327.24	81.41
327.453	1.54
327.666	77.31
327.879	171.52
328.092	89.6
328.305	81.41
328.518	15.87
328.731	9.73
328.944	-25.09
329.157	155.13
329.37	1.54
329.583	179.71
329.796	130.56
330.009	-80.38
330.222	142.85
330.435	105.98
330.648	-53.76
330.861	56.83
331.073	-0.51
331.286	138.75
331.499	-12.8
331.712	-16.9
331.925	34.3
332.138	52.74
332.35	140.8
332.563	19.97
332.776	140.8
332.989	-12.8
333.202	69.12
333.414	42.5
333.627	24.06
333.84	46.59
334.053	44.54
334.265	13.82
334.478	-27.14
334.691	65.02
334.903	101.89
335.116	83.45
335.329	95.74
335.541	48.64
335.754	105.98
335.966	50.69
336.179	13.82
336.392	52.74
336.604	42.5
336.817	161.28
337.029	28.16
337.242	-23.04
337.454	105.98
337.667	126.46
337.88	73.21
338.092	81.41
338.305	103.93
338.517	38.4
338.729	105.98
338.942	171.52
339.154	-49.66
339.367	-12.8
339.579	44.54
339.792	-39.42
340.004	157.18
340.217	-14.85
340.429	42.5
340.641	44.54
340.854	24.06
341.066	50.69
341.278	153.09
341.491	237.05
341.703	34.3
341.915	75.26
342.128	87.55
342.34	83.45
342.552	-2.56
342.764	-14.85
342.977	15.87
343.189	62.98
343.401	38.4
343.613	26.11
343.826	71.17
344.038	-59.9
344.25	153.09
344.462	7.68
344.674	79.36
344.886	83.45
345.099	28.16
345.311	71.17
345.523	7.68
345.735	-31.23
345.947	118.27
346.159	-6.66
346.371	116.22
346.583	5.63
346.795	183.81
347.007	7.68
347.219	105.98
347.431	-37.38
347.643	192
347.855	30.21
348.067	81.41
348.279	-57.86
348.491	69.12
348.703	146.94
348.915	28.16
349.127	73.21
349.339	22.02
349.551	44.54
349.763	110.08
349.975	15.87
350.187	130.56
350.399	112.13
350.61	19.97
350.822	15.87
351.034	44.54
351.246	112.13
351.458	77.31
351.669	28.16
351.881	163.33
352.093	130.56
352.305	73.21
352.517	69.12
352.728	130.56
352.94	73.21
353.152	110.08
353.363	-72.19
353.575	112.13
353.787	120.32
353.999	124.41
354.21	185.85
354.422	-37.38
354.633	32.26
354.845	58.88
355.057	5.63
355.268	-29.18
355.48	44.54
355.692	-47.62
355.903	89.6
356.115	-27.14
356.326	-41.47
356.538	112.13
356.749	67.07
356.961	97.79
357.172	52.74
357.384	1.54
357.595	269.82
357.807	1.54
358.018	-31.23
358.23	-20.99
358.441	173.57
358.653	101.89
358.864	77.31
359.075	58.88
359.287	48.64
359.498	91.65
359.709	183.81
359.921	65.02
360.132	34.3
360.344	52.74
360.555	89.6
360.766	36.35
360.977	-4.61
361.189	122.37
361.4	-23.04
361.611	118.27
361.823	136.7
362.034	3.58
362.245	-66.05
362.456	46.59
362.667	112.13
362.879	-12.8
363.09	60.93
363.301	114.17
363.512	-12.8
363.723	1.54
363.935	32.26
364.146	138.75
364.357	7.68
364.568	36.35
364.779	9.73
364.99	140.8
365.201	85.5
365.412	189.95
365.623	-23.04
365.834	30.21
366.045	75.26
366.256	118.27
366.467	112.13
366.678	-90.62
366.889	52.74
367.1	-59.9
367.311	134.65
367.522	-29.18
367.733	62.98
367.944	60.93
368.155	87.55
368.366	58.88
368.577	144.89
368.788	222.72
368.999	-6.66
369.209	3.58
369.42	163.33
369.631	284.16
369.842	54.78
370.053	-39.42
370.264	114.17
370.474	-2.56
370.685	65.02
370.896	69.12
371.107	155.13
371.317	69.12
371.528	73.21
371.739	161.28
371.95	60.93
372.16	97.79
372.371	13.82
372.582	77.31
372.792	97.79
373.003	24.06
373.214	32.26
373.424	105.98
373.635	3.58
373.846	200.19
374.056	52.74
374.267	146.94
374.477	101.89
374.688	36.35
374.898	19.97
375.109	101.89
375.319	89.6
375.53	124.41
375.74	155.13
375.951	136.7
376.161	112.13
376.372	159.23
376.582	13.82
376.793	144.89
377.003	-45.57
377.214	-68.09
377.424	105.98
377.635	85.5
377.845	3.58
378.055	155.13
378.266	-0.51
378.476	153.09
378.686	46.59
378.897	9.73
379.107	58.88
379.317	112.13
379.528	32.26
379.738	83.45
379.948	-88.57
380.158	130.56
380.369	52.74
380.579	101.89
380.789	48.64
380.999	99.84
381.21	202.24
381.42	161.28
381.63	83.45
381.84	167.42
382.05	128.51
382.261	167.42
382.471	108.03
382.681	52.74
382.891	183.81
383.101	99.84
383.311	-25.09
383.521	99.84
383.731	134.65
383.941	69.12
384.151	-10.75
384.361	44.54
384.571	17.92
384.781	136.7
384.991	128.51
385.201	267.77
385.411	85.5
385.621	91.65
385.831	124.41
386.041	5.63
386.251	44.54
386.461	136.7
386.671	118.27
386.881	118.27
387.091	79.36
387.301	69.12
387.511	30.21
387.72	73.21
387.93	216.57
388.14	-23.04
388.35	75.26
388.56	73.21
388.769	116.22
388.979	52.74
389.189	-37.38
389.399	28.16
389.609	206.33
389.818	77.31
390.028	126.46
390.238	44.54
390.447	97.79
390.657	28.16
390.867	-25.09
391.076	-109.05
391.286	81.41
391.496	24.06
391.705	81.41
391.915	163.33
392.125	108.03
392.334	40.45
392.544	187.9
392.753	79.36
392.963	-45.57
393.172	81.41
393.382	-25.09
393.591	194.05
393.801	5.63
394.01	167.42
394.22	85.5
394.429	77.31
394.639	36.35
394.848	65.02
395.058	-2.56
395.267	58.88
395.477	103.93
395.686	108.03
395.895	210.43
396.105	151.04
396.314	126.46
396.524	67.07
396.733	44.54
396.942	142.85
397.152	103.93
397.361	118.27
397.57	54.78
397.78	9.73
397.989	138.75
398.198	255.48
398.407	52.74
398.617	116.22
398.826	50.69
399.035	36.35
399.244	142.85
399.453	101.89
399.663	79.36
399.872	34.3
400.081	-31.23
400.29	167.42
400.499	-33.28
400.708	155.13
400.917	11.78
401.127	99.84
401.336	-2.56
401.545	212.48
401.754	140.8
401.963	75.26
402.172	15.87
402.381	-20.99
402.59	69.12
402.799	71.17
403.008	165.37
403.217	11.78
403.426	36.35
403.635	-33.28
403.844	24.06
404.053	42.5
404.262	40.45
404.471	187.9
404.68	103.93
404.888	46.59
405.097	79.36
405.306	132.61
405.515	198.14
405.724	-2.56
405.933	54.78
406.142	120.32
406.35	132.61
406.559	48.64
406.768	71.17
406.977	196.09
407.185	130.56
407.394	89.6
407.603	-41.47
407.812	79.36
408.02	196.09
408.229	-20.99
408.438	52.74
408.646	-64
408.855	48.64
409.064	128.51
409.272	46.59
409.481	77.31
409.69	13.82
409.898	-8.7
410.107	91.65
410.315	161.28
410.524	13.82
410.733	50.69
410.941	5.63
411.15	30.21
411.358	108.03
411.567	93.69
411.775	46.59
411.984	52.74
412.192	95.74
412.401	-20.99
412.609	157.18
412.818	206.33
413.026	40.45
413.234	44.54
413.443	77.31
413.651	7.68
413.86	13.82
414.068	128.51
414.276	194.05
414.485	46.59
414.693	173.57
414.901	146.94
415.11	42.5
415.318	34.3
415.526	81.41
415.734	81.41
415.943	24.06
416.151	44.54
416.359	11.78
416.567	95.74
416.776	48.64
416.984	95.74
417.192	165.37
417.4	103.93
417.608	-61.95
417.817	1.54
418.025	124.41
418.233	216.57
418.441	71.17
418.649	-55.81
418.857	140.8
419.065	155.13
419.273	26.11
419.481	36.35
419.689	65.02
419.897	22.02
420.105	-74.24
420.313	108.03
420.521	89.6
420.729	151.04
420.937	9.73
421.145	24.06
421.353	142.85
421.561	136.7
421.769	-6.66
421.977	46.59
422.185	128.51
422.393	118.27
422.601	73.21
422.809	130.56
423.017	101.89
423.224	108.03
423.432	124.41
423.64	13.82
423.848	251.39
424.056	38.4
424.263	87.55
424.471	15.87
424.679	71.17
424.887	1.54
425.094	232.96
425.302	132.61
425.51	65.02
425.718	130.56
425.925	101.89
426.133	44.54
426.341	237.05
426.548	36.35
426.756	26.11
426.964	124.41
427.171	28.16
427.379	103.93
427.586	105.98
427.794	134.65
428.001	118.27
428.209	89.6
428.417	218.62
428.624	103.93
428.832	114.17
429.039	105.98
429.247	73.21
429.454	95.74
429.662	142.85
429.869	146.94
430.076	165.37
430.284	122.37
430.491	128.51
430.699	185.85
430.906	220.67
431.114	28.16
431.321	167.42
431.528	144.89
431.736	155.13
431.943	108.03
432.15	194.05
432.358	157.18
432.565	214.52
432.772	22.02
432.979	282.11
433.187	105.98
433.394	200.19
433.601	79.36
433.808	194.05
434.016	216.57
434.223	269.82
434.43	138.75
434.637	239.1
434.844	253.44
435.052	206.33
435.259	247.29
435.466	267.77
435.673	194.05
435.88	255.48
436.087	396.79
436.294	335.35
436.501	251.39
436.708	249.34
436.915	271.87
437.122	275.96
437.329	237.05
437.537	222.72
437.743	351.74
437.95	300.54
438.157	380.41
438.364	321.02
438.571	294.4
438.778	347.64
438.985	370.17
439.192	388.6
439.399	435.71
439.606	476.66
439.813	464.38
440.02	509.43
440.227	536.06
440.433	478.71
440.64	404.99
440.847	415.23
441.054	468.47
441.261	534.01
441.467	534.01
441.674	536.06
441.881	574.97
442.088	511.48
442.294	574.97
442.501	622.07
442.708	738.8
442.914	597.49
443.121	747
443.328	650.74
443.534	820.72
443.741	624.12
443.948	691.7
444.154	861.68
444.361	884.21
444.568	816.63
444.774	878.07
444.981	755.19
445.187	1002.99
445.394	890.35
445.6	964.08
445.807	1084.91
446.013	1140.21
446.22	1039.86
446.426	1121.77
446.633	1353.2
446.839	1345
447.046	1121.77
447.252	1424.87
447.459	1379.82
447.665	1146.35
447.871	1512.94
448.078	1584.62
448.284	1635.82
448.491	1635.82
448.697	1603.05
448.903	1766.89
449.11	1697.25
449.316	1830.37
449.522	2018.79
449.728	2043.36
449.935	2057.7
450.141	2096.61
450.347	2274.78
450.553	2182.62
450.76	2219.49
450.966	2364.89
451.172	2475.48
451.378	2510.3
451.584	2696.66
451.791	2862.55
451.997	2846.16
452.203	2915.8
452.409	3134.93
452.615	3143.12
452.821	2854.36
453.027	3179.98
453.233	3562.95
453.44	3417.55
453.646	3550.67
453.852	3777.99
454.058	3917.25
454.264	4066.75
454.47	4212.16
454.676	4335.04
454.882	4562.36
455.088	4519.36
455.294	4822.45
455.5	5135.79
455.705	5250.48
455.911	5172.66
456.117	5508.52
456.323	5547.44
456.529	5678.51
456.735	6172.07
456.941	6096.29
457.147	6540.7
457.352	6782.36
457.558	6835.61
457.764	7382.42
457.97	7609.74
458.176	7773.58
458.381	8242.56
458.587	8250.75
458.793	8848.76
458.999	8611.2
459.204	9602.41
459.41	10208.61
459.616	10128.74
459.821	10546.53
460.027	11183.45
460.233	11728.21
460.438	11717.97
460.644	12383.56
460.85	12490.05
461.055	12913.98
461.261	13645.1
461.466	13520.18
461.672	13649.2
461.878	15070.49
462.083	15031.58
462.289	15406.36
462.494	16065.8
462.7	16284.94
462.905	16114.95
463.111	17560.82
463.316	18613.48
463.522	18740.45
463.727	19598.55
463.932	20303.05
464.138	20575.43
464.343	21568.69
464.549	21933.23
464.754	23278.75
464.959	24120.46
465.165	24544.39
465.37	23964.82
465.575	24124.56
465.781	25738.36
465.986	26750.06
466.191	26426.48
466.397	26698.86
466.602	25980.02
466.807	27384.93
467.012	27997.27
467.218	28169.3
467.423	28118.1
467.628	29660.22
467.833	30993.45
468.038	30028.85
468.244	29293.63
468.449	30972.97
468.654	30567.47
468.859	30489.65
469.064	30663.72
469.269	29963.32
469.474	30223.41
469.679	31319.07
469.885	30305.33
470.09	30731.31
470.295	30651.44
470.5	29686.84
470.705	30594.09
470.91	29396.03
471.115	29023.3
471.32	29449.28
471.525	29611.07
471.73	28439.63
471.935	28470.35
472.139	27407.45
472.344	27534.43
472.549	27452.51
472.754	26881.13
472.959	25877.62
473.164	25283.71
473.369	25316.48
473.574	25597.05
473.778	24861.83
473.983	24706.18
474.188	24284.3
474.393	23241.89
474.598	22953.12
474.802	22549.67
475.007	22156.46
475.212	22002.86
475.417	21068.99
475.621	20708.55
475.826	20821.19
476.031	20128.97
476.235	20034.77
476.44	19875.02
476.645	19535.06
476.849	19162.33
477.054	18869.47
477.259	18404.58
477.463	18138.35
477.668	17868.02
477.872	17939.69
478.077	17450.23
478.282	16637.19
478.486	16864.51
478.691	16561.41
478.895	16289.03
479.1	16243.98
479.304	16278.79
479.509	15828.24
479.713	15772.94
479.918	15742.22
480.122	14970.14
480.326	15392.02
480.531	14982.43
480.735	15015.19
480.94	14761.25
481.144	15316.25
481.348	14411.04
481.553	14603.55
481.757	14105.9
481.961	14302.5
482.166	14531.87
482.37	13950.25
482.574	13983.02
482.778	13835.56
482.983	13915.44
483.187	13714.73
483.391	13546.8
483.595	13299
483.8	13178.17
484.004	13129.02
484.208	13129.02
484.412	12836.16
484.616	13030.71
484.821	12559.68
485.025	12381.51
485.229	12371.27
485.433	12275.01
485.637	12086.6
485.841	11738.44
486.045	11894.09
486.249	11752.78
486.453	11429.2
486.657	11398.48
486.861	11165.01
487.065	10870.11
487.269	10997.08
487.473	10214.76
487.677	10632.54
487.881	10616.16
488.085	10118.5
488.289	10085.73
488.493	9747.82
488.697	9719.15
488.901	9551.21
489.105	9362.8
489.309	9088.37
489.512	9373.04
489.716	8963.45
489.92	8729.98
490.124	8547.71
490.328	8787.32
490.531	8326.53
490.735	8355.2
490.939	7970.18
491.143	7712.14
491.346	7550.35
491.55	7695.75
491.754	7062.93
491.958	7409.04
492.161	7114.13
492.365	6991.25
492.569	6888.85
492.772	6800.79
492.976	6745.5
493.18	6659.48
493.383	6686.11
493.587	6438.3
493.79	6436.25
493.994	6245.79
494.197	6256.03
494.401	6202.79
494.605	5995.94
494.808	6032.8
495.012	6055.33
495.215	5907.88
495.419	5963.17
495.622	5741.99
495.825	5690.79
496.029	5741.99
496.232	5911.97
496.436	5610.92
496.639	5778.86
496.843	5627.31
497.046	5572.01
497.249	5522.86
497.453	5633.45
497.656	5432.75
497.859	5512.62
498.063	5549.48
498.266	5684.65
498.469	5512.62
498.673	5486
498.876	5608.87
499.079	5533.1
499.282	5514.67
499.485	5893.54
499.689	5549.48
499.892	5807.53
500.095	5645.74
500.298	5823.91
500.501	5721.51
500.705	5836.2
500.908	5850.53
501.111	5758.38
501.314	5830.06
501.517	5995.94
501.72	5993.89
501.923	5883.3
502.126	6124.96
502.329	6100.39
502.532	6086.05
502.735	6114.72
502.938	6354.34
503.141	6497.69
503.344	6505.88
503.547	6532.51
503.75	6579.61
503.953	6546.84
504.156	6679.96
504.359	6720.92
504.562	6892.95
504.765	7017.88
504.968	7067.03
505.17	7097.75
505.373	7146.9
505.576	7644.56
505.779	7437.71
505.982	7626.12
506.185	7585.16
506.387	7531.92
506.59	8060.29
506.793	7943.56
506.996	8127.88
507.198	8486.27
507.401	8531.33
507.604	8658.3
507.807	8899.96
508.009	8889.72
508.212	8971.64
508.415	9430.38
508.617	9428.34
508.82	9721.2
509.022	9665.9
509.225	10030.44
509.428	10327.39
509.63	10538.34
509.833	10536.29
510.035	11197.78
510.238	11160.92
510.44	11251.03
510.643	11730.25
510.845	11818.32
511.048	11996.49
511.25	12492.1
511.453	12645.7
511.655	13169.98
511.858	13219.13
512.06	13452.59
512.262	13915.44
512.465	13884.72
512.667	14423.33
512.87	14892.32
513.072	15099.16
513.274	15437.08
513.477	15654.16
513.679	16035.08
513.881	16418.05
514.084	16747.78
514.286	17071.36
514.488	17702.13
514.69	18214.12
514.893	18584.8
515.095	18812.13
515.297	19291.35
515.499	19578.07
515.701	20108.49
515.904	20536.52
516.106	20939.97
516.308	21509.3
516.51	21662.9
516.712	22219.95
516.914	22989.99
517.116	23274.65
517.318	23487.64
517.52	23932.05
517.722	24562.83
517.925	25062.53
518.127	25775.22
518.329	26170.48
518.531	25984.12
518.733	27018.34
518.935	27548.76
519.136	27915.35
519.338	28247.12
519.54	28918.85
519.742	29191.23
519.944	29957.17
520.146	30364.72
520.348	30659.63
520.55	31183.91
520.752	31188
520.954	31925.27
521.155	32003.1
521.357	32900.11
521.559	33221.64
521.761	33700.86
521.963	33901.56
522.164	33963
522.366	34612.21
522.568	34915.31
522.77	35019.75
522.971	35777.5
523.173	35617.76
523.375	36303.83
523.576	36209.62
523.778	36500.44
523.98	36482
524.181	36897.74
524.383	37563.33
524.584	37899.2
524.786	37546.95
524.988	37491.65
525.189	38081.47
525.391	38138.81
525.592	37929.92
525.794	38122.43
525.995	37764.03
526.197	38128.57
526.398	37974.97
526.6	38325.18
526.801	38048.7
527.003	38233.02
527.204	37997.5
527.406	38413.24
527.607	38179.77
527.808	37991.36
528.01	37256.14
528.211	37301.19
528.412	37891.01
528.614	37219.27
528.815	36768.72
529.016	37190.6
529.218	36424.66
529.419	36174.81
529.62	35566.56
529.822	35300.33
530.023	35312.61
530.224	35187.69
530.425	34780.14
530.626	34311.16
530.828	33760.25
531.029	34245.62
531.23	33088.52
531.431	32814.09
531.632	32752.65
531.833	32754.7
532.035	31833.11
532.236	31724.57
532.437	31910.94
532.638	30975.02
532.839	30872.62
533.04	30700.59
533.241	29742.14
533.442	29887.54
533.643	29238.34
533.844	29269.06
534.045	28781.64
534.246	27960.41
534.447	27976.79
534.648	27415.65
534.849	27157.6
535.05	26676.33
535.251	26446.96
535.451	26117.23
535.652	25658.49
535.853	25582.71
536.054	25386.11
536.255	24708.23
536.456	24276.11
536.657	24218.77
536.857	23542.94
537.058	23370.91
537.259	23397.53
537.46	22799.52
537.66	22391.98
537.861	22480.04
538.062	22013.1
538.263	21888.18
538.463	21521.59
538.664	21423.29
538.865	20991.17
539.065	20753.6
539.266	20260.04
539.466	20618.44
539.667	19928.27
539.868	19991.76
540.068	19244.25
540.269	19459.29
540.469	19211.48
540.67	18980.06
540.87	18590.95
541.071	18549.99
541.271	18394.34
541.472	18025.71
541.672	17829.1
541.873	17620.21
542.073	17491.19
542.274	17353.98
542.474	16964.86
542.675	16876.8
542.875	16727.3
543.075	16289.03
543.276	16160.01
543.476	16192.78
543.676	15938.83
543.877	15697.17
544.077	15858.96
544.277	15584.53
544.478	15469.84
544.678	15303.96
544.878	15025.43
545.078	14775.58
545.279	14730.53
545.479	14452
545.679	14286.12
545.879	14093.61
546.079	14007.59
546.28	13630.77
546.48	13614.38
546.68	13770.03
546.88	13544.75
547.08	13286.71
547.28	13188.41
547.48	12889.4
547.68	12776.77
547.88	12377.41
548.081	12459.33
548.281	12156.23
548.481	12291.4
548.681	12254.53
548.881	11955.53
549.081	11750.73
549.28	11654.48
549.48	11359.57
549.68	11214.16
549.88	11220.31
550.08	10839.39
550.28	10878.3
550.48	10714.46
550.68	10569.05
550.88	10409.31
551.08	10075.49
551.279	10239.33
551.479	9958.76
551.679	10018.15
551.879	9520.49
552.079	9405.81
552.278	9334.13
552.478	9440.62
552.678	9186.68
552.878	8985.97
553.077	8815.99
553.277	8654.2
553.477	8617.34
553.676	8510.85
553.876	8248.71
554.076	8162.69
554.275	8299.91
554.475	8007.05
554.674	7863.69
554.874	7617.93
555.074	7533.97
555.273	7435.66
555.473	7300.5
555.672	7157.14
555.872	7226.77
556.071	7083.41
556.271	6909.33
556.47	6931.86
556.67	6661.53
556.869	6534.56
557.068	6546.84
557.268	6423.97
557.467	6413.73
557.667	6296.99
557.866	5926.31
558.065	5938.6
558.265	5963.17
558.464	5803.43
558.663	5660.07
558.863	5399.98
559.062	5553.58
559.261	5436.85
559.461	5526.96
559.66	5193.14
559.859	5096.88
560.058	5088.69
560.258	4826.55
560.457	5039.54
560.656	4969.91
560.855	4701.62
561.054	4763.06
561.253	4433.34
561.453	4644.28
561.652	4427.2
561.851	4484.54
562.05	4220.35
562.249	4167.1
562.448	4214.21
562.647	3933.64
562.846	4208.06
563.045	4101.57
563.244	3972.55
563.443	3945.92
563.642	3818.95
563.841	3915.2
564.04	3587.53
564.239	3771.85
564.438	3737.03
564.637	3403.21
564.836	3575.24
565.035	3429.84
565.234	3417.55
565.432	3483.08
565.631	3282.38
565.83	3229.13
566.029	3065.3
566.228	3153.36
566.427	3206.61
566.625	2942.42
566.824	3028.43
567.023	2993.62
567.222	2944.47
567.42	2854.36
567.619	2954.71
567.818	2768.34
568.016	2833.88
568.215	2637.27
568.414	2700.76
568.612	2698.71
568.811	2627.03
569.01	2553.31
569.208	2495.96
569.407	2563.54
569.605	2506.2
569.804	2379.23
570.002	2424.28
570.201	2383.32
570.4	2315.74
570.598	2192.86
570.797	2246.11
570.995	2094.56
571.193	2244.06
571.392	2168.29
571.59	2039.26
571.789	2090.46
571.987	2190.81
572.186	2029.03
572.384	1986.02
572.582	1975.78
572.781	2061.79
572.979	1773.03
573.177	1900
573.376	1885.67
573.574	1951.2
573.772	1797.6
573.971	1691.11
574.169	1699.3
574.367	1752.55
574.565	1594.86
574.763	1633.77
574.962	1531.37
575.16	1592.81
575.358	1318.38
575.556	1527.27
575.754	1562.09
575.952	1488.36
576.151	1500.65
576.349	1416.68
576.547	1314.28
576.745	1445.35
576.943	1447.4
577.141	1410.54
577.339	1347.05
577.537	1324.52
577.735	1459.69
577.933	1361.39
578.131	1201.65
578.329	1256.94
578.527	1166.83
578.725	1224.17
578.923	1064.43
579.121	1070.58
579.319	955.89
579.516	1076.72
579.714	1345
579.912	1105.39
580.11	871.92
580.308	1068.53
580.506	988.66
580.704	830.96
580.901	931.31
581.099	1162.73
581.297	945.65
581.495	970.23
581.692	884.21
581.89	1109.49
582.088	939.51
582.285	957.94
582.483	890.35
582.681	824.82
582.878	816.63
583.076	904.69
583.274	968.18
583.471	996.85
583.669	863.73
583.866	652.79
584.064	808.44
584.262	699.89
584.459	703.99
584.657	755.19
584.854	814.58
585.052	761.33
585.249	773.62
585.447	755.19
585.644	681.46
585.841	771.57
586.039	720.37
586.236	804.34
586.434	626.17
586.631	630.26
586.828	642.55
587.026	566.78
587.223	536.06
587.42	570.87
587.618	665.08
587.815	757.24
588.012	628.21
588.21	564.73
588.407	663.03
588.604	640.5
588.801	503.29
588.999	554.49
589.196	675.32
589.393	505.34
589.59	613.88
589.787	626.17
589.984	480.76
590.182	577.02
590.379	554.49
590.576	572.92
590.773	534.01
590.97	568.82
591.167	579.06
591.364	607.73
591.561	447.99
591.758	654.84
591.955	570.87
592.152	531.96
592.349	493.05
592.546	581.11
592.743	435.71
592.94	495.1
593.137	550.39
593.334	648.69
593.531	581.11
593.727	613.88
593.924	638.45
594.121	509.43
594.318	493.05
594.515	536.06
594.712	691.7
594.908	593.4
595.105	480.76
595.302	527.86
595.499	585.21
595.696	804.34
595.892	570.87
596.089	677.37
596.286	540.15
596.482	699.89
596.679	722.42
596.876	603.64
597.072	724.47
597.269	716.28
597.466	736.76
597.662	804.34
597.859	708.09
598.055	771.57
598.252	882.16
598.448	871.92
598.645	886.26
598.841	839.16
599.038	949.75
599.234	978.42
599.431	1029.62
599.627	1060.34
599.824	1181.17
600.02	1191.41
600.217	1142.25
600.413	1095.15
600.609	1168.88
600.806	1504.75
601.002	1445.35
601.198	1396.2
601.395	1433.07
601.591	1433.07
601.787	1533.42
601.984	1707.49
602.18	1836.52
602.376	1654.25
602.572	1873.38
602.769	1881.57
602.965	1807.84
603.161	2110.94
603.357	2112.99
603.553	2166.24
603.75	2061.79
603.946	2248.16
604.142	2354.65
604.338	2620.89
604.534	2424.28
604.73	2467.29
604.926	2639.32
605.122	2844.12
605.318	2741.72
605.514	2928.08
605.71	3053.01
605.906	3139.02
606.102	3130.83
606.298	3306.96
606.494	3407.31
606.69	3648.97
606.886	3769.8
607.082	3673.54
607.278	3841.48
607.474	3892.68
607.67	4087.23
607.866	4021.7
608.062	4322.75
608.257	4371.9
608.453	4341.18
608.649	4607.42
608.845	4646.33
609.041	4855.22
609.236	5002.68
609.432	5062.07
609.628	5266.86
609.824	5596.59
610.019	5504.43
610.215	5709.22
610.411	5967.27
610.606	5932.45
610.802	6075.81
610.998	6239.65
611.193	6309.28
611.389	6608.28
611.584	6747.55
611.78	6907.29
611.976	7118.23
612.171	7517.58
612.367	7609.74
612.562	7705.99
612.758	7978.37
612.953	7947.65
613.149	8379.78
613.344	8541.57
613.539	8740.22
613.735	8904.06
613.93	9502.06
614.126	9583.98
614.321	9995.62
614.517	9948.52
614.712	10263.91
614.907	10571.1
615.103	10691.93
615.298	11117.91
615.493	11189.59
615.688	11353.43
615.884	11808.08
616.079	11875.66
616.274	12500.29
616.47	12371.27
616.665	12744
616.86	13231.41
617.055	13651.25
617.25	13960.49
617.445	14212.39
617.641	14503.2
617.836	15047.96
618.031	15207.7
618.226	15797.52
618.421	16252.17
618.616	16528.64
618.811	16760.06
619.006	17284.34
619.201	17652.98
619.396	18169.07
619.591	17949.93
619.786	18812.13
619.981	18920.67
620.176	19840.21
620.371	19897.55
620.566	20186.32
620.761	20630.73
620.956	21277.88
621.151	21550.26
621.346	22009.01
621.541	21832.88
621.735	23258.27
621.93	23026.85
622.125	23473.31
622.32	23463.07
622.515	24571.02
622.709	24966.28
622.904	25549.95
623.099	25779.32
623.294	26500.2
623.488	26985.57
623.683	27188.32
623.878	27343.97
624.072	28320.85
624.267	28671.05
624.462	28718.15
624.656	29242.43
624.851	29836.34
625.046	30018.61
625.24	30786.6
625.435	30979.11
625.629	31489.06
625.824	31773.72
626.018	32429.07
626.213	32349.2
626.407	32953.35
626.602	33123.33
626.796	33922.04
626.991	34243.57
627.185	34108.41
627.38	34530.29
627.574	34550.77
627.768	34943.98
627.963	34522.1
628.157	34759.66
628.352	35322.85
628.546	35359.72
628.74	35740.64
628.935	35154.92
629.129	35476.45
629.323	34835.44
629.517	34794.48
629.712	34618.35
629.906	34057.21
630.1	34092.02
630.294	33905.66
630.489	33084.42
630.683	33285.12
630.877	31896.6
631.071	31540.25
631.265	31654.94
631.459	30716.97
631.653	29961.27
631.848	29350.98
632.042	28726.35
632.236	27847.77
632.43	27483.23
632.624	26713.19
632.818	25535.61
633.012	24951.94
633.206	24335.5
633.4	23569.56
633.594	22738.09
633.788	22052.02
633.982	21181.63
634.176	20683.97
634.369	19422.42
634.563	18808.03
634.757	18199.79
634.951	17665.27
635.145	17130.75
635.339	16160.01
635.533	15471.89
635.726	15240.47
635.92	14153
636.114	13606.19
636.308	13077.82
636.501	12698.94
636.695	12305.73
636.889	11513.17
637.083	11240.79
637.276	10794.33
637.47	10050.92
637.664	9846.12
637.857	9522.54
638.051	8983.93
638.244	8756.6
638.438	8422.78
638.632	8105.35
638.825	7599.5
639.019	7533.97
639.212	7052.69
639.406	6804.89
639.599	6647.19
639.793	6268.32
639.986	5979.56
640.18	5957.03
640.373	5606.83
640.567	5422.51
640.76	5178.8
640.954	4988.34
641.147	4820.41
641.34	4566.46
641.534	4511.16
641.727	4400.57
641.92	4058.56
642.114	4054.47
642.307	3728.84
642.5	3814.85
642.694	3431.88
642.887	3401.16
643.08	3411.4
643.273	3290.57
643.467	2983.38
643.66	2840.02
643.853	2690.52
644.046	2698.71
644.239	2469.34
644.432	2495.96
644.626	2289.12
644.819	2381.28
645.012	2205.15
645.205	2168.29
645.398	2186.72
645.591	2024.93
645.784	1857
645.977	1809.89
646.17	1750.5
646.363	1730.02
646.556	1580.52
646.749	1549.8
646.942	1566.18
647.135	1490.41
647.328	1410.54
647.521	1453.55
647.714	1213.93
647.907	1293.8
648.099	1179.12
648.292	1293.8
648.485	1129.97
648.678	1052.14
648.871	1019.38
649.064	1023.47
649.256	910.83
649.449	835.06
649.642	790
649.835	841.2
650.027	777.72
650.22	853.49
650.413	773.62
650.605	802.29
650.798	683.51
650.991	583.16
651.183	785.91
651.376	703.99
651.568	663.03
651.761	599.54
651.954	644.6
652.146	640.5
652.339	622.07
652.531	638.45
652.724	484.86
652.916	484.86
653.109	357.88
653.301	474.62
653.494	472.57
653.686	443.9
653.879	546.3
654.071	482.81
654.263	357.88
654.456	382.46
654.648	482.81
654.84	441.85
655.033	359.93
655.225	484.86
655.417	314.88
655.61	437.75
655.802	413.18
655.994	437.75
656.186	251.39
656.379	376.31
656.571	343.55
656.763	321.02
656.955	329.21
657.148	245.24
657.34	409.08
657.532	253.44
657.724	202.24
657.916	251.39
658.108	323.07
658.3	349.69
658.492	263.68
658.684	187.9
658.876	329.21
659.068	232.96
659.26	136.7
659.452	198.14
659.644	267.77
659.836	429.56
660.028	226.81
660.22	196.09
660.412	183.81
660.604	187.9
660.796	265.72
660.988	265.72
661.18	243.2
661.372	265.72
661.563	194.05
661.755	235
661.947	116.22
662.139	128.51
662.331	183.81
662.522	87.55
662.714	153.09
662.906	169.47
663.097	136.7
663.289	171.52
663.481	34.3
663.673	202.24
663.864	157.18
664.056	247.29
664.247	144.89
664.439	271.87
664.631	220.67
664.822	118.27
665.014	142.85
665.205	56.83
665.397	71.17
665.588	130.56
665.78	138.75
665.971	198.14
666.163	73.21
666.354	171.52
666.546	87.55
666.737	212.48
666.929	60.93
667.12	112.13
667.311	212.48
667.503	187.9
667.694	163.33
667.885	187.9
668.077	251.39
668.268	83.45
668.459	114.17
668.651	151.04
668.842	183.81
669.033	44.54
669.224	83.45
669.416	372.22
669.607	122.37
669.798	112.13
669.989	173.57
670.18	132.61
670.371	187.9
670.563	58.88
670.754	187.9
670.945	200.19
671.136	247.29
671.327	71.17
671.518	251.39
671.709	232.96
671.9	122.37
672.091	187.9
672.282	169.47
672.473	165.37
672.664	132.61
672.855	99.84
673.046	228.86
673.237	208.38
673.428	89.6
673.619	192
673.809	116.22
674	216.57
674.191	214.52
674.382	161.28
674.573	105.98
674.764	118.27
674.954	263.68
675.145	108.03
675.336	97.79
675.527	189.95
675.717	91.65
675.908	161.28
676.099	148.99
676.289	206.33
676.48	50.69
676.671	173.57
676.861	99.84
677.052	216.57
677.243	95.74
677.433	138.75
677.624	275.96
677.814	175.61
678.005	112.13
678.195	251.39
678.386	146.94
678.576	185.85
678.767	58.88
678.957	122.37
679.148	261.63
679.338	265.72
679.529	224.76
679.719	91.65
679.909	265.72
680.1	241.15
680.29	196.09
680.481	89.6
680.671	361.98
680.861	144.89
681.052	138.75
681.242	132.61
681.432	202.24
681.622	167.42
681.813	99.84
682.003	171.52
682.193	204.28
682.383	212.48
682.573	177.66
682.764	210.43
682.954	224.76
683.144	290.3
683.334	187.9
683.524	216.57
683.714	267.77
683.904	222.72
684.094	302.59
684.284	255.48
684.474	333.31
684.664	265.72
684.854	202.24
685.044	210.43
685.234	126.46
685.424	237.05
685.614	253.44
685.804	325.12
685.994	222.72
686.184	101.89
686.374	257.53
686.564	228.86
686.753	216.57
686.943	124.41
687.133	202.24
687.323	257.53
687.513	294.4
687.702	194.05
687.892	155.13
688.082	384.51
688.272	302.59
688.461	245.24
688.651	286.2
688.841	257.53
689.03	163.33
689.22	249.34
689.41	304.64
689.599	280.06
689.789	91.65
689.979	370.17
690.168	169.47
690.358	357.88
690.547	243.2
690.737	228.86
690.926	249.34
691.116	284.16
691.305	286.2
691.495	237.05
691.684	218.62
691.874	171.52
692.063	245.24
692.252	269.82
692.442	415.23
692.631	165.37
692.82	222.72
693.01	189.95
693.199	228.86
693.388	290.3
693.578	298.49
693.767	296.44
693.956	306.68
694.146	226.81
694.335	249.34
694.524	282.11
694.713	271.87
694.902	177.66
695.092	183.81
695.281	294.4
695.47	198.14
695.659	206.33
695.848	275.96
696.037	232.96
696.226	255.48
696.415	183.81
696.604	372.22
696.793	249.34
696.982	192
697.171	376.31
697.36	202.24
697.549	222.72
697.738	60.93
697.927	179.71
698.116	243.2
698.305	337.4
698.494	304.64
698.683	200.19
698.872	384.51
699.061	241.15
699.25	165.37
699.438	228.86
699.627	169.47
699.816	263.68
700.005	134.65
700.193	210.43
700.382	282.11
700.571	261.63
700.76	271.87
700.948	257.53
701.137	275.96
701.326	192
701.514	101.89
701.703	280.06
701.892	222.72
702.08	351.74
702.269	255.48
702.457	128.51
702.646	280.06
702.834	153.09
703.023	243.2
703.212	253.44
703.4	212.48
703.589	159.23
703.777	167.42
703.965	134.65
704.154	185.85
704.342	122.37
704.531	278.01
704.719	192
704.907	296.44
705.096	142.85
705.284	259.58
705.472	206.33
705.661	302.59
705.849	230.91
706.037	304.64
706.226	259.58
706.414	314.88
706.602	159.23
706.79	243.2
706.979	200.19
707.167	247.29
707.355	136.7
707.543	249.34
707.731	259.58
707.919	222.72
708.107	263.68
708.296	97.79
708.484	169.47
708.672	212.48
708.86	271.87
709.048	323.07
709.236	261.63
709.424	220.67
709.612	208.38
709.8	91.65
709.988	265.72
710.176	267.77
710.364	216.57
710.551	278.01
710.739	185.85
710.927	185.85
711.115	208.38
711.303	255.48
711.491	296.44
711.679	99.84
711.866	316.92
712.054	245.24
712.242	183.81
712.43	294.4
712.617	112.13
712.805	251.39
712.993	306.68
713.181	148.99
713.368	267.77
713.556	280.06
713.744	85.5
713.931	417.27
714.119	304.64
714.306	155.13
714.494	222.72
714.682	200.19
714.869	165.37
715.057	216.57
715.244	83.45
715.432	269.82
715.619	216.57
715.807	189.95
715.994	245.24
716.182	294.4
716.369	310.78
716.556	259.58
716.744	155.13
716.931	146.94
717.119	335.35
717.306	192
717.493	318.97
717.681	222.72
717.868	232.96
718.055	382.46
718.242	230.91
718.43	222.72
718.617	218.62
718.804	296.44
718.991	318.97
719.179	284.16
719.366	222.72
719.553	280.06
719.74	245.24
719.927	284.16
720.114	247.29
720.301	222.72
720.488	132.61
720.676	235
720.863	310.78
721.05	433.66
721.237	263.68
721.424	314.88
721.611	288.25
721.798	140.8
721.985	263.68
722.172	202.24
722.358	212.48
722.545	413.18
722.732	224.76
722.919	325.12
723.106	298.49
723.293	290.3
723.48	286.2
723.667	288.25
723.853	304.64
724.04	347.64
724.227	269.82
724.414	253.44
724.6	314.88
724.787	288.25
724.974	478.71
725.161	331.26
725.347	243.2
725.534	259.58
725.72	302.59
725.907	333.31
726.094	337.4
726.28	294.4
726.467	275.96
726.653	239.1
726.84	409.08
727.027	433.66
727.213	245.24
727.4	177.66
727.586	333.31
727.773	376.31
727.959	316.92
728.145	265.72
728.332	288.25
728.518	269.82
728.705	331.26
728.891	359.93
729.077	345.59
729.264	153.09
729.45	292.35
729.636	341.5
729.823	306.68
730.009	435.71
730.195	351.74
730.382	308.73
730.568	253.44
730.754	271.87
730.94	247.29
731.126	269.82
731.313	343.55
731.499	267.77
731.685	343.55
731.871	341.5
732.057	425.47
732.243	390.65
732.429	361.98
732.615	431.61
732.801	306.68
732.987	300.54
733.173	325.12
733.359	269.82
733.545	312.83
733.731	312.83
733.917	368.12
734.103	380.41
734.289	312.83
734.475	316.92
734.661	400.89
734.847	382.46
735.033	304.64
735.219	376.31
735.404	364.03
735.59	261.63
735.776	304.64
735.962	329.21
736.148	351.74
736.333	372.22
736.519	353.79
736.705	331.26
736.89	327.16
737.076	323.07
737.262	347.64
737.447	300.54
737.633	271.87
737.819	386.55
738.004	282.11
738.19	300.54
738.375	312.83
738.561	488.95
738.747	232.96
738.932	280.06
739.118	499.19
739.303	364.03
739.489	292.35
739.674	304.64
739.859	347.64
740.045	314.88
740.23	353.79
740.416	198.14
740.601	327.16
740.786	335.35
740.972	345.59
741.157	251.39
741.342	206.33
741.528	194.05
741.713	357.88
741.898	212.48
742.084	370.17
742.269	271.87
742.454	429.56
742.639	351.74
742.824	226.81
743.01	429.56
743.195	458.23
743.38	296.44
743.565	275.96
743.75	347.64
743.935	347.64
744.12	439.8
744.305	263.68
744.49	316.92
744.675	323.07
744.86	323.07
745.045	318.97
745.23	286.2
745.415	304.64
745.6	413.18
745.785	349.69
745.97	361.98
746.155	380.41
746.34	441.85
746.525	298.49
746.71	427.51
746.895	216.57
747.079	271.87
747.264	255.48
747.449	392.7
747.634	402.94
747.819	302.59
748.003	294.4
748.188	212.48
748.373	372.22
748.557	359.93
748.742	345.59
748.927	265.72
749.111	243.2
749.296	310.78
749.481	263.68
749.665	331.26
749.85	218.62
750.034	298.49
750.219	396.79
750.404	253.44
750.588	294.4
750.773	235
750.957	286.2
751.141	271.87
751.326	278.01
751.51	185.85
751.695	192
751.879	183.81
752.064	398.84
752.248	280.06
752.432	462.33
752.617	339.45
752.801	331.26
752.985	284.16
753.17	312.83
753.354	251.39
753.538	314.88
753.722	245.24
753.907	224.76
754.091	216.57
754.275	269.82
754.459	214.52
754.643	194.05
754.828	253.44
755.012	241.15
755.196	175.61
755.38	321.02
755.564	216.57
755.748	222.72
755.932	284.16
756.116	261.63
756.3	245.24
756.484	214.52
756.668	294.4
756.852	73.21
757.036	155.13
757.22	220.67
757.404	81.41
757.588	232.96
757.772	239.1
757.956	218.62
758.14	314.88
758.323	155.13
758.507	263.68
758.691	179.71
758.875	269.82
759.059	212.48
759.242	228.86
759.426	173.57
759.61	171.52
759.794	134.65
759.977	243.2
760.161	349.69
760.345	298.49
760.528	273.92
760.712	275.96
760.895	235
761.079	261.63
761.263	159.23
761.446	120.32
761.63	126.46
761.813	241.15
761.997	67.07
762.18	177.66
762.364	200.19
762.547	52.74
762.731	134.65
762.914	187.9
763.098	142.85
763.281	151.04
763.464	157.18
763.648	230.91
763.831	171.52
764.015	136.7
764.198	235
764.381	134.65
764.564	128.51
764.748	208.38
764.931	134.65
765.114	118.27
765.297	228.86
765.481	97.79
765.664	198.14
765.847	146.94
766.03	239.1
766.213	87.55
766.397	144.89
766.58	19.97
766.763	179.71
766.946	157.18
767.129	116.22
767.312	65.02
767.495	77.31
767.678	5.63
767.861	163.33
768.044	179.71
768.227	54.78
768.41	169.47
768.593	183.81
768.776	103.93
768.959	91.65
769.142	161.28
769.324	52.74
769.507	142.85
769.69	126.46
769.873	155.13
770.056	286.2
770.239	85.5
770.421	146.94
770.604	165.37
770.787	69.12
770.97	155.13
771.152	85.5
771.335	202.24
771.518	93.69
771.7	161.28
771.883	267.77
772.066	60.93
772.248	169.47
772.431	192
772.613	165.37
772.796	5.63
772.978	187.9
773.161	232.96
773.343	146.94
773.526	52.74
773.708	22.02
773.891	67.07
774.073	165.37
774.256	42.5
774.438	251.39
774.621	134.65
774.803	159.23
774.985	97.79
775.168	134.65
775.35	73.21
775.532	60.93
775.715	60.93
775.897	181.76
776.079	97.79
776.261	101.89
776.444	71.17
776.626	99.84
776.808	148.99
776.99	48.64
777.173	85.5
777.355	134.65
777.537	79.36
777.719	112.13
777.901	75.26
778.083	65.02
778.265	60.93
778.447	163.33
778.629	120.32
778.811	214.52
778.993	118.27
779.175	198.14
779.357	85.5
779.539	17.92
779.721	67.07
779.903	138.75
780.085	112.13
780.267	26.11
780.449	83.45
780.631	134.65
780.812	173.57
780.994	103.93
781.176	-2.56
781.358	50.69
781.54	101.89
781.721	75.26
781.903	101.89
782.085	138.75
782.267	136.7
782.448	71.17
782.63	-10.75
782.812	130.56
782.993	77.31
783.175	220.67
783.357	-57.86
783.538	85.5
783.72	67.07
783.901	44.54
784.083	122.37
784.264	36.35
784.446	34.3
784.627	15.87
784.809	138.75
784.99	-74.24
785.172	189.95
785.353	79.36
785.535	13.82
785.716	50.69
785.897	-37.38
786.079	42.5
786.26	54.78
786.441	108.03
786.623	-76.29
786.804	-29.18
786.985	60.93
787.167	97.79
787.348	38.4
787.529	1.54
787.71	187.9
787.891	134.65
788.073	17.92
788.254	34.3
788.435	151.04
788.616	28.16
788.797	-16.9
788.978	-16.9
789.159	19.97
789.34	75.26
789.522	32.26
789.703	-16.9
789.884	93.69
790.065	46.59
790.246	198.14
790.427	83.45
790.607	120.32
790.788	62.98
790.969	60.93
791.15	120.32
791.331	19.97
791.512	-43.52
791.693	81.41
791.874	48.64
792.054	220.67
792.235	118.27
792.416	9.73
792.597	-45.57
792.778	77.31
792.958	99.84
793.139	99.84
793.32	46.59
793.5	-61.95
793.681	148.99
793.862	30.21
794.042	9.73
794.223	-92.67
794.404	-47.62
794.584	-39.42
794.765	19.97
794.945	26.11
795.126	118.27
795.306	81.41
795.487	67.07
795.667	-8.7
795.848	103.93
796.028	38.4
796.209	60.93
796.389	99.84
796.57	79.36
796.75	-86.53
796.93	17.92
797.111	-37.38
797.291	85.5
797.471	122.37
797.652	58.88
797.832	13.82
798.012	93.69
798.192	-45.57
798.373	-31.23
798.553	48.64
798.733	34.3
798.913	-6.66
799.093	3.58
799.274	62.98
799.454	95.74
799.634	54.78
799.814	130.56
799.994	83.45
800.174	140.8
800.354	5.63
800.534	-35.33
800.714	89.6
800.894	-57.86
801.074	-39.42
801.254	-10.75
801.434	136.7
801.614	-8.7
801.794	-129.53
801.974	1715.69
802.154	17.92
802.334	91.65
802.514	42.5
802.693	19.97
802.873	5.63
803.053	114.17
803.233	136.7
803.413	15.87
803.592	5.63
803.772	-16.9
803.952	48.64
804.131	-18.94
804.311	148.99
804.491	83.45
804.67	-12.8
804.85	-6.66
805.03	15.87
805.209	132.61
805.389	-25.09
805.568	9.73
805.748	-27.14
805.928	30.21
806.107	81.41
806.287	-2.56
806.466	46.59
806.646	-18.94
806.825	-0.51
807.004	-82.43
807.184	138.75
807.363	67.07
807.543	44.54
807.722	11.78
807.901	114.17
808.081	85.5
808.26	9.73
808.439	28.16
808.619	-14.85
808.798	19.97
808.977	-12.8
809.156	44.54
809.336	15.87
809.515	118.27
809.694	-27.14
809.873	62.98
810.052	54.78
810.231	124.41
810.411	93.69
810.59	83.45
810.769	7.68
810.948	58.88
811.127	-55.81
811.306	-70.14
811.485	60.93
811.664	167.42
811.843	-8.7
812.022	34.3
812.201	-41.47
812.38	-27.14
812.559	-90.62
812.737	114.17
812.916	-84.48
813.095	-10.75
813.274	89.6
813.453	77.31
813.632	73.21
813.811	114.17
813.989	-76.29
814.168	79.36
814.347	15.87
814.526	1.54
814.704	81.41
814.883	110.08
815.062	-61.95
815.24	148.99
815.419	1.54
815.598	65.02
815.776	-61.95
815.955	67.07
816.133	-61.95
816.312	-0.51
816.49	-0.51
816.669	105.98
816.847	11.78
817.026	81.41
817.204	52.74
817.383	17.92
817.561	7.68
817.74	60.93
817.918	62.98
818.097	-27.14
818.275	-2.56
818.453	71.17
818.632	44.54
818.81	-12.8
818.988	-0.51
819.167	-43.52
819.345	-31.23
819.523	48.64
819.701	3.58
819.879	132.61
820.058	9.73
820.236	17.92
820.414	-18.94
820.592	-27.14
820.77	36.35
820.948	-41.47
821.127	85.5
821.305	-37.38
821.483	-98.81
821.661	93.69
821.839	32.26
822.017	5.63
822.195	30.21
822.373	19.97
822.551	-25.09
822.729	89.6
822.907	48.64
823.085	11.78
823.262	34.3
823.44	-2.56
823.618	-53.76
823.796	-29.18
823.974	-18.94
824.152	-4.61
824.329	19.97
824.507	60.93
824.685	97.79
824.863	-8.7
825.04	32.26
825.218	65.02
825.396	-25.09
825.574	13.82
825.751	19.97
825.929	42.5
826.107	-70.14
826.284	-45.57
826.462	50.69
826.639	-55.81
826.817	-131.58
826.994	101.89
827.172	-10.75
827.349	132.61
827.527	9.73
827.704	-39.42
827.882	56.83
828.059	28.16
828.237	24.06
828.414	52.74
828.591	-35.33
828.769	60.93
828.946	1.54
829.124	97.79
829.301	89.6
829.478	65.02
829.655	101.89
829.833	52.74
830.01	-66.05
830.187	159.23
830.364	-18.94
830.542	-2.56
830.719	110.08
830.896	75.26
831.073	81.41
831.25	56.83
831.427	65.02
831.604	26.11
831.782	-53.76
831.959	-2.56
832.136	-18.94
832.313	-4.61
832.49	-70.14
832.667	36.35
832.844	-23.04
833.021	91.65
833.198	48.64
833.374	19.97
833.551	7.68
833.728	85.5
833.905	110.08
834.082	-102.91
834.259	46.59
834.436	83.45
834.612	-4.61
834.789	116.22
834.966	-23.04
835.143	-70.14
835.319	-74.24
835.496	99.84
835.673	48.64
835.85	24.06
836.026	95.74
836.203	101.89
836.38	-31.23
836.556	-31.23
836.733	-31.23
836.909	116.22
837.086	-8.7
837.262	-47.62
837.439	91.65
837.616	-20.99
837.792	-14.85
837.968	-45.57
838.145	-125.44
838.321	24.06
838.498	24.06
838.674	3.58
838.851	91.65
839.027	-16.9
839.203	15.87
839.38	-6.66
839.556	-47.62
839.732	71.17
839.909	17.92
840.085	36.35
840.261	-74.24
840.437	52.74
840.614	-0.51
840.79	81.41
840.966	30.21
841.142	19.97
841.318	-12.8
841.494	67.07
841.671	11.78
841.847	-29.18
842.023	-41.47
842.199	71.17
842.375	79.36
842.551	-102.91
842.727	-43.52
842.903	126.46
843.079	-8.7
843.255	124.41
843.431	-23.04
843.607	101.89
843.783	-80.38
843.959	126.46
844.134	-14.85
844.31	89.6
844.486	-23.04
844.662	-6.66
844.838	11.78
845.013	46.59
845.189	105.98
845.365	87.55
845.541	48.64
845.716	5.63
845.892	93.69
846.068	-41.47
846.244	-90.62
846.419	32.26
846.595	-6.66
846.77	11.78
846.946	91.65
847.122	-37.38
847.297	15.87
847.473	177.66
847.648	-61.95
847.824	15.87
847.999	-164.35
848.175	-20.99
848.35	26.11
848.526	73.21
848.701	50.69
848.876	22.02
849.052	42.5
849.227	19.97
849.403	-41.47
849.578	22.02
849.753	54.78
849.929	5.63
850.104	-4.61
850.279	38.4
850.454	-4.61
850.63	13.82
850.805	56.83
850.98	71.17
851.155	36.35
851.33	-4.61
851.505	-49.66
851.681	52.74
851.856	-43.52
852.031	97.79
852.206	-6.66
852.381	-64
852.556	9.73
852.731	13.82
852.906	3.58
853.081	36.35
853.256	65.02
853.431	-8.7
853.606	-70.14
853.781	-70.14
853.956	-78.33
854.131	-33.28
854.305	-49.66
854.48	-100.86
854.655	-94.72
854.83	-45.57
855.005	22.02
855.18	65.02
855.354	11.78
855.529	-2.56
855.704	-8.7
855.879	99.84
856.053	-0.51
856.228	28.16
856.403	-16.9
856.577	11.78
856.752	-33.28
856.926	1.54
857.101	54.78
857.276	-37.38
857.45	11.78
857.625	32.26
857.799	56.83
857.974	60.93
858.148	-154.11
858.323	36.35
858.497	11.78
858.672	-12.8
858.846	-55.81
859.02	44.54
859.195	-8.7
859.369	62.98
859.543	32.26
859.718	48.64
859.892	-10.75
860.066	36.35
860.241	-39.42
860.415	32.26
860.589	-23.04
860.763	-27.14
860.938	-86.53
861.112	58.88
861.286	-37.38
861.46	65.02
861.634	50.69
861.808	116.22
861.982	9.73
862.157	-137.73
862.331	-51.71
862.505	-53.76
862.679	-55.81
862.853	19.97
863.027	46.59
863.201	97.79
863.375	26.11
863.549	1.54
863.722	44.54
863.896	134.65
864.07	-55.81
864.244	48.64
864.418	97.79
864.592	-49.66
864.766	-43.52
864.939	28.16
865.113	-53.76
865.287	134.65
865.461	-14.85
865.634	-39.42
865.808	87.55
865.982	32.26
866.156	-37.38
866.329	-88.57
866.503	9.73
866.676	5.63
866.85	34.3
867.024	-51.71
867.197	-18.94
867.371	65.02
867.544	79.36
867.718	-64
867.891	134.65
868.065	-123.39
868.238	-12.8
868.412	116.22
868.585	44.54
868.759	13.82
868.932	3.58
869.105	-29.18
869.279	-43.52
869.452	-59.9
869.625	5.63
869.799	-18.94
869.972	-119.29
870.145	-53.76
870.319	105.98
870.492	1.54
870.665	7.68
870.838	-6.66
871.011	-102.91
871.185	3.58
871.358	7.68
871.531	65.02
871.704	-41.47
871.877	36.35
872.05	87.55
872.223	-31.23
872.396	38.4
872.569	26.11
872.742	-92.67
872.915	24.06
873.088	-27.14
873.261	-94.72
873.434	105.98
873.607	40.45
873.78	120.32
873.953	-61.95
874.126	30.21
874.299	93.69
874.471	-14.85
874.644	-8.7
874.817	-39.42
874.99	73.21
875.163	34.3
875.335	130.56
875.508	-33.28
875.681	138.75
875.853	-23.04
876.026	-78.33
876.199	81.41
876.371	3.58
876.544	1.54
876.717	3.58
876.889	-45.57
877.062	22.02
877.234	40.45
877.407	-47.62
877.579	-6.66
877.752	13.82
877.924	50.69
878.097	116.22
878.269	-31.23
878.442	28.16
878.614	44.54
878.786	73.21
878.959	-14.85
879.131	-33.28
879.303	-115.2
879.476	-68.09
879.648	28.16
879.82	26.11
879.993	-80.38
880.165	-14.85
880.337	-68.09
880.509	44.54
880.681	-102.91
880.854	-6.66
881.026	-4.61
881.198	132.61
881.37	46.59
881.542	-14.85
881.714	-29.18
881.886	-33.28
882.058	48.64
882.23	77.31
882.402	60.93
882.574	-16.9
882.746	50.69
882.918	83.45
883.09	52.74
883.262	15.87
883.434	-82.43
883.606	-82.43
883.778	-41.47
883.95	120.32
884.122	-8.7
884.293	62.98
884.465	99.84
884.637	103.93
884.809	1.54
884.98	-23.04
885.152	77.31
885.324	50.69
885.496	-61.95
885.667	-64
885.839	-8.7
886.011	75.26
886.182	32.26
886.354	48.64
886.525	15.87
886.697	91.65
886.869	-37.38
887.04	-45.57
887.212	175.61
887.383	175.61
887.555	-47.62
887.726	-59.9
887.897	28.16
888.069	-10.75
888.24	44.54
888.412	81.41
888.583	5.63
888.754	58.88
888.926	-76.29
889.097	-96.77
889.268	-72.19
889.44	36.35
889.611	-90.62
889.782	-76.29
889.953	-55.81
890.125	67.07
890.296	-31.23
890.467	-0.51
890.638	-16.9
890.809	-29.18
890.98	-6.66
891.151	17.92
891.323	83.45
891.494	67.07
891.665	54.78
891.836	3.58
892.007	9.73
892.178	36.35
892.349	32.26
892.52	7.68
892.691	7.68
892.862	-6.66
893.032	-82.43
893.203	42.5
893.374	30.21
893.545	97.79
893.716	-39.42
893.887	112.13
894.057	-6.66
894.228	-29.18
894.399	-2.56
894.57	69.12
894.74	7.68
894.911	69.12
895.082	30.21
895.253	-61.95
895.423	3.58
895.594	42.5
895.764	46.59
895.935	-80.38
896.106	67.07
896.276	-111.1
896.447	-2.56
896.617	-82.43
896.788	-53.76
896.958	-2.56
897.129	-57.86
897.299	-57.86
897.47	116.22
897.64	-14.85
897.81	60.93
897.981	13.82
898.151	-16.9
898.322	34.3
898.492	69.12
898.662	-57.86
898.832	1.54
899.003	-68.09
899.173	-37.38
899.343	-35.33
899.513	-72.19
