Data from USB4F104151__96__11-31-46-958.txt Node

Date: Wed Feb 26 11:31:46 EST 2025
User: louis
Spectrometer: USB4F10415
Trigger mode: 4
Integration Time (sec): 1.000000E-1
Scans to average: 1
Electric dark correction enabled: true
Nonlinearity correction enabled: false
Boxcar width: 0
XAxis mode: Wavelengths
Number of Pixels in Spectrum: 3648
>>>>>Begin Spectral Data<<<<<
178.204	-387.24
178.424	-387.24
178.644	-387.24
178.864	-428.2
179.084	-448.68
179.304	1.88
179.524	-16.55
179.744	-14.51
179.964	42.84
180.184	-41.13
180.404	75.6
180.624	18.26
180.844	-57.51
181.064	-92.33
181.283	51.03
181.503	-16.55
181.723	48.98
181.943	-53.42
182.163	163.67
182.383	46.93
182.602	28.5
182.822	73.56
183.042	20.31
183.262	-57.51
183.482	-28.84
183.701	42.84
183.921	1.88
184.141	-14.51
184.361	40.79
184.58	57.17
184.8	116.56
185.02	-39.08
185.239	59.22
185.459	83.8
185.679	83.8
185.898	-65.71
186.118	36.69
186.338	81.75
186.557	143.19
186.777	-75.95
186.997	30.55
187.216	65.36
187.436	165.71
187.655	55.12
187.875	139.09
188.095	106.32
188.314	42.84
188.534	116.56
188.753	-123.05
188.973	110.42
189.192	120.66
189.412	3.93
189.631	22.36
189.851	14.17
190.07	178
190.29	-53.42
190.509	51.03
190.729	38.74
190.948	155.47
191.168	253.78
191.387	106.32
191.607	-18.6
191.826	98.13
192.045	-14.51
192.265	26.45
192.484	75.6
192.704	16.21
192.923	-45.23
193.142	94.04
193.362	180.05
193.581	198.48
193.8	46.93
194.02	102.23
194.239	20.31
194.458	55.12
194.678	73.56
194.897	-2.22
195.116	71.51
195.335	26.45
195.555	79.7
195.774	32.6
195.993	98.13
196.212	-26.79
196.432	-47.27
196.651	91.99
196.87	24.4
197.089	253.78
197.308	10.07
197.528	12.12
197.747	-32.94
197.966	59.22
198.185	89.94
198.404	1.88
198.623	110.42
198.842	100.18
199.062	46.93
199.281	169.81
199.5	55.12
199.719	100.18
199.938	65.36
200.157	89.94
200.376	137.04
200.595	79.7
200.814	55.12
201.033	-18.6
201.252	159.57
201.471	61.27
201.69	55.12
201.909	-10.41
202.128	61.27
202.347	122.71
202.566	5.97
202.785	-65.71
203.004	38.74
203.223	302.93
203.442	-2.22
203.661	-90.28
203.879	-34.99
204.098	130.9
204.317	-98.47
204.536	51.03
204.755	22.36
204.974	104.28
205.193	26.45
205.411	120.66
205.63	100.18
205.849	38.74
206.068	-61.61
206.287	-30.89
206.505	114.52
206.724	14.17
206.943	24.4
207.162	-30.89
207.381	55.12
207.599	-12.46
207.818	26.45
208.037	-10.41
208.255	36.69
208.474	81.75
208.693	85.84
208.911	5.97
209.13	94.04
209.349	106.32
209.567	96.08
209.786	5.97
210.005	102.23
210.223	-4.27
210.442	-94.38
210.661	73.56
210.879	122.71
211.098	3.93
211.316	12.12
211.535	63.32
211.753	40.79
211.972	118.61
212.191	3.93
212.409	55.12
212.628	96.08
212.846	-18.6
213.065	38.74
213.283	79.7
213.502	67.41
213.72	-30.89
213.938	-6.31
214.157	36.69
214.375	55.12
214.594	32.6
214.812	5.97
215.031	-16.55
215.249	83.8
215.467	-12.46
215.686	26.45
215.904	-6.31
216.122	-39.08
216.341	159.57
216.559	18.26
216.778	194.39
216.996	124.76
217.214	24.4
217.432	18.26
217.651	-47.27
217.869	65.36
218.087	-8.36
218.306	53.08
218.524	104.28
218.742	-14.51
218.96	120.66
219.179	120.66
219.397	1.88
219.615	239.44
219.833	81.75
220.051	-22.7
220.27	180.05
220.488	110.42
220.706	53.08
220.924	-53.42
221.142	1.88
221.36	63.32
221.578	77.65
221.796	53.08
222.015	51.03
222.233	89.94
222.451	108.37
222.669	36.69
222.887	81.75
223.105	1.88
223.323	61.27
223.541	-45.23
223.759	116.56
223.977	114.52
224.195	206.67
224.413	81.75
224.631	40.79
224.849	118.61
225.067	214.87
225.285	24.4
225.503	-8.36
225.721	-67.75
225.939	67.41
226.157	14.17
226.375	186.19
226.592	-77.99
226.81	-20.65
227.028	108.37
227.246	81.75
227.464	122.71
227.682	155.47
227.9	59.22
228.117	63.32
228.335	120.66
228.553	20.31
228.771	-16.55
228.989	36.69
229.206	87.89
229.424	98.13
229.642	65.36
229.86	-45.23
230.077	102.23
230.295	59.22
230.513	171.86
230.731	10.07
230.948	141.14
231.166	231.25
231.384	14.17
231.601	-10.41
231.819	200.53
232.037	1.88
232.254	65.36
232.472	30.55
232.689	12.12
232.907	124.76
233.125	12.12
233.342	-6.31
233.56	-49.32
233.777	-6.31
233.995	51.03
234.213	91.99
234.43	89.94
234.648	55.12
234.865	71.51
235.083	38.74
235.3	61.27
235.518	38.74
235.735	130.9
235.953	30.55
236.17	102.23
236.388	-30.89
236.605	32.6
236.822	96.08
237.04	55.12
237.257	102.23
237.475	1.88
237.692	36.69
237.909	102.23
238.127	28.5
238.344	81.75
238.562	100.18
238.779	-34.99
238.996	-49.32
239.214	-4.27
239.431	71.51
239.648	10.07
239.865	139.09
240.083	118.61
240.3	-18.6
240.517	14.17
240.735	71.51
240.952	122.71
241.169	87.89
241.386	42.84
241.603	65.36
241.821	10.07
242.038	169.81
242.255	184.15
242.472	14.17
242.689	67.41
242.907	118.61
243.124	-8.36
243.341	24.4
243.558	14.17
243.775	-37.03
243.992	-65.71
244.209	34.64
244.426	118.61
244.643	53.08
244.86	112.47
245.078	46.93
245.295	48.98
245.512	10.07
245.729	-10.41
245.946	16.21
246.163	71.51
246.38	-32.94
246.597	51.03
246.814	1.88
247.031	44.88
247.248	75.6
247.464	48.98
247.681	44.88
247.898	5.97
248.115	36.69
248.332	-73.9
248.549	132.95
248.766	184.15
248.983	75.6
249.2	128.85
249.417	151.38
249.633	12.12
249.85	102.23
250.067	81.75
250.284	65.36
250.501	48.98
250.717	87.89
250.934	-6.31
251.151	1.88
251.368	-12.46
251.585	98.13
251.801	71.51
252.018	-100.52
252.235	126.8
252.451	-37.03
252.668	40.79
252.885	87.89
253.102	34.64
253.318	12.12
253.535	-18.6
253.752	3.93
253.968	8.02
254.185	-16.55
254.401	28.5
254.618	112.47
254.835	-53.42
255.051	110.42
255.268	-4.27
255.484	91.99
255.701	71.51
255.917	-24.75
256.134	-55.47
256.351	67.41
256.567	-86.19
256.784	102.23
257	-16.55
257.217	116.56
257.433	18.26
257.65	22.36
257.866	153.43
258.082	-26.79
258.299	22.36
258.515	42.84
258.732	-41.13
258.948	42.84
259.165	32.6
259.381	-94.38
259.597	182.1
259.814	-16.55
260.03	-10.41
260.246	18.26
260.463	178
260.679	141.14
260.895	104.28
261.112	-10.41
261.328	5.97
261.544	-47.27
261.761	206.67
261.977	-14.51
262.193	14.17
262.409	79.7
262.626	8.02
262.842	-20.65
263.058	42.84
263.274	91.99
263.49	69.46
263.707	98.13
263.923	53.08
264.139	-129.19
264.355	65.36
264.571	202.58
264.787	71.51
265.004	126.8
265.22	38.74
265.436	-63.66
265.652	51.03
265.868	36.69
266.084	-61.61
266.3	44.88
266.516	-20.65
266.732	16.21
266.948	28.5
267.164	-32.94
267.38	77.65
267.596	20.31
267.812	135
268.028	28.5
268.244	40.79
268.46	75.6
268.676	-18.6
268.892	57.17
269.108	-26.79
269.324	-10.41
269.54	-43.18
269.756	48.98
269.972	-2.22
270.188	8.02
270.403	-24.75
270.619	89.94
270.835	114.52
271.051	51.03
271.267	-10.41
271.483	28.5
271.698	106.32
271.914	69.46
272.13	128.85
272.346	22.36
272.562	44.88
272.777	143.19
272.993	14.17
273.209	24.4
273.425	102.23
273.64	-14.51
273.856	155.47
274.072	-14.51
274.287	-39.08
274.503	63.32
274.719	79.7
274.934	3.93
275.15	-26.79
275.366	110.42
275.581	32.6
275.797	18.26
276.012	63.32
276.228	14.17
276.444	67.41
276.659	48.98
276.875	-69.8
277.09	51.03
277.306	18.26
277.521	100.18
277.737	-12.46
277.952	132.95
278.168	65.36
278.383	100.18
278.599	22.36
278.814	28.5
279.03	-16.55
279.245	94.04
279.461	-12.46
279.676	98.13
279.892	-53.42
280.107	-82.09
280.322	-32.94
280.538	-8.36
280.753	-32.94
280.969	34.64
281.184	65.36
281.399	163.67
281.615	87.89
281.83	71.51
282.045	-32.94
282.26	-65.71
282.476	-28.84
282.691	73.56
282.906	77.65
283.122	55.12
283.337	-49.32
283.552	20.31
283.767	-41.13
283.983	71.51
284.198	36.69
284.413	130.9
284.628	-98.47
284.843	51.03
285.058	104.28
285.274	16.21
285.489	-71.85
285.704	96.08
285.919	22.36
286.134	-34.99
286.349	71.51
286.564	-8.36
286.779	61.27
286.995	57.17
287.21	16.21
287.425	63.32
287.64	-2.22
287.855	79.7
288.07	-45.23
288.285	57.17
288.5	141.14
288.715	100.18
288.93	-26.79
289.145	-67.75
289.36	114.52
289.575	-2.22
289.79	94.04
290.004	-24.75
290.219	83.8
290.434	-26.79
290.649	46.93
290.864	-55.47
291.079	-22.7
291.294	42.84
291.509	81.75
291.724	-75.95
291.938	12.12
292.153	42.84
292.368	-6.31
292.583	67.41
292.798	65.36
293.012	94.04
293.227	18.26
293.442	-57.51
293.657	69.46
293.871	110.42
294.086	42.84
294.301	180.05
294.516	171.86
294.73	91.99
294.945	40.79
295.16	20.31
295.374	137.04
295.589	116.56
295.804	32.6
296.018	96.08
296.233	94.04
296.447	46.93
296.662	-18.6
296.877	116.56
297.091	48.98
297.306	69.46
297.52	-43.18
297.735	36.69
297.949	10.07
298.164	48.98
298.378	73.56
298.593	-20.65
298.807	-34.99
299.022	63.32
299.236	85.84
299.451	53.08
299.665	28.5
299.88	3.93
300.094	38.74
300.309	28.5
300.523	16.21
300.737	16.21
300.952	42.84
301.166	22.36
301.381	3.93
301.595	30.55
301.809	-12.46
302.024	79.7
302.238	-20.65
302.452	100.18
302.667	67.41
302.881	147.28
303.095	73.56
303.309	1.88
303.524	-12.46
303.738	40.79
303.952	-69.8
304.166	59.22
304.381	-47.27
304.595	110.42
304.809	-20.65
305.023	34.64
305.237	-43.18
305.452	22.36
305.666	77.65
305.88	65.36
306.094	112.47
306.308	38.74
306.522	75.6
306.736	65.36
306.95	161.62
307.164	28.5
307.379	32.6
307.593	116.56
307.807	137.04
308.021	61.27
308.235	151.38
308.449	-47.27
308.663	32.6
308.877	249.68
309.091	-34.99
309.305	38.74
309.519	-43.18
309.733	124.76
309.947	-96.43
310.161	63.32
310.374	36.69
310.588	122.71
310.802	-14.51
311.016	-16.55
311.23	98.13
311.444	-24.75
311.658	26.45
311.872	36.69
312.085	67.41
312.299	53.08
312.513	69.46
312.727	81.75
312.941	-43.18
313.154	112.47
313.368	73.56
313.582	14.17
313.796	61.27
314.009	8.02
314.223	157.52
314.437	98.13
314.651	-0.17
314.864	-10.41
315.078	67.41
315.292	18.26
315.505	-0.17
315.719	139.09
315.933	104.28
316.146	-55.47
316.36	-28.84
316.573	143.19
316.787	75.6
317.001	67.41
317.214	16.21
317.428	1.88
317.641	-41.13
317.855	-16.55
318.068	12.12
318.282	63.32
318.495	280.4
318.709	153.43
318.922	89.94
319.136	221.01
319.349	135
319.563	-20.65
319.776	79.7
319.99	-75.95
320.203	106.32
320.417	20.31
320.63	106.32
320.843	57.17
321.057	28.5
321.27	44.88
321.483	157.52
321.697	108.37
321.91	44.88
322.124	24.4
322.337	104.28
322.55	18.26
322.763	14.17
322.977	67.41
323.19	-12.46
323.403	61.27
323.617	57.17
323.83	94.04
324.043	-6.31
324.256	-14.51
324.469	-51.37
324.683	114.52
324.896	75.6
325.109	34.64
325.322	-28.84
325.535	98.13
325.748	65.36
325.962	1.88
326.175	87.89
326.388	89.94
326.601	145.24
326.814	3.93
327.027	102.23
327.24	243.54
327.453	-32.94
327.666	108.37
327.879	200.53
328.092	61.27
328.305	128.85
328.518	-24.75
328.731	10.07
328.944	-8.36
329.157	79.7
329.37	65.36
329.583	100.18
329.796	100.18
330.009	46.93
330.222	85.84
330.435	122.71
330.648	94.04
330.861	42.84
331.073	24.4
331.286	139.09
331.499	67.41
331.712	-0.17
331.925	73.56
332.138	24.4
332.35	77.65
332.563	3.93
332.776	124.76
332.989	-96.43
333.202	18.26
333.414	24.4
333.627	57.17
333.84	-8.36
334.053	30.55
334.265	-12.46
334.478	96.08
334.691	75.6
334.903	24.4
335.116	14.17
335.329	-10.41
335.541	75.6
335.754	143.19
335.966	55.12
336.179	53.08
336.392	104.28
336.604	1.88
336.817	159.57
337.029	48.98
337.242	42.84
337.454	151.38
337.667	30.55
337.88	186.19
338.092	18.26
338.305	87.89
338.517	-63.66
338.729	161.62
338.942	175.95
339.154	-98.47
339.367	-82.09
339.579	32.6
339.792	-63.66
340.004	96.08
340.217	40.79
340.429	155.47
340.641	20.31
340.854	8.02
341.066	-2.22
341.278	143.19
341.491	102.23
341.703	8.02
341.915	-12.46
342.128	116.56
342.34	32.6
342.552	-98.47
342.764	44.88
342.977	-28.84
343.189	77.65
343.401	75.6
343.613	-55.47
343.826	59.22
344.038	-24.75
344.25	71.51
344.462	38.74
344.674	-18.6
344.886	30.55
345.099	87.89
345.311	59.22
345.523	20.31
345.735	12.12
345.947	38.74
346.159	73.56
346.371	48.98
346.583	8.02
346.795	204.63
347.007	96.08
347.219	40.79
347.431	24.4
347.643	79.7
347.855	32.6
348.067	171.86
348.279	-98.47
348.491	53.08
348.703	96.08
348.915	67.41
349.127	5.97
349.339	3.93
349.551	-18.6
349.763	77.65
349.975	91.99
350.187	87.89
350.399	163.67
350.61	91.99
350.822	-4.27
351.034	24.4
351.246	57.17
351.458	10.07
351.669	26.45
351.881	100.18
352.093	206.67
352.305	182.1
352.517	69.46
352.728	122.71
352.94	40.79
353.152	91.99
353.363	-92.33
353.575	106.32
353.787	182.1
353.999	122.71
354.21	151.38
354.422	3.93
354.633	-18.6
354.845	-47.27
355.057	63.32
355.268	40.79
355.48	141.14
355.692	3.93
355.903	85.84
356.115	-0.17
356.326	-116.9
356.538	157.52
356.749	63.32
356.961	87.89
357.172	42.84
357.384	-47.27
357.595	237.39
357.807	-37.03
358.018	-14.51
358.23	61.27
358.441	91.99
358.653	42.84
358.864	-6.31
359.075	-2.22
359.287	100.18
359.498	155.47
359.709	87.89
359.921	51.03
360.132	83.8
360.344	1.88
360.555	-37.03
360.766	18.26
360.977	-41.13
361.189	81.75
361.4	12.12
361.611	141.14
361.823	81.75
362.034	94.04
362.245	-88.23
362.456	-6.31
362.667	42.84
362.879	-47.27
363.09	51.03
363.301	135
363.512	108.37
363.723	8.02
363.935	34.64
364.146	42.84
364.357	30.55
364.568	14.17
364.779	-30.89
364.99	75.6
365.201	-2.22
365.412	143.19
365.623	-141.48
365.834	22.36
366.045	18.26
366.256	182.1
366.467	20.31
366.678	32.6
366.889	-20.65
367.1	-75.95
367.311	149.33
367.522	-43.18
367.733	59.22
367.944	87.89
368.155	65.36
368.366	69.46
368.577	102.23
368.788	98.13
368.999	14.17
369.209	-12.46
369.42	155.47
369.631	270.16
369.842	116.56
370.053	40.79
370.264	87.89
370.474	-65.71
370.685	48.98
370.896	36.69
371.107	128.85
371.317	46.93
371.528	59.22
371.739	91.99
371.95	102.23
372.16	98.13
372.371	-4.27
372.582	-20.65
372.792	69.46
373.003	40.79
373.214	8.02
373.424	122.71
373.635	28.5
373.846	149.33
374.056	32.6
374.267	-20.65
374.477	71.51
374.688	53.08
374.898	59.22
375.109	32.6
375.319	5.97
375.53	116.56
375.74	51.03
375.951	38.74
376.161	141.14
376.372	96.08
376.582	1.88
376.793	38.74
377.003	-28.84
377.214	48.98
377.424	124.76
377.635	63.32
377.845	102.23
378.055	116.56
378.266	-18.6
378.476	-51.37
378.686	-92.33
378.897	38.74
379.107	57.17
379.317	147.28
379.528	-26.79
379.738	139.09
379.948	-30.89
380.158	89.94
380.369	91.99
380.579	51.03
380.789	-12.46
380.999	77.65
381.21	73.56
381.42	157.52
381.63	28.5
381.84	87.89
382.05	112.47
382.261	94.04
382.471	59.22
382.681	-37.03
382.891	153.43
383.101	42.84
383.311	-57.51
383.521	-45.23
383.731	100.18
383.941	65.36
384.151	-14.51
384.361	110.42
384.571	57.17
384.781	46.93
384.991	249.68
385.201	188.24
385.411	73.56
385.621	77.65
385.831	26.45
386.041	48.98
386.251	-12.46
386.461	75.6
386.671	69.46
386.881	3.93
387.091	10.07
387.301	141.14
387.511	46.93
387.72	-2.22
387.93	85.84
388.14	-88.23
388.35	85.84
388.56	137.04
388.769	96.08
388.979	40.79
389.189	-43.18
389.399	26.45
389.609	51.03
389.818	116.56
390.028	61.27
390.238	126.8
390.447	-45.23
390.657	132.95
390.867	-22.7
391.076	-84.14
391.286	137.04
391.496	67.41
391.705	28.5
391.915	108.37
392.125	130.9
392.334	14.17
392.544	182.1
392.753	71.51
392.963	-96.43
393.172	-2.22
393.382	42.84
393.591	173.91
393.801	-37.03
394.01	155.47
394.22	94.04
394.429	32.6
394.639	5.97
394.848	108.37
395.058	24.4
395.267	73.56
395.477	83.8
395.686	104.28
395.895	229.2
396.105	204.63
396.314	32.6
396.524	20.31
396.733	28.5
396.942	122.71
397.152	46.93
397.361	100.18
397.57	114.52
397.78	-63.66
397.989	44.88
398.198	208.72
398.407	87.89
398.617	46.93
398.826	38.74
399.035	42.84
399.244	112.47
399.453	8.02
399.663	67.41
399.872	104.28
400.081	-4.27
400.29	184.15
400.499	-8.36
400.708	91.99
400.917	-28.84
401.127	53.08
401.336	30.55
401.545	245.59
401.754	130.9
401.963	67.41
402.172	-41.13
402.381	-127.14
402.59	59.22
402.799	51.03
403.008	51.03
403.217	51.03
403.426	114.52
403.635	-24.75
403.844	30.55
404.053	26.45
404.262	16.21
404.471	165.71
404.68	51.03
404.888	71.51
405.097	-4.27
405.306	100.18
405.515	59.22
405.724	67.41
405.933	132.95
406.142	73.56
406.35	143.19
406.559	63.32
406.768	96.08
406.977	223.06
407.185	20.31
407.394	89.94
407.603	-65.71
407.812	59.22
408.02	71.51
408.229	14.17
408.438	169.81
408.646	-45.23
408.855	96.08
409.064	145.24
409.272	30.55
409.481	120.66
409.69	14.17
409.898	-53.42
410.107	79.7
410.315	87.89
410.524	-4.27
410.733	67.41
410.941	100.18
411.15	42.84
411.358	89.94
411.567	178
411.775	-67.75
411.984	81.75
412.192	145.24
412.401	34.64
412.609	147.28
412.818	100.18
413.026	83.8
413.234	38.74
413.443	110.42
413.651	-26.79
413.86	18.26
414.068	124.76
414.276	151.38
414.485	-43.18
414.693	139.09
414.901	141.14
415.11	8.02
415.318	46.93
415.526	-10.41
415.734	135
415.943	75.6
416.151	149.33
416.359	48.98
416.567	65.36
416.776	67.41
416.984	96.08
417.192	165.71
417.4	85.84
417.608	-22.7
417.817	-41.13
418.025	91.99
418.233	184.15
418.441	-49.32
418.649	3.93
418.857	20.31
419.065	120.66
419.273	75.6
419.481	139.09
419.689	65.36
419.897	-0.17
420.105	-39.08
420.313	163.67
420.521	87.89
420.729	159.57
420.937	102.23
421.145	-0.17
421.353	202.58
421.561	188.24
421.769	-24.75
421.977	26.45
422.185	75.6
422.393	65.36
422.601	149.33
422.809	91.99
423.017	96.08
423.224	57.17
423.432	137.04
423.64	48.98
423.848	91.99
424.056	69.46
424.263	102.23
424.471	28.5
424.679	173.91
424.887	-8.36
425.094	165.71
425.302	73.56
425.51	14.17
425.718	149.33
425.925	149.33
426.133	-20.65
426.341	202.58
426.548	-63.66
426.756	16.21
426.964	110.42
427.171	42.84
427.379	163.67
427.586	98.13
427.794	112.47
428.001	137.04
428.209	104.28
428.417	198.48
428.624	173.91
428.832	112.47
429.039	94.04
429.247	110.42
429.454	149.33
429.662	223.06
429.869	114.52
430.076	169.81
430.284	122.71
430.491	274.26
430.699	194.39
430.906	298.83
431.114	118.61
431.321	110.42
431.528	94.04
431.736	167.76
431.943	124.76
432.15	218.96
432.358	214.87
432.565	268.11
432.772	24.4
432.979	178
433.187	141.14
433.394	182.1
433.601	157.52
433.808	216.91
434.016	235.35
434.223	206.67
434.43	163.67
434.637	294.74
434.844	266.07
435.052	255.83
435.259	358.22
435.466	259.92
435.673	264.02
435.88	257.87
436.087	345.94
436.294	411.47
436.501	362.32
436.708	307.02
436.915	280.4
437.122	413.52
437.329	245.59
437.537	304.98
437.743	397.14
437.95	479.05
438.157	358.22
438.364	372.56
438.571	438.09
438.778	409.42
438.985	436.05
439.192	548.68
439.399	407.38
439.606	421.71
439.813	563.02
440.02	540.49
440.227	661.32
440.433	620.36
440.64	554.83
440.847	542.54
441.054	649.04
441.261	704.33
441.467	683.85
441.674	616.27
441.881	700.23
442.088	778.06
442.294	819.02
442.501	874.31
442.708	767.82
442.914	821.06
443.121	941.89
443.328	870.22
443.534	1161.03
443.741	954.18
443.948	812.87
444.154	1072.96
444.361	1242.95
444.568	1118.02
444.774	1144.64
444.981	1103.68
445.187	1320.77
445.394	1296.19
445.6	1267.52
445.807	1408.83
446.013	1359.68
446.22	1290.05
446.426	1453.89
446.633	1668.92
446.839	1744.7
447.046	1578.81
447.252	1824.57
447.459	1675.07
447.665	1771.32
447.871	2002.74
448.078	2148.15
448.284	2174.77
448.491	2256.69
448.697	2264.88
448.903	2395.95
449.11	2352.95
449.316	2340.66
449.522	2600.75
449.728	2647.85
449.935	2776.87
450.141	2787.11
450.347	3057.45
450.553	2830.12
450.76	2903.85
450.966	3284.77
451.172	3254.05
451.378	3288.87
451.584	3395.36
451.791	3641.12
451.997	3741.47
452.203	3847.96
452.409	3954.46
452.615	4200.21
452.821	4167.45
453.027	4046.62
453.233	4691.73
453.44	4626.19
453.646	4693.77
453.852	5015.3
454.058	5209.86
454.264	5168.9
454.47	5609.22
454.676	5697.28
454.882	6246.13
455.088	5934.84
455.294	6309.62
455.5	6745.84
455.705	7272.17
455.911	7010.03
456.117	7370.47
456.323	7483.11
456.529	7552.74
456.735	8173.27
456.941	8287.96
457.147	8646.35
457.352	8908.49
457.558	9299.66
457.764	9686.72
457.97	10104.51
458.176	10405.56
458.381	11103.92
458.587	10958.51
458.793	11613.86
458.999	11673.25
459.204	13074.06
459.41	13647.49
459.616	13403.78
459.821	14376.57
460.027	14947.95
460.233	15631.97
460.438	15695.46
460.644	16637.53
460.85	16621.14
461.055	17120.85
461.261	18265.66
461.466	17700.42
461.672	18222.66
461.878	20176.42
462.083	19887.65
462.289	20491.8
462.494	21100.05
462.7	21526.03
462.905	21841.42
463.111	23422.45
463.316	24837.59
463.522	25105.88
463.727	25849.29
463.932	26840.51
464.138	27553.2
464.343	28814.75
464.549	29314.45
464.754	31077.76
464.959	31798.64
465.165	32341.35
465.37	31978.86
465.575	32025.96
465.781	34753.86
465.986	35077.44
466.191	34565.45
466.397	35306.81
466.602	34405.7
466.807	36242.73
467.012	36609.32
467.218	37424.41
467.423	37485.85
467.628	38798.6
467.833	40336.62
468.038	39955.7
468.244	39212.29
468.449	41151.71
468.654	40551.66
468.859	40238.32
469.064	40258.8
469.269	39443.71
469.474	39652.6
469.679	40778.98
469.885	39582.97
470.09	40393.96
470.295	40533.23
470.5	39300.35
470.705	39435.52
470.91	38696.2
471.115	38239.5
471.32	38337.8
471.525	39060.74
471.73	37629.21
471.935	37027.1
472.139	36173.1
472.344	35925.3
472.549	35814.71
472.754	34901.31
472.959	34417.99
473.164	33283.42
473.369	32796
473.574	33703.25
473.778	32466.28
473.983	31997.29
474.188	32066.92
474.393	30129.55
474.598	30053.77
474.802	29343.13
475.007	29130.14
475.212	28818.85
475.417	27465.14
475.621	27534.77
475.826	27551.15
476.031	26273.22
476.235	26054.09
476.44	25898.44
476.645	25023.96
476.849	25191.89
477.054	24618.46
477.259	23942.63
477.463	24057.32
477.668	23141.88
477.872	23254.51
478.077	22754.81
478.282	22027.78
478.486	22042.12
478.691	21458.45
478.895	21378.58
479.1	21573.13
479.304	21351.95
479.509	20485.66
479.713	20917.78
479.918	20522.52
480.122	19764.78
480.326	20037.16
480.531	20043.3
480.735	19668.52
480.94	19588.65
481.144	19977.76
481.348	19058.23
481.553	19293.74
481.757	18699.83
481.961	18763.32
482.166	19390
482.37	18671.16
482.574	18302.53
482.778	18093.63
482.983	18736.7
483.187	18167.36
483.391	17956.42
483.595	17708.62
483.8	17518.15
484.004	17567.31
484.208	17440.33
484.412	17512.01
484.616	16932.43
484.821	16901.72
485.025	16381.53
485.229	16580.18
485.433	16156.25
485.637	16010.85
485.841	15572.58
486.045	15773.28
486.249	15480.43
486.453	15249
486.657	15158.89
486.861	14777.97
487.065	14327.42
487.269	14229.12
487.473	13725.32
487.677	14034.56
487.881	13829.76
488.085	13409.93
488.289	13450.89
488.493	13016.72
488.697	12977.81
488.901	12627.6
489.105	12410.52
489.309	12205.72
489.512	12197.53
489.716	11679.4
489.92	11353.77
490.124	11499.17
490.328	11593.38
490.531	10911.41
490.735	10882.74
490.939	10667.7
491.143	10481.33
491.346	10434.23
491.55	10200.76
491.754	10237.63
491.958	9971.39
492.161	9676.48
492.365	9592.51
492.569	9557.7
492.772	9264.84
492.976	9238.22
493.18	8988.36
493.383	9191.11
493.587	8945.36
493.79	8853.2
493.994	8543.95
494.197	8689.36
494.401	8548.05
494.605	8314.58
494.808	8505.04
495.012	8537.81
495.215	8453.84
495.419	8406.74
495.622	8036.06
495.825	8044.25
496.029	7919.32
496.232	8242.9
496.436	7993.05
496.639	8036.06
496.843	7913.18
497.046	8064.73
497.249	8185.56
497.453	8249.05
497.656	8079.07
497.859	8199.9
498.063	8156.89
498.266	8333.01
498.469	7937.76
498.673	7888.6
498.876	8214.23
499.079	8328.92
499.282	7993.05
499.485	8531.67
499.689	8472.28
499.892	8548.05
500.095	8390.36
500.298	8658.64
500.501	8433.36
500.705	8744.66
500.908	8910.54
501.111	8871.63
501.314	9094.86
501.517	9027.28
501.72	9234.12
501.923	9219.78
502.126	9273.03
502.329	9686.72
502.532	9483.97
502.735	9653.95
502.938	9799.36
503.141	10094.27
503.344	9995.96
503.547	10090.17
503.75	10301.11
503.953	10493.62
504.156	10589.88
504.359	10704.56
504.562	10899.12
504.765	11327.14
504.968	11452.07
505.17	11388.58
505.373	11472.55
505.576	11904.67
505.779	12138.14
505.982	12115.61
506.185	12643.99
506.387	12543.64
506.59	12705.43
506.793	13268.62
506.996	13203.08
507.198	13739.65
507.401	14007.94
507.604	14098.05
507.807	14532.22
508.009	14710.39
508.212	15054.45
508.415	15152.75
508.617	15558.25
508.82	15756.9
509.022	16127.58
509.225	16641.62
509.428	16961.11
509.63	17110.61
509.833	17221.2
510.035	18298.43
510.238	18495.04
510.44	18388.54
510.643	19291.69
510.845	19680.81
511.048	20002.34
511.25	20383.26
511.453	20575.77
511.655	21878.28
511.858	21745.16
512.06	22185.47
512.262	22758.91
512.465	23086.58
512.667	23635.44
512.87	24376.8
513.072	24831.45
513.274	25755.08
513.477	26211.78
513.679	26944.95
513.881	27354.55
514.084	27903.4
514.286	28313
514.488	28976.54
514.69	30266.76
514.893	30309.77
515.095	31235.45
515.297	32134.51
515.499	32243.05
515.701	33183.07
515.904	33758.55
516.106	34078.03
516.308	35255.61
516.51	36103.47
516.712	36166.96
516.914	37096.74
517.116	38292.75
517.318	38429.96
517.52	39400.7
517.722	39828.73
517.925	40901.86
518.127	41850.07
518.329	42869.96
518.531	42507.47
518.733	43959.48
518.935	44461.23
519.136	44682.41
519.338	46175.38
519.54	46374.03
519.742	46828.68
519.944	47623.29
520.146	48901.23
520.348	49017.96
520.55	49654.88
520.752	50261.08
520.954	51240.01
521.155	51158.09
521.357	52452.4
521.559	52370.49
521.761	53613.6
521.963	53855.26
522.164	54324.25
522.366	54522.9
522.568	55426.06
522.77	55381
522.971	56732.66
523.173	56105.98
523.375	56581.11
523.576	56994.8
523.778	57058.29
523.98	57887.71
524.181	58014.69
524.383	57947.11
524.584	58788.82
524.786	58551.26
524.988	58338.27
525.189	59061.2
525.391	58934.23
525.592	59481.03
525.794	59020.24
525.995	58590.17
526.197	59257.81
526.398	59022.29
526.6	59233.23
526.801	58936.27
527.003	58637.27
527.204	58221.53
527.406	58844.12
527.607	58022.88
527.808	58268.64
528.01	57301.99
528.211	57740.26
528.412	57813.99
528.614	57121.77
528.815	57066.48
529.016	57123.82
529.218	55499.78
529.419	55917.57
529.62	55249.93
529.822	54443.03
530.023	54293.53
530.224	53873.7
530.425	53163.05
530.626	52714.54
530.828	51573.83
531.029	52272.18
531.23	51516.48
531.431	50736.21
531.632	50375.76
531.833	49761.37
532.035	49241.19
532.236	49095.78
532.437	48354.42
532.638	47369.35
532.839	46908.55
533.04	46744.72
533.241	45694.11
533.442	45683.87
533.643	44670.12
533.844	44227.76
534.045	44045.49
534.246	42718.41
534.447	42628.3
534.648	42020.05
534.849	41557.21
535.05	40692.97
535.251	40391.92
535.451	39949.56
535.652	39247.1
535.853	38526.22
536.054	38116.62
536.255	37907.73
536.456	37041.44
536.657	37270.81
536.857	35857.71
537.058	35818.8
537.259	35923.25
537.46	35206.46
537.66	34415.94
537.861	34182.48
538.062	33752.4
538.263	33310.04
538.463	32652.64
538.664	32402.79
538.865	32099.69
539.065	32161.13
539.266	31194.49
539.466	31096.19
539.667	30201.22
539.868	30580.1
540.068	29982.09
540.269	29369.75
540.469	29285.78
540.67	28943.77
540.87	28425.64
541.071	28214.69
541.271	27862.44
541.472	27798.96
541.672	27391.41
541.873	26736.06
542.073	26367.43
542.274	26473.92
542.474	26156.49
542.675	25411.03
542.875	25607.63
543.075	25380.31
543.276	24667.61
543.476	24983
543.676	24458.72
543.877	24280.55
544.077	23817.71
544.277	23477.74
544.478	23080.44
544.678	23574
544.878	22840.82
545.078	22638.08
545.279	22117.89
545.479	21917.19
545.679	21841.42
545.879	21605.9
546.079	21061.14
546.28	21003.8
546.48	20659.74
546.68	20917.78
546.88	20438.56
547.08	19842.6
547.28	19813.93
547.48	19469.87
547.68	19689
547.88	18964.02
548.081	19086.9
548.281	18497.08
548.481	18175.55
548.681	18560.57
548.881	18036.29
549.081	17780.29
549.28	17428.04
549.48	17339.98
549.68	17026.64
549.88	17206.86
550.08	16723.54
550.28	16459.35
550.48	16197.21
550.68	15943.27
550.88	15664.74
551.08	15517.29
551.279	15720.04
551.479	14706.29
551.679	15013.49
551.879	14276.22
552.079	14347.9
552.278	13856.39
552.478	14212.73
552.678	13971.07
552.878	13647.49
553.077	13371.02
553.277	13190.8
553.477	13272.71
553.676	13106.83
553.876	12852.88
554.076	12385.94
554.275	12207.77
554.475	11943.58
554.674	11941.54
554.874	11730.59
555.074	11484.84
555.273	11237.03
555.473	10905.26
555.672	10921.65
555.872	10892.98
556.071	10761.91
556.271	10634.93
556.47	10176.19
556.67	9995.96
556.869	9742.02
557.068	9647.81
557.268	9719.49
557.467	9520.84
557.667	9455.3
557.866	9184.97
558.065	8951.5
558.265	8793.81
558.464	8675.02
558.663	8591.06
558.863	8468.18
559.062	8242.9
559.261	8011.48
559.461	8089.31
559.66	7663.33
559.859	7831.26
560.058	7626.46
560.258	7589.6
560.457	7362.28
560.656	7614.18
560.855	7063.27
561.054	7290.6
561.253	6967.02
561.453	6821.61
561.652	6680.3
561.851	6663.92
562.05	6534.9
562.249	6166.26
562.448	6350.58
562.647	6244.09
562.846	6123.26
563.045	5928.7
563.244	5914.36
563.443	6072.06
563.642	5883.64
563.841	5766.91
564.04	5598.98
564.239	5467.91
564.438	5553.92
564.637	5277.44
564.836	5400.32
565.035	5218.05
565.234	5146.37
565.432	5097.22
565.631	5162.76
565.83	4876.04
566.029	4988.68
566.228	4822.8
566.427	4851.47
566.625	4550.42
566.824	4505.36
567.023	4603.66
567.222	4364.05
567.42	4519.7
567.619	4319
567.818	4331.28
568.016	4445.97
568.215	4155.16
568.414	4202.26
568.612	3991.32
568.811	3944.22
569.01	4026.14
569.208	3778.33
569.407	3749.66
569.605	3837.72
569.804	3692.32
570.002	3594.01
570.201	3698.46
570.4	3600.16
570.598	3512.1
570.797	3536.67
570.995	3430.18
571.193	3346.21
571.392	3297.06
571.59	3163.94
571.789	3196.71
571.987	3057.45
572.186	3178.28
572.384	2953
572.582	3012.39
572.781	3127.08
572.979	2864.94
573.177	2778.92
573.376	2778.92
573.574	2842.41
573.772	2746.16
573.971	2615.09
574.169	2656.04
574.367	2680.62
574.565	2553.65
574.763	2522.93
574.962	2361.14
575.16	2426.67
575.358	2367.28
575.556	2359.09
575.754	2297.65
575.952	2193.2
576.151	2228.02
576.349	2260.79
576.547	2191.16
576.745	2129.72
576.943	2113.33
577.141	1965.88
577.339	1949.5
577.537	1996.6
577.735	2070.33
577.933	1996.6
578.131	1830.71
578.329	2010.93
578.527	1984.31
578.725	1908.54
578.923	1759.03
579.121	1869.62
579.319	1742.65
579.516	1699.64
579.714	1980.22
579.912	1615.68
580.11	1566.53
580.308	1558.33
580.506	1570.62
580.704	1494.85
580.901	1500.99
581.099	1687.36
581.297	1472.32
581.495	1384.26
581.692	1371.97
581.89	1531.71
582.088	1478.46
582.285	1484.61
582.483	1359.68
582.681	1249.09
582.878	1427.26
583.076	1339.2
583.274	1386.3
583.471	1433.41
583.669	1218.37
583.866	1173.32
584.064	1142.6
584.262	1048.39
584.459	1105.73
584.657	1175.36
584.854	1218.37
585.052	1189.7
585.249	1212.23
585.447	1126.21
585.644	1017.67
585.841	1199.94
586.039	1101.64
586.236	1152.84
586.434	1165.12
586.631	964.42
586.828	1023.81
587.026	1025.86
587.223	962.37
587.42	900.94
587.618	1025.86
587.815	1023.81
588.012	980.81
588.21	845.64
588.407	1003.33
588.604	1034.05
588.801	823.11
588.999	915.27
589.196	902.98
589.393	874.31
589.59	753.48
589.787	900.94
589.984	943.94
590.182	845.64
590.379	782.15
590.576	853.83
590.773	769.87
590.97	837.45
591.167	845.64
591.364	919.37
591.561	829.26
591.758	902.98
591.955	857.93
592.152	831.3
592.349	810.82
592.546	755.53
592.743	771.91
592.94	714.57
593.137	862.02
593.334	884.55
593.531	841.54
593.727	882.5
593.924	902.98
594.121	769.87
594.318	786.25
594.515	864.07
594.712	954.18
594.908	825.16
595.105	804.68
595.302	886.6
595.499	913.22
595.696	1021.77
595.892	739.15
596.089	1040.2
596.286	962.37
596.482	1072.96
596.679	974.66
596.876	970.57
597.072	1072.96
597.269	1081.16
597.466	1054.53
597.662	1077.06
597.859	1101.64
598.055	1148.74
598.252	1236.8
598.448	1283.91
598.645	1351.49
598.841	1308.48
599.038	1406.78
599.234	1566.53
599.431	1421.12
599.627	1578.81
599.824	1685.31
600.02	1656.64
600.217	1707.84
600.413	1785.66
600.609	1951.54
600.806	1990.45
601.002	1992.5
601.198	1955.64
601.395	2109.24
601.591	2160.44
601.787	2379.57
601.984	2424.62
602.18	2520.88
602.376	2447.15
602.572	2574.13
602.769	2719.53
602.965	2719.53
603.161	2869.03
603.357	3106.6
603.553	3229.48
603.75	3149.61
603.946	3374.88
604.142	3569.44
604.338	3735.32
604.534	3544.86
604.73	3856.15
604.926	3893.02
605.122	4241.17
605.318	4151.06
605.514	4402.96
605.71	4372.24
605.906	4777.74
606.102	4597.52
606.298	4927.24
606.494	5195.53
606.69	5236.49
606.886	5424.9
607.082	5269.25
607.278	5566.21
607.474	5682.94
607.67	5990.14
607.866	5777.15
608.062	6387.44
608.257	6473.46
608.453	6563.57
608.649	6823.66
608.845	6995.69
609.041	7108.33
609.236	7417.57
609.432	7433.96
609.628	7636.7
609.824	8093.4
610.019	8183.51
610.215	8451.8
610.411	8621.78
610.606	8783.57
610.802	9043.66
610.998	9340.61
611.193	9522.88
611.389	9733.82
611.584	9936.57
611.78	10170.04
611.976	10442.42
612.171	11038.38
612.367	11267.75
612.562	11300.52
612.758	11407.02
612.953	11734.69
613.149	12211.87
613.344	12478.1
613.539	12838.55
613.735	13356.68
613.93	13723.27
614.126	13930.11
614.321	14435.96
614.517	14747.25
614.712	15171.18
614.907	15539.82
615.103	15976.03
615.298	16074.34
615.493	16674.39
615.688	16746.07
615.884	17643.08
616.079	17696.33
616.274	18693.69
616.47	18699.83
616.665	19183.15
616.86	19740.2
617.055	20293.15
617.25	20366.88
617.445	21487.12
617.641	21440.01
617.836	22400.51
618.031	22701.56
618.226	23440.88
618.421	23733.74
618.616	24360.42
618.811	24980.95
619.006	25552.34
619.201	25918.92
619.396	26789.31
619.591	26774.97
619.786	28042.67
619.981	28458.4
620.176	29293.97
620.371	29638.03
620.566	30162.31
620.761	30692.74
620.956	31616.37
621.151	31753.58
621.346	32634.21
621.541	33064.28
621.735	34366.79
621.93	34139.47
622.125	35341.63
622.32	35403.07
622.515	36312.36
622.709	36857.12
622.904	37463.32
623.099	38876.42
623.294	39230.72
623.488	39531.77
623.683	40424.68
623.878	40594.67
624.072	41762.01
624.267	42028.24
624.462	43039.94
624.656	43123.91
624.851	44156.08
625.046	44571.82
625.24	45247.65
625.435	45614.24
625.629	46521.49
625.824	47205.51
626.018	47535.23
626.213	47383.68
626.407	49144.94
626.602	48704.62
626.796	49794.14
626.991	50130.01
627.185	50461.78
627.38	50541.65
627.574	51129.42
627.768	51010.63
627.963	51479.62
628.157	51061.83
628.352	51936.32
628.546	51358.79
628.74	52370.49
628.935	51758.14
629.129	51602.5
629.323	51201.1
629.517	51487.81
629.712	50867.28
629.906	50474.07
630.1	49577.06
630.294	49749.09
630.489	48954.47
630.683	48379
630.877	47305.86
631.071	46857.35
631.265	45927.58
631.459	45429.92
631.653	44403.89
631.848	43506.88
632.042	42255.57
632.236	41475.29
632.43	39957.75
632.624	39570.68
632.818	37956.88
633.012	36494.63
633.206	35638.58
633.4	34813.25
633.594	33365.34
633.788	32654.69
633.982	31438.2
634.176	30274.95
634.369	28986.78
634.563	28196.26
634.757	26748.35
634.951	25963.98
635.145	25054.68
635.339	24155.62
635.533	22922.74
635.726	22320.64
635.92	20985.37
636.114	20407.84
636.308	19390
636.501	18976.31
636.695	18034.24
636.889	17301.07
637.083	16373.34
637.276	15969.89
637.47	15115.89
637.664	14704.24
637.857	13938.3
638.051	13653.64
638.244	13065.87
638.438	12439.19
638.632	12146.33
638.825	11404.97
639.019	11228.84
639.212	10682.03
639.406	10254.01
639.599	9795.26
639.793	9453.25
639.986	8943.31
640.18	8703.7
640.373	8470.23
640.567	7917.28
640.76	7896.8
640.954	7294.69
641.147	7118.57
641.34	6788.85
641.534	6721.26
641.727	6493.94
641.92	6035.19
642.114	5902.08
642.307	5646.08
642.5	5541.63
642.694	5242.63
642.887	4951.82
643.08	4986.63
643.273	4876.04
643.467	4488.98
643.66	4157.21
643.853	4056.86
644.046	3942.17
644.239	3893.02
644.432	3608.35
644.626	3313.44
644.819	3383.07
645.012	3276.58
645.205	3125.03
645.398	3176.23
645.591	2967.34
645.784	2731.82
645.977	2711.34
646.17	2615.09
646.363	2715.44
646.556	2289.46
646.749	2271.03
646.942	2221.88
647.135	2254.64
647.328	1974.07
647.521	2055.99
647.714	1969.98
647.907	1933.11
648.099	1728.31
648.292	1783.61
648.485	1664.83
648.678	1535.81
648.871	1513.28
649.064	1517.37
649.256	1390.4
649.449	1259.33
649.642	1208.13
649.835	1353.54
650.027	991.05
650.22	1314.63
650.413	1148.74
650.605	1087.3
650.798	993.09
650.991	1003.33
651.183	1011.53
651.376	995.14
651.568	966.47
651.761	884.55
651.954	913.22
652.146	767.82
652.339	864.07
652.531	878.41
652.724	667.47
652.916	661.32
653.109	630.6
653.301	829.26
653.494	790.35
653.686	638.8
653.879	720.71
654.071	677.71
654.263	479.05
654.456	593.74
654.648	755.53
654.84	601.93
655.033	579.4
655.225	661.32
655.417	472.91
655.61	618.32
655.802	462.67
655.994	603.98
656.186	405.33
656.379	565.07
656.571	405.33
656.763	419.66
656.955	436.05
657.148	468.81
657.34	532.3
657.532	378.7
657.724	415.57
657.916	382.8
658.108	425.81
658.3	362.32
658.492	452.43
658.684	284.5
658.876	405.33
659.068	286.54
659.26	167.76
659.452	278.35
659.644	302.93
659.836	493.39
660.028	386.9
660.22	309.07
660.412	309.07
660.604	331.6
660.796	280.4
660.988	372.56
661.18	249.68
661.372	345.94
661.563	270.16
661.755	198.48
661.947	241.49
662.139	204.63
662.331	192.34
662.522	290.64
662.714	229.2
662.906	202.58
663.097	235.35
663.289	114.52
663.481	161.62
663.673	235.35
663.864	155.47
664.056	243.54
664.247	173.91
664.439	298.83
664.631	182.1
664.822	257.87
665.014	173.91
665.205	204.63
665.397	216.91
665.588	155.47
665.78	229.2
665.971	208.72
666.163	100.18
666.354	161.62
666.546	116.56
666.737	155.47
666.929	128.85
667.12	73.56
667.311	171.86
667.503	223.06
667.694	180.05
667.885	194.39
668.077	212.82
668.268	46.93
668.459	186.19
668.651	229.2
668.842	141.14
669.033	184.15
669.224	147.28
669.416	335.7
669.607	208.72
669.798	61.27
669.989	196.43
670.18	165.71
670.371	227.15
670.563	48.98
670.754	286.54
670.945	163.67
671.136	218.96
671.327	157.52
671.518	288.59
671.709	294.74
671.9	171.86
672.091	196.43
672.282	149.33
672.473	155.47
672.664	104.28
672.855	182.1
673.046	245.59
673.237	233.3
673.428	159.57
673.619	214.87
673.809	200.53
674	286.54
674.191	218.96
674.382	159.57
674.573	194.39
674.764	200.53
674.954	296.78
675.145	100.18
675.336	120.66
675.527	175.95
675.717	145.24
675.908	231.25
676.099	89.94
676.289	198.48
676.48	100.18
676.671	163.67
676.861	122.71
677.052	278.35
677.243	218.96
677.433	112.47
677.624	274.26
677.814	257.87
678.005	194.39
678.195	288.59
678.386	120.66
678.576	147.28
678.767	157.52
678.957	229.2
679.148	255.83
679.338	405.33
679.529	212.82
679.719	204.63
679.909	235.35
680.1	325.46
680.29	245.59
680.481	147.28
680.671	337.74
680.861	257.87
681.052	304.98
681.242	229.2
681.432	325.46
681.622	319.31
681.813	145.24
682.003	366.42
682.193	204.63
682.383	315.22
682.573	169.81
682.764	249.68
682.954	337.74
683.144	337.74
683.334	255.83
683.524	225.11
683.714	225.11
683.904	259.92
684.094	223.06
684.284	323.41
684.474	300.88
684.664	380.75
684.854	294.74
685.044	286.54
685.234	343.89
685.424	255.83
685.614	206.67
685.804	366.42
685.994	278.35
686.184	208.72
686.374	329.55
686.564	284.5
686.753	257.87
686.943	241.49
687.133	270.16
687.323	317.26
687.513	307.02
687.702	360.27
687.892	253.78
688.082	401.23
688.272	368.46
688.461	317.26
688.651	434
688.841	354.13
689.03	237.39
689.22	259.92
689.41	352.08
689.599	380.75
689.789	231.25
689.979	458.57
690.168	304.98
690.358	352.08
690.547	317.26
690.737	333.65
690.926	331.6
691.116	288.59
691.305	341.84
691.495	427.85
691.684	243.54
691.874	241.49
692.063	302.93
692.252	364.37
692.442	356.18
692.631	284.5
692.82	280.4
693.01	261.97
693.199	270.16
693.388	304.98
693.578	356.18
693.767	370.51
693.956	317.26
694.146	261.97
694.335	339.79
694.524	212.82
694.713	300.88
694.902	284.5
695.092	323.41
695.281	292.69
695.47	317.26
695.659	245.59
695.848	300.88
696.037	208.72
696.226	376.66
696.415	247.63
696.604	397.14
696.793	335.7
696.982	247.63
697.171	421.71
697.36	259.92
697.549	272.21
697.738	204.63
697.927	237.39
698.116	206.67
698.305	325.46
698.494	317.26
698.683	276.31
698.872	464.72
699.061	274.26
699.25	249.68
699.438	268.11
699.627	321.36
699.816	509.77
700.005	167.76
700.193	294.74
700.382	370.51
700.571	243.54
700.76	403.28
700.948	393.04
701.137	360.27
701.326	358.22
701.514	284.5
701.703	329.55
701.892	292.69
702.08	474.96
702.269	249.68
702.457	251.73
702.646	417.61
702.834	245.59
703.023	345.94
703.212	431.95
703.4	225.11
703.589	270.16
703.777	296.78
703.965	208.72
704.154	292.69
704.342	276.31
704.531	288.59
704.719	370.51
704.907	417.61
705.096	266.07
705.284	280.4
705.472	276.31
705.661	333.65
705.849	315.22
706.037	358.22
706.226	343.89
706.414	345.94
706.602	335.7
706.79	370.51
706.979	255.83
707.167	350.03
707.355	132.95
707.543	325.46
707.731	327.5
707.919	270.16
708.107	345.94
708.296	206.67
708.484	227.15
708.672	354.13
708.86	339.79
709.048	286.54
709.236	259.92
709.424	286.54
709.612	296.78
709.8	253.78
709.988	278.35
710.176	378.7
710.364	423.76
710.551	264.02
710.739	298.83
710.927	313.17
711.115	307.02
711.303	302.93
711.491	368.46
711.679	259.92
711.866	331.6
712.054	239.44
712.242	284.5
712.43	352.08
712.617	288.59
712.805	347.98
712.993	364.37
713.181	253.78
713.368	388.94
713.556	350.03
713.744	276.31
713.931	419.66
714.119	284.5
714.306	300.88
714.494	159.57
714.682	329.55
714.869	237.39
715.057	247.63
715.244	237.39
715.432	321.36
715.619	292.69
715.807	288.59
715.994	261.97
716.182	286.54
716.369	323.41
716.556	368.46
716.744	196.43
716.931	241.49
717.119	350.03
717.306	354.13
717.493	343.89
717.681	257.87
717.868	298.83
718.055	313.17
718.242	290.64
718.43	395.09
718.617	378.7
718.804	323.41
718.991	397.14
719.179	419.66
719.366	309.07
719.553	317.26
719.74	272.21
719.927	341.84
720.114	309.07
720.301	313.17
720.488	268.11
720.676	270.16
720.863	429.9
721.05	417.61
721.237	325.46
721.424	405.33
721.611	272.21
721.798	272.21
721.985	317.26
722.172	380.75
722.358	237.39
722.545	319.31
722.732	436.05
722.919	431.95
723.106	366.42
723.293	313.17
723.48	440.14
723.667	298.83
723.853	374.61
724.04	450.38
724.227	474.96
724.414	311.12
724.6	436.05
724.787	499.53
724.974	456.53
725.161	376.66
725.347	278.35
725.534	319.31
725.72	393.04
725.907	454.48
726.094	409.42
726.28	286.54
726.467	438.09
726.653	274.26
726.84	474.96
727.027	417.61
727.213	374.61
727.4	411.47
727.586	464.72
727.773	329.55
727.959	321.36
728.145	337.74
728.332	253.78
728.518	247.63
728.705	448.33
728.891	417.61
729.077	393.04
729.264	331.6
729.45	315.22
729.636	452.43
729.823	382.8
730.009	438.09
730.195	446.29
730.382	407.38
730.568	313.17
730.754	374.61
730.94	431.95
731.126	354.13
731.313	438.09
731.499	374.61
731.685	423.76
731.871	374.61
732.057	399.18
732.243	376.66
732.429	390.99
732.615	409.42
732.801	491.34
732.987	403.28
733.173	395.09
733.359	395.09
733.545	370.51
733.731	466.77
733.917	554.83
734.103	429.9
734.289	403.28
734.475	468.81
734.661	552.78
734.847	388.94
735.033	485.2
735.219	509.77
735.404	378.7
735.59	345.94
735.776	384.85
735.962	423.76
736.148	468.81
736.333	425.81
736.519	403.28
736.705	423.76
736.89	419.66
737.076	403.28
737.262	290.64
737.447	390.99
737.633	423.76
737.819	472.91
738.004	454.48
738.19	472.91
738.375	499.53
738.561	446.29
738.747	427.85
738.932	347.98
739.118	536.4
739.303	509.77
739.489	384.85
739.674	350.03
739.859	372.56
740.045	548.68
740.23	423.76
740.416	288.59
740.601	479.05
740.786	485.2
740.972	347.98
741.157	417.61
741.342	388.94
741.528	374.61
741.713	558.92
741.898	434
742.084	423.76
742.269	403.28
742.454	382.8
742.639	487.25
742.824	341.84
743.01	493.39
743.195	530.25
743.38	462.67
743.565	397.14
743.75	474.96
743.935	427.85
744.12	493.39
744.305	345.94
744.49	460.62
744.675	317.26
744.86	434
745.045	415.57
745.23	384.85
745.415	370.51
745.6	581.45
745.785	360.27
745.97	489.29
746.155	429.9
746.34	503.63
746.525	431.95
746.71	524.11
746.895	309.07
747.079	315.22
747.264	390.99
747.449	390.99
747.634	352.08
747.819	364.37
748.003	319.31
748.188	339.79
748.373	343.89
748.557	417.61
748.742	331.6
748.927	302.93
749.111	276.31
749.296	372.56
749.481	411.47
749.665	372.56
749.85	317.26
750.034	405.33
750.219	413.52
750.404	345.94
750.588	294.74
750.773	388.94
750.957	382.8
751.141	315.22
751.326	393.04
751.51	241.49
751.695	286.54
751.879	378.7
752.064	417.61
752.248	241.49
752.432	434
752.617	335.7
752.801	370.51
752.985	292.69
753.17	415.57
753.354	270.16
753.538	358.22
753.722	341.84
753.907	360.27
754.091	239.44
754.275	354.13
754.459	184.15
754.643	182.1
754.828	362.32
755.012	272.21
755.196	130.9
755.38	327.5
755.564	261.97
755.748	241.49
755.932	300.88
756.116	178
756.3	302.93
756.484	282.45
756.668	278.35
756.852	212.82
757.036	225.11
757.22	259.92
757.404	212.82
757.588	155.47
757.772	329.55
757.956	216.91
758.14	347.98
758.323	206.67
758.507	264.02
758.691	253.78
758.875	245.59
759.059	323.41
759.242	186.19
759.426	257.87
759.61	184.15
759.794	155.47
759.977	294.74
760.161	434
760.345	407.38
760.528	304.98
760.712	278.35
760.895	268.11
761.079	280.4
761.263	184.15
761.446	171.86
761.63	202.58
761.813	280.4
761.997	143.19
762.18	182.1
762.364	202.58
762.547	110.42
762.731	192.34
762.914	206.67
763.098	239.44
763.281	145.24
763.464	163.67
763.648	268.11
763.831	137.04
764.015	149.33
764.198	261.97
764.381	96.08
764.564	216.91
764.748	186.19
764.931	284.5
765.114	165.71
765.297	206.67
765.481	110.42
765.664	139.09
765.847	192.34
766.03	307.02
766.213	100.18
766.397	161.62
766.58	65.36
766.763	218.96
766.946	96.08
767.129	71.51
767.312	63.32
767.495	192.34
767.678	122.71
767.861	204.63
768.044	186.19
768.227	67.41
768.41	165.71
768.593	139.09
768.776	124.76
768.959	173.91
769.142	214.87
769.324	112.47
769.507	233.3
769.69	171.86
769.873	137.04
770.056	343.89
770.239	116.56
770.421	173.91
770.604	153.43
770.787	96.08
770.97	227.15
771.152	149.33
771.335	175.95
771.518	63.32
771.7	163.67
771.883	145.24
772.066	171.86
772.248	155.47
772.431	212.82
772.613	169.81
772.796	108.37
772.978	198.48
773.161	264.02
773.343	98.13
773.526	104.28
773.708	75.6
773.891	38.74
774.073	173.91
774.256	114.52
774.438	284.5
774.621	79.7
774.803	175.95
774.985	89.94
775.168	233.3
775.35	124.76
775.532	159.57
775.715	81.75
775.897	151.38
776.079	147.28
776.261	135
776.444	153.43
776.626	69.46
776.808	81.75
776.99	-24.75
777.173	141.14
777.355	75.6
777.537	106.32
777.719	102.23
777.901	40.79
778.083	81.75
778.265	-22.7
778.447	157.52
778.629	83.8
778.811	61.27
778.993	110.42
779.175	155.47
779.357	108.37
779.539	48.98
779.721	100.18
779.903	163.67
780.085	40.79
780.267	128.85
780.449	3.93
780.631	112.47
780.812	151.38
780.994	83.8
781.176	24.4
781.358	114.52
781.54	67.41
781.721	165.71
781.903	159.57
782.085	81.75
782.267	135
782.448	-37.03
782.63	77.65
782.812	102.23
782.993	132.95
783.175	182.1
783.357	149.33
783.538	77.65
783.72	89.94
783.901	36.69
784.083	53.08
784.264	120.66
784.446	-2.22
784.627	-37.03
784.809	124.76
784.99	5.97
785.172	46.93
785.353	163.67
785.535	100.18
785.716	79.7
785.897	-12.46
786.079	10.07
786.26	51.03
786.441	114.52
786.623	-92.33
786.804	16.21
786.985	110.42
787.167	63.32
787.348	44.88
787.529	65.36
787.71	116.56
787.891	122.71
788.073	24.4
788.254	-2.22
788.435	212.82
788.616	51.03
788.797	34.64
788.978	53.08
789.159	1.88
789.34	153.43
789.522	22.36
789.703	-51.37
789.884	87.89
790.065	96.08
790.246	239.44
790.427	114.52
790.607	126.8
790.788	155.47
790.969	28.5
791.15	42.84
791.331	-4.27
791.512	22.36
791.693	22.36
791.874	8.02
792.054	151.38
792.235	180.05
792.416	-61.61
792.597	34.64
792.778	26.45
792.958	48.98
793.139	55.12
793.32	116.56
793.5	-98.47
793.681	137.04
793.862	108.37
794.042	14.17
794.223	-82.09
794.404	32.6
794.584	-16.55
794.765	75.6
794.945	-39.08
795.126	69.46
795.306	59.22
795.487	-55.47
795.667	1.88
795.848	67.41
796.028	38.74
796.209	10.07
796.389	122.71
796.57	1.88
796.75	-8.36
796.93	63.32
797.111	-80.04
797.291	-6.31
797.471	114.52
797.652	12.12
797.832	1.88
798.012	71.51
798.192	34.64
798.373	-80.04
798.553	1.88
798.733	1.88
798.913	-41.13
799.093	81.75
799.274	73.56
799.454	63.32
799.634	48.98
799.814	32.6
799.994	-18.6
800.174	79.7
800.354	40.79
800.534	-65.71
800.714	75.6
800.894	-73.9
801.074	-80.04
801.254	-43.18
801.434	124.76
801.614	-32.94
801.794	-51.37
801.974	1619.77
802.154	36.69
802.334	55.12
802.514	-65.71
802.693	46.93
802.873	20.31
803.053	153.43
803.233	53.08
803.413	-16.55
803.592	20.31
803.772	-16.55
803.952	91.99
804.131	-2.22
804.311	83.8
804.491	40.79
804.67	-12.46
804.85	-24.75
805.03	81.75
805.209	212.82
805.389	34.64
805.568	30.55
805.748	5.97
805.928	94.04
806.107	91.99
806.287	67.41
806.466	30.55
806.646	-18.6
806.825	-41.13
807.004	10.07
807.184	55.12
807.363	87.89
807.543	20.31
807.722	46.93
807.901	102.23
808.081	98.13
808.26	-98.47
808.439	61.27
808.619	3.93
808.798	-8.36
808.977	-2.22
809.156	112.47
809.336	55.12
809.515	57.17
809.694	18.26
809.873	77.65
810.052	83.8
810.231	124.76
810.411	16.21
810.59	110.42
810.769	-10.41
810.948	65.36
811.127	-73.9
811.306	-26.79
811.485	18.26
811.664	106.32
811.843	20.31
812.022	57.17
812.201	-0.17
812.38	24.4
812.559	-135.34
812.737	28.5
812.916	-127.14
813.095	-59.56
813.274	61.27
813.453	114.52
813.632	32.6
813.811	81.75
813.989	-80.04
814.168	10.07
814.347	-131.24
814.526	1.88
814.704	145.24
814.883	36.69
815.062	-30.89
815.24	71.51
815.419	-22.7
815.598	5.97
815.776	-149.67
815.955	3.93
816.133	-110.76
816.312	91.99
816.49	-47.27
816.669	57.17
816.847	-28.84
817.026	51.03
817.204	44.88
817.383	-2.22
817.561	-16.55
817.74	151.38
817.918	34.64
818.097	-22.7
818.275	-6.31
818.453	42.84
818.632	104.28
818.81	32.6
818.988	-47.27
819.167	12.12
819.345	-16.55
819.523	30.55
819.701	32.6
819.879	108.37
820.058	-0.17
820.236	57.17
820.414	-16.55
820.592	18.26
820.77	-67.75
820.948	-14.51
821.127	-22.7
821.305	55.12
821.483	-67.75
821.661	118.61
821.839	30.55
822.017	-18.6
822.195	-94.38
822.373	120.66
822.551	38.74
822.729	3.93
822.907	-106.67
823.085	108.37
823.262	26.45
823.44	-49.32
823.618	3.93
823.796	20.31
823.974	59.22
824.152	-43.18
824.329	-45.23
824.507	-26.79
824.685	71.51
824.863	-6.31
825.04	53.08
825.218	22.36
825.396	5.97
825.574	18.26
825.751	30.55
825.929	-0.17
826.107	-57.51
826.284	-0.17
826.462	77.65
826.639	-102.57
826.817	-127.14
826.994	-24.75
827.172	-18.6
827.349	63.32
827.527	-18.6
827.704	16.21
827.882	38.74
828.059	-49.32
828.237	18.26
828.414	-6.31
828.591	-110.76
828.769	55.12
828.946	-49.32
829.124	-2.22
829.301	36.69
829.478	-28.84
829.655	36.69
829.833	38.74
830.01	-135.34
830.187	157.52
830.364	-8.36
830.542	32.6
830.719	81.75
830.896	42.84
831.073	77.65
831.25	-8.36
831.427	30.55
831.604	30.55
831.782	-69.8
831.959	44.88
832.136	-45.23
832.313	10.07
832.49	-45.23
832.667	-34.99
832.844	-125.1
833.021	67.41
833.198	-2.22
833.374	-41.13
833.551	91.99
833.728	-67.75
833.905	73.56
834.082	-84.14
834.259	65.36
834.436	71.51
834.612	-28.84
834.789	94.04
834.966	32.6
835.143	26.45
835.319	-102.57
835.496	14.17
835.673	1.88
835.85	20.31
836.026	81.75
836.203	118.61
836.38	18.26
836.556	-22.7
836.733	-28.84
836.909	40.79
837.086	-22.7
837.262	-63.66
837.439	-4.27
837.616	-63.66
837.792	28.5
837.968	10.07
838.145	-77.99
838.321	24.4
838.498	-28.84
838.674	34.64
838.851	51.03
839.027	38.74
839.203	12.12
839.38	59.22
839.556	-34.99
839.732	55.12
839.909	-30.89
840.085	10.07
840.261	-24.75
840.437	10.07
840.614	-10.41
840.79	83.8
840.966	36.69
841.142	-16.55
841.318	53.08
841.494	-45.23
841.671	75.6
841.847	-71.85
842.023	-86.19
842.199	32.6
842.375	104.28
842.551	-139.43
842.727	-6.31
842.903	143.19
843.079	-86.19
843.255	63.32
843.431	73.56
843.607	55.12
843.783	-178.34
843.959	18.26
844.134	-92.33
844.31	16.21
844.486	-69.8
844.662	5.97
844.838	-51.37
845.013	34.64
845.189	67.41
845.365	36.69
845.541	40.79
845.716	-45.23
845.892	-0.17
846.068	-39.08
846.244	-43.18
846.419	51.03
846.595	-94.38
846.77	-37.03
846.946	59.22
847.122	24.4
847.297	-8.36
847.473	85.84
847.648	-57.51
847.824	10.07
847.999	-88.23
848.175	-45.23
848.35	-37.03
848.526	34.64
848.701	10.07
848.876	-12.46
849.052	110.42
849.227	-20.65
849.403	-14.51
849.578	59.22
849.753	22.36
849.929	20.31
850.104	-143.53
850.279	26.45
850.454	65.36
850.63	83.8
850.805	12.12
850.98	14.17
851.155	32.6
851.33	44.88
851.505	-159.91
851.681	77.65
851.856	-71.85
852.031	-12.46
852.206	5.97
852.381	-102.57
852.556	-100.52
852.731	-6.31
852.906	65.36
853.081	34.64
853.256	83.8
853.431	-55.47
853.606	34.64
853.781	-118.95
853.956	-84.14
854.131	26.45
854.305	-137.38
854.48	32.6
854.655	-57.51
854.83	-71.85
855.005	18.26
855.18	32.6
855.354	-22.7
855.529	-30.89
855.704	-102.57
855.879	30.55
856.053	-43.18
856.228	51.03
856.403	-127.14
856.577	12.12
856.752	-106.67
856.926	-6.31
857.101	-55.47
857.276	-69.8
857.45	71.51
857.625	51.03
857.799	-34.99
857.974	16.21
858.148	-125.1
858.323	-12.46
858.497	-61.61
858.672	-94.38
858.846	-86.19
859.02	61.27
859.195	-63.66
859.369	-12.46
859.543	57.17
859.718	-49.32
859.892	63.32
860.066	-10.41
860.241	-84.14
860.415	-98.47
860.589	-20.65
860.763	-53.42
860.938	-20.65
861.112	30.55
861.286	-8.36
861.46	57.17
861.634	26.45
861.808	36.69
861.982	-61.61
862.157	-69.8
862.331	-67.75
862.505	-75.95
862.679	-41.13
862.853	-49.32
863.027	-18.6
863.201	116.56
863.375	-51.37
863.549	98.13
863.722	-28.84
863.896	34.64
864.07	-69.8
864.244	-14.51
864.418	75.6
864.592	-16.55
864.766	-86.19
864.939	-10.41
865.113	1.88
865.287	38.74
865.461	-24.75
865.634	57.17
865.808	-34.99
865.982	-57.51
866.156	-32.94
866.329	-77.99
866.503	-14.51
866.676	40.79
866.85	1.88
867.024	-14.51
867.197	8.02
867.371	22.36
867.544	-28.84
867.718	-80.04
867.891	165.71
868.065	-116.9
868.238	-43.18
868.412	59.22
868.585	-28.84
868.759	-24.75
868.932	30.55
869.105	-80.04
869.279	-53.42
869.452	-80.04
869.625	112.47
869.799	22.36
869.972	-104.62
870.145	-20.65
870.319	48.98
870.492	-34.99
870.665	-16.55
870.838	-8.36
871.011	-125.1
871.185	-16.55
871.358	-30.89
871.531	20.31
871.704	-51.37
871.877	89.94
872.05	3.93
872.223	-61.61
872.396	106.32
872.569	-8.36
872.742	-63.66
872.915	30.55
873.088	-67.75
873.261	-12.46
873.434	55.12
873.607	-53.42
873.78	46.93
873.953	-92.33
874.126	3.93
874.299	30.55
874.471	-61.61
874.644	-39.08
874.817	38.74
874.99	104.28
875.163	-112.81
875.335	30.55
875.508	-39.08
875.681	48.98
875.853	-39.08
876.026	-2.22
876.199	36.69
876.371	10.07
876.544	-16.55
876.717	-71.85
876.889	1.88
877.062	-20.65
877.234	-6.31
877.407	-37.03
877.579	-49.32
877.752	10.07
877.924	59.22
878.097	48.98
878.269	1.88
878.442	16.21
878.614	10.07
878.786	-53.42
878.959	-20.65
879.131	-6.31
879.303	-135.34
879.476	-20.65
879.648	3.93
879.82	53.08
879.993	-67.75
880.165	-47.27
880.337	-80.04
880.509	-80.04
880.681	-100.52
880.854	-45.23
881.026	-12.46
881.198	75.6
881.37	30.55
881.542	-24.75
881.714	28.5
881.886	-41.13
882.058	-24.75
882.23	-16.55
882.402	42.84
882.574	-10.41
882.746	36.69
882.918	53.08
883.09	75.6
883.262	42.84
883.434	12.12
883.606	-96.43
883.778	96.08
883.95	63.32
884.122	-28.84
884.293	32.6
884.465	22.36
884.637	26.45
884.809	-121
884.98	38.74
885.152	-59.56
885.324	32.6
885.496	-67.75
885.667	-24.75
885.839	-39.08
886.011	165.71
886.182	104.28
886.354	-4.27
886.525	-4.27
886.697	-102.57
886.869	-102.57
887.04	-82.09
887.212	63.32
887.383	171.86
887.555	-49.32
887.726	-51.37
887.897	24.4
888.069	26.45
888.24	46.93
888.412	-110.76
888.583	-6.31
888.754	-61.61
888.926	-225.45
889.097	-41.13
889.268	-161.96
889.44	-67.75
889.611	-108.71
889.782	-61.61
889.953	14.17
890.125	69.46
890.296	-80.04
890.467	-75.95
890.638	-18.6
890.809	-18.6
890.98	-34.99
891.151	-32.94
891.323	96.08
891.494	75.6
891.665	-24.75
891.836	8.02
892.007	-80.04
892.178	28.5
892.349	32.6
892.52	-2.22
892.691	-16.55
892.862	-75.95
893.032	-92.33
893.203	-10.41
893.374	38.74
893.545	34.64
893.716	-86.19
893.887	-51.37
894.057	1.88
894.228	-6.31
894.399	-10.41
894.57	63.32
894.74	59.22
894.911	38.74
895.082	-123.05
895.253	-14.51
895.423	3.93
895.594	18.26
895.764	24.4
895.935	-118.95
896.106	5.97
896.276	-100.52
896.447	-47.27
896.617	-67.75
896.788	-18.6
896.958	-22.7
897.129	-86.19
897.299	-39.08
897.47	116.56
897.64	55.12
897.81	59.22
897.981	-14.51
898.151	-37.03
898.322	20.31
898.492	12.12
898.662	-53.42
898.832	-77.99
899.003	8.02
899.173	61.27
899.343	-65.71
899.513	-98.47
