Data from USB4F104151__52__11-26-52-391.txt Node

Date: Wed Feb 26 11:26:52 EST 2025
User: louis
Spectrometer: USB4F10415
Trigger mode: 4
Integration Time (sec): 1.000000E-1
Scans to average: 1
Electric dark correction enabled: true
Nonlinearity correction enabled: false
Boxcar width: 0
XAxis mode: Wavelengths
Number of Pixels in Spectrum: 3648
>>>>>Begin Spectral Data<<<<<
178.204	-369.83
178.424	-369.83
178.644	-369.83
178.864	-418.98
179.084	-371.88
179.304	56.15
179.524	-9.39
179.744	19.29
179.964	-23.72
180.184	0.85
180.404	-21.67
180.624	-3.24
180.844	-42.15
181.064	-23.72
181.283	35.67
181.503	-15.53
181.723	27.48
181.943	-74.92
182.163	144.21
182.383	-44.2
182.602	31.57
182.822	162.64
183.042	21.33
183.262	-79.02
183.482	13.14
183.701	123.73
183.921	-3.24
184.141	-56.49
184.361	84.82
184.58	76.63
184.8	-1.19
185.02	-7.34
185.239	72.53
185.459	88.92
185.679	113.49
185.898	-62.63
186.118	-1.19
186.338	170.83
186.557	52.05
186.777	-72.87
186.997	107.35
187.216	39.76
187.436	176.98
187.655	80.72
187.875	107.35
188.095	90.96
188.314	68.44
188.534	113.49
188.753	-33.96
188.973	158.55
189.192	93.01
189.412	29.52
189.631	29.52
189.851	125.78
190.07	160.59
190.29	-29.87
190.509	25.43
190.729	17.24
190.948	109.4
191.168	191.31
191.387	97.11
191.607	-17.58
191.826	-1.19
192.045	62.29
192.265	-68.78
192.484	64.34
192.704	9.05
192.923	-56.49
193.142	176.98
193.362	207.7
193.581	144.21
193.8	95.06
194.02	101.2
194.239	121.68
194.458	107.35
194.678	54.1
194.897	-23.72
195.116	9.05
195.335	80.72
195.555	58.2
195.774	17.24
195.993	187.22
196.212	101.2
196.432	21.33
196.651	0.85
196.87	-13.48
197.089	271.19
197.308	76.63
197.528	54.1
197.747	-70.83
197.966	66.39
198.185	144.21
198.404	-40.11
198.623	164.69
198.842	140.12
199.062	103.25
199.281	115.54
199.5	82.77
199.719	144.21
199.938	66.39
200.157	74.58
200.376	58.2
200.595	74.58
200.814	84.82
201.033	-85.16
201.252	191.31
201.471	129.88
201.69	82.77
201.909	-21.67
202.128	140.12
202.347	2.9
202.566	29.52
202.785	-56.49
203.004	-44.2
203.223	197.46
203.442	35.67
203.661	-38.06
203.879	138.07
204.098	144.21
204.317	29.52
204.536	121.68
204.755	64.34
204.974	176.98
205.193	15.19
205.411	158.55
205.63	88.92
205.849	31.57
206.068	-5.29
206.287	15.19
206.505	158.55
206.724	-29.87
206.943	-74.92
207.162	21.33
207.381	62.29
207.599	-9.39
207.818	68.44
208.037	15.19
208.255	95.06
208.474	107.35
208.693	-9.39
208.911	-60.59
209.13	86.87
209.349	86.87
209.567	66.39
209.786	131.92
210.005	31.57
210.223	95.06
210.442	-144.55
210.661	37.72
210.879	-56.49
211.098	64.34
211.316	97.11
211.535	47.96
211.753	25.43
211.972	74.58
212.191	-62.63
212.409	58.2
212.628	162.64
212.846	-33.96
213.065	74.58
213.283	82.77
213.502	56.15
213.72	2.9
213.938	70.48
214.157	23.38
214.375	52.05
214.594	-27.82
214.812	90.96
215.031	74.58
215.249	101.2
215.467	64.34
215.686	-38.06
215.904	133.97
216.122	-44.2
216.341	191.31
216.559	23.38
216.778	60.24
216.996	193.36
217.214	60.24
217.432	-91.31
217.651	-107.69
217.869	29.52
218.087	64.34
218.306	-38.06
218.524	37.72
218.742	-5.29
218.96	76.63
219.179	-13.48
219.397	-23.72
219.615	226.13
219.833	76.63
220.051	-25.77
220.27	82.77
220.488	101.2
220.706	84.82
220.924	-3.24
221.142	-17.58
221.36	41.81
221.578	78.68
221.796	58.2
222.015	11.09
222.233	-5.29
222.451	144.21
222.669	-25.77
222.887	23.38
223.105	-31.91
223.323	13.14
223.541	-66.73
223.759	121.68
223.977	56.15
224.195	183.12
224.413	99.16
224.631	62.29
224.849	103.25
225.067	248.66
225.285	-68.78
225.503	82.77
225.721	-95.4
225.939	156.5
226.157	90.96
226.375	191.31
226.592	-25.77
226.81	95.06
227.028	60.24
227.246	72.53
227.464	60.24
227.682	97.11
227.9	103.25
228.117	15.19
228.335	27.48
228.553	84.82
228.771	0.85
228.989	-11.43
229.206	93.01
229.424	39.76
229.642	58.2
229.86	-23.72
230.077	142.16
230.295	80.72
230.513	133.97
230.731	56.15
230.948	224.08
231.166	142.16
231.384	43.86
231.601	41.81
231.819	195.41
232.037	-5.29
232.254	11.09
232.472	11.09
232.689	4.95
232.907	82.77
233.125	-46.25
233.342	25.43
233.56	39.76
233.777	4.95
233.995	31.57
234.213	140.12
234.43	70.48
234.648	-44.2
234.865	15.19
235.083	164.69
235.3	56.15
235.518	133.97
235.735	123.73
235.953	105.3
236.17	105.3
236.388	-3.24
236.605	58.2
236.822	86.87
237.04	117.59
237.257	2.9
237.475	-3.24
237.692	72.53
237.909	-1.19
238.127	45.91
238.344	133.97
238.562	-13.48
238.779	-50.35
238.996	-11.43
239.214	-13.48
239.431	64.34
239.648	25.43
239.865	78.68
240.083	93.01
240.3	-13.48
240.517	-17.58
240.735	-29.87
240.952	86.87
241.169	52.05
241.386	74.58
241.603	43.86
241.821	-38.06
242.038	70.48
242.255	119.64
242.472	-7.34
242.689	78.68
242.907	56.15
243.124	13.14
243.341	39.76
243.558	54.1
243.775	-9.39
243.992	-52.39
244.209	148.31
244.426	217.94
244.643	-9.39
244.86	-31.91
245.078	144.21
245.295	70.48
245.512	-33.96
245.729	27.48
245.946	129.88
246.163	-3.24
246.38	47.96
246.597	84.82
246.814	7
247.031	33.62
247.248	70.48
247.464	142.16
247.681	7
247.898	80.72
248.115	111.44
248.332	-17.58
248.549	76.63
248.766	185.17
248.983	86.87
249.2	4.95
249.417	156.5
249.633	-15.53
249.85	97.11
250.067	-56.49
250.284	35.67
250.501	111.44
250.717	68.44
250.934	88.92
251.151	-3.24
251.368	43.86
251.585	88.92
251.801	41.81
252.018	-33.96
252.235	93.01
252.451	23.38
252.668	54.1
252.885	138.07
253.102	76.63
253.318	-62.63
253.535	17.24
253.752	13.14
253.968	-25.77
254.185	-64.68
254.401	37.72
254.618	25.43
254.835	2.9
255.051	127.83
255.268	50
255.484	97.11
255.701	82.77
255.917	15.19
256.134	-50.35
256.351	17.24
256.567	-48.3
256.784	86.87
257	-74.92
257.217	168.79
257.433	45.91
257.65	37.72
257.866	93.01
258.082	-99.5
258.299	43.86
258.515	39.76
258.732	45.91
258.948	-31.91
259.165	113.49
259.381	-74.92
259.597	35.67
259.814	121.68
260.03	21.33
260.246	-29.87
260.463	146.26
260.679	131.92
260.895	74.58
261.112	-5.29
261.328	27.48
261.544	-19.63
261.761	117.59
261.977	-27.82
262.193	-29.87
262.409	90.96
262.626	-17.58
262.842	43.86
263.058	-23.72
263.274	142.16
263.49	172.88
263.707	52.05
263.923	68.44
264.139	-52.39
264.355	56.15
264.571	86.87
264.787	93.01
265.004	138.07
265.22	80.72
265.436	-44.2
265.652	-3.24
265.868	84.82
266.084	25.43
266.3	113.49
266.516	-36.01
266.732	84.82
266.948	58.2
267.164	54.1
267.38	74.58
267.596	19.29
267.812	129.88
268.028	31.57
268.244	41.81
268.46	43.86
268.676	35.67
268.892	60.24
269.108	50
269.324	43.86
269.54	21.33
269.756	78.68
269.972	-54.44
270.188	45.91
270.403	-17.58
270.619	45.91
270.835	127.83
271.051	13.14
271.267	-36.01
271.483	9.05
271.698	158.55
271.914	72.53
272.13	-11.43
272.346	17.24
272.562	82.77
272.777	125.78
272.993	45.91
273.209	-5.29
273.425	76.63
273.64	93.01
273.856	68.44
274.072	-56.49
274.287	-70.83
274.503	160.59
274.719	123.73
274.934	7
275.15	-42.15
275.366	43.86
275.581	-11.43
275.797	11.09
276.012	121.68
276.228	144.21
276.444	109.4
276.659	97.11
276.875	58.2
277.09	52.05
277.306	-1.19
277.521	82.77
277.737	50
277.952	78.68
278.168	4.95
278.383	54.1
278.599	54.1
278.814	90.96
279.03	64.34
279.245	140.12
279.461	17.24
279.676	95.06
279.892	-36.01
280.107	50
280.322	35.67
280.538	47.96
280.753	66.39
280.969	82.77
281.184	52.05
281.399	150.36
281.615	97.11
281.83	4.95
282.045	-3.24
282.26	84.82
282.476	52.05
282.691	99.16
282.906	13.14
283.122	76.63
283.337	-11.43
283.552	111.44
283.767	23.38
283.983	168.79
284.198	-29.87
284.413	95.06
284.628	-68.78
284.843	68.44
285.058	119.64
285.274	27.48
285.489	-31.91
285.704	142.16
285.919	-11.43
286.134	-3.24
286.349	37.72
286.564	9.05
286.779	185.17
286.995	2.9
287.21	-91.31
287.425	68.44
287.64	-36.01
287.855	76.63
288.07	-64.68
288.285	138.07
288.5	37.72
288.715	84.82
288.93	-5.29
289.145	-17.58
289.36	131.92
289.575	60.24
289.79	111.44
290.004	-27.82
290.219	123.73
290.434	72.53
290.649	-66.73
290.864	-17.58
291.079	-3.24
291.294	121.68
291.509	50
291.724	-5.29
291.938	-17.58
292.153	43.86
292.368	-25.77
292.583	78.68
292.798	37.72
293.012	72.53
293.227	56.15
293.442	-17.58
293.657	27.48
293.871	179.03
294.086	60.24
294.301	215.89
294.516	123.73
294.73	95.06
294.945	-60.59
295.16	29.52
295.374	146.26
295.589	97.11
295.804	-70.83
296.018	107.35
296.233	226.13
296.447	80.72
296.662	-1.19
296.877	152.4
297.091	113.49
297.306	47.96
297.52	-19.63
297.735	82.77
297.949	4.95
298.164	27.48
298.378	56.15
298.593	-54.44
298.807	-54.44
299.022	17.24
299.236	193.36
299.451	50
299.665	-31.91
299.88	84.82
300.094	88.92
300.309	35.67
300.523	25.43
300.737	39.76
300.952	64.34
301.166	80.72
301.381	31.57
301.595	33.62
301.809	70.48
302.024	-11.43
302.238	11.09
302.452	199.51
302.667	-5.29
302.881	129.88
303.095	76.63
303.309	78.68
303.524	-38.06
303.738	-19.63
303.952	43.86
304.166	37.72
304.381	13.14
304.595	144.21
304.809	-33.96
305.023	-1.19
305.237	-9.39
305.452	13.14
305.666	17.24
305.88	35.67
306.094	86.87
306.308	74.58
306.522	121.68
306.736	56.15
306.95	93.01
307.164	60.24
307.379	37.72
307.593	119.64
307.807	129.88
308.021	138.07
308.235	115.54
308.449	-54.44
308.663	33.62
308.877	222.03
309.091	56.15
309.305	78.68
309.519	-27.82
309.733	176.98
309.947	-36.01
310.161	80.72
310.374	148.31
310.588	29.52
310.802	-7.34
311.016	25.43
311.23	2.9
311.444	-44.2
311.658	-5.29
311.872	93.01
312.085	109.4
312.299	152.4
312.513	136.02
312.727	82.77
312.941	-13.48
313.154	101.2
313.368	56.15
313.582	9.05
313.796	90.96
314.009	19.29
314.223	127.83
314.437	15.19
314.651	72.53
314.864	2.9
315.078	58.2
315.292	-33.96
315.505	45.91
315.719	58.2
315.933	29.52
316.146	-36.01
316.36	25.43
316.573	-17.58
316.787	109.4
317.001	37.72
317.214	11.09
317.428	80.72
317.641	-15.53
317.855	58.2
318.068	27.48
318.282	7
318.495	90.96
318.709	74.58
318.922	64.34
319.136	170.83
319.349	179.03
319.563	-42.15
319.776	148.31
319.99	-103.59
320.203	123.73
320.417	31.57
320.63	156.5
320.843	275.28
321.057	88.92
321.27	54.1
321.483	37.72
321.697	119.64
321.91	58.2
322.124	90.96
322.337	-3.24
322.55	4.95
322.763	62.29
322.977	4.95
323.19	21.33
323.403	45.91
323.617	86.87
323.83	97.11
324.043	4.95
324.256	86.87
324.469	-66.73
324.683	125.78
324.896	-19.63
325.109	15.19
325.322	-17.58
325.535	86.87
325.748	101.2
325.962	58.2
326.175	45.91
326.388	105.3
326.601	179.03
326.814	95.06
327.027	11.09
327.24	185.17
327.453	-33.96
327.666	158.55
327.879	144.21
328.092	117.59
328.305	105.3
328.518	-23.72
328.731	0.85
328.944	39.76
329.157	43.86
329.37	9.05
329.583	222.03
329.796	168.79
330.009	-25.77
330.222	88.92
330.435	109.4
330.648	88.92
330.861	47.96
331.073	39.76
331.286	105.3
331.499	70.48
331.712	0.85
331.925	9.05
332.138	74.58
332.35	64.34
332.563	-66.73
332.776	146.26
332.989	86.87
333.202	2.9
333.414	74.58
333.627	31.57
333.84	70.48
334.053	45.91
334.265	27.48
334.478	4.95
334.691	17.24
334.903	58.2
335.116	133.97
335.329	29.52
335.541	68.44
335.754	191.31
335.966	-13.48
336.179	0.85
336.392	45.91
336.604	64.34
336.817	209.75
337.029	35.67
337.242	66.39
337.454	117.59
337.667	50
337.88	156.5
338.092	133.97
338.305	25.43
338.517	-42.15
338.729	111.44
338.942	219.99
339.154	-44.2
339.367	-19.63
339.579	119.64
339.792	-27.82
340.004	138.07
340.217	43.86
340.429	68.44
340.641	-54.44
340.854	9.05
341.066	54.1
341.278	64.34
341.491	207.7
341.703	60.24
341.915	-13.48
342.128	136.02
342.34	37.72
342.552	0.85
342.764	-11.43
342.977	23.38
343.189	168.79
343.401	103.25
343.613	-25.77
343.826	-38.06
344.038	35.67
344.25	31.57
344.462	78.68
344.674	43.86
344.886	72.53
345.099	109.4
345.311	84.82
345.523	-3.24
345.735	7
345.947	74.58
346.159	2.9
346.371	113.49
346.583	-1.19
346.795	170.83
347.007	64.34
347.219	-29.87
347.431	21.33
347.643	129.88
347.855	-33.96
348.067	119.64
348.279	-3.24
348.491	58.2
348.703	97.11
348.915	-27.82
349.127	-76.97
349.339	80.72
349.551	-1.19
349.763	25.43
349.975	17.24
350.187	64.34
350.399	140.12
350.61	-23.72
350.822	52.05
351.034	115.54
351.246	80.72
351.458	52.05
351.669	80.72
351.881	-42.15
352.093	127.83
352.305	121.68
352.517	27.48
352.728	152.4
352.94	107.35
353.152	179.03
353.363	52.05
353.575	66.39
353.787	105.3
353.999	68.44
354.21	152.4
354.422	45.91
354.633	-36.01
354.845	60.24
355.057	17.24
355.268	64.34
355.48	119.64
355.692	-87.21
355.903	84.82
356.115	-19.63
356.326	-62.63
356.538	95.06
356.749	86.87
356.961	97.11
357.172	-1.19
357.384	-21.67
357.595	226.13
357.807	7
358.018	-40.11
358.23	123.73
358.441	166.74
358.653	107.35
358.864	35.67
359.075	0.85
359.287	115.54
359.498	62.29
359.709	99.16
359.921	99.16
360.132	115.54
360.344	56.15
360.555	15.19
360.766	50
360.977	-13.48
361.189	103.25
361.4	21.33
361.611	119.64
361.823	158.55
362.034	11.09
362.245	-87.21
362.456	-15.53
362.667	76.63
362.879	-62.63
363.09	62.29
363.301	97.11
363.512	11.09
363.723	21.33
363.935	19.29
364.146	121.68
364.357	35.67
364.568	58.2
364.779	-36.01
364.99	123.73
365.201	-33.96
365.412	111.44
365.623	-111.78
365.834	66.39
366.045	-21.67
366.256	82.77
366.467	15.19
366.678	45.91
366.889	39.76
367.1	31.57
367.311	90.96
367.522	-50.35
367.733	90.96
367.944	80.72
368.155	62.29
368.366	129.88
368.577	15.19
368.788	86.87
368.999	58.2
369.209	99.16
369.42	205.65
369.631	172.88
369.842	64.34
370.053	111.44
370.264	150.36
370.474	52.05
370.685	84.82
370.896	70.48
371.107	103.25
371.317	88.92
371.528	-44.2
371.739	144.21
371.95	82.77
372.16	101.2
372.371	-64.68
372.582	21.33
372.792	64.34
373.003	60.24
373.214	52.05
373.424	174.93
373.635	13.14
373.846	129.88
374.056	-1.19
374.267	95.06
374.477	45.91
374.688	-85.16
374.898	-1.19
375.109	80.72
375.319	127.83
375.53	66.39
375.74	76.63
375.951	-19.63
376.161	66.39
376.372	62.29
376.582	101.2
376.793	58.2
377.003	-31.91
377.214	-27.82
377.424	-3.24
377.635	58.2
377.845	31.57
378.055	140.12
378.266	-103.59
378.476	68.44
378.686	123.73
378.897	-5.29
379.107	113.49
379.317	82.77
379.528	52.05
379.738	140.12
379.948	-85.16
380.158	33.62
380.369	-13.48
380.579	76.63
380.789	86.87
380.999	78.68
381.21	103.25
381.42	168.79
381.63	4.95
381.84	78.68
382.05	90.96
382.261	154.45
382.471	166.74
382.681	-5.29
382.891	240.47
383.101	45.91
383.311	-58.54
383.521	35.67
383.731	113.49
383.941	121.68
384.151	-36.01
384.361	-11.43
384.571	17.24
384.781	113.49
384.991	197.46
385.201	105.3
385.411	27.48
385.621	41.81
385.831	52.05
386.041	72.53
386.251	7
386.461	136.02
386.671	29.52
386.881	95.06
387.091	-7.34
387.301	113.49
387.511	4.95
387.72	72.53
387.93	125.78
388.14	-29.87
388.35	74.58
388.56	129.88
388.769	93.01
388.979	17.24
389.189	29.52
389.399	13.14
389.609	103.25
389.818	129.88
390.028	-25.77
390.238	95.06
390.447	72.53
390.657	113.49
390.867	7
391.076	-50.35
391.286	150.36
391.496	-9.39
391.705	0.85
391.915	158.55
392.125	176.98
392.334	-48.3
392.544	109.4
392.753	-27.82
392.963	0.85
393.172	95.06
393.382	43.86
393.591	203.6
393.801	-27.82
394.01	217.94
394.22	183.12
394.429	-23.72
394.639	25.43
394.848	29.52
395.058	76.63
395.267	-5.29
395.477	33.62
395.686	68.44
395.895	170.83
396.105	187.22
396.314	140.12
396.524	19.29
396.733	109.4
396.942	125.78
397.152	121.68
397.361	146.26
397.57	80.72
397.78	70.48
397.989	99.16
398.198	195.41
398.407	148.31
398.617	93.01
398.826	-1.19
399.035	-27.82
399.244	66.39
399.453	64.34
399.663	74.58
399.872	101.2
400.081	-107.69
400.29	152.4
400.499	37.72
400.708	109.4
400.917	21.33
401.127	-17.58
401.336	144.21
401.545	127.83
401.754	154.45
401.963	105.3
402.172	17.24
402.381	-85.16
402.59	33.62
402.799	105.3
403.008	47.96
403.217	33.62
403.426	21.33
403.635	-83.11
403.844	31.57
404.053	64.34
404.262	90.96
404.471	168.79
404.68	13.14
404.888	-50.35
405.097	17.24
405.306	66.39
405.515	47.96
405.724	-13.48
405.933	115.54
406.142	13.14
406.35	146.26
406.559	43.86
406.768	123.73
406.977	224.08
407.185	78.68
407.394	129.88
407.603	-36.01
407.812	47.96
408.02	117.59
408.229	47.96
408.438	78.68
408.646	9.05
408.855	2.9
409.064	25.43
409.272	45.91
409.481	103.25
409.69	35.67
409.898	4.95
410.107	47.96
410.315	111.44
410.524	17.24
410.733	19.29
410.941	68.44
411.15	29.52
411.358	82.77
411.567	115.54
411.775	52.05
411.984	37.72
412.192	37.72
412.401	29.52
412.609	213.84
412.818	117.59
413.026	62.29
413.234	-21.67
413.443	19.29
413.651	41.81
413.86	58.2
414.068	154.45
414.276	166.74
414.485	-66.73
414.693	168.79
414.901	199.51
415.11	-1.19
415.318	103.25
415.526	54.1
415.734	111.44
415.943	97.11
416.151	150.36
416.359	56.15
416.567	93.01
416.776	144.21
416.984	45.91
417.192	121.68
417.4	-91.31
417.608	-11.43
417.817	-33.96
418.025	179.03
418.233	146.26
418.441	-5.29
418.649	-19.63
418.857	84.82
419.065	107.35
419.273	88.92
419.481	86.87
419.689	58.2
419.897	-19.63
420.105	-25.77
420.313	168.79
420.521	105.3
420.729	162.64
420.937	2.9
421.145	-60.59
421.353	158.55
421.561	162.64
421.769	50
421.977	9.05
422.185	107.35
422.393	35.67
422.601	133.97
422.809	62.29
423.017	54.1
423.224	70.48
423.432	60.24
423.64	39.76
423.848	117.59
424.056	31.57
424.263	174.93
424.471	62.29
424.679	125.78
424.887	52.05
425.094	185.17
425.302	66.39
425.51	74.58
425.718	129.88
425.925	101.2
426.133	9.05
426.341	201.55
426.548	107.35
426.756	13.14
426.964	72.53
427.171	76.63
427.379	107.35
427.586	121.68
427.794	117.59
428.001	76.63
428.209	82.77
428.417	121.68
428.624	156.5
428.832	93.01
429.039	99.16
429.247	52.05
429.454	86.87
429.662	168.79
429.869	99.16
430.076	156.5
430.284	189.27
430.491	226.13
430.699	129.88
430.906	181.07
431.114	185.17
431.321	80.72
431.528	76.63
431.736	103.25
431.943	176.98
432.15	117.59
432.358	166.74
432.565	215.89
432.772	-44.2
432.979	209.75
433.187	115.54
433.394	205.65
433.601	31.57
433.808	156.5
434.016	230.23
434.223	193.36
434.43	88.92
434.637	162.64
434.844	183.12
435.052	222.03
435.259	226.13
435.466	199.51
435.673	215.89
435.88	242.51
436.087	219.99
436.294	320.34
436.501	183.12
436.708	238.42
436.915	187.22
437.122	303.95
437.329	127.83
437.537	230.23
437.743	293.71
437.95	363.34
438.157	306
438.364	338.77
438.571	275.28
438.778	310.1
438.985	324.43
439.192	428.88
439.399	238.42
439.606	330.58
439.813	367.44
440.02	430.93
440.227	406.35
440.433	459.6
440.64	295.76
440.847	367.44
441.054	432.97
441.261	521.04
441.467	408.4
441.674	379.73
441.881	439.12
442.088	375.63
442.294	512.85
442.501	549.71
442.708	529.23
442.914	545.61
443.121	555.85
443.328	541.52
443.534	605
443.741	586.57
443.948	533.33
444.154	586.57
444.361	877.38
444.568	705.35
444.774	680.78
444.981	627.53
445.187	826.18
445.394	764.75
445.6	738.12
445.807	955.21
446.013	791.37
446.22	824.14
446.426	934.73
446.633	1026.89
446.839	1170.24
447.046	881.48
447.252	1106.76
447.459	1090.37
447.665	1192.77
447.871	1274.69
448.078	1315.65
448.284	1305.41
448.491	1307.46
448.697	1444.67
448.903	1397.57
449.11	1418.05
449.316	1393.47
449.522	1631.04
449.728	1608.51
449.935	1733.43
450.141	1710.91
450.347	1944.38
450.553	1780.54
450.76	1790.78
450.966	1913.66
451.172	1997.62
451.378	2114.36
451.584	2190.13
451.791	2362.16
451.997	2454.32
452.203	2302.77
452.409	2540.33
452.615	2532.14
452.821	2466.61
453.027	2431.79
453.233	2937.64
453.44	2618.16
453.646	2982.7
453.852	3015.46
454.058	3169.06
454.264	3263.27
454.47	3330.85
454.676	3416.87
454.882	3820.32
455.088	3572.51
455.294	3851.03
455.5	4086.55
455.705	4381.46
455.911	4170.52
456.117	4363.03
456.323	4524.82
456.529	4631.31
456.735	5081.86
456.941	5143.3
457.147	5219.08
457.352	5454.59
457.558	5452.55
457.764	5985.02
457.97	6034.17
458.176	6392.56
458.381	6476.53
458.587	6867.69
458.793	6957.8
458.999	7058.15
459.204	8039.13
459.41	8182.49
459.616	7989.98
459.821	8704.72
460.027	8760.02
460.233	9263.82
460.438	9378.5
460.644	10015.42
460.85	9841.34
461.055	10547.89
461.261	11152.04
461.466	10586.8
461.672	11088.56
461.878	12229.27
462.083	12216.99
462.289	12278.43
462.494	12720.79
462.7	12864.15
462.905	13070.99
463.111	14187.13
463.316	14865.01
463.522	15043.18
463.727	15530.6
463.932	16233.05
464.138	16626.26
464.343	17568.33
464.549	17893.96
464.754	18987.57
464.959	19149.36
465.165	19499.56
465.37	19452.46
465.575	19421.74
465.781	20826.65
465.986	21178.9
466.191	20787.74
466.397	20986.39
466.602	20865.56
466.807	22411.78
467.012	22397.44
467.218	22854.14
467.423	23032.31
467.628	23757.29
467.833	24801.75
468.038	24166.88
468.244	24119.78
468.449	25000.41
468.654	24633.82
468.859	24779.23
469.064	24760.8
469.269	24048.1
469.474	24228.32
469.679	25123.29
469.885	24195.56
470.09	24607.2
470.295	24738.27
470.5	24463.84
470.705	24644.06
470.91	23704.04
471.115	23550.45
471.32	23650.8
471.525	23581.17
471.73	23054.84
471.935	22946.3
472.139	22323.71
472.344	22237.7
472.549	21967.37
472.754	21561.87
472.959	20965.91
473.164	20380.19
473.369	20202.02
473.574	20562.46
473.778	20224.54
473.983	19763.75
474.188	19681.83
474.393	18565.69
474.598	18702.9
474.802	17769.03
475.007	18096.71
475.212	17590.86
475.417	16958.03
475.621	17111.63
475.826	16716.37
476.031	16319.07
476.235	16095.84
476.44	15938.15
476.645	15661.67
476.849	15448.68
477.054	15073.9
477.259	14807.67
477.463	14897.78
477.668	14324.35
477.872	14355.07
478.077	14013.06
478.282	13552.26
478.486	13623.94
478.691	13240.97
478.895	13062.8
479.1	13142.67
479.304	12771.99
479.509	12495.51
479.713	12716.69
479.918	12378.78
480.122	12212.89
480.326	12128.92
480.531	12290.71
480.735	12200.6
480.94	12024.48
481.144	12346.01
481.348	11555.49
481.553	11891.36
481.757	11330.22
481.961	11606.69
482.166	11672.23
482.37	11438.76
482.574	11098.8
482.778	11006.64
482.983	11387.56
483.187	10977.97
483.391	11098.8
483.595	10953.39
483.8	10756.79
484.004	10877.62
484.208	10662.58
484.412	10595
484.616	10443.45
484.821	10300.09
485.025	10021.56
485.229	9933.5
485.433	9925.31
485.637	9814.72
485.841	9661.12
486.045	9693.89
486.249	9700.03
486.453	9274.06
486.657	9229
486.861	9138.89
487.065	8727.25
487.269	8860.37
487.473	8387.29
487.677	8807.12
487.881	8587.99
488.085	8321.75
488.289	8211.16
488.493	8020.7
488.697	8082.14
488.901	7740.13
489.105	7781.09
489.309	7684.83
489.512	7600.87
489.716	7570.15
489.92	7267.05
490.124	7119.59
490.328	7127.78
490.531	6966
490.735	6832.88
490.939	6494.96
491.143	6574.83
491.346	6261.49
491.55	6458.1
491.754	6245.11
491.958	6159.1
492.161	6210.29
492.365	5976.83
492.569	5876.48
492.772	5876.48
492.976	5884.67
493.18	5585.66
493.383	5661.44
493.587	5399.3
493.79	5507.84
493.994	5323.52
494.197	5264.13
494.401	5186.31
494.605	5276.42
494.808	5286.66
495.012	5460.74
495.215	5397.25
495.419	5335.81
495.622	4954.89
495.825	5071.62
496.029	4907.79
496.232	5073.67
496.436	5149.45
496.639	5171.97
496.843	5028.62
497.046	5063.43
497.249	5077.77
497.453	5165.83
497.656	5133.06
497.859	4926.22
498.063	5249.8
498.266	5331.72
498.469	4958.99
498.673	5102.34
498.876	5128.97
499.079	5077.77
499.282	5208.84
499.485	5425.92
499.689	5272.32
499.892	5479.17
500.095	5438.21
500.298	5417.73
500.501	5319.43
500.705	5602.05
500.908	5751.55
501.111	5612.29
501.314	5767.93
501.517	5937.91
501.72	5892.86
501.923	5937.91
502.126	5913.34
502.329	6130.42
502.532	6052.6
502.735	6165.24
502.938	6195.96
503.141	6296.31
503.344	6351.6
503.547	6589.17
503.75	6503.15
503.953	6660.85
504.156	6832.88
504.359	6922.99
504.562	6656.75
504.765	7168.74
504.968	7396.07
505.17	7359.21
505.373	7449.32
505.576	7744.22
505.779	7643.87
505.982	7682.78
506.185	8073.95
506.387	8225.5
506.59	8059.61
506.793	8407.77
506.996	8563.41
507.198	8868.56
507.401	8930
507.604	9470.66
507.807	9417.41
508.009	9525.96
508.212	9931.45
508.415	9849.54
508.617	10179.26
508.82	10177.21
509.022	10437.3
509.225	10855.09
509.428	10941.1
509.63	11063.98
509.833	11449
510.035	12028.57
510.238	11694.75
510.44	12202.65
510.643	12612.24
510.845	13079.18
511.048	12876.43
511.25	13431.43
511.453	13533.83
511.655	14449.27
511.858	14510.71
512.06	14566.01
512.262	15098.48
512.465	15000.18
512.667	15735.4
512.87	16263.77
513.072	16360.03
513.274	16984.66
513.477	17373.77
513.679	17599.05
513.881	18270.78
514.084	18666.04
514.286	18919.99
514.488	19685.93
514.69	20292.13
514.893	20138.53
515.095	20951.57
515.297	21336.59
515.499	21570.06
515.701	21920.26
515.904	22966.77
516.106	23312.88
516.308	23951.85
516.51	24046.05
516.712	24490.46
516.914	25020.89
517.116	25862.6
517.318	26063.3
517.52	26888.64
517.722	27181.49
517.925	27953.58
518.127	28445.09
518.329	29182.36
518.531	29084.06
518.733	29929.87
518.935	30431.62
519.136	31158.65
519.338	31555.96
519.54	32192.87
519.742	32776.55
519.944	33026.4
520.146	33911.12
520.348	34525.51
520.55	34834.75
520.752	34969.92
520.954	36139.31
521.155	36145.45
521.357	36466.98
521.559	37355.8
521.761	38236.43
521.963	38103.31
522.164	38527.24
522.366	38631.69
522.568	39303.42
522.77	39424.25
522.971	40415.47
523.173	39708.92
523.375	40454.38
523.576	40528.11
523.778	40931.56
523.98	41435.36
524.181	42041.56
524.383	41982.16
524.584	42389.71
524.786	42272.98
524.988	41955.54
525.189	42770.63
525.391	42612.94
525.592	42909.89
525.794	42784.97
525.995	42453.2
526.197	42690.76
526.398	42754.25
526.6	42801.35
526.801	42887.37
527.003	42987.72
527.204	42551.5
527.406	42823.88
527.607	42297.55
527.808	42639.56
528.01	41681.11
528.211	41726.17
528.412	42436.81
528.614	41640.15
528.815	42008.79
529.016	41492.7
529.218	40958.18
529.419	40669.42
529.62	40444.14
529.822	40038.64
530.023	39545.08
530.224	39766.26
530.425	39282.94
530.626	38271.25
530.828	37832.98
531.029	38517
531.23	37730.58
531.431	36442.41
531.632	37024.03
531.833	36294.96
532.035	35782.96
532.236	35752.24
532.437	35475.77
532.638	34447.69
532.839	34773.31
533.04	34111.82
533.241	33427.8
533.442	33732.95
533.643	32786.79
533.844	32098.67
534.045	32096.62
534.246	31439.22
534.447	31086.97
534.648	30689.67
534.849	30497.16
535.05	29886.86
535.251	29710.74
535.451	29086.11
535.652	28633.5
535.853	28518.82
536.054	28074.41
536.255	27709.87
536.456	27046.33
536.657	27292.08
536.857	26724.8
537.058	26040.78
537.259	25747.92
537.46	25637.33
537.66	25149.91
537.861	24721.88
538.062	24611.29
538.263	24379.87
538.463	24076.77
538.664	23532.01
538.865	23501.29
539.065	23441.9
539.266	22667.77
539.466	22962.68
539.667	22155.78
539.868	22137.35
540.068	22063.62
540.269	21654.03
540.469	21406.22
540.67	21303.82
540.87	20771.35
541.071	20445.73
541.271	20226.59
541.472	20058.66
541.672	19931.69
541.873	19321.39
542.073	19087.92
542.274	19186.22
542.474	19083.83
542.675	18713.14
542.875	18651.7
543.075	18084.42
543.276	17826.37
543.476	18184.77
543.676	17769.03
543.877	17652.3
544.077	17459.79
544.277	17332.81
544.478	17177.17
544.678	16761.43
544.878	16427.61
545.078	16466.52
545.279	15878.76
545.479	15954.53
545.679	16081.5
545.879	15643.24
546.079	15454.83
546.28	15239.79
546.48	15106.67
546.68	15137.39
546.88	14877.3
547.08	14750.32
547.28	14584.44
547.48	14092.93
547.68	14070.4
547.88	13924.99
548.081	14027.39
548.281	13441.67
548.481	13359.75
548.681	13406.86
548.881	13027.98
549.081	12870.29
549.28	12442.26
549.48	12747.41
549.68	12378.78
549.88	12565.14
550.08	11862.69
550.28	11823.78
550.48	12065.44
550.68	11686.56
550.88	11629.22
551.08	11193
551.279	11471.53
551.479	10957.49
551.679	10842.8
551.879	10504.89
552.079	10595
552.278	10484.41
552.478	10351.29
552.678	10218.17
552.878	9962.17
553.077	9941.69
553.277	9450.18
553.477	9607.87
553.676	9489.09
553.876	9116.36
554.076	9106.12
554.275	8909.52
554.475	8676.05
554.674	8565.46
554.874	8553.17
555.074	8430.29
555.273	8071.9
555.473	8147.67
555.672	7932.64
555.872	7752.42
556.071	7789.28
556.271	7682.78
556.47	7484.13
556.67	7170.79
556.869	7281.38
557.068	7033.58
557.268	6818.54
557.467	6773.49
557.667	6789.87
557.866	6550.26
558.065	6517.49
558.265	6423.28
558.464	6193.91
558.663	6284.02
558.863	6105.85
559.062	6193.91
559.261	5853.95
559.461	6009.59
559.66	5636.86
559.859	5563.14
560.058	5544.7
560.258	5276.42
560.457	5339.91
560.656	5360.39
560.855	5112.58
561.054	5305.09
561.253	5042.95
561.453	4956.94
561.652	4803.34
561.851	4981.51
562.05	4690.7
562.249	4561.68
562.448	4580.11
562.647	4549.39
562.846	4490
563.045	4451.09
563.244	4279.06
563.443	4254.48
563.642	4260.63
563.841	4133.65
564.04	3955.48
564.239	4012.82
564.438	3873.56
564.637	3685.15
564.836	3773.21
565.035	3566.37
565.234	3775.26
565.432	3631.9
565.631	3605.28
565.83	3492.64
566.029	3285.8
566.228	3439.39
566.427	3476.26
566.625	3298.08
566.824	3412.77
567.023	3242.79
567.222	3134.25
567.42	3062.57
567.619	3099.43
567.818	2927.4
568.016	3046.18
568.215	2888.49
568.414	3068.71
568.612	2882.35
568.811	2804.52
569.01	2745.13
569.208	2767.66
569.407	2726.7
569.605	2644.78
569.804	2587.44
570.002	2532.14
570.201	2460.46
570.4	2401.07
570.598	2380.59
570.797	2366.26
570.995	2296.63
571.193	2224.95
571.392	2313.01
571.59	2155.32
571.789	2214.71
571.987	2231.09
572.186	2333.49
572.384	2102.07
572.582	2171.7
572.781	2108.21
572.979	1915.7
573.177	1977.14
573.376	2118.45
573.574	1987.38
573.772	1897.27
573.971	1805.11
574.169	1786.68
574.367	1858.36
574.565	1854.27
574.763	1778.49
574.962	1803.07
575.16	1678.14
575.358	1723.2
575.556	1577.79
575.754	1579.84
575.952	1694.52
576.151	1649.47
576.349	1661.76
576.547	1416
576.745	1463.1
576.943	1522.49
577.141	1368.9
577.339	1317.7
577.537	1465.15
577.735	1420.1
577.933	1360.7
578.131	1284.93
578.329	1465.15
578.527	1217.35
578.725	1428.29
578.923	1084.23
579.121	1246.02
579.319	1076.04
579.516	1256.26
579.714	1416
579.912	1221.44
580.11	1065.8
580.308	1139.52
580.506	1053.51
580.704	910.15
580.901	959.3
581.099	1174.34
581.297	1030.98
581.495	1018.69
581.692	949.06
581.89	1139.52
582.088	967.49
582.285	959.3
582.483	959.3
582.681	856.9
582.878	926.54
583.076	947.01
583.274	910.15
583.471	1012.55
583.669	740.17
583.866	836.42
584.064	803.66
584.262	844.62
584.459	678.73
584.657	762.7
584.854	811.85
585.052	774.99
585.249	772.94
585.447	795.47
585.644	672.59
585.841	762.7
586.039	805.71
586.236	918.34
586.434	725.83
586.631	654.16
586.828	629.58
587.026	611.15
587.223	592.72
587.42	699.21
587.618	658.25
587.815	727.88
588.012	652.11
588.21	693.07
588.407	684.87
588.604	648.01
588.801	523.09
588.999	564.04
589.196	734.03
589.393	564.04
589.59	590.67
589.787	547.66
589.984	611.15
590.182	596.81
590.379	455.5
590.576	611.15
590.773	461.65
590.97	535.37
591.167	572.24
591.364	543.57
591.561	492.37
591.758	650.06
591.955	543.57
592.152	498.51
592.349	562
592.546	592.72
592.743	504.65
592.94	508.75
593.137	508.75
593.334	578.38
593.531	555.85
593.727	596.81
593.924	605
594.121	529.23
594.318	539.47
594.515	584.52
594.712	598.86
594.908	633.68
595.105	529.23
595.302	566.09
595.499	492.37
595.696	684.87
595.892	478.03
596.089	588.62
596.286	582.48
596.482	645.96
596.679	525.13
596.876	559.95
597.072	713.55
597.269	635.72
597.466	598.86
597.662	691.02
597.859	631.63
598.055	736.07
598.252	758.6
598.448	697.16
598.645	893.77
598.841	869.19
599.038	932.68
599.234	912.2
599.431	949.06
599.627	877.38
599.824	883.53
600.02	928.58
600.217	918.34
600.413	1033.03
600.609	1051.46
600.806	1239.87
601.002	1157.96
601.198	1166.15
601.395	1368.9
601.591	1329.99
601.787	1305.41
601.984	1379.14
602.18	1444.67
602.376	1456.96
602.572	1538.88
602.769	1624.89
602.965	1682.24
603.161	1628.99
603.357	1809.21
603.553	1950.52
603.75	1811.26
603.946	1813.31
604.142	2028.34
604.338	2122.55
604.534	2138.93
604.73	2083.64
604.926	2278.19
605.122	2489.14
605.318	2466.61
605.514	2521.9
605.71	2552.62
605.906	2685.74
606.102	2702.12
606.298	2849.58
606.494	3058.47
606.69	3103.53
606.886	3029.8
607.082	2956.07
607.278	3138.34
607.474	3302.18
607.67	3445.54
607.866	3377.95
608.062	3654.43
608.257	3783.45
608.453	3580.7
608.649	3969.82
608.845	3851.03
609.041	4012.82
609.236	4123.41
609.432	4135.7
609.628	4389.65
609.824	4578.06
610.019	4424.47
610.215	4797.2
610.411	4842.25
610.606	5153.54
610.802	4897.55
610.998	5182.21
611.193	5473.03
611.389	5432.07
611.584	5749.5
611.78	5800.7
611.976	5960.44
612.171	6304.5
612.367	6261.49
612.562	6556.4
612.758	6648.56
612.953	6638.32
613.149	6793.97
613.344	6992.62
613.539	7293.67
613.735	7506.66
613.93	7690.98
614.126	7695.07
614.321	8100.57
614.517	8403.67
614.712	8391.38
614.907	8645.33
615.103	8813.26
615.298	9173.71
615.493	9468.61
615.688	9384.65
615.884	9919.17
616.079	9863.87
616.274	10480.31
616.47	10332.86
616.665	10902.19
616.86	11088.56
617.055	11131.56
617.25	11438.76
617.445	12087.96
617.641	11868.83
617.836	12393.11
618.031	12405.4
618.226	13136.52
618.421	13296.27
618.616	13628.04
618.811	13814.4
619.006	14295.68
619.201	14779
619.396	14985.84
619.591	14772.85
619.786	15479.4
619.981	15569.51
620.176	16192.09
620.371	16384.6
620.566	16986.71
620.761	17103.44
620.956	17715.78
621.151	17623.62
621.346	18364.99
621.541	18471.48
621.735	19061.3
621.93	18864.69
622.125	19571.24
622.32	19665.45
622.515	20412.96
622.709	20552.22
622.904	21010.96
623.099	21527.05
623.294	21938.69
623.488	21697.03
623.683	22473.21
623.878	22512.13
624.072	23112.18
624.267	23153.14
624.462	23988.71
624.656	23814.63
624.851	24490.46
625.046	24545.76
625.24	24912.35
625.435	25420.24
625.629	25727.44
625.824	26110.41
626.018	26909.11
626.213	26560.96
626.407	27031.99
626.602	27230.65
626.796	27517.36
626.991	28156.33
627.185	28148.14
627.38	28273.06
627.574	28283.3
627.768	28432.8
627.963	28848.54
628.157	28791.2
628.352	29243.8
628.546	28752.29
628.74	29114.78
628.935	28823.97
629.129	28830.11
629.323	28776.86
629.517	28719.52
629.712	28297.64
629.906	28510.63
630.1	27908.52
630.294	28123.56
630.489	27718.06
630.683	27779.5
630.877	26778.04
631.071	26450.37
631.265	26241.48
631.459	25573.84
631.653	25076.18
631.848	24707.55
632.042	23904.74
632.236	23734.76
632.43	22843.9
632.624	22280.71
632.818	21531.15
633.012	20906.52
633.206	20568.6
633.4	19888.68
633.594	19298.86
633.788	18498.11
633.982	17984.07
634.176	17461.83
634.369	16505.43
634.563	15837.8
634.757	15370.86
634.951	14846.58
635.145	14203.52
635.339	13570.69
635.533	13329.03
635.726	12532.37
635.92	11977.37
636.114	11819.68
636.308	11088.56
636.501	10705.59
636.695	10422.97
636.889	9579.2
637.083	9415.37
637.276	9112.27
637.47	8426.2
637.664	8452.82
637.857	7989.98
638.051	7854.81
638.244	7312.1
638.438	7172.84
638.632	6839.02
638.825	6417.14
639.019	6353.65
639.212	5819.13
639.406	5806.84
639.599	5380.87
639.793	5247.75
639.986	4985.61
640.18	5008.14
640.373	4555.54
640.567	4627.21
640.76	4352.79
640.954	4104.98
641.147	4047.64
641.34	3836.7
641.534	3812.12
641.727	3701.53
641.92	3523.36
642.114	3320.61
642.307	3263.27
642.5	3197.73
642.694	3001.13
642.887	2882.35
643.08	2835.24
643.273	2607.92
643.467	2562.86
643.66	2478.9
643.853	2343.73
644.046	2276.15
644.239	2212.66
644.432	1962.81
644.626	1868.6
644.819	1774.39
645.012	1919.8
645.205	1829.69
645.398	1749.82
645.591	1684.28
645.784	1616.7
645.977	1487.68
646.17	1430.34
646.363	1403.71
646.556	1264.45
646.749	1237.83
646.942	1301.31
647.135	1346.37
647.328	1207.11
647.521	1008.45
647.714	969.54
647.907	1061.7
648.099	990.02
648.292	1127.24
648.485	967.49
648.678	822.09
648.871	824.14
649.064	873.29
649.256	701.26
649.449	662.35
649.642	570.19
649.835	688.97
650.027	566.09
650.22	693.07
650.413	590.67
650.605	641.87
650.798	662.35
650.991	629.58
651.183	564.04
651.376	541.52
651.568	641.87
651.761	353.1
651.954	537.42
652.146	445.26
652.339	531.28
652.531	652.11
652.724	406.35
652.916	383.82
653.109	316.24
653.301	543.57
653.494	389.97
653.686	443.21
653.879	494.41
654.071	437.07
654.263	334.67
654.456	277.33
654.648	516.94
654.84	379.73
655.033	295.76
655.225	385.87
655.417	224.08
655.61	408.4
655.802	334.67
655.994	355.15
656.186	211.79
656.379	285.52
656.571	250.71
656.763	256.85
656.955	162.64
657.148	201.55
657.34	338.77
657.532	265.04
657.724	224.08
657.916	318.29
658.108	283.47
658.3	277.33
658.492	308.05
658.684	84.82
658.876	230.23
659.068	76.63
659.26	111.44
659.452	142.16
659.644	250.71
659.836	310.1
660.028	187.22
660.22	183.12
660.412	150.36
660.604	127.83
660.796	236.37
660.988	174.93
661.18	254.8
661.372	172.88
661.563	138.07
661.755	224.08
661.947	84.82
662.139	39.76
662.331	176.98
662.522	179.03
662.714	56.15
662.906	179.03
663.097	156.5
663.289	191.31
663.481	121.68
663.673	160.59
663.864	142.16
664.056	148.31
664.247	136.02
664.439	230.23
664.631	224.08
664.822	254.8
665.014	90.96
665.205	131.92
665.397	97.11
665.588	205.65
665.78	133.97
665.971	148.31
666.163	113.49
666.354	174.93
666.546	80.72
666.737	150.36
666.929	97.11
667.12	168.79
667.311	160.59
667.503	107.35
667.694	131.92
667.885	158.55
668.077	193.36
668.268	105.3
668.459	72.53
668.651	109.4
668.842	117.59
669.033	80.72
669.224	29.52
669.416	293.71
669.607	50
669.798	66.39
669.989	232.27
670.18	125.78
670.371	222.03
670.563	29.52
670.754	185.17
670.945	176.98
671.136	211.79
671.327	144.21
671.518	226.13
671.709	283.47
671.9	170.83
672.091	269.14
672.282	129.88
672.473	273.23
672.664	160.59
672.855	150.36
673.046	172.88
673.237	238.42
673.428	217.94
673.619	234.32
673.809	140.12
674	285.52
674.191	219.99
674.382	195.41
674.573	95.06
674.764	148.31
674.954	287.57
675.145	127.83
675.336	174.93
675.527	172.88
675.717	82.77
675.908	174.93
676.099	115.54
676.289	160.59
676.48	80.72
676.671	191.31
676.861	88.92
677.052	205.65
677.243	191.31
677.433	185.17
677.624	265.04
677.814	211.79
678.005	129.88
678.195	275.28
678.386	191.31
678.576	215.89
678.767	115.54
678.957	164.69
679.148	211.79
679.338	314.19
679.529	291.66
679.719	166.74
679.909	254.8
680.1	291.66
680.29	293.71
680.481	86.87
680.671	260.95
680.861	240.47
681.052	275.28
681.242	183.12
681.432	228.18
681.622	240.47
681.813	150.36
682.003	215.89
682.193	160.59
682.383	291.66
682.573	172.88
682.764	191.31
682.954	234.32
683.144	293.71
683.334	140.12
683.524	312.14
683.714	324.43
683.904	281.43
684.094	213.84
684.284	273.23
684.474	334.67
684.664	301.9
684.854	222.03
685.044	230.23
685.234	256.85
685.424	260.95
685.614	205.65
685.804	412.5
685.994	303.95
686.184	260.95
686.374	277.33
686.564	244.56
686.753	254.8
686.943	201.55
687.133	234.32
687.323	254.8
687.513	322.38
687.702	285.52
687.892	293.71
688.082	287.57
688.272	414.54
688.461	240.47
688.651	492.37
688.841	310.1
689.03	197.46
689.22	267.09
689.41	344.91
689.599	252.75
689.789	275.28
689.979	303.95
690.168	326.48
690.358	322.38
690.547	310.1
690.737	172.88
690.926	295.76
691.116	328.53
691.305	349.01
691.495	240.47
691.684	209.75
691.874	283.47
692.063	289.62
692.252	336.72
692.442	320.34
692.631	301.9
692.82	197.46
693.01	281.43
693.199	168.79
693.388	287.57
693.578	287.57
693.767	359.25
693.956	238.42
694.146	293.71
694.335	240.47
694.524	244.56
694.713	316.24
694.902	215.89
695.092	199.51
695.281	308.05
695.47	256.85
695.659	234.32
695.848	252.75
696.037	213.84
696.226	222.03
696.415	254.8
696.604	271.19
696.793	232.27
696.982	222.03
697.171	334.67
697.36	174.93
697.549	269.14
697.738	191.31
697.927	230.23
698.116	129.88
698.305	277.33
698.494	244.56
698.683	265.04
698.872	355.15
699.061	187.22
699.25	195.41
699.438	301.9
699.627	209.75
699.816	349.01
700.005	170.83
700.193	215.89
700.382	285.52
700.571	283.47
700.76	320.34
700.948	303.95
701.137	289.62
701.326	267.09
701.514	193.36
701.703	224.08
701.892	273.23
702.08	357.2
702.269	168.79
702.457	131.92
702.646	193.36
702.834	240.47
703.023	301.9
703.212	281.43
703.4	322.38
703.589	150.36
703.777	197.46
703.965	158.55
704.154	277.33
704.342	76.63
704.531	117.59
704.719	275.28
704.907	338.77
705.096	187.22
705.284	189.27
705.472	197.46
705.661	310.1
705.849	285.52
706.037	361.3
706.226	283.47
706.414	289.62
706.602	230.23
706.79	297.81
706.979	201.55
707.167	238.42
707.355	199.51
707.543	168.79
707.731	207.7
707.919	248.66
708.107	217.94
708.296	154.45
708.484	162.64
708.672	250.71
708.86	332.62
709.048	168.79
709.236	148.31
709.424	267.09
709.612	277.33
709.8	74.58
709.988	127.83
710.176	318.29
710.364	324.43
710.551	217.94
710.739	293.71
710.927	189.27
711.115	230.23
711.303	195.41
711.491	351.06
711.679	162.64
711.866	283.47
712.054	310.1
712.242	236.37
712.43	285.52
712.617	207.7
712.805	314.19
712.993	209.75
713.181	146.26
713.368	314.19
713.556	213.84
713.744	256.85
713.931	385.87
714.119	265.04
714.306	193.36
714.494	197.46
714.682	240.47
714.869	150.36
715.057	222.03
715.244	170.83
715.432	242.51
715.619	230.23
715.807	185.17
715.994	172.88
716.182	277.33
716.369	338.77
716.556	230.23
716.744	150.36
716.931	144.21
717.119	306
717.306	181.07
717.493	322.38
717.681	236.37
717.868	273.23
718.055	277.33
718.242	277.33
718.43	248.66
718.617	330.58
718.804	265.04
718.991	355.15
719.179	238.42
719.366	308.05
719.553	252.75
719.74	228.18
719.927	219.99
720.114	314.19
720.301	156.5
720.488	156.5
720.676	269.14
720.863	363.34
721.05	385.87
721.237	281.43
721.424	377.68
721.611	301.9
721.798	230.23
721.985	252.75
722.172	240.47
722.358	238.42
722.545	312.14
722.732	377.68
722.919	355.15
723.106	232.27
723.293	230.23
723.48	267.09
723.667	193.36
723.853	363.34
724.04	346.96
724.227	324.43
724.414	228.18
724.6	265.04
724.787	387.92
724.974	404.3
725.161	326.48
725.347	226.13
725.534	316.24
725.72	289.62
725.907	324.43
726.094	328.53
726.28	283.47
726.467	236.37
726.653	248.66
726.84	385.87
727.027	359.25
727.213	244.56
727.4	279.38
727.586	316.24
727.773	254.8
727.959	256.85
728.145	340.82
728.332	330.58
728.518	262.99
728.705	394.06
728.891	293.71
729.077	226.13
729.264	273.23
729.45	336.72
729.636	326.48
729.823	332.62
730.009	361.3
730.195	371.54
730.382	371.54
730.568	275.28
730.754	308.05
730.94	291.66
731.126	308.05
731.313	314.19
731.499	265.04
731.685	381.78
731.871	279.38
732.057	320.34
732.243	445.26
732.429	299.86
732.615	510.8
732.801	363.34
732.987	269.14
733.173	312.14
733.359	250.71
733.545	316.24
733.731	269.14
733.917	334.67
734.103	312.14
734.289	314.19
734.475	242.51
734.661	437.07
734.847	289.62
735.033	277.33
735.219	430.93
735.404	349.01
735.59	303.95
735.776	232.27
735.962	445.26
736.148	410.45
736.333	383.82
736.519	279.38
736.705	437.07
736.89	222.03
737.076	377.68
737.262	269.14
737.447	330.58
737.633	226.13
737.819	437.07
738.004	299.86
738.19	330.58
738.375	291.66
738.561	430.93
738.747	328.53
738.932	215.89
739.118	414.54
739.303	379.73
739.489	424.78
739.674	326.48
739.859	252.75
740.045	355.15
740.23	379.73
740.416	203.6
740.601	359.25
740.786	318.29
740.972	230.23
741.157	248.66
741.342	275.28
741.528	246.61
741.713	394.06
741.898	303.95
742.084	312.14
742.269	349.01
742.454	355.15
742.639	430.93
742.824	299.86
743.01	492.37
743.195	435.02
743.38	283.47
743.565	326.48
743.75	361.3
743.935	377.68
744.12	404.3
744.305	172.88
744.49	316.24
744.675	338.77
744.86	306
745.045	383.82
745.23	242.51
745.415	334.67
745.6	408.4
745.785	217.94
745.97	392.02
746.155	332.62
746.34	377.68
746.525	322.38
746.71	344.91
746.895	250.71
747.079	197.46
747.264	295.76
747.449	324.43
747.634	344.91
747.819	328.53
748.003	283.47
748.188	195.41
748.373	342.86
748.557	322.38
748.742	199.51
748.927	320.34
749.111	234.32
749.296	285.52
749.481	418.64
749.665	234.32
749.85	244.56
750.034	387.92
750.219	262.99
750.404	203.6
750.588	308.05
750.773	181.07
750.957	349.01
751.141	234.32
751.326	310.1
751.51	172.88
751.695	291.66
751.879	176.98
752.064	371.54
752.248	215.89
752.432	375.63
752.617	238.42
752.801	314.19
752.985	250.71
753.17	381.78
753.354	246.61
753.538	224.08
753.722	222.03
753.907	189.27
754.091	187.22
754.275	230.23
754.459	107.35
754.643	199.51
754.828	246.61
755.012	277.33
755.196	199.51
755.38	205.65
755.564	170.83
755.748	252.75
755.932	199.51
756.116	246.61
756.3	199.51
756.484	226.13
756.668	265.04
756.852	39.76
757.036	191.31
757.22	209.75
757.404	258.9
757.588	62.29
757.772	238.42
757.956	189.27
758.14	342.86
758.323	129.88
758.507	262.99
758.691	179.03
758.875	310.1
759.059	236.37
759.242	105.3
759.426	146.26
759.61	267.09
759.794	103.25
759.977	205.65
760.161	402.26
760.345	279.38
760.528	244.56
760.712	213.84
760.895	203.6
761.079	119.64
761.263	82.77
761.446	113.49
761.63	172.88
761.813	232.27
761.997	47.96
762.18	181.07
762.364	154.45
762.547	-17.58
762.731	129.88
762.914	207.7
763.098	150.36
763.281	156.5
763.464	103.25
763.648	107.35
763.831	97.11
764.015	99.16
764.198	170.83
764.381	146.26
764.564	117.59
764.748	234.32
764.931	127.83
765.114	148.31
765.297	152.4
765.481	76.63
765.664	162.64
765.847	86.87
766.03	201.55
766.213	103.25
766.397	185.17
766.58	121.68
766.763	242.51
766.946	121.68
767.129	142.16
767.312	127.83
767.495	111.44
767.678	115.54
767.861	176.98
768.044	185.17
768.227	39.76
768.41	33.62
768.593	146.26
768.776	136.02
768.959	150.36
769.142	244.56
769.324	97.11
769.507	127.83
769.69	119.64
769.873	117.59
770.056	287.57
770.239	95.06
770.421	193.36
770.604	129.88
770.787	105.3
770.97	95.06
771.152	2.9
771.335	191.31
771.518	78.68
771.7	244.56
771.883	271.19
772.066	33.62
772.248	66.39
772.431	238.42
772.613	127.83
772.796	121.68
772.978	201.55
773.161	187.22
773.343	-5.29
773.526	109.4
773.708	56.15
773.891	52.05
774.073	52.05
774.256	111.44
774.438	285.52
774.621	0.85
774.803	131.92
774.985	76.63
775.168	121.68
775.35	84.82
775.532	90.96
775.715	68.44
775.897	148.31
776.079	80.72
776.261	150.36
776.444	115.54
776.626	148.31
776.808	80.72
776.99	31.57
777.173	123.73
777.355	111.44
777.537	47.96
777.719	105.3
777.901	-31.91
778.083	-38.06
778.265	13.14
778.447	125.78
778.629	-33.96
778.811	86.87
778.993	37.72
779.175	160.59
779.357	133.97
779.539	47.96
779.721	43.86
779.903	60.24
780.085	58.2
780.267	93.01
780.449	82.77
780.631	99.16
780.812	164.69
780.994	76.63
781.176	107.35
781.358	56.15
781.54	152.4
781.721	138.07
781.903	201.55
782.085	37.72
782.267	76.63
782.448	-13.48
782.63	72.53
782.812	152.4
782.993	107.35
783.175	109.4
783.357	-13.48
783.538	97.11
783.72	23.38
783.901	37.72
784.083	74.58
784.264	146.26
784.446	-15.53
784.627	17.24
784.809	103.25
784.99	-29.87
785.172	86.87
785.353	-3.24
785.535	74.58
785.716	-9.39
785.897	35.67
786.079	103.25
786.26	103.25
786.441	15.19
786.623	-29.87
786.804	-1.19
786.985	66.39
787.167	37.72
787.348	13.14
787.529	54.1
787.71	174.93
787.891	90.96
788.073	84.82
788.254	17.24
788.435	133.97
788.616	50
788.797	47.96
788.978	31.57
789.159	21.33
789.34	52.05
789.522	-1.19
789.703	25.43
789.884	88.92
790.065	47.96
790.246	240.47
790.427	9.05
790.607	224.08
790.788	35.67
790.969	-7.34
791.15	39.76
791.331	-46.25
791.512	-1.19
791.693	27.48
791.874	60.24
792.054	219.99
792.235	93.01
792.416	-42.15
792.597	27.48
792.778	90.96
792.958	27.48
793.139	29.52
793.32	82.77
793.5	15.19
793.681	39.76
793.862	27.48
794.042	37.72
794.223	-124.07
794.404	27.48
794.584	-21.67
794.765	39.76
794.945	-7.34
795.126	95.06
795.306	154.45
795.487	-3.24
795.667	58.2
795.848	62.29
796.028	17.24
796.209	78.68
796.389	43.86
796.57	4.95
796.75	-68.78
796.93	21.33
797.111	-17.58
797.291	2.9
797.471	93.01
797.652	39.76
797.832	-50.35
798.012	125.78
798.192	-7.34
798.373	-56.49
798.553	-50.35
798.733	90.96
798.913	-62.63
799.093	31.57
799.274	11.09
799.454	99.16
799.634	156.5
799.814	117.59
799.994	150.36
800.174	90.96
800.354	27.48
800.534	-85.16
800.714	99.16
800.894	-7.34
801.074	27.48
801.254	-5.29
801.434	123.73
801.614	45.91
801.794	-44.2
801.974	1891.13
802.154	-13.48
802.334	95.06
802.514	11.09
802.693	13.14
802.873	-9.39
803.053	76.63
803.233	103.25
803.413	9.05
803.592	-50.35
803.772	-7.34
803.952	88.92
804.131	-117.93
804.311	125.78
804.491	109.4
804.67	-13.48
804.85	-72.87
805.03	37.72
805.209	58.2
805.389	27.48
805.568	-56.49
805.748	-33.96
805.928	31.57
806.107	45.91
806.287	74.58
806.466	113.49
806.646	-13.48
806.825	56.15
807.004	0.85
807.184	0.85
807.363	64.34
807.543	146.26
807.722	15.19
807.901	236.37
808.081	88.92
808.26	-103.59
808.439	4.95
808.619	33.62
808.798	2.9
808.977	52.05
809.156	129.88
809.336	9.05
809.515	129.88
809.694	-17.58
809.873	7
810.052	121.68
810.231	43.86
810.411	19.29
810.59	60.24
810.769	-11.43
810.948	23.38
811.127	-115.88
811.306	-85.16
811.485	-17.58
811.664	154.45
811.843	-9.39
812.022	66.39
812.201	-72.87
812.38	-9.39
812.559	-36.01
812.737	2.9
812.916	-130.22
813.095	-44.2
813.274	4.95
813.453	-9.39
813.632	39.76
813.811	19.29
813.989	-64.68
814.168	0.85
814.347	7
814.526	-13.48
814.704	160.59
814.883	80.72
815.062	-109.74
815.24	-3.24
815.419	-91.31
815.598	144.21
815.776	-173.22
815.955	21.33
816.133	-66.73
816.312	17.24
816.49	25.43
816.669	-15.53
816.847	-21.67
817.026	86.87
817.204	31.57
817.383	-36.01
817.561	-54.44
817.74	-5.29
817.918	9.05
818.097	-52.39
818.275	66.39
818.453	7
818.632	2.9
818.81	-25.77
818.988	-17.58
819.167	-58.54
819.345	54.1
819.523	-66.73
819.701	50
819.879	58.2
820.058	-7.34
820.236	-13.48
820.414	35.67
820.592	33.62
820.77	-7.34
820.948	-23.72
821.127	0.85
821.305	62.29
821.483	-54.44
821.661	78.68
821.839	11.09
822.017	-5.29
822.195	-52.39
822.373	109.4
822.551	-5.29
822.729	76.63
822.907	-9.39
823.085	9.05
823.262	7
823.44	-50.35
823.618	19.29
823.796	50
823.974	50
824.152	-54.44
824.329	-21.67
824.507	80.72
824.685	105.3
824.863	78.68
825.04	-5.29
825.218	117.59
825.396	-38.06
825.574	64.34
825.751	13.14
825.929	35.67
826.107	-89.26
826.284	19.29
826.462	62.29
826.639	35.67
826.817	-107.69
826.994	2.9
827.172	-3.24
827.349	121.68
827.527	37.72
827.704	-17.58
827.882	80.72
828.059	-9.39
828.237	19.29
828.414	191.31
828.591	-117.93
828.769	-31.91
828.946	11.09
829.124	74.58
829.301	88.92
829.478	33.62
829.655	58.2
829.833	64.34
830.01	-212.14
830.187	-17.58
830.364	-5.29
830.542	66.39
830.719	99.16
830.896	9.05
831.073	47.96
831.25	9.05
831.427	23.38
831.604	-83.11
831.782	-64.68
831.959	0.85
832.136	72.53
832.313	2.9
832.49	27.48
832.667	29.52
832.844	-29.87
833.021	123.73
833.198	39.76
833.374	29.52
833.551	99.16
833.728	29.52
833.905	58.2
834.082	-95.4
834.259	2.9
834.436	80.72
834.612	-95.4
834.789	33.62
834.966	29.52
835.143	23.38
835.319	-36.01
835.496	50
835.673	58.2
835.85	93.01
836.026	25.43
836.203	78.68
836.38	0.85
836.556	-7.34
836.733	2.9
836.909	62.29
837.086	-27.82
837.262	-97.45
837.439	52.05
837.616	-40.11
837.792	-64.68
837.968	4.95
838.145	-74.92
838.321	19.29
838.498	7
838.674	0.85
838.851	78.68
839.027	-5.29
839.203	-3.24
839.38	13.14
839.556	-17.58
839.732	13.14
839.909	27.48
840.085	80.72
840.261	-46.25
840.437	-3.24
840.614	-31.91
840.79	111.44
840.966	84.82
841.142	13.14
841.318	7
841.494	43.86
841.671	93.01
841.847	-91.31
842.023	-50.35
842.199	62.29
842.375	127.83
842.551	-126.12
842.727	-103.59
842.903	127.83
843.079	-101.55
843.255	115.54
843.431	95.06
843.607	7
843.783	-101.55
843.959	25.43
844.134	-48.3
844.31	115.54
844.486	-38.06
844.662	-42.15
844.838	-15.53
845.013	39.76
845.189	107.35
845.365	119.64
845.541	56.15
845.716	-29.87
845.892	68.44
846.068	-66.73
846.244	-60.59
846.419	-19.63
846.595	-36.01
846.77	-13.48
846.946	62.29
847.122	-52.39
847.297	-38.06
847.473	80.72
847.648	-140.46
847.824	-38.06
847.999	-13.48
848.175	-25.77
848.35	0.85
848.526	68.44
848.701	113.49
848.876	23.38
849.052	203.6
849.227	19.29
849.403	-7.34
849.578	-40.11
849.753	0.85
849.929	136.02
850.104	-109.74
850.279	47.96
850.454	-7.34
850.63	58.2
850.805	54.1
850.98	-40.11
851.155	-15.53
851.33	-33.96
851.505	-97.45
851.681	78.68
851.856	-60.59
852.031	45.91
852.206	21.33
852.381	-93.35
852.556	7
852.731	-11.43
852.906	15.19
853.081	62.29
853.256	90.96
853.431	11.09
853.606	7
853.781	-19.63
853.956	-119.98
854.131	62.29
854.305	-42.15
854.48	-56.49
854.655	-13.48
854.83	-60.59
855.005	19.29
855.18	9.05
855.354	-50.35
855.529	52.05
855.704	-68.78
855.879	62.29
856.053	-66.73
856.228	-60.59
856.403	-140.46
856.577	-33.96
856.752	-111.78
856.926	11.09
857.101	17.24
857.276	-46.25
857.45	-33.96
857.625	84.82
857.799	43.86
857.974	-23.72
858.148	-101.55
858.323	52.05
858.497	-48.3
858.672	-83.11
858.846	-54.44
859.02	70.48
859.195	-117.93
859.369	-44.2
859.543	47.96
859.718	-17.58
859.892	29.52
860.066	84.82
860.241	-33.96
860.415	-64.68
860.589	43.86
860.763	-25.77
860.938	7
861.112	52.05
861.286	-85.16
861.46	-1.19
861.634	-13.48
861.808	25.43
861.982	-79.02
862.157	-64.68
862.331	-95.4
862.505	-36.01
862.679	-156.84
862.853	-7.34
863.027	-3.24
863.201	64.34
863.375	-56.49
863.549	2.9
863.722	-25.77
863.896	58.2
864.07	-74.92
864.244	-50.35
864.418	80.72
864.592	0.85
864.766	27.48
864.939	-19.63
865.113	7
865.287	11.09
865.461	-15.53
865.634	0.85
865.808	17.24
865.982	21.33
866.156	-79.02
866.329	-25.77
866.503	-40.11
866.676	105.3
866.85	31.57
867.024	27.48
867.197	60.24
867.371	15.19
867.544	-7.34
867.718	-105.64
867.891	72.53
868.065	-15.53
868.238	82.77
868.412	52.05
868.585	-13.48
868.759	-85.16
868.932	-21.67
869.105	-85.16
869.279	7
869.452	-89.26
869.625	64.34
869.799	23.38
869.972	-95.4
870.145	-17.58
870.319	90.96
870.492	-58.54
870.665	-3.24
870.838	-76.97
871.011	-56.49
871.185	41.81
871.358	-1.19
871.531	-1.19
871.704	25.43
871.877	68.44
872.05	2.9
872.223	27.48
872.396	52.05
872.569	58.2
872.742	-113.83
872.915	11.09
873.088	-36.01
873.261	-36.01
873.434	35.67
873.607	-23.72
873.78	84.82
873.953	-85.16
874.126	13.14
874.299	27.48
874.471	-15.53
874.644	13.14
874.817	123.73
874.99	93.01
875.163	0.85
875.335	70.48
875.508	-87.21
875.681	33.62
875.853	-5.29
876.026	60.24
876.199	56.15
876.371	35.67
876.544	-5.29
876.717	9.05
876.889	15.19
877.062	76.63
877.234	-46.25
877.407	-109.74
877.579	-27.82
877.752	-11.43
877.924	66.39
878.097	-46.25
878.269	74.58
878.442	-11.43
878.614	76.63
878.786	-3.24
878.959	9.05
879.131	-46.25
879.303	-119.98
879.476	-74.92
879.648	47.96
879.82	-52.39
879.993	-89.26
880.165	-44.2
880.337	-46.25
880.509	62.29
880.681	-122.02
880.854	-62.63
881.026	109.4
881.198	158.55
881.37	13.14
881.542	-42.15
881.714	-50.35
881.886	-23.72
882.058	52.05
882.23	45.91
882.402	45.91
882.574	31.57
882.746	60.24
882.918	56.15
883.09	39.76
883.262	19.29
883.434	-13.48
883.606	-42.15
883.778	-36.01
883.95	121.68
884.122	-38.06
884.293	21.33
884.465	-13.48
884.637	127.83
884.809	-23.72
884.98	45.91
885.152	109.4
885.324	-9.39
885.496	-97.45
885.667	-29.87
885.839	-66.73
886.011	99.16
886.182	0.85
886.354	105.3
886.525	15.19
886.697	-54.44
886.869	-103.59
887.04	-95.4
887.212	103.25
887.383	84.82
887.555	-36.01
887.726	-15.53
887.897	17.24
888.069	50
888.24	88.92
888.412	-29.87
888.583	-21.67
888.754	-27.82
888.926	-146.6
889.097	-21.67
889.268	-177.32
889.44	35.67
889.611	-83.11
889.782	-19.63
889.953	-52.39
890.125	62.29
890.296	-52.39
890.467	-17.58
890.638	-126.12
890.809	-40.11
890.98	-101.55
891.151	68.44
891.323	133.97
891.494	37.72
891.665	0.85
891.836	-46.25
892.007	35.67
892.178	60.24
892.349	4.95
892.52	-15.53
892.691	-31.91
892.862	-15.53
893.032	-136.36
893.203	-15.53
893.374	-68.78
893.545	58.2
893.716	-13.48
893.887	45.91
894.057	-76.97
894.228	-11.43
894.399	-74.92
894.57	62.29
894.74	37.72
894.911	-33.96
895.082	4.95
895.253	-44.2
895.423	0.85
895.594	97.11
895.764	68.44
895.935	-83.11
896.106	45.91
896.276	-44.2
896.447	-56.49
896.617	-36.01
896.788	-89.26
896.958	-19.63
897.129	-25.77
897.299	-29.87
897.47	88.92
897.64	52.05
897.81	-46.25
897.981	-29.87
898.151	-62.63
898.322	-31.91
898.492	131.92
898.662	-132.26
898.832	-29.87
899.003	27.48
899.173	43.86
899.343	-158.89
899.513	-29.87
