Data from USB4F104151__71__10-31-56-052.txt Node

Date: Wed Feb 26 10:31:56 EST 2025
User: louis
Spectrometer: USB4F10415
Trigger mode: 4
Integration Time (sec): 1.000000E-1
Scans to average: 1
Electric dark correction enabled: true
Nonlinearity correction enabled: false
Boxcar width: 0
XAxis mode: Wavelengths
Number of Pixels in Spectrum: 3648
>>>>>Begin Spectral Data<<<<<
178.204	-413.18
178.424	-413.18
178.644	-413.18
178.864	-427.51
179.084	-394.75
179.304	-48.64
179.524	-5.63
179.744	37.38
179.964	53.76
180.184	2.56
180.404	53.76
180.624	-5.63
180.844	37.38
181.064	-91.65
181.283	-7.68
181.503	-17.92
181.723	-7.68
181.943	-38.4
182.163	141.82
182.383	-24.06
182.602	-1.54
182.822	143.87
183.042	96.77
183.262	-65.02
183.482	25.09
183.701	76.29
183.921	20.99
184.141	-103.93
184.361	100.86
184.58	25.09
184.8	80.38
185.02	0.51
185.239	27.14
185.459	18.94
185.679	104.96
185.898	-116.22
186.118	27.14
186.338	-1.54
186.557	98.81
186.777	-79.36
186.997	-7.68
187.216	31.23
187.436	186.88
187.655	70.14
187.875	66.05
188.095	10.75
188.314	152.06
188.534	125.44
188.753	16.9
188.973	152.06
189.192	123.39
189.412	-58.88
189.631	10.75
189.851	47.62
190.07	168.45
190.29	-71.17
190.509	-15.87
190.729	27.14
190.948	158.21
191.168	260.6
191.387	23.04
191.607	37.38
191.826	96.77
192.045	27.14
192.265	-62.98
192.484	-32.26
192.704	113.15
192.923	-50.69
193.142	180.73
193.362	147.97
193.581	123.39
193.8	4.61
194.02	82.43
194.239	84.48
194.458	55.81
194.678	31.23
194.897	16.9
195.116	104.96
195.335	29.18
195.555	45.57
195.774	-15.87
195.993	70.14
196.212	10.75
196.432	18.94
196.651	53.76
196.87	20.99
197.089	252.41
197.308	6.66
197.528	70.14
197.747	-58.88
197.966	14.85
198.185	145.92
198.404	-130.56
198.623	199.16
198.842	133.63
199.062	59.9
199.281	66.05
199.5	100.86
199.719	39.42
199.938	162.3
200.157	29.18
200.376	92.67
200.595	92.67
200.814	43.52
201.033	-19.97
201.252	137.73
201.471	115.2
201.69	109.05
201.909	20.99
202.128	137.73
202.347	43.52
202.566	-17.92
202.785	29.18
203.004	41.47
203.223	279.04
203.442	35.33
203.661	-50.69
203.879	-1.54
204.098	113.15
204.317	-11.78
204.536	96.77
204.755	25.09
204.974	172.54
205.193	-22.02
205.411	115.2
205.63	84.48
205.849	49.66
206.068	-50.69
206.287	-105.98
206.505	59.9
206.724	-34.3
206.943	-38.4
207.162	-48.64
207.381	55.81
207.599	25.09
207.818	2.56
208.037	-73.21
208.255	41.47
208.474	25.09
208.693	121.34
208.911	-15.87
209.13	66.05
209.349	-34.3
209.567	59.9
209.786	53.76
210.005	147.97
210.223	88.57
210.442	-60.93
210.661	70.14
210.879	51.71
211.098	31.23
211.316	39.42
211.535	104.96
211.753	-1.54
211.972	76.29
212.191	-62.98
212.409	-36.35
212.628	150.01
212.846	-73.21
213.065	92.67
213.283	68.09
213.502	61.95
213.72	-67.07
213.938	31.23
214.157	20.99
214.375	107.01
214.594	-62.98
214.812	80.38
215.031	47.62
215.249	-22.02
215.467	49.66
215.686	31.23
215.904	25.09
216.122	125.44
216.341	115.2
216.559	76.29
216.778	72.19
216.996	35.33
217.214	72.19
217.432	-60.93
217.651	-83.45
217.869	76.29
218.087	70.14
218.306	-50.69
218.524	-11.78
218.742	31.23
218.96	18.94
219.179	35.33
219.397	33.28
219.615	240.12
219.833	158.21
220.051	-42.5
220.27	82.43
220.488	90.62
220.706	-7.68
220.924	-28.16
221.142	-24.06
221.36	27.14
221.578	53.76
221.796	68.09
222.015	2.56
222.233	57.86
222.451	219.64
222.669	-87.55
222.887	23.04
223.105	-17.92
223.323	141.82
223.541	-50.69
223.759	55.81
223.977	-32.26
224.195	172.54
224.413	-32.26
224.631	-1.54
224.849	33.28
225.067	90.62
225.285	-5.63
225.503	16.9
225.721	-71.17
225.939	49.66
226.157	64
226.375	240.12
226.592	6.66
226.81	-9.73
227.028	137.73
227.246	45.57
227.464	-26.11
227.682	98.81
227.9	33.28
228.117	6.66
228.335	59.9
228.553	-9.73
228.771	8.7
228.989	-67.07
229.206	125.44
229.424	-7.68
229.642	-9.73
229.86	-52.74
230.077	107.01
230.295	-67.07
230.513	102.91
230.731	6.66
230.948	127.49
231.166	150.01
231.384	27.14
231.601	14.85
231.819	180.73
232.037	31.23
232.254	-67.07
232.472	-13.82
232.689	37.38
232.907	47.62
233.125	-36.35
233.342	-13.82
233.56	-7.68
233.777	23.04
233.995	109.05
234.213	96.77
234.43	18.94
234.648	84.48
234.865	6.66
235.083	74.24
235.3	59.9
235.518	-1.54
235.735	86.53
235.953	53.76
236.17	-83.45
236.388	-24.06
236.605	20.99
236.822	68.09
237.04	55.81
237.257	39.42
237.475	-5.63
237.692	10.75
237.909	80.38
238.127	-1.54
238.344	133.63
238.562	61.95
238.779	-26.11
238.996	-30.21
239.214	23.04
239.431	37.38
239.648	18.94
239.865	35.33
240.083	14.85
240.3	64
240.517	8.7
240.735	-22.02
240.952	107.01
241.169	35.33
241.386	16.9
241.603	8.7
241.821	-15.87
242.038	82.43
242.255	100.86
242.472	-50.69
242.689	145.92
242.907	16.9
243.124	-13.82
243.341	-9.73
243.558	-3.58
243.775	39.42
243.992	-40.45
244.209	117.25
244.426	184.83
244.643	39.42
244.86	61.95
245.078	47.62
245.295	51.71
245.512	74.24
245.729	-22.02
245.946	31.23
246.163	23.04
246.38	35.33
246.597	18.94
246.814	2.56
247.031	41.47
247.248	86.53
247.464	74.24
247.681	57.86
247.898	70.14
248.115	78.33
248.332	33.28
248.549	158.21
248.766	82.43
248.983	45.57
249.2	59.9
249.417	82.43
249.633	20.99
249.85	29.18
250.067	10.75
250.284	49.66
250.501	37.38
250.717	33.28
250.934	-9.73
251.151	41.47
251.368	35.33
251.585	-7.68
251.801	14.85
252.018	-3.58
252.235	86.53
252.451	-44.54
252.668	-34.3
252.885	107.01
253.102	-5.63
253.318	64
253.535	10.75
253.752	-38.4
253.968	-60.93
254.185	-54.78
254.401	47.62
254.618	55.81
254.835	-34.3
255.051	16.9
255.268	64
255.484	-42.5
255.701	-42.5
255.917	94.72
256.134	-60.93
256.351	82.43
256.567	-38.4
256.784	20.99
257	10.75
257.217	35.33
257.433	64
257.65	66.05
257.866	84.48
258.082	-5.63
258.299	-19.97
258.515	-24.06
258.732	-67.07
258.948	-62.98
259.165	70.14
259.381	-79.36
259.597	29.18
259.814	6.66
260.03	18.94
260.246	-26.11
260.463	100.86
260.679	86.53
260.895	41.47
261.112	51.71
261.328	35.33
261.544	-44.54
261.761	104.96
261.977	-36.35
262.193	-108.03
262.409	41.47
262.626	8.7
262.842	55.81
263.058	33.28
263.274	102.91
263.49	-5.63
263.707	86.53
263.923	115.2
264.139	-36.35
264.355	72.19
264.571	80.38
264.787	119.29
265.004	100.86
265.22	49.66
265.436	-15.87
265.652	-1.54
265.868	-5.63
266.084	-44.54
266.3	12.8
266.516	-69.12
266.732	-44.54
266.948	39.42
267.164	31.23
267.38	92.67
267.596	66.05
267.812	166.4
268.028	-17.92
268.244	-30.21
268.46	72.19
268.676	10.75
268.892	125.44
269.108	-24.06
269.324	-67.07
269.54	-40.45
269.756	-5.63
269.972	-13.82
270.188	0.51
270.403	-11.78
270.619	39.42
270.835	29.18
271.051	-17.92
271.267	-28.16
271.483	-28.16
271.698	158.21
271.914	78.33
272.13	39.42
272.346	-13.82
272.562	-30.21
272.777	102.91
272.993	-24.06
273.209	-24.06
273.425	10.75
273.64	-60.93
273.856	70.14
274.072	-3.58
274.287	-48.64
274.503	10.75
274.719	64
274.934	64
275.15	-58.88
275.366	14.85
275.581	43.52
275.797	86.53
276.012	29.18
276.228	8.7
276.444	33.28
276.659	117.25
276.875	-26.11
277.09	-67.07
277.306	31.23
277.521	80.38
277.737	-5.63
277.952	4.61
278.168	37.38
278.383	115.2
278.599	-11.78
278.814	133.63
279.03	6.66
279.245	125.44
279.461	-17.92
279.676	47.62
279.892	12.8
280.107	-69.12
280.322	-46.59
280.538	43.52
280.753	-54.78
280.969	2.56
281.184	-58.88
281.399	147.97
281.615	8.7
281.83	10.75
282.045	4.61
282.26	-60.93
282.476	-9.73
282.691	76.29
282.906	115.2
283.122	76.29
283.337	-58.88
283.552	113.15
283.767	-24.06
283.983	88.57
284.198	8.7
284.413	55.81
284.628	-52.74
284.843	10.75
285.058	94.72
285.274	10.75
285.489	-15.87
285.704	35.33
285.919	-40.45
286.134	66.05
286.349	-19.97
286.564	-56.83
286.779	172.54
286.995	2.56
287.21	-32.26
287.425	80.38
287.64	37.38
287.855	57.86
288.07	-24.06
288.285	195.07
288.5	70.14
288.715	96.77
288.93	-5.63
289.145	0.51
289.36	76.29
289.575	12.8
289.79	33.28
290.004	4.61
290.219	104.96
290.434	-42.5
290.649	55.81
290.864	0.51
291.079	10.75
291.294	102.91
291.509	107.01
291.724	25.09
291.938	-62.98
292.153	41.47
292.368	-9.73
292.583	39.42
292.798	47.62
293.012	33.28
293.227	123.39
293.442	-15.87
293.657	68.09
293.871	39.42
294.086	78.33
294.301	133.63
294.516	111.1
294.73	31.23
294.945	-17.92
295.16	27.14
295.374	176.64
295.589	156.16
295.804	6.66
296.018	55.81
296.233	92.67
296.447	14.85
296.662	-40.45
296.877	84.48
297.091	102.91
297.306	27.14
297.52	-69.12
297.735	88.57
297.949	35.33
298.164	33.28
298.378	72.19
298.593	6.66
298.807	-17.92
299.022	-5.63
299.236	119.29
299.451	31.23
299.665	0.51
299.88	12.8
300.094	6.66
300.309	-65.02
300.523	84.48
300.737	35.33
300.952	117.25
301.166	18.94
301.381	43.52
301.595	-28.16
301.809	57.86
302.024	-26.11
302.238	-87.55
302.452	68.09
302.667	37.38
302.881	133.63
303.095	96.77
303.309	39.42
303.524	10.75
303.738	37.38
303.952	0.51
304.166	45.57
304.381	-120.32
304.595	117.25
304.809	29.18
305.023	72.19
305.237	-22.02
305.452	-17.92
305.666	43.52
305.88	18.94
306.094	84.48
306.308	55.81
306.522	66.05
306.736	57.86
306.95	86.53
307.164	4.61
307.379	-7.68
307.593	76.29
307.807	109.05
308.021	119.29
308.235	14.85
308.449	-52.74
308.663	0.51
308.877	188.93
309.091	47.62
309.305	137.73
309.519	-126.46
309.733	92.67
309.947	-58.88
310.161	33.28
310.374	68.09
310.588	86.53
310.802	-77.31
311.016	-5.63
311.23	-50.69
311.444	-13.82
311.658	29.18
311.872	119.29
312.085	121.34
312.299	107.01
312.513	152.06
312.727	127.49
312.941	-91.65
313.154	18.94
313.368	-30.21
313.582	51.71
313.796	61.95
314.009	-17.92
314.223	104.96
314.437	51.71
314.651	53.76
314.864	-9.73
315.078	-32.26
315.292	-83.45
315.505	16.9
315.719	12.8
315.933	59.9
316.146	-75.26
316.36	-60.93
316.573	55.81
316.787	39.42
317.001	10.75
317.214	-50.69
317.428	145.92
317.641	10.75
317.855	-26.11
318.068	-5.63
318.282	39.42
318.495	156.16
318.709	16.9
318.922	53.76
319.136	164.35
319.349	139.77
319.563	-32.26
319.776	41.47
319.99	-1.54
320.203	125.44
320.417	-5.63
320.63	86.53
320.843	127.49
321.057	82.43
321.27	-9.73
321.483	135.68
321.697	92.67
321.91	-42.5
322.124	-1.54
322.337	115.2
322.55	-17.92
322.763	4.61
322.977	107.01
323.19	-62.98
323.403	39.42
323.617	78.33
323.83	64
324.043	-7.68
324.256	64
324.469	-48.64
324.683	111.1
324.896	20.99
325.109	59.9
325.322	-60.93
325.535	47.62
325.748	59.9
325.962	-19.97
326.175	14.85
326.388	8.7
326.601	72.19
326.814	49.66
327.027	27.14
327.24	152.06
327.453	-79.36
327.666	4.61
327.879	143.87
328.092	51.71
328.305	86.53
328.518	-38.4
328.731	-17.92
328.944	-24.06
329.157	31.23
329.37	25.09
329.583	133.63
329.796	141.82
330.009	-62.98
330.222	61.95
330.435	109.05
330.648	47.62
330.861	45.57
331.073	131.58
331.286	82.43
331.499	68.09
331.712	-60.93
331.925	33.28
332.138	100.86
332.35	137.73
332.563	-24.06
332.776	117.25
332.989	-24.06
333.202	-13.82
333.414	76.29
333.627	-1.54
333.84	25.09
334.053	55.81
334.265	-91.65
334.478	-30.21
334.691	43.52
334.903	27.14
335.116	37.38
335.329	51.71
335.541	39.42
335.754	84.48
335.966	64
336.179	35.33
336.392	-3.58
336.604	-28.16
336.817	117.25
337.029	-5.63
337.242	80.38
337.454	74.24
337.667	55.81
337.88	102.91
338.092	31.23
338.305	68.09
338.517	20.99
338.729	27.14
338.942	129.53
339.154	-34.3
339.367	-52.74
339.579	47.62
339.792	-46.59
340.004	70.14
340.217	55.81
340.429	-22.02
340.641	43.52
340.854	-15.87
341.066	-15.87
341.278	162.3
341.491	201.21
341.703	76.29
341.915	14.85
342.128	109.05
342.34	16.9
342.552	-28.16
342.764	23.04
342.977	20.99
343.189	64
343.401	82.43
343.613	-163.33
343.826	-13.82
344.038	-28.16
344.25	10.75
344.462	-26.11
344.674	23.04
344.886	64
345.099	14.85
345.311	76.29
345.523	49.66
345.735	-40.45
345.947	66.05
346.159	23.04
346.371	72.19
346.583	76.29
346.795	135.68
347.007	-24.06
347.219	72.19
347.431	51.71
347.643	147.97
347.855	-67.07
348.067	8.7
348.279	-26.11
348.491	25.09
348.703	117.25
348.915	-62.98
349.127	-60.93
349.339	41.47
349.551	-7.68
349.763	139.77
349.975	37.38
350.187	137.73
350.399	141.82
350.61	131.58
350.822	14.85
351.034	51.71
351.246	55.81
351.458	61.95
351.669	80.38
351.881	96.77
352.093	98.81
352.305	178.69
352.517	64
352.728	154.11
352.94	29.18
353.152	37.38
353.363	-87.55
353.575	94.72
353.787	162.3
353.999	72.19
354.21	152.06
354.422	-83.45
354.633	-17.92
354.845	-5.63
355.057	-3.58
355.268	49.66
355.48	55.81
355.692	-36.35
355.903	141.82
356.115	-24.06
356.326	-103.93
356.538	133.63
356.749	88.57
356.961	154.11
357.172	23.04
357.384	-58.88
357.595	182.78
357.807	-26.11
358.018	41.47
358.23	12.8
358.441	133.63
358.653	39.42
358.864	-32.26
359.075	-48.64
359.287	102.91
359.498	107.01
359.709	119.29
359.921	92.67
360.132	49.66
360.344	49.66
360.555	16.9
360.766	49.66
360.977	39.42
361.189	72.19
361.4	14.85
361.611	147.97
361.823	121.34
362.034	27.14
362.245	-65.02
362.456	18.94
362.667	39.42
362.879	-15.87
363.09	-28.16
363.301	90.62
363.512	33.28
363.723	20.99
363.935	47.62
364.146	55.81
364.357	76.29
364.568	-1.54
364.779	-46.59
364.99	92.67
365.201	-65.02
365.412	37.38
365.623	-34.3
365.834	111.1
366.045	25.09
366.256	33.28
366.467	113.15
366.678	66.05
366.889	-42.5
367.1	2.56
367.311	104.96
367.522	-15.87
367.733	41.47
367.944	82.43
368.155	-13.82
368.366	-11.78
368.577	147.97
368.788	10.75
368.999	-56.83
369.209	29.18
369.42	248.32
369.631	195.07
369.842	82.43
370.053	33.28
370.264	64
370.474	-26.11
370.685	14.85
370.896	12.8
371.107	90.62
371.317	76.29
371.528	-3.58
371.739	143.87
371.95	88.57
372.16	0.51
372.371	-34.3
372.582	92.67
372.792	43.52
373.003	35.33
373.214	80.38
373.424	107.01
373.635	-50.69
373.846	129.53
374.056	88.57
374.267	37.38
374.477	109.05
374.688	-56.83
374.898	47.62
375.109	35.33
375.319	88.57
375.53	102.91
375.74	80.38
375.951	-3.58
376.161	18.94
376.372	74.24
376.582	35.33
376.793	141.82
377.003	18.94
377.214	-26.11
377.424	51.71
377.635	-13.82
377.845	-38.4
378.055	143.87
378.266	-44.54
378.476	-7.68
378.686	88.57
378.897	-22.02
379.107	115.2
379.317	16.9
379.528	-40.45
379.738	100.86
379.948	-60.93
380.158	45.57
380.369	-50.69
380.579	84.48
380.789	-5.63
380.999	150.01
381.21	51.71
381.42	143.87
381.63	0.51
381.84	90.62
382.05	37.38
382.261	35.33
382.471	59.9
382.681	-40.45
382.891	172.54
383.101	20.99
383.311	-91.65
383.521	-48.64
383.731	107.01
383.941	76.29
384.151	6.66
384.361	-5.63
384.571	2.56
384.781	70.14
384.991	225.79
385.201	68.09
385.411	84.48
385.621	33.28
385.831	31.23
386.041	88.57
386.251	51.71
386.461	133.63
386.671	49.66
386.881	78.33
387.091	45.57
387.301	86.53
387.511	18.94
387.72	102.91
387.93	133.63
388.14	-97.79
388.35	12.8
388.56	203.26
388.769	94.72
388.979	29.18
389.189	-26.11
389.399	18.94
389.609	90.62
389.818	61.95
390.028	70.14
390.238	70.14
390.447	-7.68
390.657	76.29
390.867	-9.73
391.076	-28.16
391.286	98.81
391.496	23.04
391.705	14.85
391.915	82.43
392.125	64
392.334	-15.87
392.544	119.29
392.753	66.05
392.963	-52.74
393.172	-3.58
393.382	-17.92
393.591	209.4
393.801	-50.69
394.01	154.11
394.22	92.67
394.429	121.34
394.639	47.62
394.848	35.33
395.058	55.81
395.267	25.09
395.477	0.51
395.686	76.29
395.895	143.87
396.105	178.69
396.314	127.49
396.524	51.71
396.733	-30.21
396.942	172.54
397.152	45.57
397.361	145.92
397.57	23.04
397.78	96.77
397.989	88.57
398.198	119.29
398.407	86.53
398.617	43.52
398.826	14.85
399.035	-56.83
399.244	117.25
399.453	51.71
399.663	31.23
399.872	92.67
400.081	-83.45
400.29	139.77
400.499	-77.31
400.708	94.72
400.917	4.61
401.127	33.28
401.336	-17.92
401.545	178.69
401.754	96.77
401.963	152.06
402.172	88.57
402.381	-13.82
402.59	-15.87
402.799	53.76
403.008	137.73
403.217	102.91
403.426	121.34
403.635	-75.26
403.844	6.66
404.053	-38.4
404.262	8.7
404.471	143.87
404.68	66.05
404.888	82.43
405.097	18.94
405.306	86.53
405.515	6.66
405.724	39.42
405.933	41.47
406.142	31.23
406.35	76.29
406.559	14.85
406.768	98.81
406.977	145.92
407.185	47.62
407.394	35.33
407.603	-11.78
407.812	37.38
408.02	156.16
408.229	-5.63
408.438	47.62
408.646	-44.54
408.855	23.04
409.064	104.96
409.272	27.14
409.481	31.23
409.69	-9.73
409.898	-50.69
410.107	20.99
410.315	135.68
410.524	-9.73
410.733	41.47
410.941	14.85
411.15	55.81
411.358	61.95
411.567	72.19
411.775	35.33
411.984	18.94
412.192	-13.82
412.401	-40.45
412.609	129.53
412.818	70.14
413.026	51.71
413.234	74.24
413.443	-22.02
413.651	-22.02
413.86	12.8
414.068	115.2
414.276	154.11
414.485	16.9
414.693	154.11
414.901	143.87
415.11	4.61
415.318	113.15
415.526	-48.64
415.734	43.52
415.943	86.53
416.151	158.21
416.359	29.18
416.567	111.1
416.776	82.43
416.984	78.33
417.192	119.29
417.4	-56.83
417.608	68.09
417.817	18.94
418.025	119.29
418.233	113.15
418.441	-71.17
418.649	-85.5
418.857	-13.82
419.065	119.29
419.273	-11.78
419.481	-3.58
419.689	78.33
419.897	-26.11
420.105	-71.17
420.313	92.67
420.521	119.29
420.729	76.29
420.937	-95.74
421.145	-52.74
421.353	119.29
421.561	135.68
421.769	84.48
421.977	8.7
422.185	68.09
422.393	47.62
422.601	96.77
422.809	76.29
423.017	29.18
423.224	78.33
423.432	188.93
423.64	23.04
423.848	119.29
424.056	29.18
424.263	129.53
424.471	-71.17
424.679	135.68
424.887	16.9
425.094	123.39
425.302	117.25
425.51	12.8
425.718	74.24
425.925	57.86
426.133	-13.82
426.341	233.98
426.548	35.33
426.756	-28.16
426.964	23.04
427.171	-46.59
427.379	82.43
427.586	43.52
427.794	47.62
428.001	90.62
428.209	-3.58
428.417	209.4
428.624	145.92
428.832	129.53
429.039	53.76
429.247	82.43
429.454	64
429.662	240.12
429.869	20.99
430.076	104.96
430.284	158.21
430.491	139.77
430.699	131.58
430.906	262.65
431.114	51.71
431.321	102.91
431.528	27.14
431.736	115.2
431.943	150.01
432.15	104.96
432.358	127.49
432.565	291.32
432.772	-19.97
432.979	156.16
433.187	66.05
433.394	147.97
433.601	27.14
433.808	197.12
434.016	172.54
434.223	211.45
434.43	170.49
434.637	168.45
434.844	164.35
435.052	154.11
435.259	236.03
435.466	274.94
435.673	184.83
435.88	250.36
436.087	260.6
436.294	211.45
436.501	156.16
436.708	178.69
436.915	242.17
437.122	334.33
437.329	121.34
437.537	129.53
437.743	186.88
437.95	428.54
438.157	254.46
438.364	199.16
438.571	270.84
438.778	348.67
438.985	354.81
439.192	371.19
439.399	276.99
439.606	297.47
439.813	369.15
440.02	477.69
440.227	475.64
440.433	395.77
440.64	383.48
440.847	367.1
441.054	479.74
441.261	463.35
441.467	483.83
441.674	440.83
441.881	481.78
442.088	475.64
442.294	514.55
442.501	553.46
442.708	629.24
442.914	508.41
443.121	612.85
443.328	582.14
443.534	752.12
443.741	586.23
443.948	483.83
444.154	721.4
444.361	856.56
444.568	694.77
444.774	778.74
444.981	584.18
445.187	848.37
445.394	752.12
445.6	907.76
445.807	920.05
446.013	932.34
446.22	831.99
446.426	1034.74
446.633	1026.54
446.839	1231.34
447.046	940.53
447.252	1171.95
447.459	1206.77
447.665	1231.34
447.871	1335.79
448.078	1339.88
448.284	1329.64
448.491	1427.95
448.697	1569.26
448.903	1614.31
449.11	1522.15
449.316	1475.05
449.522	1665.51
449.728	1839.59
449.935	1802.72
450.141	1882.6
450.347	1956.32
450.553	2007.52
450.76	1984.99
450.966	2157.02
451.172	2159.07
451.378	2314.72
451.584	2398.68
451.791	2587.1
451.997	2472.41
452.203	2542.04
452.409	2775.51
452.615	2822.61
452.821	2679.26
453.027	2730.45
453.233	3320.27
453.44	3097.04
453.646	3142.1
453.852	3244.49
454.058	3445.2
454.264	3545.55
454.47	3883.46
454.676	3721.67
454.882	4026.82
455.088	3848.65
455.294	4145.6
455.5	4538.81
455.705	4692.41
455.911	4751.8
456.117	4884.92
456.323	4966.84
456.529	5036.47
456.735	5466.54
456.941	5517.74
457.147	5978.53
457.352	5814.7
457.558	6125.99
457.764	6498.72
457.97	6476.19
458.176	7088.53
458.381	7170.45
458.587	7448.97
458.793	7823.75
458.999	7731.59
459.204	8552.83
459.41	8978.81
459.616	8862.07
459.821	9316.72
460.027	9789.8
460.233	10336.61
460.438	10445.15
460.644	11024.73
460.85	11020.63
461.055	11413.84
461.261	11995.46
461.466	11905.35
461.672	12013.9
461.878	13297.97
462.083	13318.45
462.289	13420.85
462.494	13936.94
462.7	14102.82
462.905	14328.1
463.111	15685.9
463.316	16095.5
463.522	16623.87
463.727	16996.6
463.932	17674.48
464.138	18370.79
464.343	19114.2
464.549	18968.8
464.754	20574.41
464.959	21074.11
465.165	21326.01
465.37	21231.8
465.575	20934.85
465.781	22890.66
465.986	23566.49
466.191	23023.78
466.397	23298.2
466.602	22667.43
466.807	24049.81
467.012	24651.91
467.218	24797.32
467.423	24963.2
467.628	25536.63
467.833	26988.64
468.038	26435.69
468.244	26165.36
468.449	27367.52
468.654	26718.31
468.859	26564.71
469.064	26503.28
469.269	26060.91
469.474	26077.3
469.679	27168.87
469.885	26228.85
470.09	26679.4
470.295	26781.8
470.5	26148.98
470.705	26208.37
470.91	25565.31
471.115	25362.56
471.32	25935.99
471.525	25776.25
471.73	25112.7
471.935	24586.38
472.139	23496.86
472.344	23804.05
472.549	23644.31
472.754	23126.18
472.959	22892.71
473.164	21919.92
473.369	21600.44
473.574	22497.45
473.778	21698.74
473.983	21682.36
474.188	21100.73
474.393	20142.28
474.598	19927.25
474.802	19241.18
475.007	19298.52
475.212	19337.43
475.417	18151.66
475.621	18315.5
475.826	17846.51
476.031	17438.97
476.235	17008.89
476.44	17234.17
476.645	16814.34
476.849	16453.89
477.054	16234.76
477.259	15837.45
477.463	15941.9
477.668	15460.63
477.872	15702.29
478.077	15010.07
478.282	14743.84
478.486	14543.14
478.691	14203.18
478.895	14184.74
479.1	14350.63
479.304	13936.94
479.509	13541.68
479.713	13807.92
479.918	13363.51
480.122	13015.35
480.326	13248.82
480.531	13209.91
480.735	12980.54
480.94	12853.56
481.144	13373.75
481.348	12628.29
481.553	12347.72
481.757	12216.65
481.961	12820.8
482.166	12425.54
482.37	12304.71
482.574	11874.63
482.778	12024.14
482.983	12257.6
483.187	11829.58
483.391	11805
483.595	11610.45
483.8	11581.78
484.004	11665.74
484.208	11592.02
484.412	11477.33
484.616	11376.98
484.821	11151.7
485.025	10606.94
485.229	10789.21
485.433	10578.27
485.637	10568.03
485.841	10373.47
486.045	10176.87
486.249	10109.29
486.453	9927.02
486.657	9943.4
486.861	9742.7
487.065	9314.67
487.269	9408.88
487.473	8872.31
487.677	9269.62
487.881	9296.24
488.085	8579.45
488.289	8976.76
488.493	8552.83
488.697	8475.01
488.901	8155.52
489.105	8114.56
489.309	7985.54
489.512	7987.59
489.716	7631.24
489.92	7455.12
490.124	7434.64
490.328	7487.89
490.531	7133.59
490.735	7080.34
490.939	6887.83
491.143	6887.83
491.346	6814.1
491.55	6666.65
491.754	6605.21
491.958	6457.76
492.161	6259.1
492.365	6259.1
492.569	5902.76
492.772	6058.4
492.976	6021.54
493.18	5816.74
493.383	5970.34
493.587	5669.29
493.79	5853.61
493.994	5560.75
494.197	5620.14
494.401	5491.12
494.605	5319.09
494.808	5339.57
495.012	5341.61
495.215	5390.77
495.419	5249.46
495.622	5083.57
495.825	5212.59
496.029	5138.87
496.232	5188.02
496.436	5171.63
496.639	5327.28
496.843	5058.99
497.046	4977.08
497.249	5202.35
497.453	5040.56
497.656	5155.25
497.859	5044.66
498.063	5153.2
498.266	5370.29
498.469	5061.04
498.673	5069.23
498.876	5147.06
499.079	5194.16
499.282	4995.51
499.485	5478.83
499.689	5249.46
499.892	5468.59
500.095	5110.19
500.298	5177.78
500.501	5286.32
500.705	5460.4
500.908	5364.14
501.111	5472.68
501.314	5554.6
501.517	5611.95
501.72	5562.8
501.923	5577.13
502.126	5679.53
502.329	6019.49
502.532	5841.32
502.735	5904.81
502.938	6093.22
503.141	6162.85
503.344	6087.08
503.547	6224.29
503.75	6193.57
503.953	6513.05
504.156	6465.95
504.359	6478.24
504.562	6594.97
504.765	6726.04
504.968	6807.96
505.17	6941.08
505.373	6893.97
505.576	7199.12
505.779	7256.47
505.982	7375.25
506.185	7678.35
506.387	7512.46
506.59	7803.27
506.793	8006.02
506.996	8104.32
507.198	8296.83
507.401	8317.31
507.604	8804.73
507.807	8843.64
508.009	8649.08
508.212	9034.1
508.415	9021.81
508.617	9410.93
508.82	9568.62
509.022	9451.89
509.225	10107.24
509.428	10125.67
509.63	10260.84
509.833	10590.56
510.035	11069.78
510.238	10895.71
510.44	11082.07
510.643	11727.18
510.845	11682.13
511.048	12001.61
511.25	12394.82
511.453	12435.78
511.655	12970.3
511.858	13199.67
512.06	13453.62
512.262	13619.5
512.465	13943.08
512.667	14387.49
512.87	14745.89
513.072	14967.07
513.274	15636.75
513.477	15608.08
513.679	16085.26
513.881	16474.37
514.084	17066.24
514.286	17277.18
514.488	17545.46
514.69	18352.36
514.893	18350.31
515.095	18858.21
515.297	19394.78
515.499	19652.82
515.701	19689.68
515.904	20689.09
516.106	20859.07
516.308	21557.43
516.51	21723.32
516.712	22317.23
516.914	22773.92
517.116	23316.64
517.318	23521.43
517.52	23888.02
517.722	24410.25
517.925	24950.92
518.127	25555.07
518.329	26333.29
518.531	25839.73
518.733	26847.33
518.935	27357.28
519.136	27656.28
519.338	28246.1
519.54	28792.9
519.742	29175.87
519.944	29591.61
520.146	30337.07
520.348	30488.62
520.55	30855.21
520.752	31447.07
520.954	31905.82
521.155	31916.06
521.357	32477.2
521.559	33439.75
521.761	33714.17
521.963	34181.11
522.164	34047.99
522.366	34326.52
522.568	34729.97
522.77	34881.52
522.971	35391.46
523.173	35444.71
523.375	35780.57
523.576	36095.96
523.778	35991.51
523.98	36605.91
524.181	36540.37
524.383	36835.28
524.584	37394.37
524.786	37259.21
524.988	36853.71
525.189	37674.95
525.391	37646.27
525.592	37920.7
525.794	37707.71
525.995	38139.83
526.197	37633.99
526.398	37871.55
526.6	37941.18
526.801	37707.71
527.003	37601.22
527.204	37683.14
527.406	37932.99
527.607	37609.41
527.808	37468.1
528.01	36530.13
528.211	36902.86
528.412	37142.47
528.614	36925.39
528.815	36415.44
529.016	36657.1
529.218	35743.71
529.419	36026.33
529.62	35495.91
529.822	35260.39
530.023	34670.57
530.224	34576.37
530.425	34220.02
530.626	33413.12
530.828	33308.68
531.029	33785.85
531.23	32411.67
531.431	32012.31
531.632	32280.6
531.833	31821.85
532.035	31420.45
532.236	30963.75
532.437	30486.57
532.638	30396.46
532.839	30318.64
533.04	30099.51
533.241	29265.99
533.442	29177.92
533.643	28747.85
533.844	28596.3
534.045	28131.41
534.246	27650.14
534.447	27091.04
534.648	27080.8
534.849	26663.02
535.05	25935.99
535.251	26042.48
535.451	25419.9
535.652	25188.48
535.853	24920.2
536.054	24684.68
536.255	24400.01
536.456	23695.51
536.657	23720.09
536.857	23046.3
537.058	22724.77
537.259	22790.31
537.46	22646.95
537.66	21928.11
537.861	21766.32
538.062	21637.3
538.263	21164.22
538.463	21045.44
538.664	20857.03
538.865	20687.04
539.065	20459.72
539.266	19816.66
539.466	19845.33
539.667	19607.76
539.868	19368.15
540.068	19075.29
540.269	18970.85
540.469	18426.09
540.67	18430.18
540.87	18395.37
541.071	17846.51
541.271	17930.48
541.472	17553.65
541.672	17373.43
541.873	17078.52
542.073	16627.97
542.274	16812.29
542.474	16910.59
542.675	16130.31
542.875	16296.2
543.075	16206.09
543.276	15839.5
543.476	15827.21
543.676	15456.53
543.877	15577.36
544.077	15229.21
544.277	15173.91
544.478	14784.8
544.678	14743.84
544.878	14381.35
545.078	14567.71
545.279	14199.08
545.479	13971.75
545.679	13877.55
545.879	13734.19
546.079	13508.91
546.28	13101.37
546.48	13308.21
546.68	13343.03
546.88	13185.33
547.08	12890.43
547.28	12765.5
547.48	12554.56
547.68	12214.6
547.88	12149.06
548.081	12134.73
548.281	11942.22
548.481	11518.29
548.681	11622.73
548.881	11469.14
549.081	11245.91
549.28	11166.04
549.48	10838.36
549.68	10699.1
549.88	10991.96
550.08	10576.22
550.28	10547.55
550.48	10475.87
550.68	10305.89
550.88	9857.39
551.08	9896.3
551.279	9904.49
551.479	9482.61
551.679	9617.77
551.879	9277.81
552.079	9138.55
552.278	9109.88
552.478	9023.86
552.678	8892.79
552.878	8714.62
553.077	8513.92
553.277	8345.98
553.477	8380.8
553.676	8450.43
553.876	8077.7
554.076	7917.96
554.275	7639.44
554.475	7479.69
554.674	7770.51
554.874	7444.88
555.074	7268.75
555.273	7297.42
555.473	7088.53
555.672	6965.65
555.872	6734.23
556.071	6640.03
556.271	6752.66
556.47	6592.92
556.67	6470.05
556.869	6302.11
557.068	6244.77
557.268	6042.02
557.467	5882.28
557.667	5863.85
557.866	5757.35
558.065	5761.45
558.265	5726.63
558.464	5587.37
558.663	5499.31
558.863	5308.85
559.062	5312.94
559.261	5061.04
559.461	5069.23
559.66	5083.57
559.859	4880.82
560.058	4807.09
560.258	4841.91
560.457	4714.94
560.656	4786.61
560.855	4501.95
561.054	4551.1
561.253	4397.5
561.453	4454.84
561.652	4301.25
561.851	4334.01
562.05	4137.41
562.249	3901.89
562.448	4096.45
562.647	3946.95
562.846	3844.55
563.045	3873.22
563.244	3770.82
563.443	3832.26
563.642	3584.46
563.841	3602.89
564.04	3598.79
564.239	3504.59
564.438	3316.17
564.637	3232.21
564.836	3359.18
565.035	3166.67
565.234	3166.67
565.432	3058.13
565.631	3326.41
565.83	3078.61
566.029	2847.19
566.228	2906.58
566.427	3062.23
566.625	2904.53
566.824	2906.58
567.023	2802.13
567.222	2652.63
567.42	2771.41
567.619	2656.73
567.818	2621.91
568.016	2742.74
568.215	2623.96
568.414	2746.84
568.612	2537.95
568.811	2484.7
569.01	2408.92
569.208	2398.68
569.407	2439.64
569.605	2507.23
569.804	2249.18
570.002	2245.09
570.201	2126.3
570.4	2220.51
570.598	2066.91
570.797	2120.16
570.995	1984.99
571.193	2062.82
571.392	1941.99
571.59	1948.13
571.789	1980.9
571.987	1847.78
572.186	1901.03
572.384	1829.35
572.582	1862.12
572.781	1866.21
572.979	1681.89
573.177	1755.62
573.376	1729
573.574	1698.28
573.772	1794.53
573.971	1579.5
574.169	1497.58
574.367	1559.02
574.565	1458.67
574.763	1589.74
574.962	1411.56
575.16	1399.27
575.358	1374.7
575.556	1417.71
575.754	1311.21
575.952	1360.36
576.151	1473
576.349	1366.51
576.547	1210.86
576.745	1303.02
576.943	1346.03
577.141	1210.86
577.339	1139.18
577.537	1202.67
577.735	1247.72
577.933	1165.81
578.131	1059.31
578.329	1243.63
578.527	1042.93
578.725	1200.62
578.923	987.63
579.121	1094.13
579.319	897.52
579.516	1008.11
579.714	1208.81
579.912	1061.36
580.11	934.39
580.308	948.72
580.506	897.52
580.704	813.56
580.901	774.64
581.099	971.25
581.297	920.05
581.495	926.19
581.692	772.6
581.89	969.2
582.088	817.65
582.285	768.5
582.483	743.92
582.681	801.27
582.878	788.98
583.076	680.44
583.274	768.5
583.471	821.75
583.669	793.08
583.866	782.84
584.064	672.25
584.262	612.85
584.459	573.94
584.657	702.97
584.854	672.25
585.052	682.49
585.249	688.63
585.447	643.57
585.644	594.42
585.841	778.74
586.039	729.59
586.236	780.79
586.434	639.48
586.631	500.22
586.828	580.09
587.026	573.94
587.223	561.66
587.42	455.16
587.618	571.9
587.815	610.81
588.012	506.36
588.21	608.76
588.407	596.47
588.604	539.13
588.801	485.88
588.999	537.08
589.196	567.8
589.393	467.45
589.59	512.5
589.787	432.63
589.984	500.22
590.182	408.06
590.379	416.25
590.576	457.21
590.773	475.64
590.97	422.39
591.167	514.55
591.364	463.35
591.561	395.77
591.758	567.8
591.955	420.35
592.152	377.34
592.349	498.17
592.546	444.92
592.743	414.2
592.94	356.86
593.137	500.22
593.334	471.54
593.531	563.7
593.727	496.12
593.924	453.11
594.121	489.98
594.318	545.27
594.515	444.92
594.712	537.08
594.908	516.6
595.105	416.25
595.302	483.83
595.499	440.83
595.696	586.23
595.892	469.5
596.089	594.42
596.286	424.44
596.482	580.09
596.679	625.14
596.876	561.66
597.072	582.14
597.269	545.27
597.466	707.06
597.662	543.22
597.859	528.89
598.055	563.7
598.252	631.29
598.448	655.86
598.645	750.07
598.841	702.97
599.038	856.56
599.234	793.08
599.431	831.99
599.627	840.18
599.824	866.8
600.02	879.09
600.217	866.8
600.413	950.77
600.609	926.19
600.806	1323.5
601.002	1126.89
601.198	1030.64
601.395	1126.89
601.591	1167.85
601.787	1233.39
601.984	1276.4
602.18	1386.99
602.376	1370.6
602.572	1413.61
602.769	1493.48
602.965	1700.33
603.161	1516.01
603.357	1630.7
603.553	1829.35
603.75	1563.11
603.946	1769.96
604.142	1929.7
604.338	1995.23
604.534	2007.52
604.73	2025.95
604.926	2097.63
605.122	2353.63
605.318	2251.23
605.514	2515.42
605.71	2294.24
605.906	2470.36
606.102	2437.59
606.298	2673.11
606.494	2714.07
606.69	2925.01
606.886	2935.25
607.082	3025.36
607.278	3004.88
607.474	3080.66
607.67	3082.7
607.866	3105.23
608.062	3484.11
608.257	3490.25
608.453	3537.35
608.649	3688.9
608.845	3707.34
609.041	3795.4
609.236	3987.91
609.432	4123.07
609.628	4073.92
609.824	4202.94
610.019	4385.21
610.215	4501.95
610.411	4737.46
610.606	4766.14
610.802	4938.16
610.998	5003.7
611.193	4999.6
611.389	4964.79
611.584	5376.43
611.78	5237.17
611.976	5452.2
612.171	5790.12
612.367	5976.48
612.562	6128.03
612.758	6154.66
612.953	6302.11
613.149	6472.09
613.344	6629.79
613.539	6910.36
613.735	7080.34
613.93	7115.16
614.126	7305.62
614.321	7698.83
614.517	7938.44
614.712	8042.89
614.907	8143.24
615.103	8368.51
615.298	8667.52
615.493	8757.63
615.688	9001.33
615.884	9257.33
616.079	9316.72
616.274	9785.71
616.47	9851.24
616.665	10131.81
616.86	10445.15
617.055	10568.03
617.25	10811.74
617.445	11325.78
617.641	11393.36
617.836	11968.84
618.031	11864.39
618.226	12527.94
618.421	12458.31
618.616	12892.48
618.811	12874.04
619.006	13486.39
619.201	13885.74
619.396	14188.84
619.591	14213.42
619.786	15094.04
619.981	14850.33
620.176	15530.26
620.371	15278.36
620.566	15882.51
620.761	16163.08
620.956	16668.93
621.151	16802.05
621.346	17311.99
621.541	17287.42
621.735	18045.16
621.93	18159.85
622.125	18393.32
622.32	18632.93
622.515	19091.68
622.709	19462.36
622.904	19878.1
623.099	20021.45
623.294	20611.27
623.488	20648.13
623.683	21627.06
623.878	21338.3
624.072	22053.04
624.267	21975.22
624.462	22581.42
624.656	22763.68
624.851	23109.79
625.046	23425.18
625.24	23857.3
625.435	23847.06
625.629	24643.72
625.824	24787.08
626.018	25114.75
626.213	25053.31
626.407	25720.95
626.602	25446.52
626.796	26077.3
626.991	26388.59
627.185	26933.35
627.38	26789.99
627.574	27097.19
627.768	27324.51
627.963	27105.38
628.157	27205.73
628.352	27625.56
628.546	27218.02
628.74	27887.7
628.935	27336.8
629.129	27469.92
629.323	27240.54
629.517	27336.8
629.712	27289.7
629.906	26691.69
630.1	26450.03
630.294	26923.11
630.489	25935.99
630.683	25653.37
630.877	25225.34
631.071	24907.91
631.265	24422.54
631.459	24191.12
631.653	23660.69
631.848	23189.66
632.042	22460.59
632.236	22380.71
632.43	21319.87
632.624	20867.27
632.818	20072.65
633.012	19693.78
633.206	18948.32
633.4	18516.2
633.594	17807.6
633.788	17264.89
633.982	16857.34
634.176	16333.06
634.369	15477.01
634.563	14999.84
634.757	14180.65
634.951	13762.86
635.145	13359.41
635.339	12923.19
635.533	12206.41
635.726	11843.92
635.92	11254.1
636.114	10838.36
636.308	10357.09
636.501	10041.7
636.695	9656.68
636.889	8943.99
637.083	8698.24
637.276	8339.84
637.47	7844.23
637.664	7596.43
637.857	7299.47
638.051	7195.03
638.244	7045.52
638.438	6547.87
638.632	6459.81
638.825	5986.72
639.019	5816.74
639.212	5523.88
639.406	5466.54
639.599	4913.59
639.793	5050.8
639.986	4790.71
640.18	4547
640.373	4229.57
640.567	4164.03
640.76	4075.97
640.954	3826.12
641.147	3705.29
641.34	3475.91
641.534	3410.38
641.727	3457.48
641.92	3080.66
642.114	3201.49
642.307	3092.94
642.5	2781.65
642.694	2791.89
642.887	2714.07
643.08	2556.38
643.273	2539.99
643.467	2173.41
643.66	2300.38
643.853	2095.58
644.046	2171.36
644.239	2025.95
644.432	1927.65
644.626	1798.63
644.819	1780.2
645.012	1706.47
645.205	1757.67
645.398	1724.9
645.591	1544.68
645.784	1372.65
645.977	1429.99
646.17	1395.18
646.363	1343.98
646.556	1296.88
646.749	1176.05
646.942	1286.64
647.135	1120.75
647.328	1036.78
647.521	1096.18
647.714	1026.54
647.907	942.58
648.099	938.48
648.292	1059.31
648.485	942.58
648.678	784.88
648.871	795.12
649.064	799.22
649.256	596.47
649.449	752.12
649.642	537.08
649.835	686.58
650.027	637.43
650.22	754.16
650.413	582.14
650.605	645.62
650.798	524.79
650.991	455.16
651.183	485.88
651.376	592.37
651.568	451.07
651.761	350.71
651.954	530.94
652.146	430.59
652.339	467.45
652.531	432.63
652.724	408.06
652.916	344.57
653.109	242.17
653.301	506.36
653.494	387.58
653.686	320
653.879	451.07
654.071	346.62
654.263	291.32
654.456	305.66
654.648	381.43
654.84	369.15
655.033	248.32
655.225	446.97
655.417	190.97
655.61	393.72
655.802	260.6
655.994	311.8
656.186	131.58
656.379	313.85
656.571	217.6
656.763	227.84
656.955	217.6
657.148	127.49
657.34	334.33
657.532	170.49
657.724	211.45
657.916	236.03
658.108	385.53
658.3	133.63
658.492	281.08
658.684	82.43
658.876	178.69
659.068	154.11
659.26	162.3
659.452	150.01
659.644	223.74
659.836	233.98
660.028	197.12
660.22	168.45
660.412	131.58
660.604	215.55
660.796	121.34
660.988	242.17
661.18	197.12
661.372	133.63
661.563	178.69
661.755	174.59
661.947	156.16
662.139	61.95
662.331	68.09
662.522	125.44
662.714	76.29
662.906	133.63
663.097	172.54
663.289	98.81
663.481	-34.3
663.673	160.25
663.864	178.69
664.056	233.98
664.247	55.81
664.439	207.36
664.631	160.25
664.822	186.88
665.014	113.15
665.205	109.05
665.397	80.38
665.588	156.16
665.78	94.72
665.971	152.06
666.163	121.34
666.354	133.63
666.546	111.1
666.737	94.72
666.929	84.48
667.12	10.75
667.311	182.78
667.503	113.15
667.694	102.91
667.885	178.69
668.077	166.4
668.268	51.71
668.459	119.29
668.651	162.3
668.842	100.86
669.033	43.52
669.224	43.52
669.416	285.18
669.607	129.53
669.798	31.23
669.989	252.41
670.18	33.28
670.371	117.25
670.563	27.14
670.754	117.25
670.945	154.11
671.136	227.84
671.327	115.2
671.518	117.25
671.709	256.51
671.9	195.07
672.091	248.32
672.282	96.77
672.473	92.67
672.664	117.25
672.855	133.63
673.046	70.14
673.237	219.64
673.428	121.34
673.619	219.64
673.809	113.15
674	291.32
674.191	107.01
674.382	158.21
674.573	78.33
674.764	145.92
674.954	139.77
675.145	86.53
675.336	111.1
675.527	113.15
675.717	33.28
675.908	98.81
676.099	123.39
676.289	221.69
676.48	96.77
676.671	143.87
676.861	115.2
677.052	182.78
677.243	190.97
677.433	145.92
677.624	170.49
677.814	119.29
678.005	141.82
678.195	256.51
678.386	80.38
678.576	162.3
678.767	35.33
678.957	137.73
679.148	139.77
679.338	248.32
679.529	203.26
679.719	49.66
679.909	233.98
680.1	115.2
680.29	236.03
680.481	55.81
680.671	197.12
680.861	238.08
681.052	143.87
681.242	125.44
681.432	236.03
681.622	223.74
681.813	61.95
682.003	221.69
682.193	188.93
682.383	215.55
682.573	162.3
682.764	236.03
682.954	174.59
683.144	332.28
683.334	74.24
683.524	219.64
683.714	256.51
683.904	215.55
684.094	154.11
684.284	145.92
684.474	326.14
684.664	188.93
684.854	203.26
685.044	199.16
685.234	217.6
685.424	260.6
685.614	137.73
685.804	262.65
685.994	193.02
686.184	147.97
686.374	283.13
686.564	252.41
686.753	188.93
686.943	109.05
687.133	199.16
687.323	125.44
687.513	150.01
687.702	141.82
687.892	201.21
688.082	289.28
688.272	178.69
688.461	139.77
688.651	342.52
688.841	272.89
689.03	190.97
689.22	272.89
689.41	283.13
689.599	193.02
689.789	158.21
689.979	315.9
690.168	156.16
690.358	238.08
690.547	221.69
690.737	199.16
690.926	156.16
691.116	260.6
691.305	215.55
691.495	256.51
691.684	186.88
691.874	158.21
692.063	170.49
692.252	264.7
692.442	262.65
692.631	199.16
692.82	137.73
693.01	188.93
693.199	195.07
693.388	201.21
693.578	152.06
693.767	281.08
693.956	309.76
694.146	197.12
694.335	260.6
694.524	227.84
694.713	260.6
694.902	180.73
695.092	115.2
695.281	176.64
695.47	199.16
695.659	174.59
695.848	145.92
696.037	215.55
696.226	223.74
696.415	168.45
696.604	276.99
696.793	252.41
696.982	207.36
697.171	322.04
697.36	190.97
697.549	156.16
697.738	82.43
697.927	172.54
698.116	145.92
698.305	262.65
698.494	172.54
698.683	172.54
698.872	299.52
699.061	150.01
699.25	168.45
699.438	123.39
699.627	156.16
699.816	276.99
700.005	80.38
700.193	178.69
700.382	291.32
700.571	205.31
700.76	217.6
700.948	268.8
701.137	217.6
701.326	238.08
701.514	152.06
701.703	221.69
701.892	199.16
702.08	397.82
702.269	201.21
702.457	113.15
702.646	215.55
702.834	145.92
703.023	227.84
703.212	203.26
703.4	174.59
703.589	139.77
703.777	201.21
703.965	193.02
704.154	154.11
704.342	170.49
704.531	182.78
704.719	201.21
704.907	225.79
705.096	70.14
705.284	115.2
705.472	188.93
705.661	170.49
705.849	270.84
706.037	375.29
706.226	203.26
706.414	147.97
706.602	211.45
706.79	240.12
706.979	190.97
707.167	195.07
707.355	117.25
707.543	215.55
707.731	270.84
707.919	133.63
708.107	158.21
708.296	166.4
708.484	131.58
708.672	190.97
708.86	215.55
709.048	186.88
709.236	172.54
709.424	188.93
709.612	162.3
709.8	100.86
709.988	164.35
710.176	231.93
710.364	250.36
710.551	225.79
710.739	221.69
710.927	199.16
711.115	168.45
711.303	225.79
711.491	365.05
711.679	133.63
711.866	322.04
712.054	172.54
712.242	162.3
712.43	301.56
712.617	160.25
712.805	262.65
712.993	217.6
713.181	162.3
713.368	256.51
713.556	147.97
713.744	160.25
713.931	367.1
714.119	201.21
714.306	236.03
714.494	266.75
714.682	197.12
714.869	113.15
715.057	90.62
715.244	178.69
715.432	248.32
715.619	207.36
715.807	213.5
715.994	141.82
716.182	242.17
716.369	262.65
716.556	322.04
716.744	201.21
716.931	88.57
717.119	283.13
717.306	309.76
717.493	281.08
717.681	197.12
717.868	170.49
718.055	246.27
718.242	258.56
718.43	260.6
718.617	276.99
718.804	127.49
718.991	346.62
719.179	322.04
719.366	225.79
719.553	244.22
719.74	256.51
719.927	180.73
720.114	244.22
720.301	170.49
720.488	162.3
720.676	39.42
720.863	371.19
721.05	356.86
721.237	281.08
721.424	248.32
721.611	244.22
721.798	166.4
721.985	139.77
722.172	143.87
722.358	256.51
722.545	250.36
722.732	281.08
722.919	272.89
723.106	313.85
723.293	293.37
723.48	250.36
723.667	217.6
723.853	258.56
724.04	289.28
724.227	375.29
724.414	141.82
724.6	240.12
724.787	336.38
724.974	274.94
725.161	147.97
725.347	227.84
725.534	274.94
725.72	248.32
725.907	299.52
726.094	338.43
726.28	162.3
726.467	242.17
726.653	233.98
726.84	326.14
727.027	317.95
727.213	262.65
727.4	225.79
727.586	305.66
727.773	276.99
727.959	190.97
728.145	203.26
728.332	332.28
728.518	164.35
728.705	371.19
728.891	342.52
729.077	356.86
729.264	254.46
729.45	307.71
729.636	358.91
729.823	297.47
730.009	274.94
730.195	281.08
730.382	297.47
730.568	190.97
730.754	270.84
730.94	262.65
731.126	233.98
731.313	317.95
731.499	293.37
731.685	287.23
731.871	391.67
732.057	289.28
732.243	311.8
732.429	356.86
732.615	403.96
732.801	332.28
732.987	276.99
733.173	262.65
733.359	205.31
733.545	270.84
733.731	248.32
733.917	330.23
734.103	371.19
734.289	317.95
734.475	268.8
734.661	424.44
734.847	344.57
735.033	276.99
735.219	340.47
735.404	190.97
735.59	403.96
735.776	223.74
735.962	281.08
736.148	354.81
736.333	336.38
736.519	262.65
736.705	367.1
736.89	301.56
737.076	322.04
737.262	254.46
737.447	195.07
737.633	281.08
737.819	412.15
738.004	287.23
738.19	285.18
738.375	317.95
738.561	336.38
738.747	397.82
738.932	225.79
739.118	418.3
739.303	375.29
739.489	309.76
739.674	352.76
739.859	225.79
740.045	356.86
740.23	311.8
740.416	205.31
740.601	270.84
740.786	270.84
740.972	276.99
741.157	285.18
741.342	291.32
741.528	174.59
741.713	367.1
741.898	270.84
742.084	270.84
742.269	301.56
742.454	279.04
742.639	336.38
742.824	356.86
743.01	313.85
743.195	399.87
743.38	281.08
743.565	209.4
743.75	260.6
743.935	363
744.12	307.71
744.305	303.61
744.49	254.46
744.675	150.01
744.86	303.61
745.045	377.34
745.23	340.47
745.415	322.04
745.6	408.06
745.785	246.27
745.97	352.76
746.155	297.47
746.34	326.14
746.525	365.05
746.71	428.54
746.895	180.73
747.079	223.74
747.264	256.51
747.449	342.52
747.634	297.47
747.819	283.13
748.003	182.78
748.188	141.82
748.373	274.94
748.557	320
748.742	324.09
748.927	305.66
749.111	287.23
749.296	309.76
749.481	250.36
749.665	201.21
749.85	240.12
750.034	217.6
750.219	217.6
750.404	293.37
750.588	281.08
750.773	233.98
750.957	252.41
751.141	229.88
751.326	320
751.51	90.62
751.695	291.32
751.879	158.21
752.064	428.54
752.248	236.03
752.432	270.84
752.617	262.65
752.801	371.19
752.985	182.78
753.17	358.91
753.354	225.79
753.538	248.32
753.722	119.29
753.907	236.03
754.091	68.09
754.275	193.02
754.459	164.35
754.643	145.92
754.828	281.08
755.012	281.08
755.196	162.3
755.38	229.88
755.564	129.53
755.748	182.78
755.932	172.54
756.116	199.16
756.3	313.85
756.484	102.91
756.668	289.28
756.852	33.28
757.036	213.5
757.22	211.45
757.404	127.49
757.588	154.11
757.772	231.93
757.956	170.49
758.14	233.98
758.323	150.01
758.507	256.51
758.691	102.91
758.875	258.56
759.059	293.37
759.242	61.95
759.426	164.35
759.61	111.1
759.794	113.15
759.977	211.45
760.161	418.3
760.345	252.41
760.528	256.51
760.712	219.64
760.895	201.21
761.079	174.59
761.263	107.01
761.446	119.29
761.63	123.39
761.813	223.74
761.997	98.81
762.18	88.57
762.364	219.64
762.547	59.9
762.731	98.81
762.914	80.38
763.098	41.47
763.281	113.15
763.464	64
763.648	203.26
763.831	102.91
764.015	154.11
764.198	164.35
764.381	125.44
764.564	145.92
764.748	64
764.931	145.92
765.114	59.9
765.297	219.64
765.481	16.9
765.664	84.48
765.847	100.86
766.03	256.51
766.213	104.96
766.397	135.68
766.58	84.48
766.763	152.06
766.946	119.29
767.129	100.86
767.312	84.48
767.495	43.52
767.678	88.57
767.861	123.39
768.044	90.62
768.227	86.53
768.41	47.62
768.593	121.34
768.776	137.73
768.959	12.8
769.142	207.36
769.324	135.68
769.507	55.81
769.69	115.2
769.873	45.57
770.056	246.27
770.239	78.33
770.421	233.98
770.604	88.57
770.787	80.38
770.97	156.16
771.152	104.96
771.335	88.57
771.518	-19.97
771.7	203.26
771.883	223.74
772.066	16.9
772.248	150.01
772.431	154.11
772.613	143.87
772.796	10.75
772.978	162.3
773.161	201.21
773.343	90.62
773.526	31.23
773.708	-5.63
773.891	-62.98
774.073	68.09
774.256	20.99
774.438	240.12
774.621	49.66
774.803	76.29
774.985	33.28
775.168	74.24
775.35	74.24
775.532	121.34
775.715	47.62
775.897	64
776.079	86.53
776.261	90.62
776.444	133.63
776.626	127.49
776.808	139.77
776.99	35.33
777.173	133.63
777.355	64
777.537	119.29
777.719	61.95
777.901	27.14
778.083	96.77
778.265	-58.88
778.447	184.83
778.629	14.85
778.811	41.47
778.993	57.86
779.175	145.92
779.357	2.56
779.539	47.62
779.721	117.25
779.903	129.53
780.085	6.66
780.267	102.91
780.449	18.94
780.631	160.25
780.812	193.02
780.994	18.94
781.176	49.66
781.358	27.14
781.54	66.05
781.721	127.49
781.903	182.78
782.085	10.75
782.267	125.44
782.448	-3.58
782.63	33.28
782.812	90.62
782.993	45.57
783.175	98.81
783.357	102.91
783.538	127.49
783.72	10.75
783.901	31.23
784.083	121.34
784.264	53.76
784.446	-26.11
784.627	-15.87
784.809	33.28
784.99	45.57
785.172	131.58
785.353	-5.63
785.535	0.51
785.716	20.99
785.897	14.85
786.079	-15.87
786.26	39.42
786.441	94.72
786.623	-54.78
786.804	-32.26
786.985	100.86
787.167	68.09
787.348	59.9
787.529	55.81
787.71	115.2
787.891	61.95
788.073	-75.26
788.254	-56.83
788.435	236.03
788.616	92.67
788.797	-26.11
788.978	-1.54
789.159	39.42
789.34	107.01
789.522	-36.35
789.703	6.66
789.884	-42.5
790.065	43.52
790.246	137.73
790.427	135.68
790.607	233.98
790.788	90.62
790.969	-40.45
791.15	119.29
791.331	51.71
791.512	0.51
791.693	2.56
791.874	-81.41
792.054	168.45
792.235	164.35
792.416	-48.64
792.597	-15.87
792.778	78.33
792.958	117.25
793.139	14.85
793.32	-9.73
793.5	-69.12
793.681	41.47
793.862	47.62
794.042	111.1
794.223	-93.69
794.404	27.14
794.584	-79.36
794.765	-3.58
794.945	-24.06
795.126	59.9
795.306	100.86
795.487	-32.26
795.667	-50.69
795.848	55.81
796.028	55.81
796.209	51.71
796.389	174.59
796.57	-17.92
796.75	-46.59
796.93	92.67
797.111	-75.26
797.291	72.19
797.471	37.38
797.652	37.38
797.832	-110.08
798.012	59.9
798.192	74.24
798.373	-62.98
798.553	-17.92
798.733	61.95
798.913	-116.22
799.093	-13.82
799.274	33.28
799.454	121.34
799.634	72.19
799.814	55.81
799.994	57.86
800.174	20.99
800.354	-28.16
800.534	-52.74
800.714	41.47
800.894	-52.74
801.074	-22.02
801.254	-42.5
801.434	113.15
801.614	-56.83
801.794	-60.93
801.974	1667.56
802.154	31.23
802.334	94.72
802.514	25.09
802.693	6.66
802.873	-32.26
803.053	55.81
803.233	78.33
803.413	-13.82
803.592	-42.5
803.772	-44.54
803.952	-3.58
804.131	-56.83
804.311	90.62
804.491	43.52
804.67	4.61
804.85	-30.21
805.03	18.94
805.209	29.18
805.389	49.66
805.568	-58.88
805.748	53.76
805.928	6.66
806.107	88.57
806.287	47.62
806.466	113.15
806.646	-11.78
806.825	78.33
807.004	-42.5
807.184	59.9
807.363	39.42
807.543	100.86
807.722	-24.06
807.901	64
808.081	39.42
808.26	-120.32
808.439	39.42
808.619	45.57
808.798	-54.78
808.977	70.14
809.156	102.91
809.336	64
809.515	76.29
809.694	-58.88
809.873	-62.98
810.052	55.81
810.231	86.53
810.411	-17.92
810.59	41.47
810.769	51.71
810.948	59.9
811.127	-95.74
811.306	-77.31
811.485	-22.02
811.664	113.15
811.843	-9.73
812.022	98.81
812.201	-38.4
812.38	2.56
812.559	-110.08
812.737	86.53
812.916	-85.5
813.095	10.75
813.274	12.8
813.453	-11.78
813.632	-3.58
813.811	102.91
813.989	-101.89
814.168	23.04
814.347	-114.17
814.526	66.05
814.704	76.29
814.883	127.49
815.062	-62.98
815.24	8.7
815.419	-93.69
815.598	23.04
815.776	-157.18
815.955	-22.02
816.133	-153.09
816.312	-9.73
816.49	2.56
816.669	16.9
816.847	-7.68
817.026	53.76
817.204	-32.26
817.383	-11.78
817.561	-69.12
817.74	33.28
817.918	59.9
818.097	16.9
818.275	-108.03
818.453	45.57
818.632	104.96
818.81	-24.06
818.988	-69.12
819.167	-17.92
819.345	18.94
819.523	35.33
819.701	84.48
819.879	37.38
820.058	51.71
820.236	-17.92
820.414	-26.11
820.592	74.24
820.77	-71.17
820.948	-5.63
821.127	33.28
821.305	-26.11
821.483	-73.21
821.661	6.66
821.839	-19.97
822.017	-22.02
822.195	-3.58
822.373	16.9
822.551	-75.26
822.729	80.38
822.907	-60.93
823.085	12.8
823.262	-5.63
823.44	2.56
823.618	-1.54
823.796	-40.45
823.974	-75.26
824.152	-34.3
824.329	-3.58
824.507	-30.21
824.685	25.09
824.863	-32.26
825.04	-34.3
825.218	76.29
825.396	-42.5
825.574	-73.21
825.751	-56.83
825.929	55.81
826.107	-19.97
826.284	-54.78
826.462	59.9
826.639	-9.73
826.817	-114.17
826.994	55.81
827.172	-50.69
827.349	113.15
827.527	41.47
827.704	86.53
827.882	53.76
828.059	-17.92
828.237	-54.78
828.414	20.99
828.591	-75.26
828.769	31.23
828.946	-93.69
829.124	33.28
829.301	123.39
829.478	12.8
829.655	-3.58
829.833	12.8
830.01	-138.75
830.187	0.51
830.364	-11.78
830.542	-46.59
830.719	82.43
830.896	18.94
831.073	23.04
831.25	39.42
831.427	14.85
831.604	-67.07
831.782	-67.07
831.959	23.04
832.136	-22.02
832.313	39.42
832.49	-54.78
832.667	27.14
832.844	-42.5
833.021	102.91
833.198	35.33
833.374	29.18
833.551	-15.87
833.728	-58.88
833.905	133.63
834.082	-120.32
834.259	86.53
834.436	92.67
834.612	-5.63
834.789	68.09
834.966	20.99
835.143	86.53
835.319	-42.5
835.496	88.57
835.673	-11.78
835.85	8.7
836.026	10.75
836.203	-24.06
836.38	-87.55
836.556	-56.83
836.733	-9.73
836.909	27.14
837.086	-30.21
837.262	-65.02
837.439	14.85
837.616	-56.83
837.792	-32.26
837.968	8.7
838.145	-167.42
838.321	-11.78
838.498	14.85
838.674	55.81
838.851	35.33
839.027	-71.17
839.203	25.09
839.38	64
839.556	-52.74
839.732	55.81
839.909	-11.78
840.085	125.44
840.261	-32.26
840.437	39.42
840.614	-79.36
840.79	51.71
840.966	64
841.142	-50.69
841.318	-11.78
841.494	27.14
841.671	102.91
841.847	-67.07
842.023	-93.69
842.199	-19.97
842.375	125.44
842.551	-114.17
842.727	-36.35
842.903	84.48
843.079	-105.98
843.255	123.39
843.431	-22.02
843.607	8.7
843.783	-181.76
843.959	16.9
844.134	-148.99
844.31	102.91
844.486	-36.35
844.662	6.66
844.838	0.51
845.013	18.94
845.189	57.86
845.365	41.47
845.541	-77.31
845.716	4.61
845.892	39.42
846.068	-58.88
846.244	-40.45
846.419	-46.59
846.595	-38.4
846.77	-44.54
846.946	72.19
847.122	-60.93
847.297	-5.63
847.473	109.05
847.648	-142.85
847.824	16.9
847.999	-89.6
848.175	-60.93
848.35	23.04
848.526	53.76
848.701	49.66
848.876	27.14
849.052	45.57
849.227	-15.87
849.403	-22.02
849.578	4.61
849.753	14.85
849.929	-13.82
850.104	-65.02
850.279	53.76
850.454	-9.73
850.63	80.38
850.805	-3.58
850.98	-19.97
851.155	-11.78
851.33	-34.3
851.505	-67.07
851.681	158.21
851.856	-75.26
852.031	90.62
852.206	-28.16
852.381	-99.84
852.556	-15.87
852.731	6.66
852.906	29.18
853.081	43.52
853.256	150.01
853.431	-40.45
853.606	-177.66
853.781	-69.12
853.956	-93.69
854.131	-1.54
854.305	-46.59
854.48	-22.02
854.655	-73.21
854.83	-38.4
855.005	-48.64
855.18	68.09
855.354	-85.5
855.529	14.85
855.704	6.66
855.879	25.09
856.053	4.61
856.228	78.33
856.403	-54.78
856.577	25.09
856.752	-44.54
856.926	-60.93
857.101	-5.63
857.276	-85.5
857.45	18.94
857.625	31.23
857.799	-34.3
857.974	-24.06
858.148	-83.45
858.323	-40.45
858.497	-38.4
858.672	-69.12
858.846	-132.61
859.02	45.57
859.195	-3.58
859.369	-116.22
859.543	31.23
859.718	-46.59
859.892	23.04
860.066	-13.82
860.241	-11.78
860.415	-93.69
860.589	-15.87
860.763	37.38
860.938	-73.21
861.112	-1.54
861.286	-69.12
861.46	0.51
861.634	-69.12
861.808	64
861.982	-26.11
862.157	-34.3
862.331	-52.74
862.505	-77.31
862.679	-128.51
862.853	-30.21
863.027	-7.68
863.201	102.91
863.375	-81.41
863.549	-34.3
863.722	-15.87
863.896	12.8
864.07	-15.87
864.244	-11.78
864.418	-73.21
864.592	6.66
864.766	-24.06
864.939	25.09
865.113	-7.68
865.287	49.66
865.461	-83.45
865.634	-15.87
865.808	23.04
865.982	-71.17
866.156	-87.55
866.329	-56.83
866.503	-13.82
866.676	72.19
866.85	14.85
867.024	-75.26
867.197	20.99
867.371	-7.68
867.544	61.95
867.718	-95.74
867.891	-1.54
868.065	-91.65
868.238	-17.92
868.412	76.29
868.585	-40.45
868.759	-110.08
868.932	-56.83
869.105	-54.78
869.279	37.38
869.452	-87.55
869.625	-7.68
869.799	-7.68
869.972	-1.54
870.145	35.33
870.319	57.86
870.492	-9.73
870.665	-79.36
870.838	-42.5
871.011	-42.5
871.185	-34.3
871.358	-81.41
871.531	66.05
871.704	-67.07
871.877	-5.63
872.05	-52.74
872.223	-116.22
872.396	47.62
872.569	0.51
872.742	-112.13
872.915	-9.73
873.088	-95.74
873.261	-89.6
873.434	66.05
873.607	-42.5
873.78	123.39
873.953	-101.89
874.126	-15.87
874.299	84.48
874.471	6.66
874.644	-15.87
874.817	127.49
874.99	147.97
875.163	-67.07
875.335	78.33
875.508	-81.41
875.681	-1.54
875.853	-89.6
876.026	-38.4
876.199	64
876.371	20.99
876.544	-54.78
876.717	70.14
876.889	2.56
877.062	47.62
877.234	-9.73
877.407	-71.17
877.579	-52.74
877.752	31.23
877.924	23.04
878.097	37.38
878.269	8.7
878.442	-28.16
878.614	23.04
878.786	-22.02
878.959	-19.97
879.131	66.05
879.303	-97.79
879.476	-54.78
879.648	47.62
879.82	59.9
879.993	-44.54
880.165	-52.74
880.337	-85.5
880.509	-15.87
880.681	-153.09
880.854	-62.98
881.026	-28.16
881.198	131.58
881.37	18.94
881.542	-46.59
881.714	-7.68
881.886	-77.31
882.058	-3.58
882.23	-67.07
882.402	68.09
882.574	6.66
882.746	47.62
882.918	61.95
883.09	90.62
883.262	-36.35
883.434	45.57
883.606	-44.54
883.778	-11.78
883.95	160.25
884.122	-30.21
884.293	72.19
884.465	23.04
884.637	37.38
884.809	-1.54
884.98	-67.07
885.152	-19.97
885.324	2.56
885.496	-75.26
885.667	-54.78
885.839	-79.36
886.011	129.53
886.182	6.66
886.354	33.28
886.525	-3.58
886.697	16.9
886.869	-62.98
887.04	-60.93
887.212	49.66
887.383	135.68
887.555	37.38
887.726	-3.58
887.897	-93.69
888.069	-19.97
888.24	-9.73
888.412	-22.02
888.583	-71.17
888.754	-22.02
888.926	-116.22
889.097	-67.07
889.268	-75.26
889.44	-34.3
889.611	-103.93
889.782	-99.84
889.953	-58.88
890.125	88.57
890.296	-75.26
890.467	-81.41
890.638	-67.07
890.809	14.85
890.98	-93.69
891.151	37.38
891.323	6.66
891.494	-50.69
891.665	-3.58
891.836	-13.82
892.007	-58.88
892.178	-9.73
892.349	-28.16
892.52	-93.69
892.691	45.57
892.862	33.28
893.032	-85.5
893.203	-24.06
893.374	20.99
893.545	115.2
893.716	-87.55
893.887	8.7
894.057	-79.36
894.228	-1.54
894.399	-22.02
894.57	80.38
894.74	-42.5
894.911	61.95
895.082	23.04
895.253	-58.88
895.423	37.38
895.594	8.7
895.764	92.67
895.935	-56.83
896.106	90.62
896.276	-73.21
896.447	-26.11
896.617	-118.27
896.788	29.18
896.958	-9.73
897.129	4.61
897.299	-110.08
897.47	20.99
897.64	37.38
897.81	-11.78
897.981	47.62
898.151	-42.5
898.322	-3.58
898.492	-9.73
898.662	-67.07
898.832	-28.16
899.003	-9.73
899.173	4.61
899.343	-56.83
899.513	-67.07
