Data from USB4F104151__37__09-27-23-209.txt Node

Date: Wed Feb 26 09:27:23 EST 2025
User: louis
Spectrometer: USB4F10415
Trigger mode: 4
Integration Time (sec): 1.000000E-1
Scans to average: 1
Electric dark correction enabled: true
Nonlinearity correction enabled: false
Boxcar width: 0
XAxis mode: Wavelengths
Number of Pixels in Spectrum: 3648
>>>>>Begin Spectral Data<<<<<
178.204	-317.61
178.424	-317.61
178.644	-317.61
178.864	-329.89
179.084	-315.56
179.304	-0.17
179.524	-59.56
179.744	18.26
179.964	-34.99
180.184	24.4
180.404	53.08
180.624	-53.42
180.844	-12.46
181.064	-22.7
181.283	102.23
181.503	-4.27
181.723	-10.41
181.943	-82.09
182.163	145.24
182.383	28.5
182.602	100.18
182.822	110.42
183.042	40.79
183.262	-20.65
183.482	-53.42
183.701	24.4
183.921	67.41
184.141	-0.17
184.361	85.84
184.58	22.36
184.8	32.6
185.02	-34.99
185.239	165.71
185.459	8.02
185.679	55.12
185.898	-61.61
186.118	73.56
186.338	38.74
186.557	65.36
186.777	-18.6
186.997	28.5
187.216	46.93
187.436	186.19
187.655	85.84
187.875	108.37
188.095	22.36
188.314	83.8
188.534	53.08
188.753	-61.61
188.973	65.36
189.192	137.04
189.412	63.32
189.631	12.12
189.851	46.93
190.07	171.86
190.29	1.88
190.509	63.32
190.729	42.84
190.948	55.12
191.168	282.45
191.387	100.18
191.607	28.5
191.826	8.02
192.045	38.74
192.265	-26.79
192.484	104.28
192.704	77.65
192.923	-43.18
193.142	163.67
193.362	94.04
193.581	186.19
193.8	75.6
194.02	161.62
194.239	-6.31
194.458	122.71
194.678	3.93
194.897	-18.6
195.116	59.22
195.335	46.93
195.555	28.5
195.774	34.64
195.993	63.32
196.212	63.32
196.432	30.55
196.651	20.31
196.87	-39.08
197.089	231.25
197.308	71.51
197.528	100.18
197.747	-12.46
197.966	85.84
198.185	167.76
198.404	24.4
198.623	38.74
198.842	112.47
199.062	65.36
199.281	32.6
199.5	87.89
199.719	116.56
199.938	28.5
200.157	110.42
200.376	87.89
200.595	96.08
200.814	94.04
201.033	-16.55
201.252	143.19
201.471	36.69
201.69	3.93
201.909	63.32
202.128	100.18
202.347	75.6
202.566	5.97
202.785	-2.22
203.004	-32.94
203.223	178
203.442	-14.51
203.661	-18.6
203.879	67.41
204.098	91.99
204.317	16.21
204.536	96.08
204.755	149.33
204.974	106.32
205.193	-18.6
205.411	128.85
205.63	190.29
205.849	44.88
206.068	102.23
206.287	28.5
206.505	147.28
206.724	8.02
206.943	-30.89
207.162	-26.79
207.381	26.45
207.599	38.74
207.818	46.93
208.037	-10.41
208.255	-10.41
208.474	69.46
208.693	28.5
208.911	48.98
209.13	75.6
209.349	67.41
209.567	116.56
209.786	77.65
210.005	100.18
210.223	42.84
210.442	-67.75
210.661	26.45
210.879	28.5
211.098	-26.79
211.316	32.6
211.535	51.03
211.753	85.84
211.972	30.55
212.191	34.64
212.409	38.74
212.628	87.89
212.846	-26.79
213.065	12.12
213.283	89.94
213.502	-2.22
213.72	100.18
213.938	63.32
214.157	-6.31
214.375	91.99
214.594	10.07
214.812	-2.22
215.031	42.84
215.249	8.02
215.467	34.64
215.686	18.26
215.904	79.7
216.122	46.93
216.341	128.85
216.559	16.21
216.778	30.55
216.996	143.19
217.214	55.12
217.432	-37.03
217.651	-2.22
217.869	16.21
218.087	20.31
218.306	-18.6
218.524	85.84
218.742	73.56
218.96	75.6
219.179	61.27
219.397	5.97
219.615	198.48
219.833	116.56
220.051	5.97
220.27	40.79
220.488	89.94
220.706	79.7
220.924	-26.79
221.142	-2.22
221.36	81.75
221.578	22.36
221.796	26.45
222.015	85.84
222.233	34.64
222.451	94.04
222.669	-88.23
222.887	75.6
223.105	44.88
223.323	-2.22
223.541	-30.89
223.759	65.36
223.977	44.88
224.195	71.51
224.413	118.61
224.631	51.03
224.849	61.27
225.067	202.58
225.285	-73.9
225.503	51.03
225.721	-96.43
225.939	-2.22
226.157	71.51
226.375	239.44
226.592	5.97
226.81	28.5
227.028	163.67
227.246	135
227.464	96.08
227.682	61.27
227.9	61.27
228.117	5.97
228.335	5.97
228.553	26.45
228.771	55.12
228.989	44.88
229.206	75.6
229.424	14.17
229.642	-28.84
229.86	-55.47
230.077	120.66
230.295	87.89
230.513	104.28
230.731	51.03
230.948	186.19
231.166	135
231.384	42.84
231.601	30.55
231.819	235.35
232.037	5.97
232.254	-133.29
232.472	22.36
232.689	-2.22
232.907	77.65
233.125	75.6
233.342	73.56
233.56	-4.27
233.777	-51.37
233.995	46.93
234.213	73.56
234.43	91.99
234.648	12.12
234.865	44.88
235.083	65.36
235.3	28.5
235.518	69.46
235.735	192.34
235.953	106.32
236.17	79.7
236.388	-32.94
236.605	5.97
236.822	55.12
237.04	69.46
237.257	3.93
237.475	-2.22
237.692	83.8
237.909	8.02
238.127	-39.08
238.344	110.42
238.562	-24.75
238.779	-16.55
238.996	-71.85
239.214	42.84
239.431	40.79
239.648	3.93
239.865	79.7
240.083	110.42
240.3	20.31
240.517	-8.36
240.735	75.6
240.952	96.08
241.169	-18.6
241.386	116.56
241.603	24.4
241.821	-47.27
242.038	63.32
242.255	18.26
242.472	-77.99
242.689	30.55
242.907	89.94
243.124	-10.41
243.341	5.97
243.558	14.17
243.775	-49.32
243.992	-49.32
244.209	36.69
244.426	137.04
244.643	48.98
244.86	-84.14
245.078	42.84
245.295	-61.61
245.512	26.45
245.729	-82.09
245.946	10.07
246.163	87.89
246.38	1.88
246.597	32.6
246.814	48.98
247.031	44.88
247.248	1.88
247.464	96.08
247.681	18.26
247.898	57.17
248.115	28.5
248.332	-34.99
248.549	165.71
248.766	159.57
248.983	87.89
249.2	116.56
249.417	100.18
249.633	69.46
249.85	75.6
250.067	-39.08
250.284	20.31
250.501	28.5
250.717	79.7
250.934	-43.18
251.151	46.93
251.368	-39.08
251.585	-12.46
251.801	48.98
252.018	-18.6
252.235	145.24
252.451	-59.56
252.668	55.12
252.885	116.56
253.102	67.41
253.318	-8.36
253.535	38.74
253.752	73.56
253.968	5.97
254.185	-63.66
254.401	63.32
254.618	67.41
254.835	-30.89
255.051	89.94
255.268	48.98
255.484	61.27
255.701	44.88
255.917	104.28
256.134	30.55
256.351	28.5
256.567	-18.6
256.784	116.56
257	-12.46
257.217	55.12
257.433	77.65
257.65	24.4
257.866	96.08
258.082	-57.51
258.299	-39.08
258.515	42.84
258.732	-59.56
258.948	5.97
259.165	38.74
259.381	-2.22
259.597	91.99
259.814	71.51
260.03	-4.27
260.246	8.02
260.463	83.8
260.679	112.47
260.895	22.36
261.112	46.93
261.328	77.65
261.544	36.69
261.761	132.95
261.977	-4.27
262.193	8.02
262.409	53.08
262.626	91.99
262.842	12.12
263.058	-10.41
263.274	137.04
263.49	34.64
263.707	53.08
263.923	36.69
264.139	-67.75
264.355	79.7
264.571	48.98
264.787	42.84
265.004	118.61
265.22	22.36
265.436	-6.31
265.652	10.07
265.868	44.88
266.084	-14.51
266.3	-39.08
266.516	-10.41
266.732	91.99
266.948	38.74
267.164	-32.94
267.38	98.13
267.596	18.26
267.812	188.24
268.028	-2.22
268.244	10.07
268.46	63.32
268.676	22.36
268.892	106.32
269.108	-10.41
269.324	-34.99
269.54	-61.61
269.756	87.89
269.972	-75.95
270.188	8.02
270.403	-84.14
270.619	28.5
270.835	44.88
271.051	22.36
271.267	-63.66
271.483	26.45
271.698	116.56
271.914	46.93
272.13	-26.79
272.346	55.12
272.562	96.08
272.777	46.93
272.993	91.99
273.209	-51.37
273.425	149.33
273.64	-39.08
273.856	75.6
274.072	18.26
274.287	63.32
274.503	100.18
274.719	104.28
274.934	-34.99
275.15	-43.18
275.366	63.32
275.581	-59.56
275.797	57.17
276.012	24.4
276.228	12.12
276.444	5.97
276.659	73.56
276.875	-22.7
277.09	22.36
277.306	10.07
277.521	53.08
277.737	10.07
277.952	71.51
278.168	59.22
278.383	79.7
278.599	44.88
278.814	130.9
279.03	-10.41
279.245	155.47
279.461	12.12
279.676	30.55
279.892	-108.71
280.107	57.17
280.322	20.31
280.538	102.23
280.753	83.8
280.969	44.88
281.184	5.97
281.399	159.57
281.615	32.6
281.83	48.98
282.045	10.07
282.26	28.5
282.476	22.36
282.691	73.56
282.906	-41.13
283.122	24.4
283.337	-4.27
283.552	-6.31
283.767	1.88
283.983	116.56
284.198	77.65
284.413	30.55
284.628	-104.62
284.843	65.36
285.058	30.55
285.274	96.08
285.489	12.12
285.704	108.37
285.919	-18.6
286.134	-2.22
286.349	73.56
286.564	40.79
286.779	30.55
286.995	-0.17
287.21	-82.09
287.425	53.08
287.64	-92.33
287.855	42.84
288.07	34.64
288.285	167.76
288.5	67.41
288.715	34.64
288.93	-67.75
289.145	-28.84
289.36	116.56
289.575	-16.55
289.79	130.9
290.004	-34.99
290.219	110.42
290.434	22.36
290.649	83.8
290.864	75.6
291.079	-39.08
291.294	34.64
291.509	36.69
291.724	-12.46
291.938	48.98
292.153	36.69
292.368	-34.99
292.583	36.69
292.798	85.84
293.012	14.17
293.227	24.4
293.442	-59.56
293.657	132.95
293.871	102.23
294.086	137.04
294.301	128.85
294.516	147.28
294.73	69.46
294.945	-37.03
295.16	-12.46
295.374	132.95
295.589	75.6
295.804	-2.22
296.018	91.99
296.233	130.9
296.447	91.99
296.662	-45.23
296.877	124.76
297.091	102.23
297.306	-2.22
297.52	-18.6
297.735	83.8
297.949	-18.6
298.164	-2.22
298.378	53.08
298.593	-43.18
298.807	-55.47
299.022	22.36
299.236	89.94
299.451	-8.36
299.665	-53.42
299.88	77.65
300.094	98.13
300.309	-86.19
300.523	38.74
300.737	10.07
300.952	77.65
301.166	14.17
301.381	-22.7
301.595	-10.41
301.809	20.31
302.024	-34.99
302.238	-51.37
302.452	75.6
302.667	42.84
302.881	153.43
303.095	61.27
303.309	57.17
303.524	-0.17
303.738	-10.41
303.952	77.65
304.166	34.64
304.381	-145.58
304.595	169.81
304.809	-14.51
305.023	48.98
305.237	-12.46
305.452	-24.75
305.666	79.7
305.88	18.26
306.094	63.32
306.308	61.27
306.522	48.98
306.736	55.12
306.95	30.55
307.164	-4.27
307.379	-6.31
307.593	104.28
307.807	128.85
308.021	55.12
308.235	165.71
308.449	-26.79
308.663	57.17
308.877	231.25
309.091	38.74
309.305	65.36
309.519	-77.99
309.733	94.04
309.947	-80.04
310.161	81.75
310.374	26.45
310.588	77.65
310.802	-8.36
311.016	34.64
311.23	38.74
311.444	14.17
311.658	28.5
311.872	102.23
312.085	112.47
312.299	100.18
312.513	75.6
312.727	-2.22
312.941	1.88
313.154	73.56
313.368	8.02
313.582	61.27
313.796	42.84
314.009	65.36
314.223	96.08
314.437	112.47
314.651	14.17
314.864	48.98
315.078	106.32
315.292	-14.51
315.505	-61.61
315.719	71.51
315.933	71.51
316.146	30.55
316.36	-8.36
316.573	91.99
316.787	55.12
317.001	10.07
317.214	-51.37
317.428	87.89
317.641	1.88
317.855	46.93
318.068	53.08
318.282	96.08
318.495	118.61
318.709	128.85
318.922	38.74
319.136	81.75
319.349	63.32
319.563	-24.75
319.776	10.07
319.99	5.97
320.203	104.28
320.417	53.08
320.63	75.6
320.843	110.42
321.057	87.89
321.27	30.55
321.483	-2.22
321.697	83.8
321.91	61.27
322.124	81.75
322.337	20.31
322.55	-2.22
322.763	61.27
322.977	24.4
323.19	10.07
323.403	14.17
323.617	116.56
323.83	87.89
324.043	-14.51
324.256	20.31
324.469	-55.47
324.683	104.28
324.896	-28.84
325.109	126.8
325.322	-104.62
325.535	120.66
325.748	44.88
325.962	3.93
326.175	51.03
326.388	91.99
326.601	135
326.814	22.36
327.027	46.93
327.24	139.09
327.453	-67.75
327.666	38.74
327.879	22.36
328.092	51.03
328.305	46.93
328.518	-43.18
328.731	-45.23
328.944	61.27
329.157	28.5
329.37	10.07
329.583	161.62
329.796	112.47
330.009	-47.27
330.222	91.99
330.435	46.93
330.648	96.08
330.861	30.55
331.073	12.12
331.286	55.12
331.499	67.41
331.712	-86.19
331.925	26.45
332.138	73.56
332.35	46.93
332.563	-34.99
332.776	30.55
332.989	-26.79
333.202	34.64
333.414	71.51
333.627	28.5
333.84	83.8
334.053	48.98
334.265	-22.7
334.478	-26.79
334.691	20.31
334.903	104.28
335.116	-39.08
335.329	14.17
335.541	55.12
335.754	149.33
335.966	20.31
336.179	38.74
336.392	-14.51
336.604	34.64
336.817	79.7
337.029	-2.22
337.242	5.97
337.454	73.56
337.667	46.93
337.88	75.6
338.092	-16.55
338.305	61.27
338.517	-18.6
338.729	34.64
338.942	137.04
339.154	-2.22
339.367	-12.46
339.579	69.46
339.792	-59.56
340.004	126.8
340.217	-6.31
340.429	18.26
340.641	28.5
340.854	-10.41
341.066	108.37
341.278	48.98
341.491	175.95
341.703	32.6
341.915	-59.56
342.128	91.99
342.34	30.55
342.552	-59.56
342.764	38.74
342.977	-10.41
343.189	22.36
343.401	67.41
343.613	-14.51
343.826	77.65
344.038	30.55
344.25	12.12
344.462	51.03
344.674	32.6
344.886	-51.37
345.099	51.03
345.311	69.46
345.523	-39.08
345.735	-67.75
345.947	46.93
346.159	42.84
346.371	36.69
346.583	24.4
346.795	198.48
347.007	57.17
347.219	26.45
347.431	63.32
347.643	87.89
347.855	8.02
348.067	100.18
348.279	-77.99
348.491	57.17
348.703	22.36
348.915	53.08
349.127	-47.27
349.339	48.98
349.551	5.97
349.763	122.71
349.975	65.36
350.187	69.46
350.399	178
350.61	85.84
350.822	12.12
351.034	75.6
351.246	-10.41
351.458	94.04
351.669	91.99
351.881	106.32
352.093	137.04
352.305	87.89
352.517	118.61
352.728	130.9
352.94	73.56
353.152	67.41
353.363	-4.27
353.575	10.07
353.787	102.23
353.999	48.98
354.21	161.62
354.422	20.31
354.633	10.07
354.845	36.69
355.057	143.19
355.268	44.88
355.48	124.76
355.692	10.07
355.903	26.45
356.115	-41.13
356.326	-24.75
356.538	161.62
356.749	71.51
356.961	128.85
357.172	32.6
357.384	-37.03
357.595	194.39
357.807	-43.18
358.018	-14.51
358.23	12.12
358.441	184.15
358.653	81.75
358.864	42.84
359.075	8.02
359.287	-10.41
359.498	71.51
359.709	48.98
359.921	12.12
360.132	-12.46
360.344	3.93
360.555	-22.7
360.766	18.26
360.977	-20.65
361.189	132.95
361.4	8.02
361.611	96.08
361.823	165.71
362.034	116.56
362.245	63.32
362.456	20.31
362.667	137.04
362.879	10.07
363.09	75.6
363.301	22.36
363.512	18.26
363.723	-92.33
363.935	-34.99
364.146	85.84
364.357	57.17
364.568	59.22
364.779	-92.33
364.99	241.49
365.201	14.17
365.412	83.8
365.623	-26.79
365.834	63.32
366.045	-12.46
366.256	55.12
366.467	57.17
366.678	59.22
366.889	44.88
367.1	89.94
367.311	71.51
367.522	59.22
367.733	75.6
367.944	48.98
368.155	63.32
368.366	141.14
368.577	46.93
368.788	34.64
368.999	-0.17
369.209	112.47
369.42	208.72
369.631	200.53
369.842	22.36
370.053	-22.7
370.264	108.37
370.474	-75.95
370.685	108.37
370.896	24.4
371.107	169.81
371.317	96.08
371.528	-10.41
371.739	128.85
371.95	26.45
372.16	104.28
372.371	-37.03
372.582	102.23
372.792	1.88
373.003	46.93
373.214	63.32
373.424	32.6
373.635	16.21
373.846	73.56
374.056	53.08
374.267	38.74
374.477	73.56
374.688	-43.18
374.898	38.74
375.109	61.27
375.319	36.69
375.53	137.04
375.74	59.22
375.951	-6.31
376.161	91.99
376.372	118.61
376.582	48.98
376.793	65.36
377.003	-18.6
377.214	-34.99
377.424	120.66
377.635	104.28
377.845	69.46
378.055	135
378.266	-53.42
378.476	-26.79
378.686	5.97
378.897	5.97
379.107	178
379.317	42.84
379.528	-45.23
379.738	24.4
379.948	-26.79
380.158	106.32
380.369	71.51
380.579	79.7
380.789	42.84
380.999	53.08
381.21	81.75
381.42	112.47
381.63	1.88
381.84	141.14
382.05	77.65
382.261	112.47
382.471	71.51
382.681	16.21
382.891	145.24
383.101	75.6
383.311	-39.08
383.521	81.75
383.731	87.89
383.941	128.85
384.151	-14.51
384.361	-34.99
384.571	44.88
384.781	34.64
384.991	141.14
385.201	110.42
385.411	108.37
385.621	100.18
385.831	26.45
386.041	96.08
386.251	53.08
386.461	130.9
386.671	-20.65
386.881	59.22
387.091	-20.65
387.301	85.84
387.511	71.51
387.72	79.7
387.93	143.19
388.14	1.88
388.35	36.69
388.56	116.56
388.769	87.89
388.979	30.55
389.189	38.74
389.399	12.12
389.609	114.52
389.818	128.85
390.028	61.27
390.238	-2.22
390.447	-43.18
390.657	77.65
390.867	63.32
391.076	-86.19
391.286	36.69
391.496	-24.75
391.705	61.27
391.915	75.6
392.125	128.85
392.334	-14.51
392.544	112.47
392.753	40.79
392.963	-10.41
393.172	-20.65
393.382	40.79
393.591	112.47
393.801	28.5
394.01	100.18
394.22	51.03
394.429	32.6
394.639	38.74
394.848	51.03
395.058	36.69
395.267	-10.41
395.477	3.93
395.686	61.27
395.895	112.47
396.105	149.33
396.314	-2.22
396.524	-47.27
396.733	14.17
396.942	116.56
397.152	61.27
397.361	55.12
397.57	44.88
397.78	-12.46
397.989	18.26
398.198	194.39
398.407	20.31
398.617	79.7
398.826	69.46
399.035	-0.17
399.244	108.37
399.453	30.55
399.663	-18.6
399.872	30.55
400.081	-73.9
400.29	102.23
400.499	-47.27
400.708	67.41
400.917	14.17
401.127	94.04
401.336	-34.99
401.545	194.39
401.754	94.04
401.963	38.74
402.172	-51.37
402.381	-30.89
402.59	-37.03
402.799	102.23
403.008	63.32
403.217	-10.41
403.426	18.26
403.635	-53.42
403.844	20.31
404.053	75.6
404.262	126.8
404.471	169.81
404.68	5.97
404.888	32.6
405.097	14.17
405.306	-6.31
405.515	135
405.724	-20.65
405.933	79.7
406.142	112.47
406.35	106.32
406.559	71.51
406.768	83.8
406.977	132.95
407.185	28.5
407.394	132.95
407.603	-143.53
407.812	-22.7
408.02	38.74
408.229	18.26
408.438	77.65
408.646	-26.79
408.855	16.21
409.064	48.98
409.272	-12.46
409.481	110.42
409.69	22.36
409.898	-57.51
410.107	104.28
410.315	163.67
410.524	-6.31
410.733	36.69
410.941	28.5
411.15	143.19
411.358	94.04
411.567	153.43
411.775	94.04
411.984	57.17
412.192	106.32
412.401	55.12
412.609	100.18
412.818	128.85
413.026	20.31
413.234	-6.31
413.443	5.97
413.651	-32.94
413.86	75.6
414.068	73.56
414.276	186.19
414.485	24.4
414.693	135
414.901	229.2
415.11	30.55
415.318	124.76
415.526	73.56
415.734	85.84
415.943	36.69
416.151	186.19
416.359	34.64
416.567	34.64
416.776	38.74
416.984	112.47
417.192	159.57
417.4	-75.95
417.608	77.65
417.817	32.6
418.025	53.08
418.233	120.66
418.441	48.98
418.649	12.12
418.857	83.8
419.065	157.52
419.273	36.69
419.481	28.5
419.689	79.7
419.897	100.18
420.105	-2.22
420.313	53.08
420.521	161.62
420.729	151.38
420.937	-12.46
421.145	-96.43
421.353	100.18
421.561	157.52
421.769	96.08
421.977	-49.32
422.185	79.7
422.393	5.97
422.601	149.33
422.809	59.22
423.017	104.28
423.224	53.08
423.432	132.95
423.64	32.6
423.848	145.24
424.056	5.97
424.263	44.88
424.471	38.74
424.679	167.76
424.887	-84.14
425.094	94.04
425.302	104.28
425.51	38.74
425.718	73.56
425.925	120.66
426.133	-26.79
426.341	163.67
426.548	30.55
426.756	38.74
426.964	85.84
427.171	22.36
427.379	-2.22
427.586	102.23
427.794	14.17
428.001	89.94
428.209	20.31
428.417	61.27
428.624	112.47
428.832	22.36
429.039	83.8
429.247	30.55
429.454	159.57
429.662	143.19
429.869	57.17
430.076	116.56
430.284	69.46
430.491	128.85
430.699	106.32
430.906	149.33
431.114	-0.17
431.321	71.51
431.528	110.42
431.736	137.04
431.943	184.15
432.15	44.88
432.358	135
432.565	153.43
432.772	-63.66
432.979	135
433.187	184.15
433.394	143.19
433.601	65.36
433.808	108.37
434.016	184.15
434.223	198.48
434.43	225.11
434.637	178
434.844	161.62
435.052	178
435.259	178
435.466	223.06
435.673	147.28
435.88	163.67
436.087	276.31
436.294	227.15
436.501	208.72
436.708	208.72
436.915	229.2
437.122	194.39
437.329	122.71
437.537	186.19
437.743	214.87
437.95	335.7
438.157	245.59
438.364	218.96
438.571	212.82
438.778	259.92
438.985	257.87
439.192	374.61
439.399	241.49
439.606	292.69
439.813	347.98
440.02	399.18
440.227	438.09
440.433	423.76
440.64	304.98
440.847	257.87
441.054	513.87
441.261	536.4
441.467	468.81
441.674	352.08
441.881	509.77
442.088	390.99
442.294	460.62
442.501	534.35
442.708	544.59
442.914	565.07
443.121	608.08
443.328	571.21
443.534	653.13
443.741	550.73
443.948	493.39
444.154	683.85
444.361	757.58
444.568	612.17
444.774	710.47
444.981	677.71
445.187	851.78
445.394	737.1
445.6	710.47
445.807	831.3
446.013	849.74
446.22	743.24
446.426	954.18
446.633	1015.62
446.839	1062.73
447.046	902.98
447.252	1081.16
447.459	1005.38
447.665	1001.29
447.871	1181.51
448.078	1308.48
448.284	1281.86
448.491	1374.02
448.697	1324.87
448.903	1386.3
449.11	1427.26
449.316	1388.35
449.522	1693.5
449.728	1738.55
449.935	1584.96
450.141	1634.11
450.347	1849.15
450.553	1711.93
450.76	1849.15
450.966	1904.44
451.172	1992.5
451.378	2080.57
451.584	2025.27
451.791	2182.96
451.997	2311.99
452.203	2285.36
452.409	2346.8
452.615	2623.28
452.821	2434.86
453.027	2469.68
453.233	2942.76
453.44	2729.77
453.646	3006.25
453.852	3077.93
454.058	3118.89
454.264	3172.13
454.47	3536.67
454.676	3577.63
454.882	3878.68
455.088	3528.48
455.294	3903.26
455.5	4097.81
455.705	4450.07
455.911	4331.28
456.117	4329.24
456.323	4515.6
456.529	4476.69
456.735	4953.87
456.941	4996.87
457.147	5248.77
457.352	5402.37
457.558	5701.37
457.764	5912.32
457.97	5983.99
458.176	6405.88
458.381	6555.38
458.587	6872.81
458.793	7112.42
458.999	7141.1
459.204	7945.95
459.41	8277.72
459.616	8077.02
459.821	8498.9
460.027	9047.76
460.233	9279.18
460.438	9461.44
460.644	10092.22
460.85	9969.34
461.055	10251.96
461.261	10968.75
461.466	10837.68
461.672	11001.52
461.878	12107.42
462.083	12084.89
462.289	12269.21
462.494	12707.48
462.7	12844.69
462.905	12981.9
463.111	13942.4
463.316	14726.77
463.522	14802.55
463.727	15533.67
463.932	16244.32
464.138	16938.58
464.343	17374.8
464.549	17487.43
464.754	18843.19
464.959	19084.85
465.165	19645.99
465.37	19394.09
465.575	19398.19
465.781	20715.03
465.986	21405.2
466.191	21298.7
466.397	21388.81
466.602	20919.83
466.807	21790.22
467.012	22517.25
467.218	22590.97
467.423	22840.82
467.628	23434.74
467.833	24976.86
468.038	24006.12
468.244	24018.41
468.449	25165.27
468.654	24716.76
468.859	24577.5
469.064	24849.88
469.269	23774.7
469.474	24323.55
469.679	25083.35
469.885	24294.88
470.09	24856.03
470.295	24817.11
470.5	24042.98
470.705	24460.77
470.91	23778.79
471.115	23657.96
471.32	24208.87
471.525	24020.45
471.73	23285.23
471.935	23092.72
472.139	22023.69
472.344	22328.83
472.549	22136.32
472.754	21765.64
472.959	20979.22
473.164	20260.38
473.369	20139.55
473.574	20532.76
473.778	20364.83
473.983	20102.69
474.188	19541.55
474.393	18468.41
474.598	18671.16
474.802	18351.68
475.007	18067.01
475.212	17899.08
475.417	17098.32
475.621	17065.55
475.826	16946.77
476.031	16504.41
476.235	16100.96
476.44	15838.82
476.645	15609.45
476.849	15453.8
477.054	15230.57
477.259	14777.97
477.463	14698.1
477.668	14442.1
477.872	14372.47
478.077	14145.15
478.282	13520.52
478.486	13491.85
478.691	13487.75
478.895	13149.84
479.1	13031.05
479.304	12955.28
479.509	12588.69
479.713	12942.99
479.918	12658.32
480.122	12072.61
480.326	12211.87
480.531	12258.97
480.735	12072.61
480.94	11765.41
481.144	12271.26
481.348	11603.62
481.553	11568.8
481.757	11439.78
481.961	11505.32
482.166	11529.89
482.37	11402.92
482.574	11060.91
482.778	11065
482.983	11159.21
483.187	11114.16
483.391	10923.69
483.595	10806.96
483.8	10677.94
484.004	10608.31
484.208	10622.64
484.412	10471.09
484.616	10440.37
484.821	10319.54
485.025	9803.46
485.229	10016.44
485.433	9938.62
485.637	9799.36
485.841	9522.88
486.045	9828.03
486.249	9393.86
486.453	9227.98
486.657	9299.66
486.861	8916.69
487.065	8670.93
487.269	8707.79
487.473	8285.91
487.677	8642.26
487.881	8543.95
488.085	8212.18
488.289	7964.38
488.493	7976.67
488.697	7892.7
488.901	7712.48
489.105	7395.04
489.309	7411.43
489.512	7313.13
489.716	7194.34
489.92	7042.79
490.124	6885.1
490.328	6932.2
490.531	6498.03
490.735	6698.74
490.939	6461.17
491.143	6178.55
491.346	6293.24
491.55	6174.46
491.754	6059.77
491.958	5879.55
492.161	5648.13
492.365	5797.63
492.569	5707.52
492.772	5717.76
492.976	5560.06
493.18	5359.36
493.383	5357.32
493.587	5285.64
493.79	5375.75
493.994	5058.31
494.197	5052.17
494.401	4994.83
494.605	4937.48
494.808	5037.83
495.012	4806.41
495.215	4787.98
495.419	4859.66
495.622	4790.03
495.825	4646.67
496.029	4765.45
496.232	4669.2
496.436	4706.06
496.639	4683.53
496.843	4601.62
497.046	4521.74
497.249	4876.04
497.453	4572.94
497.656	4581.14
497.859	4579.09
498.063	4605.71
498.266	4814.6
498.469	4429.59
498.673	4640.53
498.876	4642.57
499.079	4626.19
499.282	4597.52
499.485	4890.38
499.689	4677.39
499.892	4753.16
500.095	4822.8
500.298	4753.16
500.501	4667.15
500.705	4787.98
500.908	4884.23
501.111	4859.66
501.314	4921.1
501.517	5183.24
501.72	5074.7
501.923	5189.38
502.126	5111.56
502.329	5297.92
502.532	5181.19
502.735	5154.57
502.938	5404.42
503.141	5330.69
503.344	5254.92
503.547	5467.91
503.75	5521.15
503.953	5560.06
504.156	5766.91
504.359	5670.65
504.562	6016.76
504.765	5906.17
504.968	6067.96
505.17	6113.02
505.373	6110.97
505.576	6235.89
505.779	6354.68
505.982	6362.87
506.185	6639.34
506.387	6573.81
506.59	6948.59
506.793	7085.8
506.996	7182.06
507.198	7327.46
507.401	7255.78
507.604	7337.7
507.807	7528.16
508.009	7798.49
508.212	7692
508.415	7931.61
508.617	8138.46
508.82	8308.44
509.022	8302.29
509.225	8552.15
509.428	8802
509.63	8787.66
509.833	9012.94
510.035	9377.48
510.238	9629.38
510.44	9629.38
510.643	9903.81
510.845	10264.25
511.048	10204.86
511.25	10573.49
511.453	10843.82
511.655	11277.99
511.858	11300.52
512.06	11480.74
512.262	11865.76
512.465	12019.36
512.667	12318.36
512.87	12582.55
513.072	12721.81
513.274	13401.74
513.477	13471.37
513.679	13792.9
513.881	14104.19
514.084	14653.05
514.286	14825.08
514.488	14790.26
514.69	15384.17
514.893	15896.16
515.095	16004.71
515.297	16248.41
515.499	16750.17
515.701	16920.15
515.904	17489.48
516.106	17817.16
516.308	17976.9
516.51	18406.97
516.712	18830.9
516.914	19365.42
517.116	19686.95
517.318	19906.09
517.52	20301.34
517.722	20639.26
517.925	21257.74
518.127	21640.72
518.329	22158.85
518.531	21909
518.733	22664.7
518.935	23305.71
519.136	23635.44
519.338	23981.54
519.54	24436.19
519.742	24542.69
519.944	25001.43
520.146	25335.25
520.348	25853.39
520.55	26123.72
520.752	26090.95
520.954	27114.94
521.155	26985.91
521.357	27569.58
521.559	28112.3
521.761	28437.92
521.963	28362.15
522.164	28667.3
522.366	28882.33
522.568	29253.01
522.77	29457.81
522.971	30223.75
523.173	29838.73
523.375	30522.76
523.576	30494.08
523.778	30719.36
523.98	30780.8
524.181	31032.7
524.383	31425.91
524.584	31511.92
524.786	31243.64
524.988	31556.98
525.189	32066.92
525.391	31704.43
525.592	31905.13
525.794	31661.43
525.995	31956.33
526.197	31999.34
526.398	31487.35
526.6	31702.39
526.801	31599.99
527.003	31638.9
527.204	31604.08
527.406	31733.11
527.607	31573.36
527.808	31401.33
528.01	30762.37
528.211	31126.91
528.412	31225.21
528.614	31131
528.815	30795.14
529.016	30901.63
529.218	30100.87
529.419	30061.96
529.62	29666.7
529.822	29621.65
530.023	29449.62
530.224	29072.79
530.425	28941.72
530.626	28153.26
530.828	27827.63
531.029	28503.46
531.23	27704.75
531.431	27147.7
531.632	27305.4
531.833	27131.32
532.035	26580.42
532.236	26322.37
532.437	26209.73
532.638	25650.64
532.839	25077.21
533.04	25273.81
533.241	24530.4
533.442	24919.51
533.643	24020.45
533.844	23866.86
534.045	23606.77
534.246	23102.96
534.447	22765.05
534.648	22607.36
534.849	22513.15
535.05	21931.53
535.251	21708.3
535.451	21700.11
535.652	21335.57
535.853	20708.89
536.054	20444.7
536.255	20461.09
536.456	19949.09
536.657	20016.68
536.857	19596.84
537.058	18996.79
537.259	19269.17
537.46	18763.32
537.66	18581.05
537.861	18437.69
538.062	17794.63
538.263	17747.53
538.463	17450.57
538.664	17542.73
538.865	17083.98
539.065	17325.64
539.266	16774.74
539.466	16932.43
539.667	16279.13
539.868	16543.32
540.068	15910.5
540.269	15873.64
540.469	15781.48
540.67	15390.31
540.87	15478.38
541.071	15011.44
541.271	15183.47
541.472	14906.99
541.672	14663.29
541.873	14222.97
542.073	14337.66
542.274	14294.65
542.474	14001.79
542.675	13817.47
542.875	13661.83
543.075	13295.24
543.276	13354.63
543.476	13381.26
543.676	12883.6
543.877	13018.77
544.077	12781.2
544.277	12476.05
544.478	12529.3
544.678	12437.14
544.878	12408.47
545.078	11990.69
545.279	11888.29
545.479	11742.88
545.679	11617.96
545.879	11370.15
546.079	11486.89
546.28	11151.02
546.48	11052.72
546.68	11026.09
546.88	11110.06
547.08	10847.92
547.28	10641.07
547.48	10329.78
547.68	10464.95
547.88	10268.34
548.081	10215.1
548.281	9817.79
548.481	9832.13
548.681	9836.22
548.881	9631.43
549.081	9416.39
549.28	9467.59
549.48	9295.56
549.68	9279.18
549.88	9240.26
550.08	8728.27
550.28	8804.05
550.48	8713.94
550.68	8689.36
550.88	8486.61
551.08	8492.76
551.279	8296.15
551.479	8111.83
551.679	7866.08
551.879	7980.76
552.079	7728.86
552.278	7679.71
552.478	7624.42
552.678	7526.11
552.878	7309.03
553.077	7263.97
553.277	7007.98
553.477	6926.06
553.676	6967.02
553.876	6594.29
554.076	6731.5
554.275	6436.6
554.475	6420.21
554.674	6342.39
554.874	6188.79
555.074	6096.63
555.273	6039.29
555.473	5805.82
555.672	5850.88
555.872	5635.84
556.071	5736.19
556.271	5811.96
556.47	5410.56
556.67	5326.6
556.869	5392.13
557.068	5175.05
557.268	5107.46
557.467	5009.16
557.667	4935.43
557.866	5011.21
558.065	4843.28
558.265	4693.77
558.464	4624.14
558.663	4691.73
558.863	4445.97
559.062	4691.73
559.261	4255.51
559.461	4232.98
559.66	4230.93
559.859	3999.51
560.058	3899.16
560.258	4015.9
560.457	3905.31
560.656	3950.36
560.855	3626.78
561.054	3872.54
561.253	3727.13
561.453	3626.78
561.652	3659.55
561.851	3682.08
562.05	3495.71
562.249	3421.99
562.448	3424.03
562.647	3278.63
562.846	3227.43
563.045	3229.48
563.244	3114.79
563.443	3252
563.642	2973.48
563.841	3106.6
564.04	2942.76
564.239	3002.15
564.438	2924.33
564.637	2821.93
564.836	2780.97
565.035	2654
565.234	2658.09
565.432	2553.65
565.631	2617.13
565.83	2592.56
566.029	2496.3
566.228	2508.59
566.427	2510.64
566.625	2281.27
566.824	2383.66
567.023	2418.48
567.222	2402.1
567.42	2324.27
567.619	2377.52
567.818	2228.02
568.016	2301.75
568.215	2160.44
568.414	2273.07
568.612	2053.94
568.811	2035.51
569.01	2033.46
569.208	1980.22
569.407	2047.8
569.605	1967.93
569.804	1902.39
570.002	1830.71
570.201	1793.85
570.4	1918.78
570.598	1816.38
570.797	1638.2
570.995	1765.18
571.193	1752.89
571.392	1726.27
571.59	1652.54
571.789	1630.01
571.987	1730.36
572.186	1695.55
572.384	1517.37
572.582	1427.26
572.781	1519.42
572.979	1410.88
573.177	1466.17
573.376	1509.18
573.574	1462.08
573.772	1408.83
573.971	1326.91
574.169	1251.14
574.367	1410.88
574.565	1384.26
574.763	1220.42
574.962	1343.3
575.16	1271.62
575.358	1197.89
575.556	1236.8
575.754	1183.56
575.952	1152.84
576.151	1238.85
576.349	1187.65
576.547	1015.62
576.745	1046.34
576.943	1019.72
577.141	1140.55
577.339	870.22
577.537	1068.87
577.735	1085.25
577.933	976.71
578.131	1064.77
578.329	1038.15
578.527	970.57
578.725	962.37
578.923	907.08
579.121	978.76
579.319	778.06
579.516	853.83
579.714	1085.25
579.912	923.46
580.11	749.39
580.308	808.78
580.506	708.43
580.704	687.95
580.901	651.08
581.099	855.88
581.297	776.01
581.495	800.59
581.692	714.57
581.89	814.92
582.088	683.85
582.285	782.15
582.483	661.32
582.681	718.67
582.878	669.52
583.076	687.95
583.274	665.42
583.471	765.77
583.669	583.5
583.866	501.58
584.064	593.74
584.262	503.63
584.459	509.77
584.657	706.38
584.854	601.93
585.052	683.85
585.249	603.98
585.447	618.32
585.644	497.49
585.841	560.97
586.039	581.45
586.236	542.54
586.434	517.97
586.631	493.39
586.828	505.68
587.026	530.25
587.223	440.14
587.42	462.67
587.618	493.39
587.815	556.88
588.012	493.39
588.21	489.29
588.407	528.21
588.604	466.77
588.801	436.05
588.999	415.57
589.196	579.4
589.393	399.18
589.59	466.77
589.787	450.38
589.984	505.68
590.182	485.2
590.379	372.56
590.576	405.33
590.773	460.62
590.97	401.23
591.167	448.33
591.364	468.81
591.561	352.08
591.758	550.73
591.955	477.01
592.152	444.24
592.349	345.94
592.546	405.33
592.743	399.18
592.94	388.94
593.137	380.75
593.334	503.63
593.531	397.14
593.727	456.53
593.924	438.09
594.121	483.15
594.318	415.57
594.515	436.05
594.712	460.62
594.908	464.72
595.105	354.13
595.302	481.1
595.499	421.71
595.696	554.83
595.892	374.61
596.089	538.45
596.286	513.87
596.482	550.73
596.679	526.16
596.876	444.24
597.072	591.69
597.269	472.91
597.466	495.44
597.662	517.97
597.859	544.59
598.055	569.16
598.252	573.26
598.448	612.17
598.645	659.28
598.841	702.28
599.038	737.1
599.234	878.41
599.431	730.95
599.627	753.48
599.824	739.15
600.02	796.49
600.217	833.35
600.413	888.65
600.609	898.89
600.806	1111.88
601.002	886.6
601.198	950.09
601.395	1120.07
601.591	1029.96
601.787	1089.35
601.984	1220.42
602.18	1185.6
602.376	1183.56
602.572	1263.43
602.769	1367.87
602.965	1341.25
603.161	1421.12
603.357	1433.41
603.553	1673.02
603.75	1537.85
603.946	1693.5
604.142	1765.18
604.338	1789.75
604.534	1830.71
604.73	1818.43
604.926	1824.57
605.122	1980.22
605.318	1978.17
605.514	2127.67
605.71	2119.48
605.906	2354.99
606.102	2299.7
606.298	2398
606.494	2539.31
606.69	2610.99
606.886	2537.26
607.082	2684.72
607.278	2752.3
607.474	2918.18
607.67	2869.03
607.866	2778.92
608.062	3118.89
608.257	3106.6
608.453	3229.48
608.649	3483.42
608.845	3280.68
609.041	3438.37
609.236	3581.73
609.432	3692.32
609.628	3927.83
609.824	3809.05
610.019	4019.99
610.215	4128.53
610.411	4200.21
610.606	4355.86
610.802	4329.24
610.998	4450.07
611.193	4783.88
611.389	4738.83
611.584	4826.89
611.78	4974.35
611.976	5062.41
612.171	5408.51
612.367	5338.88
612.562	5402.37
612.758	5584.64
612.953	5717.76
613.149	5967.61
613.344	6000.38
613.539	6559.47
613.735	6360.82
613.93	6733.55
614.126	6749.93
614.321	7085.8
614.517	7198.44
614.712	7335.65
614.907	7560.93
615.103	7876.32
615.298	7907.04
615.493	7991
615.688	8132.31
615.884	8580.82
616.079	8554.19
616.274	8865.49
616.47	9131.72
616.665	9504.45
616.86	9572.04
617.055	9793.22
617.25	9928.38
617.445	10294.97
617.641	10452.66
617.836	10874.54
618.031	11001.52
618.226	11339.43
618.421	11658.92
618.616	11943.58
618.811	12041.89
619.006	12365.46
619.201	12420.76
619.396	12789.39
619.591	12910.22
619.786	13790.85
619.981	13819.52
620.176	14003.84
620.371	14327.42
620.566	14599.8
620.761	14794.36
620.956	15128.17
621.151	15674.98
621.346	15613.54
621.541	16072.29
621.735	16873.04
621.93	16647.77
622.125	17075.79
622.32	17069.65
622.515	17673.8
622.709	18009.67
622.904	18263.61
623.099	18634.3
623.294	18961.97
623.488	18921.01
623.683	19459.63
623.878	19725.86
624.072	20323.87
624.267	20260.38
624.462	20729.37
624.656	20923.93
624.851	21493.26
625.046	21478.93
625.24	22115.84
625.435	22109.7
625.629	22511.1
625.824	22980.09
626.018	23231.99
626.213	23088.63
626.407	23680.49
626.602	23877.1
626.796	24366.56
626.991	24706.52
627.185	24780.25
627.38	25136.6
627.574	24806.87
627.768	24974.81
627.963	25239
628.157	25339.35
628.352	25783.76
628.546	25482.7
628.74	25816.52
628.935	25617.87
629.129	25992.65
629.323	25552.34
629.517	25382.35
629.712	25144.79
629.906	25214.42
630.1	24853.98
630.294	25046.49
630.489	24358.37
630.683	24430.05
630.877	23866.86
631.071	23729.64
631.265	23524.85
631.459	22756.86
631.653	22291.97
631.848	22021.64
632.042	21388.81
632.236	21265.94
632.43	20549.15
632.624	20033.06
632.818	19250.74
633.012	18593.34
633.206	18294.33
633.4	17581.64
633.594	17020.5
633.788	16531.03
633.982	16156.25
634.176	15681.13
634.369	14841.46
634.563	14657.14
634.757	13704.84
634.951	13418.12
635.145	12836.5
635.339	12465.82
635.533	11796.13
635.726	11466.41
635.92	10622.64
636.114	10557.11
636.308	9973.44
636.501	9649.86
636.695	9344.71
636.889	8847.05
637.083	8699.6
637.276	8285.91
637.47	7841.5
637.664	7591.65
637.857	7282.41
638.051	7073.51
638.244	6737.65
638.438	6340.34
638.632	6250.23
638.825	5940.99
639.019	5754.62
639.212	5336.84
639.406	5304.07
639.599	5109.51
639.793	4810.51
639.986	4618
640.18	4601.62
640.373	4286.23
640.567	4206.36
640.76	3997.46
640.954	3895.07
641.147	3532.58
641.34	3579.68
641.534	3446.56
641.727	3446.56
641.92	3206.95
642.114	3110.69
642.307	3045.16
642.5	2791.21
642.694	2615.09
642.887	2492.21
643.08	2467.63
643.273	2576.17
643.467	2359.09
643.66	2254.64
643.853	2176.82
644.046	2066.23
644.239	1955.64
644.432	1978.17
644.626	1750.84
644.819	1716.03
645.012	1713.98
645.205	1644.35
645.398	1699.64
645.591	1609.53
645.784	1406.78
645.977	1431.36
646.17	1400.64
646.363	1398.59
646.556	1214.27
646.749	1150.79
646.942	1136.45
647.135	1169.22
647.328	976.71
647.521	1034.05
647.714	956.23
647.907	1005.38
648.099	945.99
648.292	1044.29
648.485	913.22
648.678	823.11
648.871	743.24
649.064	763.72
649.256	661.32
649.449	712.52
649.642	601.93
649.835	675.66
650.027	620.36
650.22	712.52
650.413	671.56
650.605	591.69
650.798	579.4
650.991	520.01
651.183	552.78
651.376	526.16
651.568	571.21
651.761	501.58
651.954	438.09
652.146	390.99
652.339	485.2
652.531	493.39
652.724	333.65
652.916	450.38
653.109	296.78
653.301	563.02
653.494	382.8
653.686	327.5
653.879	440.14
654.071	423.76
654.263	333.65
654.456	296.78
654.648	438.09
654.84	266.07
655.033	225.11
655.225	331.6
655.417	251.73
655.61	356.18
655.802	290.64
655.994	327.5
656.186	212.82
656.379	292.69
656.571	132.95
656.763	223.06
656.955	143.19
657.148	266.07
657.34	335.7
657.532	257.87
657.724	184.15
657.916	292.69
658.108	292.69
658.3	270.16
658.492	204.63
658.684	145.24
658.876	214.87
659.068	126.8
659.26	124.76
659.452	124.76
659.644	135
659.836	198.48
660.028	243.54
660.22	128.85
660.412	104.28
660.604	173.91
660.796	186.19
660.988	192.34
661.18	161.62
661.372	214.87
661.563	137.04
661.755	145.24
661.947	118.61
662.139	114.52
662.331	151.38
662.522	96.08
662.714	106.32
662.906	143.19
663.097	110.42
663.289	108.37
663.481	32.6
663.673	243.54
663.864	53.08
664.056	171.86
664.247	83.8
664.439	212.82
664.631	83.8
664.822	141.14
665.014	157.52
665.205	94.04
665.397	124.76
665.588	116.56
665.78	128.85
665.971	137.04
666.163	24.4
666.354	137.04
666.546	69.46
666.737	57.17
666.929	89.94
667.12	67.41
667.311	180.05
667.503	102.23
667.694	53.08
667.885	182.1
668.077	153.43
668.268	44.88
668.459	91.99
668.651	157.52
668.842	147.28
669.033	79.7
669.224	102.23
669.416	255.83
669.607	100.18
669.798	18.26
669.989	233.3
670.18	77.65
670.371	161.62
670.563	3.93
670.754	153.43
670.945	145.24
671.136	75.6
671.327	38.74
671.518	77.65
671.709	186.19
671.9	186.19
672.091	249.68
672.282	126.8
672.473	91.99
672.664	96.08
672.855	73.56
673.046	135
673.237	108.37
673.428	161.62
673.619	178
673.809	59.22
674	255.83
674.191	186.19
674.382	122.71
674.573	104.28
674.764	106.32
674.954	178
675.145	100.18
675.336	130.9
675.527	79.7
675.717	71.51
675.908	87.89
676.099	83.8
676.289	110.42
676.48	26.45
676.671	153.43
676.861	5.97
677.052	96.08
677.243	122.71
677.433	-10.41
677.624	175.95
677.814	132.95
678.005	118.61
678.195	149.33
678.386	120.66
678.576	98.13
678.767	61.27
678.957	116.56
679.148	137.04
679.338	235.35
679.529	227.15
679.719	91.99
679.909	313.17
680.1	141.14
680.29	128.85
680.481	137.04
680.671	190.29
680.861	157.52
681.052	186.19
681.242	77.65
681.432	169.81
681.622	190.29
681.813	81.75
682.003	106.32
682.193	59.22
682.383	122.71
682.573	91.99
682.764	120.66
682.954	239.44
683.144	186.19
683.334	143.19
683.524	81.75
683.714	153.43
683.904	204.63
684.094	186.19
684.284	85.84
684.474	235.35
684.664	104.28
684.854	153.43
685.044	139.09
685.234	153.43
685.424	118.61
685.614	135
685.804	329.55
685.994	243.54
686.184	175.95
686.374	153.43
686.564	186.19
686.753	190.29
686.943	169.81
687.133	137.04
687.323	163.67
687.513	216.91
687.702	259.92
687.892	89.94
688.082	206.67
688.272	178
688.461	79.7
688.651	200.53
688.841	180.05
689.03	73.56
689.22	169.81
689.41	192.34
689.599	231.25
689.789	165.71
689.979	221.01
690.168	137.04
690.358	274.26
690.547	130.9
690.737	210.77
690.926	126.8
691.116	190.29
691.305	159.57
691.495	178
691.684	96.08
691.874	118.61
692.063	210.77
692.252	225.11
692.442	257.87
692.631	77.65
692.82	149.33
693.01	161.62
693.199	145.24
693.388	247.63
693.578	159.57
693.767	208.72
693.956	239.44
694.146	108.37
694.335	251.73
694.524	77.65
694.713	169.81
694.902	87.89
695.092	120.66
695.281	169.81
695.47	141.14
695.659	102.23
695.848	198.48
696.037	96.08
696.226	202.58
696.415	104.28
696.604	231.25
696.793	190.29
696.982	145.24
697.171	296.78
697.36	143.19
697.549	130.9
697.738	57.17
697.927	83.8
698.116	81.75
698.305	153.43
698.494	155.47
698.683	122.71
698.872	264.02
699.061	243.54
699.25	124.76
699.438	120.66
699.627	151.38
699.816	210.77
700.005	61.27
700.193	85.84
700.382	149.33
700.571	169.81
700.76	153.43
700.948	282.45
701.137	165.71
701.326	206.67
701.514	10.07
701.703	167.76
701.892	227.15
702.08	288.59
702.269	151.38
702.457	65.36
702.646	114.52
702.834	184.15
703.023	161.62
703.212	145.24
703.4	130.9
703.589	71.51
703.777	120.66
703.965	96.08
704.154	169.81
704.342	94.04
704.531	89.94
704.719	192.34
704.907	151.38
705.096	67.41
705.284	126.8
705.472	153.43
705.661	202.58
705.849	137.04
706.037	141.14
706.226	116.56
706.414	212.82
706.602	141.14
706.79	169.81
706.979	145.24
707.167	218.96
707.355	34.64
707.543	124.76
707.731	173.91
707.919	124.76
708.107	118.61
708.296	147.28
708.484	116.56
708.672	118.61
708.86	169.81
709.048	116.56
709.236	120.66
709.424	221.01
709.612	198.48
709.8	57.17
709.988	98.13
710.176	200.53
710.364	194.39
710.551	118.61
710.739	122.71
710.927	151.38
711.115	169.81
711.303	255.83
711.491	276.31
711.679	63.32
711.866	204.63
712.054	44.88
712.242	173.91
712.43	147.28
712.617	139.09
712.805	284.5
712.993	106.32
713.181	-18.6
713.368	198.48
713.556	208.72
713.744	143.19
713.931	243.54
714.119	180.05
714.306	69.46
714.494	206.67
714.682	173.91
714.869	96.08
715.057	104.28
715.244	69.46
715.432	159.57
715.619	87.89
715.807	180.05
715.994	83.8
716.182	151.38
716.369	245.59
716.556	192.34
716.744	85.84
716.931	75.6
717.119	276.31
717.306	186.19
717.493	221.01
717.681	141.14
717.868	149.33
718.055	157.52
718.242	167.76
718.43	196.43
718.617	280.4
718.804	124.76
718.991	223.06
719.179	120.66
719.366	204.63
719.553	225.11
719.74	167.76
719.927	130.9
720.114	159.57
720.301	167.76
720.488	124.76
720.676	116.56
720.863	259.92
721.05	223.06
721.237	206.67
721.424	180.05
721.611	190.29
721.798	61.27
721.985	120.66
722.172	104.28
722.358	192.34
722.545	171.86
722.732	225.11
722.919	280.4
723.106	202.58
723.293	126.8
723.48	120.66
723.667	137.04
723.853	315.22
724.04	194.39
724.227	257.87
724.414	200.53
724.6	175.95
724.787	255.83
724.974	227.15
725.161	208.72
725.347	130.9
725.534	155.47
725.72	186.19
725.907	272.21
726.094	290.64
726.28	184.15
726.467	169.81
726.653	206.67
726.84	259.92
727.027	311.12
727.213	130.9
727.4	198.48
727.586	210.77
727.773	132.95
727.959	200.53
728.145	304.98
728.332	264.02
728.518	153.43
728.705	202.58
728.891	268.11
729.077	218.96
729.264	151.38
729.45	147.28
729.636	241.49
729.823	253.78
730.009	317.26
730.195	274.26
730.382	274.26
730.568	135
730.754	282.45
730.94	229.2
731.126	247.63
731.313	253.78
731.499	223.06
731.685	253.78
731.871	266.07
732.057	255.83
732.243	290.64
732.429	223.06
732.615	356.18
732.801	212.82
732.987	239.44
733.173	223.06
733.359	243.54
733.545	366.42
733.731	186.19
733.917	286.54
734.103	243.54
734.289	264.02
734.475	159.57
734.661	390.99
734.847	180.05
735.033	257.87
735.219	235.35
735.404	192.34
735.59	249.68
735.776	206.67
735.962	216.91
736.148	200.53
736.333	331.6
736.519	210.77
736.705	216.91
736.89	216.91
737.076	251.73
737.262	261.97
737.447	182.1
737.633	216.91
737.819	272.21
738.004	286.54
738.19	284.5
738.375	270.16
738.561	335.7
738.747	280.4
738.932	208.72
739.118	380.75
739.303	307.02
739.489	274.26
739.674	169.81
739.859	214.87
740.045	307.02
740.23	243.54
740.416	212.82
740.601	274.26
740.786	296.78
740.972	245.59
741.157	182.1
741.342	208.72
741.528	173.91
741.713	362.32
741.898	202.58
742.084	221.01
742.269	247.63
742.454	274.26
742.639	251.73
742.824	247.63
743.01	284.5
743.195	350.03
743.38	227.15
743.565	329.55
743.75	243.54
743.935	333.65
744.12	264.02
744.305	241.49
744.49	223.06
744.675	225.11
744.86	225.11
745.045	268.11
745.23	233.3
745.415	257.87
745.6	292.69
745.785	245.59
745.97	259.92
746.155	243.54
746.34	268.11
746.525	294.74
746.71	364.37
746.895	216.91
747.079	167.76
747.264	214.87
747.449	268.11
747.634	298.83
747.819	274.26
748.003	233.3
748.188	120.66
748.373	225.11
748.557	237.39
748.742	243.54
748.927	223.06
749.111	270.16
749.296	288.59
749.481	298.83
749.665	233.3
749.85	206.67
750.034	264.02
750.219	225.11
750.404	159.57
750.588	266.07
750.773	124.76
750.957	227.15
751.141	173.91
751.326	216.91
751.51	69.46
751.695	143.19
751.879	132.95
752.064	272.21
752.248	261.97
752.432	313.17
752.617	202.58
752.801	225.11
752.985	141.14
753.17	175.95
753.354	233.3
753.538	223.06
753.722	118.61
753.907	157.52
754.091	124.76
754.275	255.83
754.459	34.64
754.643	139.09
754.828	210.77
755.012	194.39
755.196	128.85
755.38	214.87
755.564	102.23
755.748	157.52
755.932	210.77
756.116	200.53
756.3	141.14
756.484	87.89
756.668	231.25
756.852	73.56
757.036	139.09
757.22	218.96
757.404	122.71
757.588	116.56
757.772	198.48
757.956	208.72
758.14	243.54
758.323	128.85
758.507	182.1
758.691	110.42
758.875	194.39
759.059	196.43
759.242	91.99
759.426	120.66
759.61	100.18
759.794	122.71
759.977	141.14
760.161	395.09
760.345	204.63
760.528	323.41
760.712	194.39
760.895	132.95
761.079	96.08
761.263	42.84
761.446	137.04
761.63	73.56
761.813	210.77
761.997	75.6
762.18	167.76
762.364	218.96
762.547	151.38
762.731	53.08
762.914	94.04
763.098	132.95
763.281	112.47
763.464	63.32
763.648	124.76
763.831	81.75
764.015	126.8
764.198	137.04
764.381	71.51
764.564	149.33
764.748	71.51
764.931	135
765.114	79.7
765.297	135
765.481	59.22
765.664	91.99
765.847	20.31
766.03	171.86
766.213	48.98
766.397	38.74
766.58	-14.51
766.763	167.76
766.946	120.66
767.129	46.93
767.312	83.8
767.495	153.43
767.678	91.99
767.861	96.08
768.044	85.84
768.227	61.27
768.41	157.52
768.593	102.23
768.776	141.14
768.959	108.37
769.142	182.1
769.324	73.56
769.507	51.03
769.69	38.74
769.873	132.95
770.056	270.16
770.239	110.42
770.421	132.95
770.604	141.14
770.787	116.56
770.97	98.13
771.152	18.26
771.335	167.76
771.518	69.46
771.7	153.43
771.883	200.53
772.066	114.52
772.248	132.95
772.431	110.42
772.613	87.89
772.796	110.42
772.978	186.19
773.161	186.19
773.343	-4.27
773.526	102.23
773.708	-20.65
773.891	-26.79
774.073	34.64
774.256	63.32
774.438	124.76
774.621	3.93
774.803	94.04
774.985	94.04
775.168	96.08
775.35	137.04
775.532	137.04
775.715	87.89
775.897	110.42
776.079	83.8
776.261	151.38
776.444	79.7
776.626	38.74
776.808	53.08
776.99	14.17
777.173	10.07
777.355	79.7
777.537	120.66
777.719	42.84
777.901	106.32
778.083	38.74
778.265	22.36
778.447	79.7
778.629	24.4
778.811	61.27
778.993	167.76
779.175	153.43
779.357	48.98
779.539	-18.6
779.721	10.07
779.903	102.23
780.085	63.32
780.267	71.51
780.449	55.12
780.631	18.26
780.812	141.14
780.994	38.74
781.176	77.65
781.358	-22.7
781.54	30.55
781.721	155.47
781.903	110.42
782.085	-10.41
782.267	65.36
782.448	5.97
782.63	3.93
782.812	71.51
782.993	114.52
783.175	94.04
783.357	87.89
783.538	51.03
783.72	-4.27
783.901	38.74
784.083	36.69
784.264	79.7
784.446	-30.89
784.627	-8.36
784.809	100.18
784.99	57.17
785.172	96.08
785.353	57.17
785.535	67.41
785.716	20.31
785.897	-10.41
786.079	-20.65
786.26	12.12
786.441	59.22
786.623	24.4
786.804	-16.55
786.985	44.88
787.167	67.41
787.348	46.93
787.529	61.27
787.71	73.56
787.891	30.55
788.073	10.07
788.254	-24.75
788.435	137.04
788.616	-51.37
788.797	34.64
788.978	22.36
789.159	-67.75
789.34	77.65
789.522	67.41
789.703	53.08
789.884	8.02
790.065	94.04
790.246	169.81
790.427	30.55
790.607	139.09
790.788	116.56
790.969	-94.38
791.15	51.03
791.331	-47.27
791.512	36.69
791.693	-43.18
791.874	81.75
792.054	116.56
792.235	124.76
792.416	-8.36
792.597	38.74
792.778	77.65
792.958	40.79
793.139	34.64
793.32	30.55
793.5	18.26
793.681	100.18
793.862	55.12
794.042	67.41
794.223	-67.75
794.404	42.84
794.584	-18.6
794.765	22.36
794.945	53.08
795.126	67.41
795.306	182.1
795.487	57.17
795.667	-30.89
795.848	38.74
796.028	96.08
796.209	-6.31
796.389	12.12
796.57	10.07
796.75	22.36
796.93	24.4
797.111	-39.08
797.291	1.88
797.471	-2.22
797.652	-14.51
797.832	14.17
798.012	-0.17
798.192	-22.7
798.373	-49.32
798.553	5.97
798.733	69.46
798.913	-34.99
799.093	-12.46
799.274	-22.7
799.454	34.64
799.634	18.26
799.814	30.55
799.994	83.8
800.174	61.27
800.354	8.02
800.534	-80.04
800.714	22.36
800.894	-41.13
801.074	-47.27
801.254	-10.41
801.434	71.51
801.614	-28.84
801.794	-32.94
801.974	1652.54
802.154	-37.03
802.334	98.13
802.514	-59.56
802.693	38.74
802.873	22.36
803.053	77.65
803.233	-26.79
803.413	3.93
803.592	26.45
803.772	-24.75
803.952	12.12
804.131	-59.56
804.311	67.41
804.491	94.04
804.67	-43.18
804.85	-65.71
805.03	112.47
805.209	116.56
805.389	-10.41
805.568	-20.65
805.748	46.93
805.928	34.64
806.107	-26.79
806.287	32.6
806.466	-28.84
806.646	-4.27
806.825	-14.51
807.004	-14.51
807.184	-16.55
807.363	36.69
807.543	-18.6
807.722	-20.65
807.901	73.56
808.081	26.45
808.26	-8.36
808.439	-32.94
808.619	-34.99
808.798	-2.22
808.977	44.88
809.156	110.42
809.336	14.17
809.515	63.32
809.694	-86.19
809.873	-6.31
810.052	5.97
810.231	106.32
810.411	28.5
810.59	59.22
810.769	5.97
810.948	40.79
811.127	-96.43
811.306	-43.18
811.485	-14.51
811.664	128.85
811.843	63.32
812.022	-6.31
812.201	14.17
812.38	-28.84
812.559	24.4
812.737	18.26
812.916	-14.51
813.095	-53.42
813.274	63.32
813.453	42.84
813.632	3.93
813.811	63.32
813.989	3.93
814.168	42.84
814.347	-63.66
814.526	-90.28
814.704	124.76
814.883	89.94
815.062	-28.84
815.24	75.6
815.419	-86.19
815.598	-14.51
815.776	-90.28
815.955	3.93
816.133	-8.36
816.312	-6.31
816.49	-34.99
816.669	-12.46
816.847	5.97
817.026	10.07
817.204	22.36
817.383	-28.84
817.561	-59.56
817.74	98.13
817.918	10.07
818.097	-18.6
818.275	-26.79
818.453	75.6
818.632	-14.51
818.81	14.17
818.988	12.12
819.167	-18.6
819.345	5.97
819.523	-12.46
819.701	3.93
819.879	26.45
820.058	-39.08
820.236	-10.41
820.414	12.12
820.592	38.74
820.77	-55.47
820.948	-43.18
821.127	-67.75
821.305	36.69
821.483	-45.23
821.661	89.94
821.839	5.97
822.017	5.97
822.195	77.65
822.373	67.41
822.551	-14.51
822.729	61.27
822.907	-18.6
823.085	20.31
823.262	55.12
823.44	-20.65
823.618	32.6
823.796	51.03
823.974	-24.75
824.152	-43.18
824.329	34.64
824.507	-28.84
824.685	63.32
824.863	-12.46
825.04	-0.17
825.218	51.03
825.396	46.93
825.574	-53.42
825.751	-32.94
825.929	30.55
826.107	-84.14
826.284	22.36
826.462	57.17
826.639	-34.99
826.817	-0.17
826.994	-75.95
827.172	-112.81
827.349	63.32
827.527	-10.41
827.704	51.03
827.882	-4.27
828.059	30.55
828.237	-20.65
828.414	79.7
828.591	-32.94
828.769	-30.89
828.946	-22.7
829.124	24.4
829.301	112.47
829.478	-18.6
829.655	28.5
829.833	-20.65
830.01	-69.8
830.187	79.7
830.364	-6.31
830.542	71.51
830.719	57.17
830.896	-2.22
831.073	-43.18
831.25	1.88
831.427	22.36
831.604	-28.84
831.782	-82.09
831.959	55.12
832.136	12.12
832.313	51.03
832.49	-2.22
832.667	-2.22
832.844	-4.27
833.021	34.64
833.198	55.12
833.374	75.6
833.551	40.79
833.728	-22.7
833.905	57.17
834.082	-10.41
834.259	36.69
834.436	87.89
834.612	-12.46
834.789	-53.42
834.966	3.93
835.143	-12.46
835.319	-110.76
835.496	-45.23
835.673	-8.36
835.85	38.74
836.026	-6.31
836.203	75.6
836.38	-6.31
836.556	-108.71
836.733	-34.99
836.909	137.04
837.086	32.6
837.262	-53.42
837.439	40.79
837.616	-4.27
837.792	-2.22
837.968	14.17
838.145	-49.32
838.321	30.55
838.498	106.32
838.674	-4.27
838.851	14.17
839.027	-43.18
839.203	-12.46
839.38	51.03
839.556	-121
839.732	69.46
839.909	16.21
840.085	63.32
840.261	-34.99
840.437	-0.17
840.614	28.5
840.79	18.26
840.966	14.17
841.142	44.88
841.318	-63.66
841.494	55.12
841.671	69.46
841.847	-14.51
842.023	-88.23
842.199	42.84
842.375	85.84
842.551	-43.18
842.727	-96.43
842.903	46.93
843.079	-14.51
843.255	59.22
843.431	-53.42
843.607	-0.17
843.783	-161.96
843.959	-6.31
844.134	-94.38
844.31	137.04
844.486	-51.37
844.662	-49.32
844.838	-10.41
845.013	30.55
845.189	71.51
845.365	75.6
845.541	55.12
845.716	8.02
845.892	116.56
846.068	36.69
846.244	-82.09
846.419	22.36
846.595	-34.99
846.77	-96.43
846.946	3.93
847.122	24.4
847.297	3.93
847.473	141.14
847.648	-59.56
847.824	63.32
847.999	-75.95
848.175	-63.66
848.35	83.8
848.526	77.65
848.701	20.31
848.876	36.69
849.052	57.17
849.227	-6.31
849.403	51.03
849.578	-18.6
849.753	-20.65
849.929	38.74
850.104	-26.79
850.279	-2.22
850.454	42.84
850.63	94.04
850.805	-26.79
850.98	14.17
851.155	-12.46
851.33	-86.19
851.505	-59.56
851.681	190.29
851.856	-18.6
852.031	18.26
852.206	28.5
852.381	-28.84
852.556	1.88
852.731	28.5
852.906	-6.31
853.081	-32.94
853.256	38.74
853.431	-67.75
853.606	-14.51
853.781	-82.09
853.956	-121
854.131	30.55
854.305	-30.89
854.48	5.97
854.655	46.93
854.83	26.45
855.005	-24.75
855.18	-112.81
855.354	-14.51
855.529	44.88
855.704	-53.42
855.879	48.98
856.053	-108.71
856.228	-37.03
856.403	-100.52
856.577	3.93
856.752	-92.33
856.926	5.97
857.101	-4.27
857.276	-102.57
857.45	-30.89
857.625	87.89
857.799	38.74
857.974	14.17
858.148	-75.95
858.323	59.22
858.497	-34.99
858.672	-14.51
858.846	-61.61
859.02	-0.17
859.195	-118.95
859.369	36.69
859.543	-59.56
859.718	8.02
859.892	53.08
860.066	67.41
860.241	5.97
860.415	-37.03
860.589	38.74
860.763	-24.75
860.938	-39.08
861.112	32.6
861.286	-67.75
861.46	-10.41
861.634	-63.66
861.808	57.17
861.982	-4.27
862.157	-77.99
862.331	-43.18
862.505	-102.57
862.679	-71.85
862.853	-39.08
863.027	3.93
863.201	206.67
863.375	-137.38
863.549	38.74
863.722	-22.7
863.896	10.07
864.07	-77.99
864.244	-6.31
864.418	20.31
864.592	5.97
864.766	5.97
864.939	-51.37
865.113	10.07
865.287	81.75
865.461	-63.66
865.634	42.84
865.808	-22.7
865.982	12.12
866.156	-39.08
866.329	-84.14
866.503	75.6
866.676	48.98
866.85	-6.31
867.024	8.02
867.197	44.88
867.371	26.45
867.544	85.84
867.718	-131.24
867.891	75.6
868.065	-43.18
868.238	85.84
868.412	67.41
868.585	-67.75
868.759	-2.22
868.932	-37.03
869.105	-102.57
869.279	-32.94
869.452	-30.89
869.625	-2.22
869.799	-24.75
869.972	-73.9
870.145	-8.36
870.319	24.4
870.492	5.97
870.665	-26.79
870.838	-30.89
871.011	-116.9
871.185	59.22
871.358	24.4
871.531	83.8
871.704	-6.31
871.877	1.88
872.05	-73.9
872.223	-86.19
872.396	120.66
872.569	30.55
872.742	-121
872.915	46.93
873.088	-26.79
873.261	-30.89
873.434	51.03
873.607	-63.66
873.78	89.94
873.953	-108.71
874.126	57.17
874.299	61.27
874.471	-43.18
874.644	-0.17
874.817	22.36
874.99	110.42
875.163	-34.99
875.335	18.26
875.508	14.17
875.681	61.27
875.853	-8.36
876.026	61.27
876.199	112.47
876.371	46.93
876.544	-18.6
876.717	18.26
876.889	-51.37
877.062	3.93
877.234	-94.38
877.407	-18.6
877.579	-63.66
877.752	53.08
877.924	40.79
878.097	3.93
878.269	12.12
878.442	71.51
878.614	10.07
878.786	53.08
878.959	18.26
879.131	38.74
879.303	-104.62
879.476	-22.7
879.648	22.36
879.82	26.45
879.993	-18.6
880.165	-51.37
880.337	-92.33
880.509	-14.51
880.681	-75.95
880.854	-53.42
881.026	91.99
881.198	83.8
881.37	30.55
881.542	26.45
881.714	22.36
881.886	1.88
882.058	-10.41
882.23	-47.27
882.402	32.6
882.574	36.69
882.746	28.5
882.918	51.03
883.09	91.99
883.262	-61.61
883.434	-16.55
883.606	-80.04
883.778	-67.75
883.95	137.04
884.122	-75.95
884.293	42.84
884.465	-77.99
884.637	59.22
884.809	-71.85
884.98	55.12
885.152	-4.27
885.324	-2.22
885.496	-34.99
885.667	-82.09
885.839	-51.37
886.011	71.51
886.182	3.93
886.354	14.17
886.525	-24.75
886.697	-10.41
886.869	-88.23
887.04	-53.42
887.212	61.27
887.383	139.09
887.555	63.32
887.726	-2.22
887.897	-14.51
888.069	16.21
888.24	38.74
888.412	-34.99
888.583	38.74
888.754	-71.85
888.926	-92.33
889.097	-65.71
889.268	-26.79
889.44	20.31
889.611	-45.23
889.782	-41.13
889.953	-22.7
890.125	-2.22
890.296	-53.42
890.467	-0.17
890.638	18.26
890.809	-18.6
890.98	-32.94
891.151	91.99
891.323	106.32
891.494	22.36
891.665	-49.32
891.836	10.07
892.007	-88.23
892.178	53.08
892.349	-18.6
892.52	-84.14
892.691	-2.22
892.862	-43.18
893.032	-26.79
893.203	-14.51
893.374	51.03
893.545	20.31
893.716	-59.56
893.887	-20.65
894.057	-61.61
894.228	38.74
894.399	-8.36
894.57	59.22
894.74	55.12
894.911	14.17
895.082	-37.03
895.253	-26.79
895.423	42.84
895.594	48.98
895.764	53.08
895.935	-49.32
896.106	8.02
896.276	-51.37
896.447	94.04
896.617	-8.36
896.788	-69.8
896.958	61.27
897.129	12.12
897.299	-18.6
897.47	98.13
897.64	8.02
897.81	-49.32
897.981	-22.7
898.151	10.07
898.322	-41.13
898.492	5.97
898.662	10.07
898.832	-55.47
899.003	-18.6
899.173	102.23
899.343	-10.41
899.513	-39.08
