Data from USB4F104151__7__11-24-17-508.txt Node

Date: Wed Feb 26 11:24:17 EST 2025
User: louis
Spectrometer: USB4F10415
Trigger mode: 4
Integration Time (sec): 1.000000E-1
Scans to average: 1
Electric dark correction enabled: true
Nonlinearity correction enabled: false
Boxcar width: 0
XAxis mode: Wavelengths
Number of Pixels in Spectrum: 3648
>>>>>Begin Spectral Data<<<<<
178.204	-421.2
178.424	-421.2
178.644	-421.2
178.864	-415.06
179.084	-494.93
179.304	-17.75
179.524	19.11
179.744	2.73
179.964	115.37
180.184	-30.04
180.404	23.21
180.624	25.26
180.844	-9.56
181.064	-101.72
181.283	-38.23
181.503	-19.8
181.723	31.4
181.943	-81.24
182.163	185
182.383	21.16
182.602	39.59
182.822	125.61
183.042	68.27
183.262	-13.65
183.482	17.07
183.701	-83.28
183.921	86.7
184.141	-42.32
184.361	17.07
184.58	98.99
184.8	-23.89
185.02	39.59
185.239	107.18
185.459	21.16
185.679	72.36
185.898	-79.19
186.118	-3.41
186.338	60.07
186.557	82.6
186.777	-21.85
186.997	0.68
187.216	10.92
187.436	248.49
187.655	23.21
187.875	84.65
188.095	43.69
188.314	139.94
188.534	113.32
188.753	19.11
188.973	123.56
189.192	193.19
189.412	-5.46
189.631	82.6
189.851	125.61
190.07	135.85
190.29	-107.86
190.509	33.45
190.729	47.79
190.948	139.94
191.168	185
191.387	113.32
191.607	23.21
191.826	45.74
192.045	-34.13
192.265	-46.42
192.484	55.98
192.704	27.31
192.923	-36.18
193.142	152.23
193.362	84.65
193.581	213.67
193.8	2.73
194.02	29.35
194.239	68.27
194.458	94.89
194.678	-50.52
194.897	23.21
195.116	19.11
195.335	70.31
195.555	96.94
195.774	-7.51
195.993	25.26
196.212	39.59
196.432	8.87
196.651	-81.24
196.87	-15.7
197.089	258.73
197.308	84.65
197.528	25.26
197.747	25.26
197.966	4.78
198.185	109.22
198.404	-46.42
198.623	84.65
198.842	96.94
199.062	174.76
199.281	82.6
199.5	-25.94
199.719	74.41
199.938	33.45
200.157	74.41
200.376	119.46
200.595	131.75
200.814	92.84
201.033	-56.66
201.252	80.55
201.471	78.51
201.69	62.12
201.909	29.35
202.128	96.94
202.347	55.98
202.566	55.98
202.785	-50.52
203.004	17.07
203.223	201.38
203.442	88.75
203.661	-32.08
203.879	62.12
204.098	43.69
204.317	37.55
204.536	107.18
204.755	43.69
204.974	84.65
205.193	27.31
205.411	146.09
205.63	21.16
205.849	49.83
206.068	58.03
206.287	-17.75
206.505	70.31
206.724	-9.56
206.943	-1.37
207.162	-1.37
207.381	-19.8
207.599	-5.46
207.818	31.4
208.037	-36.18
208.255	-11.61
208.474	-30.04
208.693	66.22
208.911	-5.46
209.13	27.31
209.349	82.6
209.567	111.27
209.786	-48.47
210.005	146.09
210.223	15.02
210.442	-89.43
210.661	-1.37
210.879	47.79
211.098	55.98
211.316	37.55
211.535	109.22
211.753	96.94
211.972	123.56
212.191	-1.37
212.409	43.69
212.628	107.18
212.846	-99.67
213.065	25.26
213.283	111.27
213.502	64.17
213.72	47.79
213.938	-95.57
214.157	0.68
214.375	21.16
214.594	-21.85
214.812	27.31
215.031	62.12
215.249	25.26
215.467	12.97
215.686	-40.28
215.904	15.02
216.122	55.98
216.341	180.9
216.559	-79.19
216.778	68.27
216.996	129.7
217.214	-30.04
217.432	68.27
217.651	-75.09
217.869	60.07
218.087	-48.47
218.306	10.92
218.524	-60.76
218.742	70.31
218.96	92.84
219.179	86.7
219.397	-7.51
219.615	189.1
219.833	119.46
220.051	-3.41
220.27	86.7
220.488	139.94
220.706	88.75
220.924	-17.75
221.142	-46.42
221.36	66.22
221.578	49.83
221.796	-19.8
222.015	0.68
222.233	70.31
222.451	109.22
222.669	-81.24
222.887	141.99
223.105	-5.46
223.323	55.98
223.541	-36.18
223.759	117.42
223.977	12.97
224.195	84.65
224.413	96.94
224.631	15.02
224.849	8.87
225.067	172.71
225.285	-27.99
225.503	-5.46
225.721	-89.43
225.939	78.51
226.157	17.07
226.375	197.29
226.592	-58.71
226.81	-5.46
227.028	111.27
227.246	51.88
227.464	78.51
227.682	107.18
227.9	64.17
228.117	-30.04
228.335	29.35
228.553	92.84
228.771	27.31
228.989	-13.65
229.206	41.64
229.424	78.51
229.642	17.07
229.86	6.83
230.077	90.79
230.295	12.97
230.513	178.86
230.731	60.07
230.948	144.04
231.166	43.69
231.384	-13.65
231.601	-11.61
231.819	160.42
232.037	-21.85
232.254	-19.8
232.472	41.64
232.689	10.92
232.907	109.22
233.125	-11.61
233.342	-1.37
233.56	-5.46
233.777	4.78
233.995	23.21
234.213	111.27
234.43	58.03
234.648	15.02
234.865	19.11
235.083	103.08
235.3	45.74
235.518	76.46
235.735	125.61
235.953	117.42
236.17	0.68
236.388	17.07
236.605	72.36
236.822	62.12
237.04	121.51
237.257	41.64
237.475	-60.76
237.692	90.79
237.909	66.22
238.127	-15.7
238.344	58.03
238.562	60.07
238.779	-77.14
238.996	-93.52
239.214	115.37
239.431	80.55
239.648	4.78
239.865	12.97
240.083	125.61
240.3	-27.99
240.517	60.07
240.735	35.5
240.952	82.6
241.169	76.46
241.386	-21.85
241.603	-23.89
241.821	-132.44
242.038	90.79
242.255	111.27
242.472	33.45
242.689	43.69
242.907	12.97
243.124	45.74
243.341	21.16
243.558	-36.18
243.775	-46.42
243.992	-15.7
244.209	109.22
244.426	90.79
244.643	35.5
244.86	39.59
245.078	31.4
245.295	70.31
245.512	84.65
245.729	-21.85
245.946	88.75
246.163	49.83
246.38	-23.89
246.597	39.59
246.814	62.12
247.031	25.26
247.248	25.26
247.464	62.12
247.681	10.92
247.898	12.97
248.115	68.27
248.332	39.59
248.549	84.65
248.766	176.81
248.983	-7.51
249.2	27.31
249.417	111.27
249.633	31.4
249.85	98.99
250.067	96.94
250.284	35.5
250.501	76.46
250.717	47.79
250.934	-118.1
251.151	-50.52
251.368	53.93
251.585	123.56
251.801	105.13
252.018	-124.24
252.235	131.75
252.451	-64.85
252.668	8.87
252.885	74.41
253.102	78.51
253.318	-38.23
253.535	-5.46
253.752	19.11
253.968	-23.89
254.185	-38.23
254.401	66.22
254.618	41.64
254.835	-46.42
255.051	101.03
255.268	94.89
255.484	92.84
255.701	64.17
255.917	60.07
256.134	-48.47
256.351	82.6
256.567	10.92
256.784	-34.13
257	-107.86
257.217	154.28
257.433	115.37
257.65	76.46
257.866	23.21
258.082	-3.41
258.299	-7.51
258.515	0.68
258.732	66.22
258.948	-54.61
259.165	88.75
259.381	-30.04
259.597	66.22
259.814	80.55
260.03	4.78
260.246	-32.08
260.463	86.7
260.679	162.47
260.895	96.94
261.112	25.26
261.328	70.31
261.544	-25.94
261.761	154.28
261.977	-13.65
262.193	-75.09
262.409	137.9
262.626	-23.89
262.842	-38.23
263.058	-66.9
263.274	101.03
263.49	90.79
263.707	141.99
263.923	45.74
264.139	-83.28
264.355	74.41
264.571	58.03
264.787	121.51
265.004	125.61
265.22	-9.56
265.436	-44.37
265.652	37.55
265.868	0.68
266.084	-50.52
266.3	53.93
266.516	23.21
266.732	70.31
266.948	51.88
267.164	-52.56
267.38	68.27
267.596	78.51
267.812	82.6
268.028	-9.56
268.244	-64.85
268.46	76.46
268.676	0.68
268.892	53.93
269.108	8.87
269.324	-85.33
269.54	8.87
269.756	58.03
269.972	-120.15
270.188	-19.8
270.403	-124.24
270.619	105.13
270.835	74.41
271.051	25.26
271.267	-97.62
271.483	-21.85
271.698	117.42
271.914	-17.75
272.13	47.79
272.346	-32.08
272.562	-21.85
272.777	174.76
272.993	10.92
273.209	-23.89
273.425	23.21
273.64	-73.04
273.856	80.55
274.072	-71
274.287	45.74
274.503	41.64
274.719	80.55
274.934	70.31
275.15	-136.53
275.366	-44.37
275.581	17.07
275.797	41.64
276.012	-73.04
276.228	-3.41
276.444	35.5
276.659	148.14
276.875	-46.42
277.09	45.74
277.306	10.92
277.521	80.55
277.737	21.16
277.952	98.99
278.168	-25.94
278.383	105.13
278.599	94.89
278.814	80.55
279.03	-5.46
279.245	6.83
279.461	49.83
279.676	101.03
279.892	-38.23
280.107	6.83
280.322	-97.62
280.538	47.79
280.753	-50.52
280.969	23.21
281.184	17.07
281.399	133.8
281.615	-9.56
281.83	12.97
282.045	-3.41
282.26	17.07
282.476	-17.75
282.691	94.89
282.906	15.02
283.122	62.12
283.337	-62.8
283.552	-60.76
283.767	6.83
283.983	129.7
284.198	-15.7
284.413	49.83
284.628	-21.85
284.843	-30.04
285.058	41.64
285.274	-17.75
285.489	-3.41
285.704	127.66
285.919	-7.51
286.134	-15.7
286.349	41.64
286.564	0.68
286.779	203.43
286.995	15.02
287.21	-73.04
287.425	113.32
287.64	41.64
287.855	-1.37
288.07	-71
288.285	43.69
288.5	90.79
288.715	88.75
288.93	45.74
289.145	-36.18
289.36	133.8
289.575	-15.7
289.79	72.36
290.004	-71
290.219	70.31
290.434	-3.41
290.649	-1.37
290.864	-36.18
291.079	135.85
291.294	60.07
291.509	60.07
291.724	-3.41
291.938	33.45
292.153	86.7
292.368	2.73
292.583	94.89
292.798	146.09
293.012	53.93
293.227	27.31
293.442	-48.47
293.657	123.56
293.871	109.22
294.086	43.69
294.301	203.43
294.516	129.7
294.73	29.35
294.945	-105.81
295.16	25.26
295.374	27.31
295.589	70.31
295.804	-15.7
296.018	-11.61
296.233	131.75
296.447	-30.04
296.662	-7.51
296.877	146.09
297.091	51.88
297.306	-5.46
297.52	10.92
297.735	111.27
297.949	70.31
298.164	29.35
298.378	-32.08
298.593	68.27
298.807	64.17
299.022	45.74
299.236	158.38
299.451	-1.37
299.665	70.31
299.88	19.11
300.094	70.31
300.309	41.64
300.523	29.35
300.737	49.83
300.952	96.94
301.166	107.18
301.381	-46.42
301.595	17.07
301.809	12.97
302.024	-13.65
302.238	-66.9
302.452	80.55
302.667	-3.41
302.881	88.75
303.095	39.59
303.309	51.88
303.524	-52.56
303.738	-36.18
303.952	6.83
304.166	84.65
304.381	-144.72
304.595	144.04
304.809	-17.75
305.023	98.99
305.237	4.78
305.452	-40.28
305.666	84.65
305.88	88.75
306.094	60.07
306.308	70.31
306.522	72.36
306.736	58.03
306.95	144.04
307.164	-1.37
307.379	62.12
307.593	25.26
307.807	139.94
308.021	47.79
308.235	51.88
308.449	-68.95
308.663	15.02
308.877	195.24
309.091	-3.41
309.305	111.27
309.519	-77.14
309.733	2.73
309.947	-60.76
310.161	74.41
310.374	53.93
310.588	125.61
310.802	19.11
311.016	-27.99
311.23	-1.37
311.444	27.31
311.658	12.97
311.872	162.47
312.085	45.74
312.299	92.84
312.513	193.19
312.727	-15.7
312.941	-44.37
313.154	98.99
313.368	35.5
313.582	21.16
313.796	47.79
314.009	41.64
314.223	60.07
314.437	90.79
314.651	80.55
314.864	-27.99
315.078	-25.94
315.292	-83.28
315.505	-25.94
315.719	49.83
315.933	70.31
316.146	-46.42
316.36	-9.56
316.573	84.65
316.787	92.84
317.001	-3.41
317.214	-17.75
317.428	47.79
317.641	-3.41
317.855	47.79
318.068	53.93
318.282	113.32
318.495	139.94
318.709	-5.46
318.922	-19.8
319.136	201.38
319.349	172.71
319.563	-1.37
319.776	39.59
319.99	-109.91
320.203	213.67
320.417	-73.04
320.63	39.59
320.843	176.81
321.057	39.59
321.27	74.41
321.483	84.65
321.697	62.12
321.91	105.13
322.124	78.51
322.337	80.55
322.55	-46.42
322.763	2.73
322.977	17.07
323.19	47.79
323.403	8.87
323.617	78.51
323.83	96.94
324.043	-54.61
324.256	80.55
324.469	-64.85
324.683	58.03
324.896	-46.42
325.109	41.64
325.322	-21.85
325.535	90.79
325.748	78.51
325.962	8.87
326.175	21.16
326.388	37.55
326.601	125.61
326.814	-15.7
327.027	-40.28
327.24	111.27
327.453	-157.01
327.666	58.03
327.879	152.23
328.092	78.51
328.305	55.98
328.518	29.35
328.731	-17.75
328.944	6.83
329.157	92.84
329.37	-95.57
329.583	164.52
329.796	205.48
330.009	-46.42
330.222	94.89
330.435	90.79
330.648	-19.8
330.861	86.7
331.073	96.94
331.286	111.27
331.499	12.97
331.712	6.83
331.925	12.97
332.138	49.83
332.35	84.65
332.563	-68.95
332.776	144.04
332.989	-25.94
333.202	47.79
333.414	51.88
333.627	29.35
333.84	-21.85
334.053	117.42
334.265	-73.04
334.478	80.55
334.691	-1.37
334.903	29.35
335.116	-48.47
335.329	121.51
335.541	86.7
335.754	101.03
335.966	10.92
336.179	-27.99
336.392	-7.51
336.604	-7.51
336.817	127.66
337.029	15.02
337.242	43.69
337.454	66.22
337.667	21.16
337.88	139.94
338.092	51.88
338.305	68.27
338.517	10.92
338.729	74.41
338.942	90.79
339.154	-58.71
339.367	-13.65
339.579	35.5
339.792	-81.24
340.004	76.46
340.217	-21.85
340.429	64.17
340.641	64.17
340.854	-32.08
341.066	19.11
341.278	68.27
341.491	230.06
341.703	37.55
341.915	-23.89
342.128	25.26
342.34	-1.37
342.552	-30.04
342.764	-40.28
342.977	-34.13
343.189	39.59
343.401	21.16
343.613	12.97
343.826	-25.94
344.038	-17.75
344.25	4.78
344.462	25.26
344.674	-17.75
344.886	-34.13
345.099	98.99
345.311	64.17
345.523	-15.7
345.735	-128.34
345.947	37.55
346.159	119.46
346.371	51.88
346.583	-23.89
346.795	127.66
347.007	53.93
347.219	133.8
347.431	49.83
347.643	92.84
347.855	-71
348.067	82.6
348.279	-23.89
348.491	-3.41
348.703	84.65
348.915	23.21
349.127	-62.8
349.339	33.45
349.551	0.68
349.763	53.93
349.975	-9.56
350.187	150.18
350.399	107.18
350.61	8.87
350.822	96.94
351.034	35.5
351.246	15.02
351.458	76.46
351.669	96.94
351.881	49.83
352.093	176.81
352.305	96.94
352.517	45.74
352.728	150.18
352.94	105.13
353.152	-27.99
353.363	0.68
353.575	92.84
353.787	129.7
353.999	64.17
354.21	129.7
354.422	15.02
354.633	-46.42
354.845	2.73
355.057	-13.65
355.268	-11.61
355.48	125.61
355.692	-11.61
355.903	15.02
356.115	-30.04
356.326	-130.39
356.538	109.22
356.749	-5.46
356.961	111.27
357.172	37.55
357.384	-27.99
357.595	209.58
357.807	10.92
358.018	43.69
358.23	-13.65
358.441	103.08
358.653	111.27
358.864	84.65
359.075	-7.51
359.287	-17.75
359.498	121.51
359.709	35.5
359.921	47.79
360.132	19.11
360.344	55.98
360.555	-48.47
360.766	19.11
360.977	0.68
361.189	84.65
361.4	60.07
361.611	68.27
361.823	70.31
362.034	47.79
362.245	-66.9
362.456	60.07
362.667	27.31
362.879	-79.19
363.09	82.6
363.301	60.07
363.512	15.02
363.723	4.78
363.935	29.35
364.146	82.6
364.357	2.73
364.568	68.27
364.779	-52.56
364.99	133.8
365.201	-19.8
365.412	111.27
365.623	-105.81
365.834	82.6
366.045	39.59
366.256	74.41
366.467	66.22
366.678	12.97
366.889	60.07
367.1	23.21
367.311	94.89
367.522	25.26
367.733	31.4
367.944	47.79
368.155	-3.41
368.366	78.51
368.577	84.65
368.788	45.74
368.999	-32.08
369.209	51.88
369.42	185
369.631	221.86
369.842	43.69
370.053	-11.61
370.264	80.55
370.474	0.68
370.685	84.65
370.896	-30.04
371.107	170.66
371.317	4.78
371.528	-11.61
371.739	107.18
371.95	39.59
372.16	84.65
372.371	-9.56
372.582	-27.99
372.792	33.45
373.003	2.73
373.214	58.03
373.424	74.41
373.635	39.59
373.846	92.84
374.056	94.89
374.267	66.22
374.477	19.11
374.688	8.87
374.898	8.87
375.109	60.07
375.319	45.74
375.53	107.18
375.74	135.85
375.951	43.69
376.161	113.32
376.372	41.64
376.582	-5.46
376.793	58.03
377.003	35.5
377.214	-54.61
377.424	68.27
377.635	41.64
377.845	-9.56
378.055	107.18
378.266	-36.18
378.476	19.11
378.686	84.65
378.897	-9.56
379.107	125.61
379.317	115.37
379.528	-27.99
379.738	78.51
379.948	-38.23
380.158	109.22
380.369	-11.61
380.579	121.51
380.789	-25.94
380.999	33.45
381.21	111.27
381.42	105.13
381.63	49.83
381.84	146.09
382.05	23.21
382.261	86.7
382.471	129.7
382.681	25.26
382.891	133.8
383.101	113.32
383.311	-25.94
383.521	-7.51
383.731	43.69
383.941	148.14
384.151	103.08
384.361	58.03
384.571	25.26
384.781	29.35
384.991	121.51
385.201	141.99
385.411	135.85
385.621	78.51
385.831	27.31
386.041	72.36
386.251	31.4
386.461	82.6
386.671	19.11
386.881	45.74
387.091	12.97
387.301	64.17
387.511	-11.61
387.72	-9.56
387.93	94.89
388.14	-36.18
388.35	152.23
388.56	47.79
388.769	162.47
388.979	15.02
389.189	-19.8
389.399	72.36
389.609	109.22
389.818	80.55
390.028	141.99
390.238	101.03
390.447	49.83
390.657	37.55
390.867	29.35
391.076	-62.8
391.286	43.69
391.496	-3.41
391.705	8.87
391.915	76.46
392.125	82.6
392.334	45.74
392.544	144.04
392.753	137.9
392.963	-42.32
393.172	33.45
393.382	-1.37
393.591	240.29
393.801	-36.18
394.01	113.32
394.22	53.93
394.429	94.89
394.639	-34.13
394.848	109.22
395.058	105.13
395.267	21.16
395.477	8.87
395.686	72.36
395.895	162.47
396.105	223.91
396.314	35.5
396.524	94.89
396.733	-1.37
396.942	133.8
397.152	66.22
397.361	51.88
397.57	2.73
397.78	-13.65
397.989	115.37
398.198	217.77
398.407	0.68
398.617	121.51
398.826	58.03
399.035	-3.41
399.244	109.22
399.453	131.75
399.663	62.12
399.872	53.93
400.081	-73.04
400.29	152.23
400.499	-3.41
400.708	115.37
400.917	68.27
401.127	19.11
401.336	-9.56
401.545	139.94
401.754	176.81
401.963	101.03
402.172	-23.89
402.381	-42.32
402.59	35.5
402.799	29.35
403.008	72.36
403.217	2.73
403.426	107.18
403.635	-32.08
403.844	27.31
404.053	25.26
404.262	29.35
404.471	201.38
404.68	23.21
404.888	68.27
405.097	43.69
405.306	60.07
405.515	70.31
405.724	47.79
405.933	55.98
406.142	84.65
406.35	105.13
406.559	33.45
406.768	88.75
406.977	154.28
407.185	111.27
407.394	139.94
407.603	-114
407.812	35.5
408.02	127.66
408.229	12.97
408.438	15.02
408.646	-11.61
408.855	-17.75
409.064	68.27
409.272	58.03
409.481	82.6
409.69	-7.51
409.898	-81.24
410.107	76.46
410.315	60.07
410.524	21.16
410.733	96.94
410.941	55.98
411.15	92.84
411.358	-13.65
411.567	96.94
411.775	72.36
411.984	17.07
412.192	86.7
412.401	-19.8
412.609	223.91
412.818	109.22
413.026	92.84
413.234	49.83
413.443	33.45
413.651	17.07
413.86	23.21
414.068	107.18
414.276	160.42
414.485	6.83
414.693	144.04
414.901	115.37
415.11	60.07
415.318	-19.8
415.526	-36.18
415.734	94.89
415.943	47.79
416.151	131.75
416.359	-23.89
416.567	25.26
416.776	29.35
416.984	80.55
417.192	176.81
417.4	-19.8
417.608	19.11
417.817	10.92
418.025	64.17
418.233	133.8
418.441	-9.56
418.649	-19.8
418.857	58.03
419.065	60.07
419.273	-27.99
419.481	70.31
419.689	-13.65
419.897	-44.37
420.105	-73.04
420.313	174.76
420.521	193.19
420.729	221.86
420.937	-15.7
421.145	64.17
421.353	131.75
421.561	150.18
421.769	107.18
421.977	0.68
422.185	86.7
422.393	27.31
422.601	64.17
422.809	125.61
423.017	-3.41
423.224	43.69
423.432	119.46
423.64	-48.47
423.848	107.18
424.056	-13.65
424.263	66.22
424.471	15.02
424.679	47.79
424.887	-91.48
425.094	113.32
425.302	148.14
425.51	96.94
425.718	84.65
425.925	86.7
426.133	23.21
426.341	176.81
426.548	35.5
426.756	8.87
426.964	51.88
427.171	29.35
427.379	133.8
427.586	19.11
427.794	164.52
428.001	160.42
428.209	117.42
428.417	211.62
428.624	92.84
428.832	82.6
429.039	41.64
429.247	78.51
429.454	107.18
429.662	166.57
429.869	131.75
430.076	84.65
430.284	101.03
430.491	174.76
430.699	98.99
430.906	135.85
431.114	84.65
431.321	105.13
431.528	78.51
431.736	144.04
431.943	103.08
432.15	107.18
432.358	170.66
432.565	232.1
432.772	8.87
432.979	168.62
433.187	60.07
433.394	211.62
433.601	88.75
433.808	164.52
434.016	211.62
434.223	225.96
434.43	107.18
434.637	236.2
434.844	172.71
435.052	150.18
435.259	256.68
435.466	219.82
435.673	238.25
435.88	275.11
436.087	230.06
436.294	307.88
436.501	195.24
436.708	180.9
436.915	217.77
437.122	256.68
437.329	254.63
437.537	221.86
437.743	258.73
437.95	408.23
438.157	232.1
438.364	301.73
438.571	322.21
438.778	320.17
438.985	359.08
439.192	400.04
439.399	344.74
439.606	363.17
439.813	445.09
440.02	500.39
440.227	551.59
440.433	443.04
440.64	404.13
440.847	395.94
441.054	537.25
441.261	576.16
441.467	506.53
441.674	504.48
441.881	586.4
442.088	484
442.294	549.54
442.501	731.81
442.708	705.18
442.914	600.74
443.121	748.19
443.328	737.95
443.534	748.19
443.741	711.33
443.948	635.55
444.154	789.15
444.361	944.8
444.568	826.01
444.774	828.06
444.981	809.63
445.187	932.51
445.394	975.52
445.6	844.45
445.807	1129.11
446.013	1086.11
446.22	936.6
446.426	1215.13
446.633	1147.55
446.839	1385.11
447.046	1114.78
447.252	1366.68
447.459	1374.87
447.665	1372.82
447.871	1548.95
448.078	1663.63
448.284	1489.56
448.491	1716.88
448.697	1743.5
448.903	1829.52
449.11	1837.71
449.316	1841.81
449.522	2112.14
449.728	2024.08
449.935	2067.08
450.141	2019.98
450.347	2214.54
450.553	2210.44
450.76	2265.74
450.966	2405
451.172	2476.68
451.378	2665.09
451.584	2667.14
451.791	2837.12
451.997	2919.04
452.203	2919.04
452.409	3043.96
452.615	3293.82
452.821	3203.71
453.027	3259
453.233	3553.91
453.44	3488.37
453.646	3660.4
453.852	3869.3
454.058	3881.58
454.264	4092.52
454.47	4379.24
454.676	4242.03
454.882	4625
455.088	4461.16
455.294	4960.86
455.5	5005.92
455.705	5390.94
455.911	5296.73
456.117	5544.53
456.323	5775.95
456.529	5782.1
456.735	6220.36
456.941	6425.16
457.147	6773.32
457.352	6724.16
457.558	7019.07
457.764	7494.2
457.97	7633.46
458.176	7991.86
458.381	8315.44
458.587	8540.71
458.793	8948.26
458.999	8884.77
459.204	10041.87
459.41	10514.95
459.616	10082.83
459.821	10627.59
460.027	11123.2
460.233	11692.54
460.438	11887.09
460.644	12362.22
460.85	12564.97
461.055	12896.74
461.261	13803.99
461.466	13494.75
461.672	13713.88
461.878	15278.53
462.083	15155.65
462.289	15133.12
462.494	16193.97
462.7	16259.51
462.905	16458.16
463.111	17815.96
463.316	18538.9
463.522	19294.6
463.727	19564.93
463.932	20150.65
464.138	20959.59
464.343	21723.49
464.549	21743.97
464.754	23507.27
464.959	24471.86
465.165	24539.44
465.37	24412.47
465.575	24248.63
465.781	26020.13
465.986	27109.64
466.191	26149.15
466.397	26540.31
466.602	26104.09
466.807	27672.84
467.012	28266.75
467.218	28674.29
467.423	28823.79
467.628	29518.06
467.833	30394.59
468.038	30304.48
468.244	30019.81
468.449	31482.06
468.654	30738.65
468.859	30927.06
469.064	30687.45
469.269	30009.57
469.474	30535.9
469.679	31172.81
469.885	30089.44
470.09	30740.69
470.295	31099.09
470.5	30173.41
470.705	30396.63
470.91	29346.03
471.115	29165.81
471.32	29634.79
471.525	29505.77
471.73	28313.85
471.935	28442.87
472.139	27361.55
472.344	27492.62
472.549	27273.48
472.754	26878.22
472.959	25975.07
473.164	25123.12
473.369	24777.01
473.574	25368.87
473.778	25063.72
473.983	24480.05
474.188	24172.86
474.393	22849.87
474.598	23075.15
474.802	22640.98
475.007	22262.1
475.212	22163.8
475.417	21225.83
475.621	21150.06
475.826	20873.58
476.031	20224.37
476.235	19677.57
476.44	19734.91
476.645	19263.88
476.849	19227.01
477.054	18807.18
477.259	18422.16
477.463	18315.67
477.668	17836.44
477.872	17965.46
478.077	17383.84
478.282	16865.71
478.486	16703.92
478.691	16667.05
478.895	16353.71
479.1	15960.5
479.304	16202.16
479.509	15505.85
479.713	15966.65
479.918	15200.71
480.122	14926.28
480.326	15245.76
480.531	15114.69
480.735	14977.48
480.94	14737.87
481.144	15215.04
481.348	14354.9
481.553	14373.33
481.757	14125.52
481.961	14445.01
482.166	14369.23
482.37	14053.84
482.574	13760.98
482.778	13634.01
482.983	13803.99
483.187	13666.78
483.391	13378.01
483.595	13246.94
483.8	13070.82
484.004	13099.49
484.208	13156.83
484.412	12843.49
484.616	12616.17
484.821	13019.62
485.025	12382.7
485.229	12444.14
485.433	12306.93
485.637	12440.04
485.841	11940.34
486.045	11844.09
486.249	11725.3
486.453	11368.96
486.657	11264.51
486.861	11268.61
487.065	10973.7
487.269	10897.92
487.473	10588.68
487.677	10684.94
487.881	10789.38
488.085	10344.97
488.289	10203.66
488.493	9740.82
488.697	9970.19
488.901	9613.85
489.105	9452.06
489.309	9427.48
489.512	9161.25
489.716	9208.35
489.92	8903.2
490.124	8712.74
490.328	8745.51
490.531	8356.4
490.735	8563.24
490.939	8096.3
491.143	8024.62
491.346	7791.16
491.55	7615.03
491.754	7721.52
491.958	7619.13
492.161	7461.43
492.365	7232.06
492.569	7182.91
492.772	7010.88
492.976	7170.62
493.18	6931.01
493.383	6849.09
493.587	6801.99
493.79	6828.61
493.994	6564.42
494.197	6466.12
494.401	6466.12
494.605	6388.3
494.808	6556.23
495.012	6271.56
495.215	6464.07
495.419	6552.13
495.622	6206.03
495.825	6175.31
496.029	6195.79
496.232	6470.22
496.436	6113.87
496.639	6183.5
496.843	6103.63
497.046	6187.6
497.249	6240.84
497.453	6255.18
497.656	6040.14
497.859	6439.5
498.063	6179.4
498.266	6404.68
498.469	6263.37
498.673	6306.38
498.876	6357.58
499.079	6386.25
499.282	6496.84
499.485	6718.02
499.689	6392.39
499.892	6650.44
500.095	6556.23
500.298	6648.39
500.501	6453.83
500.705	6720.07
500.908	6675.01
501.111	6890.05
501.314	7057.98
501.517	7109.18
501.72	7074.37
501.923	7178.81
502.126	7340.6
502.329	7365.18
502.532	7440.95
502.735	7569.98
502.938	7813.68
503.141	7727.67
503.344	7782.96
503.547	7946.8
503.75	7873.07
503.953	8178.22
504.156	8098.35
504.359	8290.86
504.562	8370.73
504.765	8798.76
504.968	8860.2
505.17	8772.13
505.373	9046.56
505.576	9212.45
505.779	9390.62
505.982	9366.04
506.185	9570.84
506.387	9544.22
506.59	10134.03
506.793	10242.57
506.996	10381.84
507.198	10721.8
507.401	10668.55
507.604	10850.82
507.807	11411.96
508.009	11295.23
508.212	11731.45
508.415	11880.95
508.617	12032.5
508.82	12442.09
509.022	12667.37
509.225	13040.1
509.428	13003.24
509.63	13464.03
509.833	13640.15
510.035	14346.7
510.238	14275.02
510.44	14502.35
510.643	14997.96
510.845	15622.59
511.048	15540.67
511.25	16222.64
511.453	16300.47
511.655	16814.51
511.858	17078.69
512.06	17715.61
512.262	17957.27
512.465	18051.48
512.667	18542.99
512.87	18975.11
513.072	19380.61
513.274	19769.72
513.477	20371.83
513.679	20900.2
513.881	21238.12
514.084	21778.78
514.286	21918.04
514.488	22276.44
514.69	23267.66
514.893	23716.16
515.095	24238.39
515.297	24924.46
515.499	25094.44
515.701	25506.09
515.904	26429.72
516.106	26872.08
516.308	27400.46
516.51	27996.42
516.712	28358.91
516.914	29124.85
517.116	29526.25
517.318	30101.73
517.52	30824.66
517.722	31334.6
517.925	32000.19
518.127	32489.66
518.329	33394.86
518.531	33093.81
518.733	34035.88
518.935	34513.05
519.136	35066
519.338	35553.42
519.54	36208.77
519.742	37003.38
519.944	37159.03
520.146	38092.9
520.348	38371.43
520.55	38981.72
520.752	39559.25
520.954	40165.45
521.155	39762
521.357	41072.7
521.559	41494.58
521.761	41979.95
521.963	42356.77
522.164	42375.2
522.366	42893.34
522.568	43405.33
522.77	43745.3
522.971	44251.14
523.173	44126.22
523.375	45082.62
523.576	44746.75
523.778	44656.64
523.98	45692.91
524.181	45850.61
524.383	45836.27
524.584	46268.39
524.786	46211.05
524.988	46051.31
525.189	46720.99
525.391	46313.45
525.592	46428.13
525.794	46837.73
525.995	46522.34
526.197	46540.77
526.398	46397.41
526.6	46518.24
526.801	46317.54
527.003	45871.09
527.204	46129.13
527.406	45998.06
527.607	45545.46
527.808	45690.87
528.01	44929.02
528.211	45068.28
528.412	45459.44
528.614	45119.48
528.815	44746.75
529.016	44660.74
529.218	43450.39
529.419	43315.22
529.62	43165.72
529.822	42790.94
530.023	42315.81
530.224	42203.17
530.425	41789.49
530.626	40669.25
530.828	40570.94
531.029	40757.31
531.23	39884.87
531.431	39864.39
531.632	39340.11
531.833	38971.48
532.035	38539.36
532.236	37900.39
532.437	37752.94
532.638	36913.27
532.839	36567.16
533.04	36509.82
533.241	35598.48
533.442	35483.79
533.643	34693.27
533.844	34218.14
534.045	34142.37
534.246	33181.87
534.447	33099.95
534.648	32489.66
534.849	32448.7
535.05	31707.33
535.251	31449.29
535.451	30875.86
535.652	30660.82
535.853	30349.53
536.054	29798.63
536.255	29487.34
536.456	28860.66
536.657	28993.78
536.857	28264.7
537.058	27746.56
537.259	27431.18
537.46	27404.55
537.66	26286.36
537.861	26495.25
538.062	26042.65
538.263	25803.04
538.463	25475.37
538.664	25057.58
538.865	24891.69
539.065	24678.71
539.266	23746.88
539.466	23908.67
539.667	23626.05
539.868	23288.14
540.068	22950.22
540.269	22905.17
540.469	22720.85
540.67	22432.08
540.87	21989.72
541.071	21827.93
541.271	21664.1
541.472	21410.15
541.672	21279.08
541.873	20560.24
542.073	20207.99
542.274	20771.18
542.474	20048.25
542.675	19679.61
542.875	19784.06
543.075	19437.95
543.276	18819.47
543.476	19278.21
543.676	18807.18
543.877	18549.14
544.077	18608.53
544.277	18090.39
544.478	17951.13
544.678	17734.04
544.878	17566.11
545.078	17432.99
545.279	16990.63
545.479	16767.4
545.679	16763.31
545.879	16480.69
546.079	16443.82
546.28	16110
546.48	15956.41
546.68	16032.18
546.88	15647.16
547.08	15665.6
547.28	15106.5
547.48	14889.42
547.68	14881.22
547.88	14614.99
548.081	14809.54
548.281	14533.07
548.481	13984.21
548.681	14012.88
548.881	13900.25
549.081	13621.72
549.28	13156.83
549.48	13507.04
549.68	13107.68
549.88	13097.44
550.08	12470.76
550.28	12595.69
550.48	12425.71
550.68	12390.89
550.88	11956.72
551.08	11954.68
551.279	11751.93
551.479	11512.31
551.679	11430.4
551.879	11233.79
552.079	11330.05
552.278	11012.61
552.478	10910.21
552.678	10777.09
552.878	10588.68
553.077	10299.92
553.277	9921.04
553.477	10193.42
553.676	9904.66
553.876	9533.98
554.076	9505.31
554.275	9392.67
554.475	8925.73
554.674	9091.62
554.874	8976.93
555.074	8821.28
555.273	8464.94
555.473	8641.06
555.672	8100.4
555.872	8290.86
556.071	8206.89
556.271	8149.55
556.47	7600.69
556.67	7612.98
556.869	7553.59
557.068	7410.23
557.268	7297.6
557.467	7119.42
557.667	7240.25
557.866	7051.84
558.065	6951.49
558.265	6945.34
558.464	6572.61
558.663	6519.37
558.863	6335.05
559.062	6480.46
559.261	6302.28
559.461	6238.8
559.66	6052.43
559.859	5923.41
560.058	5818.96
560.258	5640.79
560.457	5694.04
560.656	5728.85
560.855	5532.25
561.054	5489.24
561.253	5276.25
561.453	5223
561.652	5298.78
561.851	5237.34
562.05	4971.1
562.249	4799.07
562.448	4868.7
562.647	4686.44
562.846	4555.37
563.045	4700.77
563.244	4555.37
563.443	4631.14
563.642	4379.24
563.841	4344.42
564.04	4307.56
564.239	4209.26
564.438	4164.2
564.637	4115.05
564.836	3994.22
565.035	3869.3
565.234	3811.95
565.432	3742.32
565.631	3877.49
565.83	3854.96
566.029	3594.87
566.228	3572.34
566.427	3830.38
566.625	3371.64
566.824	3586.68
567.023	3451.51
567.222	3250.81
567.42	3226.23
567.619	3345.02
567.818	3330.68
568.016	3267.19
568.215	3261.05
568.414	3193.47
568.612	3168.89
568.811	3086.97
569.01	3082.88
569.208	2937.47
569.407	2921.09
569.605	2847.36
569.804	2763.39
570.002	2833.02
570.201	2615.94
570.4	2593.41
570.598	2626.18
570.797	2527.88
570.995	2521.73
571.193	2456.2
571.392	2441.86
571.59	2411.14
571.789	2591.36
571.987	2361.99
572.186	2294.41
572.384	2271.88
572.582	2345.61
572.781	2292.36
572.979	2159.24
573.177	2251.4
573.376	2013.84
573.574	2196.11
573.772	2056.84
573.971	2030.22
574.169	1911.44
574.367	1952.4
574.565	1989.26
574.763	1903.25
574.962	1952.4
575.16	1714.83
575.358	1745.55
575.556	1872.53
575.754	1792.66
575.952	1716.88
576.151	1763.98
576.349	1809.04
576.547	1532.56
576.745	1526.42
576.943	1559.19
577.141	1585.81
577.339	1489.56
577.537	1565.33
577.735	1583.76
577.933	1471.12
578.131	1401.49
578.329	1520.28
578.527	1510.04
578.725	1471.12
578.923	1245.85
579.121	1485.46
579.319	1268.38
579.516	1251.99
579.714	1589.91
579.912	1309.33
580.11	1163.93
580.308	1159.83
580.506	1073.82
580.704	1069.72
580.901	1137.31
581.099	1235.61
581.297	1104.54
581.495	1112.73
581.692	1108.63
581.89	1249.94
582.088	1057.43
582.285	1067.67
582.483	1032.86
582.681	1108.63
582.878	1018.52
583.076	934.56
583.274	967.32
583.471	1110.68
583.669	924.32
583.866	877.21
584.064	912.03
584.262	823.97
584.459	817.82
584.657	950.94
584.854	930.46
585.052	905.88
585.249	950.94
585.447	879.26
585.644	713.38
585.841	918.17
586.039	854.69
586.236	930.46
586.434	791.2
586.631	668.32
586.828	780.96
587.026	762.53
587.223	668.32
587.42	660.13
587.618	774.81
587.815	850.59
588.012	598.69
588.21	696.99
588.407	690.85
588.604	768.67
588.801	613.03
588.999	694.94
589.196	678.56
589.393	547.49
589.59	641.7
589.787	682.66
589.984	608.93
590.182	678.56
590.379	584.35
590.576	674.46
590.773	619.17
590.97	623.27
591.167	582.31
591.364	596.64
591.561	604.83
591.758	694.94
591.955	578.21
592.152	539.3
592.349	559.78
592.546	563.87
592.743	449.19
592.94	582.31
593.137	561.83
593.334	699.04
593.531	629.41
593.727	662.18
593.924	639.65
594.121	586.4
594.318	490.15
594.515	608.93
594.712	637.6
594.908	666.27
595.105	500.39
595.302	578.21
595.499	647.84
595.696	707.23
595.892	553.63
596.089	789.15
596.286	615.07
596.482	729.76
596.679	676.51
596.876	686.75
597.072	862.88
597.269	676.51
597.466	635.55
597.662	694.94
597.859	772.77
598.055	830.11
598.252	854.69
598.448	823.97
598.645	909.98
598.841	1002.14
599.038	979.61
599.234	1008.28
599.431	1151.64
599.627	991.9
599.824	1145.5
600.02	1208.98
600.217	1194.65
600.413	1186.46
600.609	1200.79
600.806	1516.18
601.002	1352.34
601.198	1378.97
601.395	1493.65
601.591	1493.65
601.787	1571.47
601.984	1585.81
602.18	1661.59
602.376	1712.78
602.572	1841.81
602.769	1964.68
602.965	1946.25
603.161	2067.08
603.357	2208.39
603.553	2185.87
603.75	2157.19
603.946	2212.49
604.142	2476.68
604.338	2486.92
604.534	2536.07
604.73	2605.7
604.926	2630.27
605.122	2914.94
605.318	2816.64
605.514	3109.5
605.71	3000.96
605.906	3107.45
606.102	3254.9
606.298	3369.59
606.494	3465.85
606.69	3517.04
606.886	3521.14
607.082	3668.59
607.278	3805.81
607.474	3918.45
607.67	4094.57
607.866	3902.06
608.062	4385.38
608.257	4350.57
608.453	4452.97
608.649	4579.94
608.845	4565.6
609.041	4827.74
609.236	4987.49
609.432	5042.78
609.628	5266.01
609.824	5313.11
610.019	5417.56
610.215	5806.67
610.411	5808.72
610.606	5976.66
610.802	6048.33
610.998	6271.56
611.193	6400.58
611.389	6474.31
611.584	6724.16
611.78	6754.88
611.976	7062.08
612.171	7551.54
612.367	7514.68
612.562	7799.35
612.758	7778.87
612.953	7977.52
613.149	8352.3
613.344	8303.15
613.539	8704.55
613.735	8735.27
613.93	9161.25
614.126	9400.86
614.321	9663
614.517	10070.54
614.712	10140.18
614.907	10433.04
615.103	10924.55
615.298	10887.68
615.493	11274.75
615.688	11139.58
615.884	11827.7
616.079	12095.99
616.274	12431.85
616.47	12550.64
616.665	12997.09
616.86	13251.04
617.055	13515.23
617.25	14092.76
617.445	14457.29
617.641	14623.18
617.836	15176.13
618.031	15167.94
618.226	15698.36
618.421	15905.21
618.616	16548.27
618.811	16693.68
619.006	17267.11
619.201	17435.04
619.396	17889.69
619.591	18219.41
619.786	18727.31
619.981	18987.4
620.176	19609.98
620.371	19661.18
620.566	20310.39
620.761	20660.59
620.956	21393.76
621.151	21209.45
621.346	22118.75
621.541	22159.7
621.735	23052.62
621.93	22950.22
622.125	23767.36
622.32	24199.48
622.515	24711.47
622.709	24736.05
622.904	25174.31
623.099	25850.14
623.294	26335.51
623.488	26304.79
623.683	27040.01
623.878	27318.54
624.072	28035.33
624.267	28451.06
624.462	28860.66
624.656	28653.81
624.851	29946.08
625.046	30304.48
625.24	30509.27
625.435	30941.39
625.629	31228.11
625.824	31748.29
626.018	32229.57
626.213	32032.96
626.407	32788.66
626.602	32956.6
626.796	33665.19
626.991	34052.26
627.185	34205.86
627.38	34523.29
627.574	34560.16
627.768	34390.17
627.963	34939.03
628.157	35010.71
628.352	35266.7
628.546	34701.47
628.74	35547.28
628.935	35074.2
629.129	35057.81
629.323	34558.11
629.517	34760.86
629.712	34488.48
629.906	34334.88
630.1	33931.43
630.294	33642.67
630.489	32954.55
630.683	33095.86
630.877	31779.01
631.071	31951.04
631.265	31523.02
631.459	30703.83
631.653	30050.53
631.848	29595.88
632.042	28874.99
632.236	28287.23
632.43	27238.67
632.624	26876.18
632.818	26024.22
633.012	25112.88
633.206	24437.05
633.4	23941.44
633.594	22692.18
633.788	22106.46
633.982	21584.23
634.176	20525.43
634.369	19779.96
634.563	19184.01
634.757	18246.04
634.951	17641.89
635.145	17285.54
635.339	16292.27
635.533	15741.37
635.726	15124.93
635.92	14229.97
636.114	13777.37
636.308	13275.62
636.501	12931.56
636.695	12491.24
636.889	11598.33
637.083	11504.12
637.276	10840.58
637.47	10277.39
637.664	10068.5
637.857	9812.5
638.051	9341.47
638.244	8671.78
638.438	8317.48
638.632	8206.89
638.825	7596.6
639.019	7494.2
639.212	7168.57
639.406	6865.47
639.599	6572.61
639.793	6314.57
639.986	6068.81
640.18	6101.58
640.373	5653.08
640.567	5491.29
640.76	5194.33
640.954	5120.6
641.147	4772.45
641.34	4729.44
641.534	4561.51
641.727	4448.87
641.92	4172.39
642.114	4045.42
642.307	3789.42
642.5	3918.45
642.694	3570.29
642.887	3410.55
643.08	3494.52
643.273	3273.34
643.467	3170.94
643.66	3029.63
643.853	2802.3
644.046	2775.68
644.239	2687.62
644.432	2441.86
644.626	2261.64
644.819	2312.84
645.012	2394.76
645.205	2116.23
645.398	2169.48
645.591	2015.88
645.784	1864.33
645.977	1784.46
646.17	1798.8
646.363	1743.5
646.556	1524.37
646.749	1559.19
646.942	1608.34
647.135	1557.14
647.328	1376.92
647.521	1366.68
647.714	1368.73
647.907	1315.48
648.099	1145.5
648.292	1182.36
648.485	1157.78
648.678	1063.58
648.871	938.65
649.064	1079.96
649.256	1028.76
649.449	932.51
649.642	854.69
649.835	783.01
650.027	858.78
650.22	1000.09
650.413	830.11
650.605	801.44
650.798	682.66
650.991	725.66
651.183	690.85
651.376	795.29
651.568	651.94
651.761	563.87
651.954	631.46
652.146	567.97
652.339	596.64
652.531	647.84
652.724	498.34
652.916	510.63
653.109	287.4
653.301	529.06
653.494	438.95
653.686	428.71
653.879	418.47
654.071	469.67
654.263	324.26
654.456	414.37
654.648	504.48
654.84	420.52
655.033	375.46
655.225	461.48
655.417	209.58
655.61	455.33
655.802	395.94
655.994	414.37
656.186	213.67
656.379	400.04
656.571	225.96
656.763	346.79
656.955	375.46
657.148	279.21
657.34	314.02
657.532	311.97
657.724	305.83
657.916	314.02
658.108	352.93
658.3	289.45
658.492	322.21
658.684	209.58
658.876	328.36
659.068	197.29
659.26	193.19
659.452	101.03
659.644	225.96
659.836	354.98
660.028	287.4
660.22	125.61
660.412	121.51
660.604	215.72
660.796	258.73
660.988	281.25
661.18	197.29
661.372	260.77
661.563	197.29
661.755	199.34
661.947	96.94
662.139	113.32
662.331	199.34
662.522	191.14
662.714	105.13
662.906	119.46
663.097	133.8
663.289	88.75
663.481	33.45
663.673	236.2
663.864	182.95
664.056	166.57
664.247	37.55
664.439	260.77
664.631	182.95
664.822	209.58
665.014	150.18
665.205	109.22
665.397	135.85
665.588	131.75
665.78	139.94
665.971	193.19
666.163	80.55
666.354	141.99
666.546	47.79
666.737	41.64
666.929	105.13
667.12	84.65
667.311	150.18
667.503	55.98
667.694	105.13
667.885	121.51
668.077	221.86
668.268	29.35
668.459	174.76
668.651	74.41
668.842	180.9
669.033	131.75
669.224	64.17
669.416	297.64
669.607	129.7
669.798	15.02
669.989	215.72
670.18	88.75
670.371	137.9
670.563	39.59
670.754	232.1
670.945	144.04
671.136	86.7
671.327	148.14
671.518	166.57
671.709	203.43
671.9	115.37
672.091	180.9
672.282	150.18
672.473	174.76
672.664	47.79
672.855	162.47
673.046	172.71
673.237	164.52
673.428	166.57
673.619	62.12
673.809	144.04
674	225.96
674.191	154.28
674.382	150.18
674.573	113.32
674.764	103.08
674.954	133.8
675.145	64.17
675.336	129.7
675.527	127.66
675.717	72.36
675.908	123.56
676.099	62.12
676.289	125.61
676.48	64.17
676.671	133.8
676.861	117.42
677.052	166.57
677.243	47.79
677.433	74.41
677.624	148.14
677.814	146.09
678.005	131.75
678.195	297.64
678.386	137.9
678.576	101.03
678.767	109.22
678.957	170.66
679.148	185
679.338	215.72
679.529	207.53
679.719	137.9
679.909	254.63
680.1	266.92
680.29	219.82
680.481	141.99
680.671	228.01
680.861	172.71
681.052	228.01
681.242	152.23
681.432	191.14
681.622	262.82
681.813	43.69
682.003	131.75
682.193	137.9
682.383	146.09
682.573	131.75
682.764	103.08
682.954	131.75
683.144	185
683.334	230.06
683.524	172.71
683.714	211.62
683.904	129.7
684.094	168.62
684.284	76.46
684.474	240.29
684.664	336.55
684.854	234.15
685.044	152.23
685.234	223.91
685.424	289.45
685.614	174.76
685.804	258.73
685.994	195.24
686.184	205.48
686.374	240.29
686.564	174.76
686.753	180.9
686.943	211.62
687.133	162.47
687.323	74.41
687.513	232.1
687.702	193.19
687.892	166.57
688.082	344.74
688.272	238.25
688.461	193.19
688.651	373.41
688.841	236.2
689.03	152.23
689.22	217.77
689.41	205.48
689.599	201.38
689.789	172.71
689.979	297.64
690.168	271.01
690.358	232.1
690.547	217.77
690.737	115.37
690.926	189.1
691.116	221.86
691.305	271.01
691.495	256.68
691.684	94.89
691.874	166.57
692.063	178.86
692.252	232.1
692.442	273.06
692.631	180.9
692.82	150.18
693.01	234.15
693.199	187.05
693.388	236.2
693.578	232.1
693.767	305.83
693.956	211.62
694.146	189.1
694.335	228.01
694.524	205.48
694.713	283.3
694.902	144.04
695.092	172.71
695.281	191.14
695.47	225.96
695.659	96.94
695.848	209.58
696.037	193.19
696.226	248.49
696.415	256.68
696.604	307.88
696.793	246.44
696.982	121.51
697.171	268.97
697.36	94.89
697.549	144.04
697.738	133.8
697.927	178.86
698.116	187.05
698.305	211.62
698.494	168.62
698.683	176.81
698.872	334.5
699.061	170.66
699.25	180.9
699.438	203.43
699.627	162.47
699.816	336.55
700.005	117.42
700.193	185
700.382	268.97
700.571	148.14
700.76	131.75
700.948	283.3
701.137	219.82
701.326	268.97
701.514	66.22
701.703	209.58
701.892	115.37
702.08	332.45
702.269	187.05
702.457	162.47
702.646	199.34
702.834	232.1
703.023	277.16
703.212	201.38
703.4	158.38
703.589	166.57
703.777	109.22
703.965	41.64
704.154	195.24
704.342	164.52
704.531	109.22
704.719	289.45
704.907	262.82
705.096	115.37
705.284	121.51
705.472	170.66
705.661	176.81
705.849	232.1
706.037	271.01
706.226	191.14
706.414	283.3
706.602	121.51
706.79	234.15
706.979	139.94
707.167	193.19
707.355	139.94
707.543	205.48
707.731	236.2
707.919	187.05
708.107	199.34
708.296	174.76
708.484	135.85
708.672	236.2
708.86	139.94
709.048	127.66
709.236	96.94
709.424	262.82
709.612	238.25
709.8	66.22
709.988	240.29
710.176	246.44
710.364	285.35
710.551	240.29
710.739	193.19
710.927	176.81
711.115	141.99
711.303	174.76
711.491	279.21
711.679	137.9
711.866	289.45
712.054	174.76
712.242	152.23
712.43	252.58
712.617	109.22
712.805	246.44
712.993	150.18
713.181	105.13
713.368	211.62
713.556	178.86
713.744	146.09
713.931	402.08
714.119	338.6
714.306	174.76
714.494	121.51
714.682	252.58
714.869	189.1
715.057	209.58
715.244	86.7
715.432	250.53
715.619	131.75
715.807	248.49
715.994	88.75
716.182	221.86
716.369	242.34
716.556	236.2
716.744	35.5
716.931	123.56
717.119	217.77
717.306	158.38
717.493	250.53
717.681	150.18
717.868	156.33
718.055	219.82
718.242	281.25
718.43	121.51
718.617	322.21
718.804	230.06
718.991	260.77
719.179	268.97
719.366	228.01
719.553	248.49
719.74	230.06
719.927	258.73
720.114	197.29
720.301	152.23
720.488	66.22
720.676	119.46
720.863	328.36
721.05	334.5
721.237	342.69
721.424	264.87
721.611	285.35
721.798	137.9
721.985	178.86
722.172	172.71
722.358	293.54
722.545	250.53
722.732	152.23
722.919	262.82
723.106	318.12
723.293	172.71
723.48	244.39
723.667	180.9
723.853	258.73
724.04	268.97
724.227	291.49
724.414	260.77
724.6	254.63
724.787	299.69
724.974	404.13
725.161	314.02
725.347	156.33
725.534	228.01
725.72	264.87
725.907	289.45
726.094	354.98
726.28	191.14
726.467	236.2
726.653	125.61
726.84	342.69
727.027	332.45
727.213	207.53
727.4	260.77
727.586	228.01
727.773	330.41
727.959	281.25
728.145	211.62
728.332	264.87
728.518	189.1
728.705	244.39
728.891	248.49
729.077	252.58
729.264	203.43
729.45	289.45
729.636	354.98
729.823	266.92
730.009	281.25
730.195	264.87
730.382	314.02
730.568	164.52
730.754	305.83
730.94	207.53
731.126	223.91
731.313	238.25
731.499	303.78
731.685	338.6
731.871	363.17
732.057	275.11
732.243	379.56
732.429	326.31
732.615	344.74
732.801	318.12
732.987	289.45
733.173	293.54
733.359	279.21
733.545	342.69
733.731	228.01
733.917	303.78
734.103	328.36
734.289	314.02
734.475	172.71
734.661	449.19
734.847	262.82
735.033	289.45
735.219	328.36
735.404	318.12
735.59	215.72
735.776	248.49
735.962	361.13
736.148	332.45
736.333	375.46
736.519	307.88
736.705	225.96
736.89	283.3
737.076	305.83
737.262	262.82
737.447	309.93
737.633	318.12
737.819	354.98
738.004	389.8
738.19	242.34
738.375	334.5
738.561	416.42
738.747	291.49
738.932	232.1
739.118	387.75
739.303	326.31
739.489	244.39
739.674	320.17
739.859	205.48
740.045	297.64
740.23	336.55
740.416	211.62
740.601	340.65
740.786	424.61
740.972	266.92
741.157	244.39
741.342	189.1
741.528	262.82
741.713	357.03
741.898	275.11
742.084	369.32
742.269	277.16
742.454	305.83
742.639	344.74
742.824	279.21
743.01	395.94
743.195	375.46
743.38	289.45
743.565	271.01
743.75	311.97
743.935	328.36
744.12	402.08
744.305	213.67
744.49	258.73
744.675	285.35
744.86	285.35
745.045	348.84
745.23	219.82
745.415	279.21
745.6	387.75
745.785	225.96
745.97	322.21
746.155	391.84
746.34	332.45
746.525	281.25
746.71	361.13
746.895	213.67
747.079	150.18
747.264	277.16
747.449	367.27
747.634	264.87
747.819	273.06
748.003	187.05
748.188	144.04
748.373	260.77
748.557	277.16
748.742	260.77
748.927	211.62
749.111	207.53
749.296	228.01
749.481	277.16
749.665	182.95
749.85	242.34
750.034	297.64
750.219	248.49
750.404	197.29
750.588	256.68
750.773	232.1
750.957	311.97
751.141	248.49
751.326	342.69
751.51	156.33
751.695	289.45
751.879	203.43
752.064	346.79
752.248	225.96
752.432	350.89
752.617	254.63
752.801	328.36
752.985	197.29
753.17	197.29
753.354	273.06
753.538	289.45
753.722	250.53
753.907	176.81
754.091	154.28
754.275	256.68
754.459	129.7
754.643	170.66
754.828	203.43
755.012	268.97
755.196	121.51
755.38	193.19
755.564	123.56
755.748	154.28
755.932	205.48
756.116	197.29
756.3	232.1
756.484	74.41
756.668	213.67
756.852	164.52
757.036	139.94
757.22	254.63
757.404	150.18
757.588	182.95
757.772	195.24
757.956	205.48
758.14	295.59
758.323	105.13
758.507	258.73
758.691	182.95
758.875	223.91
759.059	275.11
759.242	185
759.426	180.9
759.61	205.48
759.794	58.03
759.977	234.15
760.161	359.08
760.345	219.82
760.528	252.58
760.712	182.95
760.895	141.99
761.079	158.38
761.263	64.17
761.446	127.66
761.63	174.76
761.813	279.21
761.997	86.7
762.18	164.52
762.364	109.22
762.547	-1.37
762.731	72.36
762.914	117.42
763.098	49.83
763.281	156.33
763.464	88.75
763.648	117.42
763.831	76.46
764.015	-5.46
764.198	221.86
764.381	76.46
764.564	121.51
764.748	207.53
764.931	215.72
765.114	103.08
765.297	236.2
765.481	17.07
765.664	131.75
765.847	70.31
766.03	209.58
766.213	23.21
766.397	174.76
766.58	33.45
766.763	258.73
766.946	113.32
767.129	98.99
767.312	80.55
767.495	88.75
767.678	123.56
767.861	129.7
768.044	86.7
768.227	139.94
768.41	146.09
768.593	109.22
768.776	131.75
768.959	150.18
769.142	232.1
769.324	43.69
769.507	105.13
769.69	76.46
769.873	72.36
770.056	250.53
770.239	150.18
770.421	230.06
770.604	139.94
770.787	129.7
770.97	137.9
771.152	62.12
771.335	187.05
771.518	15.02
771.7	98.99
771.883	213.67
772.066	17.07
772.248	84.65
772.431	246.44
772.613	135.85
772.796	109.22
772.978	105.13
773.161	133.8
773.343	49.83
773.526	35.5
773.708	51.88
773.891	31.4
774.073	72.36
774.256	96.94
774.438	154.28
774.621	74.41
774.803	39.59
774.985	72.36
775.168	66.22
775.35	137.9
775.532	174.76
775.715	55.98
775.897	125.61
776.079	78.51
776.261	107.18
776.444	-9.56
776.626	152.23
776.808	31.4
776.99	-44.37
777.173	70.31
777.355	49.83
777.537	55.98
777.719	31.4
777.901	25.26
778.083	51.88
778.265	-68.95
778.447	156.33
778.629	8.87
778.811	113.32
778.993	117.42
779.175	127.66
779.357	70.31
779.539	-13.65
779.721	-9.56
779.903	125.61
780.085	41.64
780.267	98.99
780.449	96.94
780.631	137.9
780.812	135.85
780.994	2.73
781.176	51.88
781.358	45.74
781.54	133.8
781.721	66.22
781.903	111.27
782.085	33.45
782.267	133.8
782.448	-5.46
782.63	35.5
782.812	111.27
782.993	12.97
783.175	109.22
783.357	62.12
783.538	86.7
783.72	-32.08
783.901	37.55
784.083	154.28
784.264	76.46
784.446	10.92
784.627	-15.7
784.809	19.11
784.99	15.02
785.172	92.84
785.353	-1.37
785.535	96.94
785.716	27.31
785.897	-19.8
786.079	4.78
786.26	78.51
786.441	135.85
786.623	-66.9
786.804	37.55
786.985	17.07
787.167	92.84
787.348	21.16
787.529	51.88
787.71	203.43
787.891	101.03
788.073	8.87
788.254	-25.94
788.435	205.48
788.616	-11.61
788.797	31.4
788.978	72.36
789.159	0.68
789.34	35.5
789.522	62.12
789.703	6.83
789.884	137.9
790.065	51.88
790.246	174.76
790.427	33.45
790.607	150.18
790.788	92.84
790.969	-30.04
791.15	80.55
791.331	-36.18
791.512	27.31
791.693	-68.95
791.874	47.79
792.054	223.91
792.235	168.62
792.416	-17.75
792.597	47.79
792.778	39.59
792.958	-11.61
793.139	27.31
793.32	94.89
793.5	-38.23
793.681	123.56
793.862	109.22
794.042	68.27
794.223	-95.57
794.404	4.78
794.584	-91.48
794.765	10.92
794.945	-75.09
795.126	39.59
795.306	152.23
795.487	-50.52
795.667	70.31
795.848	35.5
796.028	64.17
796.209	60.07
796.389	98.99
796.57	-25.94
796.75	62.12
796.93	53.93
797.111	-3.41
797.291	-7.51
797.471	19.11
797.652	2.73
797.832	-68.95
798.012	127.66
798.192	-9.56
798.373	-42.32
798.553	-38.23
798.733	78.51
798.913	-25.94
799.093	-17.75
799.274	10.92
799.454	80.55
799.634	45.74
799.814	105.13
799.994	117.42
800.174	72.36
800.354	12.97
800.534	-89.43
800.714	80.55
800.894	-56.66
801.074	-99.67
801.254	19.11
801.434	121.51
801.614	-17.75
801.794	-97.62
801.974	1792.66
802.154	-75.09
802.334	74.41
802.514	-171.35
802.693	23.21
802.873	-42.32
803.053	90.79
803.233	45.74
803.413	33.45
803.592	-42.32
803.772	-7.51
803.952	-9.56
804.131	-73.04
804.311	35.5
804.491	55.98
804.67	-52.56
804.85	17.07
805.03	113.32
805.209	109.22
805.389	25.26
805.568	-52.56
805.748	-38.23
805.928	-38.23
806.107	45.74
806.287	103.08
806.466	0.68
806.646	8.87
806.825	10.92
807.004	-5.46
807.184	-3.41
807.363	70.31
807.543	-40.28
807.722	-40.28
807.901	86.7
808.081	45.74
808.26	-68.95
808.439	21.16
808.619	86.7
808.798	-62.8
808.977	68.27
809.156	86.7
809.336	-34.13
809.515	121.51
809.694	-60.76
809.873	25.26
810.052	21.16
810.231	27.31
810.411	27.31
810.59	41.64
810.769	-105.81
810.948	88.75
811.127	-77.14
811.306	-54.61
811.485	-9.56
811.664	131.75
811.843	23.21
812.022	-32.08
812.201	12.97
812.38	-27.99
812.559	-21.85
812.737	58.03
812.916	-105.81
813.095	-136.53
813.274	-30.04
813.453	-42.32
813.632	127.66
813.811	68.27
813.989	-66.9
814.168	84.65
814.347	-91.48
814.526	-21.85
814.704	82.6
814.883	129.7
815.062	-38.23
815.24	2.73
815.419	-101.72
815.598	37.55
815.776	-46.42
815.955	-52.56
816.133	-118.1
816.312	49.83
816.49	-42.32
816.669	2.73
816.847	0.68
817.026	-21.85
817.204	-44.37
817.383	-13.65
817.561	-21.85
817.74	70.31
817.918	29.35
818.097	17.07
818.275	-97.62
818.453	45.74
818.632	-1.37
818.81	-15.7
818.988	-60.76
819.167	-44.37
819.345	23.21
819.523	-60.76
819.701	64.17
819.879	-42.32
820.058	-23.89
820.236	10.92
820.414	6.83
820.592	-66.9
820.77	-21.85
820.948	-30.04
821.127	-97.62
821.305	80.55
821.483	-21.85
821.661	27.31
821.839	-17.75
822.017	-40.28
822.195	-13.65
822.373	135.85
822.551	15.02
822.729	98.99
822.907	-7.51
823.085	53.93
823.262	49.83
823.44	-152.92
823.618	-118.1
823.796	27.31
823.974	-5.46
824.152	-27.99
824.329	2.73
824.507	-36.18
824.685	111.27
824.863	-11.61
825.04	72.36
825.218	64.17
825.396	33.45
825.574	-7.51
825.751	8.87
825.929	-7.51
826.107	-75.09
826.284	43.69
826.462	-15.7
826.639	-60.76
826.817	-27.99
826.994	6.83
827.172	-42.32
827.349	101.03
827.527	64.17
827.704	43.69
827.882	15.02
828.059	-21.85
828.237	-97.62
828.414	156.33
828.591	-111.96
828.769	-87.38
828.946	-50.52
829.124	76.46
829.301	62.12
829.478	25.26
829.655	33.45
829.833	29.35
830.01	-68.95
830.187	-27.99
830.364	-60.76
830.542	-7.51
830.719	131.75
830.896	119.46
831.073	10.92
831.25	43.69
831.427	41.64
831.604	-13.65
831.782	-71
831.959	-13.65
832.136	-42.32
832.313	60.07
832.49	-32.08
832.667	4.78
832.844	-48.47
833.021	47.79
833.198	96.94
833.374	-5.46
833.551	58.03
833.728	17.07
833.905	41.64
834.082	-91.48
834.259	103.08
834.436	119.46
834.612	15.02
834.789	47.79
834.966	-9.56
835.143	33.45
835.319	-99.67
835.496	-1.37
835.673	62.12
835.85	121.51
836.026	-7.51
836.203	17.07
836.38	12.97
836.556	10.92
836.733	-1.37
836.909	86.7
837.086	-73.04
837.262	-40.28
837.439	4.78
837.616	-128.34
837.792	6.83
837.968	-11.61
838.145	-161.11
838.321	25.26
838.498	74.41
838.674	-79.19
838.851	-5.46
839.027	-46.42
839.203	-42.32
839.38	60.07
839.556	-52.56
839.732	76.46
839.909	21.16
840.085	113.32
840.261	-73.04
840.437	-15.7
840.614	-87.38
840.79	33.45
840.966	60.07
841.142	-17.75
841.318	-107.86
841.494	25.26
841.671	47.79
841.847	-50.52
842.023	-64.85
842.199	29.35
842.375	90.79
842.551	-134.48
842.727	-42.32
842.903	58.03
843.079	-101.72
843.255	25.26
843.431	-44.37
843.607	101.03
843.783	-177.49
843.959	76.46
844.134	-38.23
844.31	55.98
844.486	-21.85
844.662	-21.85
844.838	-34.13
845.013	4.78
845.189	39.59
845.365	-3.41
845.541	-5.46
845.716	-9.56
845.892	80.55
846.068	-23.89
846.244	-56.66
846.419	-7.51
846.595	-75.09
846.77	-60.76
846.946	4.78
847.122	-13.65
847.297	-3.41
847.473	119.46
847.648	-79.19
847.824	29.35
847.999	-75.09
848.175	6.83
848.35	2.73
848.526	109.22
848.701	92.84
848.876	103.08
849.052	55.98
849.227	-68.95
849.403	-21.85
849.578	-79.19
849.753	17.07
849.929	17.07
850.104	-187.73
850.279	-48.47
850.454	-36.18
850.63	64.17
850.805	-44.37
850.98	0.68
851.155	-19.8
851.33	33.45
851.505	-62.8
851.681	137.9
851.856	-13.65
852.031	-13.65
852.206	10.92
852.381	-114
852.556	8.87
852.731	39.59
852.906	51.88
853.081	-48.47
853.256	45.74
853.431	-36.18
853.606	-52.56
853.781	-73.04
853.956	-23.89
854.131	45.74
854.305	-81.24
854.48	-3.41
854.655	-27.99
854.83	-62.8
855.005	8.87
855.18	2.73
855.354	45.74
855.529	-52.56
855.704	-79.19
855.879	-30.04
856.053	-79.19
856.228	29.35
856.403	-79.19
856.577	29.35
856.752	-124.24
856.926	-3.41
857.101	-48.47
857.276	-27.99
857.45	-17.75
857.625	-13.65
857.799	-42.32
857.974	-34.13
858.148	-52.56
858.323	-25.94
858.497	-48.47
858.672	-46.42
858.846	-118.1
859.02	-68.95
859.195	-34.13
859.369	-83.28
859.543	-46.42
859.718	-38.23
859.892	4.78
860.066	-48.47
860.241	-32.08
860.415	-9.56
860.589	-32.08
860.763	0.68
860.938	-62.8
861.112	19.11
861.286	23.21
861.46	49.83
861.634	17.07
861.808	94.89
861.982	-85.33
862.157	-105.81
862.331	-71
862.505	-58.71
862.679	-140.63
862.853	-3.41
863.027	-3.41
863.201	68.27
863.375	-136.53
863.549	82.6
863.722	21.16
863.896	17.07
864.07	-11.61
864.244	-66.9
864.418	109.22
864.592	0.68
864.766	4.78
864.939	-40.28
865.113	-48.47
865.287	62.12
865.461	-46.42
865.634	-21.85
865.808	-21.85
865.982	-142.68
866.156	-93.52
866.329	-58.71
866.503	-64.85
866.676	-60.76
866.85	68.27
867.024	-73.04
867.197	8.87
867.371	74.41
867.544	-15.7
867.718	-83.28
867.891	49.83
868.065	-97.62
868.238	23.21
868.412	21.16
868.585	-5.46
868.759	-71
868.932	-81.24
869.105	-68.95
869.279	-5.46
869.452	-68.95
869.625	84.65
869.799	37.55
869.972	-34.13
870.145	-73.04
870.319	-9.56
870.492	4.78
870.665	-62.8
870.838	-25.94
871.011	-197.97
871.185	6.83
871.358	-15.7
871.531	51.88
871.704	-48.47
871.877	98.99
872.05	-32.08
872.223	-77.14
872.396	62.12
872.569	-9.56
872.742	-99.67
872.915	8.87
873.088	-42.32
873.261	-23.89
873.434	10.92
873.607	-107.86
873.78	82.6
873.953	-132.44
874.126	21.16
874.299	-42.32
874.471	-93.52
874.644	-52.56
874.817	86.7
874.99	156.33
875.163	-52.56
875.335	-34.13
875.508	10.92
875.681	178.86
875.853	8.87
876.026	-83.28
876.199	37.55
876.371	-19.8
876.544	-122.2
876.717	19.11
876.889	12.97
877.062	-7.51
877.234	-128.34
877.407	-71
877.579	-52.56
877.752	4.78
877.924	-23.89
878.097	31.4
878.269	58.03
878.442	-1.37
878.614	146.09
878.786	58.03
878.959	-13.65
879.131	74.41
879.303	-130.39
879.476	-36.18
879.648	27.31
879.82	10.92
879.993	-73.04
880.165	-11.61
880.337	-118.1
880.509	-30.04
880.681	-87.38
880.854	-87.38
881.026	88.75
881.198	115.37
881.37	19.11
881.542	0.68
881.714	-46.42
881.886	2.73
882.058	4.78
882.23	-50.52
882.402	74.41
882.574	10.92
882.746	53.93
882.918	80.55
883.09	43.69
883.262	-38.23
883.434	45.74
883.606	-116.05
883.778	29.35
883.95	123.56
884.122	-66.9
884.293	33.45
884.465	-38.23
884.637	58.03
884.809	-52.56
884.98	-19.8
885.152	12.97
885.324	21.16
885.496	-89.43
885.667	-38.23
885.839	-83.28
886.011	131.75
886.182	53.93
886.354	29.35
886.525	-7.51
886.697	0.68
886.869	-81.24
887.04	-46.42
887.212	109.22
887.383	70.31
887.555	74.41
887.726	27.31
887.897	-50.52
888.069	-52.56
888.24	43.69
888.412	2.73
888.583	8.87
888.754	-13.65
888.926	-77.14
889.097	-36.18
889.268	-116.05
889.44	17.07
889.611	-109.91
889.782	-58.71
889.953	-89.43
890.125	8.87
890.296	-120.15
890.467	-38.23
890.638	-60.76
890.809	-17.75
890.98	4.78
891.151	-62.8
891.323	-19.8
891.494	6.83
891.665	-71
891.836	-27.99
892.007	10.92
892.178	15.02
892.349	17.07
892.52	-54.61
892.691	-54.61
892.862	-40.28
893.032	-77.14
893.203	-17.75
893.374	-71
893.545	101.03
893.716	-97.62
893.887	80.55
894.057	-25.94
894.228	-38.23
894.399	-75.09
894.57	92.84
894.74	-9.56
894.911	-13.65
895.082	4.78
895.253	-97.62
895.423	70.31
895.594	90.79
895.764	33.45
895.935	-81.24
896.106	33.45
896.276	-66.9
896.447	-58.71
896.617	-73.04
896.788	-138.58
896.958	-19.8
897.129	-30.04
897.299	-52.56
897.47	96.94
897.64	19.11
897.81	-36.18
897.981	-17.75
898.151	-73.04
898.322	-21.85
898.492	-1.37
898.662	-40.28
898.832	-46.42
899.003	-87.38
899.173	-21.85
899.343	-142.68
899.513	-126.29
