Data from USB4F104151__12__10-23-08-449.txt Node

Date: Wed Feb 26 10:23:08 EST 2025
User: louis
Spectrometer: USB4F10415
Trigger mode: 4
Integration Time (sec): 1.000000E-1
Scans to average: 1
Electric dark correction enabled: true
Nonlinearity correction enabled: false
Boxcar width: 0
XAxis mode: Wavelengths
Number of Pixels in Spectrum: 3648
>>>>>Begin Spectral Data<<<<<
178.204	-383.99
178.424	-383.99
178.644	-383.99
178.864	-377.85
179.084	-359.42
179.304	11.26
179.524	39.94
179.744	1.02
179.964	76.8
180.184	15.36
180.404	60.42
180.624	-74.75
180.844	3.07
181.064	-78.85
181.283	-39.94
181.503	-41.98
181.723	27.65
181.943	-142.33
182.163	152.57
182.383	39.94
182.602	-1.02
182.822	66.56
183.042	37.89
183.262	-29.7
183.482	13.31
183.701	-9.22
183.921	64.51
184.141	-117.76
184.361	72.7
184.58	95.23
184.8	115.71
185.02	44.03
185.239	109.57
185.459	25.6
185.679	132.09
185.898	-52.22
186.118	70.65
186.338	74.75
186.557	87.04
186.777	-107.52
186.997	-11.26
187.216	35.84
187.436	205.82
187.655	70.65
187.875	121.85
188.095	-41.98
188.314	214.01
188.534	199.68
188.753	17.41
188.973	93.18
189.192	209.92
189.412	93.18
189.631	-9.22
189.851	84.99
190.07	132.09
190.29	-48.13
190.509	46.08
190.729	54.27
190.948	181.25
191.168	234.49
191.387	130.05
191.607	31.74
191.826	50.18
192.045	68.61
192.265	9.22
192.484	125.95
192.704	23.55
192.923	-97.28
193.142	222.2
193.362	142.33
193.581	134.14
193.8	91.13
194.02	177.15
194.239	-80.89
194.458	125.95
194.678	27.65
194.897	50.18
195.116	37.89
195.335	21.5
195.555	66.56
195.774	44.03
195.993	80.89
196.212	-9.22
196.432	-101.37
196.651	-27.65
196.87	87.04
197.089	238.59
197.308	11.26
197.528	119.81
197.747	9.22
197.966	89.09
198.185	150.53
198.404	-7.17
198.623	156.67
198.842	152.57
199.062	113.66
199.281	66.56
199.5	-1.02
199.719	105.47
199.938	7.17
200.157	-9.22
200.376	97.28
200.595	152.57
200.814	78.85
201.033	-44.03
201.252	177.15
201.471	84.99
201.69	27.65
201.909	-31.74
202.128	156.67
202.347	87.04
202.566	-3.07
202.785	-54.27
203.004	-44.03
203.223	261.12
203.442	41.98
203.661	-91.13
203.879	74.75
204.098	103.42
204.317	109.57
204.536	66.56
204.755	25.6
204.974	89.09
205.193	1.02
205.411	82.94
205.63	93.18
205.849	119.81
206.068	-27.65
206.287	27.65
206.505	115.71
206.724	72.7
206.943	9.22
207.162	54.27
207.381	80.89
207.599	5.12
207.818	62.46
208.037	29.7
208.255	7.17
208.474	50.18
208.693	130.05
208.911	93.18
209.13	128
209.349	160.77
209.567	50.18
209.786	78.85
210.005	101.37
210.223	37.89
210.442	-7.17
210.661	82.94
210.879	177.15
211.098	72.7
211.316	-11.26
211.535	44.03
211.753	19.46
211.972	41.98
212.191	48.13
212.409	60.42
212.628	140.29
212.846	1.02
213.065	56.32
213.283	109.57
213.502	60.42
213.72	84.99
213.938	-35.84
214.157	21.5
214.375	58.37
214.594	-21.5
214.812	62.46
215.031	58.37
215.249	-9.22
215.467	89.09
215.686	-48.13
215.904	64.51
216.122	48.13
216.341	95.23
216.559	17.41
216.778	138.24
216.996	113.66
217.214	41.98
217.432	5.12
217.651	-150.53
217.869	1.02
218.087	52.22
218.306	68.61
218.524	39.94
218.742	50.18
218.96	109.57
219.179	-27.65
219.397	23.55
219.615	234.49
219.833	166.91
220.051	-1.02
220.27	128
220.488	177.15
220.706	56.32
220.924	29.7
221.142	-84.99
221.36	107.52
221.578	117.76
221.796	25.6
222.015	76.8
222.233	99.33
222.451	134.14
222.669	-39.94
222.887	109.57
223.105	15.36
223.323	-21.5
223.541	-111.61
223.759	52.22
223.977	80.89
224.195	142.33
224.413	58.37
224.631	11.26
224.849	-5.12
225.067	238.59
225.285	-29.7
225.503	17.41
225.721	-80.89
225.939	60.42
226.157	21.5
226.375	195.58
226.592	7.17
226.81	111.61
227.028	76.8
227.246	187.39
227.464	107.52
227.682	134.14
227.9	31.74
228.117	25.6
228.335	54.27
228.553	48.13
228.771	15.36
228.989	91.13
229.206	41.98
229.424	33.79
229.642	-21.5
229.86	-144.38
230.077	62.46
230.295	95.23
230.513	125.95
230.731	-17.41
230.948	103.42
231.166	177.15
231.384	117.76
231.601	39.94
231.819	164.86
232.037	44.03
232.254	-17.41
232.472	21.5
232.689	-17.41
232.907	152.57
233.125	44.03
233.342	-91.13
233.56	-29.7
233.777	-44.03
233.995	11.26
234.213	130.05
234.43	82.94
234.648	54.27
234.865	-29.7
235.083	105.47
235.3	76.8
235.518	62.46
235.735	152.57
235.953	66.56
236.17	56.32
236.388	60.42
236.605	23.55
236.822	80.89
237.04	164.86
237.257	70.65
237.475	-21.5
237.692	76.8
237.909	60.42
238.127	48.13
238.344	27.65
238.562	80.89
238.779	-56.32
238.996	-62.46
239.214	7.17
239.431	68.61
239.648	-3.07
239.865	146.43
240.083	89.09
240.3	9.22
240.517	1.02
240.735	101.37
240.952	60.42
241.169	21.5
241.386	109.57
241.603	27.65
241.821	-35.84
242.038	70.65
242.255	105.47
242.472	-11.26
242.689	11.26
242.907	171.01
243.124	105.47
243.341	44.03
243.558	-15.36
243.775	1.02
243.992	15.36
244.209	68.61
244.426	211.96
244.643	48.13
244.86	35.84
245.078	64.51
245.295	74.75
245.512	1.02
245.729	-3.07
245.946	103.42
246.163	72.7
246.38	-80.89
246.597	33.79
246.814	60.42
247.031	15.36
247.248	31.74
247.464	66.56
247.681	-9.22
247.898	56.32
248.115	70.65
248.332	-39.94
248.549	109.57
248.766	177.15
248.983	-3.07
249.2	109.57
249.417	113.66
249.633	13.31
249.85	84.99
250.067	1.02
250.284	95.23
250.501	5.12
250.717	23.55
250.934	15.36
251.151	48.13
251.368	97.28
251.585	76.8
251.801	66.56
252.018	21.5
252.235	160.77
252.451	-72.7
252.668	3.07
252.885	140.29
253.102	-3.07
253.318	21.5
253.535	80.89
253.752	-11.26
253.968	-54.27
254.185	-21.5
254.401	66.56
254.618	39.94
254.835	68.61
255.051	144.38
255.268	54.27
255.484	62.46
255.701	3.07
255.917	25.6
256.134	19.46
256.351	-11.26
256.567	-41.98
256.784	44.03
257	-19.46
257.217	23.55
257.433	125.95
257.65	109.57
257.866	136.19
258.082	-66.56
258.299	21.5
258.515	103.42
258.732	-89.09
258.948	27.65
259.165	72.7
259.381	-44.03
259.597	29.7
259.814	91.13
260.03	35.84
260.246	60.42
260.463	78.85
260.679	62.46
260.895	54.27
261.112	33.79
261.328	11.26
261.544	-25.6
261.761	142.33
261.977	-5.12
262.193	-115.71
262.409	150.53
262.626	15.36
262.842	31.74
263.058	13.31
263.274	119.81
263.49	74.75
263.707	54.27
263.923	48.13
264.139	-35.84
264.355	35.84
264.571	27.65
264.787	109.57
265.004	87.04
265.22	5.12
265.436	-7.17
265.652	9.22
265.868	5.12
266.084	15.36
266.3	97.28
266.516	-9.22
266.732	44.03
266.948	15.36
267.164	-1.02
267.38	52.22
267.596	70.65
267.812	177.15
268.028	72.7
268.244	31.74
268.46	9.22
268.676	-5.12
268.892	107.52
269.108	46.08
269.324	-35.84
269.54	-52.22
269.756	101.37
269.972	-37.89
270.188	-11.26
270.403	-13.31
270.619	7.17
270.835	56.32
271.051	93.18
271.267	23.55
271.483	-35.84
271.698	113.66
271.914	5.12
272.13	46.08
272.346	66.56
272.562	142.33
272.777	111.61
272.993	9.22
273.209	11.26
273.425	82.94
273.64	-11.26
273.856	148.48
274.072	9.22
274.287	3.07
274.503	41.98
274.719	76.8
274.934	-9.22
275.15	-37.89
275.366	9.22
275.581	-39.94
275.797	70.65
276.012	-37.89
276.228	-60.42
276.444	56.32
276.659	142.33
276.875	-48.13
277.09	48.13
277.306	-25.6
277.521	134.14
277.737	109.57
277.952	74.75
278.168	-19.46
278.383	84.99
278.599	72.7
278.814	82.94
279.03	35.84
279.245	154.62
279.461	27.65
279.676	164.86
279.892	-27.65
280.107	-35.84
280.322	-33.79
280.538	62.46
280.753	17.41
280.969	74.75
281.184	31.74
281.399	197.63
281.615	17.41
281.83	117.76
282.045	-91.13
282.26	-3.07
282.476	171.01
282.691	56.32
282.906	93.18
283.122	78.85
283.337	-11.26
283.552	68.61
283.767	7.17
283.983	150.53
284.198	-48.13
284.413	95.23
284.628	-80.89
284.843	74.75
285.058	105.47
285.274	-31.74
285.489	-72.7
285.704	128
285.919	-48.13
286.134	13.31
286.349	80.89
286.564	74.75
286.779	119.81
286.995	46.08
287.21	-72.7
287.425	1.02
287.64	46.08
287.855	7.17
288.07	-1.02
288.285	144.38
288.5	132.09
288.715	128
288.93	11.26
289.145	29.7
289.36	125.95
289.575	-68.61
289.79	177.15
290.004	-13.31
290.219	64.51
290.434	-15.36
290.649	-72.7
290.864	50.18
291.079	46.08
291.294	31.74
291.509	15.36
291.724	41.98
291.938	-27.65
292.153	33.79
292.368	3.07
292.583	7.17
292.798	89.09
293.012	66.56
293.227	-21.5
293.442	72.7
293.657	91.13
293.871	50.18
294.086	68.61
294.301	128
294.516	181.25
294.73	54.27
294.945	-56.32
295.16	-31.74
295.374	109.57
295.589	138.24
295.804	-74.75
296.018	19.46
296.233	82.94
296.447	66.56
296.662	74.75
296.877	115.71
297.091	82.94
297.306	62.46
297.52	33.79
297.735	91.13
297.949	62.46
298.164	-11.26
298.378	101.37
298.593	1.02
298.807	-68.61
299.022	-7.17
299.236	15.36
299.451	56.32
299.665	68.61
299.88	-5.12
300.094	50.18
300.309	29.7
300.523	99.33
300.737	21.5
300.952	39.94
301.166	23.55
301.381	-7.17
301.595	31.74
301.809	60.42
302.024	11.26
302.238	-1.02
302.452	66.56
302.667	39.94
302.881	154.62
303.095	72.7
303.309	78.85
303.524	-31.74
303.738	41.98
303.952	31.74
304.166	72.7
304.381	-150.53
304.595	156.67
304.809	44.03
305.023	54.27
305.237	27.65
305.452	-87.04
305.666	56.32
305.88	39.94
306.094	179.2
306.308	152.57
306.522	103.42
306.736	70.65
306.95	121.85
307.164	-5.12
307.379	-17.41
307.593	89.09
307.807	117.76
308.021	39.94
308.235	74.75
308.449	-64.51
308.663	-3.07
308.877	209.92
309.091	56.32
309.305	-7.17
309.519	-76.8
309.733	80.89
309.947	-101.37
310.161	99.33
310.374	93.18
310.588	68.61
310.802	-74.75
311.016	9.22
311.23	123.9
311.444	31.74
311.658	70.65
311.872	148.48
312.085	189.44
312.299	195.58
312.513	99.33
312.727	-13.31
312.941	-25.6
313.154	89.09
313.368	87.04
313.582	-27.65
313.796	62.46
314.009	48.13
314.223	93.18
314.437	25.6
314.651	84.99
314.864	-15.36
315.078	58.37
315.292	-48.13
315.505	-5.12
315.719	91.13
315.933	130.05
316.146	21.5
316.36	-39.94
316.573	72.7
316.787	52.22
317.001	27.65
317.214	52.22
317.428	33.79
317.641	-9.22
317.855	25.6
318.068	35.84
318.282	-1.02
318.495	41.98
318.709	37.89
318.922	17.41
319.136	119.81
319.349	128
319.563	-7.17
319.776	64.51
319.99	-68.61
320.203	115.71
320.417	76.8
320.63	99.33
320.843	228.35
321.057	101.37
321.27	-33.79
321.483	103.42
321.697	95.23
321.91	31.74
322.124	39.94
322.337	136.19
322.55	58.37
322.763	82.94
322.977	35.84
323.19	68.61
323.403	91.13
323.617	111.61
323.83	80.89
324.043	62.46
324.256	111.61
324.469	-5.12
324.683	152.57
324.896	84.99
325.109	-11.26
325.322	13.31
325.535	52.22
325.748	54.27
325.962	54.27
326.175	50.18
326.388	27.65
326.601	103.42
326.814	66.56
327.027	33.79
327.24	128
327.453	-111.61
327.666	44.03
327.879	130.05
328.092	128
328.305	50.18
328.518	-7.17
328.731	48.13
328.944	68.61
329.157	1.02
329.37	7.17
329.583	162.81
329.796	117.76
330.009	-115.71
330.222	46.08
330.435	117.76
330.648	58.37
330.861	35.84
331.073	113.66
331.286	115.71
331.499	27.65
331.712	1.02
331.925	19.46
332.138	33.79
332.35	121.85
332.563	44.03
332.776	132.09
332.989	-50.18
333.202	-3.07
333.414	41.98
333.627	31.74
333.84	-3.07
334.053	103.42
334.265	39.94
334.478	37.89
334.691	41.98
334.903	23.55
335.116	-54.27
335.329	1.02
335.541	50.18
335.754	121.85
335.966	72.7
336.179	64.51
336.392	95.23
336.604	50.18
336.817	140.29
337.029	58.37
337.242	84.99
337.454	52.22
337.667	-46.08
337.88	164.86
338.092	39.94
338.305	123.9
338.517	33.79
338.729	46.08
338.942	158.72
339.154	-37.89
339.367	-46.08
339.579	99.33
339.792	-50.18
340.004	130.05
340.217	54.27
340.429	46.08
340.641	-37.89
340.854	-41.98
341.066	-11.26
341.278	181.25
341.491	138.24
341.703	17.41
341.915	-15.36
342.128	117.76
342.34	101.37
342.552	-54.27
342.764	31.74
342.977	-44.03
343.189	101.37
343.401	78.85
343.613	-44.03
343.826	91.13
344.038	-56.32
344.25	132.09
344.462	27.65
344.674	19.46
344.886	33.79
345.099	72.7
345.311	93.18
345.523	70.65
345.735	-27.65
345.947	-31.74
346.159	113.66
346.371	113.66
346.583	-33.79
346.795	185.34
347.007	-1.02
347.219	74.75
347.431	62.46
347.643	197.63
347.855	56.32
348.067	87.04
348.279	-9.22
348.491	78.85
348.703	52.22
348.915	-33.79
349.127	-15.36
349.339	56.32
349.551	50.18
349.763	144.38
349.975	37.89
350.187	117.76
350.399	207.87
350.61	56.32
350.822	-50.18
351.034	52.22
351.246	35.84
351.458	60.42
351.669	50.18
351.881	144.38
352.093	84.99
352.305	152.57
352.517	95.23
352.728	146.43
352.94	37.89
353.152	119.81
353.363	-46.08
353.575	89.09
353.787	142.33
353.999	99.33
354.21	128
354.422	48.13
354.633	1.02
354.845	52.22
355.057	125.95
355.268	13.31
355.48	125.95
355.692	-15.36
355.903	-35.84
356.115	-23.55
356.326	-1.02
356.538	138.24
356.749	66.56
356.961	125.95
357.172	41.98
357.384	-27.65
357.595	283.64
357.807	-19.46
358.018	-52.22
358.23	93.18
358.441	183.29
358.653	11.26
358.864	76.8
359.075	7.17
359.287	68.61
359.498	87.04
359.709	62.46
359.921	17.41
360.132	29.7
360.344	27.65
360.555	9.22
360.766	21.5
360.977	5.12
361.189	125.95
361.4	5.12
361.611	50.18
361.823	44.03
362.034	35.84
362.245	-52.22
362.456	87.04
362.667	62.46
362.879	48.13
363.09	46.08
363.301	105.47
363.512	48.13
363.723	15.36
363.935	15.36
364.146	105.47
364.357	54.27
364.568	60.42
364.779	-41.98
364.99	84.99
365.201	-1.02
365.412	101.37
365.623	-60.42
365.834	31.74
366.045	-11.26
366.256	35.84
366.467	158.72
366.678	-82.94
366.889	15.36
367.1	-64.51
367.311	93.18
367.522	39.94
367.733	113.66
367.944	74.75
368.155	-39.94
368.366	74.75
368.577	117.76
368.788	82.94
368.999	-91.13
369.209	218.11
369.42	191.49
369.631	181.25
369.842	115.71
370.053	21.5
370.264	66.56
370.474	-76.8
370.685	7.17
370.896	19.46
371.107	146.43
371.317	113.66
371.528	25.6
371.739	195.58
371.95	46.08
372.16	41.98
372.371	-103.42
372.582	35.84
372.792	60.42
373.003	9.22
373.214	37.89
373.424	56.32
373.635	-9.22
373.846	123.9
374.056	142.33
374.267	64.51
374.477	46.08
374.688	-23.55
374.898	48.13
375.109	70.65
375.319	72.7
375.53	125.95
375.74	97.28
375.951	31.74
376.161	128
376.372	109.57
376.582	31.74
376.793	17.41
377.003	-29.7
377.214	-62.46
377.424	119.81
377.635	82.94
377.845	-5.12
378.055	68.61
378.266	-39.94
378.476	21.5
378.686	66.56
378.897	56.32
379.107	64.51
379.317	44.03
379.528	21.5
379.738	128
379.948	-52.22
380.158	74.75
380.369	23.55
380.579	78.85
380.789	-15.36
380.999	58.37
381.21	87.04
381.42	117.76
381.63	-5.12
381.84	162.81
382.05	11.26
382.261	78.85
382.471	152.57
382.681	44.03
382.891	166.91
383.101	37.89
383.311	-82.94
383.521	54.27
383.731	78.85
383.941	171.01
384.151	70.65
384.361	-9.22
384.571	17.41
384.781	66.56
384.991	128
385.201	91.13
385.411	103.42
385.621	105.47
385.831	109.57
386.041	95.23
386.251	7.17
386.461	154.62
386.671	35.84
386.881	99.33
387.091	13.31
387.301	148.48
387.511	-17.41
387.72	48.13
387.93	101.37
388.14	-74.75
388.35	64.51
388.56	162.81
388.769	117.76
388.979	39.94
389.189	9.22
389.399	68.61
389.609	103.42
389.818	62.46
390.028	25.6
390.238	115.71
390.447	-11.26
390.657	5.12
390.867	-1.02
391.076	-23.55
391.286	5.12
391.496	-9.22
391.705	46.08
391.915	173.05
392.125	74.75
392.334	89.09
392.544	205.82
392.753	-1.02
392.963	-15.36
393.172	23.55
393.382	9.22
393.591	189.44
393.801	95.23
394.01	130.05
394.22	142.33
394.429	62.46
394.639	66.56
394.848	46.08
395.058	58.37
395.267	15.36
395.477	84.99
395.686	97.28
395.895	254.97
396.105	199.68
396.314	115.71
396.524	-7.17
396.733	64.51
396.942	66.56
397.152	33.79
397.361	103.42
397.57	50.18
397.78	46.08
397.989	78.85
398.198	226.3
398.407	37.89
398.617	25.6
398.826	62.46
399.035	9.22
399.244	134.14
399.453	19.46
399.663	19.46
399.872	15.36
400.081	-35.84
400.29	62.46
400.499	17.41
400.708	123.9
400.917	52.22
401.127	-41.98
401.336	3.07
401.545	185.34
401.754	54.27
401.963	76.8
402.172	19.46
402.381	-64.51
402.59	33.79
402.799	39.94
403.008	150.53
403.217	-23.55
403.426	74.75
403.635	-68.61
403.844	15.36
404.053	93.18
404.262	-9.22
404.471	250.88
404.68	56.32
404.888	-25.6
405.097	25.6
405.306	-15.36
405.515	119.81
405.724	11.26
405.933	74.75
406.142	119.81
406.35	76.8
406.559	-11.26
406.768	105.47
406.977	72.7
407.185	105.47
407.394	23.55
407.603	-27.65
407.812	111.61
408.02	103.42
408.229	66.56
408.438	109.57
408.646	17.41
408.855	-9.22
409.064	58.37
409.272	72.7
409.481	103.42
409.69	-62.46
409.898	-72.7
410.107	89.09
410.315	156.67
410.524	25.6
410.733	-50.18
410.941	101.37
411.15	70.65
411.358	138.24
411.567	191.49
411.775	68.61
411.984	41.98
412.192	158.72
412.401	19.46
412.609	193.53
412.818	70.65
413.026	74.75
413.234	46.08
413.443	11.26
413.651	-7.17
413.86	91.13
414.068	187.39
414.276	158.72
414.485	64.51
414.693	177.15
414.901	166.91
415.11	101.37
415.318	80.89
415.526	5.12
415.734	105.47
415.943	7.17
416.151	39.94
416.359	35.84
416.567	95.23
416.776	41.98
416.984	150.53
417.192	164.86
417.4	19.46
417.608	39.94
417.817	13.31
418.025	119.81
418.233	146.43
418.441	-56.32
418.649	17.41
418.857	64.51
419.065	107.52
419.273	-5.12
419.481	-15.36
419.689	-5.12
419.897	-44.03
420.105	-95.23
420.313	37.89
420.521	168.96
420.729	144.38
420.937	78.85
421.145	37.89
421.353	154.62
421.561	150.53
421.769	109.57
421.977	31.74
422.185	191.49
422.393	33.79
422.601	144.38
422.809	113.66
423.017	-1.02
423.224	74.75
423.432	168.96
423.64	87.04
423.848	115.71
424.056	-76.8
424.263	179.2
424.471	-1.02
424.679	95.23
424.887	27.65
425.094	160.77
425.302	84.99
425.51	-9.22
425.718	162.81
425.925	37.89
426.133	68.61
426.341	289.79
426.548	89.09
426.756	15.36
426.964	140.29
427.171	35.84
427.379	54.27
427.586	95.23
427.794	93.18
428.001	263.16
428.209	146.43
428.417	199.68
428.624	142.33
428.832	154.62
429.039	113.66
429.247	62.46
429.454	148.48
429.662	164.86
429.869	132.09
430.076	150.53
430.284	105.47
430.491	154.62
430.699	168.96
430.906	171.01
431.114	140.29
431.321	132.09
431.528	93.18
431.736	101.37
431.943	158.72
432.15	132.09
432.358	64.51
432.565	242.68
432.772	7.17
432.979	220.16
433.187	152.57
433.394	261.12
433.601	54.27
433.808	146.43
434.016	177.15
434.223	236.54
434.43	220.16
434.637	242.68
434.844	203.77
435.052	171.01
435.259	238.59
435.466	281.6
435.673	234.49
435.88	242.68
436.087	285.69
436.294	334.84
436.501	252.92
436.708	252.92
436.915	302.08
437.122	404.47
437.329	300.03
437.537	279.55
437.743	310.27
437.95	386.04
438.157	291.84
438.364	312.32
438.571	351.23
438.778	351.23
438.985	351.23
439.192	463.86
439.399	392.19
439.606	445.43
439.813	541.69
440.02	656.37
440.227	531.45
440.433	611.32
440.64	519.16
440.847	467.96
441.054	470.01
441.261	687.09
441.467	521.21
441.674	560.12
441.881	627.7
442.088	662.52
442.294	629.75
442.501	654.33
442.708	748.53
442.914	721.91
443.121	867.31
443.328	766.96
443.534	908.27
443.741	805.88
443.948	844.79
444.154	834.55
444.361	1072.11
444.568	945.14
444.774	1031.15
444.981	867.31
445.187	1168.37
445.394	1041.39
445.6	998.38
445.807	1283.05
446.013	1276.91
446.22	1135.6
446.426	1238
446.633	1508.33
446.839	1496.04
447.046	1385.45
447.252	1518.57
447.459	1450.99
447.665	1453.03
447.871	1723.37
448.078	1793
448.284	1725.41
448.491	1879.01
448.697	1926.11
448.903	2014.18
449.11	2012.13
449.316	1872.87
449.522	2104.29
449.728	2348
449.935	2311.13
450.141	2296.8
450.347	2642.9
450.553	2542.55
450.76	2487.26
450.966	2776.02
451.172	2808.79
451.378	2868.18
451.584	2976.72
451.791	3126.22
451.997	3167.18
452.203	3245.01
452.409	3527.63
452.615	3615.69
452.821	3511.24
453.027	3501
453.233	4047.81
453.44	3855.3
453.646	4107.2
453.852	4279.23
454.058	4373.44
454.264	4561.85
454.47	4735.93
454.676	4780.98
454.882	5202.86
455.088	5049.27
455.294	5223.34
455.5	5520.3
455.705	5882.79
455.911	6001.57
456.117	6089.64
456.323	6431.65
456.529	6292.38
456.735	6978.45
456.941	7220.11
457.147	7318.42
457.352	7558.03
457.558	7807.88
457.764	8299.39
457.97	8409.98
458.176	8862.58
458.381	9266.03
458.587	9417.58
458.793	9872.23
458.999	10154.85
459.204	11234.13
459.41	11469.65
459.616	11553.62
459.821	11959.11
460.027	12430.15
460.233	13087.54
460.438	13232.95
460.644	13939.5
460.85	14111.53
461.055	14687.01
461.261	15487.76
461.466	14891.8
461.672	15328.02
461.878	16886.53
462.083	16935.68
462.289	17277.69
462.494	17867.5
462.7	18211.56
462.905	18455.27
463.111	19682
463.316	21125.82
463.522	21048
463.727	21590.71
463.932	22471.34
464.138	23435.93
464.343	24642.18
464.549	24488.59
464.754	26376.81
464.959	26944.1
465.165	27261.54
465.37	27343.45
465.575	27234.91
465.781	29299.26
465.986	30030.39
466.191	29663.8
466.397	29874.74
466.602	29303.36
466.807	30859.82
467.012	31408.67
467.218	31935
467.423	31803.93
467.628	32877.07
467.833	34765.29
468.038	33708.54
468.244	33198.6
468.449	35039.72
468.654	34116.09
468.859	34163.19
469.064	34544.11
469.269	33538.56
469.474	33825.28
469.679	34583.02
469.885	33718.78
470.09	34361.84
470.295	34578.93
470.5	33718.78
470.705	33978.87
470.91	33061.38
471.115	32799.24
471.32	33071.62
471.525	32885.26
471.73	32311.83
471.935	31769.12
472.139	30435.89
472.344	30861.87
472.549	30757.42
472.754	30020.15
472.959	29567.55
473.164	28125.78
473.369	28031.57
473.574	29041.22
473.778	28193.36
473.983	27789.91
474.188	27275.87
474.393	25995.89
474.598	26061.43
474.802	25301.63
475.007	24990.34
475.212	24707.72
475.417	23849.62
475.621	23693.97
475.826	23034.53
476.031	22868.64
476.235	22241.96
476.44	22190.77
476.645	21719.73
476.849	21117.63
477.054	21236.41
477.259	20693.7
477.463	20638.41
477.668	20089.55
477.872	19786.45
478.077	19550.93
478.282	18969.31
478.486	18815.71
478.691	18766.56
478.895	18182.89
479.1	18324.2
479.304	18000.62
479.509	17615.6
479.713	17828.59
479.918	17324.79
480.122	17042.17
480.326	16966.4
480.531	17099.52
480.735	16853.76
480.94	16536.32
481.144	17015.55
481.348	16075.53
481.553	16173.83
481.757	15821.58
481.961	15954.7
482.166	15964.94
482.37	16020.24
482.574	15452.95
482.778	15592.21
482.983	15827.73
483.187	15125.27
483.391	15385.37
483.595	14863.13
483.8	14930.72
484.004	14740.26
484.208	14777.12
484.412	14623.52
484.616	14326.57
484.821	14494.5
485.025	13611.82
485.229	13929.26
485.433	13654.83
485.637	13603.63
485.841	13290.29
486.045	13304.63
486.249	13081.4
486.453	13036.35
486.657	12821.31
486.861	12622.66
487.065	12149.57
487.269	12182.34
487.473	11692.88
487.677	12096.33
487.881	11864.91
488.085	11451.22
488.289	11410.26
488.493	11160.41
488.697	11060.06
488.901	10767.2
489.105	10634.08
489.309	10398.56
489.512	10445.66
489.716	10070.89
489.92	9818.99
490.124	9669.48
490.328	9702.25
490.531	9227.12
490.735	9192.31
490.939	9042.81
491.143	8848.25
491.346	8567.68
491.55	8850.3
491.754	8561.53
491.958	8059.78
492.161	8149.89
492.365	8194.95
492.569	7805.83
492.772	7918.47
492.976	7885.7
493.18	7623.56
493.383	7627.66
493.587	7658.38
493.79	7539.6
493.994	7285.65
494.197	7177.11
494.401	7160.72
494.605	6914.97
494.808	6984.6
495.012	7005.08
495.215	6828.95
495.419	7146.39
495.622	6708.12
495.825	6622.11
496.029	6505.37
496.232	6730.65
496.436	6656.92
496.639	6685.59
496.843	6577.05
497.046	6695.83
497.249	6509.47
497.453	6634.39
497.656	6456.22
497.859	6349.73
498.063	6589.34
498.266	6751.13
498.469	6476.7
498.673	6470.56
498.876	6546.33
499.079	6476.7
499.282	6589.34
499.485	6822.81
499.689	6687.64
499.892	6718.36
500.095	6806.42
500.298	6962.07
500.501	6806.42
500.705	7031.7
500.908	6925.21
501.111	7033.75
501.314	7033.75
501.517	7250.83
501.72	7375.76
501.923	7365.52
502.126	7170.96
502.329	7668.62
502.532	7639.95
502.735	7523.21
502.938	7705.48
503.141	7670.67
503.344	7875.46
503.547	7859.08
503.75	7793.55
503.953	8012.68
504.156	8242.05
504.359	8287.11
504.562	8297.35
504.765	8508.29
504.968	8770.43
505.17	8772.47
505.373	8743.8
505.576	9198.45
505.779	9378.67
505.982	9382.77
506.185	9524.08
506.387	9917.29
506.59	9829.23
506.793	9999.21
506.996	10091.37
507.198	10562.4
507.401	10681.18
507.604	10734.43
507.807	10832.73
508.009	11043.67
508.212	11350.87
508.415	11582.29
508.617	11770.7
508.82	11830.09
509.022	12159.81
509.225	12329.8
509.428	12831.55
509.63	12749.63
509.833	13161.27
510.035	13552.43
510.238	13613.87
510.44	13749.04
510.643	14132.01
510.845	14517.03
511.048	14922.52
511.25	15151.9
511.453	15332.12
511.655	16265.99
511.858	16282.38
512.06	16462.6
512.262	16915.2
512.465	16921.34
512.667	17638.13
512.87	17869.55
513.072	17984.24
513.274	18719.46
513.477	19215.07
513.679	19528.41
513.881	20183.76
514.084	20439.75
514.286	20814.53
514.488	21170.88
514.69	21883.57
514.893	22055.6
515.095	22434.47
515.297	23190.17
515.499	23456.41
515.701	23900.82
515.904	24308.37
516.106	24951.43
516.308	25354.88
516.51	25854.58
516.712	26030.71
516.914	27075.17
517.116	27185.76
517.318	27843.16
517.52	28271.18
517.722	28658.25
517.925	29350.46
518.127	29999.67
518.329	30732.84
518.531	30599.73
518.733	31541.79
518.935	32113.17
519.136	32258.58
519.338	32651.79
519.54	33266.18
519.742	33792.51
519.944	34189.81
520.146	34927.08
520.348	34998.76
520.55	35586.53
520.752	35971.55
520.954	36614.61
521.155	36467.16
521.357	37183.94
521.559	37415.37
521.761	38285.75
521.963	38351.29
522.164	38578.61
522.366	38740.4
522.568	39391.65
522.77	39389.61
522.971	40126.88
523.173	39766.43
523.375	40112.54
523.576	40216.99
523.778	40319.38
523.98	41120.14
524.181	41333.13
524.383	41263.5
524.584	41548.17
524.786	41355.66
524.988	41228.68
525.189	41453.96
525.391	41791.87
525.592	41849.22
525.794	41826.69
525.995	41812.35
526.197	41605.51
526.398	41621.89
526.6	41490.82
526.801	41501.06
527.003	41277.83
527.204	41146.76
527.406	41636.23
527.607	40876.43
527.808	40767.89
528.01	39760.29
528.211	40194.46
528.412	40266.14
528.614	40063.39
528.815	39504.29
529.016	39238.06
529.218	38881.71
529.419	38457.78
529.62	38320.57
529.822	38355.38
530.023	37452.23
530.224	37196.23
530.425	36917.71
530.626	36323.8
530.828	35959.26
531.029	36225.5
531.23	35195.37
531.431	34845.16
531.632	34984.43
531.833	34320.88
532.035	33976.83
532.236	33798.65
532.437	33141.25
532.638	32727.56
532.839	32420.37
533.04	32291.35
533.241	31322.66
533.442	31584.8
533.643	30732.84
533.844	30233.14
534.045	29766.2
534.246	29170.24
534.447	29418.05
534.648	28770.89
534.849	28312.14
535.05	27822.68
535.251	27769.43
535.451	27345.5
535.652	26993.25
535.853	26342
536.054	26040.95
536.255	25664.12
536.456	25473.66
536.657	25279.1
536.857	24742.53
537.058	24421
537.259	24273.55
537.46	23786.13
537.66	23669.4
537.861	23079.58
538.062	22768.29
538.263	22588.07
538.463	22131.37
538.664	21945.01
538.865	21494.46
539.065	21813.94
539.266	20921.02
539.466	20970.18
539.667	20599.49
539.868	20650.69
540.068	20400.84
540.269	19851.99
540.469	19739.35
540.67	19692.24
540.87	19321.56
541.071	19049.18
541.271	18760.42
541.472	18770.66
541.672	18170.6
541.873	18084.59
542.073	17818.35
542.274	17924.85
542.474	17457.91
542.675	17195.77
542.875	17021.69
543.075	17021.69
543.276	16757.5
543.476	16818.94
543.676	16481.03
543.877	16261.9
544.077	15991.56
544.277	15880.97
544.478	15512.34
544.678	15532.82
544.878	15502.1
545.078	15205.14
545.279	14988.06
545.479	14449.44
545.679	14584.61
545.879	14482.21
546.079	14435.11
546.28	14209.83
546.48	13708.08
546.68	13882.16
546.88	13464.37
547.08	13503.28
547.28	13462.32
547.48	13005.63
547.68	12757.82
547.88	13009.72
548.081	12796.73
548.281	12567.36
548.481	12385.09
548.681	12213.06
548.881	12254.02
549.081	11885.39
549.28	11725.65
549.48	11543.38
549.68	11469.65
549.88	11361.11
550.08	11037.53
550.28	10912.6
550.48	10994.52
550.68	10787.68
550.88	10611.55
551.08	10296.16
551.279	10290.02
551.479	10167.14
551.679	10177.38
551.879	9585.52
552.079	9737.07
552.278	9309.04
552.478	9673.58
552.678	9247.6
552.878	9208.69
553.077	8915.83
553.277	8766.33
553.477	8721.27
553.676	8674.17
553.876	8670.08
554.076	8385.41
554.275	8350.59
554.475	8008.58
554.674	8158.08
554.874	7809.93
555.074	7508.88
555.273	7400.34
555.473	7596.94
555.672	7259.03
555.872	7007.13
556.071	7250.83
556.271	7103.38
556.47	6878.1
556.67	6902.68
556.869	6767.51
557.068	6570.91
557.268	6339.49
557.467	6497.18
557.667	6290.34
557.866	6040.48
558.065	5929.89
558.265	5917.61
558.464	5901.22
558.663	5936.04
558.863	5675.95
559.062	5540.78
559.261	5397.42
559.461	5501.87
559.66	5231.54
559.859	5149.62
560.058	5102.51
560.258	4957.11
560.457	4991.92
560.656	5024.69
560.855	4735.93
561.054	4905.91
561.253	4631.48
561.453	4574.14
561.652	4563.9
561.851	4543.42
562.05	4375.49
562.249	4330.43
562.448	4162.5
562.647	4178.88
562.846	4180.93
563.045	4203.46
563.244	4053.95
563.443	3937.22
563.642	3849.16
563.841	3879.88
564.04	3863.49
564.239	3843.01
564.438	3632.07
564.637	3361.74
564.836	3673.03
565.035	3464.14
565.234	3472.33
565.432	3337.17
565.631	3374.03
565.83	3441.61
566.029	3263.44
566.228	3245.01
566.427	3294.16
566.625	3177.42
566.824	3120.08
567.023	3126.22
567.222	2978.77
567.42	3077.07
567.619	2991.06
567.818	2825.17
568.016	3046.35
568.215	2741.21
568.414	2835.41
568.612	2741.21
568.811	2722.77
569.01	2694.1
569.208	2554.84
569.407	2708.44
569.605	2608.09
569.804	2563.03
570.002	2556.89
570.201	2419.68
570.4	2399.2
570.598	2470.87
570.797	2333.66
570.995	2157.54
571.193	2208.73
571.392	2208.73
571.59	2087.9
571.789	2227.17
571.987	2141.15
572.186	2227.17
572.384	2038.75
572.582	2014.18
572.781	2081.76
572.979	1913.83
573.177	1944.55
573.376	1915.87
573.574	1950.69
573.772	1883.11
573.971	1895.4
574.169	1735.65
574.367	1825.76
574.565	1770.47
574.763	1723.37
574.962	1706.98
575.16	1582.06
575.358	1602.54
575.556	1547.24
575.754	1561.58
575.952	1471.47
576.151	1520.62
576.349	1573.86
576.547	1399.79
576.745	1502.19
576.943	1489.9
577.141	1457.13
577.339	1352.68
577.537	1389.55
577.735	1410.03
577.933	1475.56
578.131	1174.51
578.329	1373.16
578.527	1330.16
578.725	1248.24
578.923	1178.61
579.121	1227.76
579.319	1119.21
579.516	1145.84
579.714	1414.12
579.912	1078.26
580.11	1039.34
580.308	1135.6
580.506	1104.88
580.704	1004.53
580.901	977.91
581.099	1203.18
581.297	1078.26
581.495	1037.3
581.692	979.95
581.89	1131.5
582.088	1063.92
582.285	969.71
582.483	918.51
582.681	920.56
582.878	936.95
583.076	922.61
583.274	918.51
583.471	1139.69
583.669	801.78
583.866	773.11
584.064	756.72
584.262	773.11
584.459	807.92
584.657	818.16
584.854	900.08
585.052	814.07
585.249	869.36
585.447	832.5
585.644	646.13
585.841	879.6
586.039	852.98
586.236	812.02
586.434	689.14
586.631	564.22
586.828	633.85
587.026	646.13
587.223	545.78
587.42	693.24
587.618	693.24
587.815	691.19
588.012	652.28
588.21	723.96
588.407	680.95
588.604	693.24
588.801	535.54
588.999	695.29
589.196	644.09
589.393	646.13
589.59	611.32
589.787	578.55
589.984	662.52
590.182	531.45
590.379	488.44
590.576	539.64
590.773	590.84
590.97	572.41
591.167	601.08
591.364	605.17
591.561	584.7
591.758	662.52
591.955	562.17
592.152	617.46
592.349	570.36
592.546	521.21
592.743	533.5
592.94	523.26
593.137	588.79
593.334	689.14
593.531	594.93
593.727	537.59
593.924	566.26
594.121	551.93
594.318	558.07
594.515	678.9
594.712	687.09
594.908	644.09
595.105	533.5
595.302	615.41
595.499	570.36
595.696	695.29
595.892	605.17
596.089	701.43
596.286	572.41
596.482	713.72
596.679	726
596.876	726
597.072	717.81
597.269	601.08
597.466	787.44
597.662	717.81
597.859	793.59
598.055	726
598.252	844.79
598.448	951.28
598.645	889.84
598.841	834.55
599.038	1047.54
599.234	1043.44
599.431	1057.78
599.627	1094.64
599.824	1004.53
600.02	1065.97
600.217	1098.74
600.413	1203.18
600.609	1256.43
600.806	1520.62
601.002	1367.02
601.198	1184.75
601.395	1463.27
601.591	1438.7
601.787	1514.47
601.984	1704.93
602.18	1659.88
602.376	1663.97
602.572	1756.13
602.769	1825.76
602.965	1868.77
603.161	2114.53
603.357	1997.79
603.553	2106.34
603.75	2208.73
603.946	2247.65
604.142	2278.37
604.338	2563.03
604.534	2450.39
604.73	2556.89
604.926	2517.98
605.122	2849.75
605.318	2859.99
605.514	2999.25
605.71	3025.87
605.906	3144.66
606.102	3128.27
606.298	3316.69
606.494	3398.6
606.69	3584.97
606.886	3525.58
607.082	3787.72
607.278	3693.51
607.474	3896.26
607.67	4137.92
607.866	3845.06
608.062	4246.46
608.257	4367.29
608.453	4338.62
608.649	4553.66
608.845	4660.15
609.041	4873.14
609.236	4942.77
609.432	4981.68
609.628	5280.69
609.824	5311.41
610.019	5372.85
610.215	5512.11
610.411	6099.87
610.606	5905.32
610.802	6079.4
610.998	6108.07
611.193	6300.58
611.389	6611.87
611.584	6798.23
611.78	6693.79
611.976	7093.14
612.171	7588.75
612.367	7594.89
612.562	7652.24
612.758	7809.93
612.953	7715.72
613.149	8305.54
613.344	8600.44
613.539	8903.54
613.735	8913.78
613.93	9196.4
614.126	9059.19
614.321	9933.67
614.517	9941.86
614.712	10230.63
614.907	10318.69
615.103	10713.95
615.298	10832.73
615.493	11258.71
615.688	11537.23
615.884	11979.59
616.079	12168.01
616.274	12589.89
616.47	12477.25
616.665	12976.95
616.86	13347.64
617.055	13814.57
617.25	13849.39
617.445	14357.28
617.641	14205.74
617.836	15147.8
618.031	15162.14
618.226	15870.73
618.421	15989.52
618.616	16472.84
618.811	17124.09
619.006	17259.26
619.201	17613.56
619.396	18195.18
619.591	18094.83
619.786	18924.26
619.981	19120.86
620.176	19692.24
620.371	20282.06
620.566	20429.51
620.761	20845.25
620.956	21547.7
621.151	21355.19
621.346	22127.28
621.541	22424.23
621.735	23460.51
621.93	23306.91
622.125	23779.99
622.32	23999.12
622.515	24806.02
622.709	25160.32
622.904	25492.09
623.099	26159.73
623.294	26378.86
623.488	26641
623.683	27478.62
623.878	27646.55
624.072	28625.48
624.267	28852.81
624.462	29030.98
624.656	29409.86
624.851	30161.46
625.046	30390.83
625.24	30712.36
625.435	30970.41
625.629	31961.62
625.824	32000.54
626.018	32631.31
626.213	32541.2
626.407	33268.23
626.602	33618.43
626.796	33774.08
626.991	34468.34
627.185	34666.99
627.38	34828.78
627.574	35072.49
627.768	35084.78
627.963	35281.38
628.157	35238.37
628.352	35903.96
628.546	35373.54
628.74	35879.39
628.935	35690.98
629.129	35903.96
629.323	35426.79
629.517	35633.63
629.712	35291.62
629.906	35262.95
630.1	34537.97
630.294	34580.98
630.489	33804.8
630.683	33817.08
630.877	33305.09
631.071	32436.75
631.265	32350.74
631.459	31779.36
631.653	31267.36
631.848	30689.84
632.042	29887.03
632.236	29395.52
632.43	28416.59
632.624	28009.04
632.818	26940
633.012	25713.27
633.206	25125.5
633.4	24791.69
633.594	23616.15
633.788	23089.82
633.982	22506.15
634.176	21605.05
634.369	20624.07
634.563	19649.24
634.757	19307.23
634.951	18649.83
635.145	17898.22
635.339	17335.03
635.533	16565
635.726	16081.67
635.92	15121.18
636.114	14596.9
636.308	13957.93
636.501	13603.63
636.695	12940.09
636.889	12204.87
637.083	11895.63
637.276	11346.77
637.47	10935.13
637.664	10371.94
637.857	10275.68
638.051	9696.11
638.244	9157.49
638.438	8852.34
638.632	8725.37
638.825	8291.2
639.019	7938.95
639.212	7623.56
639.406	7306.13
639.599	7013.27
639.793	6841.24
639.986	6405.02
640.18	6374.3
640.373	5983.14
640.567	5839.78
640.76	5634.99
640.954	5450.67
641.147	5137.33
641.34	5036.98
641.534	4848.57
641.727	4680.63
641.92	4412.35
642.114	4316.09
642.307	4072.39
642.5	3974.08
642.694	3718.09
642.887	3754.95
643.08	3541.96
643.273	3619.78
643.467	3199.95
643.66	3068.88
643.853	2999.25
644.046	2976.72
644.239	2773.97
644.432	2657.24
644.626	2458.59
644.819	2536.41
645.012	2317.28
645.205	2376.67
645.398	2253.79
645.591	2089.95
645.784	2042.85
645.977	1977.31
646.17	1915.87
646.363	1922.02
646.556	1625.06
646.749	1702.89
646.942	1672.17
647.135	1577.96
647.328	1424.36
647.521	1461.23
647.714	1379.31
647.907	1385.45
648.099	1297.39
648.292	1387.5
648.485	1217.52
648.678	1147.89
648.871	1119.21
649.064	1170.41
649.256	1063.92
649.449	947.19
649.642	818.16
649.835	885.75
650.027	852.98
650.22	951.28
650.413	834.55
650.605	885.75
650.798	717.81
650.991	766.96
651.183	668.66
651.376	754.68
651.568	670.71
651.761	570.36
651.954	685.05
652.146	592.89
652.339	656.37
652.531	603.13
652.724	541.69
652.916	545.78
653.109	422.91
653.301	529.4
653.494	504.82
653.686	441.34
653.879	556.02
654.071	519.16
654.263	500.73
654.456	398.33
654.648	453.63
654.84	459.77
655.033	351.23
655.225	467.96
655.417	295.93
655.61	455.67
655.802	390.14
655.994	453.63
656.186	261.12
656.379	392.19
656.571	312.32
656.763	203.77
656.955	322.56
657.148	277.5
657.34	322.56
657.532	209.92
657.724	265.21
657.916	351.23
658.108	295.93
658.3	230.4
658.492	320.51
658.684	230.4
658.876	254.97
659.068	103.42
659.26	191.49
659.452	201.72
659.644	336.89
659.836	306.17
660.028	226.3
660.22	195.58
660.412	252.92
660.604	218.11
660.796	293.88
660.988	279.55
661.18	179.2
661.372	248.83
661.563	136.19
661.755	177.15
661.947	87.04
662.139	101.37
662.331	230.4
662.522	148.48
662.714	68.61
662.906	123.9
663.097	179.2
663.289	19.46
663.481	33.79
663.673	156.67
663.864	183.29
664.056	232.44
664.247	146.43
664.439	220.16
664.631	183.29
664.822	168.96
665.014	162.81
665.205	121.85
665.397	50.18
665.588	181.25
665.78	130.05
665.971	177.15
666.163	60.42
666.354	222.2
666.546	76.8
666.737	128
666.929	115.71
667.12	80.89
667.311	119.81
667.503	150.53
667.694	140.29
667.885	115.71
668.077	134.14
668.268	37.89
668.459	134.14
668.651	179.2
668.842	123.9
669.033	76.8
669.224	60.42
669.416	154.62
669.607	70.65
669.798	84.99
669.989	209.92
670.18	56.32
670.371	113.66
670.563	-27.65
670.754	230.4
670.945	142.33
671.136	168.96
671.327	87.04
671.518	181.25
671.709	207.87
671.9	171.01
672.091	267.26
672.282	60.42
672.473	103.42
672.664	7.17
672.855	84.99
673.046	150.53
673.237	187.39
673.428	107.52
673.619	123.9
673.809	121.85
674	187.39
674.191	138.24
674.382	46.08
674.573	123.9
674.764	72.7
674.954	228.35
675.145	89.09
675.336	76.8
675.527	148.48
675.717	105.47
675.908	78.85
676.099	50.18
676.289	121.85
676.48	64.51
676.671	136.19
676.861	87.04
677.052	160.77
677.243	136.19
677.433	54.27
677.624	197.63
677.814	218.11
678.005	101.37
678.195	209.92
678.386	134.14
678.576	142.33
678.767	64.51
678.957	107.52
679.148	185.34
679.338	269.31
679.529	224.25
679.719	70.65
679.909	244.73
680.1	166.91
680.29	140.29
680.481	56.32
680.671	199.68
680.861	152.57
681.052	203.77
681.242	68.61
681.432	214.01
681.622	128
681.813	160.77
682.003	136.19
682.193	140.29
682.383	173.05
682.573	179.2
682.764	162.81
682.954	123.9
683.144	177.15
683.334	130.05
683.524	84.99
683.714	257.02
683.904	261.12
684.094	171.01
684.284	199.68
684.474	347.13
684.664	283.64
684.854	179.2
685.044	111.61
685.234	171.01
685.424	199.68
685.614	152.57
685.804	207.87
685.994	211.96
686.184	173.05
686.374	185.34
686.564	50.18
686.753	152.57
686.943	72.7
687.133	148.48
687.323	140.29
687.513	226.3
687.702	97.28
687.892	191.49
688.082	242.68
688.272	218.11
688.461	134.14
688.651	261.12
688.841	220.16
689.03	95.23
689.22	193.53
689.41	252.92
689.599	162.81
689.789	91.13
689.979	173.05
690.168	162.81
690.358	259.07
690.547	160.77
690.737	164.86
690.926	171.01
691.116	214.01
691.305	222.2
691.495	277.5
691.684	89.09
691.874	99.33
692.063	173.05
692.252	240.64
692.442	279.55
692.631	148.48
692.82	82.94
693.01	166.91
693.199	119.81
693.388	130.05
693.578	168.96
693.767	189.44
693.956	173.05
694.146	128
694.335	156.67
694.524	148.48
694.713	197.63
694.902	123.9
695.092	84.99
695.281	195.58
695.47	95.23
695.659	144.38
695.848	168.96
696.037	62.46
696.226	207.87
696.415	207.87
696.604	162.81
696.793	205.82
696.982	105.47
697.171	275.45
697.36	111.61
697.549	148.48
697.738	-50.18
697.927	173.05
698.116	115.71
698.305	207.87
698.494	154.62
698.683	72.7
698.872	279.55
699.061	230.4
699.25	107.52
699.438	152.57
699.627	121.85
699.816	275.45
700.005	58.37
700.193	44.03
700.382	246.78
700.571	156.67
700.76	191.49
700.948	240.64
701.137	191.49
701.326	300.03
701.514	23.55
701.703	168.96
701.892	142.33
702.08	326.65
702.269	203.77
702.457	136.19
702.646	134.14
702.834	148.48
703.023	125.95
703.212	152.57
703.4	128
703.589	78.85
703.777	91.13
703.965	128
704.154	150.53
704.342	95.23
704.531	117.76
704.719	205.82
704.907	177.15
705.096	9.22
705.284	121.85
705.472	222.2
705.661	242.68
705.849	177.15
706.037	275.45
706.226	214.01
706.414	166.91
706.602	148.48
706.79	175.1
706.979	111.61
707.167	193.53
707.355	-17.41
707.543	148.48
707.731	197.63
707.919	171.01
708.107	68.61
708.296	39.94
708.484	54.27
708.672	150.53
708.86	164.86
709.048	177.15
709.236	95.23
709.424	168.96
709.612	269.31
709.8	121.85
709.988	101.37
710.176	244.73
710.364	236.54
710.551	89.09
710.739	136.19
710.927	1.02
711.115	134.14
711.303	236.54
711.491	257.02
711.679	232.44
711.866	248.83
712.054	128
712.242	154.62
712.43	183.29
712.617	66.56
712.805	234.49
712.993	121.85
713.181	105.47
713.368	197.63
713.556	164.86
713.744	7.17
713.931	308.22
714.119	187.39
714.306	152.57
714.494	74.75
714.682	171.01
714.869	111.61
715.057	154.62
715.244	74.75
715.432	138.24
715.619	52.22
715.807	166.91
715.994	148.48
716.182	195.58
716.369	246.78
716.556	222.2
716.744	21.5
716.931	130.05
717.119	166.91
717.306	203.77
717.493	238.59
717.681	52.22
717.868	160.77
718.055	154.62
718.242	111.61
718.43	271.36
718.617	234.49
718.804	128
718.991	277.5
719.179	207.87
719.366	316.41
719.553	230.4
719.74	250.88
719.927	199.68
720.114	160.77
720.301	101.37
720.488	76.8
720.676	21.5
720.863	232.44
721.05	332.79
721.237	179.2
721.424	287.74
721.611	189.44
721.798	117.76
721.985	113.66
722.172	207.87
722.358	216.06
722.545	240.64
722.732	218.11
722.919	285.69
723.106	195.58
723.293	195.58
723.48	261.12
723.667	78.85
723.853	277.5
724.04	281.6
724.227	263.16
724.414	203.77
724.6	224.25
724.787	334.84
724.974	336.89
725.161	125.95
725.347	160.77
725.534	185.34
725.72	254.97
725.907	238.59
726.094	257.02
726.28	99.33
726.467	181.25
726.653	74.75
726.84	236.54
727.027	369.66
727.213	199.68
727.4	257.02
727.586	142.33
727.773	252.92
727.959	203.77
728.145	226.3
728.332	234.49
728.518	195.58
728.705	281.6
728.891	175.1
729.077	289.79
729.264	99.33
729.45	205.82
729.636	265.21
729.823	295.93
730.009	338.94
730.195	334.84
730.382	281.6
730.568	179.2
730.754	324.6
730.94	201.72
731.126	281.6
731.313	349.18
731.499	265.21
731.685	334.84
731.871	279.55
732.057	295.93
732.243	318.46
732.429	322.56
732.615	390.14
732.801	302.08
732.987	302.08
733.173	259.07
733.359	261.12
733.545	308.22
733.731	230.4
733.917	302.08
734.103	281.6
734.289	334.84
734.475	222.2
734.661	392.19
734.847	216.06
735.033	304.12
735.219	383.99
735.404	271.36
735.59	166.91
735.776	222.2
735.962	291.84
736.148	334.84
736.333	377.85
736.519	265.21
736.705	322.56
736.89	332.79
737.076	295.93
737.262	275.45
737.447	203.77
737.633	287.74
737.819	365.56
738.004	295.93
738.19	283.64
738.375	371.71
738.561	306.17
738.747	334.84
738.932	181.25
739.118	402.43
739.303	338.94
739.489	306.17
739.674	216.06
739.859	218.11
740.045	369.66
740.23	277.5
740.416	218.11
740.601	314.36
740.786	279.55
740.972	189.44
741.157	179.2
741.342	203.77
741.528	154.62
741.713	394.23
741.898	316.41
742.084	330.75
742.269	254.97
742.454	373.75
742.639	371.71
742.824	300.03
743.01	336.89
743.195	363.51
743.38	375.8
743.565	283.64
743.75	291.84
743.935	310.27
744.12	332.79
744.305	228.35
744.49	224.25
744.675	195.58
744.86	238.59
745.045	302.08
745.23	324.6
745.415	353.27
745.6	377.85
745.785	279.55
745.97	396.28
746.155	314.36
746.34	345.08
746.525	189.44
746.71	357.37
746.895	154.62
747.079	244.73
747.264	265.21
747.449	353.27
747.634	304.12
747.819	300.03
748.003	148.48
748.188	216.06
748.373	351.23
748.557	273.4
748.742	257.02
748.927	316.41
749.111	257.02
749.296	287.74
749.481	267.26
749.665	314.36
749.85	158.72
750.034	226.3
750.219	277.5
750.404	300.03
750.588	277.5
750.773	132.09
750.957	281.6
751.141	228.35
751.326	289.79
751.51	166.91
751.695	304.12
751.879	297.98
752.064	338.94
752.248	209.92
752.432	449.53
752.617	349.18
752.801	302.08
752.985	181.25
753.17	297.98
753.354	283.64
753.538	257.02
753.722	123.9
753.907	146.43
754.091	158.72
754.275	154.62
754.459	201.72
754.643	191.49
754.828	203.77
755.012	242.68
755.196	156.67
755.38	271.36
755.564	175.1
755.748	189.44
755.932	242.68
756.116	228.35
756.3	277.5
756.484	138.24
756.668	218.11
756.852	150.53
757.036	158.72
757.22	181.25
757.404	189.44
757.588	185.34
757.772	220.16
757.956	209.92
758.14	279.55
758.323	62.46
758.507	218.11
758.691	160.77
758.875	242.68
759.059	324.6
759.242	154.62
759.426	293.88
759.61	218.11
759.794	119.81
759.977	177.15
760.161	459.77
760.345	242.68
760.528	242.68
760.712	181.25
760.895	183.29
761.079	181.25
761.263	111.61
761.446	189.44
761.63	234.49
761.813	156.67
761.997	60.42
762.18	99.33
762.364	173.05
762.547	80.89
762.731	144.38
762.914	109.57
763.098	44.03
763.281	99.33
763.464	103.42
763.648	199.68
763.831	199.68
764.015	136.19
764.198	234.49
764.381	136.19
764.564	132.09
764.748	230.4
764.931	187.39
765.114	72.7
765.297	189.44
765.481	29.7
765.664	148.48
765.847	101.37
766.03	183.29
766.213	46.08
766.397	107.52
766.58	105.47
766.763	148.48
766.946	101.37
767.129	130.05
767.312	56.32
767.495	121.85
767.678	23.55
767.861	107.52
768.044	173.05
768.227	64.51
768.41	70.65
768.593	132.09
768.776	183.29
768.959	93.18
769.142	175.1
769.324	70.65
769.507	171.01
769.69	46.08
769.873	156.67
770.056	263.16
770.239	144.38
770.421	199.68
770.604	218.11
770.787	109.57
770.97	113.66
771.152	91.13
771.335	156.67
771.518	13.31
771.7	207.87
771.883	168.96
772.066	54.27
772.248	46.08
772.431	242.68
772.613	283.64
772.796	50.18
772.978	87.04
773.161	242.68
773.343	156.67
773.526	87.04
773.708	-25.6
773.891	35.84
774.073	115.71
774.256	101.37
774.438	259.07
774.621	60.42
774.803	150.53
774.985	183.29
775.168	236.54
775.35	29.7
775.532	166.91
775.715	31.74
775.897	82.94
776.079	54.27
776.261	121.85
776.444	146.43
776.626	74.75
776.808	87.04
776.99	46.08
777.173	72.7
777.355	54.27
777.537	152.57
777.719	117.76
777.901	64.51
778.083	-25.6
778.265	-39.94
778.447	183.29
778.629	58.37
778.811	80.89
778.993	173.05
779.175	111.61
779.357	142.33
779.539	52.22
779.721	91.13
779.903	121.85
780.085	11.26
780.267	101.37
780.449	11.26
780.631	80.89
780.812	142.33
780.994	74.75
781.176	66.56
781.358	78.85
781.54	5.12
781.721	60.42
781.903	158.72
782.085	-3.07
782.267	121.85
782.448	-52.22
782.63	37.89
782.812	21.5
782.993	125.95
783.175	84.99
783.357	76.8
783.538	64.51
783.72	17.41
783.901	44.03
784.083	87.04
784.264	107.52
784.446	-44.03
784.627	-111.61
784.809	41.98
784.99	-15.36
785.172	119.81
785.353	60.42
785.535	72.7
785.716	-80.89
785.897	31.74
786.079	95.23
786.26	72.7
786.441	68.61
786.623	-21.5
786.804	-5.12
786.985	21.5
787.167	62.46
787.348	97.28
787.529	-31.74
787.71	195.58
787.891	89.09
788.073	-9.22
788.254	-84.99
788.435	138.24
788.616	62.46
788.797	31.74
788.978	54.27
789.159	-41.98
789.34	138.24
789.522	23.55
789.703	-33.79
789.884	76.8
790.065	89.09
790.246	144.38
790.427	70.65
790.607	89.09
790.788	64.51
790.969	-3.07
791.15	113.66
791.331	31.74
791.512	41.98
791.693	-35.84
791.874	17.41
792.054	185.34
792.235	148.48
792.416	-128
792.597	39.94
792.778	152.57
792.958	95.23
793.139	117.76
793.32	35.84
793.5	-60.42
793.681	105.47
793.862	78.85
794.042	93.18
794.223	-31.74
794.404	9.22
794.584	-29.7
794.765	-58.37
794.945	15.36
795.126	56.32
795.306	189.44
795.487	7.17
795.667	-31.74
795.848	93.18
796.028	7.17
796.209	-48.13
796.389	60.42
796.57	56.32
796.75	-1.02
796.93	11.26
797.111	-33.79
797.291	50.18
797.471	41.98
797.652	-35.84
797.832	35.84
798.012	56.32
798.192	-66.56
798.373	-56.32
798.553	1.02
798.733	-13.31
798.913	-58.37
799.093	56.32
799.274	107.52
799.454	-39.94
799.634	60.42
799.814	15.36
799.994	76.8
800.174	97.28
800.354	62.46
800.534	-39.94
800.714	48.13
800.894	-111.61
801.074	-25.6
801.254	27.65
801.434	146.43
801.614	-54.27
801.794	-93.18
801.974	1944.55
802.154	-41.98
802.334	128
802.514	-21.5
802.693	-5.12
802.873	21.5
803.053	115.71
803.233	113.66
803.413	1.02
803.592	-19.46
803.772	-56.32
803.952	78.85
804.131	27.65
804.311	95.23
804.491	70.65
804.67	-46.08
804.85	-91.13
805.03	15.36
805.209	121.85
805.389	64.51
805.568	-82.94
805.748	5.12
805.928	27.65
806.107	78.85
806.287	132.09
806.466	27.65
806.646	93.18
806.825	27.65
807.004	23.55
807.184	21.5
807.363	70.65
807.543	29.7
807.722	7.17
807.901	27.65
808.081	125.95
808.26	-64.51
808.439	37.89
808.619	15.36
808.798	54.27
808.977	62.46
809.156	74.75
809.336	17.41
809.515	72.7
809.694	-72.7
809.873	-9.22
810.052	64.51
810.231	39.94
810.411	44.03
810.59	64.51
810.769	31.74
810.948	115.71
811.127	-37.89
811.306	-9.22
811.485	60.42
811.664	111.61
811.843	44.03
812.022	1.02
812.201	84.99
812.38	-56.32
812.559	-62.46
812.737	31.74
812.916	-130.05
813.095	-99.33
813.274	70.65
813.453	46.08
813.632	-3.07
813.811	58.37
813.989	-58.37
814.168	72.7
814.347	-54.27
814.526	3.07
814.704	66.56
814.883	56.32
815.062	-46.08
815.24	130.05
815.419	-101.37
815.598	50.18
815.776	-60.42
815.955	-50.18
816.133	-60.42
816.312	7.17
816.49	-46.08
816.669	9.22
816.847	-87.04
817.026	48.13
817.204	-9.22
817.383	-46.08
817.561	-56.32
817.74	31.74
817.918	50.18
818.097	-78.85
818.275	-50.18
818.453	3.07
818.632	52.22
818.81	-95.23
818.988	-58.37
819.167	52.22
819.345	-1.02
819.523	-56.32
819.701	-44.03
819.879	21.5
820.058	7.17
820.236	3.07
820.414	-5.12
820.592	-9.22
820.77	7.17
820.948	-56.32
821.127	-1.02
821.305	-27.65
821.483	-62.46
821.661	128
821.839	25.6
822.017	-91.13
822.195	7.17
822.373	148.48
822.551	-7.17
822.729	56.32
822.907	-9.22
823.085	23.55
823.262	-5.12
823.44	-33.79
823.618	41.98
823.796	-64.51
823.974	-7.17
824.152	-25.6
824.329	-82.94
824.507	23.55
824.685	109.57
824.863	-13.31
825.04	-9.22
825.218	13.31
825.396	-37.89
825.574	-25.6
825.751	33.79
825.929	64.51
826.107	-78.85
826.284	29.7
826.462	9.22
826.639	-80.89
826.817	-33.79
826.994	84.99
827.172	-74.75
827.349	97.28
827.527	39.94
827.704	89.09
827.882	64.51
828.059	-60.42
828.237	29.7
828.414	113.66
828.591	-128
828.769	-9.22
828.946	-128
829.124	23.55
829.301	66.56
829.478	-11.26
829.655	-1.02
829.833	82.94
830.01	-138.24
830.187	7.17
830.364	-1.02
830.542	29.7
830.719	58.37
830.896	99.33
831.073	5.12
831.25	72.7
831.427	5.12
831.604	-13.31
831.782	-60.42
831.959	89.09
832.136	-19.46
832.313	27.65
832.49	-74.75
832.667	105.47
832.844	-33.79
833.021	84.99
833.198	3.07
833.374	76.8
833.551	33.79
833.728	-50.18
833.905	66.56
834.082	-84.99
834.259	11.26
834.436	105.47
834.612	-66.56
834.789	29.7
834.966	19.46
835.143	64.51
835.319	-160.77
835.496	-5.12
835.673	-25.6
835.85	60.42
836.026	54.27
836.203	37.89
836.38	5.12
836.556	-13.31
836.733	-58.37
836.909	144.38
837.086	-44.03
837.262	-56.32
837.439	-62.46
837.616	-48.13
837.792	17.41
837.968	11.26
838.145	-115.71
838.321	-41.98
838.498	117.76
838.674	80.89
838.851	95.23
839.027	17.41
839.203	-21.5
839.38	15.36
839.556	3.07
839.732	128
839.909	1.02
840.085	54.27
840.261	3.07
840.437	-11.26
840.614	-29.7
840.79	82.94
840.966	66.56
841.142	74.75
841.318	29.7
841.494	33.79
841.671	60.42
841.847	-130.05
842.023	29.7
842.199	62.46
842.375	99.33
842.551	-125.95
842.727	-72.7
842.903	173.05
843.079	-95.23
843.255	125.95
843.431	-3.07
843.607	23.55
843.783	-66.56
843.959	37.89
844.134	-58.37
844.31	91.13
844.486	-60.42
844.662	-54.27
844.838	23.55
845.013	3.07
845.189	35.84
845.365	89.09
845.541	-23.55
845.716	-39.94
845.892	101.37
846.068	-52.22
846.244	-17.41
846.419	11.26
846.595	-13.31
846.77	-70.65
846.946	56.32
847.122	-52.22
847.297	-1.02
847.473	78.85
847.648	-101.37
847.824	-1.02
847.999	-50.18
848.175	-66.56
848.35	-3.07
848.526	111.61
848.701	33.79
848.876	70.65
849.052	119.81
849.227	-3.07
849.403	21.5
849.578	-15.36
849.753	-9.22
849.929	117.76
850.104	-87.04
850.279	1.02
850.454	82.94
850.63	11.26
850.805	-33.79
850.98	17.41
851.155	19.46
851.33	-13.31
851.505	-21.5
851.681	109.57
851.856	-68.61
852.031	-5.12
852.206	35.84
852.381	-105.47
852.556	-21.5
852.731	11.26
852.906	68.61
853.081	-23.55
853.256	105.47
853.431	-1.02
853.606	-58.37
853.781	-31.74
853.956	-125.95
854.131	17.41
854.305	-84.99
854.48	-70.65
854.655	46.08
854.83	27.65
855.005	-29.7
855.18	80.89
855.354	31.74
855.529	19.46
855.704	-64.51
855.879	80.89
856.053	-148.48
856.228	74.75
856.403	-160.77
856.577	50.18
856.752	-52.22
856.926	-25.6
857.101	84.99
857.276	-48.13
857.45	21.5
857.625	35.84
857.799	-13.31
857.974	-3.07
858.148	-103.42
858.323	7.17
858.497	-62.46
858.672	-60.42
858.846	-97.28
859.02	52.22
859.195	13.31
859.369	-7.17
859.543	-23.55
859.718	-7.17
859.892	82.94
860.066	56.32
860.241	-130.05
860.415	-23.55
860.589	-113.66
860.763	-27.65
860.938	19.46
861.112	39.94
861.286	-37.89
861.46	-23.55
861.634	-11.26
861.808	46.08
861.982	-74.75
862.157	-103.42
862.331	-56.32
862.505	-68.61
862.679	25.6
862.853	-66.56
863.027	-3.07
863.201	121.85
863.375	-37.89
863.549	39.94
863.722	-46.08
863.896	171.01
864.07	-31.74
864.244	-46.08
864.418	50.18
864.592	-3.07
864.766	3.07
864.939	35.84
865.113	-11.26
865.287	41.98
865.461	-60.42
865.634	-44.03
865.808	-46.08
865.982	-39.94
866.156	11.26
866.329	-66.56
866.503	23.55
866.676	23.55
866.85	-15.36
867.024	-27.65
867.197	23.55
867.371	-3.07
867.544	48.13
867.718	-93.18
867.891	84.99
868.065	-125.95
868.238	-66.56
868.412	78.85
868.585	17.41
868.759	-82.94
868.932	-54.27
869.105	-31.74
869.279	11.26
869.452	-76.8
869.625	52.22
869.799	-46.08
869.972	-41.98
870.145	-66.56
870.319	-1.02
870.492	-21.5
870.665	-62.46
870.838	-25.6
871.011	-136.19
871.185	66.56
871.358	5.12
871.531	5.12
871.704	-72.7
871.877	-3.07
872.05	7.17
872.223	-17.41
872.396	101.37
872.569	29.7
872.742	-64.51
872.915	101.37
873.088	-70.65
873.261	-115.71
873.434	68.61
873.607	58.37
873.78	146.43
873.953	-72.7
874.126	52.22
874.299	54.27
874.471	31.74
874.644	-107.52
874.817	-21.5
874.99	107.52
875.163	-60.42
875.335	7.17
875.508	52.22
875.681	15.36
875.853	-46.08
876.026	27.65
876.199	46.08
876.371	-1.02
876.544	-15.36
876.717	84.99
876.889	-11.26
877.062	87.04
877.234	-46.08
877.407	-23.55
877.579	-72.7
877.752	44.03
877.924	56.32
878.097	35.84
878.269	33.79
878.442	41.98
878.614	97.28
878.786	31.74
878.959	21.5
879.131	-33.79
879.303	-101.37
879.476	23.55
879.648	-13.31
879.82	21.5
879.993	-58.37
880.165	-58.37
880.337	-17.41
880.509	50.18
880.681	-123.9
880.854	-72.7
881.026	1.02
881.198	109.57
881.37	70.65
881.542	-37.89
881.714	7.17
881.886	-50.18
882.058	70.65
882.23	21.5
882.402	-7.17
882.574	5.12
882.746	50.18
882.918	76.8
883.09	-7.17
883.262	-15.36
883.434	-7.17
883.606	-80.89
883.778	-11.26
883.95	171.01
884.122	-27.65
884.293	50.18
884.465	39.94
884.637	70.65
884.809	-56.32
884.98	80.89
885.152	-44.03
885.324	115.71
885.496	-46.08
885.667	-56.32
885.839	-64.51
886.011	72.7
886.182	11.26
886.354	111.61
886.525	58.37
886.697	-27.65
886.869	-78.85
887.04	-107.52
887.212	109.57
887.383	121.85
887.555	60.42
887.726	-72.7
887.897	-68.61
888.069	23.55
888.24	72.7
888.412	-29.7
888.583	19.46
888.754	9.22
888.926	-78.85
889.097	35.84
889.268	-76.8
889.44	-15.36
889.611	-99.33
889.782	-39.94
889.953	-70.65
890.125	74.75
890.296	-39.94
890.467	-11.26
890.638	-41.98
890.809	41.98
890.98	-66.56
891.151	5.12
891.323	27.65
891.494	-1.02
891.665	-9.22
891.836	48.13
892.007	62.46
892.178	48.13
892.349	9.22
892.52	-21.5
892.691	-44.03
892.862	-1.02
893.032	-119.81
893.203	-91.13
893.374	-23.55
893.545	128
893.716	21.5
893.887	27.65
894.057	-70.65
894.228	-76.8
894.399	-84.99
894.57	70.65
894.74	-33.79
894.911	105.47
895.082	-21.5
895.253	-62.46
895.423	-9.22
895.594	64.51
895.764	3.07
895.935	-84.99
896.106	74.75
896.276	-41.98
896.447	-21.5
896.617	-62.46
896.788	-52.22
896.958	-39.94
897.129	-19.46
897.299	-52.22
897.47	66.56
897.64	64.51
897.81	-101.37
897.981	35.84
898.151	-33.79
898.322	-48.13
898.492	58.37
898.662	11.26
898.832	-60.42
899.003	37.89
899.173	5.12
899.343	-15.36
899.513	-72.7
