Data from USB4F104151__94__11-31-45-459.txt Node

Date: Wed Feb 26 11:31:45 EST 2025
User: louis
Spectrometer: USB4F10415
Trigger mode: 4
Integration Time (sec): 1.000000E-1
Scans to average: 1
Electric dark correction enabled: true
Nonlinearity correction enabled: false
Boxcar width: 0
XAxis mode: Wavelengths
Number of Pixels in Spectrum: 3648
>>>>>Begin Spectral Data<<<<<
178.204	-418.47
178.424	-418.47
178.644	-418.47
178.864	-408.23
179.084	-352.93
179.304	-27.31
179.524	-17.07
179.744	11.61
179.964	95.57
180.184	48.47
180.404	5.46
180.624	-6.83
180.844	-47.79
181.064	-6.83
181.283	-58.03
181.503	-17.07
181.723	19.8
181.943	-135.85
182.163	228.69
182.383	46.42
182.602	77.14
182.822	226.64
183.042	126.29
183.262	-39.59
183.482	-37.55
183.701	-27.31
183.921	68.95
184.141	-45.74
184.361	77.14
184.58	163.15
184.8	124.24
185.02	58.71
185.239	58.71
185.459	101.72
185.679	126.29
185.898	-80.55
186.118	58.71
186.338	83.28
186.557	152.91
186.777	-4.78
186.997	-12.97
187.216	66.9
187.436	220.5
187.655	56.66
187.875	124.24
188.095	7.51
188.314	191.83
188.534	212.31
188.753	1.37
188.973	197.97
189.192	212.31
189.412	-6.83
189.631	97.62
189.851	107.86
190.07	140.63
190.29	-23.21
190.509	-74.41
190.729	21.85
190.948	146.77
191.168	230.74
191.387	95.57
191.607	-8.87
191.826	107.86
192.045	17.75
192.265	23.89
192.484	91.48
192.704	44.37
192.923	-10.92
193.142	193.87
193.362	77.14
193.581	136.53
193.8	146.77
194.02	107.86
194.239	97.62
194.458	44.37
194.678	11.61
194.897	-10.92
195.116	56.66
195.335	-31.4
195.555	32.08
195.774	-21.16
195.993	185.68
196.212	13.65
196.432	60.76
196.651	-31.4
196.87	83.28
197.089	187.73
197.308	71
197.528	208.21
197.747	23.89
197.966	64.85
198.185	111.96
198.404	-19.11
198.623	122.2
198.842	118.1
199.062	99.67
199.281	101.72
199.5	-10.92
199.719	81.24
199.938	105.81
200.157	91.48
200.376	120.15
200.595	132.44
200.814	75.09
201.033	3.41
201.252	224.59
201.471	101.72
201.69	87.38
201.909	40.28
202.128	103.76
202.347	87.38
202.566	-15.02
202.785	-107.18
203.004	11.61
203.223	224.59
203.442	58.71
203.661	-64.17
203.879	81.24
204.098	134.48
204.317	-4.78
204.536	85.33
204.755	11.61
204.974	128.34
205.193	-17.07
205.411	144.72
205.63	73.04
205.849	103.76
206.068	27.99
206.287	-15.02
206.505	189.78
206.724	71
206.943	-23.21
207.162	3.41
207.381	54.61
207.599	34.13
207.818	75.09
208.037	-0.68
208.255	38.23
208.474	21.85
208.693	109.91
208.911	83.28
209.13	101.72
209.349	97.62
209.567	132.44
209.786	93.52
210.005	52.56
210.223	19.8
210.442	-123.56
210.661	-0.68
210.879	60.76
211.098	54.61
211.316	-17.07
211.535	46.42
211.753	36.18
211.972	120.15
212.191	-21.16
212.409	52.56
212.628	44.37
212.846	-17.07
213.065	-0.68
213.283	73.04
213.502	83.28
213.72	46.42
213.938	66.9
214.157	32.08
214.375	71
214.594	3.41
214.812	62.8
215.031	25.94
215.249	66.9
215.467	30.04
215.686	1.37
215.904	68.95
216.122	66.9
216.341	148.82
216.559	85.33
216.778	185.68
216.996	144.72
217.214	19.8
217.432	-39.59
217.651	-86.7
217.869	91.48
218.087	-45.74
218.306	15.7
218.524	56.66
218.742	42.32
218.96	97.62
219.179	38.23
219.397	38.23
219.615	157.01
219.833	179.54
220.051	-8.87
220.27	142.68
220.488	128.34
220.706	89.43
220.924	-33.45
221.142	-19.11
221.36	79.19
221.578	50.52
221.796	79.19
222.015	83.28
222.233	97.62
222.451	245.07
222.669	-39.59
222.887	132.44
223.105	44.37
223.323	99.67
223.541	-27.31
223.759	66.9
223.977	66.9
224.195	181.59
224.413	134.48
224.631	91.48
224.849	81.24
225.067	218.45
225.285	11.61
225.503	15.7
225.721	-47.79
225.939	118.1
226.157	56.66
226.375	288.08
226.592	36.18
226.81	-10.92
227.028	150.87
227.246	124.24
227.464	179.54
227.682	15.7
227.9	85.33
228.117	13.65
228.335	152.91
228.553	3.41
228.771	30.04
228.989	71
229.206	83.28
229.424	62.8
229.642	-64.17
229.86	5.46
230.077	122.2
230.295	34.13
230.513	200.02
230.731	152.91
230.948	171.35
231.166	114
231.384	46.42
231.601	27.99
231.819	175.44
232.037	52.56
232.254	-80.55
232.472	21.85
232.689	-0.68
232.907	83.28
233.125	66.9
233.342	7.51
233.56	64.85
233.777	-2.73
233.995	52.56
234.213	109.91
234.43	105.81
234.648	54.61
234.865	54.61
235.083	17.75
235.3	75.09
235.518	58.71
235.735	130.39
235.953	87.38
236.17	46.42
236.388	-2.73
236.605	111.96
236.822	185.68
237.04	150.87
237.257	85.33
237.475	-41.64
237.692	95.57
237.909	71
238.127	73.04
238.344	54.61
238.562	105.81
238.779	32.08
238.996	-35.5
239.214	34.13
239.431	124.24
239.648	9.56
239.865	81.24
240.083	107.86
240.3	30.04
240.517	-12.97
240.735	122.2
240.952	120.15
241.169	81.24
241.386	93.52
241.603	27.99
241.821	-101.03
242.038	130.39
242.255	83.28
242.472	-27.31
242.689	114
242.907	206.16
243.124	21.85
243.341	27.99
243.558	36.18
243.775	-98.99
243.992	19.8
244.209	175.44
244.426	279.89
244.643	83.28
244.86	87.38
245.078	52.56
245.295	87.38
245.512	79.19
245.729	-17.07
245.946	71
246.163	3.41
246.38	44.37
246.597	77.14
246.814	44.37
247.031	3.41
247.248	21.85
247.464	13.65
247.681	140.63
247.898	-27.31
248.115	103.76
248.332	17.75
248.549	140.63
248.766	181.59
248.983	46.42
249.2	64.85
249.417	161.11
249.633	17.75
249.85	128.34
250.067	77.14
250.284	54.61
250.501	142.68
250.717	56.66
250.934	-74.41
251.151	44.37
251.368	52.56
251.585	68.95
251.801	54.61
252.018	27.99
252.235	130.39
252.451	1.37
252.668	95.57
252.885	222.55
253.102	116.05
253.318	66.9
253.535	3.41
253.752	-21.16
253.968	66.9
254.185	-70.31
254.401	99.67
254.618	126.29
254.835	19.8
255.051	142.68
255.268	60.76
255.484	66.9
255.701	34.13
255.917	101.72
256.134	-4.78
256.351	111.96
256.567	17.75
256.784	109.91
257	5.46
257.217	140.63
257.433	109.91
257.65	75.09
257.866	212.31
258.082	-17.07
258.299	-19.11
258.515	48.47
258.732	54.61
258.948	-21.16
259.165	30.04
259.381	27.99
259.597	122.2
259.814	44.37
260.03	44.37
260.246	-25.26
260.463	181.59
260.679	132.44
260.895	77.14
261.112	66.9
261.328	42.32
261.544	9.56
261.761	197.97
261.977	-31.4
262.193	-47.79
262.409	89.43
262.626	58.71
262.842	7.51
263.058	7.51
263.274	226.64
263.49	64.85
263.707	150.87
263.923	99.67
264.139	27.99
264.355	46.42
264.571	154.96
264.787	91.48
265.004	101.72
265.22	21.85
265.436	-27.31
265.652	-6.83
265.868	75.09
266.084	-41.64
266.3	-33.45
266.516	-17.07
266.732	114
266.948	48.47
267.164	34.13
267.38	124.24
267.596	91.48
267.812	132.44
268.028	89.43
268.244	60.76
268.46	38.23
268.676	-17.07
268.892	68.95
269.108	-17.07
269.324	27.99
269.54	-29.35
269.756	73.04
269.972	9.56
270.188	48.47
270.403	19.8
270.619	66.9
270.835	64.85
271.051	-35.5
271.267	-10.92
271.483	54.61
271.698	83.28
271.914	56.66
272.13	73.04
272.346	-2.73
272.562	1.37
272.777	136.53
272.993	56.66
273.209	-10.92
273.425	99.67
273.64	-72.36
273.856	140.63
274.072	25.94
274.287	27.99
274.503	165.2
274.719	195.92
274.934	9.56
275.15	-12.97
275.366	9.56
275.581	50.52
275.797	25.94
276.012	75.09
276.228	46.42
276.444	99.67
276.659	91.48
276.875	3.41
277.09	30.04
277.306	-41.64
277.521	81.24
277.737	32.08
277.952	42.32
278.168	21.85
278.383	91.48
278.599	27.99
278.814	75.09
279.03	23.89
279.245	99.67
279.461	66.9
279.676	73.04
279.892	-4.78
280.107	-29.35
280.322	-39.59
280.538	-17.07
280.753	-35.5
280.969	-2.73
281.184	52.56
281.399	183.63
281.615	7.51
281.83	-31.4
282.045	-133.8
282.26	40.28
282.476	85.33
282.691	101.72
282.906	99.67
283.122	34.13
283.337	66.9
283.552	68.95
283.767	-39.59
283.983	118.1
284.198	79.19
284.413	25.94
284.628	-35.5
284.843	66.9
285.058	105.81
285.274	-21.16
285.489	38.23
285.704	23.89
285.919	-15.02
286.134	60.76
286.349	34.13
286.564	85.33
286.779	111.96
286.995	30.04
287.21	5.46
287.425	85.33
287.64	25.94
287.855	71
288.07	38.23
288.285	197.97
288.5	130.39
288.715	134.48
288.93	-0.68
289.145	-23.21
289.36	81.24
289.575	44.37
289.79	136.53
290.004	-72.36
290.219	171.35
290.434	36.18
290.649	9.56
290.864	-29.35
291.079	64.85
291.294	83.28
291.509	46.42
291.724	48.47
291.938	56.66
292.153	150.87
292.368	-25.26
292.583	95.57
292.798	120.15
293.012	97.62
293.227	50.52
293.442	-60.07
293.657	126.29
293.871	130.39
294.086	77.14
294.301	193.87
294.516	226.64
294.73	11.61
294.945	-58.03
295.16	68.95
295.374	114
295.589	124.24
295.804	3.41
296.018	48.47
296.233	132.44
296.447	71
296.662	-51.88
296.877	130.39
297.091	136.53
297.306	44.37
297.52	44.37
297.735	13.65
297.949	62.8
298.164	56.66
298.378	-43.69
298.593	-39.59
298.807	38.23
299.022	50.52
299.236	83.28
299.451	87.38
299.665	5.46
299.88	56.66
300.094	71
300.309	-19.11
300.523	60.76
300.737	81.24
300.952	79.19
301.166	73.04
301.381	56.66
301.595	36.18
301.809	128.34
302.024	5.46
302.238	62.8
302.452	128.34
302.667	5.46
302.881	146.77
303.095	56.66
303.309	3.41
303.524	-6.83
303.738	1.37
303.952	3.41
304.166	64.85
304.381	-137.9
304.595	79.19
304.809	1.37
305.023	77.14
305.237	60.76
305.452	71
305.666	77.14
305.88	93.52
306.094	208.21
306.308	114
306.522	136.53
306.736	48.47
306.95	159.06
307.164	19.8
307.379	42.32
307.593	103.76
307.807	101.72
308.021	118.1
308.235	103.76
308.449	-51.88
308.663	36.18
308.877	222.55
309.091	7.51
309.305	77.14
309.519	46.42
309.733	193.87
309.947	-43.69
310.161	60.76
310.374	105.81
310.588	68.95
310.802	13.65
311.016	-21.16
311.23	101.72
311.444	-60.07
311.658	97.62
311.872	177.49
312.085	157.01
312.299	175.44
312.513	85.33
312.727	81.24
312.941	-64.17
313.154	116.05
313.368	75.09
313.582	142.68
313.796	44.37
314.009	15.7
314.223	132.44
314.437	30.04
314.651	118.1
314.864	-37.55
315.078	36.18
315.292	-62.12
315.505	-80.55
315.719	159.06
315.933	85.33
316.146	77.14
316.36	58.71
316.573	91.48
316.787	89.43
317.001	103.76
317.214	3.41
317.428	71
317.641	23.89
317.855	81.24
318.068	114
318.282	79.19
318.495	148.82
318.709	161.11
318.922	101.72
319.136	163.15
319.349	120.15
319.563	36.18
319.776	105.81
319.99	19.8
320.203	95.57
320.417	54.61
320.63	46.42
320.843	167.25
321.057	122.2
321.27	11.61
321.483	87.38
321.697	157.01
321.91	75.09
322.124	83.28
322.337	34.13
322.55	19.8
322.763	42.32
322.977	25.94
323.19	9.56
323.403	93.52
323.617	66.9
323.83	64.85
324.043	-8.87
324.256	7.51
324.469	-58.03
324.683	81.24
324.896	138.58
325.109	66.9
325.322	-60.07
325.535	79.19
325.748	161.11
325.962	87.38
326.175	23.89
326.388	122.2
326.601	81.24
326.814	-58.03
327.027	71
327.24	118.1
327.453	-60.07
327.666	163.15
327.879	142.68
328.092	116.05
328.305	107.86
328.518	-27.31
328.731	64.85
328.944	89.43
329.157	-6.83
329.37	30.04
329.583	136.53
329.796	154.96
330.009	27.99
330.222	62.8
330.435	175.44
330.648	68.95
330.861	122.2
331.073	77.14
331.286	126.29
331.499	99.67
331.712	5.46
331.925	15.7
332.138	48.47
332.35	107.86
332.563	42.32
332.776	144.72
332.989	-27.31
333.202	66.9
333.414	87.38
333.627	11.61
333.84	-2.73
334.053	42.32
334.265	-19.11
334.478	17.75
334.691	40.28
334.903	-0.68
335.116	19.8
335.329	7.51
335.541	40.28
335.754	187.73
335.966	17.75
336.179	73.04
336.392	68.95
336.604	87.38
336.817	171.35
337.029	64.85
337.242	60.76
337.454	83.28
337.667	15.7
337.88	171.35
338.092	128.34
338.305	71
338.517	-0.68
338.729	91.48
338.942	144.72
339.154	-86.7
339.367	-17.07
339.579	236.88
339.792	19.8
340.004	3.41
340.217	-6.83
340.429	-39.59
340.641	15.7
340.854	-12.97
341.066	87.38
341.278	27.99
341.491	208.21
341.703	140.63
341.915	-19.11
342.128	142.68
342.34	175.44
342.552	-68.27
342.764	56.66
342.977	56.66
343.189	103.76
343.401	30.04
343.613	-35.5
343.826	71
344.038	-55.98
344.25	87.38
344.462	-39.59
344.674	48.47
344.886	54.61
345.099	114
345.311	52.56
345.523	-17.07
345.735	-111.27
345.947	52.56
346.159	97.62
346.371	1.37
346.583	46.42
346.795	161.11
347.007	17.75
347.219	93.52
347.431	7.51
347.643	136.53
347.855	-23.21
348.067	169.3
348.279	1.37
348.491	75.09
348.703	97.62
348.915	9.56
349.127	-47.79
349.339	48.47
349.551	-15.02
349.763	140.63
349.975	46.42
350.187	193.87
350.399	212.31
350.61	142.68
350.822	56.66
351.034	1.37
351.246	140.63
351.458	99.67
351.669	107.86
351.881	111.96
352.093	187.73
352.305	81.24
352.517	19.8
352.728	159.06
352.94	128.34
353.152	68.95
353.363	-60.07
353.575	101.72
353.787	245.07
353.999	13.65
354.21	165.2
354.422	1.37
354.633	50.52
354.845	30.04
355.057	109.91
355.268	3.41
355.48	167.25
355.692	-27.31
355.903	62.8
356.115	42.32
356.326	-15.02
356.538	224.59
356.749	73.04
356.961	124.24
357.172	11.61
357.384	15.7
357.595	173.39
357.807	38.23
358.018	75.09
358.23	62.8
358.441	103.76
358.653	136.53
358.864	13.65
359.075	25.94
359.287	91.48
359.498	142.68
359.709	83.28
359.921	109.91
360.132	13.65
360.344	75.09
360.555	48.47
360.766	-12.97
360.977	34.13
361.189	97.62
361.4	32.08
361.611	48.47
361.823	128.34
362.034	73.04
362.245	-19.11
362.456	54.61
362.667	27.99
362.879	-8.87
363.09	89.43
363.301	46.42
363.512	91.48
363.723	52.56
363.935	25.94
364.146	103.76
364.357	81.24
364.568	52.56
364.779	-27.31
364.99	165.2
365.201	75.09
365.412	128.34
365.623	-29.35
365.834	95.57
366.045	17.75
366.256	165.2
366.467	138.58
366.678	-37.55
366.889	52.56
367.1	32.08
367.311	122.2
367.522	-41.64
367.733	103.76
367.944	105.81
368.155	52.56
368.366	42.32
368.577	56.66
368.788	120.15
368.999	7.51
369.209	30.04
369.42	273.75
369.631	234.83
369.842	118.1
370.053	25.94
370.264	52.56
370.474	40.28
370.685	66.9
370.896	23.89
371.107	136.53
371.317	87.38
371.528	52.56
371.739	146.77
371.95	134.48
372.16	85.33
372.371	-58.03
372.582	-35.5
372.792	64.85
373.003	83.28
373.214	105.81
373.424	87.38
373.635	3.41
373.846	206.16
374.056	46.42
374.267	58.71
374.477	64.85
374.688	5.46
374.898	111.96
375.109	52.56
375.319	19.8
375.53	99.67
375.74	105.81
375.951	9.56
376.161	107.86
376.372	126.29
376.582	-33.45
376.793	40.28
377.003	13.65
377.214	30.04
377.424	40.28
377.635	-0.68
377.845	54.61
378.055	120.15
378.266	-12.97
378.476	-21.16
378.686	136.53
378.897	77.14
379.107	116.05
379.317	89.43
379.528	25.94
379.738	126.29
379.948	48.47
380.158	157.01
380.369	48.47
380.579	116.05
380.789	-4.78
380.999	150.87
381.21	116.05
381.42	195.92
381.63	19.8
381.84	118.1
382.05	36.18
382.261	169.3
382.471	138.58
382.681	9.56
382.891	167.25
383.101	44.37
383.311	17.75
383.521	-64.17
383.731	142.68
383.941	175.44
384.151	71
384.361	44.37
384.571	142.68
384.781	48.47
384.991	195.92
385.201	83.28
385.411	107.86
385.621	152.91
385.831	56.66
386.041	23.89
386.251	120.15
386.461	95.57
386.671	40.28
386.881	85.33
387.091	71
387.301	124.24
387.511	62.8
387.72	177.49
387.93	79.19
388.14	-64.17
388.35	118.1
388.56	134.48
388.769	130.39
388.979	48.47
389.189	17.75
389.399	87.38
389.609	46.42
389.818	118.1
390.028	42.32
390.238	107.86
390.447	-6.83
390.657	93.52
390.867	5.46
391.076	-29.35
391.286	83.28
391.496	52.56
391.705	30.04
391.915	56.66
392.125	77.14
392.334	83.28
392.544	187.73
392.753	58.71
392.963	-105.13
393.172	-6.83
393.382	-39.59
393.591	210.26
393.801	64.85
394.01	183.63
394.22	111.96
394.429	-37.55
394.639	81.24
394.848	109.91
395.058	64.85
395.267	40.28
395.477	91.48
395.686	17.75
395.895	210.26
396.105	173.39
396.314	122.2
396.524	-15.02
396.733	105.81
396.942	142.68
397.152	109.91
397.361	150.87
397.57	124.24
397.78	68.95
397.989	81.24
398.198	177.49
398.407	-43.69
398.617	38.23
398.826	101.72
399.035	81.24
399.244	154.96
399.453	101.72
399.663	87.38
399.872	93.52
400.081	-41.64
400.29	161.11
400.499	89.43
400.708	191.83
400.917	25.94
401.127	27.99
401.336	1.37
401.545	218.45
401.754	99.67
401.963	107.86
402.172	30.04
402.381	-49.83
402.59	118.1
402.799	42.32
403.008	140.63
403.217	116.05
403.426	114
403.635	-10.92
403.844	71
404.053	89.43
404.262	-39.59
404.471	177.49
404.68	73.04
404.888	120.15
405.097	62.8
405.306	48.47
405.515	85.33
405.724	62.8
405.933	163.15
406.142	64.85
406.35	71
406.559	36.18
406.768	48.47
406.977	142.68
407.185	214.35
407.394	103.76
407.603	-47.79
407.812	105.81
408.02	157.01
408.229	134.48
408.438	89.43
408.646	-41.64
408.855	38.23
409.064	152.91
409.272	71
409.481	79.19
409.69	-25.26
409.898	-39.59
410.107	56.66
410.315	189.78
410.524	73.04
410.733	95.57
410.941	77.14
411.15	99.67
411.358	124.24
411.567	107.86
411.775	62.8
411.984	118.1
412.192	128.34
412.401	103.76
412.609	167.25
412.818	107.86
413.026	122.2
413.234	44.37
413.443	15.7
413.651	46.42
413.86	124.24
414.068	202.07
414.276	204.11
414.485	9.56
414.693	206.16
414.901	202.07
415.11	128.34
415.318	71
415.526	128.34
415.734	146.77
415.943	132.44
416.151	107.86
416.359	64.85
416.567	38.23
416.776	171.35
416.984	169.3
417.192	220.5
417.4	48.47
417.608	7.51
417.817	-19.11
418.025	42.32
418.233	208.21
418.441	17.75
418.649	-27.31
418.857	150.87
419.065	185.68
419.273	54.61
419.481	75.09
419.689	44.37
419.897	71
420.105	-31.4
420.313	38.23
420.521	132.44
420.729	206.16
420.937	15.7
421.145	-15.02
421.353	114
421.561	148.82
421.769	36.18
421.977	21.85
422.185	46.42
422.393	83.28
422.601	181.59
422.809	68.95
423.017	75.09
423.224	163.15
423.432	175.44
423.64	46.42
423.848	175.44
424.056	23.89
424.263	202.07
424.471	64.85
424.679	200.02
424.887	15.7
425.094	175.44
425.302	50.52
425.51	44.37
425.718	87.38
425.925	54.61
426.133	34.13
426.341	193.87
426.548	60.76
426.756	62.8
426.964	91.48
427.171	85.33
427.379	200.02
427.586	54.61
427.794	85.33
428.001	122.2
428.209	44.37
428.417	195.92
428.624	124.24
428.832	152.91
429.039	144.72
429.247	152.91
429.454	150.87
429.662	218.45
429.869	126.29
430.076	144.72
430.284	232.79
430.491	249.17
430.699	191.83
430.906	245.07
431.114	161.11
431.321	167.25
431.528	148.82
431.736	171.35
431.943	165.2
432.15	216.4
432.358	191.83
432.565	232.79
432.772	79.19
432.979	288.08
433.187	77.14
433.394	290.13
433.601	179.54
433.808	140.63
434.016	286.03
434.223	306.51
434.43	157.01
434.637	214.35
434.844	275.79
435.052	345.42
435.259	265.55
435.466	308.56
435.673	216.4
435.88	343.38
436.087	333.14
436.294	374.1
436.501	212.31
436.708	333.14
436.915	353.62
437.122	439.63
437.329	316.75
437.537	365.9
437.743	351.57
437.95	519.5
438.157	413.01
438.364	460.11
438.571	431.44
438.778	509.26
438.985	466.25
439.192	503.12
439.399	480.59
439.606	537.93
439.813	566.6
440.02	546.12
440.227	630.09
440.433	617.8
440.64	646.48
440.847	607.56
441.054	681.29
441.261	765.26
441.467	634.19
441.674	695.63
441.881	820.55
442.088	648.52
442.294	879.94
442.501	808.27
442.708	814.41
442.914	820.55
443.121	910.66
443.328	857.42
443.534	1043.78
443.741	970.05
443.948	931.14
444.154	1097.03
444.361	1207.62
444.568	1113.41
444.774	1178.95
444.981	1051.97
445.187	1289.54
445.394	1301.83
445.6	1262.91
445.807	1447.23
446.013	1346.88
446.22	1369.41
446.426	1492.29
446.633	1635.64
446.839	1789.24
447.046	1580.35
447.252	1815.87
447.459	1703.23
447.665	1801.53
447.871	1903.93
448.078	2118.97
448.284	1969.46
448.491	2108.73
448.697	2299.19
448.903	2391.34
449.11	2417.97
449.316	2370.87
449.522	2530.61
449.728	2786.6
449.935	2696.49
450.141	2786.6
450.347	3013.93
450.553	2831.66
450.76	2972.97
450.966	3132.71
451.172	3284.26
451.378	3364.13
451.584	3392.8
451.791	3597.6
451.997	3697.95
452.203	3788.06
452.409	4162.84
452.615	4203.8
452.821	3978.52
453.027	3996.95
453.233	4687.12
453.44	4492.56
453.646	4877.58
453.852	4990.22
454.058	5109
454.264	5299.46
454.47	5719.29
454.676	5850.36
454.882	6368.5
455.088	5942.52
455.294	6294.77
455.5	6780.14
455.705	7021.8
455.911	7099.62
456.117	7304.42
456.323	7638.24
456.529	7455.97
456.735	8275.16
456.941	8574.16
457.147	8674.51
457.352	9075.91
457.558	9125.07
457.764	9729.22
457.97	10110.14
458.176	10394.81
458.381	10929.33
458.587	11437.22
458.793	11580.58
458.999	11601.06
459.204	12905.62
459.41	13675.65
459.616	13425.8
459.821	14294.14
460.027	14939.25
460.233	15678.57
460.438	15494.25
460.644	16428.12
460.85	16559.19
461.055	17255.5
461.261	18101.31
461.466	17841.22
461.672	18043.97
461.878	20401.18
462.083	20016.16
462.289	20290.59
462.494	21113.88
462.7	21453.84
462.905	21640.2
463.111	23313.39
463.316	24593.37
463.522	25052.12
463.727	25799.63
463.932	26897.34
464.138	27734.96
464.343	28912.54
464.549	29059.99
464.754	30841.73
464.959	31996.78
465.165	32205.67
465.37	31853.42
465.575	32435.05
465.781	34353.99
465.986	35007.3
466.191	34706.24
466.397	35146.56
466.602	34313.03
466.807	36053.81
467.012	36940.58
467.218	37358.36
467.423	37753.62
467.628	38619.91
467.833	40159.98
468.038	39758.58
468.244	38855.43
468.449	40983.27
468.654	39938.8
468.859	39867.12
469.064	40307.44
469.269	39291.65
469.474	39541.5
469.679	40940.26
469.885	39783.16
470.09	40129.26
470.295	40485.61
470.5	39346.94
470.705	39478.01
470.91	38632.2
471.115	38021.91
471.32	39076.61
471.525	38503.18
471.73	37563.16
471.935	37151.52
472.139	35924.79
472.344	35998.51
472.549	35767.09
472.754	34939.71
472.959	34198.35
473.164	32861.02
473.369	32580.45
473.574	33663.83
473.778	32846.69
473.983	32281.45
474.188	32021.36
474.393	30339.97
474.598	30030.73
474.802	29203.35
475.007	29174.68
475.212	28924.83
475.417	27718.57
475.621	27546.54
475.826	27163.57
476.031	26520.51
476.235	25836.49
476.44	25549.78
476.645	25066.45
476.849	24951.77
477.054	24818.65
477.259	23831.53
477.463	24003.56
477.668	23423.98
477.872	23323.63
478.077	22785.02
478.282	21971.97
478.486	21996.55
478.691	21785.61
478.895	21447.69
479.1	21351.44
479.304	21521.42
479.509	20724.76
479.713	20956.18
479.918	20196.39
480.122	19815.46
480.326	19995.68
480.531	19852.33
480.735	19708.97
480.94	19430.44
481.144	20102.18
481.348	19141.68
481.553	19014.71
481.757	18644.02
481.961	19006.52
482.166	18949.17
482.37	18459.71
482.574	18166.85
482.778	18160.7
482.983	18351.17
483.187	18033.73
483.391	18009.15
483.595	17601.61
483.8	17519.69
484.004	17501.26
484.208	17456.2
484.412	17134.67
484.616	17128.53
484.821	16680.02
485.025	16381.02
485.229	16458.84
485.433	16213.09
485.637	15850.6
485.841	15731.81
486.045	15406.19
486.249	15314.03
486.453	14986.35
486.657	15045.74
486.861	14779.51
487.065	14402.68
487.269	14500.98
487.473	13935.74
487.677	14062.72
487.881	13948.03
488.085	13501.58
488.289	13487.24
488.493	12776.59
488.697	12790.93
488.901	12670.1
489.105	12424.34
489.309	12244.12
489.512	11918.5
489.716	11926.69
489.92	11422.89
490.124	11248.81
490.328	11424.93
490.531	10964.14
490.735	10962.09
490.939	10740.91
491.143	10392.76
491.346	10265.78
491.55	10341.56
491.754	10058.94
491.958	9825.47
492.161	9655.49
492.365	9692.35
492.569	9469.12
492.772	9249.99
492.976	9262.28
493.18	9063.63
493.383	9037
493.587	9004.24
493.79	8903.89
493.994	8649.94
494.197	8574.16
494.401	8545.49
494.605	8299.73
494.808	8469.72
495.012	8389.85
495.215	8219.86
495.419	8248.54
495.622	8150.23
495.825	7955.68
496.029	7967.96
496.232	8121.56
496.436	7875.81
496.639	8062.17
496.843	7912.67
497.046	7959.77
497.249	8230.1
497.453	8070.36
497.656	8146.14
497.859	8086.75
498.063	8180.95
498.266	8322.26
498.469	8074.46
498.673	8092.89
498.876	8072.41
499.079	8183
499.282	8168.66
499.485	8744.14
499.689	8506.58
499.892	8699.09
500.095	8537.3
500.298	8537.3
500.501	8471.76
500.705	8848.59
500.908	8682.7
501.111	8778.96
501.314	8795.34
501.517	9157.83
501.72	9198.79
501.923	9061.58
502.126	9311.43
502.329	9483.46
502.532	9577.67
502.735	9671.87
502.938	9909.44
503.141	9977.02
503.344	10069.18
503.547	10132.67
503.75	10292.41
503.953	10456.25
504.156	10620.08
504.359	10839.22
504.562	10878.13
504.765	11033.77
504.968	11232.43
505.17	11494.57
505.373	11467.94
505.576	11621.54
505.779	11932.83
505.982	12104.86
506.185	12489.88
506.387	12450.97
506.59	12924.05
506.793	13255.82
506.996	13278.35
507.198	13882.5
507.401	13759.62
507.604	13878.4
507.807	14367.87
508.009	14484.6
508.212	15092.85
508.415	15228.01
508.617	15438.95
508.82	15576.17
509.022	15907.94
509.225	16516.19
509.428	16862.29
509.63	17278.03
509.833	17392.72
510.035	18127.94
510.238	18418.75
510.44	18656.31
510.643	19125.3
510.845	19424.3
511.048	19805.22
511.25	20325.41
511.453	20626.46
511.655	21722.12
511.858	22060.04
512.06	22234.11
512.262	23008.25
512.465	23022.58
512.667	23737.32
512.87	24339.43
513.072	24695.77
513.274	25691.09
513.477	25895.88
513.679	26528.7
513.881	27130.81
514.084	27972.52
514.286	28287.91
514.488	29250.45
514.69	29977.48
514.893	30249.86
515.095	31036.28
515.297	31603.57
515.499	32103.28
515.701	32850.78
515.904	33635.16
516.106	34435.91
516.308	35064.64
516.51	36053.81
516.712	36305.71
516.914	37055.26
517.116	37884.69
517.318	38368.01
517.52	39209.73
517.722	39879.41
517.925	40499.95
518.127	41954.01
518.329	42549.96
518.531	42220.24
518.733	43539.13
518.935	44223.15
519.136	44634.8
519.338	45572.77
519.54	46412.43
519.742	47286.92
519.944	47585.92
520.146	48249.46
520.348	49289.83
520.55	49551.97
520.752	50240.09
520.954	51313.22
521.155	51032.65
521.357	52363.83
521.559	52947.5
521.761	53793.31
521.963	53697.06
522.164	54196.76
522.366	54565.4
522.568	55122.44
522.77	55521.8
522.971	56938.99
523.173	56144.38
523.375	56963.57
523.576	56904.18
523.778	56891.89
523.98	57524.71
524.181	57580.01
524.383	57901.54
524.584	58264.03
524.786	58694.1
524.988	58337.76
525.189	58606.04
525.391	58984.91
525.592	58929.62
525.794	59185.61
525.995	58837.46
526.197	58593.75
526.398	58804.69
526.6	58923.47
526.801	59038.16
527.003	58765.78
527.204	58950.1
527.406	58900.95
527.607	58198.49
527.808	58135.01
528.01	56674.8
528.211	57539.05
528.412	57631.21
528.614	56982
528.815	56570.36
529.016	56779.25
529.218	55482.89
529.419	55474.69
529.62	55167.5
529.822	54792.72
530.023	53770.78
530.224	54065.69
530.425	52847.15
530.626	52005.44
530.828	52025.92
531.029	52621.87
531.23	51173.96
531.431	50311.77
531.632	50455.12
531.833	49914.46
532.035	48865.9
532.236	48239.22
532.437	48509.55
532.638	47090.31
532.839	47016.58
533.04	46617.23
533.241	45372.06
533.442	45865.63
533.643	44772.01
533.844	44051.13
534.045	43973.3
534.246	42597.07
534.447	42709.71
534.648	41714.39
534.849	41358.05
535.05	40655.59
535.251	40499.95
535.451	39586.55
535.652	39693.05
535.853	38839.04
536.054	38218.51
536.255	37819.16
536.456	36461.35
536.657	37178.14
536.857	36143.92
537.058	35347.26
537.259	35961.65
537.46	35279.67
537.66	34386.76
537.861	34227.02
538.062	33155.93
538.263	33008.48
538.463	32537.44
538.664	32643.94
538.865	32224.11
539.065	32146.28
539.266	30804.86
539.466	30782.34
539.667	29756.3
539.868	30364.55
540.068	29701.01
540.269	29481.88
540.469	29014.94
540.67	28885.92
540.87	28548
541.071	27788.21
541.271	27874.22
541.472	27331.51
541.672	27130.81
541.873	26973.11
542.073	26375.11
542.274	26633.15
542.474	25947.08
542.675	25666.51
542.875	25480.14
543.075	25172.95
543.276	24574.94
543.476	25179.09
543.676	24288.23
543.877	23854.06
544.077	23954.41
544.277	23667.69
544.478	23016.44
544.678	23342.07
544.878	22506.49
545.078	22598.65
545.279	22268.93
545.479	22176.77
545.679	21849.1
545.879	21462.03
546.079	21271.57
546.28	20843.54
546.48	20673.56
546.68	20560.92
546.88	20216.86
547.08	20003.88
547.28	19969.06
547.48	19426.35
547.68	19334.19
547.88	18875.45
548.081	19076.15
548.281	18615.35
548.481	18373.69
548.681	18115.65
548.881	17706.06
549.081	17732.68
549.28	17169.49
549.48	17206.35
549.68	17132.62
549.88	16809.04
550.08	16532.57
550.28	16645.21
550.48	16118.88
550.68	16264.29
550.88	15619.17
551.08	15539.3
551.279	15432.81
551.479	14974.06
551.679	14974.06
551.879	14681.21
552.079	14546.04
552.278	14156.93
552.478	14175.36
552.678	13823.11
552.878	13653.12
553.077	13452.42
553.277	13061.26
553.477	13036.69
553.676	12838.03
553.876	12649.62
554.076	12352.66
554.275	12129.44
554.475	11928.74
554.674	11914.4
554.874	11515.05
555.074	11406.5
555.273	11355.3
555.473	11287.72
555.672	11101.36
555.872	10661.04
556.071	10783.92
556.271	10499.25
556.47	10398.9
556.67	10020.03
556.869	9907.39
557.068	9663.68
557.268	9528.52
557.467	9589.95
557.667	9524.42
557.866	9014.48
558.065	9151.69
558.265	9012.43
558.464	8719.57
558.663	8551.63
558.863	8496.34
559.062	8502.48
559.261	8019.16
559.461	8144.09
559.66	7873.76
559.859	7818.46
560.058	7765.21
560.258	7429.35
560.457	7388.39
560.656	7480.55
560.855	7073
561.054	7099.62
561.253	7058.67
561.453	6831.34
561.652	6735.09
561.851	6868.2
562.05	6472.95
562.249	6317.3
562.448	6464.75
562.647	6042.87
562.846	6059.26
563.045	6276.34
563.244	5997.82
563.443	5907.71
563.642	5854.46
563.841	5868.8
564.04	5676.29
564.239	5676.29
564.438	5383.43
564.637	5342.47
564.836	5311.75
565.035	5160.2
565.234	5113.1
565.432	5160.2
565.631	5008.65
565.83	4959.5
566.029	4750.6
566.228	4824.33
566.427	4947.21
566.625	4599.06
566.824	4615.44
567.023	4611.34
567.222	4371.73
567.42	4304.15
567.619	4486.42
567.818	4187.41
568.016	4279.57
568.215	4138.26
568.414	4197.65
568.612	4060.44
568.811	3982.62
569.01	3986.71
569.208	3869.98
569.407	3972.38
569.605	3771.68
569.804	3591.45
570.002	3745.05
570.201	3546.4
570.4	3620.13
570.598	3462.43
570.797	3489.06
570.995	3501.34
571.193	3280.16
571.392	3333.41
571.59	2977.06
571.789	3118.37
571.987	3235.11
572.186	3288.36
572.384	3067.17
572.582	2999.59
572.781	2948.39
572.979	2901.29
573.177	2796.84
573.376	2866.47
573.574	2827.56
573.772	2645.29
573.971	2714.92
574.169	2442.54
574.367	2583.85
574.565	2641.2
574.763	2506.03
574.962	2506.03
575.16	2364.72
575.358	2387.25
575.556	2420.02
575.754	2362.67
575.952	2325.81
576.151	2241.84
576.349	2383.15
576.547	2213.17
576.745	2088.25
576.943	2182.45
577.141	2145.59
577.339	1965.37
577.537	2065.72
577.735	2139.44
577.933	2010.42
578.131	1942.84
578.329	2045.24
578.527	1928.5
578.725	1948.98
578.923	1772.86
579.121	1924.41
579.319	1770.81
579.516	1836.35
579.714	2045.24
579.912	1611.07
580.11	1652.03
580.308	1541.44
580.506	1627.45
580.704	1512.77
580.901	1559.87
581.099	1613.12
581.297	1580.35
581.495	1424.7
581.692	1334.59
581.89	1578.3
582.088	1469.76
582.285	1400.13
582.483	1334.59
582.681	1406.27
582.878	1424.7
583.076	1482.05
583.274	1316.16
583.471	1482.05
583.669	1332.54
583.866	1221.95
584.064	1262.91
584.262	1193.28
584.459	1078.6
584.657	1156.42
584.854	1242.43
585.052	1127.75
585.249	1226.05
585.447	1252.67
585.644	1080.64
585.841	1232.19
586.039	1082.69
586.236	1174.85
586.434	953.67
586.631	1015.11
586.828	976.2
587.026	959.81
587.223	900.42
587.42	871.75
587.618	992.58
587.815	1140.04
588.012	998.73
588.21	955.72
588.407	996.68
588.604	955.72
588.801	838.98
588.999	865.61
589.196	970.05
589.393	978.25
589.59	834.89
589.787	898.38
589.984	890.18
590.182	925
590.379	757.07
590.576	871.75
590.773	826.7
590.97	783.69
591.167	869.7
591.364	888.14
591.561	763.21
591.758	920.9
591.955	843.08
592.152	765.26
592.349	798.03
592.546	781.64
592.743	736.59
592.94	757.07
593.137	791.88
593.334	781.64
593.531	929.1
593.727	861.51
593.924	881.99
594.121	785.74
594.318	881.99
594.515	838.98
594.712	965.96
594.908	972.1
595.105	732.49
595.302	912.71
595.499	888.14
595.696	1029.45
595.892	822.6
596.089	1021.25
596.286	841.03
596.482	1011.01
596.679	996.68
596.876	970.05
597.072	1101.12
597.269	1054.02
597.466	1060.17
597.662	1058.12
597.859	1115.46
598.055	1137.99
598.252	1350.98
598.448	1334.59
598.645	1303.87
598.841	1357.12
599.038	1563.97
599.234	1529.15
599.431	1527.1
599.627	1512.77
599.824	1639.74
600.02	1652.03
600.217	1660.22
600.413	1699.13
600.609	1899.83
600.806	2084.15
601.002	1994.04
601.198	2110.77
601.395	2186.55
601.591	2127.16
601.787	2280.75
601.984	2516.27
602.18	2442.54
602.376	2475.31
602.572	2684.2
602.769	2661.68
602.965	2848.04
603.161	2952.49
603.357	3024.17
603.553	3052.84
603.75	3132.71
603.946	3450.14
604.142	3497.25
604.338	3783.96
604.534	3708.19
604.73	3937.56
604.926	3859.74
605.122	4189.46
605.318	4097.3
605.514	4400.4
605.71	4386.07
605.906	4752.65
606.102	4590.86
606.298	5047.56
606.494	5225.73
606.69	5276.93
606.886	5352.71
607.082	5373.19
607.278	5465.35
607.474	5795.07
607.67	5938.43
607.866	6028.54
608.062	6270.2
608.257	6292.73
608.453	6530.29
608.649	6771.95
608.845	6866.16
609.041	6946.03
609.236	7423.2
609.432	7529.7
609.628	7910.62
609.824	8017.11
610.019	8105.18
610.215	8357.08
610.411	8508.63
610.606	8817.87
610.802	8967.37
610.998	9137.35
611.193	9743.55
611.389	9559.24
611.584	9987.26
611.78	10060.99
611.976	10527.92
612.171	10888.37
612.367	11185.32
612.562	11373.74
612.758	11525.29
612.953	11707.55
613.149	12455.06
613.344	12516.5
613.539	13149.32
613.735	13468.81
613.93	13620.36
614.126	13759.62
614.321	14269.56
614.517	14601.33
614.712	15037.55
614.907	15324.27
615.103	15862.88
615.298	16163.93
615.493	16460.89
615.688	17093.71
615.884	17892.42
616.079	17661
616.274	18627.64
616.47	18986.04
616.665	19326
616.86	19665.96
617.055	20030.5
617.25	20444.19
617.445	21312.53
617.641	21306.38
617.836	22232.07
618.031	22541.31
618.226	23366.64
618.421	23819.24
618.616	24706.01
618.811	24681.44
619.006	26016.71
619.201	25842.63
619.396	26985.4
619.591	26995.64
619.786	28216.23
619.981	28079.02
620.176	28978.08
620.371	29385.62
620.566	30043.02
620.761	30749.57
620.956	31710.07
621.151	31763.31
621.346	32838.5
621.541	32822.11
621.735	34229.07
621.93	34179.92
622.125	35167.04
622.32	35302.2
622.515	36459.3
622.709	37067.55
622.904	37427.99
623.099	38015.76
623.294	39068.42
623.488	39449.34
623.683	40151.79
623.878	40196.85
624.072	41263.84
624.267	41767.64
624.462	42945.22
624.656	43227.84
624.851	44165.81
625.046	44300.98
625.24	45347.49
625.435	45845.15
625.629	46496.4
625.824	46979.72
626.018	47377.03
626.213	47450.75
626.407	48667.25
626.602	48304.76
626.796	49529.44
626.991	50066.01
627.185	50362.96
627.38	50223.7
627.574	50594.39
627.768	51044.94
627.963	51214.92
628.157	51190.34
628.352	52068.92
628.546	51200.58
628.74	52062.78
628.935	51413.57
629.129	52038.2
629.323	50727.5
629.517	50901.58
629.712	50971.21
629.906	50571.86
630.1	49752.67
630.294	49293.93
630.489	48777.84
630.683	48566.9
630.877	46977.67
631.071	46449.3
631.265	46060.18
631.459	44890.79
631.653	43868.86
631.848	43258.56
632.042	42394.32
632.236	41485.02
632.43	39815.93
632.624	39305.98
632.818	37911.31
633.012	36887.33
633.206	35418.94
633.4	34802.5
633.594	33076.06
633.788	32504.68
633.982	31030.14
634.176	29975.44
634.369	28894.11
634.563	27708.33
634.757	26782.65
634.951	25932.75
635.145	24853.47
635.339	24077.29
635.533	22756.35
635.726	22221.83
635.92	21171.22
636.114	20102.18
636.308	19483.69
636.501	18719.8
636.695	18232.38
636.889	17171.54
637.083	16270.43
637.276	15950.95
637.47	14994.54
637.664	14445.69
637.857	14066.81
638.051	13399.18
638.244	12842.13
638.438	12346.52
638.632	11920.54
638.825	11168.94
639.019	11105.45
639.212	10609.84
639.406	10247.35
639.599	9751.74
639.793	9327.82
639.986	8989.9
640.18	8746.19
640.373	8230.1
640.567	8002.78
640.76	7900.38
640.954	7304.42
641.147	7085.29
641.34	6763.76
641.534	6700.27
641.727	6489.33
641.92	6309.11
642.114	5870.84
642.307	5723.39
642.5	5547.26
642.694	5096.71
642.887	5123.34
643.08	4936.97
643.273	4816.14
643.467	4578.58
643.66	4291.86
643.853	4019.48
644.046	3988.76
644.239	3851.55
644.432	3753.24
644.626	3462.43
644.819	3552.54
645.012	3271.97
645.205	3190.05
645.398	3128.61
645.591	2866.47
645.784	2671.92
645.977	2671.92
646.17	2673.96
646.363	2551.09
646.556	2370.87
646.749	2200.88
646.942	2170.16
647.135	2227.51
647.328	2108.73
647.521	1944.89
647.714	1963.32
647.907	1762.62
648.099	1731.9
648.292	1803.58
648.485	1690.94
648.678	1510.72
648.871	1502.53
649.064	1551.68
649.256	1365.31
649.449	1324.35
649.642	1283.39
649.835	1148.23
650.027	1228.1
650.22	1242.43
650.413	1213.76
650.605	1199.43
650.798	1078.6
650.991	1043.78
651.183	1008.97
651.376	959.81
651.568	982.34
651.761	955.72
651.954	955.72
652.146	838.98
652.339	824.65
652.531	920.9
652.724	750.92
652.916	793.93
653.109	562.51
653.301	892.23
653.494	730.44
653.686	732.49
653.879	681.29
654.071	703.82
654.263	453.97
654.456	589.13
654.648	740.68
654.84	591.18
655.033	546.12
655.225	630.09
655.417	458.06
655.61	681.29
655.802	560.46
655.994	558.41
656.186	376.14
656.379	564.56
656.571	441.68
656.763	433.49
656.955	462.16
657.148	396.62
657.34	542.03
657.532	398.67
657.724	331.09
657.916	449.87
658.108	478.54
658.3	417.1
658.492	499.02
658.684	243.03
658.876	523.6
659.068	263.51
659.26	267.6
659.452	265.55
659.644	326.99
659.836	396.62
660.028	357.71
660.22	296.27
660.412	259.41
660.604	376.14
660.796	367.95
660.988	351.57
661.18	306.51
661.372	329.04
661.563	257.36
661.755	314.7
661.947	216.4
662.139	304.46
662.331	255.31
662.522	208.21
662.714	238.93
662.906	271.7
663.097	238.93
663.289	177.49
663.481	157.01
663.673	324.94
663.864	245.07
664.056	314.7
664.247	152.91
664.439	290.13
664.631	243.03
664.822	257.36
665.014	292.18
665.205	206.16
665.397	189.78
665.588	238.93
665.78	202.07
665.971	281.94
666.163	202.07
666.354	204.11
666.546	228.69
666.737	171.35
666.929	185.68
667.12	152.91
667.311	263.51
667.503	163.15
667.694	228.69
667.885	216.4
668.077	193.87
668.268	122.2
668.459	175.44
668.651	202.07
668.842	183.63
669.033	191.83
669.224	99.67
669.416	296.27
669.607	159.06
669.798	152.91
669.989	335.18
670.18	193.87
670.371	273.75
670.563	87.38
670.754	200.02
670.945	204.11
671.136	195.92
671.327	214.35
671.518	271.7
671.709	345.42
671.9	179.54
672.091	251.22
672.282	161.11
672.473	200.02
672.664	103.76
672.855	177.49
673.046	206.16
673.237	316.75
673.428	163.15
673.619	245.07
673.809	140.63
674	269.65
674.191	214.35
674.382	259.41
674.573	261.46
674.764	157.01
674.954	288.08
675.145	111.96
675.336	154.96
675.527	204.11
675.717	134.48
675.908	200.02
676.099	130.39
676.289	150.87
676.48	68.95
676.671	197.97
676.861	152.91
677.052	249.17
677.243	228.69
677.433	146.77
677.624	263.51
677.814	226.64
678.005	212.31
678.195	363.86
678.386	163.15
678.576	200.02
678.767	142.68
678.957	210.26
679.148	322.9
679.338	304.46
679.529	261.46
679.719	230.74
679.909	357.71
680.1	339.28
680.29	265.55
680.481	142.68
680.671	382.29
680.861	255.31
681.052	288.08
681.242	202.07
681.432	339.28
681.622	300.37
681.813	210.26
682.003	191.83
682.193	243.03
682.383	251.22
682.573	210.26
682.764	220.5
682.954	318.8
683.144	322.9
683.334	126.29
683.524	269.65
683.714	380.24
683.904	314.7
684.094	243.03
684.284	251.22
684.474	398.67
684.664	351.57
684.854	329.04
685.044	314.7
685.234	302.42
685.424	357.71
685.614	249.17
685.804	490.83
685.994	372.05
686.184	290.13
686.374	376.14
686.564	357.71
686.753	308.56
686.943	310.61
687.133	347.47
687.323	339.28
687.513	367.95
687.702	290.13
687.892	263.51
688.082	310.61
688.272	372.05
688.461	390.48
688.651	501.07
688.841	273.75
689.03	314.7
689.22	273.75
689.41	335.18
689.599	288.08
689.789	335.18
689.979	447.82
690.168	341.33
690.358	421.2
690.547	335.18
690.737	400.72
690.926	374.1
691.116	300.37
691.305	378.19
691.495	380.24
691.684	245.07
691.874	306.51
692.063	304.46
692.252	343.38
692.442	431.44
692.631	310.61
692.82	433.49
693.01	335.18
693.199	306.51
693.388	326.99
693.578	322.9
693.767	335.18
693.956	318.8
694.146	279.89
694.335	367.95
694.524	337.23
694.713	400.72
694.902	283.98
695.092	308.56
695.281	413.01
695.47	296.27
695.659	251.22
695.848	378.19
696.037	290.13
696.226	326.99
696.415	259.41
696.604	468.3
696.793	462.16
696.982	275.79
697.171	421.2
697.36	283.98
697.549	310.61
697.738	206.16
697.927	238.93
698.116	310.61
698.305	322.9
698.494	271.7
698.683	200.02
698.872	464.21
699.061	339.28
699.25	326.99
699.438	343.38
699.627	316.75
699.816	484.69
700.005	159.06
700.193	263.51
700.382	374.1
700.571	415.06
700.76	396.62
700.948	372.05
701.137	290.13
701.326	288.08
701.514	238.93
701.703	425.29
701.892	374.1
702.08	429.39
702.269	347.47
702.457	316.75
702.646	300.37
702.834	380.24
703.023	329.04
703.212	429.39
703.4	310.61
703.589	331.09
703.777	253.27
703.965	212.31
704.154	335.18
704.342	259.41
704.531	296.27
704.719	331.09
704.907	453.97
705.096	210.26
705.284	308.56
705.472	314.7
705.661	314.7
705.849	429.39
706.037	372.05
706.226	355.66
706.414	333.14
706.602	263.51
706.79	329.04
706.979	322.9
707.167	349.52
707.355	269.65
707.543	355.66
707.731	277.84
707.919	384.34
708.107	255.31
708.296	208.21
708.484	273.75
708.672	388.43
708.86	329.04
709.048	378.19
709.236	312.66
709.424	324.94
709.612	370
709.8	222.55
709.988	320.85
710.176	382.29
710.364	306.51
710.551	263.51
710.739	292.18
710.927	288.08
711.115	306.51
711.303	380.24
711.491	306.51
711.679	288.08
711.866	351.57
712.054	181.59
712.242	324.94
712.43	406.86
712.617	333.14
712.805	349.52
712.993	326.99
713.181	320.85
713.368	456.01
713.556	234.83
713.744	310.61
713.931	476.49
714.119	398.67
714.306	230.74
714.494	322.9
714.682	367.95
714.869	329.04
715.057	298.32
715.244	183.63
715.432	374.1
715.619	234.83
715.807	232.79
715.994	296.27
716.182	386.38
716.369	431.44
716.556	345.42
716.744	163.15
716.931	220.5
717.119	359.76
717.306	365.9
717.493	376.14
717.681	337.23
717.868	265.55
718.055	296.27
718.242	288.08
718.43	398.67
718.617	398.67
718.804	275.79
718.991	361.81
719.179	370
719.366	376.14
719.553	376.14
719.74	370
719.927	294.22
720.114	322.9
720.301	310.61
720.488	306.51
720.676	249.17
720.863	421.2
721.05	515.41
721.237	359.76
721.424	388.43
721.611	359.76
721.798	238.93
721.985	398.67
722.172	292.18
722.358	304.46
722.545	376.14
722.732	429.39
722.919	437.58
723.106	460.11
723.293	413.01
723.48	341.33
723.667	302.42
723.853	404.82
724.04	404.82
724.227	480.59
724.414	357.71
724.6	419.15
724.787	523.6
724.974	523.6
725.161	406.86
725.347	329.04
725.534	374.1
725.72	501.07
725.907	347.47
726.094	443.73
726.28	324.94
726.467	388.43
726.653	318.8
726.84	490.83
727.027	554.32
727.213	429.39
727.4	451.92
727.586	419.15
727.773	400.72
727.959	419.15
728.145	390.48
728.332	400.72
728.518	326.99
728.705	462.16
728.891	415.06
729.077	458.06
729.264	392.53
729.45	351.57
729.636	427.34
729.823	396.62
730.009	445.77
730.195	402.77
730.382	521.55
730.568	265.55
730.754	396.62
730.94	400.72
731.126	400.72
731.313	427.34
731.499	343.38
731.685	439.63
731.871	478.54
732.057	456.01
732.243	470.35
732.429	390.48
732.615	480.59
732.801	437.58
732.987	478.54
733.173	331.09
733.359	460.11
733.545	496.97
733.731	408.91
733.917	525.65
734.103	451.92
734.289	453.97
734.475	290.13
734.661	568.65
734.847	472.4
735.033	464.21
735.219	462.16
735.404	370
735.59	435.53
735.776	400.72
735.962	361.81
736.148	537.93
736.333	499.02
736.519	468.3
736.705	408.91
736.89	429.39
737.076	456.01
737.262	435.53
737.447	404.82
737.633	499.02
737.819	572.75
738.004	417.1
738.19	421.2
738.375	458.06
738.561	556.36
738.747	499.02
738.932	363.86
739.118	544.08
739.303	460.11
739.489	468.3
739.674	349.52
739.859	316.75
740.045	480.59
740.23	423.25
740.416	269.65
740.601	456.01
740.786	478.54
740.972	357.71
741.157	372.05
741.342	447.82
741.528	374.1
741.713	509.26
741.898	419.15
742.084	445.77
742.269	470.35
742.454	419.15
742.639	591.18
742.824	453.97
743.01	562.51
743.195	507.21
743.38	372.05
743.565	458.06
743.75	466.25
743.935	400.72
744.12	542.03
744.305	339.28
744.49	513.36
744.675	386.38
744.86	458.06
745.045	470.35
745.23	404.82
745.415	415.06
745.6	503.12
745.785	314.7
745.97	480.59
746.155	396.62
746.34	474.45
746.525	316.75
746.71	515.41
746.895	273.75
747.079	419.15
747.264	357.71
747.449	474.45
747.634	400.72
747.819	353.62
748.003	429.39
748.188	222.55
748.373	415.06
748.557	400.72
748.742	415.06
748.927	429.39
749.111	398.67
749.296	415.06
749.481	410.96
749.665	386.38
749.85	302.42
750.034	427.34
750.219	259.41
750.404	378.19
750.588	300.37
750.773	271.7
750.957	345.42
751.141	363.86
751.326	439.63
751.51	220.5
751.695	296.27
751.879	329.04
752.064	558.41
752.248	384.34
752.432	539.98
752.617	384.34
752.801	496.97
752.985	361.81
753.17	410.96
753.354	283.98
753.538	343.38
753.722	234.83
753.907	275.79
754.091	232.79
754.275	304.46
754.459	290.13
754.643	148.82
754.828	339.28
755.012	300.37
755.196	157.01
755.38	335.18
755.564	197.97
755.748	267.6
755.932	333.14
756.116	365.9
756.3	406.86
756.484	376.14
756.668	382.29
756.852	163.15
757.036	197.97
757.22	288.08
757.404	136.53
757.588	269.65
757.772	304.46
757.956	210.26
758.14	363.86
758.323	150.87
758.507	308.56
758.691	197.97
758.875	390.48
759.059	308.56
759.242	234.83
759.426	200.02
759.61	343.38
759.794	173.39
759.977	357.71
760.161	404.82
760.345	331.09
760.528	337.23
760.712	238.93
760.895	296.27
761.079	236.88
761.263	138.58
761.446	122.2
761.63	144.72
761.813	345.42
761.997	200.02
762.18	144.72
762.364	243.03
762.547	126.29
762.731	234.83
762.914	191.83
763.098	193.87
763.281	159.06
763.464	195.92
763.648	136.53
763.831	161.11
764.015	193.87
764.198	308.56
764.381	193.87
764.564	308.56
764.748	271.7
764.931	218.45
765.114	245.07
765.297	263.51
765.481	118.1
765.664	114
765.847	181.59
766.03	329.04
766.213	157.01
766.397	140.63
766.58	146.77
766.763	152.91
766.946	177.49
767.129	167.25
767.312	99.67
767.495	169.3
767.678	179.54
767.861	189.78
768.044	150.87
768.227	200.02
768.41	91.48
768.593	185.68
768.776	247.12
768.959	154.96
769.142	247.12
769.324	157.01
769.507	175.44
769.69	161.11
769.873	136.53
770.056	290.13
770.239	206.16
770.421	300.37
770.604	212.31
770.787	122.2
770.97	130.39
771.152	142.68
771.335	177.49
771.518	52.56
771.7	134.48
771.883	253.27
772.066	128.34
772.248	169.3
772.431	261.46
772.613	185.68
772.796	144.72
772.978	191.83
773.161	312.66
773.343	116.05
773.526	83.28
773.708	1.37
773.891	1.37
774.073	122.2
774.256	109.91
774.438	243.03
774.621	87.38
774.803	148.82
774.985	122.2
775.168	171.35
775.35	130.39
775.532	126.29
775.715	36.18
775.897	130.39
776.079	68.95
776.261	185.68
776.444	62.8
776.626	167.25
776.808	116.05
776.99	71
777.173	103.76
777.355	103.76
777.537	185.68
777.719	195.92
777.901	46.42
778.083	50.52
778.265	83.28
778.447	79.19
778.629	68.95
778.811	118.1
778.993	146.77
779.175	173.39
779.357	75.09
779.539	36.18
779.721	91.48
779.903	191.83
780.085	77.14
780.267	140.63
780.449	79.19
780.631	114
780.812	165.2
780.994	118.1
781.176	62.8
781.358	27.99
781.54	167.25
781.721	109.91
781.903	152.91
782.085	5.46
782.267	134.48
782.448	21.85
782.63	56.66
782.812	81.24
782.993	99.67
783.175	120.15
783.357	7.51
783.538	79.19
783.72	50.52
783.901	89.43
784.083	124.24
784.264	97.62
784.446	5.46
784.627	13.65
784.809	177.49
784.99	46.42
785.172	97.62
785.353	71
785.535	85.33
785.716	-76.46
785.897	-49.83
786.079	71
786.26	109.91
786.441	97.62
786.623	-8.87
786.804	68.95
786.985	130.39
787.167	34.13
787.348	85.33
787.529	154.96
787.71	193.87
787.891	122.2
788.073	54.61
788.254	38.23
788.435	181.59
788.616	122.2
788.797	60.76
788.978	54.61
789.159	34.13
789.34	44.37
789.522	50.52
789.703	5.46
789.884	138.58
790.065	97.62
790.246	183.63
790.427	64.85
790.607	144.72
790.788	54.61
790.969	-41.64
791.15	48.47
791.331	9.56
791.512	79.19
791.693	50.52
791.874	42.32
792.054	220.5
792.235	62.8
792.416	27.99
792.597	-10.92
792.778	107.86
792.958	46.42
793.139	62.8
793.32	64.85
793.5	-123.56
793.681	128.34
793.862	138.58
794.042	48.47
794.223	7.51
794.404	34.13
794.584	-82.6
794.765	50.52
794.945	93.52
795.126	66.9
795.306	91.48
795.487	30.04
795.667	1.37
795.848	62.8
796.028	54.61
796.209	83.28
796.389	34.13
796.57	46.42
796.75	-8.87
796.93	-37.55
797.111	-21.16
797.291	-17.07
797.471	85.33
797.652	50.52
797.832	-4.78
798.012	62.8
798.192	17.75
798.373	-53.93
798.553	66.9
798.733	60.76
798.913	7.51
799.093	27.99
799.274	89.43
799.454	116.05
799.634	111.96
799.814	50.52
799.994	75.09
800.174	38.23
800.354	34.13
800.534	-66.22
800.714	91.48
800.894	-117.42
801.074	-70.31
801.254	-4.78
801.434	148.82
801.614	54.61
801.794	-6.83
801.974	1633.6
802.154	54.61
802.334	25.94
802.514	7.51
802.693	40.28
802.873	105.81
803.053	181.59
803.233	73.04
803.413	48.47
803.592	25.94
803.772	-6.83
803.952	68.95
804.131	-68.27
804.311	134.48
804.491	126.29
804.67	-19.11
804.85	-8.87
805.03	-19.11
805.209	177.49
805.389	-15.02
805.568	-31.4
805.748	38.23
805.928	5.46
806.107	120.15
806.287	93.52
806.466	79.19
806.646	23.89
806.825	7.51
807.004	-98.99
807.184	146.77
807.363	136.53
807.543	48.47
807.722	-19.11
807.901	68.95
808.081	206.16
808.26	-49.83
808.439	25.94
808.619	85.33
808.798	-10.92
808.977	99.67
809.156	62.8
809.336	71
809.515	118.1
809.694	-8.87
809.873	-19.11
810.052	73.04
810.231	48.47
810.411	25.94
810.59	25.94
810.769	77.14
810.948	56.66
811.127	-33.45
811.306	-35.5
811.485	25.94
811.664	183.63
811.843	101.72
812.022	-8.87
812.201	50.52
812.38	44.37
812.559	21.85
812.737	46.42
812.916	-62.12
813.095	-31.4
813.274	25.94
813.453	48.47
813.632	64.85
813.811	167.25
813.989	-55.98
814.168	48.47
814.347	-12.97
814.526	7.51
814.704	111.96
814.883	111.96
815.062	17.75
815.24	50.52
815.419	-64.17
815.598	116.05
815.776	-66.22
815.955	87.38
816.133	-109.23
816.312	-6.83
816.49	13.65
816.669	44.37
816.847	11.61
817.026	152.91
817.204	17.75
817.383	21.85
817.561	32.08
817.74	5.46
817.918	83.28
818.097	11.61
818.275	9.56
818.453	52.56
818.632	103.76
818.81	13.65
818.988	-37.55
819.167	-55.98
819.345	36.18
819.523	-35.5
819.701	-10.92
819.879	60.76
820.058	85.33
820.236	11.61
820.414	66.9
820.592	-35.5
820.77	-15.02
820.948	-8.87
821.127	-62.12
821.305	21.85
821.483	1.37
821.661	46.42
821.839	75.09
822.017	-47.79
822.195	-25.26
822.373	-4.78
822.551	-6.83
822.729	17.75
822.907	25.94
823.085	64.85
823.262	44.37
823.44	-84.65
823.618	-10.92
823.796	3.41
823.974	-27.31
824.152	-47.79
824.329	-8.87
824.507	-21.16
824.685	130.39
824.863	-4.78
825.04	1.37
825.218	15.7
825.396	83.28
825.574	-8.87
825.751	30.04
825.929	-17.07
826.107	-27.31
826.284	5.46
826.462	81.24
826.639	-49.83
826.817	-45.74
826.994	42.32
827.172	-80.55
827.349	46.42
827.527	23.89
827.704	34.13
827.882	79.19
828.059	1.37
828.237	-6.83
828.414	157.01
828.591	-76.46
828.769	-0.68
828.946	-19.11
829.124	71
829.301	38.23
829.478	-60.07
829.655	64.85
829.833	38.23
830.01	-103.08
830.187	144.72
830.364	-51.88
830.542	40.28
830.719	136.53
830.896	42.32
831.073	95.57
831.25	-6.83
831.427	-31.4
831.604	50.52
831.782	-55.98
831.959	91.48
832.136	30.04
832.313	30.04
832.49	-47.79
832.667	5.46
832.844	42.32
833.021	71
833.198	50.52
833.374	71
833.551	73.04
833.728	-17.07
833.905	105.81
834.082	-74.41
834.259	42.32
834.436	111.96
834.612	25.94
834.789	48.47
834.966	71
835.143	-2.73
835.319	-66.22
835.496	40.28
835.673	11.61
835.85	97.62
836.026	32.08
836.203	52.56
836.38	-12.97
836.556	-29.35
836.733	-103.08
836.909	165.2
837.086	5.46
837.262	-90.79
837.439	38.23
837.616	-37.55
837.792	38.23
837.968	-37.55
838.145	-131.75
838.321	15.7
838.498	64.85
838.674	140.63
838.851	25.94
839.027	44.37
839.203	46.42
839.38	68.95
839.556	-53.93
839.732	44.37
839.909	-0.68
840.085	62.8
840.261	-62.12
840.437	34.13
840.614	21.85
840.79	60.76
840.966	30.04
841.142	58.71
841.318	-55.98
841.494	73.04
841.671	105.81
841.847	-55.98
842.023	-43.69
842.199	161.11
842.375	177.49
842.551	-66.22
842.727	7.51
842.903	118.1
843.079	-84.65
843.255	161.11
843.431	56.66
843.607	13.65
843.783	-74.41
843.959	46.42
844.134	15.7
844.31	152.91
844.486	-64.17
844.662	-43.69
844.838	-2.73
845.013	5.46
845.189	44.37
845.365	46.42
845.541	-6.83
845.716	32.08
845.892	81.24
846.068	-6.83
846.244	-17.07
846.419	79.19
846.595	-49.83
846.77	-53.93
846.946	58.71
847.122	-49.83
847.297	17.75
847.473	161.11
847.648	-31.4
847.824	44.37
847.999	-92.84
848.175	9.56
848.35	71
848.526	34.13
848.701	97.62
848.876	126.29
849.052	101.72
849.227	3.41
849.403	13.65
849.578	-41.64
849.753	66.9
849.929	30.04
850.104	-43.69
850.279	13.65
850.454	77.14
850.63	9.56
850.805	30.04
850.98	21.85
851.155	15.7
851.33	54.61
851.505	-133.8
851.681	134.48
851.856	-2.73
852.031	38.23
852.206	-39.59
852.381	-55.98
852.556	40.28
852.731	87.38
852.906	77.14
853.081	-19.11
853.256	89.43
853.431	3.41
853.606	-25.26
853.781	-0.68
853.956	-178.86
854.131	13.65
854.305	46.42
854.48	-15.02
854.655	-88.75
854.83	13.65
855.005	-8.87
855.18	56.66
855.354	91.48
855.529	66.9
855.704	-21.16
855.879	87.38
856.053	-31.4
856.228	44.37
856.403	-55.98
856.577	30.04
856.752	-98.99
856.926	56.66
857.101	116.05
857.276	-60.07
857.45	75.09
857.625	116.05
857.799	21.85
857.974	21.85
858.148	-172.71
858.323	62.8
858.497	21.85
858.672	-19.11
858.846	-53.93
859.02	1.37
859.195	-113.32
859.369	-47.79
859.543	34.13
859.718	9.56
859.892	73.04
860.066	-6.83
860.241	-8.87
860.415	-66.22
860.589	36.18
860.763	-58.03
860.938	68.95
861.112	120.15
861.286	-119.46
861.46	46.42
861.634	-58.03
861.808	73.04
861.982	21.85
862.157	-47.79
862.331	-92.84
862.505	-31.4
862.679	-98.99
862.853	-37.55
863.027	38.23
863.201	68.95
863.375	-74.41
863.549	11.61
863.722	68.95
863.896	81.24
864.07	-2.73
864.244	30.04
864.418	75.09
864.592	27.99
864.766	25.94
864.939	48.47
865.113	-39.59
865.287	114
865.461	-8.87
865.634	-21.16
865.808	56.66
865.982	-33.45
866.156	17.75
866.329	-15.02
866.503	5.46
866.676	52.56
866.85	111.96
867.024	-33.45
867.197	46.42
867.371	62.8
867.544	66.9
867.718	-66.22
867.891	118.1
868.065	-72.36
868.238	-4.78
868.412	103.76
868.585	32.08
868.759	-43.69
868.932	-33.45
869.105	-29.35
869.279	-35.5
869.452	-86.7
869.625	85.33
869.799	21.85
869.972	-29.35
870.145	-19.11
870.319	62.8
870.492	73.04
870.665	5.46
870.838	-10.92
871.011	-94.89
871.185	-0.68
871.358	-33.45
871.531	11.61
871.704	-66.22
871.877	50.52
872.05	-25.26
872.223	-29.35
872.396	107.86
872.569	99.67
872.742	-72.36
872.915	27.99
873.088	-12.97
873.261	-12.97
873.434	9.56
873.607	7.51
873.78	64.85
873.953	-62.12
874.126	64.85
874.299	52.56
874.471	-53.93
874.644	11.61
874.817	89.43
874.99	99.67
875.163	21.85
875.335	46.42
875.508	-27.31
875.681	91.48
875.853	-41.64
876.026	-10.92
876.199	83.28
876.371	50.52
876.544	-47.79
876.717	-0.68
876.889	-10.92
877.062	42.32
877.234	-55.98
877.407	-23.21
877.579	27.99
877.752	95.57
877.924	95.57
878.097	38.23
878.269	17.75
878.442	25.94
878.614	40.28
878.786	54.61
878.959	58.71
879.131	1.37
879.303	-84.65
879.476	-68.27
879.648	50.52
879.82	56.66
879.993	-23.21
880.165	-55.98
880.337	-6.83
880.509	-19.11
880.681	-131.75
880.854	-41.64
881.026	93.52
881.198	126.29
881.37	77.14
881.542	56.66
881.714	-47.79
881.886	68.95
882.058	11.61
882.23	46.42
882.402	46.42
882.574	17.75
882.746	30.04
882.918	114
883.09	120.15
883.262	-4.78
883.434	79.19
883.606	-31.4
883.778	11.61
883.95	138.58
884.122	36.18
884.293	97.62
884.465	13.65
884.637	144.72
884.809	-43.69
884.98	-4.78
885.152	73.04
885.324	27.99
885.496	9.56
885.667	-39.59
885.839	-47.79
886.011	118.1
886.182	128.34
886.354	66.9
886.525	56.66
886.697	77.14
886.869	-55.98
887.04	-10.92
887.212	124.24
887.383	105.81
887.555	-10.92
887.726	62.8
887.897	-17.07
888.069	13.65
888.24	93.52
888.412	-37.55
888.583	3.41
888.754	-29.35
888.926	-137.9
889.097	-39.59
889.268	-119.46
889.44	-17.07
889.611	-90.79
889.782	-78.51
889.953	-74.41
890.125	79.19
890.296	-88.75
890.467	-109.23
890.638	-6.83
890.809	-0.68
890.98	1.37
891.151	-10.92
891.323	93.52
891.494	-64.17
891.665	-23.21
891.836	21.85
892.007	38.23
892.178	7.51
892.349	15.7
892.52	-2.73
892.691	-35.5
892.862	-58.03
893.032	-150.18
893.203	-2.73
893.374	-19.11
893.545	71
893.716	-39.59
893.887	44.37
894.057	-23.21
894.228	-39.59
894.399	-41.64
894.57	71
894.74	-58.03
894.911	60.76
895.082	-107.18
895.253	-76.46
895.423	60.76
895.594	-37.55
895.764	5.46
895.935	-62.12
896.106	-0.68
896.276	21.85
896.447	44.37
896.617	-119.46
896.788	-12.97
896.958	-111.27
897.129	23.89
897.299	-21.16
897.47	111.96
897.64	95.57
897.81	-15.02
897.981	32.08
898.151	-70.31
898.322	-8.87
898.492	103.76
898.662	-96.94
898.832	27.99
899.003	25.94
899.173	7.51
899.343	-19.11
899.513	-152.23
