Data from USB4F104151__21__09-25-44-419.txt Node

Date: Wed Feb 26 09:25:44 EST 2025
User: louis
Spectrometer: USB4F10415
Trigger mode: 4
Integration Time (sec): 1.000000E-1
Scans to average: 1
Electric dark correction enabled: true
Nonlinearity correction enabled: false
Boxcar width: 0
XAxis mode: Wavelengths
Number of Pixels in Spectrum: 3648
>>>>>Begin Spectral Data<<<<<
178.204	-340.99
178.424	-340.99
178.644	-340.99
178.864	-326.65
179.084	-291.84
179.304	17.41
179.524	-37.89
179.744	-21.5
179.964	35.84
180.184	11.26
180.404	48.13
180.624	31.74
180.844	-46.08
181.064	-21.5
181.283	15.36
181.503	-82.94
181.723	50.18
181.943	-35.84
182.163	87.04
182.383	-82.94
182.602	54.27
182.822	74.75
183.042	105.47
183.262	-11.26
183.482	3.07
183.701	15.36
183.921	-5.12
184.141	-11.26
184.361	91.13
184.58	56.32
184.8	103.42
185.02	9.22
185.239	105.47
185.459	78.85
185.679	80.89
185.898	-70.65
186.118	31.74
186.338	15.36
186.557	62.46
186.777	23.55
186.997	1.02
187.216	-46.08
187.436	27.65
187.655	62.46
187.875	-9.22
188.095	76.8
188.314	123.9
188.534	117.76
188.753	-7.17
188.973	99.33
189.192	166.91
189.412	-13.31
189.631	72.7
189.851	80.89
190.07	78.85
190.29	-17.41
190.509	3.07
190.729	-9.22
190.948	87.04
191.168	269.31
191.387	152.57
191.607	-35.84
191.826	72.7
192.045	54.27
192.265	-52.22
192.484	29.7
192.704	70.65
192.923	-99.33
193.142	199.68
193.362	168.96
193.581	121.85
193.8	56.32
194.02	105.47
194.239	76.8
194.458	-3.07
194.678	-21.5
194.897	17.41
195.116	64.51
195.335	128
195.555	142.33
195.774	35.84
195.993	66.56
196.212	48.13
196.432	-74.75
196.651	-9.22
196.87	-13.31
197.089	232.44
197.308	72.7
197.528	113.66
197.747	-31.74
197.966	95.23
198.185	216.06
198.404	13.31
198.623	121.85
198.842	72.7
199.062	37.89
199.281	128
199.5	50.18
199.719	58.37
199.938	76.8
200.157	78.85
200.376	101.37
200.595	87.04
200.814	62.46
201.033	-9.22
201.252	103.42
201.471	91.13
201.69	136.19
201.909	44.03
202.128	80.89
202.347	64.51
202.566	21.5
202.785	-35.84
203.004	-31.74
203.223	232.44
203.442	113.66
203.661	-44.03
203.879	41.98
204.098	158.72
204.317	15.36
204.536	115.71
204.755	58.37
204.974	99.33
205.193	-29.7
205.411	226.3
205.63	123.9
205.849	7.17
206.068	-29.7
206.287	-134.14
206.505	68.61
206.724	93.18
206.943	44.03
207.162	-29.7
207.381	48.13
207.599	19.46
207.818	-5.12
208.037	-60.42
208.255	9.22
208.474	123.9
208.693	37.89
208.911	13.31
209.13	39.94
209.349	72.7
209.567	37.89
209.786	187.39
210.005	72.7
210.223	19.46
210.442	-70.65
210.661	148.48
210.879	101.37
211.098	50.18
211.316	13.31
211.535	109.57
211.753	80.89
211.972	23.55
212.191	21.5
212.409	46.08
212.628	154.62
212.846	23.55
213.065	134.14
213.283	160.77
213.502	109.57
213.72	3.07
213.938	9.22
214.157	-23.55
214.375	70.65
214.594	-9.22
214.812	37.89
215.031	-35.84
215.249	68.61
215.467	23.55
215.686	74.75
215.904	74.75
216.122	76.8
216.341	68.61
216.559	29.7
216.778	29.7
216.996	177.15
217.214	72.7
217.432	-13.31
217.651	-91.13
217.869	17.41
218.087	66.56
218.306	48.13
218.524	48.13
218.742	82.94
218.96	60.42
219.179	3.07
219.397	11.26
219.615	222.2
219.833	109.57
220.051	-35.84
220.27	119.81
220.488	70.65
220.706	27.65
220.924	13.31
221.142	-35.84
221.36	13.31
221.578	93.18
221.796	-7.17
222.015	33.79
222.233	52.22
222.451	130.05
222.669	29.7
222.887	19.46
223.105	19.46
223.323	-11.26
223.541	13.31
223.759	23.55
223.977	15.36
224.195	136.19
224.413	72.7
224.631	35.84
224.849	-33.79
225.067	234.49
225.285	60.42
225.503	-21.5
225.721	-82.94
225.939	-3.07
226.157	125.95
226.375	261.12
226.592	-35.84
226.81	31.74
227.028	117.76
227.246	76.8
227.464	27.65
227.682	66.56
227.9	56.32
228.117	-7.17
228.335	15.36
228.553	13.31
228.771	64.51
228.989	125.95
229.206	48.13
229.424	-97.28
229.642	35.84
229.86	-11.26
230.077	84.99
230.295	39.94
230.513	107.52
230.731	46.08
230.948	166.91
231.166	138.24
231.384	78.85
231.601	-21.5
231.819	136.19
232.037	-35.84
232.254	-91.13
232.472	5.12
232.689	-91.13
232.907	87.04
233.125	9.22
233.342	-15.36
233.56	41.98
233.777	101.37
233.995	-3.07
234.213	33.79
234.43	87.04
234.648	-50.18
234.865	44.03
235.083	44.03
235.3	23.55
235.518	89.09
235.735	136.19
235.953	117.76
236.17	56.32
236.388	33.79
236.605	87.04
236.822	138.24
237.04	121.85
237.257	111.61
237.475	25.6
237.692	50.18
237.909	62.46
238.127	-3.07
238.344	27.65
238.562	25.6
238.779	-25.6
238.996	-103.42
239.214	80.89
239.431	66.56
239.648	29.7
239.865	105.47
240.083	39.94
240.3	-19.46
240.517	-7.17
240.735	37.89
240.952	78.85
241.169	31.74
241.386	11.26
241.603	33.79
241.821	-72.7
242.038	1.02
242.255	95.23
242.472	15.36
242.689	68.61
242.907	15.36
243.124	27.65
243.341	-39.94
243.558	48.13
243.775	68.61
243.992	-48.13
244.209	78.85
244.426	216.06
244.643	72.7
244.86	46.08
245.078	66.56
245.295	76.8
245.512	68.61
245.729	11.26
245.946	78.85
246.163	35.84
246.38	39.94
246.597	29.7
246.814	93.18
247.031	52.22
247.248	27.65
247.464	56.32
247.681	64.51
247.898	72.7
248.115	111.61
248.332	1.02
248.549	125.95
248.766	128
248.983	44.03
249.2	41.98
249.417	107.52
249.633	7.17
249.85	56.32
250.067	66.56
250.284	62.46
250.501	48.13
250.717	25.6
250.934	39.94
251.151	-1.02
251.368	-1.02
251.585	113.66
251.801	15.36
252.018	-11.26
252.235	84.99
252.451	-66.56
252.668	-50.18
252.885	115.71
253.102	41.98
253.318	56.32
253.535	46.08
253.752	7.17
253.968	48.13
254.185	37.89
254.401	27.65
254.618	113.66
254.835	27.65
255.051	175.1
255.268	56.32
255.484	68.61
255.701	48.13
255.917	87.04
256.134	7.17
256.351	11.26
256.567	11.26
256.784	-9.22
257	-5.12
257.217	107.52
257.433	60.42
257.65	54.27
257.866	27.65
258.082	-11.26
258.299	-54.27
258.515	-5.12
258.732	-25.6
258.948	-76.8
259.165	35.84
259.381	-46.08
259.597	117.76
259.814	-35.84
260.03	62.46
260.246	-39.94
260.463	66.56
260.679	89.09
260.895	13.31
261.112	54.27
261.328	46.08
261.544	-7.17
261.761	140.29
261.977	37.89
262.193	-66.56
262.409	15.36
262.626	82.94
262.842	3.07
263.058	3.07
263.274	101.37
263.49	107.52
263.707	111.61
263.923	7.17
264.139	-82.94
264.355	44.03
264.571	93.18
264.787	17.41
265.004	89.09
265.22	1.02
265.436	23.55
265.652	37.89
265.868	72.7
266.084	-44.03
266.3	25.6
266.516	-3.07
266.732	44.03
266.948	62.46
267.164	15.36
267.38	128
267.596	11.26
267.812	158.72
268.028	44.03
268.244	62.46
268.46	-3.07
268.676	117.76
268.892	54.27
269.108	-46.08
269.324	21.5
269.54	3.07
269.756	56.32
269.972	-140.29
270.188	23.55
270.403	-17.41
270.619	87.04
270.835	64.51
271.051	-5.12
271.267	11.26
271.483	-72.7
271.698	107.52
271.914	82.94
272.13	-19.46
272.346	13.31
272.562	5.12
272.777	138.24
272.993	-5.12
273.209	-5.12
273.425	130.05
273.64	-46.08
273.856	62.46
274.072	-54.27
274.287	-48.13
274.503	-50.18
274.719	80.89
274.934	-15.36
275.15	-91.13
275.366	46.08
275.581	-74.75
275.797	25.6
276.012	76.8
276.228	-80.89
276.444	-7.17
276.659	158.72
276.875	-41.98
277.09	1.02
277.306	23.55
277.521	52.22
277.737	-5.12
277.952	144.38
278.168	31.74
278.383	105.47
278.599	21.5
278.814	62.46
279.03	11.26
279.245	166.91
279.461	-17.41
279.676	95.23
279.892	-70.65
280.107	-56.32
280.322	3.07
280.538	41.98
280.753	-1.02
280.969	76.8
281.184	52.22
281.399	132.09
281.615	130.05
281.83	113.66
282.045	-17.41
282.26	29.7
282.476	64.51
282.691	76.8
282.906	113.66
283.122	50.18
283.337	-1.02
283.552	117.76
283.767	-19.46
283.983	54.27
284.198	-35.84
284.413	-1.02
284.628	29.7
284.843	37.89
285.058	31.74
285.274	66.56
285.489	39.94
285.704	93.18
285.919	37.89
286.134	31.74
286.349	39.94
286.564	80.89
286.779	109.57
286.995	37.89
287.21	-17.41
287.425	50.18
287.64	39.94
287.855	60.42
288.07	-70.65
288.285	101.37
288.5	105.47
288.715	142.33
288.93	39.94
289.145	19.46
289.36	111.61
289.575	11.26
289.79	144.38
290.004	-25.6
290.219	99.33
290.434	-58.37
290.649	-31.74
290.864	-3.07
291.079	-7.17
291.294	52.22
291.509	23.55
291.724	-19.46
291.938	-3.07
292.153	48.13
292.368	-11.26
292.583	125.95
292.798	76.8
293.012	13.31
293.227	19.46
293.442	-5.12
293.657	140.29
293.871	103.42
294.086	13.31
294.301	150.53
294.516	130.05
294.73	-25.6
294.945	-9.22
295.16	31.74
295.374	101.37
295.589	130.05
295.804	39.94
296.018	39.94
296.233	218.11
296.447	44.03
296.662	-3.07
296.877	113.66
297.091	103.42
297.306	-25.6
297.52	39.94
297.735	64.51
297.949	93.18
298.164	52.22
298.378	31.74
298.593	-119.81
298.807	-44.03
299.022	29.7
299.236	138.24
299.451	52.22
299.665	48.13
299.88	56.32
300.094	23.55
300.309	-48.13
300.523	80.89
300.737	72.7
300.952	46.08
301.166	-1.02
301.381	-70.65
301.595	-37.89
301.809	21.5
302.024	-44.03
302.238	-29.7
302.452	56.32
302.667	44.03
302.881	115.71
303.095	48.13
303.309	13.31
303.524	-11.26
303.738	-17.41
303.952	-19.46
304.166	-27.65
304.381	-52.22
304.595	209.92
304.809	-25.6
305.023	21.5
305.237	-1.02
305.452	46.08
305.666	76.8
305.88	138.24
306.094	89.09
306.308	121.85
306.522	29.7
306.736	78.85
306.95	50.18
307.164	15.36
307.379	9.22
307.593	105.47
307.807	89.09
308.021	-3.07
308.235	15.36
308.449	-123.9
308.663	9.22
308.877	220.16
309.091	31.74
309.305	19.46
309.519	-68.61
309.733	89.09
309.947	-37.89
310.161	115.71
310.374	74.75
310.588	97.28
310.802	44.03
311.016	31.74
311.23	31.74
311.444	23.55
311.658	48.13
311.872	54.27
312.085	128
312.299	80.89
312.513	105.47
312.727	54.27
312.941	-7.17
313.154	62.46
313.368	15.36
313.582	17.41
313.796	66.56
314.009	-9.22
314.223	113.66
314.437	84.99
314.651	121.85
314.864	21.5
315.078	23.55
315.292	-41.98
315.505	11.26
315.719	19.46
315.933	46.08
316.146	13.31
316.36	-21.5
316.573	58.37
316.787	101.37
317.001	5.12
317.214	-35.84
317.428	37.89
317.641	31.74
317.855	-5.12
318.068	54.27
318.282	21.5
318.495	187.39
318.709	39.94
318.922	52.22
319.136	70.65
319.349	29.7
319.563	-76.8
319.776	-27.65
319.99	-27.65
320.203	31.74
320.417	-39.94
320.63	15.36
320.843	195.58
321.057	37.89
321.27	-25.6
321.483	103.42
321.697	125.95
321.91	111.61
322.124	95.23
322.337	56.32
322.55	80.89
322.763	7.17
322.977	29.7
323.19	97.28
323.403	-46.08
323.617	62.46
323.83	115.71
324.043	35.84
324.256	44.03
324.469	-46.08
324.683	109.57
324.896	3.07
325.109	50.18
325.322	5.12
325.535	76.8
325.748	160.77
325.962	13.31
326.175	105.47
326.388	13.31
326.601	62.46
326.814	41.98
327.027	89.09
327.24	146.43
327.453	-91.13
327.666	3.07
327.879	209.92
328.092	37.89
328.305	39.94
328.518	46.08
328.731	-25.6
328.944	54.27
329.157	48.13
329.37	3.07
329.583	171.01
329.796	72.7
330.009	-33.79
330.222	37.89
330.435	111.61
330.648	31.74
330.861	52.22
331.073	113.66
331.286	76.8
331.499	-58.37
331.712	-41.98
331.925	31.74
332.138	7.17
332.35	97.28
332.563	7.17
332.776	48.13
332.989	-29.7
333.202	1.02
333.414	-41.98
333.627	41.98
333.84	60.42
334.053	80.89
334.265	1.02
334.478	29.7
334.691	33.79
334.903	-21.5
335.116	17.41
335.329	31.74
335.541	60.42
335.754	109.57
335.966	-23.55
336.179	9.22
336.392	-9.22
336.604	31.74
336.817	101.37
337.029	78.85
337.242	29.7
337.454	27.65
337.667	3.07
337.88	72.7
338.092	74.75
338.305	50.18
338.517	1.02
338.729	58.37
338.942	138.24
339.154	-56.32
339.367	15.36
339.579	48.13
339.792	7.17
340.004	140.29
340.217	-15.36
340.429	-1.02
340.641	-13.31
340.854	-82.94
341.066	19.46
341.278	121.85
341.491	134.14
341.703	119.81
341.915	-46.08
342.128	89.09
342.34	-9.22
342.552	3.07
342.764	27.65
342.977	7.17
343.189	101.37
343.401	5.12
343.613	-25.6
343.826	23.55
344.038	15.36
344.25	97.28
344.462	35.84
344.674	31.74
344.886	13.31
345.099	46.08
345.311	33.79
345.523	80.89
345.735	-62.46
345.947	46.08
346.159	31.74
346.371	15.36
346.583	-17.41
346.795	134.14
347.007	48.13
347.219	105.47
347.431	-41.98
347.643	93.18
347.855	-35.84
348.067	158.72
348.279	-107.52
348.491	1.02
348.703	70.65
348.915	125.95
349.127	-25.6
349.339	7.17
349.551	13.31
349.763	27.65
349.975	41.98
350.187	123.9
350.399	60.42
350.61	27.65
350.822	-41.98
351.034	66.56
351.246	-7.17
351.458	-1.02
351.669	29.7
351.881	80.89
352.093	101.37
352.305	109.57
352.517	103.42
352.728	166.91
352.94	130.05
353.152	66.56
353.363	9.22
353.575	39.94
353.787	119.81
353.999	54.27
354.21	93.18
354.422	-50.18
354.633	-15.36
354.845	-19.46
355.057	62.46
355.268	60.42
355.48	105.47
355.692	-56.32
355.903	80.89
356.115	35.84
356.326	-48.13
356.538	121.85
356.749	99.33
356.961	197.63
357.172	76.8
357.384	-64.51
357.595	146.43
357.807	54.27
358.018	17.41
358.23	21.5
358.441	158.72
358.653	146.43
358.864	-1.02
359.075	-41.98
359.287	52.22
359.498	101.37
359.709	91.13
359.921	-1.02
360.132	-31.74
360.344	9.22
360.555	-64.51
360.766	15.36
360.977	5.12
361.189	89.09
361.4	-11.26
361.611	130.05
361.823	115.71
362.034	80.89
362.245	-60.42
362.456	99.33
362.667	54.27
362.879	27.65
363.09	111.61
363.301	33.79
363.512	-1.02
363.723	-56.32
363.935	35.84
364.146	138.24
364.357	-9.22
364.568	80.89
364.779	-33.79
364.99	21.5
365.201	15.36
365.412	101.37
365.623	-87.04
365.834	39.94
366.045	33.79
366.256	123.9
366.467	121.85
366.678	62.46
366.889	7.17
367.1	7.17
367.311	31.74
367.522	-46.08
367.733	13.31
367.944	48.13
368.155	27.65
368.366	48.13
368.577	103.42
368.788	109.57
368.999	-50.18
369.209	23.55
369.42	130.05
369.631	166.91
369.842	95.23
370.053	37.89
370.264	101.37
370.474	31.74
370.685	80.89
370.896	-33.79
371.107	89.09
371.317	60.42
371.528	21.5
371.739	68.61
371.95	44.03
372.16	80.89
372.371	-46.08
372.582	35.84
372.792	41.98
373.003	72.7
373.214	31.74
373.424	130.05
373.635	25.6
373.846	158.72
374.056	78.85
374.267	80.89
374.477	72.7
374.688	39.94
374.898	89.09
375.109	74.75
375.319	3.07
375.53	154.62
375.74	60.42
375.951	-70.65
376.161	66.56
376.372	123.9
376.582	19.46
376.793	87.04
377.003	23.55
377.214	-11.26
377.424	54.27
377.635	82.94
377.845	19.46
378.055	125.95
378.266	-15.36
378.476	19.46
378.686	78.85
378.897	41.98
379.107	113.66
379.317	64.51
379.528	-9.22
379.738	33.79
379.948	-9.22
380.158	44.03
380.369	37.89
380.579	113.66
380.789	80.89
380.999	123.9
381.21	93.18
381.42	109.57
381.63	31.74
381.84	72.7
382.05	7.17
382.261	87.04
382.471	76.8
382.681	-17.41
382.891	97.28
383.101	113.66
383.311	-41.98
383.521	-1.02
383.731	119.81
383.941	37.89
384.151	82.94
384.361	13.31
384.571	68.61
384.781	54.27
384.991	160.77
385.201	105.47
385.411	117.76
385.621	39.94
385.831	29.7
386.041	-13.31
386.251	66.56
386.461	134.14
386.671	-52.22
386.881	9.22
387.091	35.84
387.301	64.51
387.511	-1.02
387.72	152.57
387.93	93.18
388.14	-66.56
388.35	7.17
388.56	64.51
388.769	150.53
388.979	5.12
389.189	60.42
389.399	78.85
389.609	115.71
389.818	101.37
390.028	13.31
390.238	99.33
390.447	-25.6
390.657	58.37
390.867	-3.07
391.076	-97.28
391.286	13.31
391.496	62.46
391.705	19.46
391.915	58.37
392.125	97.28
392.334	5.12
392.544	130.05
392.753	9.22
392.963	-78.85
393.172	76.8
393.382	-25.6
393.591	134.14
393.801	-50.18
394.01	119.81
394.22	111.61
394.429	68.61
394.639	-56.32
394.848	39.94
395.058	-5.12
395.267	23.55
395.477	105.47
395.686	78.85
395.895	89.09
396.105	132.09
396.314	56.32
396.524	3.07
396.733	41.98
396.942	105.47
397.152	-3.07
397.361	64.51
397.57	70.65
397.78	52.22
397.989	119.81
398.198	203.77
398.407	5.12
398.617	23.55
398.826	-21.5
399.035	3.07
399.244	46.08
399.453	-5.12
399.663	46.08
399.872	56.32
400.081	-66.56
400.29	123.9
400.499	46.08
400.708	111.61
400.917	91.13
401.127	-41.98
401.336	5.12
401.545	195.58
401.754	123.9
401.963	29.7
402.172	48.13
402.381	7.17
402.59	23.55
402.799	46.08
403.008	56.32
403.217	11.26
403.426	17.41
403.635	-41.98
403.844	89.09
404.053	5.12
404.262	37.89
404.471	70.65
404.68	52.22
404.888	7.17
405.097	11.26
405.306	130.05
405.515	101.37
405.724	-31.74
405.933	101.37
406.142	125.95
406.35	130.05
406.559	-58.37
406.768	39.94
406.977	97.28
407.185	39.94
407.394	115.71
407.603	31.74
407.812	23.55
408.02	171.01
408.229	35.84
408.438	37.89
408.646	-35.84
408.855	97.28
409.064	105.47
409.272	31.74
409.481	89.09
409.69	-27.65
409.898	-27.65
410.107	97.28
410.315	134.14
410.524	-13.31
410.733	109.57
410.941	27.65
411.15	91.13
411.358	95.23
411.567	179.2
411.775	-19.46
411.984	-13.31
412.192	80.89
412.401	66.56
412.609	54.27
412.818	142.33
413.026	70.65
413.234	29.7
413.443	78.85
413.651	11.26
413.86	5.12
414.068	52.22
414.276	183.29
414.485	-5.12
414.693	128
414.901	111.61
415.11	19.46
415.318	3.07
415.526	56.32
415.734	58.37
415.943	7.17
416.151	179.2
416.359	-1.02
416.567	27.65
416.776	15.36
416.984	11.26
417.192	117.76
417.4	9.22
417.608	1.02
417.817	17.41
418.025	54.27
418.233	113.66
418.441	-70.65
418.649	37.89
418.857	41.98
419.065	97.28
419.273	15.36
419.481	125.95
419.689	91.13
419.897	72.7
420.105	29.7
420.313	113.66
420.521	113.66
420.729	113.66
420.937	84.99
421.145	-27.65
421.353	103.42
421.561	132.09
421.769	82.94
421.977	39.94
422.185	152.57
422.393	23.55
422.601	56.32
422.809	93.18
423.017	46.08
423.224	70.65
423.432	148.48
423.64	-5.12
423.848	150.53
424.056	13.31
424.263	171.01
424.471	27.65
424.679	179.2
424.887	-41.98
425.094	183.29
425.302	64.51
425.51	37.89
425.718	142.33
425.925	144.38
426.133	19.46
426.341	179.2
426.548	-7.17
426.756	130.05
426.964	130.05
427.171	-37.89
427.379	93.18
427.586	140.29
427.794	84.99
428.001	125.95
428.209	121.85
428.417	252.92
428.624	150.53
428.832	72.7
429.039	91.13
429.247	128
429.454	128
429.662	183.29
429.869	146.43
430.076	48.13
430.284	220.16
430.491	246.78
430.699	125.95
430.906	166.91
431.114	144.38
431.321	78.85
431.528	142.33
431.736	171.01
431.943	130.05
432.15	140.29
432.358	236.54
432.565	263.16
432.772	50.18
432.979	171.01
433.187	158.72
433.394	222.2
433.601	117.76
433.808	289.79
434.016	207.87
434.223	236.54
434.43	199.68
434.637	248.83
434.844	263.16
435.052	279.55
435.259	211.96
435.466	285.69
435.673	351.23
435.88	277.5
436.087	357.37
436.294	302.08
436.501	365.56
436.708	275.45
436.915	226.3
437.122	334.84
437.329	295.93
437.537	302.08
437.743	431.1
437.95	351.23
438.157	445.43
438.364	330.75
438.571	340.99
438.778	414.71
438.985	404.47
439.192	537.59
439.399	490.49
439.606	537.59
439.813	498.68
440.02	660.47
440.227	609.27
440.433	519.16
440.64	541.69
440.847	592.89
441.054	623.61
441.261	766.96
441.467	572.41
441.674	635.89
441.881	613.37
442.088	699.38
442.294	750.58
442.501	838.64
442.708	828.4
442.914	777.2
443.121	955.38
443.328	928.75
443.534	1061.87
443.741	928.75
443.948	809.97
444.154	1014.77
444.361	1266.67
444.568	1084.4
444.774	1063.92
444.981	1037.3
445.187	1180.65
445.394	1188.85
445.6	1168.37
445.807	1334.25
446.013	1342.44
446.22	1311.72
446.426	1446.89
446.633	1496.04
446.839	1713.13
447.046	1520.62
447.252	1731.56
447.459	1618.92
447.665	1805.28
447.871	1778.66
448.078	1938.4
448.284	2022.37
448.491	2042.85
448.697	2048.99
448.903	2243.55
449.11	2280.41
449.316	2171.87
449.522	2466.78
449.728	2511.83
449.935	2622.42
450.141	2552.79
450.347	2735.06
450.553	2769.88
450.76	2866.13
450.966	3027.92
451.172	3128.27
451.378	3251.15
451.584	3290.06
451.791	3589.07
451.997	3595.21
452.203	3847.11
452.409	3840.97
452.615	4074.43
452.821	3961.8
453.027	4109.25
453.233	4527.03
453.44	4381.63
453.646	4631.48
453.852	4774.84
454.058	4991.92
454.264	5180.34
454.47	5561.26
454.676	5569.45
454.882	6138.79
455.088	5880.74
455.294	6237.09
455.5	6552.48
455.705	6826.9
455.911	6966.17
456.117	7023.51
456.323	7285.65
456.529	7230.35
456.735	8063.88
456.941	8278.91
457.147	8416.13
457.352	8594.3
457.558	8817.53
457.764	9507.69
457.97	9671.53
458.176	9870.19
458.381	10607.45
458.587	10797.92
458.793	11189.08
458.999	11244.37
459.204	12573.5
459.41	13335.35
459.616	12911.42
459.821	13765.42
460.027	14293.8
460.233	15031.07
460.438	14965.53
460.644	16053
460.85	16022.28
461.055	16618.24
461.261	17332.98
461.466	17183.48
461.672	17378.04
461.878	19684.05
462.083	19309.27
462.289	19819.22
462.494	20548.29
462.7	20798.15
462.905	20693.7
463.111	22446.76
463.316	23552.66
463.522	24062.61
463.727	24783.49
463.932	26163.82
464.138	26792.55
464.343	27437.66
464.549	27953.75
464.754	29850.17
464.959	30851.63
465.165	31177.25
465.37	30876.2
465.575	31345.19
465.781	32936.46
465.986	34228.73
466.191	33706.49
466.397	33942.01
466.602	33098.25
466.807	35193.32
467.012	35527.14
467.218	36354.52
467.423	36114.9
467.628	37032.39
467.833	38992.3
468.038	38382.01
468.244	37773.76
468.449	39586.21
468.654	38857.14
468.859	39141.8
469.064	39068.08
469.269	38183.35
469.474	38099.39
469.679	39276.97
469.885	38441.4
470.09	38789.55
470.295	39109.04
470.5	38150.59
470.705	38554.04
470.91	37437.89
471.115	37290.44
471.32	37659.07
471.525	37548.48
471.73	36430.29
471.935	36620.75
472.139	34857.45
472.344	34687.47
472.549	34945.51
472.754	33788.41
472.959	33413.63
473.164	32569.87
473.369	31576.61
473.574	32518.67
473.778	32129.56
473.983	31138.34
474.188	30958.12
474.393	29317.7
474.598	29325.89
474.802	28772.94
475.007	28480.08
475.212	27914.84
475.417	26837.61
475.621	26808.93
475.826	26251.89
476.031	25936.5
476.235	25258.62
476.44	25424.51
476.645	24595.08
476.849	24253.07
477.054	23988.88
477.259	23515.8
477.463	23192.22
477.668	22829.73
477.872	22706.85
478.077	22325.93
478.282	21404.35
478.486	21297.85
478.691	21148.35
478.895	20908.74
479.1	20841.15
479.304	20619.97
479.509	19974.86
479.713	20069.07
479.918	19641.04
480.122	19346.14
480.326	19520.21
480.531	19389.14
480.735	19356.38
480.94	18975.45
481.144	19315.42
481.348	18496.23
481.553	18426.6
481.757	18051.82
481.961	18334.44
482.166	18246.38
482.37	18326.25
482.574	17308.41
482.778	17709.81
482.983	17640.18
483.187	17412.85
483.391	17398.52
483.595	17126.14
483.8	17079.04
484.004	17015.55
484.208	17083.13
484.412	16481.03
484.616	16454.4
484.821	16161.55
485.025	15803.15
485.229	15817.49
485.433	15602.45
485.637	15633.17
485.841	15270.68
486.045	15094.55
486.249	14930.72
486.453	14703.39
486.657	14422.82
486.861	14416.68
487.065	13921.07
487.269	14015.27
487.473	13097.78
487.677	13513.52
487.881	13202.23
488.085	12897.08
488.289	12665.66
488.493	12542.78
488.697	12579.65
488.901	12231.49
489.105	11932.49
489.309	11844.43
489.512	11578.19
489.716	11412.31
489.92	10840.92
490.124	10926.94
490.328	10775.39
490.531	10349.41
490.735	10619.74
490.939	10257.25
491.143	9792.36
491.346	9933.67
491.55	9726.83
491.754	9524.08
491.958	9304.95
492.161	9137.01
492.365	8747.9
492.569	8952.7
492.772	8588.16
492.976	8657.79
493.18	8319.87
493.383	8330.11
493.587	8215.43
493.79	8063.88
493.994	8012.68
494.197	7756.68
494.401	8047.49
494.605	7822.22
494.808	7787.4
495.012	7517.07
495.215	7596.94
495.419	7662.48
495.622	7412.62
495.825	7383.95
496.029	7287.7
496.232	7459.73
496.436	7191.44
496.639	7363.47
496.843	7367.57
497.046	7213.97
497.249	7199.63
497.453	7269.27
497.656	7183.25
497.859	7197.59
498.063	7132.05
498.266	7203.73
498.469	6994.84
498.673	7068.56
498.876	7119.76
499.079	7349.14
499.282	7275.41
499.485	7279.5
499.689	7240.59
499.892	7408.53
500.095	7263.12
500.298	7426.96
500.501	7160.72
500.705	7568.27
500.908	7642
501.111	7527.31
501.314	7558.03
501.517	7654.28
501.72	8106.88
501.923	7959.43
502.126	7951.24
502.329	8203.14
502.532	7930.76
502.735	8117.12
502.938	8219.52
503.141	8223.62
503.344	8305.54
503.547	8582.01
503.75	8670.08
503.953	8506.24
504.156	9001.85
504.359	8840.06
504.562	8835.96
504.765	8979.32
504.968	9294.71
505.17	9284.47
505.373	9618.29
505.576	9802.6
505.779	9661.29
505.982	9968.49
506.185	10122.09
506.387	10173.28
506.59	10216.29
506.793	10681.18
506.996	10629.98
507.198	11055.96
507.401	11103.06
507.604	11279.19
507.807	11404.11
508.009	11793.23
508.212	11680.59
508.415	12202.82
508.617	12577.6
508.82	12467.01
509.022	12430.15
509.225	13095.74
509.428	13337.4
509.63	13624.11
509.833	13630.26
510.035	14603.04
510.238	14400.29
510.44	14809.89
510.643	15080.22
510.845	15534.87
511.048	15463.19
511.25	15807.25
511.453	16309
511.655	17349.37
511.858	16947.97
512.06	17539.83
512.262	18205.42
512.465	18156.27
512.667	18604.77
512.87	18594.53
513.072	19303.13
513.274	20138.7
513.477	20237
513.679	20564.68
513.881	21289.66
514.084	21910.19
514.286	22104.75
514.488	22581.93
514.69	23415.45
514.893	23782.04
515.095	24259.21
515.297	24816.26
515.499	25158.27
515.701	25244.29
515.904	26237.55
516.106	26669.67
516.308	27177.57
516.51	28004.95
516.712	28111.44
516.914	28959.3
517.116	29551.17
517.318	29854.26
517.52	30761.51
517.722	31212.07
517.925	31707.68
518.127	32242.2
518.329	32920.07
518.531	33182.21
518.733	33763.84
518.935	34585.07
519.136	34884.08
519.338	35568.1
519.54	36266.45
519.742	36680.14
519.944	37149.13
520.146	38007.23
520.348	38234.55
520.55	38603.19
520.752	38805.94
520.954	40108.44
521.155	39870.88
521.357	40796.56
521.559	41216.4
521.761	41914.75
521.963	41580.93
522.164	42365.31
522.366	42731.89
522.568	43106.67
522.77	43577.7
522.971	44620.12
523.173	43682.15
523.375	44263.77
523.576	44292.44
523.778	44278.11
523.98	45171.02
524.181	45281.61
524.383	45631.82
524.584	45515.08
524.786	45209.93
524.988	45588.81
525.189	46371.13
525.391	46211.39
525.592	46092.61
525.794	46362.94
525.995	45994.31
526.197	46102.85
526.398	45924.68
526.6	45795.65
526.801	46143.81
527.003	45879.62
527.204	45699.4
527.406	45945.15
527.607	45777.22
527.808	45957.44
528.01	44759.38
528.211	45005.14
528.412	45064.53
528.614	45244.75
528.815	44241.24
529.016	44900.69
529.218	43303.28
529.419	43458.92
529.62	43131.25
529.822	43237.74
530.023	41963.9
530.224	42068.35
530.425	41638.28
530.626	41169.29
530.828	40556.95
531.029	40878.48
531.23	40006.05
531.431	39498.15
531.632	39639.46
531.833	39219.63
532.035	37931.45
532.236	37843.39
532.437	37695.94
532.638	36817.36
532.839	36794.83
533.04	36524.5
533.241	35582.43
533.442	35928.54
533.643	34875.88
533.844	34499.06
534.045	34173.43
534.246	33311.24
534.447	33677.82
534.648	32854.54
534.849	32342.55
535.05	32119.32
535.251	31707.68
535.451	31042.09
535.652	30935.59
535.853	30061.11
536.054	29614.65
536.255	29737.53
536.456	28873.29
536.657	29043.27
536.857	28293.71
537.058	27771.48
537.259	27626.07
537.46	27284.06
537.66	27011.68
537.861	26501.74
538.062	26358.38
538.263	25856.63
538.463	25418.36
538.664	25195.14
538.865	25021.06
539.065	24752.77
539.266	24156.82
539.466	24019.6
539.667	23419.55
539.868	23691.93
540.068	23202.46
540.269	22925.99
540.469	22690.47
540.67	22469.29
540.87	22280.88
541.071	21926.58
541.271	21607.09
541.472	21603
541.672	21195.45
541.873	20894.4
542.073	20275.91
542.274	20527.81
542.474	20331.21
542.675	19942.1
542.875	19940.05
543.075	19751.63
543.276	19282.65
543.476	19143.39
543.676	18639.59
543.877	18522.85
544.077	18404.07
544.277	18365.16
544.478	18023.15
544.678	18080.49
544.878	17832.69
545.078	17576.69
545.279	17255.16
545.479	16933.63
545.679	16915.2
545.879	16734.98
546.079	16798.46
546.28	16122.63
546.48	16007.95
546.68	16206.6
546.88	16235.27
547.08	15940.36
547.28	15545.11
547.48	14916.38
547.68	15213.34
547.88	14859.04
548.081	14793.5
548.281	14592.8
548.481	14453.54
548.681	14408.48
548.881	14154.54
549.081	13615.92
549.28	13562.67
549.48	13302.58
549.68	13237.05
549.88	13511.47
550.08	12809.02
550.28	12720.96
550.48	12677.95
550.68	12481.35
550.88	12198.73
551.08	12012.36
551.279	11785.04
551.479	11690.83
551.679	11815.76
551.879	11227.99
552.079	11162.45
552.278	10990.42
552.478	10892.12
552.678	11119.45
552.878	10711.9
553.077	10572.64
553.277	10177.38
553.477	10173.28
553.676	9943.91
553.876	9704.3
554.076	9677.68
554.275	9507.69
554.475	9159.54
554.674	9329.52
554.874	9134.96
555.074	8938.36
555.273	8827.77
555.473	8860.54
555.672	8270.72
555.872	8313.73
556.071	8237.95
556.271	8285.06
556.47	8020.87
556.67	7857.03
556.869	7762.83
557.068	7721.87
557.268	7406.48
557.467	7302.03
557.667	7162.77
557.866	7140.24
558.065	7035.8
558.265	6906.77
558.464	6730.65
558.663	6761.37
558.863	6591.39
559.062	6538.14
559.261	6390.69
559.461	6429.6
559.66	6118.31
559.859	5886.89
560.058	5874.6
560.258	5831.59
560.457	5690.28
560.656	5716.9
560.855	5598.12
561.054	5575.59
561.253	5522.35
561.453	5479.34
561.652	5317.55
561.851	5217.2
562.05	5170.1
562.249	4969.4
562.448	4826.04
562.647	4756.41
562.846	4838.33
563.045	4742.07
563.244	4412.35
563.443	4805.56
563.642	4402.11
563.841	4484.03
564.04	4289.47
564.239	4551.61
564.438	4303.81
564.637	4172.74
564.836	4111.3
565.035	4033.47
565.234	4015.04
565.432	4068.29
565.631	3824.58
565.83	3849.16
566.029	3636.17
566.228	3498.95
566.427	3771.33
566.625	3566.54
566.824	3455.95
567.023	3466.19
567.222	3378.12
567.42	3394.51
567.619	3421.13
567.818	3208.14
568.016	3447.76
568.215	3245.01
568.414	3259.34
568.612	3034.07
568.811	3072.98
569.01	3111.89
569.208	2970.58
569.407	2976.72
569.605	2974.67
569.804	2792.41
570.002	2761.69
570.201	2804.69
570.4	2685.91
570.598	2685.91
570.797	2726.87
570.995	2489.31
571.193	2548.7
571.392	2616.28
571.59	2505.69
571.789	2419.68
571.987	2530.27
572.186	2462.68
572.384	2307.04
572.582	2292.7
572.781	2354.14
572.979	2167.77
573.177	2182.11
573.376	2200.54
573.574	2114.53
573.772	2155.49
573.971	2110.43
574.169	1944.55
574.367	2114.53
574.565	1960.93
574.763	1913.83
574.962	1786.85
575.16	1907.68
575.358	1838.05
575.556	1727.46
575.754	1801.19
575.952	1801.19
576.151	1827.81
576.349	1807.33
576.547	1635.3
576.745	1743.85
576.943	1614.82
577.141	1600.49
577.339	1555.43
577.537	1600.49
577.735	1625.06
577.933	1620.97
578.131	1440.75
578.329	1588.2
578.527	1414.12
578.725	1463.27
578.923	1309.68
579.121	1471.47
579.319	1338.35
579.516	1268.72
579.714	1496.04
579.912	1352.68
580.11	1172.46
580.308	1227.76
580.506	1242.09
580.704	1096.69
580.901	1129.45
581.099	1219.57
581.297	1203.18
581.495	1205.23
581.692	1043.44
581.89	1244.14
582.088	1201.13
582.285	1029.1
582.483	973.81
582.681	1047.54
582.878	1063.92
583.076	961.52
583.274	1094.64
583.471	1137.65
583.669	900.08
583.866	830.45
584.064	982
584.262	824.31
584.459	818.16
584.657	900.08
584.854	826.36
585.052	930.8
585.249	984.05
585.447	840.69
585.644	709.62
585.841	926.71
586.039	908.27
586.236	795.64
586.434	773.11
586.631	639.99
586.828	701.43
587.026	850.93
587.223	779.25
587.42	699.38
587.618	812.02
587.815	779.25
588.012	730.1
588.21	662.52
588.407	781.3
588.604	687.09
588.801	695.29
588.999	588.79
589.196	752.63
589.393	666.61
589.59	705.53
589.787	695.29
589.984	680.95
590.182	664.57
590.379	619.51
590.576	635.89
590.773	564.22
590.97	691.19
591.167	590.84
591.364	654.33
591.561	627.7
591.758	705.53
591.955	592.89
592.152	633.85
592.349	570.36
592.546	545.78
592.743	590.84
592.94	549.88
593.137	750.58
593.334	691.19
593.531	662.52
593.727	744.44
593.924	713.72
594.121	674.81
594.318	627.7
594.515	599.03
594.712	748.53
594.908	738.29
595.105	601.08
595.302	723.96
595.499	676.85
595.696	744.44
595.892	603.13
596.089	736.24
596.286	627.7
596.482	789.49
596.679	736.24
596.876	750.58
597.072	838.64
597.269	771.06
597.466	848.88
597.662	893.94
597.859	857.07
598.055	902.13
598.252	1010.67
598.448	1063.92
598.645	1111.02
598.841	1059.82
599.038	1129.45
599.234	1219.57
599.431	1217.52
599.627	1235.95
599.824	1360.88
600.02	1287.15
600.217	1285.1
600.413	1416.17
600.609	1446.89
600.806	1735.65
601.002	1584.1
601.198	1600.49
601.395	1735.65
601.591	1823.72
601.787	1829.86
601.984	1889.25
602.18	1987.55
602.376	2073.57
602.572	2135.01
602.769	2276.32
602.965	2233.31
603.161	2407.39
603.357	2489.31
603.553	2624.47
603.75	2497.5
603.946	2767.83
604.142	2823.12
604.338	2892.76
604.534	2962.39
604.73	3156.94
604.926	3066.83
605.122	3410.89
605.318	3292.11
605.514	3541.96
605.71	3521.48
605.906	3625.93
606.102	3793.86
606.298	3906.5
606.494	4107.2
606.69	4355.01
606.886	4297.66
607.082	4340.67
607.278	4606.91
607.474	4719.54
607.67	4768.7
607.866	4971.44
608.062	5241.78
608.257	5225.39
608.453	5393.33
608.649	5422
608.845	5569.45
609.041	5741.48
609.236	6081.44
609.432	6165.41
609.628	6323.1
609.824	6445.98
610.019	6618.01
610.215	6824.86
610.411	6980.5
610.606	7191.44
610.802	7527.31
610.998	7666.57
611.193	7885.7
611.389	7842.7
611.584	8018.82
611.78	8260.48
611.976	8557.44
612.171	8872.82
612.367	9124.72
612.562	9188.21
612.758	9481.07
612.953	9450.35
613.149	10017.64
613.344	10175.33
613.539	10535.78
613.735	10662.75
613.93	11203.41
614.126	11107.16
614.321	11676.49
614.517	11778.89
614.712	12159.81
614.907	12536.64
615.103	12870.46
615.298	13022.01
615.493	13617.97
615.688	13519.67
615.884	14420.77
616.079	14254.89
616.274	14756.64
616.47	15266.58
616.665	15653.65
616.86	15852.3
617.055	16468.74
617.25	16769.79
617.445	17527.54
617.641	17529.59
617.836	18029.29
618.031	18508.52
618.226	19088.09
618.421	19405.53
618.616	19667.67
618.811	19884.75
619.006	20703.94
619.201	20898.5
619.396	21641.91
619.591	21887.67
619.786	22504.1
619.981	22713
620.176	23550.62
620.371	23714.45
620.566	24357.52
620.761	24896.13
620.956	25518.71
621.151	25703.03
621.346	26481.26
621.541	26753.64
621.735	27613.79
621.93	27974.23
622.125	28355.15
622.32	28613.2
622.515	29393.47
622.709	29647.42
622.904	30585.39
623.099	30982.7
623.294	31779.36
623.488	32002.58
623.683	32416.27
623.878	32586.25
624.072	33657.34
624.267	34337.27
624.462	34697.71
624.656	35090.92
624.851	36045.27
625.046	35822.05
625.24	36839.89
625.435	36727.25
625.629	38019.52
625.824	38115.77
626.018	39041.45
626.213	38756.78
626.407	39420.33
626.602	39752.1
626.796	40479.13
626.991	40632.72
627.185	41120.14
627.38	41126.28
627.574	41439.62
627.768	41669
627.963	41900.42
628.157	41763.2
628.352	42502.52
628.546	41580.93
628.74	42785.14
628.935	42092.93
629.129	42557.81
629.323	42092.93
629.517	42115.45
629.712	41580.93
629.906	41550.21
630.1	41038.22
630.294	41042.32
630.489	40335.77
630.683	40223.13
630.877	38941.1
631.071	38578.61
631.265	38515.12
631.459	37618.11
631.653	36684.24
631.848	36237.78
632.042	35273.19
632.236	34449.91
632.43	33352.2
632.624	32875.02
632.818	31736.35
633.012	30390.83
633.206	29788.73
633.4	29372.99
633.594	27742.81
633.788	27286.11
633.982	26290.8
634.176	25610.87
634.369	24199.82
634.563	23497.37
634.757	22553.26
634.951	21930.67
635.145	21115.58
635.339	20318.92
635.533	19251.93
635.726	18397.93
635.92	17627.89
636.114	17072.89
636.308	16349.96
636.501	15876.88
636.695	15039.26
636.889	14287.65
637.083	14091.05
637.276	13554.48
637.47	12895.04
637.664	12237.64
637.857	11961.16
638.051	11381.59
638.244	10881.88
638.438	10634.08
638.632	10185.57
638.825	9448.3
639.019	9210.74
639.212	8782.71
639.406	8520.57
639.599	8078.21
639.793	7953.29
639.986	7648.14
640.18	7265.17
640.373	6876.06
640.567	6695.83
640.76	6618.01
640.954	6216.61
641.147	5753.77
641.34	5778.34
641.534	5544.88
641.727	5354.41
641.92	5053.36
642.114	4985.78
642.307	4737.98
642.5	4611
642.694	4471.74
642.887	4029.38
643.08	4193.22
643.273	3926.98
643.467	3746.76
643.66	3582.92
643.853	3462.09
644.046	3339.21
644.239	3204.05
644.432	3060.69
644.626	2878.42
644.819	2845.65
645.012	2796.5
645.205	2728.92
645.398	2679.77
645.591	2456.54
645.784	2276.32
645.977	2292.7
646.17	2137.06
646.363	2137.06
646.556	1954.79
646.749	1815.52
646.942	1899.49
647.135	1788.9
647.328	1741.8
647.521	1747.94
647.714	1532.9
647.907	1580.01
648.099	1524.71
648.292	1522.66
648.485	1342.44
648.678	1371.12
648.871	1176.56
649.064	1274.86
649.256	1098.74
649.449	1244.14
649.642	1047.54
649.835	1088.5
650.027	1022.96
650.22	1055.73
650.413	1006.58
650.605	1041.39
650.798	898.03
650.991	785.4
651.183	824.31
651.376	848.88
651.568	889.84
651.761	695.29
651.954	803.83
652.146	619.51
652.339	699.38
652.531	779.25
652.724	570.36
652.916	637.94
653.109	521.21
653.301	713.72
653.494	594.93
653.686	543.74
653.879	506.87
654.071	611.32
654.263	449.53
654.456	459.77
654.648	580.6
654.84	547.83
655.033	345.08
655.225	556.02
655.417	418.81
655.61	523.26
655.802	461.82
655.994	539.64
656.186	383.99
656.379	439.29
656.571	297.98
656.763	349.18
656.955	351.23
657.148	322.56
657.34	431.1
657.532	312.32
657.724	203.77
657.916	328.7
658.108	449.53
658.3	302.08
658.492	334.84
658.684	240.64
658.876	312.32
659.068	246.78
659.26	273.4
659.452	162.81
659.644	289.79
659.836	326.65
660.028	359.42
660.22	234.49
660.412	318.46
660.604	322.56
660.796	267.26
660.988	295.93
661.18	275.45
661.372	277.5
661.563	216.06
661.755	228.35
661.947	146.43
662.139	177.15
662.331	259.07
662.522	228.35
662.714	150.53
662.906	183.29
663.097	183.29
663.289	154.62
663.481	168.96
663.673	156.67
663.864	207.87
664.056	222.2
664.247	218.11
664.439	257.02
664.631	201.72
664.822	109.57
665.014	240.64
665.205	177.15
665.397	121.85
665.588	207.87
665.78	154.62
665.971	207.87
666.163	132.09
666.354	214.01
666.546	136.19
666.737	179.2
666.929	195.58
667.12	84.99
667.311	211.96
667.503	97.28
667.694	160.77
667.885	140.29
668.077	193.53
668.268	7.17
668.459	146.43
668.651	158.72
668.842	216.06
669.033	74.75
669.224	84.99
669.416	283.64
669.607	152.57
669.798	78.85
669.989	228.35
670.18	191.49
670.371	273.4
670.563	146.43
670.754	273.4
670.945	244.73
671.136	261.12
671.327	177.15
671.518	254.97
671.709	226.3
671.9	148.48
672.091	246.78
672.282	154.62
672.473	136.19
672.664	175.1
672.855	209.92
673.046	207.87
673.237	261.12
673.428	103.42
673.619	203.77
673.809	121.85
674	236.54
674.191	228.35
674.382	226.3
674.573	228.35
674.764	267.26
674.954	191.49
675.145	125.95
675.336	109.57
675.527	89.09
675.717	171.01
675.908	244.73
676.099	121.85
676.289	244.73
676.48	136.19
676.671	199.68
676.861	177.15
677.052	238.59
677.243	138.24
677.433	93.18
677.624	228.35
677.814	310.27
678.005	242.68
678.195	336.89
678.386	166.91
678.576	242.68
678.767	132.09
678.957	185.34
679.148	242.68
679.338	318.46
679.529	269.31
679.719	261.12
679.909	347.13
680.1	369.66
680.29	238.59
680.481	158.72
680.671	289.79
680.861	347.13
681.052	191.49
681.242	302.08
681.432	267.26
681.622	273.4
681.813	216.06
682.003	244.73
682.193	220.16
682.383	203.77
682.573	250.88
682.764	310.27
682.954	302.08
683.144	404.47
683.334	318.46
683.524	269.31
683.714	324.6
683.904	275.45
684.094	273.4
684.284	263.16
684.474	386.04
684.664	416.76
684.854	310.27
685.044	238.59
685.234	349.18
685.424	330.75
685.614	263.16
685.804	449.53
685.994	269.31
686.184	383.99
686.374	345.08
686.564	269.31
686.753	302.08
686.943	269.31
687.133	314.36
687.323	289.79
687.513	326.65
687.702	287.74
687.892	265.21
688.082	359.42
688.272	357.37
688.461	402.43
688.651	461.82
688.841	304.12
689.03	312.32
689.22	383.99
689.41	355.32
689.599	375.8
689.789	340.99
689.979	390.14
690.168	367.61
690.358	293.88
690.547	375.8
690.737	318.46
690.926	343.03
691.116	361.47
691.305	326.65
691.495	332.79
691.684	214.01
691.874	211.96
692.063	291.84
692.252	336.89
692.442	349.18
692.631	269.31
692.82	236.54
693.01	308.22
693.199	343.03
693.388	340.99
693.578	330.75
693.767	365.56
693.956	367.61
694.146	273.4
694.335	326.65
694.524	343.03
694.713	351.23
694.902	259.07
695.092	222.2
695.281	265.21
695.47	269.31
695.659	244.73
695.848	295.93
696.037	302.08
696.226	281.6
696.415	228.35
696.604	351.23
696.793	338.94
696.982	279.55
697.171	375.8
697.36	304.12
697.549	316.41
697.738	203.77
697.927	273.4
698.116	238.59
698.305	316.41
698.494	304.12
698.683	252.92
698.872	390.14
699.061	357.37
699.25	224.25
699.438	314.36
699.627	236.54
699.816	457.72
700.005	209.92
700.193	269.31
700.382	322.56
700.571	365.56
700.76	252.92
700.948	328.7
701.137	351.23
701.326	289.79
701.514	293.88
701.703	324.6
701.892	269.31
702.08	422.91
702.269	187.39
702.457	175.1
702.646	259.07
702.834	316.41
703.023	302.08
703.212	332.79
703.4	291.84
703.589	240.64
703.777	261.12
703.965	224.25
704.154	216.06
704.342	261.12
704.531	285.69
704.719	322.56
704.907	375.8
705.096	252.92
705.284	171.01
705.472	273.4
705.661	300.03
705.849	361.47
706.037	353.27
706.226	353.27
706.414	279.55
706.602	234.49
706.79	343.03
706.979	269.31
707.167	285.69
707.355	175.1
707.543	326.65
707.731	318.46
707.919	314.36
708.107	293.88
708.296	236.54
708.484	189.44
708.672	265.21
708.86	267.26
709.048	277.5
709.236	293.88
709.424	275.45
709.612	293.88
709.8	201.72
709.988	328.7
710.176	328.7
710.364	433.15
710.551	285.69
710.739	224.25
710.927	254.97
711.115	347.13
711.303	277.5
711.491	367.61
711.679	234.49
711.866	195.58
712.054	308.22
712.242	283.64
712.43	340.99
712.617	203.77
712.805	338.94
712.993	293.88
713.181	179.2
713.368	326.65
713.556	271.36
713.744	293.88
713.931	449.53
714.119	355.32
714.306	304.12
714.494	271.36
714.682	355.32
714.869	164.86
715.057	289.79
715.244	207.87
715.432	359.42
715.619	244.73
715.807	330.75
715.994	293.88
716.182	318.46
716.369	334.84
716.556	386.04
716.744	209.92
716.931	230.4
717.119	324.6
717.306	381.95
717.493	351.23
717.681	185.34
717.868	318.46
718.055	365.56
718.242	271.36
718.43	318.46
718.617	369.66
718.804	277.5
718.991	439.29
719.179	340.99
719.366	289.79
719.553	359.42
719.74	297.98
719.927	310.27
720.114	277.5
720.301	240.64
720.488	302.08
720.676	265.21
720.863	457.72
721.05	400.38
721.237	390.14
721.424	408.57
721.611	293.88
721.798	216.06
721.985	312.32
722.172	383.99
722.358	392.19
722.545	371.71
722.732	345.08
722.919	390.14
723.106	359.42
723.293	365.56
723.48	324.6
723.667	234.49
723.853	420.86
724.04	334.84
724.227	447.48
724.414	302.08
724.6	453.63
724.787	484.34
724.974	463.86
725.161	394.23
725.347	277.5
725.534	355.32
725.72	386.04
725.907	390.14
726.094	383.99
726.28	326.65
726.467	343.03
726.653	257.02
726.84	375.8
727.027	431.1
727.213	316.41
727.4	365.56
727.586	310.27
727.773	289.79
727.959	332.79
728.145	402.43
728.332	414.71
728.518	347.13
728.705	383.99
728.891	392.19
729.077	406.52
729.264	355.32
729.45	320.51
729.636	402.43
729.823	424.95
730.009	486.39
730.195	365.56
730.382	463.86
730.568	375.8
730.754	312.32
730.94	418.81
731.126	439.29
731.313	400.38
731.499	410.62
731.685	343.03
731.871	451.58
732.057	406.52
732.243	408.57
732.429	453.63
732.615	445.43
732.801	427
732.987	371.71
733.173	394.23
733.359	318.46
733.545	427
733.731	408.57
733.917	455.67
734.103	422.91
734.289	490.49
734.475	396.28
734.661	396.28
734.847	406.52
735.033	392.19
735.219	402.43
735.404	398.33
735.59	367.61
735.776	304.12
735.962	449.53
736.148	404.47
736.333	488.44
736.519	465.91
736.705	396.28
736.89	461.82
737.076	394.23
737.262	371.71
737.447	332.79
737.633	463.86
737.819	420.86
738.004	488.44
738.19	371.71
738.375	429.05
738.561	465.91
738.747	447.48
738.932	363.51
739.118	482.3
739.303	433.15
739.489	465.91
739.674	474.1
739.859	383.99
740.045	500.73
740.23	402.43
740.416	175.1
740.601	390.14
740.786	371.71
740.972	400.38
741.157	322.56
741.342	394.23
741.528	318.46
741.713	517.11
741.898	326.65
742.084	416.76
742.269	383.99
742.454	463.86
742.639	531.45
742.824	383.99
743.01	482.3
743.195	412.67
743.38	412.67
743.565	424.95
743.75	375.8
743.935	381.95
744.12	461.82
744.305	244.73
744.49	351.23
744.675	398.33
744.86	363.51
745.045	433.15
745.23	453.63
745.415	367.61
745.6	461.82
745.785	355.32
745.97	412.67
746.155	388.09
746.34	375.8
746.525	369.66
746.71	445.43
746.895	314.36
747.079	293.88
747.264	300.03
747.449	349.18
747.634	506.87
747.819	457.72
748.003	351.23
748.188	343.03
748.373	488.44
748.557	400.38
748.742	355.32
748.927	375.8
749.111	381.95
749.296	371.71
749.481	316.41
749.665	375.8
749.85	347.13
750.034	351.23
750.219	330.75
750.404	287.74
750.588	273.4
750.773	396.28
750.957	361.47
751.141	369.66
751.326	300.03
751.51	285.69
751.695	324.6
751.879	277.5
752.064	388.09
752.248	261.12
752.432	367.61
752.617	406.52
752.801	383.99
752.985	308.22
753.17	400.38
753.354	343.03
753.538	310.27
753.722	195.58
753.907	250.88
754.091	162.81
754.275	328.7
754.459	224.25
754.643	261.12
754.828	308.22
755.012	330.75
755.196	211.96
755.38	316.41
755.564	275.45
755.748	228.35
755.932	261.12
756.116	281.6
756.3	277.5
756.484	189.44
756.668	365.56
756.852	160.77
757.036	259.07
757.22	242.68
757.404	173.05
757.588	207.87
757.772	312.32
757.956	224.25
758.14	289.79
758.323	224.25
758.507	216.06
758.691	168.96
758.875	211.96
759.059	357.37
759.242	277.5
759.426	193.53
759.61	209.92
759.794	201.72
759.977	275.45
760.161	361.47
760.345	248.83
760.528	338.94
760.712	259.07
760.895	228.35
761.079	252.92
761.263	121.85
761.446	113.66
761.63	252.92
761.813	314.36
761.997	195.58
762.18	125.95
762.364	218.11
762.547	93.18
762.731	130.05
762.914	130.05
763.098	128
763.281	162.81
763.464	265.21
763.648	162.81
763.831	166.91
764.015	175.1
764.198	191.49
764.381	236.54
764.564	193.53
764.748	95.23
764.931	228.35
765.114	175.1
765.297	224.25
765.481	154.62
765.664	152.57
765.847	166.91
766.03	269.31
766.213	93.18
766.397	171.01
766.58	162.81
766.763	257.02
766.946	146.43
767.129	162.81
767.312	78.85
767.495	138.24
767.678	84.99
767.861	136.19
768.044	185.34
768.227	138.24
768.41	189.44
768.593	150.53
768.776	111.61
768.959	179.2
769.142	171.01
769.324	248.83
769.507	130.05
769.69	72.7
769.873	144.38
770.056	254.97
770.239	115.71
770.421	207.87
770.604	203.77
770.787	160.77
770.97	136.19
771.152	56.32
771.335	158.72
771.518	56.32
771.7	103.42
771.883	261.12
772.066	105.47
772.248	119.81
772.431	146.43
772.613	197.63
772.796	130.05
772.978	166.91
773.161	246.78
773.343	115.71
773.526	93.18
773.708	3.07
773.891	5.12
774.073	113.66
774.256	44.03
774.438	242.68
774.621	60.42
774.803	140.29
774.985	54.27
775.168	191.49
775.35	101.37
775.532	158.72
775.715	115.71
775.897	144.38
776.079	136.19
776.261	154.62
776.444	89.09
776.626	84.99
776.808	121.85
776.99	1.02
777.173	119.81
777.355	60.42
777.537	148.48
777.719	132.09
777.901	44.03
778.083	128
778.265	37.89
778.447	144.38
778.629	64.51
778.811	39.94
778.993	103.42
779.175	195.58
779.357	121.85
779.539	-11.26
779.721	125.95
779.903	177.15
780.085	21.5
780.267	113.66
780.449	56.32
780.631	173.05
780.812	211.96
780.994	80.89
781.176	7.17
781.358	74.75
781.54	80.89
781.721	134.14
781.903	146.43
782.085	39.94
782.267	209.92
782.448	-13.31
782.63	33.79
782.812	144.38
782.993	156.67
783.175	54.27
783.357	48.13
783.538	54.27
783.72	13.31
783.901	52.22
784.083	130.05
784.264	117.76
784.446	5.12
784.627	5.12
784.809	191.49
784.99	56.32
785.172	78.85
785.353	21.5
785.535	99.33
785.716	-1.02
785.897	-39.94
786.079	-17.41
786.26	109.57
786.441	1.02
786.623	-62.46
786.804	37.89
786.985	74.75
787.167	64.51
787.348	80.89
787.529	21.5
787.71	191.49
787.891	105.47
788.073	109.57
788.254	-52.22
788.435	138.24
788.616	68.61
788.797	64.51
788.978	27.65
789.159	-33.79
789.34	107.52
789.522	9.22
789.703	70.65
789.884	60.42
790.065	82.94
790.246	154.62
790.427	-41.98
790.607	105.47
790.788	-1.02
790.969	-7.17
791.15	50.18
791.331	31.74
791.512	11.26
791.693	-48.13
791.874	35.84
792.054	134.14
792.235	154.62
792.416	25.6
792.597	19.46
792.778	78.85
792.958	82.94
793.139	76.8
793.32	46.08
793.5	-9.22
793.681	125.95
793.862	134.14
794.042	21.5
794.223	-58.37
794.404	-7.17
794.584	-46.08
794.765	23.55
794.945	13.31
795.126	87.04
795.306	80.89
795.487	80.89
795.667	23.55
795.848	27.65
796.028	-23.55
796.209	31.74
796.389	44.03
796.57	3.07
796.75	15.36
796.93	11.26
797.111	1.02
797.291	70.65
797.471	101.37
797.652	41.98
797.832	9.22
798.012	87.04
798.192	-1.02
798.373	-44.03
798.553	15.36
798.733	44.03
798.913	-41.98
799.093	-37.89
799.274	58.37
799.454	48.13
799.634	64.51
799.814	89.09
799.994	99.33
800.174	91.13
800.354	62.46
800.534	-31.74
800.714	60.42
800.894	-72.7
801.074	-23.55
801.254	7.17
801.434	84.99
801.614	35.84
801.794	-9.22
801.974	1651.69
802.154	54.27
802.334	97.28
802.514	-103.42
802.693	89.09
802.873	-54.27
803.053	142.33
803.233	15.36
803.413	72.7
803.592	-82.94
803.772	50.18
803.952	-41.98
804.131	39.94
804.311	82.94
804.491	103.42
804.67	-9.22
804.85	-54.27
805.03	103.42
805.209	191.49
805.389	39.94
805.568	-58.37
805.748	-9.22
805.928	-15.36
806.107	95.23
806.287	48.13
806.466	-25.6
806.646	-1.02
806.825	15.36
807.004	5.12
807.184	-11.26
807.363	101.37
807.543	-13.31
807.722	-15.36
807.901	72.7
808.081	-3.07
808.26	-107.52
808.439	13.31
808.619	25.6
808.798	15.36
808.977	50.18
809.156	27.65
809.336	109.57
809.515	64.51
809.694	-58.37
809.873	-39.94
810.052	62.46
810.231	130.05
810.411	33.79
810.59	64.51
810.769	-17.41
810.948	7.17
811.127	-103.42
811.306	7.17
811.485	-33.79
811.664	107.52
811.843	29.7
812.022	48.13
812.201	11.26
812.38	62.46
812.559	13.31
812.737	19.46
812.916	-76.8
813.095	-121.85
813.274	41.98
813.453	25.6
813.632	62.46
813.811	11.26
813.989	-50.18
814.168	-1.02
814.347	11.26
814.526	-5.12
814.704	130.05
814.883	95.23
815.062	-56.32
815.24	-11.26
815.419	-123.9
815.598	-21.5
815.776	-70.65
815.955	-29.7
816.133	-95.23
816.312	72.7
816.49	-11.26
816.669	27.65
816.847	35.84
817.026	31.74
817.204	33.79
817.383	-29.7
817.561	7.17
817.74	19.46
817.918	-62.46
818.097	-25.6
818.275	-17.41
818.453	7.17
818.632	140.29
818.81	-58.37
818.988	-1.02
819.167	-123.9
819.345	19.46
819.523	29.7
819.701	17.41
819.879	64.51
820.058	-1.02
820.236	23.55
820.414	11.26
820.592	-44.03
820.77	13.31
820.948	-21.5
821.127	-39.94
821.305	11.26
821.483	29.7
821.661	39.94
821.839	46.08
822.017	-19.46
822.195	-58.37
822.373	80.89
822.551	78.85
822.729	7.17
822.907	-41.98
823.085	101.37
823.262	70.65
823.44	-27.65
823.618	-56.32
823.796	-13.31
823.974	-9.22
824.152	-7.17
824.329	-7.17
824.507	-7.17
824.685	19.46
824.863	7.17
825.04	1.02
825.218	56.32
825.396	60.42
825.574	7.17
825.751	-1.02
825.929	72.7
826.107	9.22
826.284	1.02
826.462	5.12
826.639	-91.13
826.817	5.12
826.994	54.27
827.172	-25.6
827.349	123.9
827.527	99.33
827.704	21.5
827.882	15.36
828.059	39.94
828.237	-3.07
828.414	19.46
828.591	-119.81
828.769	-39.94
828.946	-29.7
829.124	31.74
829.301	97.28
829.478	62.46
829.655	-5.12
829.833	54.27
830.01	-107.52
830.187	-9.22
830.364	-52.22
830.542	9.22
830.719	136.19
830.896	9.22
831.073	54.27
831.25	39.94
831.427	39.94
831.604	-91.13
831.782	1.02
831.959	56.32
832.136	-23.55
832.313	56.32
832.49	-25.6
832.667	50.18
832.844	9.22
833.021	175.1
833.198	-33.79
833.374	62.46
833.551	-33.79
833.728	-9.22
833.905	-82.94
834.082	-107.52
834.259	25.6
834.436	68.61
834.612	-52.22
834.789	78.85
834.966	54.27
835.143	-19.46
835.319	-62.46
835.496	48.13
835.673	56.32
835.85	76.8
836.026	99.33
836.203	87.04
836.38	-9.22
836.556	7.17
836.733	-29.7
836.909	113.66
837.086	-56.32
837.262	-62.46
837.439	1.02
837.616	-37.89
837.792	-25.6
837.968	68.61
838.145	-39.94
838.321	7.17
838.498	7.17
838.674	109.57
838.851	29.7
839.027	-5.12
839.203	54.27
839.38	9.22
839.556	7.17
839.732	105.47
839.909	-11.26
840.085	27.65
840.261	-37.89
840.437	44.03
840.614	-44.03
840.79	70.65
840.966	78.85
841.142	-5.12
841.318	-33.79
841.494	19.46
841.671	82.94
841.847	-44.03
842.023	-101.37
842.199	-5.12
842.375	27.65
842.551	-101.37
842.727	-74.75
842.903	91.13
843.079	-91.13
843.255	97.28
843.431	-1.02
843.607	142.33
843.783	-82.94
843.959	-1.02
844.134	-37.89
844.31	115.71
844.486	-66.56
844.662	-29.7
844.838	23.55
845.013	89.09
845.189	56.32
845.365	62.46
845.541	7.17
845.716	19.46
845.892	95.23
846.068	-62.46
846.244	-115.71
846.419	23.55
846.595	-58.37
846.77	-1.02
846.946	37.89
847.122	-52.22
847.297	-17.41
847.473	89.09
847.648	-58.37
847.824	-3.07
847.999	-37.89
848.175	70.65
848.35	-27.65
848.526	39.94
848.701	-11.26
848.876	50.18
849.052	82.94
849.227	64.51
849.403	-33.79
849.578	29.7
849.753	-25.6
849.929	54.27
850.104	-87.04
850.279	35.84
850.454	9.22
850.63	58.37
850.805	23.55
850.98	-15.36
851.155	15.36
851.33	23.55
851.505	-76.8
851.681	56.32
851.856	-33.79
852.031	62.46
852.206	39.94
852.381	-25.6
852.556	19.46
852.731	-52.22
852.906	117.76
853.081	27.65
853.256	111.61
853.431	-29.7
853.606	-1.02
853.781	-64.51
853.956	-58.37
854.131	46.08
854.305	-27.65
854.48	-56.32
854.655	-29.7
854.83	7.17
855.005	7.17
855.18	-19.46
855.354	-60.42
855.529	-5.12
855.704	-3.07
855.879	9.22
856.053	-37.89
856.228	3.07
856.403	-21.5
856.577	15.36
856.752	-35.84
856.926	5.12
857.101	48.13
857.276	-41.98
857.45	29.7
857.625	74.75
857.799	78.85
857.974	-21.5
858.148	-115.71
858.323	-19.46
858.497	-13.31
858.672	-3.07
858.846	-82.94
859.02	160.77
859.195	-144.38
859.369	-9.22
859.543	-99.33
859.718	31.74
859.892	-21.5
860.066	54.27
860.241	27.65
860.415	-37.89
860.589	-31.74
860.763	-25.6
860.938	-76.8
861.112	-15.36
861.286	5.12
861.46	5.12
861.634	27.65
861.808	70.65
861.982	-78.85
862.157	48.13
862.331	-93.18
862.505	-64.51
862.679	-68.61
862.853	-58.37
863.027	-37.89
863.201	171.01
863.375	-103.42
863.549	3.07
863.722	-1.02
863.896	33.79
864.07	3.07
864.244	-41.98
864.418	93.18
864.592	-41.98
864.766	-60.42
864.939	5.12
865.113	-78.85
865.287	70.65
865.461	-31.74
865.634	-17.41
865.808	-25.6
865.982	-82.94
866.156	-70.65
866.329	-37.89
866.503	27.65
866.676	15.36
866.85	60.42
867.024	-35.84
867.197	111.61
867.371	-3.07
867.544	5.12
867.718	-52.22
867.891	-33.79
868.065	-107.52
868.238	-17.41
868.412	93.18
868.585	-15.36
868.759	-68.61
868.932	19.46
869.105	-68.61
869.279	-9.22
869.452	-58.37
869.625	37.89
869.799	-9.22
869.972	-107.52
870.145	-74.75
870.319	95.23
870.492	-41.98
870.665	-70.65
870.838	-84.99
871.011	-107.52
871.185	-136.19
871.358	-44.03
871.531	29.7
871.704	-29.7
871.877	-1.02
872.05	56.32
872.223	-144.38
872.396	50.18
872.569	-13.31
872.742	-132.09
872.915	93.18
873.088	-29.7
873.261	-27.65
873.434	29.7
873.607	-74.75
873.78	56.32
873.953	-84.99
874.126	3.07
874.299	35.84
874.471	-27.65
874.644	-27.65
874.817	-60.42
874.99	72.7
875.163	-41.98
875.335	48.13
875.508	-27.65
875.681	70.65
875.853	-29.7
876.026	-46.08
876.199	60.42
876.371	-1.02
876.544	9.22
876.717	-3.07
876.889	23.55
877.062	-13.31
877.234	-62.46
877.407	-60.42
877.579	-58.37
877.752	-7.17
877.924	-78.85
878.097	76.8
878.269	-17.41
878.442	54.27
878.614	23.55
878.786	19.46
878.959	39.94
879.131	-19.46
879.303	-146.43
879.476	-13.31
879.648	11.26
879.82	56.32
879.993	-99.33
880.165	-29.7
880.337	-37.89
880.509	-1.02
880.681	-60.42
880.854	7.17
881.026	46.08
881.198	138.24
881.37	-15.36
881.542	-31.74
881.714	15.36
881.886	-23.55
882.058	-23.55
882.23	19.46
882.402	-19.46
882.574	35.84
882.746	33.79
882.918	37.89
883.09	-50.18
883.262	-35.84
883.434	-3.07
883.606	-46.08
883.778	-62.46
883.95	68.61
884.122	-13.31
884.293	97.28
884.465	-17.41
884.637	84.99
884.809	-44.03
884.98	23.55
885.152	-3.07
885.324	136.19
885.496	-21.5
885.667	-95.23
885.839	-56.32
886.011	97.28
886.182	62.46
886.354	44.03
886.525	48.13
886.697	39.94
886.869	-87.04
887.04	-13.31
887.212	46.08
887.383	130.05
887.555	80.89
887.726	54.27
887.897	-41.98
888.069	-13.31
888.24	3.07
888.412	-44.03
888.583	48.13
888.754	-66.56
888.926	-111.61
889.097	-9.22
889.268	-82.94
889.44	-58.37
889.611	7.17
889.782	-29.7
889.953	-1.02
890.125	64.51
890.296	-29.7
890.467	-23.55
890.638	-103.42
890.809	3.07
890.98	-117.76
891.151	-54.27
891.323	125.95
891.494	84.99
891.665	-33.79
891.836	-17.41
892.007	-25.6
892.178	29.7
892.349	-3.07
892.52	-17.41
892.691	-60.42
892.862	-13.31
893.032	-111.61
893.203	11.26
893.374	15.36
893.545	56.32
893.716	-13.31
893.887	-44.03
894.057	7.17
894.228	15.36
894.399	-70.65
894.57	101.37
894.74	17.41
894.911	7.17
895.082	5.12
895.253	-60.42
895.423	-21.5
895.594	46.08
895.764	48.13
895.935	-37.89
896.106	44.03
896.276	33.79
896.447	-1.02
896.617	-99.33
896.788	-44.03
896.958	-33.79
897.129	-31.74
897.299	-1.02
897.47	56.32
897.64	-1.02
897.81	1.02
897.981	29.7
898.151	-29.7
898.322	19.46
898.492	72.7
898.662	-37.89
898.832	-128
899.003	-37.89
899.173	-31.74
899.343	-15.36
899.513	-37.89
