Data from USB4F104151__101__10-35-41-027.txt Node

Date: Wed Feb 26 10:35:41 EST 2025
User: louis
Spectrometer: USB4F10415
Trigger mode: 4
Integration Time (sec): 1.000000E-1
Scans to average: 1
Electric dark correction enabled: true
Nonlinearity correction enabled: false
Boxcar width: 0
XAxis mode: Wavelengths
Number of Pixels in Spectrum: 3648
>>>>>Begin Spectral Data<<<<<
178.204	-369.49
178.424	-369.49
178.644	-369.49
178.864	-410.45
179.084	-363.34
179.304	25.77
179.524	-78.68
179.744	23.72
179.964	58.54
180.184	1.19
180.404	40.11
180.624	38.06
180.844	-37.72
181.064	-119.64
181.283	27.82
181.503	-23.38
181.723	44.2
181.943	-105.3
182.163	154.79
182.383	-31.57
182.602	27.82
182.822	85.16
183.042	56.49
183.262	-4.95
183.482	31.91
183.701	21.67
183.921	36.01
184.141	-25.43
184.361	23.72
184.58	40.11
184.8	60.59
185.02	-29.52
185.239	48.3
185.459	60.59
185.679	33.96
185.898	-150.36
186.118	21.67
186.338	33.96
186.557	130.22
186.777	-21.33
186.997	-9.05
187.216	99.5
187.436	199.85
187.655	1.19
187.875	40.11
188.095	117.93
188.314	122.02
188.534	150.7
188.753	-52.05
188.973	-13.14
189.192	113.83
189.412	87.21
189.631	60.59
189.851	74.92
190.07	152.74
190.29	-17.24
190.509	-9.05
190.729	-37.72
190.948	160.94
191.168	285.86
191.387	89.26
191.607	-17.24
191.826	27.82
192.045	3.24
192.265	-58.2
192.484	97.45
192.704	15.53
192.923	-17.24
193.142	103.59
193.362	66.73
193.581	117.93
193.8	62.63
194.02	107.69
194.239	9.39
194.458	79.02
194.678	52.39
194.897	7.34
195.116	107.69
195.335	68.78
195.555	119.98
195.774	-68.44
195.993	99.5
196.212	109.74
196.432	-95.06
196.651	-0.85
196.87	5.29
197.089	302.25
197.308	89.26
197.528	50.35
197.747	-111.44
197.966	-25.43
198.185	117.93
198.404	-43.86
198.623	165.03
198.842	107.69
199.062	148.65
199.281	111.78
199.5	5.29
199.719	162.98
199.938	91.31
200.157	89.26
200.376	79.02
200.595	109.74
200.814	79.02
201.033	-21.33
201.252	195.75
201.471	81.07
201.69	62.63
201.909	72.87
202.128	-0.85
202.347	128.17
202.566	13.48
202.785	44.2
203.004	-72.53
203.223	261.29
203.442	58.54
203.661	-27.48
203.879	42.15
204.098	158.89
204.317	-68.44
204.536	44.2
204.755	83.11
204.974	72.87
205.193	-19.29
205.411	175.27
205.63	66.73
205.849	27.82
206.068	-33.62
206.287	-80.72
206.505	105.64
206.724	58.54
206.943	-37.72
207.162	105.64
207.381	146.6
207.599	29.87
207.818	105.64
208.037	-56.15
208.255	91.31
208.474	33.96
208.693	46.25
208.911	-4.95
209.13	66.73
209.349	115.88
209.567	54.44
209.786	38.06
210.005	128.17
210.223	1.19
210.442	-107.35
210.661	17.58
210.879	54.44
211.098	-25.43
211.316	15.53
211.535	46.25
211.753	60.59
211.972	-7
212.191	17.58
212.409	42.15
212.628	-15.19
212.846	31.91
213.065	79.02
213.283	115.88
213.502	79.02
213.72	9.39
213.938	72.87
214.157	31.91
214.375	162.98
214.594	-21.33
214.812	60.59
215.031	-2.9
215.249	60.59
215.467	85.16
215.686	87.21
215.904	74.92
216.122	-31.57
216.341	162.98
216.559	107.69
216.778	111.78
216.996	107.69
217.214	48.3
217.432	-2.9
217.651	-35.67
217.869	74.92
218.087	23.72
218.306	-74.58
218.524	72.87
218.742	-19.29
218.96	56.49
219.179	-72.53
219.397	-27.48
219.615	201.9
219.833	140.46
220.051	-23.38
220.27	56.49
220.488	156.84
220.706	128.17
220.924	-21.33
221.142	-35.67
221.36	64.68
221.578	29.87
221.796	-47.96
222.015	-0.85
222.233	42.15
222.451	171.18
222.669	81.07
222.887	58.54
223.105	-68.44
223.323	15.53
223.541	-21.33
223.759	-29.52
223.977	93.35
224.195	93.35
224.413	156.84
224.631	117.93
224.849	23.72
225.067	244.9
225.285	11.43
225.503	-60.24
225.721	-105.3
225.939	38.06
226.157	52.39
226.375	255.14
226.592	-31.57
226.81	15.53
227.028	97.45
227.246	220.33
227.464	29.87
227.682	91.31
227.9	103.59
228.117	50.35
228.335	60.59
228.553	50.35
228.771	-52.05
228.989	40.11
229.206	107.69
229.424	9.39
229.642	13.48
229.86	21.67
230.077	130.22
230.295	33.96
230.513	111.78
230.731	52.39
230.948	228.52
231.166	128.17
231.384	64.68
231.601	-33.62
231.819	107.69
232.037	-103.25
232.254	-88.92
232.472	15.53
232.689	-31.57
232.907	148.65
233.125	-39.76
233.342	17.58
233.56	-29.52
233.777	-58.2
233.995	33.96
234.213	130.22
234.43	122.02
234.648	62.63
234.865	-52.05
235.083	146.6
235.3	23.72
235.518	68.78
235.735	132.26
235.953	52.39
236.17	48.3
236.388	46.25
236.605	38.06
236.822	38.06
237.04	134.31
237.257	33.96
237.475	-50
237.692	33.96
237.909	52.39
238.127	-21.33
238.344	42.15
238.562	29.87
238.779	-2.9
238.996	-52.05
239.214	91.31
239.431	72.87
239.648	54.44
239.865	85.16
240.083	146.6
240.3	46.25
240.517	-50
240.735	-21.33
240.952	111.78
241.169	111.78
241.386	81.07
241.603	33.96
241.821	-43.86
242.038	132.26
242.255	25.77
242.472	-80.72
242.689	46.25
242.907	83.11
243.124	29.87
243.341	46.25
243.558	19.63
243.775	-13.14
243.992	-88.92
244.209	81.07
244.426	185.51
244.643	7.34
244.86	11.43
245.078	99.5
245.295	21.67
245.512	-27.48
245.729	-17.24
245.946	9.39
246.163	27.82
246.38	21.67
246.597	76.97
246.814	33.96
247.031	56.49
247.248	-13.14
247.464	40.11
247.681	42.15
247.898	109.74
248.115	58.54
248.332	27.82
248.549	107.69
248.766	158.89
248.983	111.78
249.2	109.74
249.417	148.65
249.633	-13.14
249.85	52.39
250.067	21.67
250.284	103.59
250.501	19.63
250.717	103.59
250.934	5.29
251.151	74.92
251.368	-60.24
251.585	5.29
251.801	60.59
252.018	-103.25
252.235	93.35
252.451	-64.34
252.668	79.02
252.885	113.83
253.102	5.29
253.318	23.72
253.535	-23.38
253.752	52.39
253.968	3.24
254.185	-86.87
254.401	-2.9
254.618	72.87
254.835	19.63
255.051	173.22
255.268	31.91
255.484	44.2
255.701	-35.67
255.917	66.73
256.134	48.3
256.351	60.59
256.567	17.58
256.784	72.87
257	-19.29
257.217	134.31
257.433	54.44
257.65	-29.52
257.866	97.45
258.082	-43.86
258.299	-33.62
258.515	29.87
258.732	27.82
258.948	-9.05
259.165	5.29
259.381	-13.14
259.597	33.96
259.814	1.19
260.03	25.77
260.246	93.35
260.463	74.92
260.679	162.98
260.895	-21.33
261.112	3.24
261.328	52.39
261.544	-64.34
261.761	128.17
261.977	27.82
262.193	11.43
262.409	111.78
262.626	3.24
262.842	64.68
263.058	-43.86
263.274	93.35
263.49	74.92
263.707	91.31
263.923	105.64
264.139	-23.38
264.355	64.68
264.571	156.84
264.787	93.35
265.004	56.49
265.22	25.77
265.436	48.3
265.652	29.87
265.868	-21.33
266.084	-56.15
266.3	21.67
266.516	-4.95
266.732	83.11
266.948	-4.95
267.164	42.15
267.38	54.44
267.596	76.97
267.812	156.84
268.028	103.59
268.244	15.53
268.46	74.92
268.676	11.43
268.892	29.87
269.108	-33.62
269.324	-25.43
269.54	-64.34
269.756	111.78
269.972	-64.34
270.188	17.58
270.403	-50
270.619	40.11
270.835	107.69
271.051	115.88
271.267	-37.72
271.483	-72.53
271.698	126.12
271.914	9.39
272.13	50.35
272.346	27.82
272.562	33.96
272.777	74.92
272.993	7.34
273.209	36.01
273.425	81.07
273.64	-60.24
273.856	62.63
274.072	-52.05
274.287	-88.92
274.503	66.73
274.719	199.85
274.934	25.77
275.15	-33.62
275.366	13.48
275.581	13.48
275.797	-0.85
276.012	11.43
276.228	-0.85
276.444	72.87
276.659	122.02
276.875	-11.09
277.09	-2.9
277.306	17.58
277.521	81.07
277.737	33.96
277.952	128.17
278.168	5.29
278.383	56.49
278.599	27.82
278.814	72.87
279.03	-19.29
279.245	130.22
279.461	31.91
279.676	99.5
279.892	-50
280.107	-76.63
280.322	38.06
280.538	52.39
280.753	27.82
280.969	87.21
281.184	-4.95
281.399	199.85
281.615	76.97
281.83	31.91
282.045	-64.34
282.26	23.72
282.476	48.3
282.691	93.35
282.906	66.73
283.122	15.53
283.337	-80.72
283.552	115.88
283.767	-31.57
283.983	79.02
284.198	48.3
284.413	66.73
284.628	-37.72
284.843	76.97
285.058	74.92
285.274	38.06
285.489	11.43
285.704	56.49
285.919	-43.86
286.134	66.73
286.349	50.35
286.564	7.34
286.779	171.18
286.995	70.83
287.21	-62.29
287.425	68.78
287.64	111.78
287.855	46.25
288.07	-111.44
288.285	117.93
288.5	130.22
288.715	56.49
288.93	60.59
289.145	-13.14
289.36	-4.95
289.575	27.82
289.79	124.07
290.004	-60.24
290.219	58.54
290.434	33.96
290.649	-45.91
290.864	-11.09
291.079	5.29
291.294	58.54
291.509	44.2
291.724	27.82
291.938	-4.95
292.153	54.44
292.368	48.3
292.583	162.98
292.798	31.91
293.012	21.67
293.227	36.01
293.442	-0.85
293.657	42.15
293.871	148.65
294.086	74.92
294.301	175.27
294.516	68.78
294.73	74.92
294.945	-86.87
295.16	54.44
295.374	93.35
295.589	111.78
295.804	-33.62
296.018	103.59
296.233	83.11
296.447	36.01
296.662	38.06
296.877	128.17
297.091	64.68
297.306	58.54
297.52	-54.1
297.735	36.01
297.949	42.15
298.164	62.63
298.378	50.35
298.593	-23.38
298.807	-45.91
299.022	48.3
299.236	144.55
299.451	11.43
299.665	25.77
299.88	58.54
300.094	79.02
300.309	58.54
300.523	54.44
300.737	-19.29
300.952	89.26
301.166	23.72
301.381	-45.91
301.595	7.34
301.809	68.78
302.024	42.15
302.238	3.24
302.452	122.02
302.667	36.01
302.881	156.84
303.095	142.5
303.309	-35.67
303.524	40.11
303.738	56.49
303.952	-31.57
304.166	58.54
304.381	-74.58
304.595	212.14
304.809	-19.29
305.023	-17.24
305.237	48.3
305.452	-50
305.666	56.49
305.88	111.78
306.094	31.91
306.308	119.98
306.522	134.31
306.736	42.15
306.95	99.5
307.164	-4.95
307.379	62.63
307.593	101.55
307.807	113.83
308.021	74.92
308.235	72.87
308.449	-109.4
308.663	19.63
308.877	212.14
309.091	25.77
309.305	5.29
309.519	-78.68
309.733	177.32
309.947	-25.43
310.161	44.2
310.374	81.07
310.588	130.22
310.802	-52.05
311.016	-43.86
311.23	76.97
311.444	3.24
311.658	-2.9
311.872	117.93
312.085	79.02
312.299	62.63
312.513	64.68
312.727	122.02
312.941	76.97
313.154	31.91
313.368	33.96
313.582	17.58
313.796	5.29
314.009	44.2
314.223	154.79
314.437	33.96
314.651	105.64
314.864	48.3
315.078	21.67
315.292	-66.39
315.505	-0.85
315.719	79.02
315.933	107.69
316.146	103.59
316.36	-62.29
316.573	138.41
316.787	87.21
317.001	79.02
317.214	-21.33
317.428	74.92
317.641	-88.92
317.855	31.91
318.068	21.67
318.282	-0.85
318.495	232.62
318.709	74.92
318.922	115.88
319.136	165.03
319.349	103.59
319.563	42.15
319.776	99.5
319.99	-76.63
320.203	99.5
320.417	68.78
320.63	-4.95
320.843	179.37
321.057	27.82
321.27	-41.81
321.483	66.73
321.697	154.79
321.91	72.87
322.124	11.43
322.337	76.97
322.55	-19.29
322.763	-31.57
322.977	-25.43
323.19	-0.85
323.403	21.67
323.617	48.3
323.83	140.46
324.043	-2.9
324.256	136.36
324.469	-0.85
324.683	107.69
324.896	44.2
325.109	23.72
325.322	-58.2
325.535	148.65
325.748	124.07
325.962	-9.05
326.175	76.97
326.388	64.68
326.601	165.03
326.814	-66.39
327.027	68.78
327.24	144.55
327.453	-152.4
327.666	89.26
327.879	142.5
328.092	93.35
328.305	27.82
328.518	5.29
328.731	17.58
328.944	54.44
329.157	52.39
329.37	15.53
329.583	187.56
329.796	136.36
330.009	50.35
330.222	29.87
330.435	72.87
330.648	23.72
330.861	29.87
331.073	95.4
331.286	1.19
331.499	7.34
331.712	-68.44
331.925	-13.14
332.138	48.3
332.35	107.69
332.563	13.48
332.776	105.64
332.989	-21.33
333.202	21.67
333.414	-2.9
333.627	25.77
333.84	33.96
334.053	48.3
334.265	60.59
334.478	-41.81
334.691	-37.72
334.903	58.54
335.116	-70.48
335.329	-78.68
335.541	130.22
335.754	191.66
335.966	48.3
336.179	74.92
336.392	-47.96
336.604	15.53
336.817	93.35
337.029	9.39
337.242	105.64
337.454	91.31
337.667	-2.9
337.88	21.67
338.092	62.63
338.305	74.92
338.517	-7
338.729	126.12
338.942	148.65
339.154	-45.91
339.367	-37.72
339.579	36.01
339.792	19.63
340.004	68.78
340.217	36.01
340.429	66.73
340.641	-29.52
340.854	-31.57
341.066	44.2
341.278	107.69
341.491	93.35
341.703	19.63
341.915	-7
342.128	158.89
342.34	81.07
342.552	7.34
342.764	25.77
342.977	-4.95
343.189	93.35
343.401	40.11
343.613	-117.59
343.826	-0.85
344.038	-119.64
344.25	56.49
344.462	-11.09
344.674	-21.33
344.886	-4.95
345.099	52.39
345.311	62.63
345.523	11.43
345.735	-84.82
345.947	126.12
346.159	33.96
346.371	36.01
346.583	-17.24
346.795	183.46
347.007	-76.63
347.219	-0.85
347.431	58.54
347.643	79.02
347.855	-37.72
348.067	140.46
348.279	-21.33
348.491	7.34
348.703	107.69
348.915	40.11
349.127	-23.38
349.339	21.67
349.551	-25.43
349.763	85.16
349.975	109.74
350.187	160.94
350.399	89.26
350.61	79.02
350.822	76.97
351.034	50.35
351.246	85.16
351.458	38.06
351.669	33.96
351.881	72.87
352.093	33.96
352.305	128.17
352.517	81.07
352.728	83.11
352.94	5.29
353.152	64.68
353.363	-58.2
353.575	42.15
353.787	156.84
353.999	107.69
354.21	142.5
354.422	-25.43
354.633	-21.33
354.845	17.58
355.057	93.35
355.268	74.92
355.48	117.93
355.692	11.43
355.903	60.59
356.115	-25.43
356.326	-4.95
356.538	177.32
356.749	107.69
356.961	115.88
357.172	1.19
357.384	-17.24
357.595	134.31
357.807	3.24
358.018	-58.2
358.23	50.35
358.441	101.55
358.653	48.3
358.864	-7
359.075	11.43
359.287	126.12
359.498	154.79
359.709	68.78
359.921	-0.85
360.132	89.26
360.344	-19.29
360.555	23.72
360.766	-4.95
360.977	38.06
361.189	99.5
361.4	19.63
361.611	42.15
361.823	122.02
362.034	58.54
362.245	-23.38
362.456	46.25
362.667	83.11
362.879	-7
363.09	66.73
363.301	38.06
363.512	29.87
363.723	-0.85
363.935	7.34
364.146	162.98
364.357	44.2
364.568	17.58
364.779	-66.39
364.99	136.36
365.201	-37.72
365.412	74.92
365.623	-78.68
365.834	54.44
366.045	15.53
366.256	107.69
366.467	122.02
366.678	68.78
366.889	9.39
367.1	-62.29
367.311	185.51
367.522	52.39
367.733	-23.38
367.944	40.11
368.155	31.91
368.366	31.91
368.577	122.02
368.788	101.55
368.999	-33.62
369.209	13.48
369.42	124.07
369.631	208.04
369.842	-21.33
370.053	11.43
370.264	128.17
370.474	-35.67
370.685	52.39
370.896	13.48
371.107	60.59
371.317	81.07
371.528	93.35
371.739	115.88
371.95	54.44
372.16	83.11
372.371	-47.96
372.582	-11.09
372.792	9.39
373.003	64.68
373.214	-25.43
373.424	62.63
373.635	-0.85
373.846	109.74
374.056	11.43
374.267	107.69
374.477	58.54
374.688	60.59
374.898	76.97
375.109	31.91
375.319	68.78
375.53	105.64
375.74	83.11
375.951	-109.4
376.161	11.43
376.372	99.5
376.582	11.43
376.793	117.93
377.003	-25.43
377.214	-39.76
377.424	-2.9
377.635	17.58
377.845	-52.05
378.055	122.02
378.266	-7
378.476	-19.29
378.686	17.58
378.897	11.43
379.107	119.98
379.317	44.2
379.528	-21.33
379.738	126.12
379.948	-113.49
380.158	5.29
380.369	50.35
380.579	105.64
380.789	21.67
380.999	103.59
381.21	68.78
381.42	148.65
381.63	7.34
381.84	21.67
382.05	15.53
382.261	66.73
382.471	52.39
382.681	-23.38
382.891	160.94
383.101	36.01
383.311	13.48
383.521	74.92
383.731	68.78
383.941	83.11
384.151	29.87
384.361	60.59
384.571	85.16
384.781	93.35
384.991	234.66
385.201	199.85
385.411	74.92
385.621	-2.9
385.831	56.49
386.041	44.2
386.251	-21.33
386.461	27.82
386.671	23.72
386.881	27.82
387.091	54.44
387.301	208.04
387.511	31.91
387.72	130.22
387.93	111.78
388.14	-2.9
388.35	38.06
388.56	138.41
388.769	101.55
388.979	70.83
389.189	-13.14
389.399	23.72
389.609	156.84
389.818	113.83
390.028	130.22
390.238	23.72
390.447	46.25
390.657	107.69
390.867	46.25
391.076	-43.86
391.286	19.63
391.496	23.72
391.705	-0.85
391.915	117.93
392.125	54.44
392.334	17.58
392.544	187.56
392.753	-4.95
392.963	33.96
393.172	-7
393.382	-74.58
393.591	165.03
393.801	48.3
394.01	220.33
394.22	76.97
394.429	23.72
394.639	42.15
394.848	56.49
395.058	36.01
395.267	-0.85
395.477	152.74
395.686	124.07
395.895	169.13
396.105	208.04
396.314	62.63
396.524	50.35
396.733	56.49
396.942	113.83
397.152	109.74
397.361	115.88
397.57	101.55
397.78	-27.48
397.989	72.87
398.198	130.22
398.407	23.72
398.617	33.96
398.826	17.58
399.035	-47.96
399.244	117.93
399.453	124.07
399.663	-39.76
399.872	-23.38
400.081	-25.43
400.29	179.37
400.499	17.58
400.708	103.59
400.917	31.91
401.127	-25.43
401.336	-4.95
401.545	199.85
401.754	179.37
401.963	85.16
402.172	-37.72
402.381	42.15
402.59	64.68
402.799	46.25
403.008	119.98
403.217	-13.14
403.426	136.36
403.635	-88.92
403.844	58.54
404.053	48.3
404.262	29.87
404.471	169.13
404.68	103.59
404.888	64.68
405.097	17.58
405.306	54.44
405.515	48.3
405.724	31.91
405.933	183.46
406.142	74.92
406.35	56.49
406.559	5.29
406.768	21.67
406.977	179.37
407.185	11.43
407.394	128.17
407.603	-39.76
407.812	72.87
408.02	105.64
408.229	64.68
408.438	42.15
408.646	-62.29
408.855	5.29
409.064	72.87
409.272	11.43
409.481	42.15
409.69	11.43
409.898	-78.68
410.107	66.73
410.315	27.82
410.524	-25.43
410.733	52.39
410.941	89.26
411.15	19.63
411.358	87.21
411.567	111.78
411.775	-27.48
411.984	38.06
412.192	136.36
412.401	56.49
412.609	113.83
412.818	97.45
413.026	15.53
413.234	87.21
413.443	60.59
413.651	15.53
413.86	17.58
414.068	148.65
414.276	187.56
414.485	21.67
414.693	150.7
414.901	173.22
415.11	76.97
415.318	11.43
415.526	11.43
415.734	81.07
415.943	62.63
416.151	68.78
416.359	46.25
416.567	40.11
416.776	132.26
416.984	109.74
417.192	140.46
417.4	9.39
417.608	11.43
417.817	-41.81
418.025	105.64
418.233	97.45
418.441	-109.4
418.649	-97.11
418.857	56.49
419.065	81.07
419.273	-37.72
419.481	-13.14
419.689	29.87
419.897	-33.62
420.105	-66.39
420.313	68.78
420.521	113.83
420.729	107.69
420.937	42.15
421.145	-50
421.353	54.44
421.561	148.65
421.769	31.91
421.977	29.87
422.185	81.07
422.393	44.2
422.601	89.26
422.809	36.01
423.017	109.74
423.224	81.07
423.432	140.46
423.64	27.82
423.848	146.6
424.056	33.96
424.263	95.4
424.471	31.91
424.679	203.94
424.887	-90.96
425.094	62.63
425.302	113.83
425.51	-27.48
425.718	44.2
425.925	70.83
426.133	-62.29
426.341	220.33
426.548	52.39
426.756	-19.29
426.964	17.58
427.171	-0.85
427.379	-23.38
427.586	40.11
427.794	115.88
428.001	111.78
428.209	54.44
428.417	162.98
428.624	140.46
428.832	72.87
429.039	64.68
429.247	13.48
429.454	111.78
429.662	171.18
429.869	64.68
430.076	105.64
430.284	91.31
430.491	138.41
430.699	33.96
430.906	179.37
431.114	156.84
431.321	160.94
431.528	19.63
431.736	91.31
431.943	111.78
432.15	44.2
432.358	169.13
432.565	271.53
432.772	-43.86
432.979	156.84
433.187	74.92
433.394	195.75
433.601	-17.24
433.808	60.59
434.016	214.18
434.223	148.65
434.43	138.41
434.637	165.03
434.844	189.61
435.052	50.35
435.259	140.46
435.466	191.66
435.673	134.31
435.88	222.38
436.087	230.57
436.294	234.66
436.501	122.02
436.708	74.92
436.915	267.43
437.122	281.77
437.329	115.88
437.537	205.99
437.743	232.62
437.95	275.62
438.157	210.09
438.364	162.98
438.571	144.55
438.778	304.29
438.985	275.62
439.192	287.91
439.399	302.25
439.606	275.62
439.813	277.67
440.02	386.21
440.227	408.74
440.433	433.32
440.64	279.72
440.847	271.53
441.054	308.39
441.261	418.98
441.467	371.88
441.674	193.7
441.881	427.17
442.088	351.4
442.294	355.49
442.501	425.12
442.708	470.18
442.914	386.21
443.121	496.8
443.328	416.93
443.534	535.71
443.741	492.71
443.948	347.3
444.154	543.91
444.361	658.59
444.568	539.81
444.774	552.1
444.981	482.47
445.187	726.18
445.394	627.87
445.6	580.77
445.807	746.66
446.013	670.88
446.22	634.02
446.426	683.17
446.633	765.09
446.839	892.06
447.046	697.5
447.252	914.59
447.459	812.19
447.665	849.05
447.871	1008.8
448.078	1072.28
448.284	1035.42
448.491	1162.39
448.697	1051.8
448.903	1074.33
449.11	1197.21
449.316	1121.43
449.522	1311.89
449.728	1440.92
449.935	1365.14
450.141	1334.42
450.347	1588.37
450.553	1412.25
450.76	1461.4
450.966	1574.03
451.172	1623.19
451.378	1653.91
451.584	1694.86
451.791	1873.04
451.997	1838.22
452.203	1840.27
452.409	2034.83
452.615	2206.86
452.821	2022.54
453.027	2077.83
453.233	2346.12
453.44	2262.15
453.646	2350.21
453.852	2413.7
454.058	2473.09
454.264	2598.02
454.47	2811.01
454.676	2673.79
454.882	3021.95
455.088	3048.57
455.294	2997.37
455.5	3263.61
455.705	3499.13
455.911	3433.59
456.117	3560.56
456.323	3570.8
456.529	3652.72
456.735	3978.35
456.941	4125.8
457.147	4316.26
457.352	4445.29
457.558	4453.48
457.764	4985.95
457.97	5016.67
458.176	5004.38
458.381	5284.95
458.587	5383.26
458.793	5780.56
458.999	5803.09
459.204	6437.96
459.41	6530.12
459.616	6536.26
459.821	7023.68
460.027	7058.49
460.233	7490.62
460.438	7582.77
460.644	8008.75
460.85	8145.97
461.055	8225.84
461.261	8664.1
461.466	8789.03
461.672	8703.01
461.878	9845.78
462.083	9741.33
462.289	9905.17
462.494	10462.22
462.7	10241.04
462.905	10552.33
463.111	11392
463.316	11930.61
463.522	12078.07
463.727	12532.72
463.932	13200.35
464.138	13468.64
464.343	14160.85
464.549	13960.15
464.754	15274.95
464.959	15498.17
465.165	15717.31
465.37	15735.74
465.575	15633.34
465.781	16698.28
465.986	17204.13
466.191	17056.68
466.397	17142.69
466.602	16696.24
466.807	17437.6
467.012	18049.94
467.218	18164.63
467.423	18510.74
467.628	18770.83
467.833	19692.41
468.038	19184.52
468.244	18977.67
468.449	19854.2
468.654	19467.14
468.859	19532.67
469.064	19571.58
469.269	18895.75
469.474	18998.15
469.679	19782.52
469.885	19170.18
470.09	19356.55
470.295	19248
470.5	18969.48
470.705	19180.42
470.91	18674.57
471.115	18547.6
471.32	18953.1
471.525	18770.83
471.73	17945.5
471.935	18000.79
472.139	17304.48
472.344	17195.94
472.549	17204.13
472.754	16745.39
472.959	16399.28
473.164	16001.97
473.369	15643.58
473.574	16202.68
473.778	15762.36
473.983	15551.42
474.188	15223.75
474.393	14449.61
474.598	14236.63
474.802	14160.85
475.007	13837.27
475.212	13714.39
475.417	13177.83
475.621	13247.46
475.826	12973.03
476.031	12645.35
476.235	12389.36
476.44	12483.56
476.645	11951.09
476.849	11944.95
477.054	11828.21
477.259	11447.29
477.463	11437.05
477.668	11105.28
477.872	11131.9
478.077	10890.24
478.282	10535.95
478.486	10404.88
478.691	10263.57
478.895	10265.61
479.1	10468.36
479.304	10271.76
479.509	9745.43
479.713	9948.18
479.918	9569.3
480.122	9303.07
480.326	9665.56
480.531	9495.58
480.735	9417.75
480.94	9223.2
481.144	9632.79
481.348	8985.63
481.553	9077.79
481.757	8811.56
481.961	8905.76
482.166	8952.87
482.37	8856.61
482.574	8838.18
482.778	8750.12
482.983	8885.28
483.187	8428.59
483.391	8582.18
483.595	8473.64
483.8	8115.25
484.004	8268.84
484.208	8361
484.412	8152.11
484.616	8057.9
484.821	8008.75
485.025	7789.62
485.229	7818.29
485.433	7713.84
485.637	7578.68
485.841	7240.76
486.045	7334.97
486.249	7418.94
486.453	7160.89
486.657	7033.92
486.861	6831.17
487.065	6769.73
487.269	6843.46
487.473	6523.98
487.677	6577.22
487.881	6710.34
488.085	6333.51
488.289	6485.06
488.493	6022.22
488.697	5993.55
488.901	5862.48
489.105	5854.29
489.309	5645.4
489.512	5950.54
489.716	5637.2
489.92	5432.41
490.124	5295.19
490.328	5346.39
490.531	5104.73
490.735	5231.71
490.939	4988
491.143	4947.04
491.346	4848.74
491.55	4824.16
491.754	4717.67
491.958	4709.47
492.161	4574.31
492.365	4465.77
492.569	4375.66
492.772	4392.04
492.976	4369.51
493.18	4136.04
493.383	4340.84
493.587	4166.76
493.79	4156.52
493.994	4027.5
494.197	4002.93
494.401	3937.39
494.605	3710.07
494.808	3972.21
495.012	3873.9
495.215	3959.92
495.419	4007.02
495.622	3880.05
495.825	3662.96
496.029	3728.5
496.232	3855.47
496.436	3767.41
496.639	3974.25
496.843	3673.2
497.046	3746.93
497.249	3757.17
497.453	3845.23
497.656	3779.7
497.859	3800.18
498.063	3800.18
498.266	3851.38
498.469	3857.52
498.673	3816.56
498.876	3865.71
499.079	3857.52
499.282	3914.86
499.485	4099.18
499.689	3904.62
499.892	4013.17
500.095	3816.56
500.298	3978.35
500.501	3900.53
500.705	3927.15
500.908	3937.39
501.111	4086.89
501.314	4101.23
501.517	4232.3
501.72	4172.91
501.923	4185.19
502.126	4258.92
502.329	4379.75
502.532	4414.57
502.735	4324.46
502.938	4615.27
503.141	4529.25
503.344	4527.21
503.547	4754.53
503.75	4648.04
503.953	4658.28
504.156	4854.88
504.359	4842.59
504.562	4971.61
504.765	4922.46
504.968	5168.22
505.17	5051.49
505.373	5184.6
505.576	5262.43
505.779	5209.18
505.982	5358.68
506.185	5633.11
506.387	5639.25
506.59	5874.77
506.793	5837.91
506.996	5930.06
507.198	6214.73
507.401	6263.88
507.604	6409.29
507.807	6530.12
508.009	6566.98
508.212	6906.95
508.415	6945.86
508.617	7056.45
508.82	7121.98
509.022	7263.29
509.225	7474.23
509.428	7623.73
509.63	7799.86
509.833	7756.85
510.035	8258.6
510.238	8209.45
510.44	8266.8
510.643	8731.69
510.845	8946.72
511.048	9012.26
511.25	9319.45
511.453	9186.33
511.655	9882.64
511.858	9847.83
512.06	10142.74
512.262	10234.89
512.465	10445.84
512.667	10781.7
512.87	11002.88
513.072	11148.29
513.274	11566.07
513.477	11658.23
513.679	12004.34
513.881	12266.48
514.084	12446.7
514.286	12733.42
514.488	12819.43
514.69	13333.47
514.893	13376.48
515.095	13835.22
515.297	14181.33
515.499	14386.13
515.701	14574.54
515.904	15086.53
516.106	15420.35
516.308	15659.96
516.51	16032.69
516.712	16473.01
516.914	16604.08
517.116	16958.38
517.318	17159.08
517.52	17656.73
517.722	17933.21
517.925	18473.87
518.127	18809.74
518.329	19020.68
518.531	19141.51
518.733	19592.06
518.935	19796.86
519.136	20126.58
519.338	20624.24
519.54	20986.73
519.742	21457.76
519.944	21275.49
520.146	22102.87
520.348	22270.81
520.55	22664.02
520.752	22582.1
520.954	23268.17
521.155	23206.73
521.357	23864.13
521.559	23812.93
521.761	24499
521.963	24259.38
522.164	24664.88
522.366	24892.21
522.568	25002.8
522.77	25373.48
522.971	25656.1
523.173	25690.91
523.375	25852.7
523.576	25637.67
523.778	25678.63
523.98	26452.76
524.181	26432.28
524.383	26309.4
524.584	26815.25
524.786	26809.11
524.988	26493.72
525.189	26800.91
525.391	26788.63
525.592	27300.62
525.794	26958.61
525.995	26897.17
526.197	26837.78
526.398	26999.57
526.6	27001.61
526.801	26958.61
527.003	26776.34
527.204	26774.29
527.406	26958.61
527.607	26483.48
527.808	26817.3
528.01	25979.68
528.211	26057.5
528.412	26321.69
528.614	26104.6
528.815	25932.57
529.016	26057.5
529.218	25328.42
529.419	25137.96
529.62	24984.37
529.822	25008.94
530.023	24347.45
530.224	24421.17
530.425	24015.68
530.626	23671.62
530.828	23423.81
531.029	23700.29
531.23	23333.7
531.431	22598.48
531.632	22934.35
531.833	22455.12
532.035	22106.97
532.236	21879.64
532.437	21742.43
532.638	21111.66
532.839	20870
533.04	20779.89
533.241	20513.65
533.442	20790.13
533.643	20247.41
533.844	19671.93
534.045	19520.38
534.246	19293.06
534.447	19094.41
534.648	19051.4
534.849	18647.95
535.05	18066.33
535.251	18156.44
535.451	17990.55
535.652	17640.35
535.853	17314.72
536.054	17353.63
536.255	17152.93
536.456	16616.37
536.657	16333.75
536.857	15971.25
537.058	16090.04
537.259	15948.73
537.46	15600.57
537.66	15111.11
537.861	15309.76
538.062	15021
538.263	14896.07
538.463	14654.41
538.664	14666.7
538.865	14150.61
539.065	14230.48
539.266	13968.34
539.466	13794.26
539.667	13431.77
539.868	13581.28
540.068	13421.53
540.269	13052.9
540.469	12798.95
540.67	13083.62
540.87	12714.98
541.071	12399.6
541.271	12499.95
541.472	12305.39
541.672	12053.49
541.873	11832.31
542.073	11572.22
542.274	11781.11
542.474	11652.09
542.675	11279.36
542.875	11342.85
543.075	10978.31
543.276	10931.2
543.476	11215.87
543.676	10603.53
543.877	10728.45
544.077	10540.04
544.277	10347.53
544.478	10279.95
544.678	10138.64
544.878	9937.94
545.078	10144.78
545.279	9817.11
545.479	9858.07
545.679	9759.77
545.879	9581.59
546.079	9618.46
546.28	9159.71
546.48	9321.5
546.68	9331.74
546.88	9172
547.08	8999.97
547.28	8815.65
547.48	8567.85
547.68	8713.25
547.88	8391.72
548.081	8453.16
548.281	8240.17
548.481	8094.77
548.681	8010.8
548.881	7887.92
549.081	7771.19
549.28	7703.61
549.48	7728.18
549.68	7593.01
549.88	7437.37
550.08	7285.82
550.28	7259.2
550.48	7302.2
550.68	7334.97
550.88	6798.4
551.08	6872.13
551.279	6952
551.479	6599.75
551.679	6667.33
551.879	6397
552.079	6450.25
552.278	6327.37
552.478	6257.74
552.678	6089.81
552.878	6118.48
553.077	5917.78
553.277	5758.03
553.477	5854.29
553.676	5626.96
553.876	5551.19
554.076	5467.22
554.275	5422.17
554.475	5258.33
554.674	5364.82
554.874	5135.45
555.074	4922.46
555.273	4947.04
555.473	4955.23
555.672	4803.68
555.872	4723.81
556.071	4650.08
556.271	4824.16
556.47	4586.6
556.67	4449.38
556.869	4267.11
557.068	4205.67
557.268	4222.06
557.467	4150.38
557.667	4252.78
557.866	3921.01
558.065	3828.85
558.265	3923.05
558.464	3837.04
558.663	3800.18
558.863	3753.07
559.062	3853.42
559.261	3554.42
559.461	3587.19
559.66	3396.73
559.859	3413.11
560.058	3525.75
560.258	3249.27
560.457	3337.34
560.656	3259.51
560.855	3126.39
561.054	3144.83
561.253	3101.82
561.453	3138.68
561.652	2903.17
561.851	3007.61
562.05	2768
562.249	2759.81
562.448	2958.46
562.647	2700.42
562.846	2688.13
563.045	2716.8
563.244	2538.63
563.443	2614.4
563.642	2524.29
563.841	2505.86
564.04	2454.66
564.239	2372.74
564.438	2481.28
564.637	2225.29
564.836	2270.34
565.035	2182.28
565.234	2268.3
565.432	2239.62
565.631	2235.53
565.83	2157.71
566.029	2012.3
566.228	2004.11
566.427	2040.97
566.625	1909.9
566.824	2030.73
567.023	1989.77
567.222	1948.81
567.42	1844.37
567.619	2002.06
567.818	1895.57
568.016	2012.3
568.215	1914
568.414	1905.81
568.612	1733.78
568.811	1709.2
569.01	1617.04
569.208	1672.34
569.407	1709.2
569.605	1721.49
569.804	1596.56
570.002	1571.99
570.201	1420.44
570.4	1541.27
570.598	1516.69
570.797	1502.36
570.995	1502.36
571.193	1461.4
571.392	1418.39
571.59	1285.27
571.789	1514.64
571.987	1408.15
572.186	1528.98
572.384	1240.22
572.582	1361.05
572.781	1326.23
572.979	1250.46
573.177	1182.87
573.376	1295.51
573.574	1264.79
573.772	1199.26
573.971	1051.8
574.169	1064.09
574.367	1170.58
574.565	1250.46
574.763	1082.52
574.962	1158.3
575.16	1094.81
575.358	1084.57
575.556	1039.51
575.754	1107.1
575.952	980.12
576.151	1019.04
576.349	1000.6
576.547	867.49
576.745	910.49
576.943	992.41
577.141	939.16
577.339	834.72
577.537	935.07
577.735	965.79
577.933	906.4
578.131	793.76
578.329	849.05
578.527	832.67
578.725	875.68
578.923	722.08
579.121	861.34
579.319	697.5
579.516	711.84
579.714	961.69
579.912	818.33
580.11	617.63
580.308	695.46
580.506	642.21
580.704	578.72
580.901	552.1
581.099	781.47
581.297	748.7
581.495	666.78
581.692	580.77
581.89	717.98
582.088	699.55
582.285	588.96
582.483	543.91
582.681	607.39
582.878	588.96
583.076	599.2
583.274	629.92
583.471	689.31
583.669	533.67
583.866	474.28
584.064	521.38
584.262	482.47
584.459	449.7
584.657	578.72
584.854	662.69
585.052	552.1
585.249	621.73
585.447	500.9
585.644	357.54
585.841	582.82
586.039	564.39
586.236	548
586.434	435.36
586.631	425.12
586.828	359.59
587.026	464.04
587.223	339.11
587.42	365.73
587.618	414.88
587.815	527.52
588.012	400.55
588.21	369.83
588.407	351.4
588.604	429.22
588.801	277.67
588.999	357.54
589.196	439.46
589.393	347.3
589.59	447.65
589.787	339.11
589.984	418.98
590.182	335.01
590.379	251.05
590.576	339.11
590.773	306.34
590.97	341.16
591.167	449.7
591.364	351.4
591.561	330.92
591.758	502.95
591.955	375.97
592.152	402.6
592.349	300.2
592.546	363.69
592.743	281.77
592.94	369.83
593.137	343.21
593.334	347.3
593.531	390.31
593.727	427.17
593.924	304.29
594.121	324.77
594.318	287.91
594.515	341.16
594.712	382.12
594.908	447.65
595.105	285.86
595.302	406.69
595.499	324.77
595.696	421.03
595.892	332.97
596.089	361.64
596.286	332.97
596.482	574.63
596.679	496.8
596.876	355.49
597.072	423.08
597.269	341.16
597.466	435.36
597.662	402.6
597.859	357.54
598.055	402.6
598.252	539.81
598.448	545.95
598.645	588.96
598.841	578.72
599.038	703.65
599.234	677.02
599.431	660.64
599.627	656.54
599.824	693.41
600.02	703.65
600.217	742.56
600.413	746.66
600.609	832.67
600.806	1062.04
601.002	824.48
601.198	771.23
601.395	945.31
601.591	978.08
601.787	982.17
601.984	1051.8
602.18	1125.53
602.376	978.08
602.572	1109.15
602.769	1184.92
602.965	1211.54
603.161	1242.26
603.357	1311.89
603.553	1348.76
603.75	1301.65
603.946	1350.81
604.142	1442.96
604.338	1623.19
604.534	1555.6
604.73	1553.55
604.926	1596.56
605.122	1766.54
605.318	1741.97
605.514	1877.13
605.71	1819.79
605.906	1928.33
606.102	1866.89
606.298	1993.87
606.494	2131.08
606.69	2213
606.886	2315.4
607.082	2288.78
607.278	2249.86
607.474	2421.89
607.67	2485.38
607.866	2479.24
608.062	2671.75
608.257	2708.61
608.453	2643.07
608.649	2874.49
608.845	2741.38
609.041	2839.68
609.236	3044.48
609.432	3130.49
609.628	3140.73
609.824	3382.39
610.019	3406.97
610.215	3460.21
610.411	3595.38
610.606	3742.83
610.802	3613.81
610.998	3789.94
611.193	3970.16
611.389	4023.41
611.584	4127.85
611.78	4090.99
611.976	4308.07
612.171	4422.76
612.367	4627.56
612.562	4721.76
612.758	4846.69
612.953	4691.04
613.149	5000.29
613.344	5067.87
613.539	5342.3
613.735	5577.81
613.93	5579.86
614.126	5731.41
614.321	5928.02
614.517	6052.94
614.712	6163.53
614.907	6347.85
615.103	6538.31
615.298	6591.56
615.493	6833.22
615.688	6896.71
615.884	7316.54
616.079	7257.15
616.274	7722.04
616.47	7801.91
616.665	7861.3
616.86	8170.54
617.055	8346.67
617.25	8242.22
617.445	8940.58
617.641	8680.49
617.836	9083.94
618.031	9282.59
618.226	9612.31
618.421	9927.7
618.616	10228.75
618.811	10007.57
619.006	10673.16
619.201	10607.62
619.396	10986.5
619.591	11000.83
619.786	11426.81
619.981	11664.38
620.176	12035.06
620.371	11987.96
620.566	12348.4
620.761	12770.28
620.956	12995.56
621.151	12948.45
621.346	13503.45
621.541	13454.3
621.735	14238.67
621.93	14222.29
622.125	14431.18
622.32	14728.14
622.515	14918.6
622.709	15227.84
622.904	15772.6
623.099	15786.94
623.294	16047.03
623.488	16227.25
623.683	16792.49
623.878	16751.53
624.072	17056.68
624.267	17075.11
624.462	17699.74
624.656	17763.23
624.851	18502.54
625.046	18529.17
625.24	18424.72
625.435	18740.11
625.629	19110.79
625.824	19610.5
626.018	19743.61
626.213	19540.86
626.407	20048.76
626.602	19960.7
626.796	20374.39
626.991	20790.13
627.185	20712.3
627.38	20814.7
627.574	21072.75
627.768	21132.14
627.963	21379.94
628.157	21150.57
628.352	21435.24
628.546	21138.28
628.74	21295.97
628.935	21175.14
629.129	21349.22
629.323	21046.12
629.517	20986.73
629.712	20595.57
629.906	20759.41
630.1	20489.07
630.294	20329.33
630.489	19762.05
630.683	19846.01
630.877	19190.66
631.071	19080.07
631.265	18881.42
631.459	18387.86
631.653	17904.54
631.848	17773.47
632.042	17171.36
632.236	16911.27
632.43	16309.17
632.624	15864.76
632.818	15354.82
633.012	14859.21
633.206	14308.3
633.4	13878.23
633.594	13245.41
633.788	13118.43
633.982	12614.63
634.176	12274.67
634.369	11656.18
634.563	11367.42
634.757	10722.31
634.951	10535.95
635.145	10128.4
635.339	9667.61
635.533	9301.02
635.726	9034.78
635.92	8449.07
636.114	8174.64
636.308	7975.98
636.501	7533.62
636.695	7271.48
636.889	7015.49
637.083	6667.33
637.276	6286.41
637.47	6069.33
637.664	5784.66
637.857	5727.32
638.051	5356.63
638.244	5264.47
638.438	4742.24
638.632	4836.45
638.825	4502.63
639.019	4516.97
639.212	4220.01
639.406	4138.09
639.599	3910.77
639.793	3910.77
639.986	3599.48
640.18	3656.82
640.373	3359.86
640.567	3212.41
640.76	3214.46
640.954	3097.72
641.147	2749.57
641.34	2858.11
641.534	2698.37
641.727	2704.51
641.92	2483.33
642.114	2475.14
642.307	2225.29
642.5	2354.31
642.694	2169.99
642.887	2004.11
643.08	2172.04
643.273	1963.15
643.467	1803.41
643.66	1842.32
643.853	1584.27
644.046	1670.29
644.239	1610.9
644.432	1449.11
644.626	1283.22
644.819	1365.14
645.012	1303.7
645.205	1330.33
645.398	1338.52
645.591	1135.77
645.784	1070.23
645.977	1010.84
646.17	967.84
646.363	1031.32
646.556	984.22
646.749	853.15
646.942	916.64
647.135	967.84
647.328	806.05
647.521	890.01
647.714	812.19
647.907	752.8
648.099	748.7
648.292	861.34
648.485	556.19
648.678	599.2
648.871	603.3
649.064	640.16
649.256	584.87
649.449	486.56
649.642	451.75
649.835	541.86
650.027	437.41
650.22	502.95
650.413	498.85
650.605	441.51
650.798	404.64
650.991	408.74
651.183	410.79
651.376	425.12
651.568	461.99
651.761	353.45
651.954	388.26
652.146	310.44
652.339	455.84
652.531	398.5
652.724	265.38
652.916	332.97
653.109	156.84
653.301	310.44
653.494	339.11
653.686	273.57
653.879	373.92
654.071	281.77
654.263	263.33
654.456	289.96
654.648	312.49
654.84	318.63
655.033	273.57
655.225	341.16
655.417	130.22
655.61	230.57
655.802	212.14
655.994	302.25
656.186	191.66
656.379	279.72
656.571	124.07
656.763	162.98
656.955	197.8
657.148	259.24
657.34	251.05
657.532	152.74
657.724	128.17
657.916	162.98
658.108	261.29
658.3	193.7
658.492	171.18
658.684	48.3
658.876	238.76
659.068	83.11
659.26	83.11
659.452	66.73
659.644	126.12
659.836	244.9
660.028	122.02
660.22	74.92
660.412	124.07
660.604	72.87
660.796	56.49
660.988	212.14
661.18	111.78
661.372	199.85
661.563	62.63
661.755	154.79
661.947	87.21
662.139	138.41
662.331	81.07
662.522	119.98
662.714	130.22
662.906	109.74
663.097	91.31
663.289	44.2
663.481	17.58
663.673	175.27
663.864	79.02
664.056	191.66
664.247	109.74
664.439	236.71
664.631	85.16
664.822	111.78
665.014	144.55
665.205	44.2
665.397	111.78
665.588	142.5
665.78	66.73
665.971	183.46
666.163	58.54
666.354	142.5
666.546	103.59
666.737	31.91
666.929	64.68
667.12	93.35
667.311	105.64
667.503	81.07
667.694	134.31
667.885	150.7
668.077	134.31
668.268	11.43
668.459	124.07
668.651	60.59
668.842	126.12
669.033	95.4
669.224	-27.48
669.416	271.53
669.607	62.63
669.798	36.01
669.989	205.99
670.18	44.2
670.371	138.41
670.563	46.25
670.754	136.36
670.945	64.68
671.136	185.51
671.327	33.96
671.518	162.98
671.709	292.01
671.9	205.99
672.091	167.08
672.282	95.4
672.473	105.64
672.664	23.72
672.855	111.78
673.046	113.83
673.237	105.64
673.428	66.73
673.619	193.7
673.809	42.15
674	173.22
674.191	107.69
674.382	107.69
674.573	148.65
674.764	138.41
674.954	140.46
675.145	68.78
675.336	48.3
675.527	56.49
675.717	79.02
675.908	105.64
676.099	70.83
676.289	70.83
676.48	27.82
676.671	72.87
676.861	107.69
677.052	91.31
677.243	99.5
677.433	85.16
677.624	142.5
677.814	81.07
678.005	-4.95
678.195	253.09
678.386	-2.9
678.576	7.34
678.767	27.82
678.957	68.78
679.148	81.07
679.338	142.5
679.529	89.26
679.719	62.63
679.909	216.23
680.1	152.74
680.29	126.12
680.481	-33.62
680.671	173.22
680.861	165.03
681.052	79.02
681.242	48.3
681.432	126.12
681.622	62.63
681.813	36.01
682.003	119.98
682.193	62.63
682.383	158.89
682.573	44.2
682.764	70.83
682.954	115.88
683.144	193.7
683.334	115.88
683.524	62.63
683.714	154.79
683.904	158.89
684.094	109.74
684.284	79.02
684.474	228.52
684.664	175.27
684.854	113.83
685.044	113.83
685.234	109.74
685.424	107.69
685.614	50.35
685.804	195.75
685.994	189.61
686.184	107.69
686.374	144.55
686.564	117.93
686.753	68.78
686.943	83.11
687.133	40.11
687.323	115.88
687.513	154.79
687.702	124.07
687.892	107.69
688.082	203.94
688.272	220.33
688.461	115.88
688.651	269.48
688.841	189.61
689.03	76.97
689.22	91.31
689.41	165.03
689.599	87.21
689.789	27.82
689.979	251.05
690.168	136.36
690.358	218.28
690.547	169.13
690.737	117.93
690.926	173.22
691.116	83.11
691.305	179.37
691.495	185.51
691.684	70.83
691.874	83.11
692.063	85.16
692.252	173.22
692.442	232.62
692.631	109.74
692.82	50.35
693.01	173.22
693.199	142.5
693.388	99.5
693.578	142.5
693.767	183.46
693.956	177.32
694.146	62.63
694.335	214.18
694.524	97.45
694.713	216.23
694.902	95.4
695.092	87.21
695.281	148.65
695.47	140.46
695.659	93.35
695.848	85.16
696.037	25.77
696.226	255.14
696.415	119.98
696.604	214.18
696.793	160.94
696.982	191.66
697.171	287.91
697.36	76.97
697.549	101.55
697.738	-37.72
697.927	136.36
698.116	-4.95
698.305	175.27
698.494	201.9
698.683	134.31
698.872	273.57
699.061	117.93
699.25	130.22
699.438	72.87
699.627	105.64
699.816	228.52
700.005	91.31
700.193	50.35
700.382	144.55
700.571	93.35
700.76	179.37
700.948	224.42
701.137	183.46
701.326	199.85
701.514	76.97
701.703	62.63
701.892	87.21
702.08	265.38
702.269	167.08
702.457	38.06
702.646	150.7
702.834	38.06
703.023	150.7
703.212	212.14
703.4	29.87
703.589	107.69
703.777	83.11
703.965	40.11
704.154	31.91
704.342	-25.43
704.531	136.36
704.719	105.64
704.907	216.23
705.096	58.54
705.284	81.07
705.472	124.07
705.661	138.41
705.849	134.31
706.037	210.09
706.226	150.7
706.414	160.94
706.602	17.58
706.79	216.23
706.979	122.02
707.167	97.45
707.355	27.82
707.543	162.98
707.731	138.41
707.919	107.69
708.107	132.26
708.296	52.39
708.484	99.5
708.672	185.51
708.86	148.65
709.048	187.56
709.236	72.87
709.424	216.23
709.612	128.17
709.8	5.29
709.988	138.41
710.176	220.33
710.364	236.71
710.551	140.46
710.739	130.22
710.927	66.73
711.115	87.21
711.303	130.22
711.491	167.08
711.679	3.24
711.866	52.39
712.054	58.54
712.242	97.45
712.43	195.75
712.617	150.7
712.805	220.33
712.993	152.74
713.181	3.24
713.368	175.27
713.556	132.26
713.744	27.82
713.931	345.25
714.119	134.31
714.306	136.36
714.494	93.35
714.682	197.8
714.869	74.92
715.057	105.64
715.244	31.91
715.432	109.74
715.619	97.45
715.807	58.54
715.994	101.55
716.182	128.17
716.369	195.75
716.556	136.36
716.744	99.5
716.931	46.25
717.119	177.32
717.306	99.5
717.493	162.98
717.681	79.02
717.868	42.15
718.055	212.14
718.242	165.03
718.43	132.26
718.617	228.52
718.804	107.69
718.991	126.12
719.179	185.51
719.366	138.41
719.553	142.5
719.74	148.65
719.927	136.36
720.114	187.56
720.301	91.31
720.488	144.55
720.676	56.49
720.863	236.71
721.05	263.33
721.237	169.13
721.424	167.08
721.611	109.74
721.798	113.83
721.985	122.02
722.172	23.72
722.358	117.93
722.545	246.95
722.732	128.17
722.919	251.05
723.106	242.85
723.293	189.61
723.48	167.08
723.667	93.35
723.853	208.04
724.04	160.94
724.227	230.57
724.414	156.84
724.6	244.9
724.787	242.85
724.974	244.9
725.161	105.64
725.347	44.2
725.534	158.89
725.72	132.26
725.907	179.37
726.094	158.89
726.28	152.74
726.467	193.7
726.653	130.22
726.84	343.21
727.027	365.73
727.213	142.5
727.4	199.85
727.586	244.9
727.773	144.55
727.959	126.12
728.145	242.85
728.332	183.46
728.518	134.31
728.705	220.33
728.891	230.57
729.077	160.94
729.264	162.98
729.45	91.31
729.636	238.76
729.823	304.29
730.009	261.29
730.195	150.7
730.382	218.28
730.568	122.02
730.754	128.17
730.94	162.98
731.126	181.42
731.313	253.09
731.499	255.14
731.685	238.76
731.871	216.23
732.057	302.25
732.243	273.57
732.429	193.7
732.615	265.38
732.801	140.46
732.987	165.03
733.173	212.14
733.359	167.08
733.545	218.28
733.731	187.56
733.917	298.15
734.103	210.09
734.289	193.7
734.475	85.16
734.661	320.68
734.847	255.14
735.033	185.51
735.219	277.67
735.404	175.27
735.59	91.31
735.776	169.13
735.962	189.61
736.148	185.51
736.333	294.05
736.519	126.12
736.705	189.61
736.89	119.98
737.076	136.36
737.262	103.59
737.447	97.45
737.633	85.16
737.819	167.08
738.004	220.33
738.19	212.14
738.375	132.26
738.561	263.33
738.747	275.62
738.932	187.56
739.118	375.97
739.303	197.8
739.489	277.67
739.674	177.32
739.859	122.02
740.045	214.18
740.23	251.05
740.416	60.59
740.601	287.91
740.786	281.77
740.972	185.51
741.157	107.69
741.342	234.66
741.528	68.78
741.713	259.24
741.898	115.88
742.084	234.66
742.269	142.5
742.454	158.89
742.639	304.29
742.824	138.41
743.01	339.11
743.195	269.48
743.38	259.24
743.565	140.46
743.75	240.81
743.935	199.85
744.12	205.99
744.305	136.36
744.49	134.31
744.675	218.28
744.86	177.32
745.045	193.7
745.23	177.32
745.415	122.02
745.6	304.29
745.785	169.13
745.97	249
746.155	218.28
746.34	257.19
746.525	214.18
746.71	363.69
746.895	81.07
747.079	126.12
747.264	162.98
747.449	296.1
747.634	257.19
747.819	259.24
748.003	253.09
748.188	72.87
748.373	263.33
748.557	119.98
748.742	148.65
748.927	144.55
749.111	105.64
749.296	179.37
749.481	203.94
749.665	138.41
749.85	103.59
750.034	226.47
750.219	175.27
750.404	132.26
750.588	165.03
750.773	150.7
750.957	187.56
751.141	132.26
751.326	228.52
751.51	103.59
751.695	218.28
751.879	124.07
752.064	242.85
752.248	136.36
752.432	195.75
752.617	232.62
752.801	208.04
752.985	103.59
753.17	224.42
753.354	181.42
753.538	162.98
753.722	50.35
753.907	142.5
754.091	79.02
754.275	232.62
754.459	76.97
754.643	105.64
754.828	134.31
755.012	115.88
755.196	64.68
755.38	146.6
755.564	109.74
755.748	138.41
755.932	165.03
756.116	146.6
756.3	156.84
756.484	150.7
756.668	234.66
756.852	79.02
757.036	126.12
757.22	83.11
757.404	70.83
757.588	126.12
757.772	218.28
757.956	56.49
758.14	361.64
758.323	36.01
758.507	185.51
758.691	68.78
758.875	171.18
759.059	232.62
759.242	62.63
759.426	128.17
759.61	156.84
759.794	105.64
759.977	169.13
760.161	341.16
760.345	177.32
760.528	208.04
760.712	171.18
760.895	208.04
761.079	52.39
761.263	119.98
761.446	107.69
761.63	154.79
761.813	203.94
761.997	44.2
762.18	44.2
762.364	101.55
762.547	-82.77
762.731	136.36
762.914	81.07
763.098	15.53
763.281	13.48
763.464	68.78
763.648	122.02
763.831	40.11
764.015	115.88
764.198	97.45
764.381	48.3
764.564	165.03
764.748	83.11
764.931	97.45
765.114	60.59
765.297	138.41
765.481	101.55
765.664	99.5
765.847	54.44
766.03	152.74
766.213	-11.09
766.397	97.45
766.58	70.83
766.763	195.75
766.946	7.34
767.129	70.83
767.312	89.26
767.495	68.78
767.678	13.48
767.861	107.69
768.044	81.07
768.227	85.16
768.41	23.72
768.593	122.02
768.776	142.5
768.959	85.16
769.142	115.88
769.324	105.64
769.507	79.02
769.69	68.78
769.873	36.01
770.056	230.57
770.239	66.73
770.421	158.89
770.604	136.36
770.787	72.87
770.97	83.11
771.152	-25.43
771.335	167.08
771.518	11.43
771.7	107.69
771.883	193.7
772.066	11.43
772.248	111.78
772.431	160.94
772.613	169.13
772.796	36.01
772.978	56.49
773.161	177.32
773.343	-66.39
773.526	76.97
773.708	-27.48
773.891	21.67
774.073	48.3
774.256	7.34
774.438	136.36
774.621	29.87
774.803	126.12
774.985	81.07
775.168	76.97
775.35	58.54
775.532	134.31
775.715	-25.43
775.897	117.93
776.079	9.39
776.261	142.5
776.444	40.11
776.626	126.12
776.808	-52.05
776.99	-72.53
777.173	150.7
777.355	44.2
777.537	-29.52
777.719	89.26
777.901	17.58
778.083	19.63
778.265	-17.24
778.447	113.83
778.629	-4.95
778.811	124.07
778.993	60.59
779.175	150.7
779.357	44.2
779.539	-43.86
779.721	66.73
779.903	56.49
780.085	89.26
780.267	142.5
780.449	91.31
780.631	50.35
780.812	119.98
780.994	-37.72
781.176	19.63
781.358	-7
781.54	5.29
781.721	111.78
781.903	154.79
782.085	56.49
782.267	79.02
782.448	-52.05
782.63	-23.38
782.812	64.68
782.993	70.83
783.175	1.19
783.357	-45.91
783.538	23.72
783.72	23.72
783.901	48.3
784.083	-39.76
784.264	-17.24
784.446	-62.29
784.627	-25.43
784.809	17.58
784.99	-11.09
785.172	48.3
785.353	54.44
785.535	76.97
785.716	44.2
785.897	3.24
786.079	11.43
786.26	25.77
786.441	68.78
786.623	-70.48
786.804	21.67
786.985	62.63
787.167	62.63
787.348	42.15
787.529	-72.53
787.71	138.41
787.891	126.12
788.073	-13.14
788.254	-125.78
788.435	136.36
788.616	46.25
788.797	3.24
788.978	54.44
789.159	-0.85
789.34	107.69
789.522	23.72
789.703	9.39
789.884	27.82
790.065	31.91
790.246	138.41
790.427	25.77
790.607	68.78
790.788	109.74
790.969	-37.72
791.15	50.35
791.331	5.29
791.512	-35.67
791.693	-13.14
791.874	-9.05
792.054	246.95
792.235	109.74
792.416	23.72
792.597	-82.77
792.778	66.73
792.958	42.15
793.139	31.91
793.32	101.55
793.5	27.82
793.681	27.82
793.862	64.68
794.042	60.59
794.223	-35.67
794.404	-0.85
794.584	-31.57
794.765	17.58
794.945	44.2
795.126	68.78
795.306	76.97
795.487	-33.62
795.667	-54.1
795.848	-41.81
796.028	17.58
796.209	38.06
796.389	115.88
796.57	27.82
796.75	-80.72
796.93	23.72
797.111	-70.48
797.291	-33.62
797.471	27.82
797.652	-15.19
797.832	31.91
798.012	64.68
798.192	7.34
798.373	-37.72
798.553	-27.48
798.733	40.11
798.913	-11.09
799.093	-21.33
799.274	46.25
799.454	72.87
799.634	74.92
799.814	87.21
799.994	54.44
800.174	48.3
800.354	113.83
800.534	-115.54
800.714	91.31
800.894	-50
801.074	-7
801.254	-37.72
801.434	56.49
801.614	-17.24
801.794	-68.44
801.974	2004.11
802.154	-60.24
802.334	46.25
802.514	-2.9
802.693	-45.91
802.873	-99.16
803.053	140.46
803.233	23.72
803.413	48.3
803.592	79.02
803.772	11.43
803.952	44.2
804.131	-60.24
804.311	48.3
804.491	136.36
804.67	-17.24
804.85	-21.33
805.03	-7
805.209	64.68
805.389	17.58
805.568	29.87
805.748	44.2
805.928	5.29
806.107	40.11
806.287	5.29
806.466	56.49
806.646	25.77
806.825	-50
807.004	-4.95
807.184	19.63
807.363	79.02
807.543	19.63
807.722	-0.85
807.901	95.4
808.081	62.63
808.26	-170.83
808.439	105.64
808.619	-19.29
808.798	-2.9
808.977	-21.33
809.156	23.72
809.336	-2.9
809.515	95.4
809.694	-52.05
809.873	-21.33
810.052	103.59
810.231	97.45
810.411	81.07
810.59	58.54
810.769	29.87
810.948	56.49
811.127	-113.49
811.306	11.43
811.485	-21.33
811.664	138.41
811.843	40.11
812.022	-7
812.201	-19.29
812.38	-37.72
812.559	-86.87
812.737	29.87
812.916	-50
813.095	-66.39
813.274	42.15
813.453	7.34
813.632	62.63
813.811	64.68
813.989	-76.63
814.168	117.93
814.347	-50
814.526	7.34
814.704	76.97
814.883	103.59
815.062	-47.96
815.24	119.98
815.419	-113.49
815.598	81.07
815.776	-107.35
815.955	-2.9
816.133	-39.76
816.312	-62.29
816.49	19.63
816.669	83.11
816.847	66.73
817.026	72.87
817.204	-80.72
817.383	-33.62
817.561	-58.2
817.74	38.06
817.918	36.01
818.097	-9.05
818.275	-11.09
818.453	7.34
818.632	46.25
818.81	-7
818.988	-62.29
819.167	-41.81
819.345	7.34
819.523	31.91
819.701	11.43
819.879	36.01
820.058	23.72
820.236	85.16
820.414	-19.29
820.592	-25.43
820.77	1.19
820.948	-13.14
821.127	-45.91
821.305	81.07
821.483	-31.57
821.661	58.54
821.839	50.35
822.017	-70.48
822.195	-33.62
822.373	25.77
822.551	-52.05
822.729	111.78
822.907	29.87
823.085	91.31
823.262	27.82
823.44	-27.48
823.618	-19.29
823.796	54.44
823.974	-21.33
824.152	36.01
824.329	11.43
824.507	-9.05
824.685	31.91
824.863	-13.14
825.04	-47.96
825.218	91.31
825.396	-60.24
825.574	1.19
825.751	17.58
825.929	-41.81
826.107	-88.92
826.284	72.87
826.462	31.91
826.639	-35.67
826.817	-27.48
826.994	-4.95
827.172	-82.77
827.349	46.25
827.527	-9.05
827.704	27.82
827.882	62.63
828.059	48.3
828.237	31.91
828.414	91.31
828.591	-123.73
828.769	25.77
828.946	-127.83
829.124	87.21
829.301	105.64
829.478	-4.95
829.655	68.78
829.833	9.39
830.01	-131.92
830.187	21.67
830.364	-25.43
830.542	7.34
830.719	117.93
830.896	-31.57
831.073	48.3
831.25	3.24
831.427	105.64
831.604	-23.38
831.782	-4.95
831.959	91.31
832.136	-11.09
832.313	-23.38
832.49	-136.02
832.667	40.11
832.844	-70.48
833.021	89.26
833.198	-45.91
833.374	-2.9
833.551	-0.85
833.728	-19.29
833.905	44.2
834.082	-52.05
834.259	7.34
834.436	138.41
834.612	-68.44
834.789	64.68
834.966	-41.81
835.143	23.72
835.319	-109.4
835.496	25.77
835.673	119.98
835.85	105.64
836.026	-13.14
836.203	46.25
836.38	-11.09
836.556	3.24
836.733	-50
836.909	103.59
837.086	5.29
837.262	-50
837.439	-86.87
837.616	-88.92
837.792	1.19
837.968	-0.85
838.145	-62.29
838.321	31.91
838.498	27.82
838.674	19.63
838.851	25.77
839.027	-17.24
839.203	-7
839.38	13.48
839.556	-97.11
839.732	-7
839.909	40.11
840.085	21.67
840.261	-60.24
840.437	64.68
840.614	-56.15
840.79	64.68
840.966	74.92
841.142	19.63
841.318	-29.52
841.494	25.77
841.671	74.92
841.847	-76.63
842.023	-23.38
842.199	31.91
842.375	165.03
842.551	-148.31
842.727	-68.44
842.903	105.64
843.079	-74.58
843.255	11.43
843.431	31.91
843.607	81.07
843.783	-154.45
843.959	-27.48
844.134	-15.19
844.31	54.44
844.486	-50
844.662	-47.96
844.838	23.72
845.013	33.96
845.189	56.49
845.365	113.83
845.541	-19.29
845.716	-78.68
845.892	74.92
846.068	-15.19
846.244	-60.24
846.419	3.24
846.595	-60.24
846.77	-9.05
846.946	87.21
847.122	-4.95
847.297	60.59
847.473	56.49
847.648	-9.05
847.824	3.24
847.999	-127.83
848.175	-45.91
848.35	-13.14
848.526	64.68
848.701	52.39
848.876	130.22
849.052	40.11
849.227	-37.72
849.403	44.2
849.578	-62.29
849.753	21.67
849.929	44.2
850.104	-60.24
850.279	-13.14
850.454	-43.86
850.63	58.54
850.805	72.87
850.98	7.34
851.155	-23.38
851.33	-13.14
851.505	-127.83
851.681	101.55
851.856	-58.2
852.031	3.24
852.206	17.58
852.381	-158.55
852.556	-45.91
852.731	66.73
852.906	15.53
853.081	5.29
853.256	117.93
853.431	-27.48
853.606	-31.57
853.781	-93.01
853.956	-119.64
854.131	15.53
854.305	-21.33
854.48	5.29
854.655	-41.81
854.83	-9.05
855.005	-13.14
855.18	58.54
855.354	-99.16
855.529	3.24
855.704	21.67
855.879	52.39
856.053	-60.24
856.228	50.35
856.403	-64.34
856.577	89.26
856.752	-66.39
856.926	-35.67
857.101	23.72
857.276	-82.77
857.45	-43.86
857.625	23.72
857.799	-25.43
857.974	11.43
858.148	-158.55
858.323	-52.05
858.497	-78.68
858.672	-50
858.846	-107.35
859.02	5.29
859.195	-76.63
859.369	-56.15
859.543	-9.05
859.718	-54.1
859.892	-43.86
860.066	25.77
860.241	-99.16
860.415	21.67
860.589	-4.95
860.763	-21.33
860.938	5.29
861.112	79.02
861.286	54.44
861.46	52.39
861.634	-54.1
861.808	46.25
861.982	48.3
862.157	-80.72
862.331	-21.33
862.505	-115.54
862.679	-64.34
862.853	-21.33
863.027	-9.05
863.201	119.98
863.375	31.91
863.549	134.31
863.722	-56.15
863.896	138.41
864.07	-31.57
864.244	-19.29
864.418	74.92
864.592	1.19
864.766	11.43
864.939	38.06
865.113	-15.19
865.287	95.4
865.461	-160.59
865.634	-11.09
865.808	-9.05
865.982	-21.33
866.156	-97.11
866.329	-111.44
866.503	-4.95
866.676	19.63
866.85	13.48
867.024	-4.95
867.197	44.2
867.371	56.49
867.544	105.64
867.718	-131.92
867.891	3.24
868.065	-93.01
868.238	-15.19
868.412	66.73
868.585	-52.05
868.759	-29.52
868.932	7.34
869.105	-129.88
869.279	-4.95
869.452	-52.05
869.625	21.67
869.799	38.06
869.972	-154.45
870.145	-27.48
870.319	136.36
870.492	-58.2
870.665	-35.67
870.838	-78.68
871.011	-107.35
871.185	3.24
871.358	19.63
871.531	21.67
871.704	-29.52
871.877	-9.05
872.05	-7
872.223	-88.92
872.396	27.82
872.569	21.67
872.742	-119.64
872.915	40.11
873.088	-58.2
873.261	-39.76
873.434	76.97
873.607	-70.48
873.78	44.2
873.953	-115.54
874.126	25.77
874.299	48.3
874.471	-95.06
874.644	-47.96
874.817	74.92
874.99	74.92
875.163	-58.2
875.335	107.69
875.508	97.45
875.681	97.45
875.853	-58.2
876.026	-39.76
876.199	19.63
876.371	38.06
876.544	13.48
876.717	-15.19
876.889	-15.19
877.062	3.24
877.234	-50
877.407	-76.63
877.579	-33.62
877.752	-21.33
877.924	29.87
878.097	31.91
878.269	-47.96
878.442	9.39
878.614	52.39
878.786	9.39
878.959	42.15
879.131	11.43
879.303	-90.96
879.476	-93.01
879.648	-2.9
879.82	11.43
879.993	-54.1
880.165	-99.16
880.337	-121.68
880.509	-17.24
880.681	-117.59
880.854	-74.58
881.026	64.68
881.198	122.02
881.37	-68.44
881.542	-2.9
881.714	-52.05
881.886	-78.68
882.058	58.54
882.23	13.48
882.402	-25.43
882.574	-21.33
882.746	70.83
882.918	134.31
883.09	-15.19
883.262	-60.24
883.434	-2.9
883.606	-78.68
883.778	-84.82
883.95	89.26
884.122	-25.43
884.293	27.82
884.465	-7
884.637	105.64
884.809	-29.52
884.98	-0.85
885.152	-4.95
885.324	19.63
885.496	-33.62
885.667	-74.58
885.839	-119.64
886.011	54.44
886.182	-4.95
886.354	-13.14
886.525	-35.67
886.697	-2.9
886.869	-74.58
887.04	3.24
887.212	72.87
887.383	128.17
887.555	-0.85
887.726	38.06
887.897	-11.09
888.069	-27.48
888.24	70.83
888.412	-27.48
888.583	-33.62
888.754	17.58
888.926	-90.96
889.097	-50
889.268	-84.82
889.44	-95.06
889.611	-76.63
889.782	-62.29
889.953	-52.05
890.125	111.78
890.296	-9.05
890.467	-37.72
890.638	-37.72
890.809	-84.82
890.98	-99.16
891.151	-29.52
891.323	70.83
891.494	-95.06
891.665	-41.81
891.836	-17.24
892.007	13.48
892.178	7.34
892.349	7.34
892.52	-39.76
892.691	-33.62
892.862	31.91
893.032	-154.45
893.203	3.24
893.374	7.34
893.545	25.77
893.716	52.39
893.887	40.11
894.057	-29.52
894.228	-88.92
894.399	-29.52
894.57	89.26
894.74	13.48
894.911	-4.95
895.082	-27.48
895.253	-27.48
895.423	-21.33
895.594	68.78
895.764	-13.14
895.935	-99.16
896.106	42.15
896.276	-58.2
896.447	-29.52
896.617	-47.96
896.788	-58.2
896.958	-119.64
897.129	-54.1
897.299	9.39
897.47	111.78
897.64	52.39
897.81	-29.52
897.981	23.72
898.151	21.67
898.322	15.53
898.492	-47.96
898.662	-86.87
898.832	-43.86
899.003	-50
899.173	130.22
899.343	-47.96
899.513	-60.24
