Data from USB4F104151__26__11-24-50-105.txt Node

Date: Wed Feb 26 11:24:50 EST 2025
User: louis
Spectrometer: USB4F10415
Trigger mode: 4
Integration Time (sec): 1.000000E-1
Scans to average: 1
Electric dark correction enabled: true
Nonlinearity correction enabled: false
Boxcar width: 0
XAxis mode: Wavelengths
Number of Pixels in Spectrum: 3648
>>>>>Begin Spectral Data<<<<<
178.204	-377.34
178.424	-377.34
178.644	-377.34
178.864	-346.62
179.084	-369.15
179.304	-2.56
179.524	-2.56
179.744	38.4
179.964	65.02
180.184	46.59
180.404	26.11
180.624	-10.75
180.844	-115.2
181.064	-90.62
181.283	38.4
181.503	-43.52
181.723	50.69
181.943	-61.95
182.163	153.09
182.383	-55.81
182.602	75.26
182.822	142.85
183.042	52.74
183.262	3.58
183.482	-12.8
183.701	32.26
183.921	101.89
184.141	30.21
184.361	69.12
184.58	69.12
184.8	-8.7
185.02	30.21
185.239	99.84
185.459	79.36
185.679	189.95
185.898	-90.62
186.118	71.17
186.338	99.84
186.557	73.21
186.777	-12.8
186.997	71.17
187.216	60.93
187.436	116.22
187.655	44.54
187.875	28.16
188.095	38.4
188.314	97.79
188.534	146.94
188.753	3.58
188.973	161.28
189.192	173.57
189.412	38.4
189.631	5.63
189.851	38.4
190.07	140.8
190.29	-18.94
190.509	5.63
190.729	-29.18
190.948	87.55
191.168	275.96
191.387	103.93
191.607	5.63
191.826	95.74
192.045	11.78
192.265	42.5
192.484	-2.56
192.704	-4.61
192.923	-59.9
193.142	126.46
193.362	73.21
193.581	112.13
193.8	159.23
194.02	79.36
194.239	58.88
194.458	46.59
194.678	3.58
194.897	-74.24
195.116	-14.85
195.335	79.36
195.555	46.59
195.774	-41.47
195.993	163.33
196.212	9.73
196.432	-0.51
196.651	3.58
196.87	83.45
197.089	161.28
197.308	73.21
197.528	67.07
197.747	-23.04
197.966	-12.8
198.185	95.74
198.404	-53.76
198.623	181.76
198.842	134.65
199.062	142.85
199.281	73.21
199.5	-27.14
199.719	9.73
199.938	67.07
200.157	73.21
200.376	99.84
200.595	138.75
200.814	112.13
201.033	-31.23
201.252	81.41
201.471	58.88
201.69	17.92
201.909	26.11
202.128	87.55
202.347	97.79
202.566	75.26
202.785	-92.67
203.004	11.78
203.223	192
203.442	-8.7
203.661	-29.18
203.879	144.89
204.098	99.84
204.317	-66.05
204.536	146.94
204.755	7.68
204.974	116.22
205.193	58.88
205.411	132.61
205.63	112.13
205.849	138.75
206.068	-14.85
206.287	-68.09
206.505	153.09
206.724	9.73
206.943	-68.09
207.162	-53.76
207.381	58.88
207.599	71.17
207.818	93.69
208.037	22.02
208.255	22.02
208.474	112.13
208.693	73.21
208.911	73.21
209.13	112.13
209.349	81.41
209.567	60.93
209.786	87.55
210.005	91.65
210.223	75.26
210.442	-82.43
210.661	17.92
210.879	81.41
211.098	11.78
211.316	-25.09
211.535	17.92
211.753	42.5
211.972	89.6
212.191	-33.28
212.409	11.78
212.628	69.12
212.846	38.4
213.065	71.17
213.283	124.41
213.502	-6.66
213.72	52.74
213.938	48.64
214.157	58.88
214.375	44.54
214.594	48.64
214.812	83.45
215.031	-31.23
215.249	54.78
215.467	44.54
215.686	134.65
215.904	108.03
216.122	85.5
216.341	144.89
216.559	48.64
216.778	105.98
216.996	85.5
217.214	34.3
217.432	-59.9
217.651	-59.9
217.869	112.13
218.087	28.16
218.306	5.63
218.524	17.92
218.742	13.82
218.96	87.55
219.179	1.54
219.397	17.92
219.615	261.63
219.833	62.98
220.051	13.82
220.27	130.56
220.488	108.03
220.706	44.54
220.924	-86.53
221.142	9.73
221.36	99.84
221.578	83.45
221.796	89.6
222.015	-25.09
222.233	42.5
222.451	175.61
222.669	-20.99
222.887	91.65
223.105	-2.56
223.323	46.59
223.541	-68.09
223.759	110.08
223.977	13.82
224.195	116.22
224.413	38.4
224.631	62.98
224.849	87.55
225.067	153.09
225.285	-6.66
225.503	7.68
225.721	-23.04
225.939	65.02
226.157	81.41
226.375	243.2
226.592	22.02
226.81	-47.62
227.028	83.45
227.246	91.65
227.464	93.69
227.682	128.51
227.9	75.26
228.117	28.16
228.335	46.59
228.553	28.16
228.771	-29.18
228.989	71.17
229.206	44.54
229.424	-33.28
229.642	-53.76
229.86	-29.18
230.077	130.56
230.295	-16.9
230.513	89.6
230.731	67.07
230.948	118.27
231.166	140.8
231.384	1.54
231.601	38.4
231.819	183.81
232.037	-29.18
232.254	-49.66
232.472	54.78
232.689	-14.85
232.907	116.22
233.125	-29.18
233.342	7.68
233.56	24.06
233.777	-18.94
233.995	-18.94
234.213	69.12
234.43	105.98
234.648	-41.47
234.865	-6.66
235.083	93.69
235.3	81.41
235.518	79.36
235.735	105.98
235.953	60.93
236.17	69.12
236.388	44.54
236.605	46.59
236.822	67.07
237.04	77.31
237.257	24.06
237.475	-35.33
237.692	17.92
237.909	79.36
238.127	50.69
238.344	42.5
238.562	9.73
238.779	-82.43
238.996	-18.94
239.214	11.78
239.431	42.5
239.648	28.16
239.865	13.82
240.083	1.54
240.3	-2.56
240.517	-86.53
240.735	101.89
240.952	105.98
241.169	101.89
241.386	103.93
241.603	13.82
241.821	-43.52
242.038	3.58
242.255	85.5
242.472	19.97
242.689	81.41
242.907	73.21
243.124	75.26
243.341	26.11
243.558	3.58
243.775	-53.76
243.992	22.02
244.209	89.6
244.426	192
244.643	75.26
244.86	-16.9
245.078	103.93
245.295	95.74
245.512	-20.99
245.729	-6.66
245.946	52.74
246.163	32.26
246.38	-10.75
246.597	97.79
246.814	3.58
247.031	52.74
247.248	38.4
247.464	54.78
247.681	71.17
247.898	85.5
248.115	81.41
248.332	-0.51
248.549	71.17
248.766	173.57
248.983	97.79
249.2	54.78
249.417	120.32
249.633	97.79
249.85	116.22
250.067	26.11
250.284	9.73
250.501	144.89
250.717	79.36
250.934	-2.56
251.151	67.07
251.368	22.02
251.585	79.36
251.801	77.31
252.018	24.06
252.235	87.55
252.451	-139.77
252.668	26.11
252.885	54.78
253.102	32.26
253.318	75.26
253.535	-45.57
253.752	26.11
253.968	-47.62
254.185	-37.38
254.401	75.26
254.618	3.58
254.835	-59.9
255.051	153.09
255.268	17.92
255.484	95.74
255.701	60.93
255.917	142.85
256.134	-35.33
256.351	-2.56
256.567	1.54
256.784	67.07
257	-104.96
257.217	44.54
257.433	42.5
257.65	46.59
257.866	185.85
258.082	-78.33
258.299	-51.71
258.515	-12.8
258.732	5.63
258.948	36.35
259.165	38.4
259.381	-131.58
259.597	101.89
259.814	62.98
260.03	28.16
260.246	34.3
260.463	87.55
260.679	71.17
260.895	-2.56
261.112	138.75
261.328	-12.8
261.544	9.73
261.761	132.61
261.977	-10.75
262.193	-43.52
262.409	54.78
262.626	34.3
262.842	-18.94
263.058	-33.28
263.274	85.5
263.49	81.41
263.707	54.78
263.923	89.6
264.139	-82.43
264.355	-6.66
264.571	85.5
264.787	30.21
265.004	185.85
265.22	56.83
265.436	15.87
265.652	56.83
265.868	38.4
266.084	-59.9
266.3	-12.8
266.516	-14.85
266.732	-8.7
266.948	32.26
267.164	-10.75
267.38	146.94
267.596	79.36
267.812	200.19
268.028	71.17
268.244	42.5
268.46	91.65
268.676	5.63
268.892	85.5
269.108	-35.33
269.324	-41.47
269.54	-25.09
269.756	79.36
269.972	-53.76
270.188	-59.9
270.403	-41.47
270.619	24.06
270.835	71.17
271.051	40.45
271.267	30.21
271.483	-4.61
271.698	194.05
271.914	79.36
272.13	-2.56
272.346	-8.7
272.562	108.03
272.777	52.74
272.993	50.69
273.209	-37.38
273.425	75.26
273.64	-137.73
273.856	65.02
274.072	-16.9
274.287	-4.61
274.503	144.89
274.719	97.79
274.934	34.3
275.15	-27.14
275.366	97.79
275.581	-82.43
275.797	7.68
276.012	75.26
276.228	15.87
276.444	56.83
276.659	159.23
276.875	-39.42
277.09	46.59
277.306	3.58
277.521	58.88
277.737	36.35
277.952	146.94
278.168	58.88
278.383	52.74
278.599	144.89
278.814	95.74
279.03	46.59
279.245	167.42
279.461	73.21
279.676	50.69
279.892	-47.62
280.107	-4.61
280.322	-66.05
280.538	62.98
280.753	-2.56
280.969	75.26
281.184	11.78
281.399	151.04
281.615	85.5
281.83	-43.52
282.045	-70.14
282.26	-84.48
282.476	79.36
282.691	83.45
282.906	32.26
283.122	65.02
283.337	46.59
283.552	13.82
283.767	22.02
283.983	42.5
284.198	5.63
284.413	71.17
284.628	-84.48
284.843	5.63
285.058	48.64
285.274	-43.52
285.489	-27.14
285.704	112.13
285.919	62.98
286.134	34.3
286.349	-12.8
286.564	1.54
286.779	108.03
286.995	15.87
287.21	-16.9
287.425	28.16
287.64	-33.28
287.855	-0.51
288.07	-104.96
288.285	105.98
288.5	194.05
288.715	46.59
288.93	-12.8
289.145	-8.7
289.36	122.37
289.575	-57.86
289.79	218.62
290.004	19.97
290.219	138.75
290.434	38.4
290.649	-25.09
290.864	-12.8
291.079	110.08
291.294	83.45
291.509	89.6
291.724	3.58
291.938	62.98
292.153	69.12
292.368	-4.61
292.583	58.88
292.798	110.08
293.012	73.21
293.227	30.21
293.442	22.02
293.657	71.17
293.871	155.13
294.086	85.5
294.301	220.67
294.516	50.69
294.73	7.68
294.945	-72.19
295.16	7.68
295.374	159.23
295.589	75.26
295.804	81.41
296.018	46.59
296.233	93.69
296.447	36.35
296.662	32.26
296.877	56.83
297.091	101.89
297.306	-18.94
297.52	7.68
297.735	103.93
297.949	-20.99
298.164	3.58
298.378	108.03
298.593	-4.61
298.807	11.78
299.022	46.59
299.236	185.85
299.451	15.87
299.665	36.35
299.88	-41.47
300.094	62.98
300.309	58.88
300.523	7.68
300.737	-16.9
300.952	54.78
301.166	46.59
301.381	-10.75
301.595	13.82
301.809	83.45
302.024	-68.09
302.238	-57.86
302.452	136.7
302.667	56.83
302.881	122.37
303.095	77.31
303.309	58.88
303.524	-27.14
303.738	-33.28
303.952	-12.8
304.166	28.16
304.381	-55.81
304.595	192
304.809	-6.66
305.023	3.58
305.237	58.88
305.452	54.78
305.666	52.74
305.88	75.26
306.094	73.21
306.308	75.26
306.522	54.78
306.736	93.69
306.95	110.08
307.164	5.63
307.379	24.06
307.593	163.33
307.807	103.93
308.021	114.17
308.235	75.26
308.449	-20.99
308.663	87.55
308.877	194.05
309.091	105.98
309.305	50.69
309.519	-104.96
309.733	85.5
309.947	-33.28
310.161	46.59
310.374	5.63
310.588	114.17
310.802	-14.85
311.016	-47.62
311.23	26.11
311.444	56.83
311.658	48.64
311.872	122.37
312.085	114.17
312.299	134.65
312.513	75.26
312.727	38.4
312.941	3.58
313.154	-0.51
313.368	-12.8
313.582	97.79
313.796	38.4
314.009	58.88
314.223	144.89
314.437	95.74
314.651	99.84
314.864	3.58
315.078	-74.24
315.292	-64
315.505	-25.09
315.719	62.98
315.933	122.37
316.146	-29.18
316.36	50.69
316.573	85.5
316.787	48.64
317.001	79.36
317.214	-53.76
317.428	9.73
317.641	-23.04
317.855	-2.56
318.068	99.84
318.282	52.74
318.495	142.85
318.709	60.93
318.922	13.82
319.136	54.78
319.349	118.27
319.563	-51.71
319.776	65.02
319.99	-80.38
320.203	118.27
320.417	-6.66
320.63	155.13
320.843	224.76
321.057	77.31
321.27	56.83
321.483	173.57
321.697	89.6
321.91	79.36
322.124	11.78
322.337	101.89
322.55	-0.51
322.763	75.26
322.977	48.64
323.19	-18.94
323.403	50.69
323.617	62.98
323.83	122.37
324.043	36.35
324.256	120.32
324.469	22.02
324.683	134.65
324.896	85.5
325.109	56.83
325.322	-68.09
325.535	91.65
325.748	58.88
325.962	-29.18
326.175	11.78
326.388	81.41
326.601	138.75
326.814	-37.38
327.027	71.17
327.24	138.75
327.453	-43.52
327.666	62.98
327.879	148.99
328.092	75.26
328.305	87.55
328.518	-12.8
328.731	-16.9
328.944	24.06
329.157	81.41
329.37	-45.57
329.583	153.09
329.796	218.62
330.009	-27.14
330.222	69.12
330.435	120.32
330.648	69.12
330.861	77.31
331.073	77.31
331.286	75.26
331.499	52.74
331.712	36.35
331.925	67.07
332.138	71.17
332.35	116.22
332.563	60.93
332.776	95.74
332.989	-59.9
333.202	-25.09
333.414	1.54
333.627	28.16
333.84	-20.99
334.053	71.17
334.265	-23.04
334.478	-23.04
334.691	-20.99
334.903	9.73
335.116	-59.9
335.329	13.82
335.541	103.93
335.754	177.66
335.966	26.11
336.179	19.97
336.392	69.12
336.604	-41.47
336.817	120.32
337.029	-6.66
337.242	-68.09
337.454	65.02
337.667	-66.05
337.88	151.04
338.092	83.45
338.305	118.27
338.517	36.35
338.729	103.93
338.942	114.17
339.154	9.73
339.367	-8.7
339.579	40.45
339.792	-53.76
340.004	157.18
340.217	-6.66
340.429	26.11
340.641	-39.42
340.854	-10.75
341.066	38.4
341.278	136.7
341.491	148.99
341.703	-61.95
341.915	42.5
342.128	103.93
342.34	89.6
342.552	40.45
342.764	26.11
342.977	42.5
343.189	67.07
343.401	22.02
343.613	-41.47
343.826	42.5
344.038	-47.62
344.25	77.31
344.462	34.3
344.674	83.45
344.886	-2.56
345.099	24.06
345.311	81.41
345.523	36.35
345.735	-61.95
345.947	124.41
346.159	19.97
346.371	67.07
346.583	42.5
346.795	181.76
347.007	26.11
347.219	120.32
347.431	-2.56
347.643	62.98
347.855	-90.62
348.067	153.09
348.279	1.54
348.491	-4.61
348.703	136.7
348.915	81.41
349.127	-0.51
349.339	46.59
349.551	-64
349.763	50.69
349.975	44.54
350.187	124.41
350.399	87.55
350.61	42.5
350.822	71.17
351.034	85.5
351.246	54.78
351.458	67.07
351.669	75.26
351.881	79.36
352.093	122.37
352.305	108.03
352.517	99.84
352.728	210.43
352.94	9.73
353.152	52.74
353.363	-104.96
353.575	34.3
353.787	165.37
353.999	-6.66
354.21	163.33
354.422	56.83
354.633	-18.94
354.845	22.02
355.057	40.45
355.268	79.36
355.48	128.51
355.692	-37.38
355.903	3.58
356.115	-18.94
356.326	-102.91
356.538	95.74
356.749	142.85
356.961	103.93
357.172	15.87
357.384	-51.71
357.595	181.76
357.807	-25.09
358.018	-12.8
358.23	-23.04
358.441	144.89
358.653	56.83
358.864	75.26
359.075	30.21
359.287	26.11
359.498	87.55
359.709	89.6
359.921	11.78
360.132	62.98
360.344	-41.47
360.555	-6.66
360.766	38.4
360.977	-39.42
361.189	83.45
361.4	60.93
361.611	114.17
361.823	118.27
362.034	30.21
362.245	-80.38
362.456	3.58
362.667	52.74
362.879	13.82
363.09	54.78
363.301	15.87
363.512	17.92
363.723	22.02
363.935	-45.57
364.146	40.45
364.357	75.26
364.568	73.21
364.779	17.92
364.99	192
365.201	1.54
365.412	120.32
365.623	-82.43
365.834	-18.94
366.045	65.02
366.256	108.03
366.467	114.17
366.678	13.82
366.889	56.83
367.1	95.74
367.311	42.5
367.522	-8.7
367.733	9.73
367.944	97.79
368.155	-49.66
368.366	46.59
368.577	95.74
368.788	91.65
368.999	1.54
369.209	-10.75
369.42	132.61
369.631	192
369.842	97.79
370.053	26.11
370.264	126.46
370.474	5.63
370.685	69.12
370.896	22.02
371.107	138.75
371.317	46.59
371.528	48.64
371.739	144.89
371.95	97.79
372.16	62.98
372.371	-25.09
372.582	-6.66
372.792	58.88
373.003	42.5
373.214	75.26
373.424	44.54
373.635	22.02
373.846	157.18
374.056	28.16
374.267	42.5
374.477	73.21
374.688	-4.61
374.898	99.84
375.109	101.89
375.319	81.41
375.53	112.13
375.74	73.21
375.951	40.45
376.161	-0.51
376.372	142.85
376.582	-12.8
376.793	108.03
377.003	-8.7
377.214	-64
377.424	48.64
377.635	-6.66
377.845	-20.99
378.055	93.69
378.266	-43.52
378.476	-4.61
378.686	58.88
378.897	-4.61
379.107	177.66
379.317	75.26
379.528	-55.81
379.738	58.88
379.948	-53.76
380.158	83.45
380.369	-16.9
380.579	108.03
380.789	13.82
380.999	83.45
381.21	60.93
381.42	259.58
381.63	54.78
381.84	85.5
382.05	52.74
382.261	77.31
382.471	114.17
382.681	-8.7
382.891	151.04
383.101	77.31
383.311	-64
383.521	52.74
383.731	62.98
383.941	36.35
384.151	32.26
384.361	34.3
384.571	48.64
384.781	69.12
384.991	226.81
385.201	136.7
385.411	75.26
385.621	140.8
385.831	71.17
386.041	85.5
386.251	15.87
386.461	91.65
386.671	136.7
386.881	44.54
387.091	28.16
387.301	85.5
387.511	9.73
387.72	153.09
387.93	69.12
388.14	-35.33
388.35	32.26
388.56	116.22
388.769	77.31
388.979	48.64
389.189	-16.9
389.399	40.45
389.609	50.69
389.818	159.23
390.028	38.4
390.238	44.54
390.447	17.92
390.657	73.21
390.867	-51.71
391.076	-29.18
391.286	95.74
391.496	-37.38
391.705	79.36
391.915	126.46
392.125	148.99
392.334	69.12
392.544	120.32
392.753	48.64
392.963	-8.7
393.172	40.45
393.382	-49.66
393.591	171.52
393.801	-20.99
394.01	128.51
394.22	112.13
394.429	-8.7
394.639	17.92
394.848	28.16
395.058	83.45
395.267	54.78
395.477	128.51
395.686	71.17
395.895	218.62
396.105	177.66
396.314	79.36
396.524	-27.14
396.733	71.17
396.942	155.13
397.152	101.89
397.361	71.17
397.57	34.3
397.78	56.83
397.989	62.98
398.198	151.04
398.407	75.26
398.617	-20.99
398.826	7.68
399.035	-35.33
399.244	91.65
399.453	95.74
399.663	89.6
399.872	52.74
400.081	-2.56
400.29	136.7
400.499	-31.23
400.708	101.89
400.917	56.83
401.127	65.02
401.336	-29.18
401.545	103.93
401.754	110.08
401.963	140.8
402.172	-2.56
402.381	-41.47
402.59	32.26
402.799	-2.56
403.008	126.46
403.217	36.35
403.426	40.45
403.635	-18.94
403.844	28.16
404.053	13.82
404.262	-18.94
404.471	173.57
404.68	-6.66
404.888	-6.66
405.097	67.07
405.306	34.3
405.515	95.74
405.724	7.68
405.933	77.31
406.142	140.8
406.35	77.31
406.559	40.45
406.768	24.06
406.977	71.17
407.185	58.88
407.394	62.98
407.603	9.73
407.812	75.26
408.02	257.53
408.229	54.78
408.438	116.22
408.646	-31.23
408.855	62.98
409.064	136.7
409.272	-61.95
409.481	62.98
409.69	22.02
409.898	3.58
410.107	52.74
410.315	165.37
410.524	-29.18
410.733	30.21
410.941	101.89
411.15	192
411.358	52.74
411.567	138.75
411.775	124.41
411.984	9.73
412.192	138.75
412.401	1.54
412.609	177.66
412.818	142.85
413.026	101.89
413.234	11.78
413.443	9.73
413.651	62.98
413.86	34.3
414.068	148.99
414.276	163.33
414.485	22.02
414.693	118.27
414.901	192
415.11	112.13
415.318	40.45
415.526	19.97
415.734	144.89
415.943	79.36
416.151	228.86
416.359	-2.56
416.567	75.26
416.776	103.93
416.984	69.12
417.192	194.05
417.4	65.02
417.608	7.68
417.817	-72.19
418.025	122.37
418.233	144.89
418.441	15.87
418.649	-12.8
418.857	108.03
419.065	114.17
419.273	19.97
419.481	128.51
419.689	73.21
419.897	19.97
420.105	7.68
420.313	118.27
420.521	97.79
420.729	114.17
420.937	40.45
421.145	-16.9
421.353	144.89
421.561	173.57
421.769	87.55
421.977	56.83
422.185	77.31
422.393	50.69
422.601	67.07
422.809	73.21
423.017	91.65
423.224	40.45
423.432	122.37
423.64	48.64
423.848	38.4
424.056	-2.56
424.263	85.5
424.471	46.59
424.679	120.32
424.887	-12.8
425.094	52.74
425.302	101.89
425.51	60.93
425.718	153.09
425.925	112.13
426.133	22.02
426.341	214.52
426.548	83.45
426.756	-2.56
426.964	71.17
427.171	-68.09
427.379	81.41
427.586	126.46
427.794	65.02
428.001	146.94
428.209	50.69
428.417	134.65
428.624	81.41
428.832	101.89
429.039	118.27
429.247	28.16
429.454	108.03
429.662	159.23
429.869	120.32
430.076	65.02
430.284	171.52
430.491	136.7
430.699	173.57
430.906	146.94
431.114	95.74
431.321	126.46
431.528	126.46
431.736	62.98
431.943	161.28
432.15	155.13
432.358	140.8
432.565	288.25
432.772	42.5
432.979	187.9
433.187	140.8
433.394	196.09
433.601	148.99
433.808	237.05
434.016	220.67
434.223	228.86
434.43	175.61
434.637	226.81
434.844	183.81
435.052	216.57
435.259	235
435.466	275.96
435.673	271.87
435.88	200.19
436.087	325.12
436.294	312.83
436.501	210.43
436.708	230.91
436.915	280.06
437.122	314.88
437.329	247.29
437.537	294.4
437.743	216.57
437.95	372.22
438.157	292.35
438.364	206.33
438.571	263.68
438.778	380.41
438.985	376.31
439.192	368.12
439.399	376.31
439.606	355.83
439.813	525.82
440.02	572.92
440.227	542.2
440.433	491
440.64	439.8
440.847	529.91
441.054	574.97
441.261	620.02
441.467	544.25
441.674	441.85
441.881	654.84
442.088	488.95
442.294	724.47
442.501	667.13
442.708	685.56
442.914	617.97
443.121	669.17
443.328	769.52
443.534	871.92
443.741	851.44
443.948	742.9
444.154	853.49
444.361	1002.99
444.568	929.27
444.774	916.98
444.981	908.79
445.187	1148.4
445.394	1078.77
445.6	941.55
445.807	1215.98
446.013	988.66
446.22	1111.54
446.426	1269.23
446.633	1306.09
446.839	1437.16
447.046	1195.5
447.252	1388.01
447.459	1529.32
447.665	1431.02
447.871	1639.91
448.078	1752.55
448.284	1609.19
448.491	1777.12
448.697	1799.65
448.903	1793.51
449.11	1981.92
449.316	1883.62
449.522	2133.47
449.728	2112.99
449.935	2217.44
450.141	2289.12
450.347	2407.9
450.553	2450.91
450.76	2477.53
450.966	2426.33
451.172	2614.74
451.378	2803.16
451.584	2815.45
451.791	2964.95
451.997	2993.62
452.203	3159.5
452.409	3167.7
452.615	3481.03
452.821	3241.42
453.027	3356.11
453.233	3808.71
453.44	3663.3
453.646	3823.05
453.852	4115.91
454.058	4257.22
454.264	4384.19
454.47	4570.55
454.676	4650.43
454.882	5012.92
455.088	4695.48
455.294	5049.78
455.5	5250.48
455.705	5580.2
455.911	5637.55
456.117	5858.73
456.323	6098.34
456.529	6026.66
456.735	6589.85
456.941	6788.5
457.147	6970.77
457.352	7308.69
457.558	7290.26
457.764	7908.74
457.97	8084.87
458.176	8398.21
458.381	8641.92
458.587	9022.84
458.793	9254.26
458.999	9336.18
459.204	10411.36
459.41	11009.37
459.616	10677.6
459.821	11468.11
460.027	11695.44
460.233	12469.57
460.438	12526.91
460.644	13217.08
460.85	13315.38
461.055	13909.29
461.261	14423.33
461.466	14198.06
461.672	14282.02
461.878	16153.87
462.083	15959.31
462.289	16403.72
462.494	17046.78
462.7	17200.38
462.905	17239.29
463.111	18816.22
463.316	19582.17
463.522	20110.54
463.727	20700.36
463.932	21576.89
464.138	22131.89
464.343	23055.52
464.549	23174.3
464.754	24769.67
464.959	25644.15
465.165	26035.31
465.37	25975.92
465.575	25826.42
465.781	27505.76
465.986	28499.02
466.191	28220.5
466.397	28167.25
466.602	27552.86
466.807	29248.58
467.012	29658.17
467.218	29985.85
467.423	30231.6
467.628	31081.51
467.833	32398.35
468.038	32125.97
468.244	31386.66
468.449	33156.1
468.654	32545.81
468.859	32304.15
469.064	32646.16
469.269	31767.58
469.474	32007.19
469.679	33577.98
469.885	32281.62
470.09	32830.48
470.295	32705.55
470.5	32214.04
470.705	32224.28
470.91	31378.47
471.115	31517.73
471.32	31423.52
471.525	31953.94
471.73	30641.2
471.935	30241.84
472.139	29019.21
472.344	29199.43
472.549	29191.23
472.754	28681.29
472.959	27806.81
473.164	27069.54
473.369	26414.19
473.574	27143.27
473.778	26807.4
473.983	26643.56
474.188	25885.81
474.393	24718.47
474.598	24915.08
474.802	24024.21
475.007	23714.97
475.212	23768.21
475.417	22418.6
475.621	22604.97
475.826	22248.62
476.031	21576.89
476.235	21228.73
476.44	21208.25
476.645	20862.15
476.849	20362.44
477.054	19897.55
477.259	19623.12
477.463	19668.18
477.668	18906.34
477.872	19289.31
478.077	18601.19
478.282	17720.56
478.486	17943.79
478.691	17704.18
478.895	17444.09
479.1	17466.61
479.304	17247.48
479.509	16647.43
479.713	16915.71
479.918	16309.51
480.122	16311.56
480.326	16409.86
480.531	16252.17
480.735	15846.67
480.94	15641.87
481.144	16413.96
481.348	15496.47
481.553	15469.84
481.757	14982.43
481.961	15289.62
482.166	15467.8
482.37	15152.41
482.574	14859.55
482.778	14931.23
482.983	15027.48
483.187	14535.97
483.391	14759.2
483.595	14286.12
483.8	14052.65
484.004	14308.65
484.208	14120.23
484.412	14062.89
484.616	13997.35
484.821	13538.61
485.025	13274.42
485.229	13317.43
485.433	13131.06
485.637	13071.67
485.841	12817.72
486.045	12805.44
486.249	12492.1
486.453	12426.56
486.657	12332.36
486.861	12066.12
487.065	11562.32
487.269	11601.23
487.473	11416.91
487.677	11410.77
487.881	11287.89
488.085	11167.06
488.289	10886.49
488.493	10659.17
488.697	10702.17
488.901	10274.15
489.105	9882.99
489.309	9880.94
489.512	9885.03
489.716	9676.14
489.92	9663.85
490.124	9305.46
490.328	9186.68
490.531	8865.14
490.735	8932.73
490.939	8543.61
491.143	8531.33
491.346	8328.58
491.55	8375.68
491.754	8136.07
491.958	8058.25
492.161	7882.12
492.365	7894.41
492.569	7591.31
492.772	7527.82
492.976	7562.64
493.18	7308.69
493.383	7536.01
493.587	7234.96
493.79	7323.02
493.994	6946.2
494.197	6956.44
494.401	6892.95
494.605	6739.35
494.808	6888.85
495.012	6626.71
495.215	6868.38
495.419	6759.83
495.622	6557.08
495.825	6550.94
496.029	6585.76
496.232	6831.51
496.436	6550.94
496.639	6643.1
496.843	6542.75
497.046	6725.02
497.249	6663.58
497.453	6667.67
497.656	6897.05
497.859	6565.28
498.063	6626.71
498.266	6901.14
498.469	6569.37
498.673	6561.18
498.876	6651.29
499.079	6714.78
499.282	6716.83
499.485	6989.21
499.689	6917.53
499.892	7015.83
500.095	6999.45
500.298	6991.25
500.501	6923.67
500.705	6935.96
500.908	7005.59
501.111	7198.1
501.314	7257.49
501.517	7630.22
501.72	7495.05
501.923	7628.17
502.126	7712.14
502.329	7763.34
502.532	7572.88
502.735	7896.46
502.938	7843.21
503.141	8031.62
503.344	8088.96
503.547	8256.9
503.75	8363.39
503.953	8344.96
504.156	8637.82
504.359	8830.33
504.562	9045.37
504.765	8875.38
504.968	9133.43
505.17	9430.38
505.373	9368.95
505.576	9594.22
505.779	9571.69
505.982	9692.52
506.185	10040.68
506.387	10104.17
506.59	10401.12
506.793	10507.62
506.996	10450.27
507.198	11154.77
507.401	11038.04
507.604	11328.85
507.807	11664.72
508.009	11603.28
508.212	11920.71
508.415	12367.17
508.617	12631.36
508.82	12776.77
509.022	12885.31
509.225	13653.3
509.428	13571.38
509.63	13819.18
509.833	14103.85
510.035	14933.28
510.238	14691.62
510.44	14986.52
510.643	15441.17
510.845	15934.73
511.048	16014.6
511.25	16381.19
511.453	16571.65
511.655	17767.66
511.858	17587.44
512.06	17749.23
512.262	18199.79
512.465	18529.51
512.667	19254.49
512.87	19739.86
513.072	19997.9
513.274	20645.06
513.477	21089.47
513.679	21535.93
513.881	22365.35
514.084	22385.83
514.286	23018.66
514.488	23565.46
514.69	24442
514.893	24372.36
515.095	25166.98
515.297	25781.37
515.499	26070.13
515.701	26743.91
515.904	27427.93
516.106	27954.26
516.308	28437.58
516.51	29056.07
516.712	29332.54
516.914	30137.4
517.116	30841.9
517.318	31249.44
517.52	31820.83
517.722	32234.52
517.925	33299.46
518.127	34020.34
518.329	34667.5
518.531	34343.92
518.733	35695.58
518.935	36072.41
519.136	36694.99
519.338	37426.12
519.54	37854.14
519.742	38245.3
519.944	38726.58
520.146	39861.15
520.348	40197.02
520.55	40971.15
520.752	41069.45
520.954	42140.54
521.155	41962.37
521.357	42488.7
521.559	43496.3
521.761	44194.65
521.963	44100.45
522.164	44413.79
522.366	44460.89
522.568	45708.1
522.77	45407.05
522.971	46693.18
523.173	46582.59
523.375	46990.13
523.576	46496.57
523.778	46515
523.98	47856.42
524.181	47729.45
524.383	47926.05
524.584	48253.73
524.786	48319.26
524.988	48028.45
525.189	48741.14
525.391	48696.09
525.592	48667.42
525.794	49220.37
525.995	48616.22
526.197	49181.46
526.398	48904.98
526.6	49054.48
526.801	48898.84
527.003	48511.77
527.204	47919.91
527.406	48868.12
527.607	48288.54
527.808	48507.68
528.01	47221.55
528.211	47311.66
528.412	47852.33
528.614	47311.66
528.815	46922.55
529.016	46748.47
529.218	45579.08
529.419	46312.25
529.62	45605.7
529.822	44837.72
530.023	45050.7
530.224	44634.97
530.425	43721.57
530.626	43391.85
530.828	42961.78
531.029	43101.04
531.23	42451.83
531.431	41593.73
531.632	41565.06
531.833	41417.61
532.035	40606.61
532.236	40045.47
532.437	39828.38
532.638	38783.92
532.839	38788.02
533.04	38319.03
533.241	37495.75
533.442	37628.87
533.643	37178.31
533.844	36441.04
534.045	36074.46
534.246	35167.21
534.447	35234.79
534.648	34358.26
534.849	34405.36
535.05	33276.93
535.251	33221.64
535.451	32492.56
535.652	32672.78
535.853	31962.14
536.054	31751.2
536.255	31190.05
536.456	30590
536.657	30352.43
536.857	30086.2
537.058	29189.19
537.259	29119.56
537.46	28843.08
537.66	28230.74
537.861	28142.67
538.062	27180.13
538.263	27135.07
538.463	26752.1
538.664	26580.07
538.865	25959.54
539.065	25828.47
539.266	25238.65
539.466	25705.59
539.667	25181.31
539.868	25103.49
540.068	24243.34
540.269	24079.5
540.469	23985.3
540.67	23522.46
540.87	23268.51
541.071	22867.11
541.271	22879.39
541.472	22621.35
541.672	21976.24
541.873	21941.43
542.073	21630.13
542.274	21480.63
542.474	21114.05
542.675	20763.84
542.875	21148.86
543.075	20280.52
543.276	20272.33
543.476	20163.79
543.676	19639.51
543.877	19473.62
544.077	19635.41
544.277	19295.45
544.478	19086.56
544.678	19039.45
544.878	18683.11
545.078	18314.47
545.279	18287.85
545.479	17868.02
545.679	17626.36
545.879	17751.28
546.079	17655.03
546.28	17169.66
546.48	16676.1
546.68	16862.46
546.88	16563.46
547.08	16411.91
547.28	16192.78
547.48	16125.19
547.68	15838.48
547.88	15654.16
548.081	15623.44
548.281	15121.69
548.481	15133.98
548.681	15002.91
548.881	14603.55
549.081	14484.77
549.28	14302.5
549.48	14316.84
549.68	13995.31
549.88	13921.58
550.08	13356.34
550.28	13417.78
550.48	13501.75
550.68	13251.89
550.88	12752.19
551.08	12617.02
551.279	12461.38
551.479	12410.18
551.679	12266.82
551.879	11838.8
552.079	11871.56
552.278	11623.76
552.478	11404.63
552.678	11255.12
552.878	11226.45
553.077	10974.55
553.277	10648.93
553.477	10784.09
553.676	10528.1
553.876	10444.13
554.076	10028.39
554.275	10075.49
554.475	9717.1
554.674	9682.28
554.874	9465.2
555.074	9215.35
555.273	9352.56
555.473	9108.85
555.672	8971.64
555.872	8799.61
556.071	8676.73
556.271	8623.48
556.47	8396.16
556.67	8111.49
556.869	8203.65
557.068	7980.42
557.268	8060.29
557.467	7679.37
557.667	7626.12
557.866	7609.74
558.065	7400.85
558.265	7239.06
558.464	7077.27
558.663	6972.82
558.863	6815.13
559.062	6903.19
559.261	6641.05
559.461	6649.24
559.66	6608.28
559.859	6356.38
560.058	6139.3
560.258	6139.3
560.457	6000.04
560.656	6133.15
560.855	5674.41
561.054	5782.95
561.253	5649.83
561.453	5574.06
561.652	5569.96
561.851	5619.11
562.05	5227.95
562.249	5088.69
562.448	5279.15
562.647	5064.11
562.846	5084.59
563.045	4976.05
563.244	4748.73
563.443	4847.03
563.642	4738.49
563.841	4748.73
564.04	4748.73
564.239	4595.13
564.438	4421.05
564.637	4246.98
564.836	4257.22
565.035	4163.01
565.234	4249.02
565.432	4076.99
565.631	4070.85
565.83	3993.03
566.029	3868.1
566.228	3847.62
566.427	3909.06
566.625	3737.03
566.824	3880.39
567.023	3673.54
567.222	3583.43
567.42	3403.21
567.619	3468.75
567.818	3446.22
568.016	3519.95
568.215	3325.39
568.414	3325.39
568.612	3204.56
568.811	3292.62
569.01	3171.79
569.208	3055.06
569.407	3155.41
569.605	3085.78
569.804	2960.85
570.002	2954.71
570.201	2891.22
570.4	2854.36
570.598	2921.94
570.797	2708.95
570.995	2708.95
571.193	2727.38
571.392	2641.37
571.59	2508.25
571.789	2620.89
571.987	2557.4
572.186	2477.53
572.384	2418.14
572.582	2401.76
572.781	2518.49
572.979	2268.64
573.177	2168.29
573.376	2346.46
573.574	2276.83
573.772	2196.96
573.971	2082.27
574.169	2069.98
574.367	2094.56
574.565	1947.11
574.763	1973.73
574.962	1965.54
575.16	1975.78
575.358	2055.65
575.556	1996.26
575.754	2006.5
575.952	1844.71
576.151	1885.67
576.349	1848.8
576.547	1621.48
576.745	1746.41
576.943	1824.23
577.141	1752.55
577.339	1601
577.537	1654.25
577.735	1693.16
577.933	1676.77
578.131	1568.23
578.329	1605.1
578.527	1410.54
578.725	1498.6
578.923	1347.05
579.121	1443.31
579.319	1275.37
579.516	1396.2
579.714	1568.23
579.912	1250.8
580.11	1250.8
580.308	1400.3
580.506	1271.28
580.704	1089.01
580.901	1181.17
581.099	1293.8
581.297	1273.32
581.495	1256.94
581.692	1158.64
581.89	1283.56
582.088	1066.48
582.285	1195.5
582.483	966.13
582.681	1009.14
582.878	1097.2
583.076	1097.2
583.274	1000.94
583.471	1201.65
583.669	962.03
583.866	937.46
584.064	990.7
584.262	863.73
584.459	910.83
584.657	914.93
584.854	1101.3
585.052	959.99
585.249	921.07
585.447	914.93
585.644	802.29
585.841	978.42
586.039	921.07
586.236	966.13
586.434	882.16
586.631	804.34
586.828	849.4
587.026	820.72
587.223	667.13
587.42	728.56
587.618	843.25
587.815	890.35
588.012	693.75
588.21	697.85
588.407	755.19
588.604	747
588.801	740.85
588.999	765.43
589.196	794.1
589.393	648.69
589.59	658.93
589.787	785.91
589.984	787.96
590.182	706.04
590.379	599.54
590.576	660.98
590.773	685.56
590.97	632.31
591.167	681.46
591.364	587.26
591.561	613.88
591.758	765.43
591.955	714.23
592.152	593.4
592.349	665.08
592.546	536.06
592.743	589.3
592.94	701.94
593.137	742.9
593.334	712.18
593.531	638.45
593.727	687.61
593.924	632.31
594.121	605.69
594.318	626.17
594.515	687.61
594.712	710.13
594.908	675.32
595.105	556.54
595.302	675.32
595.499	755.19
595.696	765.43
595.892	730.61
596.089	738.8
596.286	607.73
596.482	802.29
596.679	790
596.876	726.52
597.072	783.86
597.269	808.44
597.466	824.82
597.662	814.58
597.859	833.01
598.055	927.22
598.252	949.75
598.448	1021.42
598.645	1046
598.841	1025.52
599.038	1181.17
599.234	1119.73
599.431	1095.15
599.627	1205.74
599.824	1203.69
600.02	1218.03
600.217	1271.28
600.413	1267.18
600.609	1433.07
600.806	1617.38
601.002	1566.18
601.198	1334.76
601.395	1576.42
601.591	1684.97
601.787	1666.53
601.984	1732.07
602.18	1785.32
602.376	1854.95
602.572	2059.74
602.769	2069.98
602.965	2094.56
603.161	2166.24
603.357	2364.89
603.553	2383.32
603.75	2348.51
603.946	2436.57
604.142	2561.5
604.338	2788.82
604.534	2694.61
604.73	2807.25
604.926	2907.6
605.122	3128.78
605.318	3028.43
605.514	3159.5
605.71	3257.81
605.906	3388.88
606.102	3382.73
606.298	3683.78
606.494	3765.7
606.69	3853.77
606.886	3769.8
607.082	3900.87
607.278	3896.77
607.474	4294.08
607.67	4455.87
607.866	4380.09
608.062	4601.27
608.257	4683.19
608.453	4695.48
608.649	4904.37
608.845	5023.16
609.041	5066.16
609.236	5186.99
609.432	5504.43
609.628	5799.34
609.824	5737.9
610.019	5895.59
610.215	5977.51
610.411	6335.9
610.606	6604.19
610.802	6559.13
610.998	6837.66
611.193	6995.35
611.389	6989.21
611.584	7261.59
611.78	7337.36
611.976	7544.2
612.171	7933.32
612.367	8115.59
612.562	8197.51
612.758	8424.83
612.953	8422.78
613.149	8828.28
613.344	9082.23
613.539	9479.54
613.735	9682.28
613.93	9895.27
614.126	10071.4
614.321	10493.28
614.517	10847.58
614.712	10773.85
614.907	11277.65
615.103	11502.93
615.298	11793.74
615.493	12182.85
615.688	12201.29
615.884	12922.17
616.079	12678.46
616.274	13389.11
616.47	13423.92
616.665	13956.4
616.86	14122.28
617.055	14460.2
617.25	14722.34
617.445	15658.26
617.641	15537.43
617.836	16180.49
618.031	16297.22
618.226	16991.48
618.421	17388.79
618.616	18089.2
618.811	17841.39
619.006	18742.5
619.201	18605.28
619.396	19436.76
619.591	19328.22
619.786	20051.15
619.981	20448.46
620.176	20970.69
620.371	21198.01
620.566	21918.9
620.761	22355.11
620.956	22865.06
621.151	23110.82
621.346	23897.24
621.541	23870.61
621.735	24458.38
621.93	24853.64
622.125	25242.75
622.32	25642.1
622.515	26569.83
622.709	26709.1
622.904	27548.76
623.099	27825.24
623.294	28310.61
623.488	29049.92
623.683	29682.75
623.878	29508.67
624.072	30219.31
624.267	30413.87
624.462	31222.82
624.656	31222.82
624.851	31988.76
625.046	32400.4
625.24	33260.55
625.435	33225.73
625.629	34120.7
625.824	34616.3
626.018	34790.38
626.213	35105.77
626.407	35554.27
626.602	35357.67
626.796	36113.37
626.991	36527.06
627.185	36826.06
627.38	37096.39
627.574	37514.18
627.768	37176.26
627.963	37645.25
628.157	37796.8
628.352	38386.61
628.546	37440.45
628.74	38413.24
628.935	37995.45
629.129	38632.37
629.323	37516.23
629.517	37745.6
629.712	37516.23
629.906	37301.19
630.1	36811.73
630.294	36533.2
630.489	36215.77
630.683	35965.92
630.877	35541.99
631.071	34554.86
631.265	34434.03
631.459	33874.94
631.653	32900.11
631.848	32371.73
632.042	31421.47
632.236	31099.94
632.43	29592.64
632.624	29752.38
632.818	28322.9
633.012	27511.9
633.206	26807.4
633.4	26094.71
633.594	25027.71
633.788	24272.01
633.982	23649.43
634.176	23106.72
634.369	22027.44
634.563	20970.69
634.757	20272.33
634.951	19584.21
635.145	18795.75
635.339	18130.16
635.533	17306.87
635.726	16868.61
635.92	16051.47
636.114	15570.19
636.308	14738.72
636.501	14325.03
636.695	13794.61
636.889	13071.67
637.083	12490.05
637.276	12045.64
637.47	11566.42
637.664	11083.09
637.857	10626.4
638.051	10161.51
638.244	9696.62
638.438	9252.21
638.632	9233.78
638.825	8555.9
639.019	8396.16
639.212	7933.32
639.406	7826.82
639.599	7312.78
639.793	7097.75
639.986	6714.78
640.18	6690.2
640.373	6249.89
640.567	6165.92
640.76	5858.73
640.954	5780.9
641.147	5440.94
641.34	5057.97
641.534	4961.72
641.727	4865.46
641.92	4650.43
642.114	4355.52
642.307	4275.65
642.5	4120
642.694	3925.44
642.887	3843.53
643.08	3630.54
643.273	3517.9
643.467	3360.2
643.66	3153.36
643.853	3042.77
644.046	3163.6
644.239	2803.16
644.432	2684.38
644.626	2725.33
644.819	2491.87
645.012	2489.82
645.205	2547.16
645.398	2405.85
645.591	2207.2
645.784	2102.75
645.977	1918.43
646.17	2006.5
646.363	2018.79
646.556	1752.55
646.749	1760.74
646.942	1709.54
647.135	1648.1
647.328	1517.03
647.521	1484.27
647.714	1469.93
647.907	1408.49
648.099	1402.35
648.292	1445.35
648.485	1250.8
648.678	1179.12
648.871	1070.58
649.064	1089.01
649.256	1019.38
649.449	992.75
649.642	900.59
649.835	871.92
650.027	916.98
650.22	996.85
650.413	824.82
650.605	886.26
650.798	779.76
650.991	744.95
651.183	796.15
651.376	757.24
651.568	751.09
651.761	669.17
651.954	677.37
652.146	566.78
652.339	677.37
652.531	681.46
652.724	536.06
652.916	642.55
653.109	357.88
653.301	648.69
653.494	642.55
653.686	472.57
653.879	540.15
654.071	544.25
654.263	407.03
654.456	386.55
654.648	587.26
654.84	544.25
655.033	396.79
655.225	536.06
655.417	353.79
655.61	450.04
655.802	392.7
655.994	499.19
656.186	327.16
656.379	437.75
656.571	302.59
656.763	298.49
656.955	179.71
657.148	296.44
657.34	374.27
657.532	310.78
657.724	265.72
657.916	359.93
658.108	339.45
658.3	378.36
658.492	308.73
658.684	243.2
658.876	308.73
659.068	165.37
659.26	194.05
659.452	105.98
659.644	282.11
659.836	321.02
660.028	282.11
660.22	230.91
660.412	226.81
660.604	120.32
660.796	200.19
660.988	308.73
661.18	226.81
661.372	261.63
661.563	261.63
661.755	204.28
661.947	218.62
662.139	116.22
662.331	136.7
662.522	206.33
662.714	134.65
662.906	177.66
663.097	196.09
663.289	177.66
663.481	28.16
663.673	192
663.864	224.76
664.056	222.72
664.247	142.85
664.439	288.25
664.631	161.28
664.822	265.72
665.014	192
665.205	110.08
665.397	120.32
665.588	181.76
665.78	99.84
665.971	202.24
666.163	79.36
666.354	189.95
666.546	99.84
666.737	169.47
666.929	163.33
667.12	62.98
667.311	210.43
667.503	165.37
667.694	232.96
667.885	179.71
668.077	138.75
668.268	65.02
668.459	146.94
668.651	124.41
668.842	181.76
669.033	69.12
669.224	60.93
669.416	359.93
669.607	46.59
669.798	99.84
669.989	271.87
670.18	194.05
670.371	148.99
670.563	-14.85
670.754	187.9
670.945	146.94
671.136	163.33
671.327	183.81
671.518	210.43
671.709	331.26
671.9	206.33
672.091	259.58
672.282	235
672.473	58.88
672.664	9.73
672.855	204.28
673.046	237.05
673.237	206.33
673.428	173.57
673.619	157.18
673.809	122.37
674	265.72
674.191	267.77
674.382	105.98
674.573	134.65
674.764	183.81
674.954	263.68
675.145	60.93
675.336	212.48
675.527	108.03
675.717	81.41
675.908	171.52
676.099	75.26
676.289	177.66
676.48	73.21
676.671	134.65
676.861	122.37
677.052	159.23
677.243	183.81
677.433	81.41
677.624	169.47
677.814	128.51
678.005	140.8
678.195	249.34
678.386	175.61
678.576	169.47
678.767	17.92
678.957	101.89
679.148	265.72
679.338	321.02
679.529	323.07
679.719	153.09
679.909	323.07
680.1	273.92
680.29	237.05
680.481	130.56
680.671	282.11
680.861	230.91
681.052	183.81
681.242	189.95
681.432	218.62
681.622	222.72
681.813	175.61
682.003	206.33
682.193	144.89
682.383	216.57
682.573	181.76
682.764	124.41
682.954	179.71
683.144	325.12
683.334	161.28
683.524	325.12
683.714	239.1
683.904	282.11
684.094	196.09
684.284	255.48
684.474	331.26
684.664	275.96
684.854	288.25
685.044	187.9
685.234	226.81
685.424	288.25
685.614	130.56
685.804	378.36
685.994	230.91
686.184	282.11
686.374	290.3
686.564	249.34
686.753	257.53
686.943	185.85
687.133	187.9
687.323	200.19
687.513	304.64
687.702	208.38
687.892	214.52
688.082	310.78
688.272	343.55
688.461	251.39
688.651	331.26
688.841	306.68
689.03	251.39
689.22	185.85
689.41	323.07
689.599	261.63
689.789	185.85
689.979	286.2
690.168	196.09
690.358	300.54
690.547	284.16
690.737	220.67
690.926	200.19
691.116	206.33
691.305	196.09
691.495	210.43
691.684	206.33
691.874	198.14
692.063	237.05
692.252	265.72
692.442	230.91
692.631	159.23
692.82	206.33
693.01	237.05
693.199	138.75
693.388	271.87
693.578	216.57
693.767	255.48
693.956	271.87
694.146	194.05
694.335	194.05
694.524	255.48
694.713	290.3
694.902	220.67
695.092	210.43
695.281	259.58
695.47	148.99
695.659	226.81
695.848	241.15
696.037	124.41
696.226	323.07
696.415	286.2
696.604	288.25
696.793	265.72
696.982	259.58
697.171	239.1
697.36	222.72
697.549	118.27
697.738	75.26
697.927	181.76
698.116	155.13
698.305	226.81
698.494	216.57
698.683	249.34
698.872	366.07
699.061	183.81
699.25	167.42
699.438	294.4
699.627	196.09
699.816	361.98
700.005	132.61
700.193	138.75
700.382	206.33
700.571	226.81
700.76	235
700.948	185.85
701.137	163.33
701.326	224.76
701.514	165.37
701.703	243.2
701.892	192
702.08	321.02
702.269	185.85
702.457	138.75
702.646	208.38
702.834	214.52
703.023	243.2
703.212	265.72
703.4	157.18
703.589	124.41
703.777	253.44
703.965	101.89
704.154	228.86
704.342	146.94
704.531	183.81
704.719	206.33
704.907	298.49
705.096	105.98
705.284	157.18
705.472	237.05
705.661	249.34
705.849	249.34
706.037	280.06
706.226	189.95
706.414	187.9
706.602	130.56
706.79	259.58
706.979	75.26
707.167	200.19
707.355	177.66
707.543	198.14
707.731	241.15
707.919	169.47
708.107	173.57
708.296	189.95
708.484	110.08
708.672	255.48
708.86	218.62
709.048	130.56
709.236	124.41
709.424	177.66
709.612	210.43
709.8	136.7
709.988	101.89
710.176	253.44
710.364	148.99
710.551	95.74
710.739	220.67
710.927	216.57
711.115	169.47
711.303	280.06
711.491	232.96
711.679	192
711.866	259.58
712.054	157.18
712.242	210.43
712.43	325.12
712.617	232.96
712.805	286.2
712.993	175.61
713.181	99.84
713.368	294.4
713.556	183.81
713.744	118.27
713.931	325.12
714.119	232.96
714.306	228.86
714.494	87.55
714.682	159.23
714.869	122.37
715.057	112.13
715.244	134.65
715.432	257.53
715.619	157.18
715.807	126.46
715.994	146.94
716.182	214.52
716.369	312.83
716.556	253.44
716.744	148.99
716.931	93.69
717.119	265.72
717.306	230.91
717.493	241.15
717.681	177.66
717.868	128.51
718.055	169.47
718.242	232.96
718.43	202.24
718.617	220.67
718.804	189.95
718.991	316.92
719.179	169.47
719.366	321.02
719.553	280.06
719.74	169.47
719.927	218.62
720.114	341.5
720.301	81.41
720.488	165.37
720.676	159.23
720.863	378.36
721.05	341.5
721.237	284.16
721.424	273.92
721.611	194.05
721.798	194.05
721.985	108.03
722.172	210.43
722.358	239.1
722.545	327.16
722.732	267.77
722.919	261.63
723.106	241.15
723.293	140.8
723.48	214.52
723.667	189.95
723.853	210.43
724.04	282.11
724.227	226.81
724.414	249.34
724.6	255.48
724.787	271.87
724.974	370.17
725.161	259.58
725.347	196.09
725.534	300.54
725.72	251.39
725.907	364.03
726.094	288.25
726.28	278.01
726.467	222.72
726.653	167.42
726.84	341.5
727.027	415.23
727.213	226.81
727.4	292.35
727.586	263.68
727.773	249.34
727.959	316.92
728.145	267.77
728.332	148.99
728.518	235
728.705	364.03
728.891	189.95
729.077	263.68
729.264	198.14
729.45	251.39
729.636	249.34
729.823	263.68
730.009	284.16
730.195	331.26
730.382	353.79
730.568	230.91
730.754	269.82
730.94	298.49
731.126	255.48
731.313	331.26
731.499	302.59
731.685	312.83
731.871	349.69
732.057	308.73
732.243	255.48
732.429	265.72
732.615	298.49
732.801	278.01
732.987	253.44
733.173	261.63
733.359	257.53
733.545	329.21
733.731	226.81
733.917	337.4
734.103	364.03
734.289	349.69
734.475	286.2
734.661	435.71
734.847	261.63
735.033	345.59
735.219	374.27
735.404	245.24
735.59	243.2
735.776	296.44
735.962	339.45
736.148	425.47
736.333	394.75
736.519	296.44
736.705	323.07
736.89	343.55
737.076	253.44
737.262	187.9
737.447	318.97
737.633	253.44
737.819	421.37
738.004	296.44
738.19	374.27
738.375	265.72
738.561	425.47
738.747	257.53
738.932	196.09
739.118	372.22
739.303	310.78
739.489	361.98
739.674	239.1
739.859	261.63
740.045	402.94
740.23	341.5
740.416	196.09
740.601	321.02
740.786	300.54
740.972	321.02
741.157	220.67
741.342	140.8
741.528	169.47
741.713	423.42
741.898	286.2
742.084	421.37
742.269	245.24
742.454	355.83
742.639	300.54
742.824	304.64
743.01	349.69
743.195	431.61
743.38	259.58
743.565	275.96
743.75	327.16
743.935	331.26
744.12	370.17
744.305	216.57
744.49	245.24
744.675	247.29
744.86	206.33
745.045	265.72
745.23	296.44
745.415	329.21
745.6	316.92
745.785	273.92
745.97	353.79
746.155	361.98
746.34	366.07
746.525	212.48
746.71	394.75
746.895	241.15
747.079	177.66
747.264	196.09
747.449	275.96
747.634	398.84
747.819	337.4
748.003	257.53
748.188	189.95
748.373	208.38
748.557	202.24
748.742	278.01
748.927	169.47
749.111	222.72
749.296	247.29
749.481	357.88
749.665	325.12
749.85	255.48
750.034	349.69
750.219	255.48
750.404	214.52
750.588	232.96
750.773	161.28
750.957	241.15
751.141	95.74
751.326	271.87
751.51	179.71
751.695	222.72
751.879	155.13
752.064	284.16
752.248	194.05
752.432	296.44
752.617	243.2
752.801	255.48
752.985	159.23
753.17	282.11
753.354	259.58
753.538	237.05
753.722	177.66
753.907	185.85
754.091	169.47
754.275	282.11
754.459	136.7
754.643	116.22
754.828	263.68
755.012	181.76
755.196	167.42
755.38	136.7
755.564	151.04
755.748	120.32
755.932	232.96
756.116	206.33
756.3	194.05
756.484	171.52
756.668	175.61
756.852	73.21
757.036	122.37
757.22	206.33
757.404	146.94
757.588	159.23
757.772	253.44
757.956	210.43
758.14	292.35
758.323	71.17
758.507	269.82
758.691	118.27
758.875	269.82
759.059	245.24
759.242	87.55
759.426	183.81
759.61	189.95
759.794	128.51
759.977	171.52
760.161	314.88
760.345	161.28
760.528	273.92
760.712	251.39
760.895	126.46
761.079	189.95
761.263	146.94
761.446	171.52
761.63	161.28
761.813	261.63
761.997	54.78
762.18	196.09
762.364	241.15
762.547	77.31
762.731	89.6
762.914	136.7
763.098	124.41
763.281	87.55
763.464	67.07
763.648	167.42
763.831	87.55
764.015	130.56
764.198	179.71
764.381	105.98
764.564	105.98
764.748	185.85
764.931	173.57
765.114	179.71
765.297	220.67
765.481	89.6
765.664	91.65
765.847	97.79
766.03	185.85
766.213	95.74
766.397	30.21
766.58	56.83
766.763	77.31
766.946	73.21
767.129	128.51
767.312	97.79
767.495	142.85
767.678	144.89
767.861	192
768.044	103.93
768.227	83.45
768.41	114.17
768.593	103.93
768.776	185.85
768.959	108.03
769.142	173.57
769.324	161.28
769.507	122.37
769.69	108.03
769.873	85.5
770.056	353.79
770.239	56.83
770.421	153.09
770.604	163.33
770.787	93.69
770.97	79.36
771.152	52.74
771.335	134.65
771.518	-39.42
771.7	171.52
771.883	232.96
772.066	73.21
772.248	103.93
772.431	189.95
772.613	138.75
772.796	103.93
772.978	212.48
773.161	179.71
773.343	87.55
773.526	71.17
773.708	-18.94
773.891	-18.94
774.073	42.5
774.256	67.07
774.438	138.75
774.621	50.69
774.803	122.37
774.985	124.41
775.168	138.75
775.35	-59.9
775.532	165.37
775.715	65.02
775.897	118.27
776.079	7.68
776.261	118.27
776.444	87.55
776.626	40.45
776.808	118.27
776.99	-6.66
777.173	93.69
777.355	108.03
777.537	120.32
777.719	153.09
777.901	22.02
778.083	44.54
778.265	22.02
778.447	157.18
778.629	-2.56
778.811	58.88
778.993	122.37
779.175	159.23
779.357	83.45
779.539	5.63
779.721	65.02
779.903	173.57
780.085	103.93
780.267	34.3
780.449	153.09
780.631	122.37
780.812	224.76
780.994	52.74
781.176	95.74
781.358	-8.7
781.54	67.07
781.721	212.48
781.903	151.04
782.085	65.02
782.267	124.41
782.448	-41.47
782.63	40.45
782.812	134.65
782.993	101.89
783.175	97.79
783.357	42.5
783.538	69.12
783.72	13.82
783.901	28.16
784.083	146.94
784.264	110.08
784.446	-55.81
784.627	-35.33
784.809	114.17
784.99	-12.8
785.172	83.45
785.353	15.87
785.535	38.4
785.716	91.65
785.897	-61.95
786.079	-12.8
786.26	93.69
786.441	89.6
786.623	-2.56
786.804	17.92
786.985	54.78
787.167	7.68
787.348	46.59
787.529	1.54
787.71	153.09
787.891	85.5
788.073	60.93
788.254	-53.76
788.435	177.66
788.616	54.78
788.797	-119.29
788.978	34.3
789.159	60.93
789.34	124.41
789.522	67.07
789.703	-25.09
789.884	48.64
790.065	69.12
790.246	187.9
790.427	15.87
790.607	103.93
790.788	126.46
790.969	-70.14
791.15	28.16
791.331	71.17
791.512	5.63
791.693	-10.75
791.874	3.58
792.054	200.19
792.235	118.27
792.416	-25.09
792.597	-55.81
792.778	44.54
792.958	13.82
793.139	46.59
793.32	11.78
793.5	-37.38
793.681	110.08
793.862	52.74
794.042	-31.23
794.223	-78.33
794.404	73.21
794.584	-51.71
794.765	30.21
794.945	11.78
795.126	26.11
795.306	138.75
795.487	15.87
795.667	44.54
795.848	71.17
796.028	5.63
796.209	87.55
796.389	157.18
796.57	1.54
796.75	-27.14
796.93	-33.28
797.111	-31.23
797.291	-25.09
797.471	65.02
797.652	19.97
797.832	73.21
798.012	58.88
798.192	-39.42
798.373	-37.38
798.553	22.02
798.733	58.88
798.913	-6.66
799.093	22.02
799.274	-8.7
799.454	124.41
799.634	105.98
799.814	128.51
799.994	58.88
800.174	81.41
800.354	-37.38
800.534	-162.3
800.714	60.93
800.894	-4.61
801.074	-90.62
801.254	-41.47
801.434	79.36
801.614	11.78
801.794	30.21
801.974	1668.58
802.154	93.69
802.334	93.69
802.514	-80.38
802.693	-61.95
802.873	54.78
803.053	159.23
803.233	24.06
803.413	22.02
803.592	-2.56
803.772	17.92
803.952	73.21
804.131	-61.95
804.311	36.35
804.491	155.13
804.67	-16.9
804.85	-43.52
805.03	79.36
805.209	130.56
805.389	-39.42
805.568	-23.04
805.748	65.02
805.928	50.69
806.107	108.03
806.287	42.5
806.466	114.17
806.646	15.87
806.825	-0.51
807.004	-64
807.184	56.83
807.363	136.7
807.543	65.02
807.722	1.54
807.901	116.22
808.081	77.31
808.26	-33.28
808.439	40.45
808.619	28.16
808.798	-82.43
808.977	122.37
809.156	73.21
809.336	58.88
809.515	85.5
809.694	-76.29
809.873	3.58
810.052	38.4
810.231	93.69
810.411	7.68
810.59	103.93
810.769	34.3
810.948	44.54
811.127	-123.39
811.306	17.92
811.485	38.4
811.664	108.03
811.843	-16.9
812.022	26.11
812.201	83.45
812.38	-84.48
812.559	-92.67
812.737	120.32
812.916	-10.75
813.095	-39.42
813.274	26.11
813.453	19.97
813.632	30.21
813.811	7.68
813.989	-100.86
814.168	-51.71
814.347	-88.57
814.526	17.92
814.704	132.61
814.883	67.07
815.062	-117.25
815.24	19.97
815.419	-82.43
815.598	13.82
815.776	-53.76
815.955	-20.99
816.133	-107.01
816.312	7.68
816.49	24.06
816.669	-39.42
816.847	-45.57
817.026	-4.61
817.204	-31.23
817.383	-47.62
817.561	-104.96
817.74	7.68
817.918	126.46
818.097	-14.85
818.275	81.41
818.453	46.59
818.632	69.12
818.81	-51.71
818.988	-49.66
819.167	19.97
819.345	-14.85
819.523	7.68
819.701	42.5
819.879	69.12
820.058	5.63
820.236	30.21
820.414	26.11
820.592	-33.28
820.77	13.82
820.948	-18.94
821.127	-20.99
821.305	32.26
821.483	30.21
821.661	105.98
821.839	65.02
822.017	-119.29
822.195	-8.7
822.373	34.3
822.551	-31.23
822.729	60.93
822.907	56.83
823.085	58.88
823.262	-8.7
823.44	-27.14
823.618	-45.57
823.796	-27.14
823.974	17.92
824.152	46.59
824.329	-61.95
824.507	42.5
824.685	85.5
824.863	67.07
825.04	19.97
825.218	-20.99
825.396	-64
825.574	48.64
825.751	42.5
825.929	89.6
826.107	-96.77
826.284	62.98
826.462	5.63
826.639	-82.43
826.817	-72.19
826.994	-57.86
827.172	-55.81
827.349	75.26
827.527	38.4
827.704	11.78
827.882	17.92
828.059	1.54
828.237	-59.9
828.414	22.02
828.591	-139.77
828.769	85.5
828.946	-49.66
829.124	34.3
829.301	122.37
829.478	-68.09
829.655	67.07
829.833	-4.61
830.01	-115.2
830.187	60.93
830.364	-64
830.542	42.5
830.719	99.84
830.896	-51.71
831.073	-8.7
831.25	46.59
831.427	97.79
831.604	22.02
831.782	-20.99
831.959	62.98
832.136	-14.85
832.313	24.06
832.49	-45.57
832.667	-2.56
832.844	-14.85
833.021	77.31
833.198	52.74
833.374	75.26
833.551	-55.81
833.728	-47.62
833.905	5.63
834.082	-123.39
834.259	138.75
834.436	71.17
834.612	-96.77
834.789	36.35
834.966	22.02
835.143	-14.85
835.319	-100.86
835.496	71.17
835.673	34.3
835.85	54.78
836.026	71.17
836.203	38.4
836.38	-68.09
836.556	-68.09
836.733	-6.66
836.909	128.51
837.086	-33.28
837.262	-61.95
837.439	38.4
837.616	-31.23
837.792	-29.18
837.968	7.68
838.145	-72.19
838.321	-18.94
838.498	-29.18
838.674	15.87
838.851	36.35
839.027	-68.09
839.203	-8.7
839.38	42.5
839.556	-57.86
839.732	54.78
839.909	-14.85
840.085	40.45
840.261	-145.92
840.437	-8.7
840.614	-31.23
840.79	24.06
840.966	30.21
841.142	54.78
841.318	19.97
841.494	34.3
841.671	89.6
841.847	-6.66
842.023	-72.19
842.199	52.74
842.375	75.26
842.551	-57.86
842.727	-135.68
842.903	65.02
843.079	-78.33
843.255	120.32
843.431	-10.75
843.607	30.21
843.783	-123.39
843.959	54.78
844.134	19.97
844.31	105.98
844.486	-23.04
844.662	-61.95
844.838	-74.24
845.013	40.45
845.189	120.32
845.365	73.21
845.541	26.11
845.716	17.92
845.892	89.6
846.068	-35.33
846.244	-8.7
846.419	105.98
846.595	-80.38
846.77	-100.86
846.946	87.55
847.122	40.45
847.297	-23.04
847.473	95.74
847.648	-127.49
847.824	15.87
847.999	-72.19
848.175	-29.18
848.35	1.54
848.526	132.61
848.701	101.89
848.876	40.45
849.052	122.37
849.227	-20.99
849.403	15.87
849.578	30.21
849.753	-16.9
849.929	58.88
850.104	-70.14
850.279	34.3
850.454	26.11
850.63	-27.14
850.805	19.97
850.98	-31.23
851.155	-6.66
851.33	95.74
851.505	-66.05
851.681	85.5
851.856	-41.47
852.031	54.78
852.206	65.02
852.381	-72.19
852.556	-47.62
852.731	-27.14
852.906	67.07
853.081	75.26
853.256	87.55
853.431	28.16
853.606	-98.81
853.781	-90.62
853.956	-156.16
854.131	26.11
854.305	-72.19
854.48	-47.62
854.655	-76.29
854.83	-41.47
855.005	5.63
855.18	-0.51
855.354	26.11
855.529	52.74
855.704	-33.28
855.879	75.26
856.053	-2.56
856.228	65.02
856.403	-47.62
856.577	56.83
856.752	-2.56
856.926	-29.18
857.101	44.54
857.276	-111.1
857.45	36.35
857.625	22.02
857.799	-35.33
857.974	-33.28
858.148	-51.71
858.323	11.78
858.497	13.82
858.672	-10.75
858.846	-86.53
859.02	103.93
859.195	-127.49
859.369	-35.33
859.543	38.4
859.718	-29.18
859.892	77.31
860.066	19.97
860.241	9.73
860.415	-49.66
860.589	-29.18
860.763	-31.23
860.938	-57.86
861.112	87.55
861.286	-6.66
861.46	36.35
861.634	-82.43
861.808	75.26
861.982	-10.75
862.157	-141.82
862.331	-39.42
862.505	-29.18
862.679	-74.24
862.853	-59.9
863.027	-51.71
863.201	118.27
863.375	-41.47
863.549	-45.57
863.722	-51.71
863.896	130.56
864.07	-23.04
864.244	28.16
864.418	-6.66
864.592	22.02
864.766	46.59
864.939	-29.18
865.113	-45.57
865.287	83.45
865.461	-76.29
865.634	83.45
865.808	-12.8
865.982	-43.52
866.156	-96.77
866.329	-78.33
866.503	-6.66
866.676	75.26
866.85	-2.56
867.024	-4.61
867.197	40.45
867.371	-29.18
867.544	-10.75
867.718	-53.76
867.891	54.78
868.065	-96.77
868.238	-35.33
868.412	89.6
868.585	3.58
868.759	-20.99
868.932	-4.61
869.105	-82.43
869.279	58.88
869.452	-72.19
869.625	-6.66
869.799	-29.18
869.972	-100.86
870.145	-27.14
870.319	65.02
870.492	9.73
870.665	85.5
870.838	-107.01
871.011	-109.05
871.185	19.97
871.358	-123.39
871.531	44.54
871.704	-20.99
871.877	44.54
872.05	-14.85
872.223	-18.94
872.396	26.11
872.569	46.59
872.742	-111.1
872.915	114.17
873.088	-25.09
873.261	-33.28
873.434	26.11
873.607	11.78
873.78	103.93
873.953	-100.86
874.126	-2.56
874.299	-4.61
874.471	22.02
874.644	13.82
874.817	48.64
874.99	171.52
875.163	-41.47
875.335	-18.94
875.508	-8.7
875.681	130.56
875.853	-51.71
876.026	3.58
876.199	69.12
876.371	-10.75
876.544	-74.24
876.717	13.82
876.889	-82.43
877.062	36.35
877.234	-107.01
877.407	-57.86
877.579	-0.51
877.752	3.58
877.924	13.82
878.097	13.82
878.269	-18.94
878.442	19.97
878.614	62.98
878.786	-20.99
878.959	-23.04
879.131	1.54
879.303	-76.29
879.476	-29.18
879.648	95.74
879.82	40.45
879.993	-84.48
880.165	11.78
880.337	-113.15
880.509	-23.04
880.681	-109.05
880.854	19.97
881.026	1.54
881.198	87.55
881.37	-72.19
881.542	-4.61
881.714	-41.47
881.886	-14.85
882.058	-80.38
882.23	40.45
882.402	11.78
882.574	24.06
882.746	148.99
882.918	30.21
883.09	40.45
883.262	32.26
883.434	7.68
883.606	-14.85
883.778	36.35
883.95	42.5
884.122	-66.05
884.293	89.6
884.465	-61.95
884.637	65.02
884.809	-53.76
884.98	9.73
885.152	46.59
885.324	-41.47
885.496	-39.42
885.667	-78.33
885.839	-29.18
886.011	73.21
886.182	32.26
886.354	79.36
886.525	-8.7
886.697	3.58
886.869	-68.09
887.04	36.35
887.212	114.17
887.383	132.61
887.555	30.21
887.726	5.63
887.897	-72.19
888.069	3.58
888.24	36.35
888.412	50.69
888.583	5.63
888.754	9.73
888.926	-98.81
889.097	-66.05
889.268	-135.68
889.44	13.82
889.611	-137.73
889.782	-47.62
889.953	-72.19
890.125	79.36
890.296	-143.87
890.467	-29.18
890.638	-53.76
890.809	-2.56
890.98	-39.42
891.151	19.97
891.323	42.5
891.494	5.63
891.665	22.02
891.836	-6.66
892.007	13.82
892.178	-10.75
892.349	9.73
892.52	-53.76
892.691	-16.9
892.862	-39.42
893.032	-18.94
893.203	7.68
893.374	-18.94
893.545	105.98
893.716	-78.33
893.887	36.35
894.057	-6.66
894.228	50.69
894.399	-25.09
894.57	67.07
894.74	7.68
894.911	30.21
895.082	-59.9
895.253	-90.62
895.423	19.97
895.594	58.88
895.764	48.64
895.935	9.73
896.106	15.87
896.276	-41.47
896.447	77.31
896.617	-53.76
896.788	-115.2
896.958	1.54
897.129	-4.61
897.299	-39.42
897.47	83.45
897.64	24.06
897.81	-14.85
897.981	26.11
898.151	-113.15
898.322	-2.56
898.492	56.83
898.662	-33.28
898.832	-12.8
899.003	-35.33
899.173	19.97
899.343	-88.57
899.513	-88.57
