Data from USB4F104151__90__11-31-40-559.txt Node

Date: Wed Feb 26 11:31:40 EST 2025
User: louis
Spectrometer: USB4F10415
Trigger mode: 4
Integration Time (sec): 1.000000E-1
Scans to average: 1
Electric dark correction enabled: true
Nonlinearity correction enabled: false
Boxcar width: 0
XAxis mode: Wavelengths
Number of Pixels in Spectrum: 3648
>>>>>Begin Spectral Data<<<<<
178.204	-441
178.424	-441
178.644	-441
178.864	-447.14
179.084	-377.51
179.304	-0.68
179.524	-33.45
179.744	-2.73
179.964	25.94
180.184	11.61
180.404	46.42
180.624	36.18
180.844	-35.5
181.064	-0.68
181.283	-15.02
181.503	-49.83
181.723	17.75
181.943	-158.38
182.163	191.83
182.383	-109.22
182.602	27.99
182.822	157.01
183.042	71
183.262	-51.88
183.482	58.71
183.701	-4.78
183.921	89.43
184.141	-29.35
184.361	81.24
184.58	122.2
184.8	36.18
185.02	-23.21
185.239	130.39
185.459	30.04
185.679	130.39
185.898	-19.11
186.118	25.94
186.338	136.53
186.557	81.24
186.777	-43.69
186.997	68.95
187.216	32.08
187.436	251.22
187.655	79.19
187.875	73.04
188.095	17.75
188.314	99.67
188.534	87.38
188.753	-39.59
188.973	66.9
189.192	157.01
189.412	-55.98
189.631	54.61
189.851	93.52
190.07	114
190.29	-60.07
190.509	-41.64
190.729	-27.31
190.948	83.28
191.168	263.51
191.387	50.52
191.607	-66.22
191.826	87.38
192.045	-31.4
192.265	30.04
192.484	77.14
192.704	34.13
192.923	-43.69
193.142	212.31
193.362	68.95
193.581	124.24
193.8	75.09
194.02	99.67
194.239	44.37
194.458	48.47
194.678	52.56
194.897	83.28
195.116	103.76
195.335	3.41
195.555	95.57
195.774	3.41
195.993	144.72
196.212	17.75
196.432	50.52
196.651	48.47
196.87	95.57
197.089	261.46
197.308	66.9
197.528	101.72
197.747	21.85
197.966	71
198.185	132.44
198.404	46.42
198.623	132.44
198.842	68.95
199.062	79.19
199.281	101.72
199.5	46.42
199.719	134.48
199.938	21.85
200.157	109.91
200.376	107.86
200.595	122.2
200.814	62.8
201.033	17.75
201.252	116.05
201.471	62.8
201.69	154.96
201.909	107.86
202.128	204.11
202.347	32.08
202.566	73.04
202.785	-47.79
203.004	11.61
203.223	267.6
203.442	5.46
203.661	17.75
203.879	87.38
204.098	222.55
204.317	60.76
204.536	120.15
204.755	91.48
204.974	38.23
205.193	34.13
205.411	138.58
205.63	48.47
205.849	56.66
206.068	-8.87
206.287	-88.75
206.505	152.91
206.724	3.41
206.943	25.94
207.162	-6.83
207.381	34.13
207.599	11.61
207.818	54.61
208.037	-31.4
208.255	-25.26
208.474	124.24
208.693	48.47
208.911	7.51
209.13	101.72
209.349	25.94
209.567	75.09
209.786	21.85
210.005	99.67
210.223	62.8
210.442	-172.71
210.661	-19.11
210.879	56.66
211.098	60.76
211.316	58.71
211.535	99.67
211.753	50.52
211.972	58.71
212.191	46.42
212.409	-10.92
212.628	73.04
212.846	-12.97
213.065	-31.4
213.283	177.49
213.502	91.48
213.72	38.23
213.938	56.66
214.157	27.99
214.375	154.96
214.594	25.94
214.812	58.71
215.031	-31.4
215.249	109.91
215.467	85.33
215.686	126.29
215.904	111.96
216.122	71
216.341	171.35
216.559	134.48
216.778	87.38
216.996	154.96
217.214	-4.78
217.432	-17.07
217.651	-33.45
217.869	58.71
218.087	64.85
218.306	-49.83
218.524	5.46
218.742	-37.55
218.96	62.8
219.179	-70.31
219.397	50.52
219.615	222.55
219.833	126.29
220.051	-15.02
220.27	128.34
220.488	120.15
220.706	73.04
220.924	21.85
221.142	73.04
221.36	58.71
221.578	128.34
221.796	9.56
222.015	34.13
222.233	75.09
222.451	179.54
222.669	17.75
222.887	83.28
223.105	-35.5
223.323	79.19
223.541	-66.22
223.759	36.18
223.977	36.18
224.195	83.28
224.413	140.63
224.631	40.28
224.849	62.8
225.067	238.93
225.285	36.18
225.503	3.41
225.721	-19.11
225.939	89.43
226.157	48.47
226.375	197.97
226.592	-72.36
226.81	68.95
227.028	116.05
227.246	150.87
227.464	30.04
227.682	42.32
227.9	42.32
228.117	30.04
228.335	60.76
228.553	-21.16
228.771	52.56
228.989	44.37
229.206	13.65
229.424	64.85
229.642	-0.68
229.86	-10.92
230.077	118.1
230.295	52.56
230.513	142.68
230.731	75.09
230.948	251.22
231.166	185.68
231.384	-64.17
231.601	13.65
231.819	210.26
232.037	11.61
232.254	-2.73
232.472	9.56
232.689	9.56
232.907	75.09
233.125	5.46
233.342	36.18
233.56	5.46
233.777	83.28
233.995	40.28
234.213	105.81
234.43	97.62
234.648	87.38
234.865	-37.55
235.083	7.51
235.3	81.24
235.518	91.48
235.735	118.1
235.953	79.19
236.17	-41.64
236.388	89.43
236.605	128.34
236.822	138.58
237.04	114
237.257	87.38
237.475	-31.4
237.692	95.57
237.909	1.37
238.127	-19.11
238.344	21.85
238.562	30.04
238.779	-2.73
238.996	-31.4
239.214	1.37
239.431	95.57
239.648	-4.78
239.865	97.62
240.083	99.67
240.3	23.89
240.517	-41.64
240.735	13.65
240.952	163.15
241.169	116.05
241.386	1.37
241.603	17.75
241.821	-15.02
242.038	134.48
242.255	122.2
242.472	-8.87
242.689	99.67
242.907	105.81
243.124	122.2
243.341	-23.21
243.558	52.56
243.775	52.56
243.992	-43.69
244.209	91.48
244.426	187.73
244.643	50.52
244.86	-0.68
245.078	109.91
245.295	46.42
245.512	-58.03
245.729	56.66
245.946	66.9
246.163	34.13
246.38	32.08
246.597	95.57
246.814	64.85
247.031	21.85
247.248	73.04
247.464	46.42
247.681	83.28
247.898	40.28
248.115	101.72
248.332	17.75
248.549	130.39
248.766	189.78
248.983	124.24
249.2	99.67
249.417	25.94
249.633	7.51
249.85	66.9
250.067	75.09
250.284	36.18
250.501	77.14
250.717	107.86
250.934	-94.89
251.151	73.04
251.368	79.19
251.585	42.32
251.801	120.15
252.018	-74.41
252.235	83.28
252.451	5.46
252.668	9.56
252.885	150.87
253.102	21.85
253.318	44.37
253.535	9.56
253.752	40.28
253.968	81.24
254.185	15.7
254.401	36.18
254.618	118.1
254.835	-55.98
255.051	138.58
255.268	9.56
255.484	62.8
255.701	71
255.917	130.39
256.134	27.99
256.351	46.42
256.567	-17.07
256.784	1.37
257	-96.94
257.217	116.05
257.433	52.56
257.65	120.15
257.866	15.7
258.082	-47.79
258.299	-66.22
258.515	21.85
258.732	1.37
258.948	-72.36
259.165	64.85
259.381	3.41
259.597	109.91
259.814	34.13
260.03	62.8
260.246	40.28
260.463	132.44
260.679	148.82
260.895	99.67
261.112	124.24
261.328	19.8
261.544	-37.55
261.761	157.01
261.977	-55.98
262.193	1.37
262.409	40.28
262.626	-8.87
262.842	56.66
263.058	-12.97
263.274	71
263.49	77.14
263.707	36.18
263.923	148.82
264.139	-111.27
264.355	79.19
264.571	150.87
264.787	42.32
265.004	167.25
265.22	44.37
265.436	-0.68
265.652	48.47
265.868	40.28
266.084	-25.26
266.3	1.37
266.516	9.56
266.732	71
266.948	30.04
267.164	3.41
267.38	89.43
267.596	93.52
267.812	177.49
268.028	111.96
268.244	-6.83
268.46	85.33
268.676	-4.78
268.892	77.14
269.108	-4.78
269.324	5.46
269.54	13.65
269.756	68.95
269.972	-76.46
270.188	89.43
270.403	-96.94
270.619	95.57
270.835	79.19
271.051	81.24
271.267	9.56
271.483	40.28
271.698	81.24
271.914	142.68
272.13	5.46
272.346	75.09
272.562	42.32
272.777	107.86
272.993	-66.22
273.209	-72.36
273.425	89.43
273.64	-86.7
273.856	60.76
274.072	-21.16
274.287	42.32
274.503	91.48
274.719	97.62
274.934	-4.78
275.15	-105.13
275.366	7.51
275.581	-12.97
275.797	36.18
276.012	44.37
276.228	-6.83
276.444	62.8
276.659	181.59
276.875	-12.97
277.09	9.56
277.306	34.13
277.521	99.67
277.737	48.47
277.952	81.24
278.168	48.47
278.383	-21.16
278.599	9.56
278.814	38.23
279.03	-8.87
279.245	109.91
279.461	58.71
279.676	157.01
279.892	-41.64
280.107	-23.21
280.322	56.66
280.538	-21.16
280.753	15.7
280.969	-8.87
281.184	3.41
281.399	148.82
281.615	79.19
281.83	97.62
282.045	-74.41
282.26	-47.79
282.476	81.24
282.691	122.2
282.906	17.75
283.122	56.66
283.337	-21.16
283.552	71
283.767	11.61
283.983	132.44
284.198	27.99
284.413	56.66
284.628	-72.36
284.843	66.9
285.058	111.96
285.274	-10.92
285.489	-10.92
285.704	99.67
285.919	23.89
286.134	71
286.349	13.65
286.564	1.37
286.779	60.76
286.995	-15.02
287.21	-25.26
287.425	159.06
287.64	-25.26
287.855	81.24
288.07	-125.61
288.285	73.04
288.5	130.39
288.715	150.87
288.93	42.32
289.145	15.7
289.36	85.33
289.575	-45.74
289.79	132.44
290.004	42.32
290.219	68.95
290.434	-27.31
290.649	60.76
290.864	42.32
291.079	7.51
291.294	5.46
291.509	142.68
291.724	54.61
291.938	32.08
292.153	-2.73
292.368	15.7
292.583	21.85
292.798	54.61
293.012	83.28
293.227	81.24
293.442	-0.68
293.657	103.76
293.871	191.83
294.086	103.76
294.301	159.06
294.516	140.63
294.73	111.96
294.945	-33.45
295.16	11.61
295.374	142.68
295.589	150.87
295.804	-60.07
296.018	46.42
296.233	48.47
296.447	60.76
296.662	64.85
296.877	146.77
297.091	7.51
297.306	-6.83
297.52	17.75
297.735	105.81
297.949	60.76
298.164	38.23
298.378	25.94
298.593	-31.4
298.807	9.56
299.022	48.47
299.236	140.63
299.451	52.56
299.665	-10.92
299.88	56.66
300.094	50.52
300.309	-35.5
300.523	122.2
300.737	-4.78
300.952	81.24
301.166	17.75
301.381	5.46
301.595	23.89
301.809	32.08
302.024	-23.21
302.238	-27.31
302.452	126.29
302.667	93.52
302.881	214.35
303.095	52.56
303.309	19.8
303.524	62.8
303.738	-6.83
303.952	17.75
304.166	38.23
304.381	-111.27
304.595	173.39
304.809	-12.97
305.023	103.76
305.237	15.7
305.452	54.61
305.666	105.81
305.88	50.52
306.094	134.48
306.308	85.33
306.522	109.91
306.736	91.48
306.95	91.48
307.164	-2.73
307.379	-8.87
307.593	116.05
307.807	132.44
308.021	99.67
308.235	91.48
308.449	-47.79
308.663	9.56
308.877	212.31
309.091	103.76
309.305	107.86
309.519	-60.07
309.733	142.68
309.947	-96.94
310.161	81.24
310.374	167.25
310.588	109.91
310.802	-37.55
311.016	-19.11
311.23	36.18
311.444	-0.68
311.658	42.32
311.872	152.91
312.085	140.63
312.299	103.76
312.513	189.78
312.727	30.04
312.941	5.46
313.154	66.9
313.368	-23.21
313.582	3.41
313.796	56.66
314.009	-0.68
314.223	103.76
314.437	93.52
314.651	95.57
314.864	30.04
315.078	7.51
315.292	-25.26
315.505	-6.83
315.719	89.43
315.933	73.04
316.146	13.65
316.36	48.47
316.573	46.42
316.787	23.89
317.001	128.34
317.214	38.23
317.428	23.89
317.641	-35.5
317.855	-43.69
318.068	21.85
318.282	81.24
318.495	85.33
318.709	77.14
318.922	56.66
319.136	128.34
319.349	134.48
319.563	58.71
319.776	34.13
319.99	-25.26
320.203	138.58
320.417	44.37
320.63	130.39
320.843	185.68
321.057	71
321.27	-21.16
321.483	44.37
321.697	187.73
321.91	27.99
322.124	44.37
322.337	83.28
322.55	-68.27
322.763	32.08
322.977	91.48
323.19	-0.68
323.403	95.57
323.617	40.28
323.83	116.05
324.043	64.85
324.256	68.95
324.469	-39.59
324.683	44.37
324.896	11.61
325.109	-12.97
325.322	-37.55
325.535	89.43
325.748	111.96
325.962	44.37
326.175	46.42
326.388	71
326.601	187.73
326.814	-8.87
327.027	42.32
327.24	105.81
327.453	-64.17
327.666	101.72
327.879	71
328.092	54.61
328.305	73.04
328.518	15.7
328.731	13.65
328.944	44.37
329.157	142.68
329.37	-19.11
329.583	146.77
329.796	214.35
330.009	-35.5
330.222	56.66
330.435	109.91
330.648	62.8
330.861	-10.92
331.073	105.81
331.286	122.2
331.499	48.47
331.712	15.7
331.925	75.09
332.138	66.9
332.35	81.24
332.563	15.7
332.776	148.82
332.989	-15.02
333.202	-19.11
333.414	93.52
333.627	1.37
333.84	-15.02
334.053	36.18
334.265	17.75
334.478	-12.97
334.691	32.08
334.903	71
335.116	62.8
335.329	15.7
335.541	-6.83
335.754	148.82
335.966	30.04
336.179	52.56
336.392	50.52
336.604	25.94
336.817	77.14
337.029	3.41
337.242	36.18
337.454	107.86
337.667	19.8
337.88	146.77
338.092	89.43
338.305	95.57
338.517	7.51
338.729	171.35
338.942	122.2
339.154	-43.69
339.367	-39.59
339.579	7.51
339.792	40.28
340.004	42.32
340.217	15.7
340.429	175.44
340.641	-119.46
340.854	19.8
341.066	71
341.278	97.62
341.491	157.01
341.703	15.7
341.915	-17.07
342.128	89.43
342.34	48.47
342.552	11.61
342.764	58.71
342.977	89.43
343.189	85.33
343.401	34.13
343.613	-37.55
343.826	13.65
344.038	-45.74
344.25	81.24
344.462	9.56
344.674	77.14
344.886	140.63
345.099	44.37
345.311	38.23
345.523	64.85
345.735	-27.31
345.947	161.11
346.159	9.56
346.371	66.9
346.583	-33.45
346.795	204.11
347.007	-6.83
347.219	83.28
347.431	75.09
347.643	38.23
347.855	-19.11
348.067	150.87
348.279	-88.75
348.491	83.28
348.703	66.9
348.915	62.8
349.127	-15.02
349.339	148.82
349.551	11.61
349.763	128.34
349.975	-15.02
350.187	101.72
350.399	140.63
350.61	161.11
350.822	-8.87
351.034	30.04
351.246	99.67
351.458	48.47
351.669	42.32
351.881	91.48
352.093	60.76
352.305	85.33
352.517	144.72
352.728	81.24
352.94	75.09
353.152	11.61
353.363	-2.73
353.575	87.38
353.787	234.83
353.999	116.05
354.21	206.16
354.422	38.23
354.633	52.56
354.845	5.46
355.057	25.94
355.268	34.13
355.48	73.04
355.692	-39.59
355.903	60.76
356.115	19.8
356.326	-98.99
356.538	179.54
356.749	25.94
356.961	179.54
357.172	1.37
357.384	-27.31
357.595	234.83
357.807	75.09
358.018	42.32
358.23	-35.5
358.441	185.68
358.653	-2.73
358.864	7.51
359.075	-0.68
359.287	3.41
359.498	101.72
359.709	50.52
359.921	40.28
360.132	56.66
360.344	97.62
360.555	-62.12
360.766	66.9
360.977	97.62
361.189	95.57
361.4	91.48
361.611	128.34
361.823	175.44
362.034	52.56
362.245	-43.69
362.456	83.28
362.667	19.8
362.879	42.32
363.09	111.96
363.301	103.76
363.512	40.28
363.723	-35.5
363.935	54.61
364.146	146.77
364.357	50.52
364.568	3.41
364.779	-39.59
364.99	95.57
365.201	-49.83
365.412	138.58
365.623	-2.73
365.834	95.57
366.045	93.52
366.256	64.85
366.467	23.89
366.678	48.47
366.889	13.65
367.1	-45.74
367.311	95.57
367.522	52.56
367.733	89.43
367.944	79.19
368.155	-41.64
368.366	15.7
368.577	64.85
368.788	130.39
368.999	-35.5
369.209	42.32
369.42	267.6
369.631	255.31
369.842	91.48
370.053	25.94
370.264	85.33
370.474	13.65
370.685	50.52
370.896	15.7
371.107	114
371.317	73.04
371.528	30.04
371.739	148.82
371.95	48.47
372.16	93.52
372.371	-35.5
372.582	-45.74
372.792	32.08
373.003	146.77
373.214	32.08
373.424	79.19
373.635	-103.08
373.846	193.87
374.056	97.62
374.267	99.67
374.477	107.86
374.688	-6.83
374.898	66.9
375.109	79.19
375.319	-31.4
375.53	120.15
375.74	85.33
375.951	-10.92
376.161	52.56
376.372	87.38
376.582	19.8
376.793	-0.68
377.003	19.8
377.214	23.89
377.424	118.1
377.635	52.56
377.845	-10.92
378.055	167.25
378.266	-45.74
378.476	77.14
378.686	34.13
378.897	75.09
379.107	114
379.317	107.86
379.528	17.75
379.738	30.04
379.948	-19.11
380.158	122.2
380.369	87.38
380.579	157.01
380.789	101.72
380.999	83.28
381.21	50.52
381.42	206.16
381.63	-25.26
381.84	130.39
382.05	114
382.261	173.39
382.471	130.39
382.681	-12.97
382.891	181.59
383.101	89.43
383.311	-98.99
383.521	36.18
383.731	161.11
383.941	109.91
384.151	79.19
384.361	73.04
384.571	46.42
384.781	95.57
384.991	193.87
385.201	200.02
385.411	130.39
385.621	11.61
385.831	15.7
386.041	77.14
386.251	71
386.461	181.59
386.671	50.52
386.881	79.19
387.091	-37.55
387.301	124.24
387.511	87.38
387.72	120.15
387.93	140.63
388.14	25.94
388.35	126.29
388.56	132.44
388.769	48.47
388.979	56.66
389.189	7.51
389.399	50.52
389.609	79.19
389.818	75.09
390.028	60.76
390.238	48.47
390.447	11.61
390.657	87.38
390.867	-43.69
391.076	-105.13
391.286	42.32
391.496	-6.83
391.705	81.24
391.915	130.39
392.125	171.35
392.334	40.28
392.544	175.44
392.753	38.23
392.963	3.41
393.172	-0.68
393.382	9.56
393.591	144.72
393.801	13.65
394.01	140.63
394.22	68.95
394.429	60.76
394.639	83.28
394.848	107.86
395.058	66.9
395.267	38.23
395.477	75.09
395.686	95.57
395.895	202.07
396.105	238.93
396.314	120.15
396.524	36.18
396.733	58.71
396.942	134.48
397.152	60.76
397.361	116.05
397.57	93.52
397.78	54.61
397.989	-41.64
398.198	197.97
398.407	64.85
398.617	62.8
398.826	7.51
399.035	11.61
399.244	87.38
399.453	44.37
399.663	23.89
399.872	68.95
400.081	-35.5
400.29	189.78
400.499	1.37
400.708	101.72
400.917	27.99
401.127	1.37
401.336	32.08
401.545	195.92
401.754	144.72
401.963	138.58
402.172	15.7
402.381	-31.4
402.59	56.66
402.799	36.18
403.008	58.71
403.217	52.56
403.426	3.41
403.635	-29.35
403.844	32.08
404.053	68.95
404.262	34.13
404.471	214.35
404.68	77.14
404.888	50.52
405.097	15.7
405.306	13.65
405.515	66.9
405.724	17.75
405.933	44.37
406.142	-15.02
406.35	107.86
406.559	9.56
406.768	-6.83
406.977	183.63
407.185	48.47
407.394	99.67
407.603	-15.02
407.812	89.43
408.02	132.44
408.229	73.04
408.438	42.32
408.646	-33.45
408.855	52.56
409.064	38.23
409.272	-8.87
409.481	222.55
409.69	-17.07
409.898	40.28
410.107	30.04
410.315	114
410.524	46.42
410.733	25.94
410.941	42.32
411.15	130.39
411.358	93.52
411.567	134.48
411.775	11.61
411.984	101.72
412.192	130.39
412.401	25.94
412.609	132.44
412.818	187.73
413.026	73.04
413.234	54.61
413.443	50.52
413.651	46.42
413.86	54.61
414.068	124.24
414.276	216.4
414.485	13.65
414.693	128.34
414.901	222.55
415.11	32.08
415.318	103.76
415.526	66.9
415.734	32.08
415.943	136.53
416.151	154.96
416.359	60.76
416.567	95.57
416.776	146.77
416.984	93.52
417.192	179.54
417.4	56.66
417.608	7.51
417.817	1.37
418.025	62.8
418.233	214.35
418.441	40.28
418.649	-25.26
418.857	95.57
419.065	167.25
419.273	71
419.481	32.08
419.689	58.71
419.897	30.04
420.105	-35.5
420.313	157.01
420.521	109.91
420.729	120.15
420.937	9.56
421.145	-27.31
421.353	85.33
421.561	120.15
421.769	95.57
421.977	38.23
422.185	136.53
422.393	71
422.601	138.58
422.809	97.62
423.017	128.34
423.224	95.57
423.432	130.39
423.64	130.39
423.848	144.72
424.056	25.94
424.263	114
424.471	-35.5
424.679	206.16
424.887	44.37
425.094	89.43
425.302	97.62
425.51	75.09
425.718	173.39
425.925	138.58
426.133	17.75
426.341	200.02
426.548	68.95
426.756	79.19
426.964	81.24
427.171	-58.03
427.379	93.52
427.586	144.72
427.794	116.05
428.001	193.87
428.209	122.2
428.417	107.86
428.624	120.15
428.832	89.43
429.039	140.63
429.247	85.33
429.454	89.43
429.662	253.27
429.869	165.2
430.076	126.29
430.284	175.44
430.491	212.31
430.699	171.35
430.906	243.03
431.114	130.39
431.321	210.26
431.528	138.58
431.736	234.83
431.943	197.97
432.15	206.16
432.358	230.74
432.565	257.36
432.772	27.99
432.979	179.54
433.187	163.15
433.394	263.51
433.601	161.11
433.808	296.27
434.016	322.9
434.223	247.12
434.43	152.91
434.637	351.57
434.844	296.27
435.052	245.07
435.259	324.94
435.466	308.56
435.673	316.75
435.88	275.79
436.087	359.76
436.294	363.86
436.501	396.62
436.708	329.04
436.915	372.05
437.122	367.95
437.329	290.13
437.537	355.66
437.743	320.85
437.95	460.11
438.157	484.69
438.364	357.71
438.571	501.07
438.778	470.35
438.985	599.37
439.192	564.56
439.399	464.21
439.606	568.65
439.813	662.86
440.02	664.91
440.227	660.81
440.433	718.15
440.64	562.51
440.847	654.67
441.054	701.77
441.261	855.37
441.467	709.96
441.674	693.58
441.881	750.92
442.088	755.02
442.294	888.14
442.501	828.74
442.708	914.76
442.914	855.37
443.121	943.43
443.328	1031.49
443.534	1137.99
443.741	931.14
443.948	947.53
444.154	1035.59
444.361	1264.96
444.568	1262.91
444.774	1209.67
444.981	1137.99
445.187	1408.32
445.394	1301.83
445.6	1363.26
445.807	1584.45
446.013	1506.62
446.22	1529.15
446.426	1553.73
446.633	1635.64
446.839	1856.82
447.046	1633.6
447.252	1871.16
447.459	1862.97
447.665	1860.92
447.871	2026.81
448.078	2225.46
448.284	2157.88
448.491	2198.84
448.697	2450.74
448.903	2532.65
449.11	2544.94
449.316	2510.13
449.522	2819.37
449.728	2766.12
449.935	2903.34
450.141	2915.62
450.347	3079.46
450.553	3013.93
450.76	3261.73
450.966	3382.56
451.172	3403.04
451.378	3656.99
451.584	3720.48
451.791	4011.29
451.997	4070.68
452.203	4148.5
452.409	4222.23
452.615	4543.76
452.821	4445.46
453.027	4384.02
453.233	4947.21
453.44	4955.4
453.646	5055.75
453.852	5188.87
454.058	5461.25
454.264	5645.57
454.47	6083.83
454.676	6126.84
454.882	6755.57
455.088	6397.17
455.294	6761.71
455.5	7167.21
455.705	7546.08
455.911	7384.29
456.117	7754.98
456.323	8049.88
456.529	7824.61
456.735	8721.62
456.941	9153.74
457.147	9432.26
457.352	9649.35
457.558	9823.42
457.764	10708.15
457.97	10726.58
458.176	11033.77
458.381	11771.04
458.587	11842.72
458.793	12653.72
458.999	12491.93
459.204	14001.28
459.41	14693.49
459.616	14371.96
459.821	15111.28
460.027	15922.27
460.233	16452.7
460.438	16774.23
460.644	17620.04
460.85	17579.08
461.055	18447.42
461.261	19426.35
461.466	19102.77
461.672	19500.08
461.878	21441.55
462.083	21560.33
462.289	21961.73
462.494	22658.04
462.7	22725.63
462.905	23481.33
463.111	25254.87
463.316	26225.61
463.522	26584
463.727	27700.14
463.932	28986.27
464.138	29588.37
464.343	30804.86
464.549	30905.21
464.754	33200.99
464.959	33956.69
465.165	34589.51
465.37	34374.47
465.575	34560.84
465.781	36684.58
465.986	37624.6
466.191	37176.09
466.397	37565.21
466.602	36336.43
466.807	38552.33
467.012	39383.8
467.218	40157.94
467.423	40522.47
467.628	41003.75
467.833	43483.84
468.038	42435.28
468.244	41831.13
468.449	43524.8
468.654	42846.92
468.859	42891.97
469.064	42793.67
469.269	42179.28
469.474	42238.67
469.679	43467.45
469.885	42269.39
470.09	42607.31
470.295	42789.58
470.5	41933.53
470.705	42537.68
470.91	41022.18
471.115	41145.06
471.32	41495.26
471.525	41093.86
471.73	39910.13
471.935	39402.24
472.139	38034.19
472.344	38365.96
472.549	38251.28
472.754	36887.33
472.959	36207.4
473.164	34954.05
473.369	34607.94
473.574	35826.48
473.778	35332.92
473.983	34155.34
474.188	33753.94
474.393	32244.59
474.598	31886.19
474.802	31411.06
475.007	31488.88
475.212	30729.09
475.417	29170.58
475.621	29485.97
475.826	28967.84
476.031	28203.94
476.235	27610.03
476.44	27683.76
476.645	26989.5
476.849	26631.1
477.054	26330.05
477.259	25598.93
477.463	25828.3
477.668	24990.68
477.872	25230.29
478.077	23991.27
478.282	23553.01
478.486	23514.09
478.691	23092.21
478.895	23043.06
479.1	22969.33
479.304	22559.74
479.509	21791.75
479.713	22260.74
479.918	21373.97
480.122	21095.44
480.326	21470.22
480.531	21199.89
480.735	21005.33
480.94	20904.98
481.144	21548.04
481.348	20306.98
481.553	20268.06
481.757	19731.5
481.961	20026.4
482.166	20157.47
482.37	19629.1
482.574	19383.34
482.778	19326
482.983	19661.87
483.187	19364.91
483.391	19362.86
483.595	18840.63
483.8	18613.31
484.004	18734.14
484.208	18529.34
484.412	18523.19
484.616	18261.05
484.821	17824.84
485.025	17480.78
485.229	17550.41
485.433	17181.78
485.637	17189.97
485.841	17034.32
486.045	16645.21
486.249	16432.22
486.453	15916.13
486.657	15838.31
486.861	15760.48
487.065	14967.92
487.269	15262.83
487.473	14558.33
487.677	14814.32
487.881	14836.85
488.085	14072.96
488.289	14167.17
488.493	13583.49
488.697	13622.41
488.901	13659.27
489.105	12952.72
489.309	12870.8
489.512	12780.69
489.716	12623
489.92	12141.72
490.124	11996.32
490.328	11863.2
490.531	11525.29
490.735	11564.2
490.939	11132.08
491.143	11039.92
491.346	10929.33
491.55	10704.05
491.754	10661.04
491.958	10316.98
492.161	10212.54
492.365	10022.08
492.569	9702.59
492.772	9620.67
492.976	9581.76
493.18	9297.1
493.383	9315.53
493.587	9151.69
493.79	8959.18
493.994	8789.2
494.197	8748.24
494.401	8936.65
494.605	8584.4
494.808	8656.08
495.012	8584.4
495.215	8713.42
495.419	8475.86
495.622	8264.92
495.825	8080.6
496.029	8004.83
496.232	8191.19
496.436	8244.44
496.639	8242.39
496.843	7976.16
497.046	8137.95
497.249	8129.75
497.453	8127.71
497.656	8058.07
497.859	7924.96
498.063	8082.65
498.266	8172.76
498.469	8094.94
498.673	8135.9
498.876	7916.76
499.079	8121.56
499.282	8266.97
499.485	8412.37
499.689	8248.54
499.892	8520.92
500.095	8406.23
500.298	8580.31
500.501	8408.28
500.705	8776.91
500.908	8639.7
501.111	8664.27
501.314	8791.25
501.517	8905.93
501.72	8955.08
501.923	9010.38
502.126	8983.76
502.329	9149.64
502.532	9225.42
502.735	9243.85
502.938	9716.93
503.141	9405.64
503.344	9596.1
503.547	9884.86
503.75	9753.79
503.953	10034.36
504.156	10214.59
504.359	10243.26
504.562	10300.6
504.765	10515.64
504.968	10697.91
505.17	10906.8
505.373	10822.83
505.576	11392.17
505.779	11369.64
505.982	11426.98
506.185	11842.72
506.387	11869.34
506.59	12074.14
506.793	12180.64
506.996	12246.17
507.198	12782.74
507.401	12948.62
507.604	13202.57
507.807	13671.56
508.009	13771.91
508.212	14015.62
508.415	14304.38
508.617	14474.36
508.82	14630.01
509.022	14853.23
509.225	15514.73
509.428	15479.91
509.63	16114.78
509.833	16137.31
510.035	17005.65
510.238	16610.39
510.44	17298.51
510.643	17517.64
510.845	18117.7
511.048	18326.59
511.25	18912.31
511.453	19299.37
511.655	20126.75
511.858	20491.29
512.06	20636.7
512.262	21193.75
512.465	21296.14
512.667	22023.17
512.87	22672.38
513.072	22961.14
513.274	23413.74
513.477	24069.09
513.679	24583.13
513.881	25197.52
514.084	25684.94
514.286	25844.68
514.488	26442.69
514.69	27562.93
514.893	27874.22
515.095	28408.74
515.297	28900.25
515.499	29377.43
515.701	30282.63
515.904	30770.05
516.106	31579
516.308	32254.83
516.51	32705.38
516.712	33252.19
516.914	34145.1
517.116	34974.53
517.318	35208
517.52	35953.46
517.722	36248.36
517.925	37354.27
518.127	37786.39
518.329	38664.97
518.531	39285.5
518.733	40098.55
518.935	40534.76
519.136	40850.15
519.338	41999.06
519.54	42275.54
519.742	43209.41
519.944	43653.82
520.146	44681.9
520.348	44982.95
520.55	45548.19
520.752	45853.34
520.954	46717.58
521.155	46639.76
521.357	48011.9
521.559	48228.98
521.761	49062.5
521.963	49338.98
522.164	49797.73
522.366	50117.21
522.568	51006.03
522.77	50864.72
522.971	51604.03
523.173	51692.1
523.375	52384.31
523.576	52298.3
523.778	52605.49
523.98	53275.18
524.181	53408.29
524.383	53631.52
524.584	53676.58
524.786	53332.52
524.988	53183.02
525.189	54237.72
525.391	54295.06
525.592	54319.64
525.794	54094.36
525.995	54061.6
526.197	54192.67
526.398	54188.57
526.6	54163.99
526.801	53860.9
527.003	53363.24
527.204	53551.65
527.406	54204.95
527.607	53133.87
527.808	53774.88
528.01	52648.5
528.211	52521.52
528.412	52994.6
528.614	52083.26
528.815	51890.75
529.016	52105.79
529.218	50690.64
529.419	50760.27
529.62	50616.91
529.822	50002.52
530.023	49846.88
530.224	49312.36
530.425	48355.96
530.626	47696.51
530.828	47209.09
531.029	48147.06
531.23	46639.76
531.431	46006.94
531.632	45965.98
531.833	45564.57
532.035	44888.74
532.236	44737.19
532.437	44120.76
532.638	42879.69
532.839	42863.3
533.04	42920.65
533.241	41749.21
533.442	42017.49
533.643	40782.57
533.844	40307.44
534.045	39842.55
534.246	39265.02
534.447	39019.27
534.648	38107.92
534.849	38021.91
535.05	37241.63
535.251	36682.53
535.451	36506.41
535.652	35871.54
535.853	35285.82
536.054	34984.77
536.255	34614.09
536.456	33618.77
536.657	34073.42
536.857	33243.99
537.058	32340.84
537.259	32713.57
537.46	31984.49
537.66	31533.94
537.861	31132.54
538.062	30256.01
538.263	30249.86
538.463	29787.02
538.664	29520.79
538.865	29143.96
539.065	29082.52
539.266	28421.03
539.466	28464.03
539.667	27818.92
539.868	27739.05
540.068	27120.57
540.269	26880.96
540.469	26584
540.67	26325.96
540.87	26084.3
541.071	25474
541.271	25299.92
541.472	25267.16
541.672	24927.19
541.873	24525.79
542.073	23739.37
542.274	24124.39
542.474	23864.3
542.675	23342.07
542.875	23149.56
543.075	22748.15
543.276	22410.24
543.476	22627.32
543.676	22232.07
543.877	22086.66
544.077	21845
544.277	21576.72
544.478	21253.14
544.678	21081.11
544.878	20634.65
545.078	20458.53
545.279	19993.64
545.479	20098.08
545.679	19926.05
545.879	19711.02
546.079	19641.39
546.28	18730.04
546.48	18734.14
546.68	18797.62
546.88	18920.5
547.08	18244.67
547.28	17835.08
547.48	17615.94
547.68	17720.39
547.88	17265.74
548.081	17413.2
548.281	17155.15
548.481	16766.04
548.681	16868.44
548.881	16389.21
549.081	16143.45
549.28	15703.14
549.48	15783.01
549.68	15570.02
549.88	15909.99
550.08	15043.7
550.28	15193.2
550.48	14812.28
550.68	14705.78
550.88	14388.35
551.08	14310.52
551.279	13827.2
551.479	13800.58
551.679	13501.58
551.879	13235.34
552.079	13091.98
552.278	12952.72
552.478	12962.96
552.678	12487.83
552.878	12483.73
553.077	12307.61
553.277	11650.21
553.477	11947.17
553.676	11750.56
553.876	11584.68
554.076	11115.69
554.275	11367.59
554.475	10769.58
554.674	10890.42
554.874	10677.43
555.074	10294.46
555.273	10458.29
555.473	10292.41
555.672	9891.01
555.872	9798.85
556.071	9710.79
556.271	9632.96
556.47	9309.38
556.67	9159.88
556.869	9026.76
557.068	8983.76
557.268	8725.71
557.467	8635.6
557.667	8537.3
557.866	8420.56
558.065	8115.42
558.265	8180.95
558.464	7609.57
558.663	7628
558.863	7701.73
559.062	7718.11
559.261	7294.18
559.461	7406.82
559.66	7304.42
559.859	6974.7
560.058	7011.56
560.258	6833.39
560.457	6831.34
560.656	6712.56
560.855	6337.78
561.054	6520.05
561.253	6407.41
561.453	6216.95
561.652	6280.44
561.851	6231.29
562.05	5956.86
562.249	5698.81
562.448	5868.8
562.647	5473.54
562.846	5684.48
563.045	5666.05
563.244	5494.02
563.443	5397.76
563.642	5162.25
563.841	5283.08
564.04	5072.14
564.239	5080.33
564.438	5041.42
564.637	4836.62
564.836	4951.31
565.035	4936.97
565.234	4656.4
565.432	4533.52
565.631	4623.63
565.83	4478.22
566.029	4168.98
566.228	4293.91
566.427	4357.39
566.625	4091.16
566.824	4148.5
567.023	4099.35
567.222	4025.62
567.42	3978.52
567.619	4025.62
567.818	3867.93
568.016	3882.27
568.215	3804.44
568.414	3826.97
568.612	3851.55
568.811	3636.51
569.01	3517.73
569.208	3384.61
569.407	3382.56
569.605	3388.71
569.804	3544.35
570.002	3329.31
570.201	3288.36
570.4	3312.93
570.598	3126.57
570.797	3247.4
570.995	2993.45
571.193	3120.42
571.392	2891.05
571.59	2817.32
571.789	2999.59
571.987	2977.06
572.186	3026.22
572.384	2725.16
572.582	2764.08
572.781	2868.52
572.979	2637.1
573.177	2626.86
573.376	2698.54
573.574	2688.3
573.772	2514.22
573.971	2424.11
574.169	2372.91
574.367	2313.52
574.565	2323.76
574.763	2389.3
574.962	2202.93
575.16	2133.3
575.358	2172.21
575.556	2159.92
575.754	2129.2
575.952	2227.51
576.151	2086.2
576.349	2186.55
576.547	1891.64
576.745	1903.93
576.943	1989.94
577.141	1946.94
577.339	1852.73
577.537	1897.78
577.735	1914.17
577.933	1846.59
578.131	1760.57
578.329	1844.54
578.527	1723.71
578.725	1785.15
578.923	1572.16
579.121	1793.34
579.319	1457.47
579.516	1668.41
579.714	1658.17
579.912	1500.48
580.11	1588.54
580.308	1502.53
580.506	1545.53
580.704	1312.07
580.901	1326.4
581.099	1432.9
581.297	1375.55
581.495	1387.84
581.692	1361.22
581.89	1389.89
582.088	1350.98
582.285	1410.37
582.483	1299.78
582.681	1279.3
582.878	1193.28
583.076	1310.02
583.274	1197.38
583.471	1375.55
583.669	1054.02
583.866	1066.31
584.064	1019.21
584.262	1097.03
584.459	1103.17
584.657	1103.17
584.854	1127.75
585.052	1094.98
585.249	1097.03
585.447	1113.41
585.644	972.1
585.841	1015.11
586.039	1064.26
586.236	1033.54
586.434	957.77
586.631	918.86
586.828	865.61
587.026	922.95
587.223	755.02
587.42	785.74
587.618	947.53
587.815	947.53
588.012	896.33
588.21	769.35
588.407	996.68
588.604	843.08
588.801	740.68
588.999	892.23
589.196	902.47
589.393	843.08
589.59	838.98
589.787	851.27
589.984	838.98
590.182	795.98
590.379	724.3
590.576	787.79
590.773	726.35
590.97	806.22
591.167	865.61
591.364	763.21
591.561	724.3
591.758	869.7
591.955	853.32
592.152	707.91
592.349	755.02
592.546	783.69
592.743	787.79
592.94	757.07
593.137	724.3
593.334	861.51
593.531	775.5
593.727	816.46
593.924	855.37
594.121	769.35
594.318	730.44
594.515	765.26
594.712	783.69
594.908	814.41
595.105	689.48
595.302	822.6
595.499	793.93
595.696	988.49
595.892	830.79
596.089	918.86
596.286	908.62
596.482	929.1
596.679	922.95
596.876	806.22
597.072	1047.88
597.269	1006.92
597.466	953.67
597.662	996.68
597.859	955.72
598.055	1117.51
598.252	1115.46
598.448	1140.04
598.645	1269.06
598.841	1176.9
599.038	1445.18
599.234	1490.24
599.431	1402.18
599.627	1469.76
599.824	1596.73
600.02	1613.12
600.217	1615.16
600.413	1641.79
600.609	1760.57
600.806	2104.63
601.002	1885.5
601.198	1848.63
601.395	2159.92
601.591	2168.12
601.787	2149.68
601.984	2274.61
602.18	2534.7
602.376	2442.54
602.572	2641.2
602.769	2762.03
602.965	2700.59
603.161	2897.19
603.357	2977.06
603.553	3245.35
603.75	3106.09
603.946	3276.07
604.142	3325.22
604.338	3511.58
604.534	3487.01
604.73	3759.39
604.926	3788.06
605.122	3986.71
605.318	4144.41
605.514	4228.37
605.71	4244.76
605.906	4539.66
606.102	4554
606.298	4863.24
606.494	4893.96
606.69	5170.44
606.886	5205.25
607.082	5215.49
607.278	5385.48
607.474	5557.5
607.67	5790.97
607.866	5831.93
608.062	6147.32
608.257	6175.99
608.453	6329.59
608.649	6632.69
608.845	6638.83
609.041	6851.82
609.236	6986.99
609.432	7210.22
609.628	7679.2
609.824	7603.43
610.019	7871.71
610.215	8037.59
610.411	8494.29
610.606	8559.83
610.802	8557.78
610.998	9135.31
611.193	9252.04
611.389	9587.91
611.584	9743.55
611.78	9641.15
611.976	10261.69
612.171	10714.29
612.367	10769.58
612.562	10810.54
612.758	11213.99
612.953	11408.55
613.149	11867.3
613.344	12113.05
613.539	12792.98
613.735	12835.99
613.93	13167.76
614.126	13235.34
614.321	13835.39
614.517	14294.14
614.712	14738.55
614.907	14822.52
615.103	15541.35
615.298	15676.52
615.493	16131.17
615.688	16227.42
615.884	17073.23
616.079	17060.94
616.274	17906.76
616.47	17943.62
616.665	18687.03
616.86	19180.59
617.055	19594.28
617.25	20247.58
617.445	20614.17
617.641	20921.37
617.836	21677.07
618.031	21947.4
618.226	22512.64
618.421	23256.05
618.616	23780.33
618.811	23776.23
619.006	25113.56
619.201	25062.36
619.396	25883.59
619.591	25836.49
619.786	27022.26
619.981	27489.2
620.176	28097.45
620.371	28392.36
620.566	29006.75
620.761	29756.3
620.956	30759.81
621.151	30729.09
621.346	31521.65
621.541	31695.73
621.735	33045.34
621.93	33035.1
622.125	33831.76
622.32	34108.24
622.515	35253.05
622.709	35554.1
622.904	36293.42
623.099	37159.71
623.294	37774.1
623.488	37903.12
623.683	38853.38
623.878	39013.12
624.072	40092.4
624.267	40588.01
624.462	41503.45
624.656	41288.42
624.851	42658.51
625.046	42934.98
625.24	43457.21
625.435	44137.14
625.629	44679.85
625.824	45300.39
626.018	46152.34
626.213	45742.75
626.407	46826.12
626.602	47131.27
626.796	47663.74
626.991	48102.01
627.185	48433.78
627.38	48675.44
627.574	49027.69
627.768	48978.54
627.963	49287.78
628.157	49085.03
628.352	49996.38
628.546	49271.4
628.74	50016.86
628.935	49445.47
629.129	50059.87
629.323	48859.76
629.517	48878.19
629.712	48777.84
629.906	48169.59
630.1	47585.92
630.294	47999.61
630.489	46539.41
630.683	46314.13
630.877	45578.91
631.071	44305.07
631.265	44192.43
631.459	43459.26
631.653	42072.79
631.848	41413.34
632.042	40559.34
632.236	40002.29
632.43	38312.72
632.624	37600.02
632.818	36215.6
633.012	35062.59
633.206	33919.82
633.4	33176.41
633.594	31847.28
633.788	30673.79
633.982	29787.02
634.176	28648.35
634.369	27710.38
634.563	26430.4
634.757	25547.73
634.951	24722.4
635.145	23694.32
635.339	22875.13
635.533	21607.44
635.726	21343.25
635.92	19930.15
636.114	19315.76
636.308	18418.75
636.501	17730.63
636.695	17114.19
636.889	16157.79
637.083	15527.02
637.276	15164.53
637.47	14224.51
637.664	13677.7
637.857	13210.76
638.051	12782.74
638.244	12123.29
638.438	11816.1
638.632	11277.48
638.825	10634.42
639.019	10523.83
639.212	9934.01
639.406	9747.65
639.599	9221.32
639.793	8740.05
639.986	8389.85
640.18	8340.69
640.373	7812.32
640.567	7566.56
640.76	7292.13
640.954	6909.16
641.147	6690.03
641.34	6515.95
641.534	6153.46
641.727	6024.44
641.92	5750.01
642.114	5528.83
642.307	5377.28
642.5	5240.07
642.694	4848.91
642.887	4744.46
643.08	4517.14
643.273	4453.65
643.467	4166.93
643.66	4046.1
643.853	3820.83
644.046	3863.83
644.239	3609.89
644.432	3351.84
644.626	3333.41
644.819	3177.76
645.012	3087.65
645.205	3106.09
645.398	3020.07
645.591	2833.71
645.784	2723.12
645.977	2549.04
646.17	2491.7
646.363	2329.91
646.556	2110.77
646.749	2133.3
646.942	2198.84
647.135	2178.36
647.328	1813.82
647.521	1926.46
647.714	1856.82
647.907	1826.11
648.099	1619.26
648.292	1727.8
648.485	1551.68
648.678	1621.31
648.871	1383.74
649.064	1334.59
649.256	1236.29
649.449	1156.42
649.642	1162.56
649.835	1215.81
650.027	1088.84
650.22	1258.82
650.413	1215.81
650.605	1230.15
650.798	933.19
650.991	1068.36
651.183	898.38
651.376	988.49
651.568	841.03
651.761	922.95
651.954	853.32
652.146	730.44
652.339	777.55
652.531	834.89
652.724	683.34
652.916	703.82
653.109	578.89
653.301	845.13
653.494	775.5
653.686	673.1
653.879	714.06
654.071	632.14
654.263	548.17
654.456	484.69
654.648	650.57
654.84	623.95
655.033	439.63
655.225	585.04
655.417	425.29
655.61	544.08
655.802	652.62
655.994	587.08
656.186	357.71
656.379	605.52
656.571	355.66
656.763	443.73
656.955	419.15
657.148	460.11
657.34	488.78
657.532	361.81
657.724	304.46
657.916	396.62
658.108	394.58
658.3	460.11
658.492	400.72
658.684	343.38
658.876	439.63
659.068	277.84
659.26	218.45
659.452	275.79
659.644	298.32
659.836	472.4
660.028	359.76
660.22	193.87
660.412	333.14
660.604	286.03
660.796	384.34
660.988	380.24
661.18	326.99
661.372	359.76
661.563	281.94
661.755	312.66
661.947	210.26
662.139	177.49
662.331	204.11
662.522	202.07
662.714	93.52
662.906	144.72
663.097	226.64
663.289	152.91
663.481	183.63
663.673	212.31
663.864	161.11
664.056	253.27
664.247	183.63
664.439	326.99
664.631	294.22
664.822	279.89
665.014	247.12
665.205	79.19
665.397	116.05
665.588	150.87
665.78	214.35
665.971	277.84
666.163	163.15
666.354	247.12
666.546	202.07
666.737	179.54
666.929	206.16
667.12	144.72
667.311	253.27
667.503	238.93
667.694	210.26
667.885	222.55
668.077	200.02
668.268	52.56
668.459	142.68
668.651	206.16
668.842	294.22
669.033	101.72
669.224	259.41
669.416	331.09
669.607	228.69
669.798	220.5
669.989	376.14
670.18	107.86
670.371	269.65
670.563	142.68
670.754	236.88
670.945	232.79
671.136	243.03
671.327	130.39
671.518	214.35
671.709	347.47
671.9	234.83
672.091	318.8
672.282	159.06
672.473	161.11
672.664	202.07
672.855	181.59
673.046	232.79
673.237	298.32
673.428	220.5
673.619	214.35
673.809	247.12
674	318.8
674.191	298.32
674.382	238.93
674.573	271.7
674.764	281.94
674.954	249.17
675.145	169.3
675.336	277.84
675.527	177.49
675.717	218.45
675.908	218.45
676.099	263.51
676.289	292.18
676.48	132.44
676.671	265.55
676.861	240.98
677.052	220.5
677.243	222.55
677.433	230.74
677.624	300.37
677.814	265.55
678.005	232.79
678.195	365.9
678.386	202.07
678.576	288.08
678.767	175.44
678.957	230.74
679.148	304.46
679.338	388.43
679.529	308.56
679.719	312.66
679.909	349.52
680.1	353.62
680.29	398.67
680.481	267.6
680.671	345.42
680.861	408.91
681.052	370
681.242	300.37
681.432	410.96
681.622	437.58
681.813	253.27
682.003	349.52
682.193	302.42
682.383	345.42
682.573	318.8
682.764	322.9
682.954	318.8
683.144	435.53
683.334	337.23
683.524	396.62
683.714	419.15
683.904	370
684.094	367.95
684.284	367.95
684.474	433.49
684.664	382.29
684.854	458.06
685.044	372.05
685.234	359.76
685.424	370
685.614	339.28
685.804	462.16
685.994	378.19
686.184	300.37
686.374	372.05
686.564	343.38
686.753	343.38
686.943	290.13
687.133	453.97
687.323	343.38
687.513	441.68
687.702	333.14
687.892	359.76
688.082	474.45
688.272	382.29
688.461	351.57
688.651	509.26
688.841	423.25
689.03	367.95
689.22	370
689.41	341.33
689.599	437.58
689.789	263.51
689.979	517.45
690.168	314.7
690.358	460.11
690.547	398.67
690.737	392.53
690.926	390.48
691.116	372.05
691.305	400.72
691.495	453.97
691.684	359.76
691.874	347.47
692.063	331.09
692.252	415.05
692.442	539.98
692.631	275.79
692.82	249.17
693.01	370
693.199	339.28
693.388	384.34
693.578	384.34
693.767	482.64
693.956	400.72
694.146	337.23
694.335	404.82
694.524	253.27
694.713	445.77
694.902	365.9
695.092	386.38
695.281	339.28
695.47	296.27
695.659	290.13
695.848	273.75
696.037	257.36
696.226	419.15
696.415	298.32
696.604	410.96
696.793	398.67
696.982	263.51
697.171	425.29
697.36	353.62
697.549	355.66
697.738	154.96
697.927	249.17
698.116	296.27
698.305	370
698.494	415.05
698.683	359.76
698.872	496.97
699.061	286.03
699.25	304.46
699.438	335.18
699.627	302.42
699.816	431.44
700.005	314.7
700.193	322.9
700.382	449.87
700.571	380.24
700.76	423.25
700.948	370
701.137	351.57
701.326	423.25
701.514	316.75
701.703	382.29
701.892	386.38
702.08	613.71
702.269	324.94
702.457	255.31
702.646	316.75
702.834	316.75
703.023	410.96
703.212	331.09
703.4	324.94
703.589	286.03
703.777	294.22
703.965	253.27
704.154	318.8
704.342	329.04
704.531	283.99
704.719	331.09
704.907	410.96
705.096	281.94
705.284	222.55
705.472	474.45
705.661	329.04
705.849	308.56
706.037	431.44
706.226	286.03
706.414	380.24
706.602	269.65
706.79	279.89
706.979	267.6
707.167	273.75
707.355	144.72
707.543	351.57
707.731	404.82
707.919	267.6
708.107	308.56
708.296	345.42
708.484	337.23
708.672	390.48
708.86	308.56
709.048	378.19
709.236	290.13
709.424	378.19
709.612	398.67
709.8	173.39
709.988	218.45
710.176	363.86
710.364	417.1
710.551	406.86
710.739	355.66
710.927	333.14
711.115	365.9
711.303	402.77
711.491	429.39
711.679	333.14
711.866	408.91
712.054	406.86
712.242	376.14
712.43	425.29
712.617	306.51
712.805	339.28
712.993	329.04
713.181	275.79
713.368	353.62
713.556	384.34
713.744	345.42
713.931	527.69
714.119	367.95
714.306	355.66
714.494	286.03
714.682	349.52
714.869	265.55
715.057	343.38
715.244	255.31
715.432	370
715.619	245.07
715.807	447.82
715.994	341.33
716.182	404.82
716.369	478.54
716.556	376.14
716.744	263.51
716.931	265.55
717.119	427.34
717.306	363.86
717.493	402.77
717.681	277.84
717.868	296.27
718.055	406.86
718.242	312.66
718.43	474.45
718.617	425.29
718.804	388.43
718.991	505.17
719.179	329.04
719.366	413.01
719.553	417.1
719.74	312.66
719.927	398.67
720.114	449.87
720.301	279.89
720.488	314.7
720.676	243.03
720.863	402.77
721.05	378.19
721.237	374.1
721.424	425.29
721.611	386.38
721.798	220.5
721.985	392.53
722.172	365.9
722.358	386.38
722.545	349.52
722.732	476.49
722.919	476.49
723.106	351.57
723.293	408.91
723.48	345.42
723.667	367.95
723.853	470.35
724.04	429.39
724.227	437.58
724.414	333.14
724.6	474.45
724.787	587.08
724.974	546.12
725.161	361.81
725.347	310.61
725.534	437.58
725.72	462.16
725.907	404.82
726.094	525.65
726.28	361.81
726.467	306.51
726.653	304.46
726.84	462.16
727.027	519.5
727.213	384.34
727.4	480.59
727.586	451.92
727.773	365.9
727.959	423.25
728.145	386.38
728.332	431.44
728.518	396.62
728.705	390.48
728.891	427.34
729.077	472.4
729.264	347.47
729.45	417.1
729.636	513.36
729.823	413.01
730.009	521.55
730.195	488.78
730.382	521.55
730.568	361.81
730.754	511.31
730.94	314.7
731.126	433.49
731.313	519.5
731.499	343.38
731.685	441.68
731.871	441.68
732.057	427.34
732.243	513.36
732.429	451.92
732.615	572.75
732.801	474.45
732.987	458.06
733.173	417.1
733.359	413.01
733.545	482.64
733.731	490.83
733.917	554.32
734.103	447.82
734.289	488.78
734.475	447.82
734.661	580.94
734.847	453.97
735.033	443.73
735.219	480.59
735.404	427.34
735.59	392.53
735.776	425.29
735.962	470.35
736.148	447.82
736.333	562.51
736.519	574.8
736.705	423.25
736.89	484.69
737.076	464.21
737.262	443.73
737.447	341.33
737.633	464.21
737.819	539.98
738.004	484.69
738.19	496.97
738.375	517.45
738.561	482.64
738.747	521.55
738.932	384.34
739.118	646.48
739.303	435.53
739.489	458.06
739.674	533.84
739.859	370
740.045	453.97
740.23	453.97
740.416	382.29
740.601	542.03
740.786	447.82
740.972	406.86
741.157	470.35
741.342	474.45
741.528	398.67
741.713	511.31
741.898	443.73
742.084	451.92
742.269	429.39
742.454	517.45
742.639	548.17
742.824	425.29
743.01	544.08
743.195	617.8
743.38	435.53
743.565	501.07
743.75	492.88
743.935	372.05
744.12	546.12
744.305	372.05
744.49	447.82
744.675	453.97
744.86	408.91
745.045	490.83
745.23	402.77
745.415	374.1
745.6	509.26
745.785	374.1
745.97	415.05
746.155	451.92
746.34	468.3
746.525	499.02
746.71	570.7
746.895	351.57
747.079	351.57
747.264	290.13
747.449	599.37
747.634	490.83
747.819	441.68
748.003	357.71
748.188	365.9
748.373	509.26
748.557	353.62
748.742	490.83
748.927	410.96
749.111	378.19
749.296	398.67
749.481	453.97
749.665	378.19
749.85	388.43
750.034	439.63
750.219	476.49
750.404	318.8
750.588	425.29
750.773	331.09
750.957	363.86
751.141	316.75
751.326	421.2
751.51	249.17
751.695	339.28
751.879	394.58
752.064	433.49
752.248	388.43
752.432	394.58
752.617	445.77
752.801	419.15
752.985	388.43
753.17	398.67
753.354	376.14
753.538	335.18
753.722	261.46
753.907	310.61
754.091	200.02
754.275	419.15
754.459	169.3
754.643	224.59
754.828	482.64
755.012	331.09
755.196	257.36
755.38	359.76
755.564	236.88
755.748	273.75
755.932	308.56
756.116	326.99
756.3	314.7
756.484	245.07
756.668	333.14
756.852	189.78
757.036	331.09
757.22	271.7
757.404	224.59
757.588	220.5
757.772	292.18
757.956	247.12
758.14	408.91
758.323	255.31
758.507	306.51
758.691	318.8
758.875	279.89
759.059	421.2
759.242	206.16
759.426	251.22
759.61	234.83
759.794	167.25
759.977	353.62
760.161	505.17
760.345	402.77
760.528	265.55
760.712	349.52
760.895	259.41
761.079	263.51
761.263	204.11
761.446	126.29
761.63	210.26
761.813	337.23
761.997	183.63
762.18	136.53
762.364	238.93
762.547	144.72
762.731	247.12
762.914	283.99
763.098	185.68
763.281	314.7
763.464	214.35
763.648	324.94
763.831	267.6
764.015	216.4
764.198	230.74
764.381	177.49
764.564	187.73
764.748	197.97
764.931	234.83
765.114	144.72
765.297	283.99
765.481	99.67
765.664	132.44
765.847	169.3
766.03	277.84
766.213	157.01
766.397	193.87
766.58	116.05
766.763	302.42
766.946	193.87
767.129	204.11
767.312	167.25
767.495	187.73
767.678	91.48
767.861	111.96
768.044	249.17
768.227	189.78
768.41	116.05
768.593	200.02
768.776	152.91
768.959	132.44
769.142	320.85
769.324	132.44
769.507	177.49
769.69	146.77
769.873	138.58
770.056	365.9
770.239	200.02
770.421	243.03
770.604	181.59
770.787	120.15
770.97	171.35
771.152	157.01
771.335	236.88
771.518	154.96
771.7	212.31
771.883	261.46
772.066	140.63
772.248	245.07
772.431	275.79
772.613	148.82
772.796	132.44
772.978	234.83
773.161	191.83
773.343	97.62
773.526	48.47
773.708	48.47
773.891	79.19
774.073	118.1
774.256	116.05
774.438	218.45
774.621	138.58
774.803	118.1
774.985	111.96
775.168	206.16
775.35	105.81
775.532	83.28
775.715	122.2
775.897	245.07
776.079	126.29
776.261	136.53
776.444	62.8
776.626	181.59
776.808	126.29
776.99	-10.92
777.173	128.34
777.355	128.34
777.537	66.9
777.719	116.05
777.901	56.66
778.083	99.67
778.265	79.19
778.447	222.55
778.629	42.32
778.811	126.29
778.993	169.3
779.175	169.3
779.357	93.52
779.539	-2.73
779.721	77.14
779.903	81.24
780.085	111.96
780.267	173.39
780.449	150.87
780.631	118.1
780.812	210.26
780.994	52.56
781.176	58.71
781.358	68.95
781.54	23.89
781.721	136.53
781.903	204.11
782.085	58.71
782.267	202.07
782.448	-43.69
782.63	19.8
782.812	154.96
782.993	54.61
783.175	56.66
783.357	48.47
783.538	50.52
783.72	-6.83
783.901	144.72
784.083	99.67
784.264	118.1
784.446	-62.12
784.627	32.08
784.809	132.44
784.99	81.24
785.172	144.72
785.353	-23.21
785.535	77.14
785.716	46.42
785.897	9.56
786.079	42.32
786.26	138.58
786.441	75.09
786.623	-78.51
786.804	5.46
786.985	79.19
787.167	54.61
787.348	52.56
787.529	62.8
787.71	167.25
787.891	91.48
788.073	99.67
788.254	-51.88
788.435	140.63
788.616	132.44
788.797	-2.73
788.978	136.53
789.159	52.56
789.34	128.34
789.522	40.28
789.703	7.51
789.884	103.76
790.065	23.89
790.246	243.03
790.427	25.94
790.607	120.15
790.788	111.96
790.969	1.37
791.15	136.53
791.331	66.9
791.512	7.51
791.693	15.7
791.874	34.13
792.054	210.26
792.235	165.2
792.416	-6.83
792.597	-10.92
792.778	185.68
792.958	58.71
793.139	81.24
793.32	56.66
793.5	-43.69
793.681	120.15
793.862	134.48
794.042	101.72
794.223	-39.59
794.404	-15.02
794.584	5.46
794.765	-66.22
794.945	34.13
795.126	103.76
795.306	85.33
795.487	23.89
795.667	48.47
795.848	40.28
796.028	93.52
796.209	62.8
796.389	161.11
796.57	25.94
796.75	1.37
796.93	3.41
797.111	30.04
797.291	56.66
797.471	105.81
797.652	60.76
797.832	-21.16
798.012	85.33
798.192	-29.35
798.373	-62.12
798.553	-10.92
798.733	68.95
798.913	-10.92
799.093	-62.12
799.274	83.28
799.454	167.25
799.634	116.05
799.814	89.43
799.994	48.47
800.174	148.82
800.354	15.7
800.534	25.94
800.714	163.15
800.894	-31.4
801.074	-19.11
801.254	-58.03
801.434	163.15
801.614	-41.64
801.794	-88.75
801.974	1748.28
802.154	5.46
802.334	32.08
802.514	-84.65
802.693	60.76
802.873	-80.55
803.053	152.91
803.233	138.58
803.413	42.32
803.592	9.56
803.772	-12.97
803.952	-19.11
804.131	-0.68
804.311	-10.92
804.491	101.72
804.67	7.51
804.85	-2.73
805.03	109.91
805.209	122.2
805.389	-23.21
805.568	9.56
805.748	-8.87
805.928	19.8
806.107	79.19
806.287	-2.73
806.466	56.66
806.646	19.8
806.825	46.42
807.004	40.28
807.184	40.28
807.363	64.85
807.543	52.56
807.722	1.37
807.901	105.81
808.081	97.62
808.26	-78.51
808.439	27.99
808.619	25.94
808.798	-101.03
808.977	42.32
809.156	111.96
809.336	58.71
809.515	134.48
809.694	-41.64
809.873	-51.88
810.052	-6.83
810.231	200.02
810.411	-2.73
810.59	66.9
810.769	-4.78
810.948	120.15
811.127	-41.64
811.306	-2.73
811.485	-68.27
811.664	116.05
811.843	46.42
812.022	-29.35
812.201	-17.07
812.38	25.94
812.559	-101.03
812.737	54.61
812.916	-12.97
813.095	-17.07
813.274	19.8
813.453	60.76
813.632	77.14
813.811	60.76
813.989	-70.31
814.168	7.51
814.347	-94.89
814.526	-2.73
814.704	95.57
814.883	75.09
815.062	-37.55
815.24	118.1
815.419	-39.59
815.598	54.61
815.776	-64.17
815.955	7.51
816.133	-84.65
816.312	-51.88
816.49	-27.31
816.669	46.42
816.847	-33.45
817.026	13.65
817.204	77.14
817.383	32.08
817.561	-47.79
817.74	23.89
817.918	44.37
818.097	5.46
818.275	-55.98
818.453	118.1
818.632	169.3
818.81	-2.73
818.988	71
819.167	-0.68
819.345	-27.31
819.523	11.61
819.701	15.7
819.879	60.76
820.058	36.18
820.236	46.42
820.414	-45.74
820.592	30.04
820.77	-23.21
820.948	-41.64
821.127	-12.97
821.305	1.37
821.483	-55.98
821.661	116.05
821.839	56.66
822.017	-12.97
822.195	-8.87
822.373	101.72
822.551	-29.35
822.729	52.56
822.907	-41.64
823.085	68.95
823.262	42.32
823.44	-27.31
823.618	-0.68
823.796	11.61
823.974	-64.17
824.152	-27.31
824.329	25.94
824.507	54.61
824.685	15.7
824.863	-43.69
825.04	-4.78
825.218	42.32
825.396	15.7
825.574	66.9
825.751	107.86
825.929	66.9
826.107	-121.51
826.284	68.95
826.462	11.61
826.639	62.8
826.817	-90.79
826.994	19.8
827.172	-158.38
827.349	30.04
827.527	-25.26
827.704	75.09
827.882	60.76
828.059	44.37
828.237	19.8
828.414	62.8
828.591	-101.03
828.769	54.61
828.946	-0.68
829.124	71
829.301	107.86
829.478	-23.21
829.655	11.61
829.833	3.41
830.01	-160.42
830.187	7.51
830.364	66.9
830.542	-55.98
830.719	195.92
830.896	-21.16
831.073	25.94
831.25	34.13
831.427	40.28
831.604	9.56
831.782	-60.07
831.959	52.56
832.136	27.99
832.313	17.75
832.49	-8.87
832.667	71
832.844	-72.36
833.021	97.62
833.198	-6.83
833.374	25.94
833.551	-10.92
833.728	-27.31
833.905	103.76
834.082	-150.18
834.259	44.37
834.436	107.86
834.612	-2.73
834.789	105.81
834.966	-8.87
835.143	17.75
835.319	-78.51
835.496	23.89
835.673	109.91
835.85	73.04
836.026	101.72
836.203	75.09
836.38	-45.74
836.556	-6.83
836.733	-33.45
836.909	75.09
837.086	38.23
837.262	-94.89
837.439	-41.64
837.616	-2.73
837.792	5.46
837.968	40.28
838.145	-68.27
838.321	-31.4
838.498	34.13
838.674	23.89
838.851	-25.26
839.027	27.99
839.203	9.56
839.38	50.52
839.556	-8.87
839.732	140.63
839.909	34.13
840.085	50.52
840.261	-49.83
840.437	-15.02
840.614	-10.92
840.79	101.72
840.966	-43.69
841.142	27.99
841.318	-31.4
841.494	9.56
841.671	21.85
841.847	-19.11
842.023	-41.64
842.199	-62.12
842.375	95.57
842.551	-109.22
842.727	-19.11
842.903	126.29
843.079	-58.03
843.255	81.24
843.431	19.8
843.607	-8.87
843.783	-121.51
843.959	42.32
844.134	-90.79
844.31	62.8
844.486	-94.89
844.662	-96.94
844.838	-139.94
845.013	50.52
845.189	81.24
845.365	-68.27
845.541	11.61
845.716	25.94
845.892	62.8
846.068	-33.45
846.244	38.23
846.419	91.48
846.595	-23.21
846.77	-12.97
846.946	93.52
847.122	-21.16
847.297	1.37
847.473	124.24
847.648	-123.56
847.824	-17.07
847.999	-111.27
848.175	-6.83
848.35	11.61
848.526	134.48
848.701	75.09
848.876	52.56
849.052	75.09
849.227	-49.83
849.403	-47.79
849.578	-4.78
849.753	-12.97
849.929	36.18
850.104	-105.13
850.279	-41.64
850.454	44.37
850.63	68.95
850.805	-4.78
850.98	23.89
851.155	-12.97
851.33	11.61
851.505	-109.22
851.681	75.09
851.856	-60.07
852.031	68.95
852.206	27.99
852.381	-103.08
852.556	-76.46
852.731	128.34
852.906	116.05
853.081	54.61
853.256	107.86
853.431	5.46
853.606	-17.07
853.781	-10.92
853.956	-146.09
854.131	19.8
854.305	-4.78
854.48	-33.45
854.655	-76.46
854.83	48.47
855.005	-92.84
855.18	54.61
855.354	25.94
855.529	15.7
855.704	38.23
855.879	-23.21
856.053	-55.98
856.228	32.08
856.403	-53.93
856.577	38.23
856.752	-72.36
856.926	103.76
857.101	32.08
857.276	-80.55
857.45	-23.21
857.625	25.94
857.799	-64.17
857.974	-2.73
858.148	-131.75
858.323	-45.74
858.497	30.04
858.672	-25.26
858.846	-101.03
859.02	34.13
859.195	-96.94
859.369	-45.74
859.543	-10.92
859.718	-47.79
859.892	-15.02
860.066	64.85
860.241	-82.6
860.415	-74.41
860.589	-66.22
860.763	13.65
860.938	-23.21
861.112	54.61
861.286	-4.78
861.46	9.56
861.634	-35.5
861.808	87.38
861.982	1.37
862.157	-74.41
862.331	-84.65
862.505	-88.75
862.679	-21.16
862.853	-51.88
863.027	1.37
863.201	165.2
863.375	-21.16
863.549	60.76
863.722	68.95
863.896	95.57
864.07	-58.03
864.244	34.13
864.418	60.76
864.592	42.32
864.766	-25.26
864.939	-19.11
865.113	23.89
865.287	230.74
865.461	-84.65
865.634	-25.26
865.808	46.42
865.982	-66.22
866.156	-0.68
866.329	-37.55
866.503	77.14
866.676	15.7
866.85	7.51
867.024	-86.7
867.197	34.13
867.371	5.46
867.544	62.8
867.718	-137.9
867.891	-10.92
868.065	-115.37
868.238	-12.97
868.412	124.24
868.585	13.65
868.759	-60.07
868.932	-39.59
869.105	-96.94
869.279	-39.59
869.452	-84.65
869.625	27.99
869.799	-55.98
869.972	-29.35
870.145	-33.45
870.319	71
870.492	-107.18
870.665	-0.68
870.838	-6.83
871.011	-158.38
871.185	-35.5
871.358	-45.74
871.531	64.85
871.704	-72.36
871.877	-25.26
872.05	-64.17
872.223	13.65
872.396	52.56
872.569	7.51
872.742	-88.75
872.915	-19.11
873.088	-55.98
873.261	-41.64
873.434	7.51
873.607	9.56
873.78	105.81
873.953	-82.6
874.126	5.46
874.299	5.46
874.471	-25.26
874.644	-25.26
874.817	79.19
874.99	99.67
875.163	9.56
875.335	32.08
875.508	-72.36
875.681	81.24
875.853	-41.64
876.026	-64.17
876.199	148.82
876.371	-29.35
876.544	-27.31
876.717	-64.17
876.889	-21.16
877.062	79.19
877.234	-80.55
877.407	-76.46
877.579	-41.64
877.752	107.86
877.924	89.43
878.097	-0.68
878.269	-29.35
878.442	44.37
878.614	114
878.786	40.28
878.959	-19.11
879.131	25.94
879.303	-88.75
879.476	5.46
879.648	66.9
879.82	-25.26
879.993	-58.03
880.165	-35.5
880.337	-101.03
880.509	40.28
880.681	-109.22
880.854	-55.98
881.026	52.56
881.198	173.39
881.37	-37.55
881.542	-21.16
881.714	-43.69
881.886	-33.45
882.058	-82.6
882.23	7.51
882.402	19.8
882.574	-8.87
882.746	-25.26
882.918	73.04
883.09	42.32
883.262	42.32
883.434	27.99
883.606	-39.59
883.778	-23.21
883.95	91.48
884.122	-103.08
884.293	50.52
884.465	-0.68
884.637	64.85
884.809	-27.31
884.98	15.7
885.152	23.89
885.324	15.7
885.496	-6.83
885.667	-76.46
885.839	-12.97
886.011	97.62
886.182	42.32
886.354	36.18
886.525	83.28
886.697	25.94
886.869	-141.99
887.04	-51.88
887.212	130.39
887.383	97.62
887.555	-15.02
887.726	-19.11
887.897	-84.65
888.069	-37.55
888.24	-41.64
888.412	-74.41
888.583	-51.88
888.754	3.41
888.926	-101.03
889.097	-4.78
889.268	-162.47
889.44	-60.07
889.611	-129.7
889.782	-129.7
889.953	-62.12
890.125	93.52
890.296	-125.61
890.467	11.61
890.638	-33.45
890.809	-60.07
890.98	-17.07
891.151	25.94
891.323	111.96
891.494	25.94
891.665	23.89
891.836	-41.64
892.007	27.99
892.178	42.32
892.349	9.56
892.52	-19.11
892.691	-27.31
892.862	-51.88
893.032	-119.46
893.203	-55.98
893.374	-2.73
893.545	32.08
893.716	42.32
893.887	5.46
894.057	-39.59
894.228	-15.02
894.399	-80.55
894.57	89.43
894.74	-41.64
894.911	79.19
895.082	-49.83
895.253	-55.98
895.423	58.71
895.594	-19.11
895.764	40.28
895.935	-17.07
896.106	87.38
896.276	-76.46
896.447	-2.73
896.617	-43.69
896.788	-107.18
896.958	-113.32
897.129	-84.65
897.299	-21.16
897.47	77.14
897.64	25.94
897.81	-35.5
897.981	5.46
898.151	-31.4
898.322	48.47
898.492	50.52
898.662	-33.45
898.832	3.41
899.003	-41.64
899.173	77.14
899.343	-49.83
899.513	-55.98
