Data from USB4F104151__49__11-26-50-391.txt Node

Date: Wed Feb 26 11:26:50 EST 2025
User: louis
Spectrometer: USB4F10415
Trigger mode: 4
Integration Time (sec): 1.000000E-1
Scans to average: 1
Electric dark correction enabled: true
Nonlinearity correction enabled: false
Boxcar width: 0
XAxis mode: Wavelengths
Number of Pixels in Spectrum: 3648
>>>>>Begin Spectral Data<<<<<
178.204	-349.52
178.424	-349.52
178.644	-349.52
178.864	-410.96
179.084	-361.81
179.304	-7.51
179.524	17.07
179.744	37.55
179.964	58.03
180.184	-15.7
180.404	15.02
180.624	8.87
180.844	-73.04
181.064	-71
181.283	35.5
181.503	-25.94
181.723	21.16
181.943	-77.14
182.163	154.28
182.383	0.68
182.602	133.8
182.822	150.18
183.042	111.27
183.262	-13.65
183.482	19.11
183.701	23.21
183.921	72.36
184.141	-66.9
184.361	72.36
184.58	21.16
184.8	68.27
185.02	45.74
185.239	66.22
185.459	111.27
185.679	172.71
185.898	-46.42
186.118	129.7
186.338	-11.61
186.557	80.55
186.777	-109.91
186.997	70.31
187.216	92.84
187.436	107.18
187.655	68.27
187.875	92.84
188.095	-3.41
188.314	162.47
188.534	146.09
188.753	10.92
188.973	135.85
189.192	107.18
189.412	29.35
189.631	74.41
189.851	53.93
190.07	88.75
190.29	-13.65
190.509	-30.04
190.729	31.4
190.948	172.71
191.168	256.68
191.387	105.13
191.607	37.55
191.826	131.75
192.045	-21.85
192.265	68.27
192.484	141.99
192.704	146.09
192.923	-66.9
193.142	170.66
193.362	137.9
193.581	107.18
193.8	129.7
194.02	146.09
194.239	127.66
194.458	88.75
194.678	8.87
194.897	-27.99
195.116	51.88
195.335	10.92
195.555	37.55
195.774	23.21
195.993	107.18
196.212	66.22
196.432	39.59
196.651	27.31
196.87	33.45
197.089	311.97
197.308	-23.89
197.528	45.74
197.747	-21.85
197.966	82.6
198.185	193.19
198.404	19.11
198.623	117.42
198.842	90.79
199.062	178.86
199.281	133.8
199.5	12.97
199.719	31.4
199.938	21.16
200.157	64.17
200.376	127.66
200.595	125.61
200.814	84.65
201.033	35.5
201.252	141.99
201.471	121.51
201.69	74.41
201.909	70.31
202.128	109.22
202.347	70.31
202.566	-1.37
202.785	-146.77
203.004	2.73
203.223	230.06
203.442	101.03
203.661	6.83
203.879	135.85
204.098	92.84
204.317	41.64
204.536	133.8
204.755	90.79
204.974	60.07
205.193	23.21
205.411	125.61
205.63	121.51
205.849	101.03
206.068	12.97
206.287	-79.19
206.505	105.13
206.724	-32.08
206.943	-7.51
207.162	10.92
207.381	86.7
207.599	-46.42
207.818	94.89
208.037	19.11
208.255	51.88
208.474	92.84
208.693	86.7
208.911	29.35
209.13	125.61
209.349	139.94
209.567	101.03
209.786	117.42
210.005	68.27
210.223	45.74
210.442	-73.04
210.661	17.07
210.879	84.65
211.098	60.07
211.316	23.21
211.535	113.32
211.753	62.12
211.972	33.45
212.191	15.02
212.409	41.64
212.628	103.08
212.846	-36.18
213.065	74.41
213.283	176.81
213.502	37.55
213.72	68.27
213.938	35.5
214.157	-1.37
214.375	68.27
214.594	60.07
214.812	92.84
215.031	21.16
215.249	2.73
215.467	90.79
215.686	74.41
215.904	60.07
216.122	131.75
216.341	180.9
216.559	74.41
216.778	152.23
216.996	152.23
217.214	17.07
217.432	-11.61
217.651	45.74
217.869	90.79
218.087	51.88
218.306	45.74
218.524	43.69
218.742	137.9
218.96	101.03
219.179	29.35
219.397	62.12
219.615	311.97
219.833	78.51
220.051	23.21
220.27	80.55
220.488	115.37
220.706	76.46
220.924	-77.14
221.142	15.02
221.36	76.46
221.578	35.5
221.796	47.79
222.015	66.22
222.233	39.59
222.451	172.71
222.669	-17.75
222.887	109.22
223.105	17.07
223.323	6.83
223.541	31.4
223.759	137.9
223.977	115.37
224.195	105.13
224.413	78.51
224.631	-11.61
224.849	92.84
225.067	246.44
225.285	31.4
225.503	64.17
225.721	-79.19
225.939	70.31
226.157	82.6
226.375	260.77
226.592	96.94
226.81	-27.99
227.028	123.56
227.246	92.84
227.464	135.85
227.682	82.6
227.9	115.37
228.117	109.22
228.335	53.93
228.553	53.93
228.771	74.41
228.989	35.5
229.206	49.83
229.424	55.98
229.642	-9.56
229.86	-42.32
230.077	197.29
230.295	109.22
230.513	51.88
230.731	64.17
230.948	258.73
231.166	139.94
231.384	60.07
231.601	-30.04
231.819	131.75
232.037	27.31
232.254	27.31
232.472	51.88
232.689	41.64
232.907	121.51
233.125	10.92
233.342	15.02
233.56	31.4
233.777	-30.04
233.995	-52.56
234.213	150.18
234.43	90.79
234.648	35.5
234.865	17.07
235.083	137.9
235.3	35.5
235.518	74.41
235.735	86.7
235.953	82.6
236.17	15.02
236.388	0.68
236.605	45.74
236.822	185
237.04	101.03
237.257	105.13
237.475	33.45
237.692	43.69
237.909	98.99
238.127	64.17
238.344	129.7
238.562	68.27
238.779	-23.89
238.996	-81.24
239.214	45.74
239.431	117.42
239.648	-27.99
239.865	51.88
240.083	78.51
240.3	-54.61
240.517	0.68
240.735	76.46
240.952	131.75
241.169	64.17
241.386	29.35
241.603	29.35
241.821	4.78
242.038	101.03
242.255	80.55
242.472	-48.47
242.689	115.37
242.907	121.51
243.124	21.16
243.341	10.92
243.558	0.68
243.775	-142.68
243.992	43.69
244.209	94.89
244.426	139.94
244.643	74.41
244.86	2.73
245.078	25.26
245.295	45.74
245.512	64.17
245.729	12.97
245.946	64.17
246.163	68.27
246.38	101.03
246.597	82.6
246.814	33.45
247.031	135.85
247.248	76.46
247.464	152.23
247.681	68.27
247.898	74.41
248.115	78.51
248.332	12.97
248.549	174.76
248.766	209.58
248.983	121.51
249.2	53.93
249.417	78.51
249.633	15.02
249.85	74.41
250.067	64.17
250.284	47.79
250.501	43.69
250.717	92.84
250.934	-38.23
251.151	43.69
251.368	45.74
251.585	-9.56
251.801	0.68
252.018	41.64
252.235	113.32
252.451	4.78
252.668	23.21
252.885	117.42
253.102	82.6
253.318	66.22
253.535	17.07
253.752	35.5
253.968	33.45
254.185	8.87
254.401	49.83
254.618	107.18
254.835	10.92
255.051	92.84
255.268	92.84
255.484	25.26
255.701	-7.51
255.917	64.17
256.134	4.78
256.351	33.45
256.567	17.07
256.784	45.74
257	-73.04
257.217	105.13
257.433	111.27
257.65	105.13
257.866	121.51
258.082	0.68
258.299	-73.04
258.515	27.31
258.732	51.88
258.948	-50.52
259.165	70.31
259.381	-42.32
259.597	158.38
259.814	119.46
260.03	0.68
260.246	82.6
260.463	135.85
260.679	150.18
260.895	41.64
261.112	94.89
261.328	107.18
261.544	-30.04
261.761	201.38
261.977	6.83
262.193	-1.37
262.409	117.42
262.626	53.93
262.842	92.84
263.058	8.87
263.274	82.6
263.49	-1.37
263.707	47.79
263.923	129.7
264.139	-25.94
264.355	49.83
264.571	-9.56
264.787	80.55
265.004	64.17
265.22	117.42
265.436	2.73
265.652	-40.28
265.868	12.97
266.084	8.87
266.3	98.99
266.516	-46.42
266.732	123.56
266.948	96.94
267.164	86.7
267.38	94.89
267.596	105.13
267.812	141.99
268.028	43.69
268.244	62.12
268.46	4.78
268.676	-3.41
268.892	78.51
269.108	72.36
269.324	-60.76
269.54	-11.61
269.756	68.27
269.972	-15.7
270.188	-48.47
270.403	76.46
270.619	-7.51
270.835	76.46
271.051	35.5
271.267	39.59
271.483	25.26
271.698	53.93
271.914	98.99
272.13	84.65
272.346	64.17
272.562	37.55
272.777	84.65
272.993	60.07
273.209	23.21
273.425	90.79
273.64	-93.52
273.856	76.46
274.072	43.69
274.287	29.35
274.503	53.93
274.719	162.47
274.934	4.78
275.15	-46.42
275.366	-25.94
275.581	-40.28
275.797	-15.7
276.012	-19.8
276.228	29.35
276.444	-11.61
276.659	137.9
276.875	-56.66
277.09	-23.89
277.306	62.12
277.521	33.45
277.737	92.84
277.952	90.79
278.168	31.4
278.383	76.46
278.599	68.27
278.814	58.03
279.03	31.4
279.245	189.1
279.461	-11.61
279.676	111.27
279.892	-17.75
280.107	41.64
280.322	31.4
280.538	80.55
280.753	-11.61
280.969	29.35
281.184	103.08
281.399	158.38
281.615	78.51
281.83	55.98
282.045	-25.94
282.26	-17.75
282.476	17.07
282.691	55.98
282.906	115.37
283.122	80.55
283.337	4.78
283.552	84.65
283.767	-3.41
283.983	98.99
284.198	47.79
284.413	113.32
284.628	-23.89
284.843	39.59
285.058	170.66
285.274	10.92
285.489	25.26
285.704	119.46
285.919	2.73
286.134	35.5
286.349	51.88
286.564	64.17
286.779	88.75
286.995	-40.28
287.21	6.83
287.425	107.18
287.64	37.55
287.855	39.59
288.07	-21.85
288.285	139.94
288.5	217.77
288.715	80.55
288.93	35.5
289.145	10.92
289.36	123.56
289.575	35.5
289.79	96.94
290.004	43.69
290.219	193.19
290.434	4.78
290.649	8.87
290.864	12.97
291.079	17.07
291.294	12.97
291.509	193.19
291.724	74.41
291.938	23.21
292.153	51.88
292.368	-7.51
292.583	66.22
292.798	74.41
293.012	72.36
293.227	39.59
293.442	49.83
293.657	80.55
293.871	131.75
294.086	84.65
294.301	154.28
294.516	107.18
294.73	47.79
294.945	-58.71
295.16	17.07
295.374	154.28
295.589	82.6
295.804	58.03
296.018	121.51
296.233	195.24
296.447	25.26
296.662	-89.43
296.877	49.83
297.091	125.61
297.306	82.6
297.52	-9.56
297.735	123.56
297.949	55.98
298.164	55.98
298.378	47.79
298.593	-23.89
298.807	37.55
299.022	27.31
299.236	187.05
299.451	76.46
299.665	10.92
299.88	37.55
300.094	64.17
300.309	31.4
300.523	-11.61
300.737	-15.7
300.952	88.75
301.166	103.08
301.381	47.79
301.595	8.87
301.809	-17.75
302.024	41.64
302.238	19.11
302.452	76.46
302.667	2.73
302.881	172.71
303.095	103.08
303.309	94.89
303.524	96.94
303.738	86.7
303.952	23.21
304.166	51.88
304.381	-111.96
304.595	197.29
304.809	4.78
305.023	39.59
305.237	23.21
305.452	41.64
305.666	111.27
305.88	117.42
306.094	98.99
306.308	53.93
306.522	55.98
306.736	43.69
306.95	123.56
307.164	-3.41
307.379	-25.94
307.593	189.1
307.807	129.7
308.021	105.13
308.235	109.22
308.449	-77.14
308.663	51.88
308.877	174.76
309.091	62.12
309.305	80.55
309.519	-93.52
309.733	113.32
309.947	-42.32
310.161	45.74
310.374	111.27
310.588	117.42
310.802	0.68
311.016	35.5
311.23	98.99
311.444	-21.85
311.658	76.46
311.872	133.8
312.085	109.22
312.299	107.18
312.513	154.28
312.727	-19.8
312.941	-52.56
313.154	125.61
313.368	37.55
313.582	29.35
313.796	60.07
314.009	53.93
314.223	150.18
314.437	90.79
314.651	4.78
314.864	70.31
315.078	35.5
315.292	37.55
315.505	-9.56
315.719	113.32
315.933	76.46
316.146	-64.85
316.36	23.21
316.573	187.05
316.787	41.64
317.001	78.51
317.214	19.11
317.428	62.12
317.641	4.78
317.855	12.97
318.068	90.79
318.282	23.21
318.495	152.23
318.709	105.13
318.922	131.75
319.136	137.9
319.349	172.71
319.563	62.12
319.776	98.99
319.99	-66.9
320.203	103.08
320.417	60.07
320.63	133.8
320.843	232.1
321.057	64.17
321.27	17.07
321.483	72.36
321.697	148.14
321.91	72.36
322.124	8.87
322.337	62.12
322.55	-52.56
322.763	119.46
322.977	43.69
323.19	60.07
323.403	51.88
323.617	133.8
323.83	172.71
324.043	23.21
324.256	115.37
324.469	-27.99
324.683	207.53
324.896	-7.51
325.109	60.07
325.322	19.11
325.535	125.61
325.748	105.13
325.962	15.02
326.175	148.14
326.388	43.69
326.601	160.42
326.814	15.02
327.027	66.22
327.24	113.32
327.453	0.68
327.666	74.41
327.879	125.61
328.092	49.83
328.305	21.16
328.518	2.73
328.731	70.31
328.944	29.35
329.157	191.14
329.37	-9.56
329.583	193.19
329.796	174.76
330.009	-62.8
330.222	103.08
330.435	144.04
330.648	127.66
330.861	92.84
331.073	6.83
331.286	135.85
331.499	55.98
331.712	-54.61
331.925	76.46
332.138	-5.46
332.35	156.33
332.563	72.36
332.776	137.9
332.989	-34.13
333.202	82.6
333.414	96.94
333.627	117.42
333.84	-1.37
334.053	78.51
334.265	101.03
334.478	25.26
334.691	74.41
334.903	66.22
335.116	-50.52
335.329	-9.56
335.541	66.22
335.754	193.19
335.966	78.51
336.179	76.46
336.392	47.79
336.604	41.64
336.817	76.46
337.029	68.27
337.242	51.88
337.454	127.66
337.667	21.16
337.88	160.42
338.092	160.42
338.305	70.31
338.517	21.16
338.729	45.74
338.942	176.81
339.154	-15.7
339.367	-30.04
339.579	90.79
339.792	-11.61
340.004	113.32
340.217	72.36
340.429	94.89
340.641	33.45
340.854	-15.7
341.066	0.68
341.278	170.66
341.491	150.18
341.703	-7.51
341.915	-60.76
342.128	127.66
342.34	92.84
342.552	10.92
342.764	88.75
342.977	66.22
343.189	78.51
343.401	27.31
343.613	-75.09
343.826	121.51
344.038	29.35
344.25	98.99
344.462	-38.23
344.674	25.26
344.886	121.51
345.099	72.36
345.311	119.46
345.523	101.03
345.735	-25.94
345.947	107.18
346.159	101.03
346.371	43.69
346.583	27.31
346.795	152.23
347.007	15.02
347.219	88.75
347.431	55.98
347.643	150.18
347.855	62.12
348.067	119.46
348.279	-103.76
348.491	123.56
348.703	84.65
348.915	31.4
349.127	-1.37
349.339	53.93
349.551	60.07
349.763	139.94
349.975	98.99
350.187	137.9
350.399	193.19
350.61	96.94
350.822	37.55
351.034	74.41
351.246	80.55
351.458	94.89
351.669	80.55
351.881	164.52
352.093	82.6
352.305	58.03
352.517	60.07
352.728	117.42
352.94	51.88
353.152	96.94
353.363	-48.47
353.575	58.03
353.787	197.29
353.999	127.66
354.21	154.28
354.422	27.31
354.633	39.59
354.845	6.83
355.057	78.51
355.268	101.03
355.48	96.94
355.692	-83.28
355.903	86.7
356.115	17.07
356.326	-36.18
356.538	193.19
356.749	148.14
356.961	158.38
357.172	45.74
357.384	-17.75
357.595	176.81
357.807	49.83
358.018	70.31
358.23	88.75
358.441	139.94
358.653	74.41
358.864	62.12
359.075	-38.23
359.287	72.36
359.498	178.86
359.709	109.22
359.921	41.64
360.132	92.84
360.344	33.45
360.555	-1.37
360.766	19.11
360.977	21.16
361.189	141.99
361.4	45.74
361.611	115.37
361.823	113.32
362.034	82.6
362.245	-62.8
362.456	49.83
362.667	117.42
362.879	-40.28
363.09	21.16
363.301	117.42
363.512	78.51
363.723	12.97
363.935	-7.51
364.146	154.28
364.357	72.36
364.568	53.93
364.779	-40.28
364.99	125.61
365.201	-25.94
365.412	211.62
365.623	4.78
365.834	39.59
366.045	105.13
366.256	-36.18
366.467	135.85
366.678	-7.51
366.889	88.75
367.1	2.73
367.311	172.71
367.522	74.41
367.733	131.75
367.944	88.75
368.155	55.98
368.366	127.66
368.577	70.31
368.788	166.57
368.999	-36.18
369.209	105.13
369.42	223.91
369.631	137.9
369.842	125.61
370.053	31.4
370.264	148.14
370.474	-66.9
370.685	45.74
370.896	43.69
371.107	164.52
371.317	115.37
371.528	6.83
371.739	152.23
371.95	76.46
372.16	96.94
372.371	12.97
372.582	43.69
372.792	80.55
373.003	70.31
373.214	45.74
373.424	78.51
373.635	23.21
373.846	113.32
374.056	78.51
374.267	115.37
374.477	43.69
374.688	51.88
374.898	80.55
375.109	111.27
375.319	74.41
375.53	111.27
375.74	96.94
375.951	-21.85
376.161	23.21
376.372	98.99
376.582	19.11
376.793	111.27
377.003	60.07
377.214	25.26
377.424	139.94
377.635	-5.46
377.845	-60.76
378.055	168.62
378.266	47.79
378.476	55.98
378.686	64.17
378.897	53.93
379.107	92.84
379.317	121.51
379.528	-30.04
379.738	101.03
379.948	35.5
380.158	129.7
380.369	62.12
380.579	60.07
380.789	55.98
380.999	74.41
381.21	113.32
381.42	176.81
381.63	127.66
381.84	101.03
382.05	70.31
382.261	182.95
382.471	135.85
382.681	-3.41
382.891	219.82
383.101	68.27
383.311	29.35
383.521	17.07
383.731	131.75
383.941	162.47
384.151	43.69
384.361	82.6
384.571	66.22
384.781	133.8
384.991	146.09
385.201	133.8
385.411	101.03
385.621	107.18
385.831	-11.61
386.041	-5.46
386.251	55.98
386.461	84.65
386.671	133.8
386.881	117.42
387.091	70.31
387.301	101.03
387.511	-56.66
387.72	78.51
387.93	64.17
388.14	-89.43
388.35	39.59
388.56	133.8
388.769	131.75
388.979	135.85
389.189	6.83
389.399	31.4
389.609	72.36
389.818	109.22
390.028	84.65
390.238	111.27
390.447	37.55
390.657	31.4
390.867	60.07
391.076	6.83
391.286	113.32
391.496	49.83
391.705	55.98
391.915	199.34
392.125	133.8
392.334	-19.8
392.544	156.33
392.753	27.31
392.963	-15.7
393.172	33.45
393.382	23.21
393.591	238.25
393.801	70.31
394.01	137.9
394.22	94.89
394.429	33.45
394.639	62.12
394.848	41.64
395.058	45.74
395.267	12.97
395.477	131.75
395.686	35.5
395.895	228.01
396.105	217.77
396.314	76.46
396.524	35.5
396.733	23.21
396.942	164.52
397.152	66.22
397.361	178.86
397.57	45.74
397.78	-27.99
397.989	19.11
398.198	195.24
398.407	47.79
398.617	-7.51
398.826	64.17
399.035	66.22
399.244	170.66
399.453	70.31
399.663	70.31
399.872	37.55
400.081	-103.76
400.29	209.58
400.499	-25.94
400.708	105.13
400.917	90.79
401.127	12.97
401.336	-1.37
401.545	213.67
401.754	84.65
401.963	27.31
402.172	-17.75
402.381	17.07
402.59	82.6
402.799	90.79
403.008	117.42
403.217	58.03
403.426	148.14
403.635	39.59
403.844	6.83
404.053	21.16
404.262	23.21
404.471	193.19
404.68	105.13
404.888	55.98
405.097	43.69
405.306	60.07
405.515	141.99
405.724	10.92
405.933	74.41
406.142	72.36
406.35	92.84
406.559	-13.65
406.768	82.6
406.977	146.09
407.185	62.12
407.394	135.85
407.603	-50.52
407.812	82.6
408.02	135.85
408.229	150.18
408.438	70.31
408.646	-60.76
408.855	17.07
409.064	92.84
409.272	121.51
409.481	154.28
409.69	53.93
409.898	-7.51
410.107	94.89
410.315	84.65
410.524	29.35
410.733	70.31
410.941	31.4
411.15	117.42
411.358	82.6
411.567	113.32
411.775	172.71
411.984	80.55
412.192	88.75
412.401	2.73
412.609	150.18
412.818	144.04
413.026	88.75
413.234	78.51
413.443	103.08
413.651	-11.61
413.86	49.83
414.068	187.05
414.276	187.05
414.485	0.68
414.693	156.33
414.901	236.2
415.11	98.99
415.318	-3.41
415.526	-40.28
415.734	154.28
415.943	160.42
416.151	131.75
416.359	55.98
416.567	66.22
416.776	6.83
416.984	45.74
417.192	154.28
417.4	62.12
417.608	35.5
417.817	43.69
418.025	96.94
418.233	119.46
418.441	4.78
418.649	51.88
418.857	191.14
419.065	105.13
419.273	27.31
419.481	105.13
419.689	43.69
419.897	25.26
420.105	53.93
420.313	146.09
420.521	193.19
420.729	148.14
420.937	4.78
421.145	-1.37
421.353	72.36
421.561	185
421.769	10.92
421.977	33.45
422.185	66.22
422.393	43.69
422.601	121.51
422.809	109.22
423.017	0.68
423.224	174.76
423.432	123.56
423.64	43.69
423.848	84.65
424.056	-3.41
424.263	101.03
424.471	43.69
424.679	156.33
424.887	80.55
425.094	115.37
425.302	92.84
425.51	60.07
425.718	53.93
425.925	121.51
426.133	64.17
426.341	273.06
426.548	41.64
426.756	74.41
426.964	111.27
427.171	-1.37
427.379	84.65
427.586	17.07
427.794	176.81
428.001	105.13
428.209	117.42
428.417	172.71
428.624	109.22
428.832	209.58
429.039	127.66
429.247	84.65
429.454	174.76
429.662	215.72
429.869	123.56
430.076	123.56
430.284	117.42
430.491	162.47
430.699	158.38
430.906	174.76
431.114	49.83
431.321	84.65
431.528	66.22
431.736	92.84
431.943	141.99
432.15	225.96
432.358	148.14
432.565	258.73
432.772	-9.56
432.979	207.53
433.187	39.59
433.394	178.86
433.601	148.14
433.808	221.86
434.016	213.67
434.223	182.95
434.43	123.56
434.637	230.06
434.844	258.73
435.052	176.81
435.259	205.48
435.466	160.42
435.673	223.91
435.88	250.53
436.087	318.12
436.294	250.53
436.501	219.82
436.708	164.52
436.915	273.06
437.122	291.49
437.329	182.95
437.537	264.87
437.743	236.2
437.95	322.21
438.157	277.16
438.364	225.96
438.571	234.15
438.778	309.93
438.985	334.5
439.192	365.22
439.399	271.01
439.606	328.36
439.813	436.9
440.02	486.05
440.227	484
440.433	428.71
440.64	285.35
440.847	334.5
441.054	451.24
441.261	522.91
441.467	477.86
441.674	379.56
441.881	484
442.088	514.72
442.294	506.53
442.501	535.2
442.708	418.47
442.914	484
443.121	656.03
443.328	594.59
443.534	590.5
443.741	672.42
443.948	531.11
444.154	670.37
444.361	815.77
444.568	672.42
444.774	639.65
444.981	615.07
445.187	805.53
445.394	688.8
445.6	785.05
445.807	916.12
446.013	869.02
446.22	789.15
446.426	934.56
446.633	1002.14
446.839	1245.85
447.046	850.59
447.252	1094.3
447.459	1096.35
447.665	1098.39
447.871	1225.37
448.078	1251.99
448.284	1301.14
448.491	1348.25
448.697	1309.33
448.903	1362.58
449.11	1487.51
449.316	1598.1
449.522	1544.85
449.728	1622.67
449.935	1712.78
450.141	1784.46
450.347	1948.3
450.553	1763.98
450.76	1866.38
450.966	2017.93
451.172	2169.48
451.378	2024.08
451.584	2243.21
451.791	2370.18
451.997	2230.92
452.203	2347.65
452.409	2417.29
452.615	2677.38
452.821	2550.4
453.027	2630.27
453.233	2994.81
453.44	2794.11
453.646	2970.24
453.852	3111.55
454.058	3101.31
454.264	3332.73
454.47	3560.05
454.676	3467.89
454.882	3844.72
455.088	3574.39
455.294	3877.49
455.5	4176.49
455.705	4409.96
455.911	4305.51
456.117	4463.21
456.323	4631.14
456.529	4500.07
456.735	5081.69
456.941	5071.45
457.147	5343.83
457.352	5544.53
457.558	5620.31
457.764	6197.84
457.97	6072.91
458.176	6273.61
458.381	6679.11
458.587	6953.54
458.793	7203.39
458.999	7174.72
459.204	8022.58
459.41	8438.31
459.616	8084.02
459.821	8444.46
460.027	8921.63
460.233	9517.59
460.438	9619.99
460.644	9966.1
460.85	10088.98
461.055	10650.12
461.261	11057.67
461.466	11078.15
461.672	10912.26
461.878	12311.02
462.083	11926
462.289	12325.36
462.494	12927.46
462.7	13140.45
462.905	13212.13
463.111	14186.96
463.316	14967.24
463.522	15430.08
463.727	15690.17
463.932	16775.59
464.138	17162.66
464.343	17652.13
464.549	17572.25
464.754	19040.65
464.959	19618.18
465.165	19886.46
465.37	19730.81
465.575	19861.88
465.781	20859.24
465.986	21727.58
466.191	21211.49
466.397	21541.22
466.602	21172.58
466.807	22526.29
467.012	22688.08
467.218	22982.99
467.423	23370.05
467.628	23894.33
467.833	25088.3
468.038	24744.24
468.244	24095.03
468.449	25399.59
468.654	24965.42
468.859	24707.38
469.064	24842.54
469.269	24406.33
469.474	24496.44
469.679	25286.95
469.885	24303.93
470.09	25008.43
470.295	24895.79
470.5	24291.64
470.705	24545.59
470.91	23806.27
471.115	23818.56
471.32	24232.25
471.525	23996.73
471.73	23331.14
471.935	23243.08
472.139	22483.28
472.344	22397.27
472.549	22368.6
472.754	21725.54
472.959	21139.82
473.164	20349.3
473.369	20134.26
473.574	20957.55
473.778	20390.26
473.983	20255.09
474.188	19915.13
474.393	18817.42
474.598	18952.59
474.802	18031
475.007	17926.55
475.212	17797.53
475.417	17301.92
475.621	17050.02
475.826	16894.38
476.031	16433.58
476.235	16042.42
476.44	16099.76
476.645	15737.27
476.849	15745.47
477.054	15409.6
477.259	14895.56
477.463	15182.27
477.668	14512.59
477.872	14805.45
478.077	14025.17
478.282	13924.82
478.486	13816.28
478.691	13199.84
478.895	13103.59
479.1	13343.2
479.304	13208.03
479.509	12825.06
479.713	13042.15
479.918	12548.59
480.122	12366.32
480.326	12472.81
480.531	12431.85
480.735	12210.67
480.94	12020.21
481.144	12544.49
481.348	11823.61
481.553	11782.65
481.757	11500.03
481.961	11526.65
482.166	11674.1
482.37	11663.86
482.574	11321.85
482.778	11186.69
482.983	11436.54
483.187	11207.17
483.391	11235.84
483.595	10940.93
483.8	10519.05
484.004	10822.15
484.208	10713.61
484.412	10940.93
484.616	10705.42
484.821	10523.15
485.025	10050.07
485.229	10015.25
485.433	9921.04
485.637	10162.7
485.841	9800.21
486.045	9628.18
486.249	9550.36
486.453	9447.96
486.657	9261.6
486.861	9230.88
487.065	8729.13
487.269	8868.39
487.473	8571.43
487.677	8753.7
487.881	8684.07
488.085	8251.95
488.289	8350.25
488.493	7993.9
488.697	8010.29
488.901	7946.8
489.105	7828.02
489.309	7471.67
489.512	7680.57
489.716	7373.37
489.92	7377.47
490.124	7098.94
490.328	7090.75
490.531	6853.19
490.735	6840.9
490.939	6613.57
491.143	6584.9
491.346	6388.3
491.55	6484.55
491.754	6363.72
491.958	6316.62
492.161	6324.81
492.365	6113.87
492.569	5745.23
492.772	5927.5
492.976	5919.31
493.18	5708.37
493.383	5839.44
493.587	5567.06
493.79	5630.55
493.994	5589.59
494.197	5464.66
494.401	5440.09
494.605	5220.95
494.808	5245.53
495.012	5130.84
495.215	5177.95
495.419	5388.89
495.622	5218.91
495.825	4997.73
496.029	5093.98
496.232	5251.67
496.436	5034.59
496.639	5145.18
496.843	4909.66
497.046	5175.9
497.249	5251.67
497.453	5157.47
497.656	5106.27
497.859	5216.86
498.063	5143.13
498.266	5192.28
498.469	4975.2
498.673	5077.6
498.876	5200.48
499.079	5188.19
499.282	5296.73
499.485	5579.35
499.689	5489.24
499.892	5552.73
500.095	5397.08
500.298	5558.87
500.501	5421.66
500.705	5585.49
500.908	5698.13
501.111	5814.87
501.314	5479
501.517	5972.56
501.72	5878.35
501.923	5913.17
502.126	5921.36
502.329	6275.66
502.532	6154.83
502.735	6298.19
502.938	6502.98
503.141	6394.44
503.344	6519.37
503.547	6736.45
503.75	6857.28
503.953	6761.03
504.156	6779.46
504.359	6883.91
504.562	6959.68
504.765	7230.01
504.968	7354.94
505.17	7350.84
505.373	7598.65
505.576	7580.21
505.779	7754.29
505.982	7817.78
506.185	8127.02
506.387	8120.88
506.59	8430.12
506.793	8491.56
506.996	8696.36
507.198	9024.03
507.401	9040.42
507.604	9267.74
507.807	9429.53
508.009	9660.95
508.212	9740.82
508.415	9957.91
508.617	10005.01
508.82	10435.08
509.022	10433.04
509.225	10981.89
509.428	10983.94
509.63	11325.95
509.833	11395.58
510.035	12124.66
510.238	12134.9
510.44	12190.19
510.643	12718.57
510.845	13140.45
511.048	13044.2
511.25	13679.07
511.453	13648.35
511.655	14531.02
511.858	14371.28
512.06	14838.22
512.262	14981.57
512.465	15497.66
512.667	15655.36
512.87	16394.67
513.072	16654.76
513.274	17172.9
513.477	17369.51
513.679	17967.51
513.881	18370.96
514.084	18923.91
514.286	18950.54
514.488	19661.18
514.69	20214.13
514.893	20482.42
515.095	21018.99
515.297	21221.73
515.499	21819.74
515.701	22425.94
515.904	23038.28
516.106	23533.89
516.308	23662.91
516.51	24492.34
516.712	24707.38
516.914	25547.04
517.116	26013.98
517.318	26253.59
517.52	27246.86
517.722	27779.33
517.925	28199.16
518.127	28578.04
518.329	29335.79
518.531	29323.5
518.733	30494.94
518.935	30771.41
519.136	31074.51
519.338	32084.16
519.54	32223.42
519.742	32850.1
519.944	33378.48
520.146	34332.83
520.348	34107.55
520.55	35209.36
520.752	35166.35
520.954	36139.14
521.155	36202.63
521.357	36780.15
521.559	37302.39
521.761	37924.97
521.963	38717.53
522.164	38484.06
522.366	39157.85
522.568	39460.94
522.77	39891.02
522.971	40392.77
523.173	40034.38
523.375	41011.26
523.576	40933.43
523.778	41084.98
523.98	41553.97
524.181	41955.37
524.383	41742.38
524.584	42330.15
524.786	42414.12
524.988	42616.86
525.189	43053.08
525.391	42971.16
525.592	42780.7
525.794	43323.41
525.995	42903.58
526.197	42913.82
526.398	42940.44
526.6	43141.14
526.801	42817.57
527.003	42778.65
527.204	42842.14
527.406	42887.2
527.607	42709.02
527.808	43018.27
528.01	41639.98
528.211	41748.53
528.412	41986.09
528.614	41762.86
528.815	41437.23
529.016	41668.65
529.218	40728.64
529.419	41220.15
529.62	40550.46
529.822	39974.98
530.023	39526.48
530.224	39716.94
530.425	39131.22
530.626	38492.26
530.828	37677.16
531.029	38776.92
531.23	37754.99
531.431	37451.89
531.632	37007.48
531.833	36612.22
532.035	36069.51
532.236	35598.48
532.437	35528.84
532.638	34803.86
532.839	34455.71
533.04	34236.58
533.241	33599.66
533.442	33726.63
533.643	32936.12
533.844	32530.62
534.045	32483.51
534.246	31570.12
534.447	31320.27
534.648	30736.6
534.849	30478.55
535.05	29847.78
535.251	29599.97
535.451	29473
535.652	28985.58
535.853	28649.72
536.054	28428.54
536.255	28127.49
536.456	27056.4
536.657	27173.13
536.857	26865.94
537.058	26566.93
537.259	26251.55
537.46	25882.91
537.66	25139.5
537.861	25092.4
538.062	24690.99
538.263	24211.77
538.463	24029.5
538.664	23781.7
538.865	23562.56
539.065	23640.39
539.266	22923.6
539.466	22792.53
539.667	22364.5
539.868	22088.03
540.068	21578.08
540.269	21694.82
540.469	21533.03
540.67	21356.9
540.87	20924.78
541.071	20588.91
541.271	20660.59
541.472	20130.17
541.672	19999.1
541.873	19562.88
542.073	19218.82
542.274	19515.78
542.474	18913.67
542.675	18723.21
542.875	18876.81
543.075	18391.44
543.276	18020.76
543.476	18397.59
543.676	17682.84
543.877	17426.85
544.077	17715.61
544.277	17363.36
544.478	17285.54
544.678	17043.88
544.878	16566.7
545.078	16458.16
545.279	16411.06
545.479	15833.53
545.679	15933.88
545.879	15692.22
546.079	15583.68
546.28	15391.17
546.48	14954.95
546.68	15020.49
546.88	14922.18
547.08	14485.97
547.28	14453.2
547.48	14436.81
547.68	13978.07
547.88	13879.77
548.081	14086.61
548.281	13527.52
548.481	13400.54
548.681	13404.64
548.881	13251.04
549.081	12890.6
549.28	12683.75
549.48	12595.69
549.68	12569.07
549.88	12665.32
550.08	12065.27
550.28	12130.8
550.48	12059.12
550.68	11901.43
550.88	11416.06
551.08	11446.78
551.279	11330.05
551.479	11166.21
551.679	11190.78
551.879	10859.01
552.079	10551.82
552.278	10482.19
552.478	10428.94
552.678	10127.89
552.878	10312.21
553.077	9746.97
553.277	9755.16
553.477	9589.27
553.676	9329.18
553.876	9155.1
554.076	9198.11
554.275	9001.51
554.475	8770.08
554.674	8811.04
554.874	8596.01
555.074	8409.64
555.273	8229.42
555.473	8133.17
555.672	7903.79
555.872	7979.57
556.071	7782.96
556.271	7952.95
556.47	7350.84
556.67	7461.43
556.869	7187.01
557.068	7154.24
557.268	7025.22
557.467	6789.7
557.667	6892.1
557.866	6896.19
558.065	6593.09
558.265	6363.72
558.464	6365.77
558.663	6369.87
558.863	6201.93
559.062	6044.24
559.261	5816.91
559.461	5911.12
559.66	5732.95
559.859	5663.32
560.058	5581.4
560.258	5427.8
560.457	5433.94
560.656	5313.11
560.855	5231.19
561.054	5196.38
561.253	5114.46
561.453	5124.7
561.652	4956.77
561.851	4844.13
562.05	4694.63
562.249	4700.77
562.448	4696.68
562.647	4524.65
562.846	4383.34
563.045	4524.65
563.244	4237.93
563.443	4409.96
563.642	4192.87
563.841	4305.51
564.04	4110.96
564.239	4012.65
564.438	3871.34
564.637	3773.04
564.836	3854.96
565.035	3734.13
565.234	3703.41
565.432	3709.55
565.631	3684.98
565.83	3478.13
566.029	3566.2
566.228	3379.83
566.427	3555.96
566.625	3236.47
566.824	3320.44
567.023	3273.34
567.222	3129.98
567.42	3275.38
567.619	3041.92
567.818	3166.84
568.016	3320.44
568.215	2955.9
568.414	2962.05
568.612	2921.09
568.811	2908.8
569.01	2806.4
569.208	2732.67
569.407	2722.43
569.605	2744.96
569.804	2740.86
570.002	2622.08
570.201	2550.4
570.4	2564.74
570.598	2425.48
570.797	2353.8
570.995	2368.13
571.193	2280.07
571.392	2355.85
571.59	2282.12
571.789	2224.78
571.987	2306.7
572.186	2210.44
572.384	2054.8
572.582	2085.51
572.781	2230.92
572.979	1997.45
573.177	2093.71
573.376	2060.94
573.574	2026.12
573.772	1993.36
573.971	1725.07
574.169	1723.02
574.367	1837.71
574.565	1735.31
574.763	1804.94
574.962	1772.18
575.16	1782.42
575.358	1596.05
575.556	1763.98
575.754	1503.89
575.952	1596.05
576.151	1669.78
576.349	1571.47
576.547	1403.54
576.745	1505.94
576.943	1550.99
577.141	1393.3
577.339	1389.21
577.537	1464.98
577.735	1348.25
577.933	1460.88
578.131	1264.28
578.329	1409.69
578.527	1387.16
578.725	1262.23
578.923	1108.63
579.121	1319.57
579.319	1071.77
579.516	1223.32
579.714	1354.39
579.912	1153.69
580.11	1155.74
580.308	1135.26
580.506	1075.87
580.704	985.76
580.901	1071.77
581.099	1174.17
581.297	1096.35
581.495	1067.67
581.692	969.37
581.89	1133.21
582.088	1012.38
582.285	952.99
582.483	959.13
582.681	940.7
582.878	889.5
583.076	955.04
583.274	950.94
583.471	1069.72
583.669	873.12
583.866	805.53
584.064	826.01
584.262	731.81
584.459	795.29
584.657	715.42
584.854	826.01
585.052	877.21
585.249	748.19
585.447	797.34
585.644	604.83
585.841	811.68
586.039	830.11
586.236	768.67
586.434	723.62
586.631	625.31
586.828	651.94
587.026	610.98
587.223	514.72
587.42	555.68
587.618	705.18
587.815	713.38
588.012	625.31
588.21	604.83
588.407	680.61
588.604	672.42
588.801	494.24
588.999	565.92
589.196	684.7
589.393	596.64
589.59	617.12
589.787	649.89
589.984	619.17
590.182	588.45
590.379	484
590.576	535.2
590.773	576.16
590.97	606.88
591.167	565.92
591.364	627.36
591.561	512.67
591.758	627.36
591.955	666.27
592.152	557.73
592.349	553.63
592.546	494.24
592.743	537.25
592.94	543.39
593.137	598.69
593.334	656.03
593.531	604.83
593.727	629.41
593.924	572.07
594.121	590.5
594.318	445.09
594.515	565.92
594.712	746.14
594.908	643.74
595.105	420.52
595.302	557.73
595.499	586.4
595.696	742.05
595.892	498.34
596.089	674.46
596.286	598.69
596.482	713.38
596.679	653.98
596.876	565.92
597.072	686.75
597.269	559.78
597.466	649.89
597.662	627.36
597.859	633.5
598.055	686.75
598.252	823.97
598.448	774.81
598.645	840.35
598.841	805.53
599.038	895.64
599.234	918.17
599.431	832.16
599.627	920.22
599.824	1026.71
600.02	1020.57
600.217	975.52
600.413	1082.01
600.609	1079.96
600.806	1389.21
601.002	1223.32
601.198	1086.11
601.395	1366.68
601.591	1237.66
601.787	1266.33
601.984	1464.98
602.18	1618.58
602.376	1419.92
602.572	1567.38
602.769	1718.93
602.965	1714.83
603.161	1759.89
603.357	1854.09
603.553	1960.59
603.75	1874.57
603.946	1862.29
604.142	2042.51
604.338	2204.3
604.534	2155.15
604.73	2259.59
604.926	2218.63
605.122	2458.25
605.318	2437.77
605.514	2589.32
605.71	2546.31
605.906	2695.81
606.102	2783.87
606.298	2892.41
606.494	2884.22
606.69	3041.92
606.886	3164.79
607.082	3066.49
607.278	3230.33
607.474	3310.2
607.67	3351.16
607.866	3494.52
608.062	3734.13
608.257	3748.47
608.453	3775.09
608.649	4004.46
608.845	3998.32
609.041	4168.3
609.236	4287.08
609.432	4244.07
609.628	4446.82
609.824	4602.47
610.019	4504.17
610.215	4811.36
610.411	5087.84
610.606	5143.13
610.802	5096.03
610.998	5241.43
611.193	5558.87
611.389	5309.02
611.584	5782.1
611.78	5589.59
611.976	5921.36
612.171	6369.87
612.367	6388.3
612.562	6619.72
612.758	6597.19
612.953	6621.77
613.149	6922.82
613.344	7225.92
613.539	7567.93
613.735	7481.91
613.93	7817.78
614.126	7746.1
614.321	8155.69
614.517	8509.99
614.712	8528.42
614.907	8673.83
615.103	9095.71
615.298	9275.93
615.493	9437.72
615.688	9525.79
615.884	10131.98
616.079	10156.56
616.274	10514.95
616.47	10658.31
616.665	10648.07
616.86	11201.02
617.055	11207.17
617.25	11514.36
617.445	12136.95
617.641	12138.99
617.836	12458.48
618.031	12562.92
618.226	13134.31
618.421	13412.83
618.616	13664.73
618.811	13873.62
619.006	14404.05
619.201	14637.52
619.396	14932.42
619.591	14895.56
619.786	15464.89
619.981	15696.32
620.176	16253.36
620.371	16609.71
620.566	16955.82
620.761	17203.62
620.956	17830.3
621.151	17688.99
621.346	18450.83
621.541	18389.39
621.735	19046.79
621.93	18993.54
622.125	19644.8
622.32	19634.56
622.515	20552.05
622.709	20384.12
622.904	21274.98
623.099	21250.41
623.294	21750.11
623.488	22045.02
623.683	22563.15
623.878	22692.18
624.072	23269.7
624.267	23517.51
624.462	24201.53
624.656	24160.57
624.851	24920.37
625.046	24817.97
625.24	25059.63
625.435	25487.65
625.629	25852.19
625.824	26411.29
626.018	26628.37
626.213	26691.86
626.407	27304.2
626.602	27304.2
626.796	27824.39
626.991	28066.05
627.185	28305.66
627.38	28459.26
627.574	28588.28
627.768	28573.94
627.963	28903.67
628.157	29026.54
628.352	29249.77
628.546	28983.54
628.74	29401.32
628.935	28930.29
629.129	29223.15
629.323	28963.06
629.517	28776.69
629.712	28594.42
629.906	28369.15
630.1	28363
630.294	28426.49
630.489	27648.26
630.683	27799.81
630.877	27128.08
631.071	26601.75
631.265	26210.59
631.459	25729.31
631.653	25039.15
631.848	24551.73
632.042	24232.25
632.236	24017.21
632.43	23040.33
632.624	22610.26
632.818	21862.75
633.012	21197.16
633.206	20527.47
633.4	20189.56
633.594	19128.71
633.788	18469.26
633.982	18045.34
634.176	17258.92
634.369	16535.98
634.563	15985.08
634.757	15307.2
634.951	14846.41
635.145	14365.14
635.339	13851.1
635.533	13189.6
635.726	12734.95
635.92	12012.02
636.114	11708.92
636.308	11084.29
636.501	10734.09
636.695	10383.88
636.889	9959.95
637.083	9482.78
637.276	9071.14
637.47	8579.62
637.664	8444.46
637.857	7961.14
638.051	7776.82
638.244	7416.38
638.438	7170.62
638.632	6933.06
638.825	6294.09
639.019	6349.39
639.212	5939.79
639.406	5945.94
639.599	5610.07
639.793	5325.4
639.986	5040.73
640.18	5081.69
640.373	4901.47
640.567	4483.69
640.76	4315.75
640.954	4254.31
641.147	4082.28
641.34	3820.14
641.534	3658.35
641.727	3723.89
641.92	3619.44
642.114	3367.54
642.307	3269.24
642.5	3220.09
642.694	3000.96
642.887	2996.86
643.08	2855.55
643.273	2675.33
643.467	2534.02
643.66	2443.91
643.853	2335.37
644.046	2298.5
644.239	2318.98
644.432	2128.52
644.626	1929.87
644.819	1870.48
645.012	1864.33
645.205	1856.14
645.398	1735.31
645.591	1591.95
645.784	1481.36
645.977	1503.89
646.17	1520.28
646.363	1442.45
646.556	1333.91
646.749	1315.48
646.942	1243.8
647.135	1323.67
647.328	1100.44
647.521	1215.13
647.714	1151.64
647.907	1018.52
648.099	955.04
648.292	1090.2
648.485	961.18
648.678	901.79
648.871	926.36
649.064	893.6
649.256	764.57
649.449	670.37
649.642	664.22
649.835	649.89
650.027	707.23
650.22	791.2
650.413	594.59
650.605	731.81
650.798	604.83
650.991	660.13
651.183	572.07
651.376	567.97
651.568	664.22
651.761	522.91
651.954	555.68
652.146	420.52
652.339	584.35
652.531	430.76
652.724	359.08
652.916	479.91
653.109	285.35
653.301	473.76
653.494	383.65
653.686	424.61
653.879	551.59
654.071	410.28
654.263	342.69
654.456	264.87
654.648	367.27
654.84	330.41
655.033	230.06
655.225	484
655.417	201.38
655.61	406.18
655.802	373.41
655.994	453.28
656.186	191.14
656.379	330.41
656.571	236.2
656.763	232.1
656.955	316.07
657.148	225.96
657.34	303.78
657.532	283.3
657.724	228.01
657.916	230.06
658.108	279.21
658.3	207.53
658.492	297.64
658.684	154.28
658.876	295.59
659.068	121.51
659.26	111.27
659.452	70.31
659.644	180.9
659.836	258.73
660.028	199.34
660.22	166.57
660.412	176.81
660.604	150.18
660.796	180.9
660.988	209.58
661.18	144.04
661.372	234.15
661.563	205.48
661.755	158.38
661.947	125.61
662.139	152.23
662.331	203.43
662.522	103.08
662.714	109.22
662.906	119.46
663.097	166.57
663.289	98.99
663.481	-44.37
663.673	211.62
663.864	144.04
664.056	174.76
664.247	80.55
664.439	258.73
664.631	232.1
664.822	191.14
665.014	94.89
665.205	76.46
665.397	129.7
665.588	174.76
665.78	178.86
665.971	164.52
666.163	144.04
666.354	160.42
666.546	33.45
666.737	121.51
666.929	72.36
667.12	-11.61
667.311	205.48
667.503	105.13
667.694	191.14
667.885	82.6
668.077	285.35
668.268	96.94
668.459	101.03
668.651	131.75
668.842	154.28
669.033	43.69
669.224	109.22
669.416	371.36
669.607	60.07
669.798	43.69
669.989	119.46
670.18	58.03
670.371	189.1
670.563	-5.46
670.754	215.72
670.945	168.62
671.136	205.48
671.327	117.42
671.518	236.2
671.709	230.06
671.9	193.19
672.091	301.73
672.282	189.1
672.473	105.13
672.664	62.12
672.855	115.37
673.046	203.43
673.237	199.34
673.428	152.23
673.619	225.96
673.809	113.32
674	197.29
674.191	148.14
674.382	170.66
674.573	119.46
674.764	129.7
674.954	262.82
675.145	60.07
675.336	80.55
675.527	105.13
675.717	191.14
675.908	103.08
676.099	187.05
676.289	199.34
676.48	60.07
676.671	207.53
676.861	154.28
677.052	144.04
677.243	162.47
677.433	105.13
677.624	191.14
677.814	211.62
678.005	80.55
678.195	324.26
678.386	187.05
678.576	156.33
678.767	141.99
678.957	160.42
679.148	225.96
679.338	271.01
679.529	256.68
679.719	146.09
679.909	273.06
680.1	238.25
680.29	230.06
680.481	139.94
680.671	252.58
680.861	195.24
681.052	213.67
681.242	90.79
681.432	191.14
681.622	197.29
681.813	70.31
682.003	201.38
682.193	146.09
682.383	150.18
682.573	176.81
682.764	129.7
682.954	176.81
683.144	314.02
683.334	211.62
683.524	217.77
683.714	238.25
683.904	258.73
684.094	178.86
684.284	234.15
684.474	354.98
684.664	264.87
684.854	213.67
685.044	320.17
685.234	244.39
685.424	234.15
685.614	205.48
685.804	318.12
685.994	244.39
686.184	289.45
686.374	244.39
686.564	232.1
686.753	225.96
686.943	154.28
687.133	168.62
687.323	228.01
687.513	291.49
687.702	225.96
687.892	211.62
688.082	221.86
688.272	338.6
688.461	252.58
688.651	461.48
688.841	266.92
689.03	234.15
689.22	322.21
689.41	285.35
689.599	291.49
689.789	232.1
689.979	357.03
690.168	207.53
690.358	264.87
690.547	287.4
690.737	271.01
690.926	289.45
691.116	248.49
691.305	299.69
691.495	236.2
691.684	193.19
691.874	240.29
692.063	258.73
692.252	365.22
692.442	283.3
692.631	185
692.82	246.44
693.01	213.67
693.199	238.25
693.388	191.14
693.578	250.53
693.767	291.49
693.956	221.86
694.146	236.2
694.335	338.6
694.524	240.29
694.713	309.93
694.902	254.63
695.092	260.77
695.281	199.34
695.47	203.43
695.659	217.77
695.848	283.3
696.037	232.1
696.226	281.25
696.415	262.82
696.604	273.06
696.793	264.87
696.982	230.06
697.171	283.3
697.36	199.34
697.549	228.01
697.738	113.32
697.927	281.25
698.116	215.72
698.305	285.35
698.494	225.96
698.683	217.77
698.872	287.4
699.061	363.17
699.25	160.42
699.438	209.58
699.627	219.82
699.816	361.13
700.005	144.04
700.193	164.52
700.382	268.97
700.571	170.66
700.76	242.34
700.948	346.79
701.137	291.49
701.326	240.29
701.514	125.61
701.703	164.52
701.892	221.86
702.08	453.28
702.269	266.92
702.457	178.86
702.646	250.53
702.834	244.39
703.023	213.67
703.212	297.64
703.4	240.29
703.589	234.15
703.777	234.15
703.965	72.36
704.154	205.48
704.342	131.75
704.531	174.76
704.719	195.24
704.907	260.77
705.096	197.29
705.284	185
705.472	221.86
705.661	199.34
705.849	279.21
706.037	289.45
706.226	205.48
706.414	240.29
706.602	148.14
706.79	289.45
706.979	152.23
707.167	225.96
707.355	121.51
707.543	244.39
707.731	240.29
707.919	219.82
708.107	240.29
708.296	189.1
708.484	105.13
708.672	234.15
708.86	146.09
709.048	193.19
709.236	193.19
709.424	273.06
709.612	295.59
709.8	92.84
709.988	195.24
710.176	291.49
710.364	262.82
710.551	150.18
710.739	221.86
710.927	158.38
711.115	258.73
711.303	314.02
711.491	289.45
711.679	195.24
711.866	340.65
712.054	252.58
712.242	238.25
712.43	203.43
712.617	162.47
712.805	289.45
712.993	164.52
713.181	80.55
713.368	279.21
713.556	248.49
713.744	213.67
713.931	387.75
714.119	301.73
714.306	168.62
714.494	139.94
714.682	228.01
714.869	121.51
715.057	185
715.244	182.95
715.432	254.63
715.619	213.67
715.807	174.76
715.994	170.66
716.182	244.39
716.369	277.16
716.556	244.39
716.744	201.38
716.931	172.71
717.119	213.67
717.306	260.77
717.493	303.78
717.681	133.8
717.868	236.2
718.055	266.92
718.242	285.35
718.43	305.83
718.617	373.41
718.804	199.34
718.991	258.73
719.179	293.54
719.366	232.1
719.553	264.87
719.74	307.88
719.927	252.58
720.114	195.24
720.301	178.86
720.488	160.42
720.676	144.04
720.863	359.08
721.05	320.17
721.237	281.25
721.424	252.58
721.611	219.82
721.798	201.38
721.985	156.33
722.172	285.35
722.358	221.86
722.545	365.22
722.732	350.89
722.919	264.87
723.106	340.65
723.293	291.49
723.48	248.49
723.667	170.66
723.853	457.38
724.04	340.65
724.227	266.92
724.414	240.29
724.6	299.69
724.787	328.36
724.974	316.07
725.161	252.58
725.347	199.34
725.534	271.01
725.72	305.83
725.907	324.26
726.094	262.82
726.28	279.21
726.467	228.01
726.653	178.86
726.84	318.12
727.027	363.17
727.213	182.95
727.4	334.5
727.586	221.86
727.773	199.34
727.959	291.49
728.145	279.21
728.332	393.89
728.518	232.1
728.705	367.27
728.891	228.01
729.077	271.01
729.264	219.82
729.45	230.06
729.636	273.06
729.823	314.02
730.009	307.88
730.195	371.36
730.382	330.41
730.568	205.48
730.754	275.11
730.94	266.92
731.126	230.06
731.313	281.25
731.499	250.53
731.685	287.4
731.871	410.28
732.057	281.25
732.243	324.26
732.429	309.93
732.615	326.31
732.801	314.02
732.987	297.64
733.173	346.79
733.359	207.53
733.545	303.78
733.731	209.58
733.917	371.36
734.103	228.01
734.289	307.88
734.475	279.21
734.661	414.37
734.847	285.35
735.033	197.29
735.219	287.4
735.404	287.4
735.59	201.38
735.776	205.48
735.962	283.3
736.148	275.11
736.333	391.84
736.519	332.45
736.705	219.82
736.89	301.73
737.076	307.88
737.262	260.77
737.447	266.92
737.633	289.45
737.819	404.13
738.004	297.64
738.19	271.01
738.375	344.74
738.561	365.22
738.747	305.83
738.932	258.73
739.118	459.43
739.303	332.45
739.489	389.8
739.674	273.06
739.859	215.72
740.045	326.31
740.23	367.27
740.416	244.39
740.601	297.64
740.786	326.31
740.972	311.97
741.157	295.59
741.342	213.67
741.528	205.48
741.713	424.61
741.898	211.62
742.084	350.89
742.269	373.41
742.454	340.65
742.639	311.97
742.824	328.36
743.01	346.79
743.195	426.66
743.38	330.41
743.565	232.1
743.75	348.84
743.935	301.73
744.12	363.17
744.305	203.43
744.49	324.26
744.675	309.93
744.86	199.34
745.045	357.03
745.23	273.06
745.415	234.15
745.6	404.13
745.785	223.91
745.97	309.93
746.155	268.97
746.34	371.36
746.525	389.8
746.71	416.42
746.895	174.76
747.079	150.18
747.264	205.48
747.449	316.07
747.634	352.93
747.819	354.98
748.003	236.2
748.188	182.95
748.373	309.93
748.557	369.32
748.742	275.11
748.927	293.54
749.111	271.01
749.296	277.16
749.481	297.64
749.665	326.31
749.85	162.47
750.034	297.64
750.219	348.84
750.404	139.94
750.588	242.34
750.773	211.62
750.957	156.33
751.141	240.29
751.326	268.97
751.51	162.47
751.695	160.42
751.879	129.7
752.064	338.6
752.248	260.77
752.432	279.21
752.617	240.29
752.801	271.01
752.985	324.26
753.17	271.01
753.354	189.1
753.538	238.25
753.722	156.33
753.907	295.59
754.091	176.81
754.275	254.63
754.459	203.43
754.643	154.28
754.828	281.25
755.012	178.86
755.196	115.37
755.38	215.72
755.564	225.96
755.748	203.43
755.932	219.82
756.116	287.4
756.3	301.73
756.484	187.05
756.668	248.49
756.852	111.27
757.036	139.94
757.22	219.82
757.404	119.46
757.588	129.7
757.772	311.97
757.956	148.14
758.14	320.17
758.323	141.99
758.507	195.24
758.691	101.03
758.875	277.16
759.059	311.97
759.242	105.13
759.426	150.18
759.61	156.33
759.794	98.99
759.977	295.59
760.161	383.65
760.345	291.49
760.528	318.12
760.712	156.33
760.895	182.95
761.079	232.1
761.263	127.66
761.446	158.38
761.63	174.76
761.813	248.49
761.997	80.55
762.18	154.28
762.364	250.53
762.547	2.73
762.731	127.66
762.914	176.81
763.098	129.7
763.281	223.91
763.464	101.03
763.648	137.9
763.831	164.52
764.015	107.18
764.198	185
764.381	96.94
764.564	129.7
764.748	221.86
764.931	148.14
765.114	127.66
765.297	258.73
765.481	64.17
765.664	201.38
765.847	113.32
766.03	232.1
766.213	176.81
766.397	98.99
766.58	31.4
766.763	217.77
766.946	146.09
767.129	41.64
767.312	111.27
767.495	66.22
767.678	82.6
767.861	109.22
768.044	117.42
768.227	82.6
768.41	84.65
768.593	191.14
768.776	154.28
768.959	25.26
769.142	242.34
769.324	78.51
769.507	111.27
769.69	121.51
769.873	107.18
770.056	373.41
770.239	82.6
770.421	201.38
770.604	191.14
770.787	154.28
770.97	119.46
771.152	49.83
771.335	228.01
771.518	115.37
771.7	129.7
771.883	232.1
772.066	35.5
772.248	84.65
772.431	162.47
772.613	180.9
772.796	121.51
772.978	197.29
773.161	287.4
773.343	78.51
773.526	-5.46
773.708	53.93
773.891	21.16
774.073	109.22
774.256	33.45
774.438	207.53
774.621	113.32
774.803	111.27
774.985	86.7
775.168	121.51
775.35	-7.51
775.532	150.18
775.715	-5.46
775.897	82.6
776.079	86.7
776.261	213.67
776.444	-40.28
776.626	84.65
776.808	15.02
776.99	-9.56
777.173	127.66
777.355	86.7
777.537	131.75
777.719	78.51
777.901	109.22
778.083	55.98
778.265	35.5
778.447	187.05
778.629	-9.56
778.811	92.84
778.993	144.04
779.175	211.62
779.357	94.89
779.539	-87.38
779.721	68.27
779.903	158.38
780.085	113.32
780.267	45.74
780.449	123.56
780.631	82.6
780.812	187.05
780.994	92.84
781.176	37.55
781.358	51.88
781.54	29.35
781.721	137.9
781.903	172.71
782.085	92.84
782.267	215.72
782.448	10.92
782.63	-5.46
782.812	76.46
782.993	105.13
783.175	84.65
783.357	64.17
783.538	105.13
783.72	27.31
783.901	103.08
784.083	47.79
784.264	131.75
784.446	-50.52
784.627	-15.7
784.809	55.98
784.99	117.42
785.172	53.93
785.353	68.27
785.535	72.36
785.716	33.45
785.897	43.69
786.079	66.22
786.26	123.56
786.441	86.7
786.623	8.87
786.804	0.68
786.985	23.21
787.167	53.93
787.348	80.55
787.529	21.16
787.71	137.9
787.891	62.12
788.073	37.55
788.254	-54.61
788.435	223.91
788.616	90.79
788.797	-3.41
788.978	-21.85
789.159	41.64
789.34	41.64
789.522	60.07
789.703	10.92
789.884	117.42
790.065	94.89
790.246	154.28
790.427	-5.46
790.607	60.07
790.788	164.52
790.969	15.02
791.15	86.7
791.331	43.69
791.512	43.69
791.693	-9.56
791.874	6.83
792.054	230.06
792.235	139.94
792.416	-32.08
792.597	19.11
792.778	84.65
792.958	31.4
793.139	101.03
793.32	-9.56
793.5	43.69
793.681	127.66
793.862	80.55
794.042	23.21
794.223	4.78
794.404	-15.7
794.584	-85.33
794.765	31.4
794.945	55.98
795.126	76.46
795.306	90.79
795.487	47.79
795.667	60.07
795.848	72.36
796.028	-15.7
796.209	60.07
796.389	-1.37
796.57	76.46
796.75	-62.8
796.93	105.13
797.111	-9.56
797.291	88.75
797.471	74.41
797.652	58.03
797.832	-75.09
798.012	150.18
798.192	-56.66
798.373	-66.9
798.553	-58.71
798.733	53.93
798.913	12.97
799.093	68.27
799.274	-13.65
799.454	119.46
799.634	29.35
799.814	78.51
799.994	121.51
800.174	45.74
800.354	113.32
800.534	-3.41
800.714	90.79
800.894	-5.46
801.074	-9.56
801.254	-89.43
801.434	66.22
801.614	-9.56
801.794	-79.19
801.974	1673.87
802.154	51.88
802.334	94.89
802.514	17.07
802.693	10.92
802.873	-30.04
803.053	164.52
803.233	86.7
803.413	39.59
803.592	-54.61
803.772	-83.28
803.952	-5.46
804.131	-48.47
804.311	43.69
804.491	135.85
804.67	4.78
804.85	-7.51
805.03	92.84
805.209	129.7
805.389	-25.94
805.568	-11.61
805.748	-1.37
805.928	21.16
806.107	92.84
806.287	121.51
806.466	27.31
806.646	31.4
806.825	-44.37
807.004	-52.56
807.184	70.31
807.363	72.36
807.543	29.35
807.722	-73.04
807.901	121.51
808.081	74.41
808.26	-111.96
808.439	21.16
808.619	-60.76
808.798	23.21
808.977	39.59
809.156	78.51
809.336	88.75
809.515	133.8
809.694	-58.71
809.873	-87.38
810.052	66.22
810.231	86.7
810.411	94.89
810.59	90.79
810.769	70.31
810.948	88.75
811.127	-23.89
811.306	-56.66
811.485	-13.65
811.664	150.18
811.843	2.73
812.022	60.07
812.201	29.35
812.38	-79.19
812.559	-77.14
812.737	103.08
812.916	-56.66
813.095	-46.42
813.274	4.78
813.453	92.84
813.632	51.88
813.811	123.56
813.989	-60.76
814.168	60.07
814.347	-11.61
814.526	-30.04
814.704	135.85
814.883	174.76
815.062	-30.04
815.24	45.74
815.419	-62.8
815.598	39.59
815.776	-36.18
815.955	-42.32
816.133	-87.38
816.312	43.69
816.49	-9.56
816.669	-19.8
816.847	-50.52
817.026	-7.51
817.204	76.46
817.383	19.11
817.561	-52.56
817.74	55.98
817.918	51.88
818.097	17.07
818.275	-27.99
818.453	45.74
818.632	70.31
818.81	-5.46
818.988	15.02
819.167	-48.47
819.345	19.11
819.523	23.21
819.701	37.55
819.879	33.45
820.058	-34.13
820.236	23.21
820.414	60.07
820.592	-52.56
820.77	15.02
820.948	-71
821.127	-107.86
821.305	6.83
821.483	-5.46
821.661	19.11
821.839	35.5
822.017	-97.62
822.195	12.97
822.373	135.85
822.551	23.21
822.729	53.93
822.907	86.7
823.085	62.12
823.262	66.22
823.44	-83.28
823.618	31.4
823.796	-36.18
823.974	31.4
824.152	-15.7
824.329	-42.32
824.507	113.32
824.685	45.74
824.863	-83.28
825.04	-36.18
825.218	62.12
825.396	8.87
825.574	137.9
825.751	4.78
825.929	111.27
826.107	-36.18
826.284	2.73
826.462	27.31
826.639	-5.46
826.817	-99.67
826.994	-3.41
827.172	-87.38
827.349	176.81
827.527	84.65
827.704	76.46
827.882	127.66
828.059	-17.75
828.237	-19.8
828.414	51.88
828.591	-134.48
828.769	29.35
828.946	-50.52
829.124	90.79
829.301	66.22
829.478	27.31
829.655	12.97
829.833	21.16
830.01	-83.28
830.187	4.78
830.364	-17.75
830.542	17.07
830.719	121.51
830.896	41.64
831.073	31.4
831.25	-38.23
831.427	-38.23
831.604	15.02
831.782	8.87
831.959	103.08
832.136	-32.08
832.313	12.97
832.49	-5.46
832.667	19.11
832.844	-30.04
833.021	88.75
833.198	80.55
833.374	15.02
833.551	109.22
833.728	-1.37
833.905	80.55
834.082	-91.48
834.259	49.83
834.436	43.69
834.612	17.07
834.789	88.75
834.966	-32.08
835.143	66.22
835.319	-68.95
835.496	119.46
835.673	88.75
835.85	-3.41
836.026	33.45
836.203	78.51
836.38	-54.61
836.556	-1.37
836.733	68.27
836.909	82.6
837.086	-3.41
837.262	-103.76
837.439	-38.23
837.616	-46.42
837.792	-17.75
837.968	51.88
838.145	17.07
838.321	25.26
838.498	49.83
838.674	78.51
838.851	31.4
839.027	-5.46
839.203	27.31
839.38	80.55
839.556	-15.7
839.732	49.83
839.909	-9.56
840.085	84.65
840.261	-38.23
840.437	-44.37
840.614	-93.52
840.79	51.88
840.966	55.98
841.142	31.4
841.318	43.69
841.494	17.07
841.671	74.41
841.847	-3.41
842.023	-73.04
842.199	41.64
842.375	121.51
842.551	-109.91
842.727	-48.47
842.903	144.04
843.079	-34.13
843.255	103.08
843.431	10.92
843.607	88.75
843.783	-206.16
843.959	35.5
844.134	-48.47
844.31	92.84
844.486	-3.41
844.662	-46.42
844.838	-52.56
845.013	80.55
845.189	47.79
845.365	37.55
845.541	-50.52
845.716	15.02
845.892	-1.37
846.068	-40.28
846.244	-21.85
846.419	21.16
846.595	-17.75
846.77	4.78
846.946	94.89
847.122	-17.75
847.297	41.64
847.473	131.75
847.648	-66.9
847.824	39.59
847.999	-60.76
848.175	-34.13
848.35	-34.13
848.526	101.03
848.701	76.46
848.876	74.41
849.052	113.32
849.227	35.5
849.403	70.31
849.578	41.64
849.753	23.21
849.929	78.51
850.104	-21.85
850.279	78.51
850.454	58.03
850.63	43.69
850.805	49.83
850.98	-7.51
851.155	39.59
851.33	55.98
851.505	-58.71
851.681	39.59
851.856	-75.09
852.031	68.27
852.206	8.87
852.381	-58.71
852.556	27.31
852.731	86.7
852.906	12.97
853.081	115.37
853.256	141.99
853.431	-21.85
853.606	12.97
853.781	-21.85
853.956	-46.42
854.131	64.17
854.305	-95.57
854.48	45.74
854.655	15.02
854.83	-46.42
855.005	-13.65
855.18	19.11
855.354	-48.47
855.529	8.87
855.704	-40.28
855.879	90.79
856.053	-66.9
856.228	62.12
856.403	-83.28
856.577	55.98
856.752	-91.48
856.926	27.31
857.101	4.78
857.276	-87.38
857.45	51.88
857.625	43.69
857.799	129.7
857.974	12.97
858.148	-101.72
858.323	70.31
858.497	27.31
858.672	-25.94
858.846	8.87
859.02	72.36
859.195	-60.76
859.369	0.68
859.543	-15.7
859.718	-48.47
859.892	76.46
860.066	66.22
860.241	0.68
860.415	-7.51
860.589	25.26
860.763	43.69
860.938	-36.18
861.112	35.5
861.286	64.17
861.46	49.83
861.634	55.98
861.808	66.22
861.982	-52.56
862.157	-62.8
862.331	-15.7
862.505	0.68
862.679	-75.09
862.853	-46.42
863.027	-58.71
863.201	105.13
863.375	-36.18
863.549	133.8
863.722	2.73
863.896	168.62
864.07	111.27
864.244	23.21
864.418	68.27
864.592	43.69
864.766	-27.99
864.939	-54.61
865.113	-9.56
865.287	84.65
865.461	-38.23
865.634	43.69
865.808	8.87
865.982	49.83
866.156	-79.19
866.329	-52.56
866.503	-32.08
866.676	105.13
866.85	51.88
867.024	-40.28
867.197	33.45
867.371	4.78
867.544	27.31
867.718	-136.53
867.891	113.32
868.065	-73.04
868.238	74.41
868.412	58.03
868.585	58.03
868.759	-17.75
868.932	-60.76
869.105	-116.05
869.279	-48.47
869.452	-52.56
869.625	47.79
869.799	23.21
869.972	-77.14
870.145	-111.96
870.319	121.51
870.492	8.87
870.665	58.03
870.838	-58.71
871.011	-101.72
871.185	-81.24
871.358	-1.37
871.531	17.07
871.704	-89.43
871.877	84.65
872.05	-44.37
872.223	-79.19
872.396	133.8
872.569	76.46
872.742	-79.19
872.915	47.79
873.088	-15.7
873.261	-71
873.434	84.65
873.607	-5.46
873.78	17.07
873.953	-42.32
874.126	146.09
874.299	-1.37
874.471	6.83
874.644	17.07
874.817	74.41
874.99	164.52
875.163	-107.86
875.335	-13.65
875.508	39.59
875.681	115.37
875.853	-46.42
876.026	-46.42
876.199	10.92
876.371	-7.51
876.544	19.11
876.717	64.17
876.889	-48.47
877.062	51.88
877.234	-34.13
877.407	-38.23
877.579	66.22
877.752	0.68
877.924	98.99
878.097	64.17
878.269	23.21
878.442	33.45
878.614	92.84
878.786	15.02
878.959	86.7
879.131	8.87
879.303	-109.91
879.476	35.5
879.648	133.8
879.82	0.68
879.993	15.02
880.165	-15.7
880.337	-97.62
880.509	-1.37
880.681	-142.68
880.854	-132.44
881.026	51.88
881.198	211.62
881.37	25.26
881.542	-5.46
881.714	-81.24
881.886	-71
882.058	82.6
882.23	-50.52
882.402	62.12
882.574	15.02
882.746	53.93
882.918	131.75
883.09	49.83
883.262	-36.18
883.434	-3.41
883.606	-165.2
883.778	72.36
883.95	158.38
884.122	-77.14
884.293	72.36
884.465	-25.94
884.637	51.88
884.809	-38.23
884.98	43.69
885.152	90.79
885.324	43.69
885.496	-15.7
885.667	10.92
885.839	-27.99
886.011	139.94
886.182	43.69
886.354	10.92
886.525	76.46
886.697	-1.37
886.869	-46.42
887.04	-13.65
887.212	60.07
887.383	164.52
887.555	49.83
887.726	0.68
887.897	-95.57
888.069	58.03
888.24	103.08
888.412	4.78
888.583	-5.46
888.754	-17.75
888.926	-89.43
889.097	-17.75
889.268	2.73
889.44	-11.61
889.611	-19.8
889.782	-128.34
889.953	-58.71
890.125	72.36
890.296	-25.94
890.467	-79.19
890.638	-21.85
890.809	-3.41
890.98	-21.85
891.151	84.65
891.323	146.09
891.494	-62.8
891.665	47.79
891.836	-48.47
892.007	12.97
892.178	-13.65
892.349	64.17
892.52	-97.62
892.691	-21.85
892.862	-5.46
893.032	-122.2
893.203	-19.8
893.374	17.07
893.545	43.69
893.716	47.79
893.887	96.94
894.057	19.11
894.228	47.79
894.399	-97.62
894.57	156.33
894.74	19.11
894.911	55.98
895.082	-46.42
895.253	39.59
895.423	47.79
895.594	74.41
895.764	47.79
895.935	-50.52
896.106	15.02
896.276	-13.65
896.447	-25.94
896.617	-111.96
896.788	-109.91
896.958	-34.13
897.129	-52.56
897.299	-42.32
897.47	111.27
897.64	80.55
897.81	8.87
897.981	17.07
898.151	12.97
898.322	-23.89
898.492	80.55
898.662	-103.76
898.832	-95.57
899.003	-40.28
899.173	58.03
899.343	2.73
899.513	-75.09
