Data from USB4F104151__91__10-35-11-330.txt Node

Date: Wed Feb 26 10:35:11 EST 2025
User: louis
Spectrometer: USB4F10415
Trigger mode: 4
Integration Time (sec): 1.000000E-1
Scans to average: 1
Electric dark correction enabled: true
Nonlinearity correction enabled: false
Boxcar width: 0
XAxis mode: Wavelengths
Number of Pixels in Spectrum: 3648
>>>>>Begin Spectral Data<<<<<
178.204	-434.68
178.424	-434.68
178.644	-434.68
178.864	-317.95
179.084	-381.43
179.304	-18.94
179.524	11.78
179.744	48.64
179.964	99.84
180.184	15.87
180.404	28.16
180.624	-68.09
180.844	-35.33
181.064	-145.92
181.283	44.54
181.503	-10.75
181.723	30.21
181.943	-94.72
182.163	226.81
182.383	67.07
182.602	15.87
182.822	140.8
183.042	132.61
183.262	-0.51
183.482	-43.52
183.701	56.83
183.921	54.78
184.141	-8.7
184.361	26.11
184.58	65.02
184.8	50.69
185.02	-57.86
185.239	65.02
185.459	93.69
185.679	130.56
185.898	-37.38
186.118	38.4
186.338	105.98
186.557	97.79
186.777	-6.66
186.997	46.59
187.216	-2.56
187.436	177.66
187.655	105.98
187.875	52.74
188.095	11.78
188.314	235
188.534	103.93
188.753	-10.75
188.973	130.56
189.192	196.09
189.412	81.41
189.631	-31.23
189.851	140.8
190.07	151.04
190.29	24.06
190.509	56.83
190.729	38.4
190.948	146.94
191.168	181.76
191.387	108.03
191.607	22.02
191.826	142.85
192.045	38.4
192.265	-25.09
192.484	116.22
192.704	93.69
192.923	-45.57
193.142	151.04
193.362	103.93
193.581	200.19
193.8	60.93
194.02	120.32
194.239	99.84
194.458	124.41
194.678	77.31
194.897	62.98
195.116	118.27
195.335	60.93
195.555	77.31
195.774	-2.56
195.993	140.8
196.212	13.82
196.432	108.03
196.651	11.78
196.87	-47.62
197.089	249.34
197.308	65.02
197.528	101.89
197.747	-8.7
197.966	73.21
198.185	105.98
198.404	-27.14
198.623	144.89
198.842	185.85
199.062	118.27
199.281	105.98
199.5	71.17
199.719	75.26
199.938	112.13
200.157	34.3
200.376	69.12
200.595	77.31
200.814	77.31
201.033	-27.14
201.252	77.31
201.471	87.55
201.69	38.4
201.909	50.69
202.128	112.13
202.347	108.03
202.566	13.82
202.785	-6.66
203.004	9.73
203.223	292.35
203.442	62.98
203.661	22.02
203.879	95.74
204.098	89.6
204.317	13.82
204.536	108.03
204.755	101.89
204.974	202.24
205.193	-41.47
205.411	155.13
205.63	132.61
205.849	130.56
206.068	26.11
206.287	-29.18
206.505	214.52
206.724	54.78
206.943	11.78
207.162	40.45
207.381	118.27
207.599	-27.14
207.818	24.06
208.037	95.74
208.255	46.59
208.474	30.21
208.693	54.78
208.911	3.58
209.13	194.05
209.349	97.79
209.567	77.31
209.786	50.69
210.005	91.65
210.223	24.06
210.442	-119.29
210.661	93.69
210.879	169.47
211.098	95.74
211.316	71.17
211.535	62.98
211.753	134.65
211.972	89.6
212.191	22.02
212.409	26.11
212.628	52.74
212.846	15.87
213.065	30.21
213.283	177.66
213.502	81.41
213.72	7.68
213.938	91.65
214.157	50.69
214.375	114.17
214.594	-16.9
214.812	3.58
215.031	-27.14
215.249	114.17
215.467	17.92
215.686	54.78
215.904	26.11
216.122	71.17
216.341	69.12
216.559	52.74
216.778	99.84
216.996	177.66
217.214	-8.7
217.432	60.93
217.651	7.68
217.869	67.07
218.087	93.69
218.306	13.82
218.524	3.58
218.742	5.63
218.96	73.21
219.179	22.02
219.397	30.21
219.615	269.82
219.833	179.71
220.051	-55.81
220.27	148.99
220.488	89.6
220.706	40.45
220.924	-27.14
221.142	79.36
221.36	108.03
221.578	15.87
221.796	9.73
222.015	103.93
222.233	85.5
222.451	224.76
222.669	-23.04
222.887	159.23
223.105	-37.38
223.323	38.4
223.541	28.16
223.759	60.93
223.977	-37.38
224.195	179.71
224.413	67.07
224.631	50.69
224.849	1.54
225.067	280.06
225.285	32.26
225.503	-14.85
225.721	-92.67
225.939	-16.9
226.157	32.26
226.375	251.39
226.592	34.3
226.81	77.31
227.028	165.37
227.246	112.13
227.464	34.3
227.682	83.45
227.9	134.65
228.117	24.06
228.335	71.17
228.553	-12.8
228.771	97.79
228.989	-2.56
229.206	132.61
229.424	11.78
229.642	-33.28
229.86	-55.81
230.077	126.46
230.295	44.54
230.513	89.6
230.731	118.27
230.948	198.14
231.166	112.13
231.384	36.35
231.601	-10.75
231.819	138.75
232.037	73.21
232.254	-33.28
232.472	-8.7
232.689	40.45
232.907	151.04
233.125	30.21
233.342	-14.85
233.56	9.73
233.777	13.82
233.995	56.83
234.213	167.42
234.43	81.41
234.648	85.5
234.865	-10.75
235.083	97.79
235.3	50.69
235.518	200.19
235.735	136.7
235.953	105.98
236.17	62.98
236.388	56.83
236.605	15.87
236.822	95.74
237.04	67.07
237.257	85.5
237.475	-41.47
237.692	101.89
237.909	91.65
238.127	48.64
238.344	114.17
238.562	17.92
238.779	11.78
238.996	-41.47
239.214	136.7
239.431	40.45
239.648	-27.14
239.865	103.93
240.083	93.69
240.3	-25.09
240.517	22.02
240.735	99.84
240.952	175.61
241.169	122.37
241.386	60.93
241.603	52.74
241.821	-4.61
242.038	75.26
242.255	151.04
242.472	13.82
242.689	67.07
242.907	44.54
243.124	163.33
243.341	54.78
243.558	15.87
243.775	15.87
243.992	-57.86
244.209	99.84
244.426	161.28
244.643	105.98
244.86	105.98
245.078	151.04
245.295	163.33
245.512	34.3
245.729	3.58
245.946	93.69
246.163	87.55
246.38	48.64
246.597	118.27
246.814	11.78
247.031	167.42
247.248	36.35
247.464	87.55
247.681	3.58
247.898	85.5
248.115	40.45
248.332	-14.85
248.549	105.98
248.766	235
248.983	126.46
249.2	69.12
249.417	71.17
249.633	34.3
249.85	32.26
250.067	62.98
250.284	81.41
250.501	153.09
250.717	75.26
250.934	34.3
251.151	42.5
251.368	101.89
251.585	73.21
251.801	105.98
252.018	44.54
252.235	132.61
252.451	-37.38
252.668	-27.14
252.885	101.89
253.102	75.26
253.318	13.82
253.535	-2.56
253.752	40.45
253.968	30.21
254.185	15.87
254.401	22.02
254.618	101.89
254.835	13.82
255.051	142.85
255.268	52.74
255.484	71.17
255.701	34.3
255.917	36.35
256.134	5.63
256.351	89.6
256.567	-4.61
256.784	1.54
257	-14.85
257.217	122.37
257.433	200.19
257.65	91.65
257.866	177.66
258.082	-25.09
258.299	24.06
258.515	34.3
258.732	60.93
258.948	85.5
259.165	122.37
259.381	5.63
259.597	75.26
259.814	19.97
260.03	48.64
260.246	1.54
260.463	138.75
260.679	165.37
260.895	60.93
261.112	132.61
261.328	65.02
261.544	32.26
261.761	210.43
261.977	-8.7
262.193	-31.23
262.409	118.27
262.626	36.35
262.842	124.41
263.058	-12.8
263.274	73.21
263.49	87.55
263.707	44.54
263.923	91.65
264.139	-57.86
264.355	71.17
264.571	93.69
264.787	148.99
265.004	142.85
265.22	44.54
265.436	-37.38
265.652	28.16
265.868	38.4
266.084	-59.9
266.3	79.36
266.516	-84.48
266.732	116.22
266.948	85.5
267.164	60.93
267.38	101.89
267.596	140.8
267.812	165.37
268.028	-8.7
268.244	34.3
268.46	24.06
268.676	24.06
268.892	60.93
269.108	-25.09
269.324	62.98
269.54	30.21
269.756	128.51
269.972	-35.33
270.188	-4.61
270.403	15.87
270.619	91.65
270.835	126.46
271.051	32.26
271.267	46.59
271.483	-12.8
271.698	159.23
271.914	167.42
272.13	77.31
272.346	32.26
272.562	103.93
272.777	210.43
272.993	-4.61
273.209	44.54
273.425	114.17
273.64	-4.61
273.856	75.26
274.072	-27.14
274.287	11.78
274.503	79.36
274.719	108.03
274.934	15.87
275.15	11.78
275.366	-2.56
275.581	22.02
275.797	26.11
276.012	67.07
276.228	67.07
276.444	114.17
276.659	175.61
276.875	-31.23
277.09	89.6
277.306	40.45
277.521	93.69
277.737	89.6
277.952	169.47
278.168	89.6
278.383	75.26
278.599	83.45
278.814	83.45
279.03	22.02
279.245	71.17
279.461	1.54
279.676	144.89
279.892	-74.24
280.107	-31.23
280.322	3.58
280.538	81.41
280.753	-12.8
280.969	30.21
281.184	36.35
281.399	171.52
281.615	67.07
281.83	97.79
282.045	-37.38
282.26	-45.57
282.476	30.21
282.691	132.61
282.906	87.55
283.122	44.54
283.337	-35.33
283.552	60.93
283.767	58.88
283.983	124.41
284.198	-23.04
284.413	26.11
284.628	-49.66
284.843	71.17
285.058	91.65
285.274	34.3
285.489	-109.05
285.704	118.27
285.919	34.3
286.134	44.54
286.349	28.16
286.564	69.12
286.779	232.96
286.995	17.92
287.21	-47.62
287.425	65.02
287.64	-43.52
287.855	75.26
288.07	-49.66
288.285	161.28
288.5	120.32
288.715	71.17
288.93	17.92
289.145	34.3
289.36	126.46
289.575	-16.9
289.79	206.33
290.004	13.82
290.219	196.09
290.434	11.78
290.649	19.97
290.864	28.16
291.079	3.58
291.294	62.98
291.509	75.26
291.724	46.59
291.938	22.02
292.153	17.92
292.368	-20.99
292.583	89.6
292.798	85.5
293.012	81.41
293.227	81.41
293.442	24.06
293.657	52.74
293.871	87.55
294.086	108.03
294.301	103.93
294.516	126.46
294.73	56.83
294.945	9.73
295.16	54.78
295.374	159.23
295.589	128.51
295.804	36.35
296.018	87.55
296.233	81.41
296.447	124.41
296.662	34.3
296.877	130.56
297.091	52.74
297.306	87.55
297.52	7.68
297.735	71.17
297.949	5.63
298.164	79.36
298.378	3.58
298.593	-53.76
298.807	15.87
299.022	17.92
299.236	198.14
299.451	-0.51
299.665	-16.9
299.88	-4.61
300.094	99.84
300.309	15.87
300.523	87.55
300.737	46.59
300.952	65.02
301.166	60.93
301.381	5.63
301.595	-31.23
301.809	85.5
302.024	9.73
302.238	-29.18
302.452	189.95
302.667	67.07
302.881	148.99
303.095	89.6
303.309	30.21
303.524	-16.9
303.738	79.36
303.952	32.26
304.166	3.58
304.381	-25.09
304.595	126.46
304.809	-51.71
305.023	19.97
305.237	44.54
305.452	79.36
305.666	1.54
305.88	36.35
306.094	67.07
306.308	22.02
306.522	79.36
306.736	22.02
306.95	91.65
307.164	71.17
307.379	-57.86
307.593	140.8
307.807	79.36
308.021	144.89
308.235	101.89
308.449	-76.29
308.663	48.64
308.877	308.73
309.091	87.55
309.305	134.65
309.519	15.87
309.733	103.93
309.947	-2.56
310.161	161.28
310.374	132.61
310.588	71.17
310.802	22.02
311.016	1.54
311.23	128.51
311.444	-25.09
311.658	65.02
311.872	122.37
312.085	44.54
312.299	130.56
312.513	105.98
312.727	91.65
312.941	13.82
313.154	48.64
313.368	81.41
313.582	46.59
313.796	108.03
314.009	-51.71
314.223	122.37
314.437	81.41
314.651	85.5
314.864	-0.51
315.078	-20.99
315.292	-41.47
315.505	36.35
315.719	134.65
315.933	142.85
316.146	-0.51
316.36	-23.04
316.573	148.99
316.787	77.31
317.001	7.68
317.214	-51.71
317.428	116.22
317.641	-61.95
317.855	-4.61
318.068	-45.57
318.282	73.21
318.495	159.23
318.709	77.31
318.922	120.32
319.136	187.9
319.349	126.46
319.563	-55.81
319.776	48.64
319.99	-59.9
320.203	95.74
320.417	95.74
320.63	48.64
320.843	202.24
321.057	118.27
321.27	24.06
321.483	110.08
321.697	183.81
321.91	3.58
322.124	62.98
322.337	52.74
322.55	1.54
322.763	58.88
322.977	30.21
323.19	42.5
323.403	91.65
323.617	62.98
323.83	185.85
324.043	26.11
324.256	42.5
324.469	65.02
324.683	120.32
324.896	67.07
325.109	13.82
325.322	-23.04
325.535	163.33
325.748	75.26
325.962	22.02
326.175	151.04
326.388	67.07
326.601	112.13
326.814	11.78
327.027	5.63
327.24	116.22
327.453	-51.71
327.666	89.6
327.879	91.65
328.092	134.65
328.305	44.54
328.518	28.16
328.731	-37.38
328.944	-68.09
329.157	-4.61
329.37	38.4
329.583	226.81
329.796	253.44
330.009	3.58
330.222	148.99
330.435	108.03
330.648	112.13
330.861	54.78
331.073	112.13
331.286	110.08
331.499	-4.61
331.712	60.93
331.925	17.92
332.138	13.82
332.35	75.26
332.563	-8.7
332.776	148.99
332.989	-23.04
333.202	19.97
333.414	9.73
333.627	40.45
333.84	28.16
334.053	54.78
334.265	-8.7
334.478	54.78
334.691	-14.85
334.903	89.6
335.116	62.98
335.329	-14.85
335.541	65.02
335.754	185.85
335.966	24.06
336.179	71.17
336.392	62.98
336.604	-80.38
336.817	124.41
337.029	91.65
337.242	17.92
337.454	99.84
337.667	19.97
337.88	120.32
338.092	89.6
338.305	97.79
338.517	-41.47
338.729	77.31
338.942	163.33
339.154	-57.86
339.367	38.4
339.579	87.55
339.792	26.11
340.004	95.74
340.217	22.02
340.429	52.74
340.641	-18.94
340.854	28.16
341.066	103.93
341.278	136.7
341.491	148.99
341.703	42.5
341.915	11.78
342.128	46.59
342.34	112.13
342.552	-37.38
342.764	95.74
342.977	26.11
343.189	134.65
343.401	62.98
343.613	-72.19
343.826	89.6
344.038	-12.8
344.25	77.31
344.462	32.26
344.674	28.16
344.886	97.79
345.099	116.22
345.311	60.93
345.523	28.16
345.735	-39.42
345.947	36.35
346.159	130.56
346.371	67.07
346.583	32.26
346.795	271.87
347.007	34.3
347.219	118.27
347.431	44.54
347.643	167.42
347.855	40.45
348.067	138.75
348.279	17.92
348.491	77.31
348.703	198.14
348.915	-4.61
349.127	19.97
349.339	52.74
349.551	52.74
349.763	136.7
349.975	5.63
350.187	62.98
350.399	198.14
350.61	3.58
350.822	11.78
351.034	112.13
351.246	54.78
351.458	99.84
351.669	93.69
351.881	138.75
352.093	130.56
352.305	93.69
352.517	54.78
352.728	204.28
352.94	62.98
353.152	77.31
353.363	-16.9
353.575	73.21
353.787	198.14
353.999	-27.14
354.21	177.66
354.422	-4.61
354.633	85.5
354.845	26.11
355.057	79.36
355.268	192
355.48	101.89
355.692	-10.75
355.903	112.13
356.115	-51.71
356.326	-8.7
356.538	155.13
356.749	15.87
356.961	165.37
357.172	73.21
357.384	-25.09
357.595	214.52
357.807	15.87
358.018	24.06
358.23	-41.47
358.441	81.41
358.653	89.6
358.864	42.5
359.075	-14.85
359.287	62.98
359.498	171.52
359.709	67.07
359.921	48.64
360.132	91.65
360.344	22.02
360.555	30.21
360.766	9.73
360.977	-64
361.189	146.94
361.4	62.98
361.611	159.23
361.823	95.74
362.034	83.45
362.245	44.54
362.456	112.13
362.667	73.21
362.879	-43.52
363.09	44.54
363.301	40.45
363.512	112.13
363.723	3.58
363.935	-33.28
364.146	120.32
364.357	7.68
364.568	11.78
364.779	-68.09
364.99	194.05
365.201	19.97
365.412	146.94
365.623	-68.09
365.834	103.93
366.045	85.5
366.256	136.7
366.467	126.46
366.678	83.45
366.889	22.02
367.1	7.68
367.311	187.9
367.522	-8.7
367.733	142.85
367.944	24.06
368.155	24.06
368.366	144.89
368.577	134.65
368.788	69.12
368.999	-8.7
369.209	30.21
369.42	189.95
369.631	249.34
369.842	99.84
370.053	26.11
370.264	159.23
370.474	1.54
370.685	81.41
370.896	-10.75
371.107	151.04
371.317	103.93
371.528	60.93
371.739	151.04
371.95	9.73
372.16	112.13
372.371	-51.71
372.582	36.35
372.792	28.16
373.003	26.11
373.214	138.75
373.424	91.65
373.635	-14.85
373.846	136.7
374.056	69.12
374.267	50.69
374.477	83.45
374.688	-0.51
374.898	48.64
375.109	159.23
375.319	89.6
375.53	181.76
375.74	26.11
375.951	3.58
376.161	138.75
376.372	118.27
376.582	40.45
376.793	99.84
377.003	-33.28
377.214	-4.61
377.424	77.31
377.635	56.83
377.845	9.73
378.055	118.27
378.266	-27.14
378.476	118.27
378.686	30.21
378.897	26.11
379.107	79.36
379.317	93.69
379.528	71.17
379.738	126.46
379.948	-8.7
380.158	50.69
380.369	30.21
380.579	89.6
380.789	77.31
380.999	34.3
381.21	91.65
381.42	218.62
381.63	-12.8
381.84	112.13
382.05	81.41
382.261	136.7
382.471	101.89
382.681	-6.66
382.891	126.46
383.101	67.07
383.311	19.97
383.521	103.93
383.731	75.26
383.941	132.61
384.151	38.4
384.361	97.79
384.571	136.7
384.781	54.78
384.991	192
385.201	142.85
385.411	159.23
385.621	85.5
385.831	95.74
386.041	114.17
386.251	67.07
386.461	165.37
386.671	44.54
386.881	58.88
387.091	85.5
387.301	138.75
387.511	95.74
387.72	42.5
387.93	173.57
388.14	40.45
388.35	28.16
388.56	83.45
388.769	177.66
388.979	56.83
389.189	30.21
389.399	7.68
389.609	65.02
389.818	65.02
390.028	105.98
390.238	83.45
390.447	-0.51
390.657	54.78
390.867	93.69
391.076	-35.33
391.286	62.98
391.496	11.78
391.705	83.45
391.915	71.17
392.125	114.17
392.334	75.26
392.544	146.94
392.753	75.26
392.963	-37.38
393.172	38.4
393.382	-2.56
393.591	212.48
393.801	81.41
394.01	181.76
394.22	67.07
394.429	73.21
394.639	62.98
394.848	110.08
395.058	28.16
395.267	-25.09
395.477	81.41
395.686	50.69
395.895	267.77
396.105	165.37
396.314	91.65
396.524	44.54
396.733	28.16
396.942	83.45
397.152	65.02
397.361	140.8
397.57	126.46
397.78	75.26
397.989	114.17
398.198	216.57
398.407	83.45
398.617	50.69
398.826	48.64
399.035	34.3
399.244	110.08
399.453	54.78
399.663	19.97
399.872	85.5
400.081	54.78
400.29	128.51
400.499	11.78
400.708	171.52
400.917	87.55
401.127	108.03
401.336	24.06
401.545	212.48
401.754	132.61
401.963	157.18
402.172	-37.38
402.381	-45.57
402.59	91.65
402.799	93.69
403.008	132.61
403.217	83.45
403.426	3.58
403.635	50.69
403.844	110.08
404.053	44.54
404.262	34.3
404.471	155.13
404.68	48.64
404.888	77.31
405.097	-4.61
405.306	83.45
405.515	89.6
405.724	89.6
405.933	146.94
406.142	28.16
406.35	103.93
406.559	-16.9
406.768	48.64
406.977	167.42
407.185	110.08
407.394	50.69
407.603	3.58
407.812	62.98
408.02	146.94
408.229	71.17
408.438	122.37
408.646	17.92
408.855	9.73
409.064	83.45
409.272	-10.75
409.481	87.55
409.69	36.35
409.898	17.92
410.107	22.02
410.315	67.07
410.524	-37.38
410.733	73.21
410.941	32.26
411.15	138.75
411.358	38.4
411.567	132.61
411.775	99.84
411.984	83.45
412.192	120.32
412.401	32.26
412.609	175.61
412.818	99.84
413.026	87.55
413.234	79.36
413.443	-0.51
413.651	44.54
413.86	75.26
414.068	122.37
414.276	169.47
414.485	28.16
414.693	222.72
414.901	177.66
415.11	105.98
415.318	114.17
415.526	50.69
415.734	97.79
415.943	91.65
416.151	181.76
416.359	-4.61
416.567	118.27
416.776	134.65
416.984	79.36
417.192	226.81
417.4	118.27
417.608	-23.04
417.817	-29.18
418.025	181.76
418.233	114.17
418.441	-23.04
418.649	32.26
418.857	34.3
419.065	101.89
419.273	-70.14
419.481	79.36
419.689	13.82
419.897	40.45
420.105	-33.28
420.313	46.59
420.521	183.81
420.729	173.57
420.937	3.58
421.145	5.63
421.353	161.28
421.561	169.47
421.769	40.45
421.977	32.26
422.185	142.85
422.393	97.79
422.601	134.65
422.809	110.08
423.017	19.97
423.224	108.03
423.432	167.42
423.64	79.36
423.848	167.42
424.056	32.26
424.263	103.93
424.471	28.16
424.679	187.9
424.887	75.26
425.094	122.37
425.302	-2.56
425.51	71.17
425.718	124.41
425.925	97.79
426.133	-31.23
426.341	204.28
426.548	50.69
426.756	69.12
426.964	108.03
427.171	44.54
427.379	136.7
427.586	19.97
427.794	151.04
428.001	163.33
428.209	114.17
428.417	187.9
428.624	73.21
428.832	175.61
429.039	132.61
429.247	13.82
429.454	146.94
429.662	198.14
429.869	79.36
430.076	89.6
430.284	224.76
430.491	243.2
430.699	165.37
430.906	251.39
431.114	169.47
431.321	175.61
431.528	108.03
431.736	171.52
431.943	163.33
432.15	140.8
432.358	175.61
432.565	214.52
432.772	15.87
432.979	183.81
433.187	120.32
433.394	271.87
433.601	103.93
433.808	177.66
434.016	273.92
434.223	206.33
434.43	161.28
434.637	325.12
434.844	284.16
435.052	228.86
435.259	173.57
435.466	261.63
435.673	222.72
435.88	263.68
436.087	273.92
436.294	310.78
436.501	343.55
436.708	216.57
436.915	288.25
437.122	312.83
437.329	235
437.537	280.06
437.743	290.3
437.95	359.93
438.157	329.21
438.364	398.84
438.571	368.12
438.778	355.83
438.985	464.38
439.192	411.13
439.399	298.49
439.606	419.32
439.813	466.42
440.02	548.34
440.227	593.4
440.433	488.95
440.64	499.19
440.847	466.42
441.054	529.91
441.261	624.12
441.467	597.49
441.674	505.34
441.881	648.69
442.088	673.27
442.294	603.64
442.501	699.89
442.708	640.5
442.914	732.66
443.121	765.43
443.328	818.68
443.534	787.96
443.741	726.52
443.948	699.89
444.154	884.21
444.361	1037.81
444.568	953.84
444.774	939.51
444.981	861.68
445.187	1015.28
445.394	949.75
445.6	988.66
445.807	1123.82
446.013	1127.92
446.22	1099.25
446.426	1263.08
446.633	1269.23
446.839	1457.64
447.046	1254.89
447.252	1449.45
447.459	1385.96
447.665	1431.02
447.871	1662.44
448.078	1783.27
448.284	1588.71
448.491	1805.8
448.697	1768.93
448.903	1914.34
449.11	1900
449.316	1857
449.522	2242.01
449.728	2149.86
449.935	2235.87
450.141	2227.68
450.347	2524.63
450.553	2346.46
450.76	2432.47
450.966	2604.5
451.172	2602.46
451.378	2676.18
451.584	2727.38
451.791	3106.26
451.997	3063.25
452.203	3046.87
452.409	3376.59
452.615	3515.85
452.821	3327.44
453.027	3352.01
453.233	3876.29
453.44	3665.35
453.646	3888.58
453.852	4007.36
454.058	4165.06
454.264	4240.83
454.47	4552.12
454.676	4711.86
454.882	4904.37
455.088	4795.83
455.294	5072.31
455.5	5512.62
455.705	5801.38
455.911	5721.51
456.117	5729.7
456.323	6200.74
456.529	6229.41
456.735	6567.32
456.941	6923.67
457.147	7196.05
457.352	7339.41
457.558	7470.48
457.764	7894.41
457.97	8168.84
458.176	8467.84
458.381	8908.15
458.587	9100.66
458.793	9553.26
458.999	9516.4
459.204	10788.19
459.41	10913.11
459.616	10866.01
459.821	11631.95
460.027	11969.87
460.233	12426.56
460.438	12346.69
460.644	13581.62
460.85	13421.88
461.055	14060.84
461.261	14828.83
461.466	14179.62
461.672	14697.76
461.878	16203.02
462.083	16395.53
462.289	16727.3
462.494	17239.29
462.7	17081.6
462.905	17689.84
463.111	19066.08
463.316	19588.31
463.522	19956.94
463.727	20720.84
463.932	21730.48
464.138	22424.75
464.343	23053.47
464.549	23438.49
464.754	24851.59
464.959	25656.44
465.165	26094.71
465.37	25959.54
465.575	25830.52
465.781	27753.56
465.986	28617.8
466.191	28138.58
466.397	28427.34
466.602	27888.73
466.807	29400.13
467.012	29776.95
467.218	30460.98
467.423	30264.37
467.628	31345.7
467.833	32713.74
468.038	32185.36
468.244	31255.59
468.449	33242.12
468.654	32934.92
468.859	32787.47
469.064	32554
469.269	31790.11
469.474	32252.95
469.679	33213.45
469.885	32259.09
470.09	32529.42
470.295	33057.8
470.5	32087.06
470.705	32298
470.91	31214.63
471.115	31667.23
471.32	31536.16
471.525	31355.94
471.73	30063.67
471.935	30129.2
472.139	28847.18
472.344	29062.21
472.549	28714.06
472.754	28341.33
472.959	27765.85
473.164	26999.91
473.369	26635.37
473.574	27198.56
473.778	26330.22
473.983	26199.15
474.188	25398.4
474.393	24605.83
474.598	24646.79
474.802	23809.17
475.007	23520.41
475.212	23737.49
475.417	22437.03
475.621	22084.78
475.826	22013.1
476.031	21263.55
476.235	20929.73
476.44	21118.14
476.645	20333.77
476.849	20194.51
477.054	19952.85
477.259	19195.1
477.463	19342.55
477.668	18777.31
477.872	19129.56
478.077	18361.58
478.282	17728.75
478.486	17581.3
478.691	17683.7
478.895	17274.1
479.1	17386.74
479.304	17063.16
479.509	16258.31
479.713	16606.47
479.918	16459.01
480.122	16168.2
480.326	16028.94
480.531	16383.24
480.735	15797.52
480.94	15394.07
481.144	16176.39
481.348	15455.51
481.553	15451.41
481.757	15033.63
481.961	15215.9
482.166	15164.7
482.37	15086.87
482.574	14783.77
482.778	14728.48
482.983	14757.15
483.187	14523.68
483.391	14228.77
483.595	14343.46
483.8	14298.41
484.004	14253.35
484.208	13870.38
484.412	13794.61
484.616	13804.85
484.821	13694.26
485.025	13194.55
485.229	13188.41
485.433	12827.96
485.637	12737.85
485.841	12801.34
486.045	12690.75
486.249	12479.81
486.453	12346.69
486.657	12035.4
486.861	11787.6
487.065	11574.61
487.269	11547.98
487.473	11054.42
487.677	11267.41
487.881	11156.82
488.085	10890.59
488.289	10870.11
488.493	10411.36
488.697	10526.05
488.901	10339.68
489.105	10050.92
489.309	9837.93
489.512	9686.38
489.716	9450.86
489.92	9573.74
490.124	9186.68
490.328	9280.88
490.531	8807.8
490.735	8906.1
490.939	8584.57
491.143	8457.6
491.346	8209.79
491.55	8271.23
491.754	8058.25
491.958	7822.73
492.161	7742.86
492.365	7669.13
492.569	7337.36
492.772	7349.65
492.976	7495.05
493.18	7310.74
493.383	7169.43
493.587	7062.93
493.79	7017.88
493.994	6817.18
494.197	6864.28
494.401	6784.41
494.605	6456.73
494.808	6626.71
495.012	6524.32
495.215	6602.14
495.419	6536.6
495.622	6294.94
495.825	6516.12
496.029	6327.71
496.232	6450.59
496.436	6383.01
496.639	6421.92
496.843	6223.27
497.046	6315.42
497.249	6450.59
497.453	6305.18
497.656	6321.57
497.859	6335.9
498.063	6319.52
498.266	6518.17
498.469	6112.67
498.673	6192.55
498.876	6403.49
499.079	6348.19
499.282	6378.91
499.485	6708.63
499.689	6450.59
499.892	6712.73
500.095	6466.97
500.298	6673.82
500.501	6575.52
500.705	6698.39
500.908	6743.45
501.111	6741.4
501.314	6880.66
501.517	6901.14
501.72	7071.12
501.923	7171.47
502.126	7134.61
502.329	7406.99
502.532	7396.75
502.735	7300.5
502.938	7419.28
503.141	7556.49
503.344	7503.25
503.547	7728.52
503.75	7638.41
503.953	7896.46
504.156	7959.94
504.359	8138.12
504.562	8060.29
504.765	8275.33
504.968	8586.62
505.17	8600.96
505.373	8631.68
505.576	8818.04
505.779	8963.45
505.982	8934.78
506.185	9155.96
506.387	9356.66
506.59	9647.47
506.793	9704.81
506.996	9856.36
507.198	10134.89
507.401	10268
507.604	10528.1
507.807	10771.8
508.009	11044.18
508.212	11097.43
508.415	11339.09
508.617	11449.68
508.82	11486.54
509.022	11902.28
509.225	12010.82
509.428	12621.12
509.63	12680.51
509.833	12916.03
510.035	13358.39
510.238	13403.44
510.44	13737.26
510.643	13935.92
510.845	14679.33
511.048	14421.28
511.25	14953.76
511.453	14968.09
511.655	15920.4
511.858	16008.46
512.06	16424.2
512.262	16747.78
512.465	16790.78
512.667	17388.79
512.87	17667.31
513.072	18068.72
513.274	18511.08
513.477	18916.58
513.679	19291.35
513.881	20002
514.084	20477.13
514.286	20591.81
514.488	20976.83
514.69	21888.18
514.893	22324.4
515.095	22641.83
515.297	22791.33
515.499	23192.73
515.701	23794.84
515.904	24663.18
516.106	25013.38
516.308	25951.35
516.51	26008.69
516.712	26229.87
516.914	26797.16
517.116	27534.43
517.318	28204.11
517.52	28437.58
517.722	28777.54
517.925	29267.01
518.127	30090.29
518.329	30833.71
518.531	30835.75
518.733	31636.51
518.935	32285.72
519.136	32742.41
519.338	32861.19
519.54	33934.33
519.742	34032.63
519.944	34722.8
520.146	35341.28
520.348	35730.4
520.55	36244.44
520.752	36238.3
520.954	36793.29
521.155	36910.03
521.357	37839.81
521.559	38239.16
521.761	38982.57
521.963	39076.78
522.164	39263.14
522.366	39764.9
522.568	40448.92
522.77	40285.08
522.971	40989.58
523.173	40700.82
523.375	41646.98
523.576	41620.36
523.778	41472.9
523.98	42042.24
524.181	42308.47
524.383	42214.27
524.584	42910.58
524.786	42513.27
524.988	42263.42
525.189	43350.89
525.391	43195.24
525.592	42883.95
525.794	43213.68
525.995	42701.68
526.197	42709.88
526.398	42890.1
526.6	42845.04
526.801	42877.81
527.003	42750.84
527.204	42423.16
527.406	42931.06
527.607	42380.15
527.808	42232.7
528.01	41835.39
528.211	41511.81
528.412	41841.54
528.614	41290.63
528.815	40711.06
529.016	41307.02
529.218	40547.22
529.419	40371.1
529.62	39732.13
529.822	39408.55
530.023	39082.92
530.224	38904.75
530.425	38269.88
530.626	37802.94
530.828	37505.99
531.029	37729.22
531.23	36877.26
531.431	36191.19
531.632	36539.35
531.833	35955.68
532.035	35165.16
532.236	35044.33
532.437	34776.05
532.638	33950.71
532.839	33967.1
533.04	33541.12
533.241	32771.08
533.442	32957.45
533.643	32109.59
533.844	31616.03
534.045	31286.31
534.246	30667.82
534.447	30772.27
534.648	30069.81
534.849	29721.66
535.05	29107.27
535.251	28931.14
535.451	28589.13
535.652	28116.05
535.853	27884.63
536.054	27663.45
536.255	27100.26
536.456	26262.64
536.657	26913.89
536.857	26027.12
537.058	25656.44
537.259	25349.25
537.46	24870.02
537.66	24513.67
537.861	24302.73
538.062	23882.9
538.263	23397.53
538.463	23397.53
538.664	23329.95
538.865	22992.03
539.065	22996.13
539.266	22047.92
539.466	21953.71
539.667	21689.53
539.868	21861.55
540.068	21456.06
540.269	20827.33
540.469	20841.67
540.67	20497.61
540.87	20440.26
541.071	19961.04
541.271	19782.87
541.472	19821.78
541.672	19582.17
541.873	18998.49
542.073	18400.49
542.274	18771.17
542.474	18621.67
542.675	18136.3
542.875	18144.49
543.075	17628.4
543.276	17480.95
543.476	17575.16
543.676	17016.06
543.877	16991.48
544.077	17032.44
544.277	16755.97
544.478	16338.18
544.678	16155.91
544.878	15930.64
545.078	15764.75
545.279	15674.64
545.479	15531.28
545.679	15609.11
545.879	15090.97
546.079	15127.83
546.28	14691.62
546.48	14789.92
546.68	14568.74
546.88	14476.58
547.08	14370.08
547.28	13917.48
547.48	13858.09
547.68	13911.34
547.88	13350.2
548.081	13473.07
548.281	13022.52
548.481	12948.79
548.681	12881.21
548.881	12811.58
549.081	12758.33
549.28	12322.12
549.48	12100.94
549.68	12229.96
549.88	12055.88
550.08	11642.19
550.28	11572.56
550.48	11611.47
550.68	11416.91
550.88	11226.45
551.08	11025.75
551.279	10882.39
551.479	10470.75
551.679	10591.58
551.879	10317.15
552.079	10247.52
552.278	10071.4
552.478	10071.4
552.678	9766.25
552.878	9715.05
553.077	9487.73
553.277	9287.03
553.477	9065.85
553.676	8906.1
553.876	8979.83
554.076	8715.64
554.275	8445.31
554.475	8265.09
554.674	8371.58
554.874	8271.23
555.074	7880.07
555.273	7994.76
555.473	7689.61
555.672	8000.9
555.872	7597.45
556.071	7431.57
556.271	7427.47
556.47	7136.66
556.67	7028.12
556.869	6938.01
557.068	6757.78
557.268	6585.76
557.467	6739.35
557.667	6614.43
557.866	6448.54
558.065	6348.19
558.265	6200.74
558.464	5997.99
558.663	6067.62
558.863	5989.8
559.062	6036.9
559.261	5670.31
559.461	5680.55
559.66	5567.92
559.859	5445.04
560.058	5301.68
560.258	5221.81
560.457	5088.69
560.656	5356.97
560.855	4965.81
561.054	5219.76
561.253	4855.22
561.453	4969.91
561.652	4857.27
561.851	4779.45
562.05	4439.48
562.249	4421.05
562.448	4537.79
562.647	4314.56
562.846	4173.25
563.045	4298.17
563.244	4093.38
563.443	4193.73
563.642	3993.03
563.841	4019.65
564.04	3927.49
564.239	3933.64
564.438	3919.3
564.637	3687.88
564.836	3706.31
565.035	3737.03
565.234	3571.15
565.432	3540.43
565.631	3610.06
565.83	3468.75
566.029	3384.78
566.228	3446.22
566.427	3442.12
566.625	3194.32
566.824	3225.04
567.023	3132.88
567.222	3184.08
567.42	3010
567.619	3128.78
567.818	3171.79
568.016	3053.01
568.215	2872.79
568.414	2964.95
568.612	2794.97
568.811	2780.63
569.01	2704.85
569.208	2704.85
569.407	2711
569.605	2661.85
569.804	2614.74
570.002	2522.59
570.201	2383.32
570.4	2444.76
570.598	2354.65
570.797	2414.04
570.995	2334.17
571.193	2313.69
571.392	2330.08
571.59	2225.63
571.789	2362.84
571.987	2203.1
572.186	2184.67
572.384	2018.79
572.582	2029.03
572.781	2180.57
572.979	1977.83
573.177	2047.46
573.376	2004.45
573.574	2072.03
573.772	1910.24
573.971	1807.84
574.169	1797.6
574.367	1832.42
574.565	1695.21
574.763	1906.15
574.962	1760.74
575.16	1611.24
575.358	1652.2
575.556	1648.1
575.754	1654.25
575.952	1668.58
576.151	1629.67
576.349	1682.92
576.547	1557.99
576.745	1537.51
576.943	1402.35
577.141	1390.06
577.339	1396.2
577.537	1453.55
577.735	1496.55
577.933	1420.78
578.131	1299.95
578.329	1371.63
578.527	1211.89
578.725	1226.22
578.923	1222.13
579.121	1275.37
579.319	1115.63
579.516	1086.96
579.714	1349.1
579.912	1220.08
580.11	1033.71
580.308	1025.52
580.506	1105.39
580.704	972.27
580.901	1048.05
581.099	1254.89
581.297	1119.73
581.495	1013.23
581.692	1082.86
581.89	1162.73
582.088	1043.95
582.285	988.66
582.483	982.51
582.681	1029.62
582.878	916.98
583.076	1031.66
583.274	986.61
583.471	1091.06
583.669	781.81
583.866	833.01
584.064	798.2
584.262	792.05
584.459	847.35
584.657	964.08
584.854	943.6
585.052	810.48
585.249	882.16
585.447	749.04
585.644	697.85
585.841	794.1
586.039	771.57
586.236	798.2
586.434	699.89
586.631	677.37
586.828	679.41
587.026	681.46
587.223	679.41
587.42	589.3
587.618	757.24
587.815	730.61
588.012	738.8
588.21	609.78
588.407	683.51
588.604	681.46
588.801	620.02
588.999	581.11
589.196	718.33
589.393	587.26
589.59	673.27
589.787	632.31
589.984	675.32
590.182	517.62
590.379	517.62
590.576	568.82
590.773	482.81
590.97	546.3
591.167	667.13
591.364	607.73
591.561	613.88
591.758	769.52
591.955	656.89
592.152	589.3
592.349	570.87
592.546	587.26
592.743	486.9
592.94	536.06
593.137	728.56
593.334	703.99
593.531	591.35
593.727	560.63
593.924	593.4
594.121	615.93
594.318	523.77
594.515	656.89
594.712	650.74
594.908	636.41
595.105	478.71
595.302	673.27
595.499	638.45
595.696	790
595.892	589.3
596.089	695.8
596.286	611.83
596.482	790
596.679	732.66
596.876	683.51
597.072	794.1
597.269	646.65
597.466	771.57
597.662	724.47
597.859	699.89
598.055	798.2
598.252	863.73
598.448	957.94
598.645	1027.57
598.841	980.47
599.038	1050.1
599.234	1109.49
599.431	1154.54
599.627	1107.44
599.824	1142.25
600.02	1185.26
600.217	1160.69
600.413	1123.82
600.609	1283.56
600.806	1553.9
601.002	1330.67
601.198	1394.15
601.395	1519.08
601.591	1467.88
601.787	1635.82
601.984	1584.62
602.18	1637.86
602.376	1811.94
602.572	1938.91
602.769	2045.41
602.965	1994.21
603.161	2061.79
603.357	2129.38
603.553	2272.73
603.75	2170.33
603.946	2389.47
604.142	2342.36
604.338	2551.26
604.534	2491.87
604.73	2551.26
604.926	2680.28
605.122	3005.91
605.318	2794.97
605.514	3134.93
605.71	3003.86
605.906	3114.45
606.102	3302.86
606.298	3585.48
606.494	3583.43
606.69	3708.36
606.886	3691.98
607.082	3870.15
607.278	3833.29
607.474	3833.29
607.67	4146.62
607.866	4206.02
608.062	4304.32
608.257	4539.83
608.453	4505.02
608.649	4679.1
608.845	4683.19
609.041	4910.52
609.236	5148.08
609.432	5264.82
609.628	5238.19
609.824	5473.71
610.019	5543.34
610.215	5668.27
610.411	6032.8
610.606	6043.04
610.802	6225.31
610.998	6452.64
611.193	6622.62
611.389	6727.07
611.584	7046.55
611.78	7206.29
611.976	7114.13
612.171	7632.27
612.367	7847.3
612.562	7839.11
612.758	7980.42
612.953	8011.14
613.149	8564.09
613.344	8707.45
613.539	8836.47
613.735	9321.84
613.93	9469.3
614.126	9432.43
614.321	10032.49
614.517	10233.19
614.712	10388.83
614.907	10589.53
615.103	10931.55
615.298	11148.63
615.493	11345.23
615.688	11566.42
615.884	12143.94
616.079	12334.4
616.274	12760.38
616.47	13079.86
616.665	13428.02
616.86	13462.83
617.055	13970.73
617.25	14347.56
617.445	14896.41
617.641	15013.15
617.836	15562
618.031	15514.9
618.226	16438.53
618.421	16348.42
618.616	17173.75
618.811	17179.9
619.006	17671.41
619.201	18173.16
619.396	18349.29
619.591	18865.38
619.786	19498.2
619.981	19573.97
620.176	20389.06
620.371	20303.05
620.566	20939.97
620.761	21646.52
620.956	22275.24
621.151	21761.2
621.346	22744.23
621.541	22910.11
621.735	23676.05
621.93	23915.67
622.125	24239.25
622.32	24677.51
622.515	25259.13
622.709	25715.83
622.904	26197.1
623.099	26799.21
623.294	27190.37
623.488	27106.4
623.683	28081.24
623.878	28296.27
624.072	29004.87
624.267	29375.55
624.462	29989.94
624.656	29948.98
624.851	30651.44
625.046	30942.25
625.24	31513.63
625.435	31798.3
625.629	32273.43
625.824	32930.83
626.018	33188.87
626.213	32930.83
626.407	33907.71
626.602	33723.39
626.796	34720.75
626.991	35122.15
627.185	35404.77
627.38	35427.3
627.574	35169.26
627.768	35703.78
627.963	36105.18
628.157	36238.3
628.352	36500.44
628.546	36004.83
628.74	36705.23
628.935	36219.86
629.129	36148.18
629.323	36029.4
629.517	35490.79
629.712	35423.2
629.906	35527.65
630.1	34763.76
630.294	34817
630.489	34132.98
630.683	34417.65
630.877	32930.83
631.071	32943.11
631.265	32480.27
631.459	31855.64
631.653	31056.93
631.848	30590
632.042	29654.08
632.236	29193.28
632.43	28085.33
632.624	27513.95
632.818	26784.87
633.012	25953.4
633.206	25162.88
633.4	24409.23
633.594	23313.56
633.788	22627.49
633.982	22191.28
634.176	21169.34
634.369	20495.56
634.563	19965.14
634.757	19004.64
634.951	18517.22
635.145	17583.35
635.339	16884.99
635.533	16248.07
635.726	15818
635.92	15045.91
636.114	14216.49
636.308	13722.93
636.501	13204.79
636.695	12651.84
636.889	12184.9
637.083	11830.6
637.276	11062.62
637.47	10769.76
637.664	10261.86
637.857	9844.07
638.051	9414
638.244	9176.44
638.438	8691.07
638.632	8584.57
638.825	8064.39
639.019	7910.79
639.212	7337.36
639.406	7265.68
639.599	6837.66
639.793	6718.87
639.986	6438.3
640.18	6301.09
640.373	5805.48
640.567	5846.44
640.76	5408.17
640.954	5139.89
641.147	5021.11
641.34	4869.56
641.534	4773.3
641.727	4572.6
641.92	4318.65
642.114	4173.25
642.307	3962.31
642.5	3923.4
642.694	3685.83
642.887	3528.14
643.08	3491.27
643.273	3354.06
643.467	3194.32
643.66	3059.15
643.853	2948.56
644.046	2911.7
644.239	2735.57
644.432	2618.84
644.626	2528.73
644.819	2364.89
645.012	2401.76
645.205	2319.84
645.398	2317.79
645.591	1981.92
645.784	1953.25
645.977	1828.32
646.17	1859.04
646.363	1789.41
646.556	1699.3
646.749	1525.22
646.942	1633.77
647.135	1568.23
647.328	1424.87
647.521	1400.3
647.714	1381.87
647.907	1338.86
648.099	1269.23
648.292	1392.11
648.485	1181.17
648.678	1156.59
648.871	1103.34
649.064	1056.24
649.256	925.17
649.449	976.37
649.642	839.16
649.835	839.16
650.027	912.88
650.22	951.79
650.413	824.82
650.605	859.63
650.798	712.18
650.991	689.65
651.183	787.96
651.376	675.32
651.568	667.13
651.761	648.69
651.954	728.56
652.146	626.17
652.339	703.99
652.531	724.47
652.724	509.43
652.916	609.78
653.109	396.79
653.301	562.68
653.494	601.59
653.686	550.39
653.879	599.54
654.071	488.95
654.263	437.75
654.456	480.76
654.648	540.15
654.84	425.47
655.033	351.74
655.225	552.44
655.417	296.44
655.61	460.28
655.802	390.65
655.994	445.95
656.186	249.34
656.379	454.14
656.571	327.16
656.763	288.25
656.955	292.35
657.148	318.97
657.34	435.71
657.532	364.03
657.724	273.92
657.916	323.07
658.108	392.7
658.3	253.44
658.492	300.54
658.684	218.62
658.876	284.16
659.068	208.38
659.26	175.61
659.452	218.62
659.644	253.44
659.836	308.73
660.028	255.48
660.22	192
660.412	220.67
660.604	194.05
660.796	296.44
660.988	335.35
661.18	189.95
661.372	239.1
661.563	118.27
661.755	237.05
661.947	112.13
662.139	194.05
662.331	204.28
662.522	232.96
662.714	167.42
662.906	183.81
663.097	138.75
663.289	151.04
663.481	73.21
663.673	208.38
663.864	118.27
664.056	216.57
664.247	77.31
664.439	226.81
664.631	218.62
664.822	181.76
665.014	202.24
665.205	171.52
665.397	192
665.588	112.13
665.78	187.9
665.971	237.05
666.163	155.13
666.354	202.24
666.546	157.18
666.737	171.52
666.929	216.57
667.12	157.18
667.311	249.34
667.503	118.27
667.694	85.5
667.885	196.09
668.077	206.33
668.268	62.98
668.459	206.33
668.651	179.71
668.842	192
669.033	110.08
669.224	151.04
669.416	339.45
669.607	165.37
669.798	52.74
669.989	177.66
670.18	138.75
670.371	259.58
670.563	60.93
670.754	265.72
670.945	185.85
671.136	224.76
671.327	34.3
671.518	220.67
671.709	343.55
671.9	224.76
672.091	284.16
672.282	103.93
672.473	130.56
672.664	112.13
672.855	210.43
673.046	243.2
673.237	292.35
673.428	54.78
673.619	304.64
673.809	222.72
674	263.68
674.191	273.92
674.382	177.66
674.573	226.81
674.764	239.1
674.954	290.3
675.145	122.37
675.336	204.28
675.527	192
675.717	163.33
675.908	148.99
676.099	163.33
676.289	153.09
676.48	99.84
676.671	228.86
676.861	171.52
677.052	247.29
677.243	169.47
677.433	122.37
677.624	355.83
677.814	216.57
678.005	155.13
678.195	329.21
678.386	122.37
678.576	316.92
678.767	136.7
678.957	237.05
679.148	292.35
679.338	351.74
679.529	249.34
679.719	183.81
679.909	278.01
680.1	257.53
680.29	269.82
680.481	138.75
680.671	333.31
680.861	241.15
681.052	235
681.242	138.75
681.432	314.88
681.622	232.96
681.813	171.52
682.003	235
682.193	89.6
682.383	284.16
682.573	253.44
682.764	146.94
682.954	280.06
683.144	318.97
683.334	165.37
683.524	204.28
683.714	271.87
683.904	321.02
684.094	224.76
684.284	198.14
684.474	333.31
684.664	341.5
684.854	282.11
685.044	265.72
685.234	316.92
685.424	366.07
685.614	224.76
685.804	357.88
685.994	220.67
686.184	194.05
686.374	327.16
686.564	249.34
686.753	306.68
686.943	175.61
687.133	312.83
687.323	218.62
687.513	351.74
687.702	263.68
687.892	275.96
688.082	335.35
688.272	321.02
688.461	253.44
688.651	474.62
688.841	335.35
689.03	292.35
689.22	224.76
689.41	333.31
689.599	286.2
689.789	185.85
689.979	302.59
690.168	185.85
690.358	257.53
690.547	245.24
690.737	298.49
690.926	183.81
691.116	261.63
691.305	345.59
691.495	425.47
691.684	187.9
691.874	183.81
692.063	302.59
692.252	390.65
692.442	286.2
692.631	196.09
692.82	204.28
693.01	343.55
693.199	241.15
693.388	257.53
693.578	282.11
693.767	284.16
693.956	306.68
694.146	241.15
694.335	300.54
694.524	226.81
694.713	275.96
694.902	300.54
695.092	202.24
695.281	282.11
695.47	192
695.659	228.86
695.848	269.82
696.037	192
696.226	310.78
696.415	237.05
696.604	308.73
696.793	357.88
696.982	241.15
697.171	347.64
697.36	200.19
697.549	271.87
697.738	126.46
697.927	204.28
698.116	175.61
698.305	249.34
698.494	273.92
698.683	151.04
698.872	376.31
699.061	257.53
699.25	192
699.438	257.53
699.627	138.75
699.816	413.18
700.005	112.13
700.193	290.3
700.382	337.4
700.571	278.01
700.76	251.39
700.948	355.83
701.137	333.31
701.326	251.39
701.514	202.24
701.703	284.16
701.892	218.62
702.08	380.41
702.269	216.57
702.457	271.87
702.646	339.45
702.834	159.23
703.023	282.11
703.212	314.88
703.4	198.14
703.589	210.43
703.777	189.95
703.965	116.22
704.154	245.24
704.342	167.42
704.531	220.67
704.719	202.24
704.907	278.01
705.096	210.43
705.284	163.33
705.472	286.2
705.661	327.16
705.849	204.28
706.037	310.78
706.226	230.91
706.414	255.48
706.602	93.69
706.79	249.34
706.979	253.44
707.167	226.81
707.355	228.86
707.543	273.92
707.731	243.2
707.919	247.29
708.107	271.87
708.296	142.85
708.484	142.85
708.672	267.77
708.86	245.24
709.048	228.86
709.236	189.95
709.424	241.15
709.612	314.88
709.8	112.13
709.988	216.57
710.176	290.3
710.364	318.97
710.551	249.34
710.739	185.85
710.927	259.58
711.115	282.11
711.303	325.12
711.491	390.65
711.679	194.05
711.866	292.35
712.054	208.38
712.242	253.44
712.43	409.08
712.617	259.58
712.805	218.62
712.993	212.48
713.181	169.47
713.368	273.92
713.556	239.1
713.744	202.24
713.931	364.03
714.119	335.35
714.306	202.24
714.494	230.91
714.682	249.34
714.869	204.28
715.057	202.24
715.244	169.47
715.432	306.68
715.619	273.92
715.807	257.53
715.994	239.1
716.182	237.05
716.369	300.54
716.556	298.49
716.744	212.48
716.931	110.08
717.119	329.21
717.306	261.63
717.493	284.16
717.681	243.2
717.868	263.68
718.055	351.74
718.242	218.62
718.43	294.4
718.617	359.93
718.804	271.87
718.991	292.35
719.179	290.3
719.366	341.5
719.553	302.59
719.74	282.11
719.927	245.24
720.114	304.64
720.301	196.09
720.488	208.38
720.676	212.48
720.863	427.51
721.05	382.46
721.237	341.5
721.424	230.91
721.611	302.59
721.798	214.52
721.985	183.81
722.172	310.78
722.358	247.29
722.545	296.44
722.732	325.12
722.919	433.66
723.106	318.97
723.293	210.43
723.48	284.16
723.667	290.3
723.853	314.88
724.04	269.82
724.227	396.79
724.414	192
724.6	355.83
724.787	310.78
724.974	427.51
725.161	306.68
725.347	286.2
725.534	374.27
725.72	337.4
725.907	407.03
726.094	400.89
726.28	251.39
726.467	318.97
726.653	292.35
726.84	396.79
727.027	488.95
727.213	310.78
727.4	384.51
727.586	380.41
727.773	404.99
727.959	278.01
728.145	284.16
728.332	339.45
728.518	267.77
728.705	343.55
728.891	359.93
729.077	331.26
729.264	228.86
729.45	318.97
729.636	435.71
729.823	257.53
730.009	380.41
730.195	355.83
730.382	308.73
730.568	396.79
730.754	388.6
730.94	298.49
731.126	321.02
731.313	370.17
731.499	425.47
731.685	321.02
731.871	456.19
732.057	347.64
732.243	437.75
732.429	329.21
732.615	568.82
732.801	433.66
732.987	314.88
733.173	335.35
733.359	239.1
733.545	413.18
733.731	290.3
733.917	425.47
734.103	421.37
734.289	404.99
734.475	300.54
734.661	550.39
734.847	407.03
735.033	302.59
735.219	286.2
735.404	392.7
735.59	337.4
735.776	386.55
735.962	376.31
736.148	531.96
736.333	452.09
736.519	388.6
736.705	407.03
736.89	364.03
737.076	312.83
737.262	378.36
737.447	376.31
737.633	335.35
737.819	460.28
738.004	290.3
738.19	372.22
738.375	366.07
738.561	503.29
738.747	390.65
738.932	396.79
739.118	597.49
739.303	323.07
739.489	382.46
739.674	413.18
739.859	409.08
740.045	566.78
740.23	376.31
740.416	220.67
740.601	400.89
740.786	421.37
740.972	349.69
741.157	345.59
741.342	316.92
741.528	298.49
741.713	466.42
741.898	349.69
742.084	304.64
742.269	372.22
742.454	394.75
742.639	417.27
742.824	441.85
743.01	507.38
743.195	562.68
743.38	351.74
743.565	423.42
743.75	427.51
743.935	374.27
744.12	474.62
744.305	366.07
744.49	312.83
744.675	445.95
744.86	333.31
745.045	370.17
745.23	386.55
745.415	443.9
745.6	509.43
745.785	333.31
745.97	447.99
746.155	392.7
746.34	431.61
746.525	366.07
746.71	388.6
746.895	189.95
747.079	271.87
747.264	321.02
747.449	364.03
747.634	509.43
747.819	437.75
748.003	331.26
748.188	296.44
748.373	423.42
748.557	402.94
748.742	364.03
748.927	353.79
749.111	280.06
749.296	275.96
749.481	378.36
749.665	364.03
749.85	192
750.034	441.85
750.219	419.32
750.404	345.59
750.588	404.99
750.773	284.16
750.957	380.41
751.141	296.44
751.326	400.89
751.51	245.24
751.695	292.35
751.879	267.77
752.064	409.08
752.248	316.92
752.432	402.94
752.617	282.11
752.801	333.31
752.985	314.88
753.17	435.71
753.354	368.12
753.538	400.89
753.722	321.02
753.907	239.1
754.091	224.76
754.275	404.99
754.459	224.76
754.643	177.66
754.828	284.16
755.012	390.65
755.196	202.24
755.38	214.52
755.564	235
755.748	257.53
755.932	341.5
756.116	196.09
756.3	245.24
756.484	151.04
756.668	280.06
756.852	112.13
757.036	220.67
757.22	261.63
757.404	247.29
757.588	384.51
757.772	298.49
757.956	245.24
758.14	378.36
758.323	151.04
758.507	292.35
758.691	185.85
758.875	339.45
759.059	323.07
759.242	245.24
759.426	208.38
759.61	273.92
759.794	93.69
759.977	292.35
760.161	464.38
760.345	273.92
760.528	294.4
760.712	304.64
760.895	249.34
761.079	161.28
761.263	169.47
761.446	181.76
761.63	235
761.813	306.68
761.997	116.22
762.18	153.09
762.364	243.2
762.547	87.55
762.731	185.85
762.914	271.87
763.098	118.27
763.281	212.48
763.464	210.43
763.648	247.29
763.831	216.57
764.015	151.04
764.198	284.16
764.381	269.82
764.564	192
764.748	228.86
764.931	183.81
765.114	245.24
765.297	159.23
765.481	165.37
765.664	175.61
765.847	175.61
766.03	232.96
766.213	114.17
766.397	120.32
766.58	79.36
766.763	247.29
766.946	159.23
767.129	118.27
767.312	83.45
767.495	183.81
767.678	79.36
767.861	249.34
768.044	134.65
768.227	118.27
768.41	175.61
768.593	177.66
768.776	95.74
768.959	108.03
769.142	247.29
769.324	155.13
769.507	187.9
769.69	87.55
769.873	181.76
770.056	265.72
770.239	142.85
770.421	222.72
770.604	165.37
770.787	171.52
770.97	192
771.152	112.13
771.335	189.95
771.518	122.37
771.7	290.3
771.883	239.1
772.066	105.98
772.248	237.05
772.431	249.34
772.613	224.76
772.796	171.52
772.978	120.32
773.161	267.77
773.343	85.5
773.526	58.88
773.708	38.4
773.891	30.21
774.073	218.62
774.256	87.55
774.438	194.05
774.621	118.27
774.803	167.42
774.985	44.54
775.168	142.85
775.35	185.85
775.532	200.19
775.715	3.58
775.897	122.37
776.079	97.79
776.261	93.69
776.444	97.79
776.626	134.65
776.808	75.26
776.99	34.3
777.173	79.36
777.355	46.59
777.537	185.85
777.719	97.79
777.901	9.73
778.083	128.51
778.265	28.16
778.447	196.09
778.629	105.98
778.811	140.8
778.993	95.74
779.175	196.09
779.357	165.37
779.539	42.5
779.721	97.79
779.903	179.71
780.085	79.36
780.267	138.75
780.449	85.5
780.631	187.9
780.812	210.43
780.994	69.12
781.176	110.08
781.358	60.93
781.54	114.17
781.721	101.89
781.903	157.18
782.085	87.55
782.267	189.95
782.448	22.02
782.63	-8.7
782.812	71.17
782.993	134.65
783.175	251.39
783.357	128.51
783.538	165.37
783.72	77.31
783.901	62.98
784.083	161.28
784.264	81.41
784.446	26.11
784.627	-37.38
784.809	140.8
784.99	75.26
785.172	56.83
785.353	19.97
785.535	120.32
785.716	28.16
785.897	15.87
786.079	67.07
786.26	204.28
786.441	56.83
786.623	-43.52
786.804	81.41
786.985	58.88
787.167	67.07
787.348	69.12
787.529	73.21
787.71	265.72
787.891	112.13
788.073	44.54
788.254	-2.56
788.435	165.37
788.616	34.3
788.797	30.21
788.978	81.41
789.159	-0.51
789.34	38.4
789.522	103.93
789.703	13.82
789.884	67.07
790.065	32.26
790.246	159.23
790.427	122.37
790.607	224.76
790.788	138.75
790.969	44.54
791.15	83.45
791.331	118.27
791.512	-4.61
791.693	-25.09
791.874	75.26
792.054	196.09
792.235	189.95
792.416	-43.52
792.597	48.64
792.778	124.41
792.958	161.28
793.139	62.98
793.32	79.36
793.5	62.98
793.681	97.79
793.862	110.08
794.042	105.98
794.223	5.63
794.404	-6.66
794.584	-78.33
794.765	36.35
794.945	44.54
795.126	75.26
795.306	30.21
795.487	79.36
795.667	77.31
795.848	85.5
796.028	40.45
796.209	52.74
796.389	114.17
796.57	-14.85
796.75	-23.04
796.93	-10.75
797.111	44.54
797.291	-72.19
797.471	60.93
797.652	-16.9
797.832	-78.33
798.012	112.13
798.192	13.82
798.373	-61.95
798.553	32.26
798.733	36.35
798.913	24.06
799.093	-0.51
799.274	28.16
799.454	79.36
799.634	89.6
799.814	126.46
799.994	108.03
800.174	75.26
800.354	3.58
800.534	-41.47
800.714	13.82
800.894	-14.85
801.074	-23.04
801.254	17.92
801.434	114.17
801.614	65.02
801.794	-27.14
801.974	1881.57
802.154	71.17
802.334	167.42
802.514	-45.57
802.693	38.4
802.873	65.02
803.053	97.79
803.233	7.68
803.413	19.97
803.592	60.93
803.772	48.64
803.952	52.74
804.131	-53.76
804.311	50.69
804.491	130.56
804.67	-37.38
804.85	-18.94
805.03	50.69
805.209	46.59
805.389	-6.66
805.568	26.11
805.748	44.54
805.928	-20.99
806.107	65.02
806.287	-12.8
806.466	77.31
806.646	-39.42
806.825	19.97
807.004	103.93
807.184	-33.28
807.363	97.79
807.543	-6.66
807.722	-57.86
807.901	153.09
808.081	87.55
808.26	-70.14
808.439	40.45
808.619	83.45
808.798	-41.47
808.977	97.79
809.156	112.13
809.336	-10.75
809.515	177.66
809.694	11.78
809.873	7.68
810.052	140.8
810.231	130.56
810.411	-10.75
810.59	130.56
810.769	15.87
810.948	79.36
811.127	-86.53
811.306	93.69
811.485	-16.9
811.664	105.98
811.843	34.3
812.022	-35.33
812.201	50.69
812.38	-8.7
812.559	24.06
812.737	17.92
812.916	-51.71
813.095	-43.52
813.274	71.17
813.453	-8.7
813.632	144.89
813.811	75.26
813.989	-37.38
814.168	24.06
814.347	-92.67
814.526	30.21
814.704	138.75
814.883	77.31
815.062	-72.19
815.24	128.51
815.419	30.21
815.598	81.41
815.776	-37.38
815.955	83.45
816.133	-127.49
816.312	19.97
816.49	13.82
816.669	44.54
816.847	-2.56
817.026	44.54
817.204	40.45
817.383	3.58
817.561	-53.76
817.74	-4.61
817.918	40.45
818.097	-55.81
818.275	-4.61
818.453	79.36
818.632	136.7
818.81	1.54
818.988	-102.91
819.167	46.59
819.345	5.63
819.523	-25.09
819.701	-12.8
819.879	81.41
820.058	38.4
820.236	62.98
820.414	-61.95
820.592	5.63
820.77	-23.04
820.948	22.02
821.127	-14.85
821.305	26.11
821.483	-61.95
821.661	77.31
821.839	-45.57
822.017	-74.24
822.195	19.97
822.373	44.54
822.551	77.31
822.729	105.98
822.907	-0.51
823.085	67.07
823.262	30.21
823.44	46.59
823.618	5.63
823.796	54.78
823.974	-37.38
824.152	-8.7
824.329	-41.47
824.507	87.55
824.685	-6.66
824.863	-29.18
825.04	79.36
825.218	67.07
825.396	60.93
825.574	-35.33
825.751	101.89
825.929	48.64
826.107	-141.82
826.284	110.08
826.462	110.08
826.639	-47.62
826.817	-59.9
826.994	54.78
827.172	-107.01
827.349	69.12
827.527	-20.99
827.704	26.11
827.882	65.02
828.059	44.54
828.237	-55.81
828.414	54.78
828.591	-141.82
828.769	36.35
828.946	-59.9
829.124	110.08
829.301	83.45
829.478	-27.14
829.655	42.5
829.833	15.87
830.01	-113.15
830.187	99.84
830.364	52.74
830.542	-12.8
830.719	91.65
830.896	44.54
831.073	26.11
831.25	101.89
831.427	124.41
831.604	54.78
831.782	-23.04
831.959	13.82
832.136	-80.38
832.313	110.08
832.49	36.35
832.667	42.5
832.844	-12.8
833.021	42.5
833.198	44.54
833.374	75.26
833.551	32.26
833.728	40.45
833.905	50.69
834.082	-104.96
834.259	56.83
834.436	58.88
834.612	-23.04
834.789	75.26
834.966	48.64
835.143	38.4
835.319	-94.72
835.496	26.11
835.673	44.54
835.85	83.45
836.026	48.64
836.203	83.45
836.38	-31.23
836.556	1.54
836.733	-53.76
836.909	50.69
837.086	-64
837.262	-117.25
837.439	7.68
837.616	44.54
837.792	5.63
837.968	24.06
838.145	-113.15
838.321	-27.14
838.498	5.63
838.674	183.81
838.851	28.16
839.027	11.78
839.203	46.59
839.38	26.11
839.556	17.92
839.732	-2.56
839.909	11.78
840.085	77.31
840.261	-33.28
840.437	-2.56
840.614	5.63
840.79	118.27
840.966	-25.09
841.142	44.54
841.318	-78.33
841.494	79.36
841.671	62.98
841.847	-20.99
842.023	-47.62
842.199	73.21
842.375	153.09
842.551	-88.57
842.727	-125.44
842.903	108.03
843.079	-88.57
843.255	95.74
843.431	-29.18
843.607	89.6
843.783	-121.34
843.959	-0.51
844.134	-0.51
844.31	69.12
844.486	-18.94
844.662	-66.05
844.838	83.45
845.013	42.5
845.189	89.6
845.365	-16.9
845.541	-12.8
845.716	44.54
845.892	69.12
846.068	-51.71
846.244	-31.23
846.419	52.74
846.595	-25.09
846.77	-23.04
846.946	46.59
847.122	-53.76
847.297	-2.56
847.473	183.81
847.648	-41.47
847.824	-8.7
847.999	-98.81
848.175	40.45
848.35	58.88
848.526	-10.75
848.701	62.98
848.876	151.04
849.052	65.02
849.227	-12.8
849.403	19.97
849.578	44.54
849.753	38.4
849.929	62.98
850.104	-10.75
850.279	7.68
850.454	-37.38
850.63	44.54
850.805	50.69
850.98	26.11
851.155	-6.66
851.33	144.89
851.505	-135.68
851.681	77.31
851.856	-33.28
852.031	60.93
852.206	48.64
852.381	-61.95
852.556	-10.75
852.731	-4.61
852.906	40.45
853.081	-18.94
853.256	114.17
853.431	-4.61
853.606	3.58
853.781	-49.66
853.956	-137.73
854.131	-12.8
854.305	-33.28
854.48	-43.52
854.655	11.78
854.83	-94.72
855.005	-100.86
855.18	-20.99
855.354	-39.42
855.529	32.26
855.704	-33.28
855.879	77.31
856.053	-150.01
856.228	17.92
856.403	13.82
856.577	24.06
856.752	-29.18
856.926	-27.14
857.101	28.16
857.276	-98.81
857.45	17.92
857.625	69.12
857.799	15.87
857.974	83.45
858.148	-78.33
858.323	71.17
858.497	-109.05
858.672	-16.9
858.846	-68.09
859.02	163.33
859.195	-16.9
859.369	-8.7
859.543	-27.14
859.718	13.82
859.892	-47.62
860.066	44.54
860.241	-35.33
860.415	-14.85
860.589	-0.51
860.763	28.16
860.938	5.63
861.112	28.16
861.286	-94.72
861.46	30.21
861.634	-49.66
861.808	65.02
861.982	-29.18
862.157	-29.18
862.331	32.26
862.505	-111.1
862.679	-121.34
862.853	-59.9
863.027	34.3
863.201	81.41
863.375	44.54
863.549	13.82
863.722	103.93
863.896	97.79
864.07	-35.33
864.244	5.63
864.418	58.88
864.592	34.3
864.766	101.89
864.939	-6.66
865.113	-94.72
865.287	99.84
865.461	-0.51
865.634	-6.66
865.808	13.82
865.982	-117.25
866.156	-51.71
866.329	-100.86
866.503	89.6
866.676	42.5
866.85	30.21
867.024	-27.14
867.197	26.11
867.371	19.97
867.544	69.12
867.718	-150.01
867.891	89.6
868.065	-31.23
868.238	-6.66
868.412	95.74
868.585	17.92
868.759	-86.53
868.932	-61.95
869.105	-33.28
869.279	32.26
869.452	-100.86
869.625	-37.38
869.799	-25.09
869.972	-53.76
870.145	-2.56
870.319	71.17
870.492	-31.23
870.665	-8.7
870.838	-23.04
871.011	-72.19
871.185	-35.33
871.358	-66.05
871.531	110.08
871.704	-23.04
871.877	-72.19
872.05	-12.8
872.223	-16.9
872.396	19.97
872.569	60.93
872.742	-68.09
872.915	38.4
873.088	-88.57
873.261	-25.09
873.434	34.3
873.607	30.21
873.78	97.79
873.953	46.59
874.126	-8.7
874.299	44.54
874.471	28.16
874.644	19.97
874.817	69.12
874.99	247.29
875.163	-47.62
875.335	28.16
875.508	-51.71
875.681	56.83
875.853	-16.9
876.026	11.78
876.199	28.16
876.371	65.02
876.544	-10.75
876.717	60.93
876.889	-41.47
877.062	46.59
877.234	-98.81
877.407	-74.24
877.579	46.59
877.752	105.98
877.924	110.08
878.097	-4.61
878.269	36.35
878.442	46.59
878.614	-25.09
878.786	85.5
878.959	62.98
879.131	15.87
879.303	-129.53
879.476	-0.51
879.648	38.4
879.82	24.06
879.993	-20.99
880.165	-25.09
880.337	-37.38
880.509	-27.14
880.681	-98.81
880.854	-23.04
881.026	110.08
881.198	136.7
881.37	-49.66
881.542	11.78
881.714	-29.18
881.886	-31.23
882.058	-20.99
882.23	46.59
882.402	28.16
882.574	5.63
882.746	126.46
882.918	99.84
883.09	46.59
883.262	11.78
883.434	-39.42
883.606	-98.81
883.778	22.02
883.95	128.51
884.122	-86.53
884.293	58.88
884.465	13.82
884.637	48.64
884.809	42.5
884.98	11.78
885.152	65.02
885.324	38.4
885.496	-16.9
885.667	1.54
885.839	52.74
886.011	128.51
886.182	-0.51
886.354	36.35
886.525	-12.8
886.697	-2.56
886.869	-88.57
887.04	7.68
887.212	40.45
887.383	165.37
887.555	83.45
887.726	-84.48
887.897	7.68
888.069	-39.42
888.24	99.84
888.412	-16.9
888.583	-10.75
888.754	32.26
888.926	-43.52
889.097	-25.09
889.268	-88.57
889.44	44.54
889.611	-55.81
889.782	-39.42
889.953	-27.14
890.125	91.65
890.296	30.21
890.467	-18.94
890.638	44.54
890.809	-59.9
890.98	-45.57
891.151	26.11
891.323	97.79
891.494	-6.66
891.665	24.06
891.836	34.3
892.007	101.89
892.178	-39.42
892.349	-31.23
892.52	19.97
892.691	-14.85
892.862	-31.23
893.032	-113.15
893.203	-23.04
893.374	103.93
893.545	85.5
893.716	-0.51
893.887	83.45
894.057	-64
894.228	-45.57
894.399	-18.94
894.57	97.79
894.74	-25.09
894.911	-2.56
895.082	-41.47
895.253	-47.62
895.423	-76.29
895.594	97.79
895.764	-6.66
895.935	-78.33
896.106	32.26
896.276	-53.76
896.447	91.65
896.617	-41.47
896.788	-18.94
896.958	-74.24
897.129	-10.75
897.299	7.68
897.47	13.82
897.64	81.41
897.81	-25.09
897.981	13.82
898.151	-33.28
898.322	13.82
898.492	24.06
898.662	-74.24
898.832	24.06
899.003	-84.48
899.173	50.69
899.343	-72.19
899.513	-49.66
