Data from USB4F104151__63__09-29-11-597.txt Node

Date: Wed Feb 26 09:29:11 EST 2025
User: louis
Spectrometer: USB4F10415
Trigger mode: 4
Integration Time (sec): 1.000000E-1
Scans to average: 1
Electric dark correction enabled: true
Nonlinearity correction enabled: false
Boxcar width: 0
XAxis mode: Wavelengths
Number of Pixels in Spectrum: 3648
>>>>>Begin Spectral Data<<<<<
178.204	-352.42
178.424	-352.42
178.644	-352.42
178.864	-370.85
179.084	-327.85
179.304	18.26
179.524	14.17
179.744	51.03
179.964	65.36
180.184	1.88
180.404	-22.7
180.624	-4.27
180.844	-39.08
181.064	-104.62
181.283	96.08
181.503	-73.9
181.723	-2.22
181.943	-24.75
182.163	198.48
182.383	10.07
182.602	135
182.822	77.65
183.042	100.18
183.262	57.17
183.482	124.76
183.701	104.28
183.921	73.56
184.141	-10.41
184.361	110.42
184.58	57.17
184.8	153.43
185.02	44.88
185.239	104.28
185.459	81.75
185.679	118.61
185.898	-49.32
186.118	73.56
186.338	59.22
186.557	63.32
186.777	24.4
186.997	28.5
187.216	104.28
187.436	169.81
187.655	61.27
187.875	75.6
188.095	34.64
188.314	137.04
188.534	106.32
188.753	75.6
188.973	85.84
189.192	130.9
189.412	87.89
189.631	12.12
189.851	69.46
190.07	128.85
190.29	-39.08
190.509	28.5
190.729	10.07
190.948	118.61
191.168	272.21
191.387	87.89
191.607	57.17
191.826	38.74
192.045	28.5
192.265	32.6
192.484	51.03
192.704	36.69
192.923	-20.65
193.142	210.77
193.362	59.22
193.581	137.04
193.8	36.69
194.02	110.42
194.239	22.36
194.458	77.65
194.678	-22.7
194.897	73.56
195.116	87.89
195.335	83.8
195.555	30.55
195.774	96.08
195.993	100.18
196.212	32.6
196.432	112.47
196.651	51.03
196.87	18.26
197.089	194.39
197.308	98.13
197.528	112.47
197.747	-14.51
197.966	143.19
198.185	161.62
198.404	-43.18
198.623	192.34
198.842	128.85
199.062	126.8
199.281	126.8
199.5	73.56
199.719	75.6
199.938	63.32
200.157	106.32
200.376	81.75
200.595	180.05
200.814	34.64
201.033	26.45
201.252	149.33
201.471	75.6
201.69	178
201.909	67.41
202.128	153.43
202.347	98.13
202.566	89.94
202.785	-18.6
203.004	42.84
203.223	266.07
203.442	53.08
203.661	8.02
203.879	26.45
204.098	147.28
204.317	38.74
204.536	26.45
204.755	87.89
204.974	130.9
205.193	114.52
205.411	190.29
205.63	94.04
205.849	1.88
206.068	18.26
206.287	1.88
206.505	120.66
206.724	59.22
206.943	18.26
207.162	53.08
207.381	81.75
207.599	175.95
207.818	124.76
208.037	-4.27
208.255	16.21
208.474	114.52
208.693	26.45
208.911	24.4
209.13	100.18
209.349	83.8
209.567	110.42
209.786	91.99
210.005	85.84
210.223	51.03
210.442	-37.03
210.661	59.22
210.879	104.28
211.098	30.55
211.316	100.18
211.535	34.64
211.753	59.22
211.972	85.84
212.191	28.5
212.409	77.65
212.628	116.56
212.846	32.6
213.065	89.94
213.283	124.76
213.502	87.89
213.72	51.03
213.938	1.88
214.157	34.64
214.375	83.8
214.594	42.84
214.812	108.37
215.031	85.84
215.249	38.74
215.467	77.65
215.686	106.32
215.904	137.04
216.122	108.37
216.341	126.8
216.559	108.37
216.778	141.14
216.996	118.61
217.214	40.79
217.432	28.5
217.651	-57.51
217.869	65.36
218.087	18.26
218.306	108.37
218.524	16.21
218.742	139.09
218.96	137.04
219.179	59.22
219.397	81.75
219.615	186.19
219.833	73.56
220.051	24.4
220.27	67.41
220.488	145.24
220.706	53.08
220.924	91.99
221.142	32.6
221.36	38.74
221.578	112.47
221.796	67.41
222.015	42.84
222.233	94.04
222.451	130.9
222.669	18.26
222.887	53.08
223.105	42.84
223.323	22.36
223.541	24.4
223.759	63.32
223.977	89.94
224.195	139.09
224.413	87.89
224.631	165.71
224.849	91.99
225.067	204.63
225.285	-34.99
225.503	22.36
225.721	-32.94
225.939	106.32
226.157	67.41
226.375	208.72
226.592	8.02
226.81	20.31
227.028	147.28
227.246	135
227.464	16.21
227.682	81.75
227.9	59.22
228.117	61.27
228.335	71.51
228.553	40.79
228.771	65.36
228.989	98.13
229.206	38.74
229.424	55.12
229.642	-8.36
229.86	65.36
230.077	153.43
230.295	-6.31
230.513	124.76
230.731	3.93
230.948	173.91
231.166	130.9
231.384	36.69
231.601	67.41
231.819	102.23
232.037	18.26
232.254	-14.51
232.472	94.04
232.689	96.08
232.907	173.91
233.125	61.27
233.342	24.4
233.56	12.12
233.777	-43.18
233.995	26.45
234.213	75.6
234.43	104.28
234.648	135
234.865	46.93
235.083	73.56
235.3	63.32
235.518	116.56
235.735	157.52
235.953	91.99
236.17	116.56
236.388	22.36
236.605	-0.17
236.822	139.09
237.04	100.18
237.257	112.47
237.475	-57.51
237.692	87.89
237.909	55.12
238.127	-6.31
238.344	114.52
238.562	85.84
238.779	42.84
238.996	-118.95
239.214	8.02
239.431	147.28
239.648	34.64
239.865	14.17
240.083	106.32
240.3	28.5
240.517	34.64
240.735	81.75
240.952	153.43
241.169	96.08
241.386	28.5
241.603	10.07
241.821	-0.17
242.038	94.04
242.255	96.08
242.472	-61.61
242.689	63.32
242.907	124.76
243.124	81.75
243.341	-34.99
243.558	-10.41
243.775	-18.6
243.992	-14.51
244.209	98.13
244.426	261.97
244.643	91.99
244.86	38.74
245.078	98.13
245.295	120.66
245.512	63.32
245.729	8.02
245.946	116.56
246.163	18.26
246.38	-10.41
246.597	114.52
246.814	26.45
247.031	110.42
247.248	42.84
247.464	55.12
247.681	55.12
247.898	98.13
248.115	100.18
248.332	-18.6
248.549	192.34
248.766	223.06
248.983	69.46
249.2	24.4
249.417	135
249.633	-22.7
249.85	149.33
250.067	34.64
250.284	8.02
250.501	155.47
250.717	137.04
250.934	18.26
251.151	-49.32
251.368	14.17
251.585	20.31
251.801	98.13
252.018	-92.33
252.235	169.81
252.451	-12.46
252.668	22.36
252.885	83.8
253.102	128.85
253.318	71.51
253.535	-10.41
253.752	67.41
253.968	-0.17
254.185	-10.41
254.401	1.88
254.618	79.7
254.835	16.21
255.051	65.36
255.268	116.56
255.484	110.42
255.701	120.66
255.917	18.26
256.134	-63.66
256.351	30.55
256.567	-53.42
256.784	12.12
257	18.26
257.217	130.9
257.433	22.36
257.65	59.22
257.866	149.33
258.082	-2.22
258.299	-41.13
258.515	104.28
258.732	44.88
258.948	73.56
259.165	34.64
259.381	46.93
259.597	96.08
259.814	65.36
260.03	22.36
260.246	51.03
260.463	165.71
260.679	132.95
260.895	22.36
261.112	98.13
261.328	75.6
261.544	-28.84
261.761	239.44
261.977	22.36
262.193	-24.75
262.409	145.24
262.626	130.9
262.842	32.6
263.058	59.22
263.274	91.99
263.49	124.76
263.707	73.56
263.923	71.51
264.139	3.93
264.355	46.93
264.571	112.47
264.787	81.75
265.004	165.71
265.22	42.84
265.436	1.88
265.652	51.03
265.868	67.41
266.084	-4.27
266.3	5.97
266.516	-16.55
266.732	32.6
266.948	38.74
267.164	22.36
267.38	196.43
267.596	130.9
267.812	169.81
268.028	14.17
268.244	14.17
268.46	63.32
268.676	106.32
268.892	8.02
269.108	-18.6
269.324	-16.55
269.54	28.5
269.756	65.36
269.972	-14.51
270.188	36.69
270.403	-106.67
270.619	28.5
270.835	57.17
271.051	94.04
271.267	14.17
271.483	-28.84
271.698	155.47
271.914	114.52
272.13	51.03
272.346	14.17
272.562	108.37
272.777	157.52
272.993	85.84
273.209	-14.51
273.425	32.6
273.64	10.07
273.856	157.52
274.072	69.46
274.287	-4.27
274.503	67.41
274.719	122.71
274.934	-73.9
275.15	-26.79
275.366	38.74
275.581	-14.51
275.797	55.12
276.012	57.17
276.228	38.74
276.444	51.03
276.659	194.39
276.875	46.93
277.09	126.8
277.306	5.97
277.521	22.36
277.737	38.74
277.952	124.76
278.168	71.51
278.383	112.47
278.599	87.89
278.814	98.13
279.03	44.88
279.245	112.47
279.461	55.12
279.676	98.13
279.892	12.12
280.107	-10.41
280.322	96.08
280.538	106.32
280.753	-24.75
280.969	153.43
281.184	-10.41
281.399	161.62
281.615	42.84
281.83	89.94
282.045	-90.28
282.26	10.07
282.476	81.75
282.691	114.52
282.906	102.23
283.122	-6.31
283.337	100.18
283.552	44.88
283.767	-14.51
283.983	175.95
284.198	40.79
284.413	94.04
284.628	-28.84
284.843	98.13
285.058	89.94
285.274	30.55
285.489	10.07
285.704	100.18
285.919	83.8
286.134	42.84
286.349	67.41
286.564	26.45
286.779	178
286.995	26.45
287.21	22.36
287.425	44.88
287.64	28.5
287.855	63.32
288.07	-18.6
288.285	79.7
288.5	204.63
288.715	126.8
288.93	34.64
289.145	18.26
289.36	-6.31
289.575	8.02
289.79	124.76
290.004	30.55
290.219	94.04
290.434	-75.95
290.649	10.07
290.864	-51.37
291.079	42.84
291.294	71.51
291.509	26.45
291.724	22.36
291.938	53.08
292.153	69.46
292.368	-12.46
292.583	38.74
292.798	98.13
293.012	94.04
293.227	18.26
293.442	69.46
293.657	110.42
293.871	169.81
294.086	104.28
294.301	141.14
294.516	157.52
294.73	34.64
294.945	-47.27
295.16	40.79
295.374	100.18
295.589	94.04
295.804	-67.75
296.018	1.88
296.233	96.08
296.447	98.13
296.662	10.07
296.877	137.04
297.091	112.47
297.306	16.21
297.52	-0.17
297.735	128.85
297.949	71.51
298.164	77.65
298.378	75.6
298.593	12.12
298.807	-4.27
299.022	32.6
299.236	153.43
299.451	87.89
299.665	18.26
299.88	8.02
300.094	73.56
300.309	79.7
300.523	55.12
300.737	30.55
300.952	51.03
301.166	18.26
301.381	-100.52
301.595	59.22
301.809	34.64
302.024	40.79
302.238	14.17
302.452	173.91
302.667	26.45
302.881	114.52
303.095	132.95
303.309	26.45
303.524	5.97
303.738	65.36
303.952	-82.09
304.166	110.42
304.381	-30.89
304.595	139.09
304.809	5.97
305.023	96.08
305.237	-43.18
305.452	40.79
305.666	81.75
305.88	114.52
306.094	139.09
306.308	100.18
306.522	98.13
306.736	137.04
306.95	186.19
307.164	36.69
307.379	83.8
307.593	165.71
307.807	71.51
308.021	42.84
308.235	48.98
308.449	20.31
308.663	85.84
308.877	169.81
309.091	135
309.305	106.32
309.519	-80.04
309.733	59.22
309.947	-55.47
310.161	87.89
310.374	69.46
310.588	149.33
310.802	8.02
311.016	71.51
311.23	69.46
311.444	1.88
311.658	30.55
311.872	159.57
312.085	75.6
312.299	120.66
312.513	200.53
312.727	116.56
312.941	5.97
313.154	42.84
313.368	46.93
313.582	42.84
313.796	51.03
314.009	98.13
314.223	46.93
314.437	73.56
314.651	192.34
314.864	87.89
315.078	71.51
315.292	5.97
315.505	48.98
315.719	120.66
315.933	91.99
316.146	20.31
316.36	30.55
316.573	108.37
316.787	69.46
317.001	145.24
317.214	46.93
317.428	139.09
317.641	10.07
317.855	104.28
318.068	34.64
318.282	32.6
318.495	161.62
318.709	175.95
318.922	89.94
319.136	137.04
319.349	169.81
319.563	18.26
319.776	104.28
319.99	-39.08
320.203	89.94
320.417	83.8
320.63	190.29
320.843	108.37
321.057	81.75
321.27	53.08
321.483	8.02
321.697	110.42
321.91	24.4
322.124	89.94
322.337	61.27
322.55	34.64
322.763	32.6
322.977	22.36
323.19	34.64
323.403	-10.41
323.617	48.98
323.83	12.12
324.043	22.36
324.256	67.41
324.469	51.03
324.683	102.23
324.896	-73.9
325.109	46.93
325.322	-10.41
325.535	102.23
325.748	77.65
325.962	30.55
326.175	98.13
326.388	104.28
326.601	145.24
326.814	36.69
327.027	65.36
327.24	108.37
327.453	-51.37
327.666	75.6
327.879	96.08
328.092	61.27
328.305	73.56
328.518	26.45
328.731	65.36
328.944	51.03
329.157	36.69
329.37	48.98
329.583	229.2
329.796	161.62
330.009	-55.47
330.222	89.94
330.435	57.17
330.648	-2.22
330.861	106.32
331.073	83.8
331.286	108.37
331.499	14.17
331.712	-88.23
331.925	96.08
332.138	10.07
332.35	85.84
332.563	18.26
332.776	124.76
332.989	-10.41
333.202	18.26
333.414	55.12
333.627	8.02
333.84	79.7
334.053	48.98
334.265	108.37
334.478	34.64
334.691	34.64
334.903	-4.27
335.116	22.36
335.329	22.36
335.541	124.76
335.754	145.24
335.966	-16.55
336.179	48.98
336.392	67.41
336.604	22.36
336.817	83.8
337.029	94.04
337.242	102.23
337.454	55.12
337.667	63.32
337.88	161.62
338.092	77.65
338.305	71.51
338.517	28.5
338.729	38.74
338.942	206.67
339.154	26.45
339.367	22.36
339.579	91.99
339.792	8.02
340.004	108.37
340.217	55.12
340.429	-10.41
340.641	-71.85
340.854	-12.46
341.066	114.52
341.278	126.8
341.491	231.25
341.703	22.36
341.915	-4.27
342.128	126.8
342.34	36.69
342.552	1.88
342.764	51.03
342.977	79.7
343.189	120.66
343.401	71.51
343.613	-82.09
343.826	42.84
344.038	-8.36
344.25	63.32
344.462	-2.22
344.674	46.93
344.886	44.88
345.099	79.7
345.311	108.37
345.523	-41.13
345.735	-32.94
345.947	81.75
346.159	120.66
346.371	53.08
346.583	59.22
346.795	272.21
347.007	75.6
347.219	69.46
347.431	112.47
347.643	124.76
347.855	51.03
348.067	120.66
348.279	5.97
348.491	96.08
348.703	-2.22
348.915	30.55
349.127	-22.7
349.339	135
349.551	-43.18
349.763	67.41
349.975	79.7
350.187	63.32
350.399	126.8
350.61	116.56
350.822	24.4
351.034	67.41
351.246	67.41
351.458	59.22
351.669	75.6
351.881	116.56
352.093	83.8
352.305	96.08
352.517	100.18
352.728	28.5
352.94	98.13
353.152	102.23
353.363	-47.27
353.575	83.8
353.787	77.65
353.999	110.42
354.21	122.71
354.422	-14.51
354.633	-45.23
354.845	87.89
355.057	69.46
355.268	139.09
355.48	59.22
355.692	18.26
355.903	65.36
356.115	42.84
356.326	-32.94
356.538	120.66
356.749	106.32
356.961	167.76
357.172	46.93
357.384	32.6
357.595	145.24
357.807	22.36
358.018	-20.65
358.23	67.41
358.441	147.28
358.653	67.41
358.864	114.52
359.075	-51.37
359.287	96.08
359.498	130.9
359.709	75.6
359.921	-39.08
360.132	71.51
360.344	38.74
360.555	22.36
360.766	36.69
360.977	20.31
361.189	114.52
361.4	69.46
361.611	75.6
361.823	145.24
362.034	67.41
362.245	34.64
362.456	-2.22
362.667	124.76
362.879	34.64
363.09	75.6
363.301	120.66
363.512	63.32
363.723	83.8
363.935	-49.32
364.146	1.88
364.357	30.55
364.568	42.84
364.779	-47.27
364.99	63.32
365.201	40.79
365.412	141.14
365.623	22.36
365.834	81.75
366.045	159.57
366.256	139.09
366.467	65.36
366.678	65.36
366.889	91.99
367.1	-61.61
367.311	135
367.522	22.36
367.733	120.66
367.944	110.42
368.155	-14.51
368.366	198.48
368.577	180.05
368.788	155.47
368.999	40.79
369.209	65.36
369.42	270.16
369.631	302.93
369.842	67.41
370.053	16.21
370.264	128.85
370.474	-22.7
370.685	87.89
370.896	20.31
371.107	147.28
371.317	75.6
371.528	-2.22
371.739	141.14
371.95	85.84
372.16	139.09
372.371	-20.65
372.582	-8.36
372.792	55.12
373.003	104.28
373.214	116.56
373.424	132.95
373.635	22.36
373.846	137.04
374.056	128.85
374.267	77.65
374.477	-10.41
374.688	-18.6
374.898	102.23
375.109	130.9
375.319	96.08
375.53	130.9
375.74	157.52
375.951	75.6
376.161	59.22
376.372	122.71
376.582	40.79
376.793	87.89
377.003	-61.61
377.214	65.36
377.424	44.88
377.635	63.32
377.845	26.45
378.055	108.37
378.266	-63.66
378.476	26.45
378.686	57.17
378.897	83.8
379.107	91.99
379.317	173.91
379.528	51.03
379.738	153.43
379.948	28.5
380.158	98.13
380.369	38.74
380.579	141.14
380.789	108.37
380.999	75.6
381.21	87.89
381.42	257.87
381.63	75.6
381.84	102.23
382.05	108.37
382.261	106.32
382.471	161.62
382.681	-32.94
382.891	175.95
383.101	87.89
383.311	-39.08
383.521	67.41
383.731	153.43
383.941	51.03
384.151	57.17
384.361	44.88
384.571	38.74
384.781	102.23
384.991	196.43
385.201	139.09
385.411	130.9
385.621	108.37
385.831	98.13
386.041	1.88
386.251	26.45
386.461	83.8
386.671	36.69
386.881	79.7
387.091	48.98
387.301	141.14
387.511	79.7
387.72	180.05
387.93	94.04
388.14	-20.65
388.35	79.7
388.56	81.75
388.769	89.94
388.979	46.93
389.189	98.13
389.399	38.74
389.609	145.24
389.818	153.43
390.028	124.76
390.238	149.33
390.447	-30.89
390.657	18.26
390.867	26.45
391.076	-55.47
391.286	102.23
391.496	34.64
391.705	63.32
391.915	153.43
392.125	145.24
392.334	1.88
392.544	147.28
392.753	106.32
392.963	-0.17
393.172	24.4
393.382	36.69
393.591	208.72
393.801	-0.17
394.01	173.91
394.22	24.4
394.429	61.27
394.639	91.99
394.848	65.36
395.058	-12.46
395.267	46.93
395.477	94.04
395.686	57.17
395.895	159.57
396.105	186.19
396.314	87.89
396.524	-43.18
396.733	30.55
396.942	110.42
397.152	89.94
397.361	108.37
397.57	83.8
397.78	-51.37
397.989	98.13
398.198	192.34
398.407	18.26
398.617	89.94
398.826	83.8
399.035	124.76
399.244	91.99
399.453	-6.31
399.663	18.26
399.872	18.26
400.081	-20.65
400.29	69.46
400.499	46.93
400.708	116.56
400.917	22.36
401.127	34.64
401.336	30.55
401.545	216.91
401.754	91.99
401.963	81.75
402.172	14.17
402.381	48.98
402.59	-2.22
402.799	98.13
403.008	120.66
403.217	83.8
403.426	51.03
403.635	8.02
403.844	44.88
404.053	42.84
404.262	59.22
404.471	190.29
404.68	44.88
404.888	81.75
405.097	55.12
405.306	63.32
405.515	51.03
405.724	44.88
405.933	153.43
406.142	18.26
406.35	180.05
406.559	-12.46
406.768	32.6
406.977	153.43
407.185	91.99
407.394	57.17
407.603	22.36
407.812	75.6
408.02	81.75
408.229	34.64
408.438	104.28
408.646	22.36
408.855	-14.51
409.064	120.66
409.272	48.98
409.481	46.93
409.69	98.13
409.898	55.12
410.107	51.03
410.315	141.14
410.524	26.45
410.733	38.74
410.941	96.08
411.15	65.36
411.358	132.95
411.567	130.9
411.775	61.27
411.984	32.6
412.192	73.56
412.401	89.94
412.609	231.25
412.818	145.24
413.026	67.41
413.234	124.76
413.443	-32.94
413.651	-22.7
413.86	83.8
414.068	102.23
414.276	130.9
414.485	59.22
414.693	165.71
414.901	153.43
415.11	34.64
415.318	137.04
415.526	98.13
415.734	137.04
415.943	100.18
416.151	145.24
416.359	110.42
416.567	112.47
416.776	153.43
416.984	106.32
417.192	212.82
417.4	96.08
417.608	46.93
417.817	87.89
418.025	120.66
418.233	198.48
418.441	38.74
418.649	48.98
418.857	114.52
419.065	169.81
419.273	5.97
419.481	51.03
419.689	59.22
419.897	34.64
420.105	-26.79
420.313	91.99
420.521	194.39
420.729	198.48
420.937	44.88
421.145	-26.79
421.353	104.28
421.561	182.1
421.769	106.32
421.977	67.41
422.185	73.56
422.393	83.8
422.601	104.28
422.809	157.52
423.017	-18.6
423.224	151.38
423.432	114.52
423.64	83.8
423.848	147.28
424.056	40.79
424.263	118.61
424.471	55.12
424.679	161.62
424.887	38.74
425.094	65.36
425.302	114.52
425.51	83.8
425.718	94.04
425.925	100.18
426.133	59.22
426.341	200.53
426.548	124.76
426.756	79.7
426.964	106.32
427.171	32.6
427.379	75.6
427.586	100.18
427.794	79.7
428.001	120.66
428.209	161.62
428.417	237.39
428.624	196.43
428.832	100.18
429.039	83.8
429.247	51.03
429.454	126.8
429.662	182.1
429.869	141.14
430.076	122.71
430.284	167.76
430.491	196.43
430.699	135
430.906	247.63
431.114	130.9
431.321	135
431.528	132.95
431.736	161.62
431.943	188.24
432.15	229.2
432.358	139.09
432.565	298.83
432.772	28.5
432.979	182.1
433.187	214.87
433.394	137.04
433.601	192.34
433.808	274.26
434.016	268.11
434.223	231.25
434.43	178
434.637	247.63
434.844	218.96
435.052	247.63
435.259	233.3
435.466	319.31
435.673	241.49
435.88	319.31
436.087	358.22
436.294	337.74
436.501	296.78
436.708	210.77
436.915	292.69
437.122	337.74
437.329	210.77
437.537	300.88
437.743	304.98
437.95	350.03
438.157	331.6
438.364	399.18
438.571	401.23
438.778	368.46
438.985	370.51
439.192	438.09
439.399	337.74
439.606	472.91
439.813	456.53
440.02	509.77
440.227	601.93
440.433	501.58
440.64	513.87
440.847	507.73
441.054	544.59
441.261	657.23
441.467	606.03
441.674	534.35
441.881	726.86
442.088	530.25
442.294	675.66
442.501	737.1
442.708	726.86
442.914	618.32
443.121	876.36
443.328	821.06
443.534	894.79
443.741	833.35
443.948	706.38
444.154	878.41
444.361	1085.25
444.568	960.33
444.774	935.75
444.981	937.8
445.187	1107.78
445.394	1103.68
445.6	1040.2
445.807	1165.12
446.013	1126.21
446.22	1204.03
446.426	1292.1
446.633	1369.92
446.839	1531.71
447.046	1244.99
447.252	1503.04
447.459	1398.59
447.665	1437.5
447.871	1625.92
448.078	1707.84
448.284	1670.97
448.491	1865.53
448.697	1926.97
448.903	2047.8
449.11	1892.15
449.316	1951.54
449.522	2129.72
449.728	2189.11
449.935	2242.36
450.141	2389.81
450.347	2547.5
450.553	2361.14
450.76	2504.5
450.966	2721.58
451.172	2766.64
451.378	2842.41
451.584	2815.79
451.791	3118.89
451.997	3311.39
452.203	3274.53
452.409	3303.2
452.615	3637.02
452.821	3505.95
453.027	3495.71
453.233	4015.9
453.44	3798.81
453.646	4065.05
453.852	4177.69
454.058	4392.72
454.264	4345.62
454.47	4611.85
454.676	4886.28
454.882	5203.72
455.088	4912.91
455.294	5158.66
455.5	5486.34
455.705	5902.08
455.911	5932.79
456.117	5992.19
456.323	6321.91
456.529	6285.05
456.735	6846.19
456.941	7040.75
457.147	7405.28
457.352	7470.82
457.558	7669.47
457.764	8249.05
457.97	8318.68
458.176	8589.01
458.381	9014.99
458.587	9178.83
458.793	9731.78
458.999	9787.07
459.204	10927.79
459.41	11112.11
459.616	11089.58
459.821	11796.13
460.027	12412.57
460.233	12924.56
460.438	12904.08
460.644	13559.43
460.85	13706.88
461.055	14182.01
461.261	14804.6
461.466	14601.85
461.672	15064.69
461.878	16735.83
462.083	16526.94
462.289	16891.48
462.494	17729.09
462.7	17645.13
462.905	18124.35
463.111	19416.62
463.316	20071.97
463.522	20741.66
463.727	21265.94
463.932	22144.52
464.138	22742.52
464.343	23608.81
464.549	24030.69
464.754	25785.8
464.959	26375.62
465.165	26674.62
465.37	26572.22
465.575	26738.11
465.781	28456.36
465.986	29050.27
466.191	28911
466.397	28884.38
466.602	28339.62
466.807	30180.74
467.012	30709.12
467.218	30807.42
467.423	31481.2
467.628	32197.99
467.833	33862.99
468.038	33019.23
468.244	32339.3
468.449	34592.07
468.654	33348.95
468.859	33506.65
469.064	33801.55
469.269	32673.12
469.474	32886.11
469.679	34016.59
469.885	33152.35
470.09	33701.2
470.295	33594.71
470.5	32523.62
470.705	33074.52
470.91	32185.71
471.115	32009.58
471.32	32386.41
471.525	32120.17
471.73	31575.41
471.935	30991.74
472.139	29918.6
472.344	30004.62
472.549	30055.82
472.754	29181.34
472.959	28136.87
473.164	27522.48
473.369	27137.46
473.574	28071.34
473.778	27651.5
473.983	27289.01
474.188	26695.1
474.393	25454.03
474.598	25265.62
474.802	24698.33
475.007	24358.37
475.212	24034.79
475.417	23004.66
475.621	23156.21
475.826	22838.78
476.031	22109.7
476.235	21857.8
476.44	21626.38
476.645	21130.77
476.849	20880.92
477.054	20604.44
477.259	20188.71
477.463	20055.59
477.668	19291.69
477.872	19467.82
478.077	19152.43
478.282	18345.53
478.486	18261.57
478.691	18075.2
478.895	17923.65
479.1	17591.88
479.304	17503.82
479.509	16844.37
479.713	17292.88
479.918	16858.71
480.122	16594.52
480.326	16514.65
480.531	16762.45
480.735	16268.89
480.94	16033.38
481.144	16598.62
481.348	15871.59
481.553	15920.74
481.757	15646.31
481.961	15795.81
482.166	15488.62
482.37	15275.63
482.574	15185.52
482.778	15199.85
482.983	15384.17
483.187	15093.36
483.391	14734.96
483.595	14429.82
483.8	14323.32
484.004	14331.51
484.208	14399.1
484.412	14216.83
484.616	14206.59
484.821	14067.33
485.025	13440.65
485.229	13725.32
485.433	13315.72
485.637	13315.72
485.841	13016.72
486.045	12760.72
486.249	12643.99
486.453	12412.57
486.657	12615.32
486.861	12254.87
487.065	12011.17
487.269	11642.53
487.473	11353.77
487.677	11435.69
487.881	11533.99
488.085	11183.79
488.289	10929.84
488.493	10546.87
488.697	10684.08
488.901	10356.41
489.105	10127.03
489.309	10223.29
489.512	10155.71
489.716	9664.19
489.92	9475.78
490.124	9254.6
490.328	9297.61
490.531	8857.29
490.735	8859.34
490.939	8660.69
491.143	8486.61
491.346	8242.9
491.55	8369.88
491.754	8175.32
491.958	8132.31
492.161	7874.27
492.365	7845.6
492.569	7569.12
492.772	7479.01
492.976	7427.81
493.18	7382.76
493.383	6936.3
493.587	7177.96
493.79	7153.38
493.994	6866.67
494.197	6756.08
494.401	6794.99
494.605	6600.43
494.808	6649.58
495.012	6594.29
495.215	6538.99
495.419	6438.64
495.622	6180.6
495.825	6334.2
496.029	6362.87
496.232	6252.28
496.436	6311.67
496.639	6356.72
496.843	6215.41
497.046	6100.73
497.249	6311.67
497.453	6102.78
497.656	6239.99
497.859	6160.12
498.063	6233.85
498.266	6235.89
498.469	6041.34
498.673	6297.33
498.876	6317.81
499.079	6328.05
499.282	6201.08
499.485	6366.96
499.689	6450.93
499.892	6305.53
500.095	6301.43
500.298	6326
500.501	6260.47
500.705	6457.07
500.908	6514.42
501.111	6592.24
501.314	6682.35
501.517	6510.32
501.72	6741.74
501.923	6684.4
502.126	6747.89
502.329	7012.07
502.532	7063.27
502.735	6964.97
502.938	7245.54
503.141	7032.55
503.344	7100.14
503.547	7278.31
503.75	7231.21
503.953	7513.83
504.156	7552.74
504.359	7718.62
504.562	7923.42
504.765	8013.53
504.968	8148.7
505.17	8124.12
505.373	8226.52
505.576	8437.46
505.779	8564.43
505.982	8382.17
506.185	8812.24
506.387	8695.5
506.59	9010.89
506.793	9109.19
506.996	9154.25
507.198	9461.44
507.401	9539.27
507.604	9883.33
507.807	9967.29
508.009	10182.33
508.212	10383.03
508.415	10585.78
508.617	10438.33
508.82	10915.5
509.022	10763.95
509.225	11382.44
509.428	11587.24
509.63	11773.6
509.833	11910.82
510.035	12318.36
510.238	12469.91
510.44	12557.97
510.643	13158.03
510.845	13430.41
511.048	13383.31
511.25	13778.56
511.453	13899.39
511.655	14820.98
511.858	14595.7
512.06	14904.95
512.262	15287.92
512.465	15234.67
512.667	16152.16
512.87	16295.52
513.072	16604.76
513.274	17180.24
513.477	17315.41
513.679	17743.43
513.881	18130.5
514.084	18640.44
514.286	18880.05
514.488	19492.4
514.69	19719.72
514.893	20325.92
515.095	20268.58
515.297	20966.93
515.499	21237.27
515.701	21718.54
515.904	22302.21
516.106	22771.19
516.308	23057.91
516.51	23725.55
516.712	24167.91
516.914	24815.07
517.116	24874.46
517.318	25466.32
517.52	26039.75
517.722	26105.29
517.925	26963.39
518.127	27358.64
518.329	28063.15
518.531	27792.81
518.733	28634.53
518.935	29250.97
519.136	29281.69
519.338	30061.96
519.54	30535.04
519.742	31284.6
519.944	31444.34
520.146	31917.42
520.348	32783.71
520.55	32695.65
520.752	33099.1
520.954	34049.36
521.155	33711.44
521.357	34241.87
521.559	34669.89
521.761	35056.96
521.963	35312.95
522.164	35829.04
522.366	36302.12
522.568	36656.42
522.77	36425
522.971	37305.63
523.173	37117.21
523.375	37739.8
523.576	37821.72
523.778	37973.27
523.98	38090
524.181	38479.11
524.383	38497.55
524.584	38868.23
524.786	38497.55
524.988	38610.18
525.189	38747.4
525.391	38624.52
525.592	39058.69
525.794	38939.91
525.995	38987.01
526.197	38702.34
526.398	38552.84
526.6	38948.1
526.801	38554.89
527.003	38761.73
527.204	38575.37
527.406	38501.64
527.607	38278.41
527.808	38501.64
528.01	37047.58
528.211	37430.55
528.412	38006.03
528.614	37897.49
528.815	37037.34
529.016	37084.45
529.218	36244.78
529.419	36277.55
529.62	36279.6
529.822	35511.61
530.023	35304.76
530.224	35003.71
530.425	34714.95
530.626	33826.13
530.828	33924.43
531.029	34377.03
531.23	33518.93
531.431	32466.28
531.632	32617.83
531.833	32050.54
532.035	32091.5
532.236	31538.55
532.437	31618.42
532.638	30616.96
532.839	30502.28
533.04	30172.55
533.241	29490.58
533.442	29885.84
533.643	28767.65
533.844	28573.09
534.045	28198.31
534.246	27592.11
534.447	27839.92
534.648	27098.55
534.849	26951.1
535.05	26349
535.251	26115.53
535.451	25468.37
535.652	25505.23
535.853	25322.96
536.054	24716.76
536.255	24509.92
536.456	23864.81
536.657	24014.31
536.857	23467.5
537.058	22869.5
537.259	22947.32
537.46	22543.87
537.66	22093.32
537.861	21820.94
538.062	21822.98
538.263	21208.59
538.463	21093.91
538.664	20858.39
538.865	20637.21
539.065	20467.23
539.266	19818.02
539.466	19928.61
539.667	19449.39
539.868	19406.38
540.068	19029.55
540.269	19084.85
540.469	18746.94
540.67	18593.34
540.87	18230.85
541.071	17954.37
541.271	17968.71
541.472	17747.53
541.672	17208.91
541.873	17147.47
542.073	16748.12
542.274	16858.71
542.474	16571.99
542.675	16191.07
542.875	16256.61
543.075	15928.93
543.276	15732.33
543.476	15896.16
543.676	15330.92
543.877	15476.33
544.077	15271.53
544.277	15113.84
544.478	14657.14
544.678	14728.82
544.878	14519.93
545.078	14425.72
545.279	14216.83
545.479	13889.15
545.679	14016.13
545.879	13778.56
546.079	13461.13
546.28	13350.54
546.48	13008.53
546.68	13117.07
546.88	12947.09
547.08	12752.53
547.28	12609.17
547.48	12295.83
547.68	12437.14
547.88	12084.89
548.081	11986.59
548.281	11818.66
548.481	11581.09
548.681	11562.66
548.881	11357.86
549.081	11325.1
549.28	11208.36
549.48	10962.61
549.68	10999.47
549.88	10722.99
550.08	10524.34
550.28	10249.91
550.48	10235.58
550.68	9991.87
550.88	9977.53
551.08	9852.61
551.279	9748.16
551.479	9371.33
551.679	9653.95
551.879	9250.5
552.079	9256.65
552.278	8867.53
552.478	8808.14
552.678	8777.42
552.878	8586.96
553.077	8324.82
553.277	8220.38
553.477	8335.06
553.676	8140.51
553.876	8066.78
554.076	7943.9
554.275	7821.02
554.475	7472.87
554.674	7646.94
554.874	7261.93
555.074	7177.96
555.273	7161.58
555.473	7218.92
555.672	6944.49
555.872	6651.63
556.071	6766.32
556.271	6897.39
556.47	6412.02
556.67	6213.37
556.869	6248.18
557.068	6211.32
557.268	5910.27
557.467	6031.1
557.667	5920.51
557.866	5891.84
558.065	5807.87
558.265	5697.28
558.464	5562.11
558.663	5418.75
558.863	5265.16
559.062	5396.23
559.261	5107.46
559.461	5177.09
559.66	4953.87
559.859	4902.67
560.058	4865.8
560.258	4491.02
560.457	4671.25
560.656	4724.49
560.855	4417.3
561.054	4683.53
561.253	4392.72
561.453	4427.54
561.652	4290.32
561.851	4106.01
562.05	4077.34
562.249	4079.38
562.448	3995.42
562.647	3897.11
562.846	3884.83
563.045	3835.67
563.244	3761.95
563.443	3753.76
563.642	3669.79
563.841	3743.52
564.04	3530.53
564.239	3651.36
564.438	3501.86
564.637	3389.22
564.836	3319.59
565.035	3200.8
565.234	3260.2
565.432	3204.9
565.631	3225.38
565.83	3170.08
566.029	3004.2
566.228	2953
566.427	2932.52
566.625	2930.47
566.824	2963.24
567.023	2852.65
567.222	2780.97
567.42	2830.12
567.619	2776.87
567.818	2613.04
568.016	2881.32
568.215	2563.89
568.414	2596.65
568.612	2594.61
568.811	2553.65
569.01	2395.95
569.208	2463.54
569.407	2381.62
569.605	2545.45
569.804	2422.58
570.002	2352.95
570.201	2244.4
570.4	2230.07
570.598	2266.93
570.797	2221.88
570.995	1996.6
571.193	2125.62
571.392	2027.32
571.59	1963.83
571.789	2015.03
571.987	2090.81
572.186	2096.95
572.384	1853.24
572.582	1920.82
572.781	1918.78
572.979	1759.03
573.177	1769.27
573.376	1795.9
573.574	1863.48
573.772	1754.94
573.971	1728.31
574.169	1544
574.367	1623.87
574.565	1632.06
574.763	1523.52
574.962	1644.35
575.16	1494.85
575.358	1537.85
575.556	1449.79
575.754	1507.13
575.952	1392.45
576.151	1433.41
576.349	1460.03
576.547	1369.92
576.745	1337.15
576.943	1359.68
577.141	1320.77
577.339	1169.22
577.537	1300.29
577.735	1247.04
577.933	1253.19
578.131	1204.03
578.329	1279.81
578.527	1197.89
578.725	1247.04
578.923	1070.92
579.121	1214.27
579.319	1050.44
579.516	1083.2
579.714	1263.43
579.912	1148.74
580.11	952.13
580.308	1040.2
580.506	943.94
580.704	911.18
580.901	986.95
581.099	966.47
581.297	941.89
581.495	962.37
581.692	972.61
581.89	995.14
582.088	855.88
582.285	862.02
582.483	855.88
582.681	771.91
582.878	851.78
583.076	890.7
583.274	849.74
583.471	890.7
583.669	905.03
583.866	821.06
584.064	745.29
584.262	669.52
584.459	628.56
584.657	749.39
584.854	900.94
585.052	644.94
585.249	839.5
585.447	728.91
585.644	644.94
585.841	841.54
586.039	755.53
586.236	751.43
586.434	665.42
586.631	653.13
586.828	624.46
587.026	681.8
587.223	542.54
587.42	618.32
587.618	644.94
587.815	745.29
588.012	622.41
588.21	587.6
588.407	700.23
588.604	661.32
588.801	569.16
588.999	581.45
589.196	630.6
589.393	560.97
589.59	573.26
589.787	567.12
589.984	556.88
590.182	593.74
590.379	462.67
590.576	513.87
590.773	542.54
590.97	554.83
591.167	638.8
591.364	589.64
591.561	534.35
591.758	706.38
591.955	573.26
592.152	558.92
592.349	544.59
592.546	440.14
592.743	384.85
592.94	515.92
593.137	538.45
593.334	571.21
593.531	579.4
593.727	497.49
593.924	563.02
594.121	497.49
594.318	479.05
594.515	603.98
594.712	589.64
594.908	622.41
595.105	495.44
595.302	563.02
595.499	497.49
595.696	712.52
595.892	440.14
596.089	579.4
596.286	542.54
596.482	585.55
596.679	661.32
596.876	616.27
597.072	659.28
597.269	646.99
597.466	657.23
597.662	577.36
597.859	710.47
598.055	769.87
598.252	833.35
598.448	837.45
598.645	886.6
598.841	853.83
599.038	911.18
599.234	1027.91
599.431	952.13
599.627	872.26
599.824	982.85
600.02	980.81
600.217	960.33
600.413	1169.22
600.609	1187.65
600.806	1462.08
601.002	1222.47
601.198	1230.66
601.395	1378.11
601.591	1308.48
601.787	1288
601.984	1578.81
602.18	1558.33
602.376	1558.33
602.572	1697.6
602.769	1797.95
602.965	1732.41
603.161	1726.27
603.357	2055.99
603.553	2082.61
603.75	1992.5
603.946	2037.56
604.142	2150.2
604.338	2342.71
604.534	2201.4
604.73	2303.79
604.926	2426.67
605.122	2588.46
605.318	2467.63
605.514	2744.11
605.71	2752.3
605.906	2819.88
606.102	2871.08
606.298	2957.1
606.494	3165.99
606.69	3125.03
606.886	3170.08
607.082	3190.56
607.278	3221.28
607.474	3514.14
607.67	3598.11
607.866	3606.3
608.062	3809.05
608.257	4044.57
608.453	3837.72
608.649	4110.1
608.845	4022.04
609.041	4302.61
609.236	4542.22
609.432	4568.85
609.628	4675.34
609.824	4869.9
610.019	4886.28
610.215	4982.54
610.411	5412.61
610.606	5400.32
610.802	5418.75
610.998	5467.91
611.193	5719.81
611.389	5914.36
611.584	6012.67
611.78	6272.76
611.976	6389.49
612.171	6823.66
612.367	6856.43
612.562	6969.07
612.758	7079.66
612.953	7169.77
613.149	7429.86
613.344	7655.14
613.539	7878.37
613.735	7954.14
613.93	8543.95
614.126	8310.49
614.321	8726.22
614.517	9162.44
614.712	9092.81
614.907	9455.3
615.103	9651.91
615.298	9842.37
615.493	9918.14
615.688	9963.2
615.884	10634.93
616.079	10843.82
616.274	11062.96
616.47	11376.3
616.665	11572.9
616.86	11706.02
617.055	12269.21
617.25	12469.91
617.445	12904.08
617.641	13102.73
617.836	13467.27
618.031	13559.43
618.226	13903.49
618.421	14513.78
618.616	14902.9
618.811	15042.16
619.006	15595.11
619.201	15597.16
619.396	16303.71
619.591	16234.08
619.786	16684.63
619.981	17106.51
620.176	17706.57
620.371	17911.36
620.566	18501.18
620.761	18652.73
620.956	19197.49
621.151	19191.34
621.346	19789.35
621.541	20166.18
621.735	20903.45
621.93	20958.74
622.125	21192.21
622.32	21505.55
622.515	22062.6
622.709	22543.87
622.904	23164.4
623.099	23109.11
623.294	23840.23
623.488	24286.69
623.683	24585.69
623.878	24776.16
624.072	25236.95
624.267	25675.21
624.462	25929.16
624.656	25978.31
624.851	27030.97
625.046	26860.99
625.24	27497.91
625.435	27758
625.629	28280.23
625.824	28579.23
626.018	29095.32
626.213	29093.27
626.407	29943.18
626.602	29549.97
626.796	30354.82
626.991	30741.89
627.185	30829.95
627.38	31294.84
627.574	31264.12
627.768	31300.98
627.963	31239.54
628.157	31499.64
628.352	32157.03
628.546	31542.64
628.74	32277.86
628.935	31806.83
629.129	32152.94
629.323	31657.33
629.517	31102.33
629.712	31491.44
629.906	31507.83
630.1	30920.06
630.294	30948.73
630.489	30352.77
630.683	30385.54
630.877	29631.89
631.071	28980.64
631.265	29085.08
631.459	28050.86
631.653	27518.39
631.848	27327.92
632.042	26342.85
632.236	26318.28
632.43	25132.5
632.624	24968.66
632.818	23860.71
633.012	23080.44
633.206	22504.96
633.4	21978.63
633.594	20944.41
633.788	20788.76
633.982	19938.85
634.176	19267.12
634.369	18574.91
634.563	17794.63
634.757	16928.34
634.951	16682.58
635.145	16100.96
635.339	15353.45
635.533	14732.92
635.726	14130.81
635.92	13242
636.114	13244.04
636.308	12449.43
636.501	11839.14
636.695	11507.37
636.889	10845.87
637.083	10606.26
637.276	10227.39
637.47	9676.48
637.664	9373.38
637.857	9109.19
638.051	8570.58
638.244	8287.96
638.438	7847.65
638.632	7685.86
638.825	7182.06
639.019	7096.04
639.212	6706.93
639.406	6362.87
639.599	6260.47
639.793	6088.44
639.986	5695.23
640.18	5736.19
640.373	5498.63
640.567	5046.02
640.76	4974.35
640.954	4744.97
641.147	4441.87
641.34	4409.11
641.534	4298.52
641.727	4230.93
641.92	4032.28
642.114	3766.04
642.307	3565.34
642.5	3551.01
642.694	3286.82
642.887	3219.24
643.08	3149.61
643.273	3049.25
643.467	2942.76
643.66	2842.41
643.853	2539.31
644.046	2565.93
644.239	2533.17
644.432	2326.32
644.626	2133.81
644.819	2264.88
645.012	2158.39
645.205	2211.64
645.398	1959.74
645.591	1965.88
645.784	1769.27
645.977	1738.55
646.17	1754.94
646.363	1584.96
646.556	1472.32
646.749	1421.12
646.942	1439.55
647.135	1451.84
647.328	1353.54
647.521	1281.86
647.714	1263.43
647.907	1195.84
648.099	1169.22
648.292	1277.76
648.485	1111.88
648.678	1034.05
648.871	927.56
649.064	972.61
649.256	948.04
649.449	864.07
649.642	790.35
649.835	743.24
650.027	739.15
650.22	831.3
650.413	722.76
650.605	751.43
650.798	730.95
650.991	622.41
651.183	696.14
651.376	624.46
651.568	696.14
651.761	597.84
651.954	534.35
652.146	599.88
652.339	706.38
652.531	583.5
652.724	444.24
652.916	450.38
653.109	339.79
653.301	554.83
653.494	497.49
653.686	401.23
653.879	511.82
654.071	440.14
654.263	423.76
654.456	503.63
654.648	456.53
654.84	495.44
655.033	376.66
655.225	386.9
655.417	264.02
655.61	434
655.802	341.84
655.994	356.18
656.186	223.06
656.379	278.35
656.571	341.84
656.763	292.69
656.955	278.35
657.148	333.65
657.34	313.17
657.532	235.35
657.724	249.68
657.916	307.02
658.108	354.13
658.3	268.11
658.492	282.45
658.684	225.11
658.876	300.88
659.068	210.77
659.26	178
659.452	196.43
659.644	243.54
659.836	329.55
660.028	182.1
660.22	155.47
660.412	100.18
660.604	214.87
660.796	239.44
660.988	319.31
661.18	218.96
661.372	272.21
661.563	153.43
661.755	200.53
661.947	182.1
662.139	106.32
662.331	184.15
662.522	214.87
662.714	73.56
662.906	126.8
663.097	214.87
663.289	155.47
663.481	122.71
663.673	180.05
663.864	71.51
664.056	218.96
664.247	91.99
664.439	186.19
664.631	188.24
664.822	190.29
665.014	130.9
665.205	124.76
665.397	14.17
665.588	155.47
665.78	186.19
665.971	214.87
666.163	124.76
666.354	235.35
666.546	143.19
666.737	61.27
666.929	118.61
667.12	67.41
667.311	194.39
667.503	91.99
667.694	132.95
667.885	212.82
668.077	141.14
668.268	83.8
668.459	137.04
668.651	173.91
668.842	178
669.033	87.89
669.224	67.41
669.416	321.36
669.607	153.43
669.798	167.76
669.989	229.2
670.18	130.9
670.371	157.52
670.563	102.23
670.754	169.81
670.945	206.67
671.136	214.87
671.327	46.93
671.518	184.15
671.709	208.72
671.9	196.43
672.091	249.68
672.282	180.05
672.473	186.19
672.664	71.51
672.855	147.28
673.046	135
673.237	214.87
673.428	98.13
673.619	175.95
673.809	169.81
674	218.96
674.191	171.86
674.382	141.14
674.573	157.52
674.764	163.67
674.954	151.38
675.145	30.55
675.336	71.51
675.527	79.7
675.717	67.41
675.908	77.65
676.099	75.6
676.289	210.77
676.48	24.4
676.671	116.56
676.861	59.22
677.052	188.24
677.243	75.6
677.433	130.9
677.624	161.62
677.814	202.58
678.005	114.52
678.195	237.39
678.386	149.33
678.576	171.86
678.767	100.18
678.957	157.52
679.148	221.01
679.338	212.82
679.529	173.91
679.719	202.58
679.909	239.44
680.1	196.43
680.29	284.5
680.481	108.37
680.671	216.91
680.861	298.83
681.052	218.96
681.242	206.67
681.432	223.06
681.622	196.43
681.813	94.04
682.003	247.63
682.193	71.51
682.383	161.62
682.573	161.62
682.764	229.2
682.954	198.48
683.144	300.88
683.334	216.91
683.524	216.91
683.714	212.82
683.904	206.67
684.094	137.04
684.284	116.56
684.474	321.36
684.664	245.59
684.854	278.35
685.044	259.92
685.234	223.06
685.424	178
685.614	135
685.804	290.64
685.994	182.1
686.184	159.57
686.374	180.05
686.564	153.43
686.753	147.28
686.943	149.33
687.133	210.77
687.323	151.38
687.513	235.35
687.702	206.67
687.892	212.82
688.082	223.06
688.272	237.39
688.461	194.39
688.651	325.46
688.841	202.58
689.03	186.19
689.22	126.8
689.41	278.35
689.599	229.2
689.789	198.48
689.979	257.87
690.168	253.78
690.358	202.58
690.547	165.71
690.737	272.21
690.926	153.43
691.116	239.44
691.305	225.11
691.495	239.44
691.684	163.67
691.874	182.1
692.063	139.09
692.252	237.39
692.442	182.1
692.631	196.43
692.82	237.39
693.01	192.34
693.199	98.13
693.388	233.3
693.578	210.77
693.767	149.33
693.956	264.02
694.146	202.58
694.335	204.63
694.524	173.91
694.713	198.48
694.902	169.81
695.092	122.71
695.281	198.48
695.47	198.48
695.659	175.95
695.848	124.76
696.037	190.29
696.226	194.39
696.415	159.57
696.604	268.11
696.793	243.54
696.982	167.76
697.171	227.15
697.36	141.14
697.549	231.25
697.738	55.12
697.927	71.51
698.116	100.18
698.305	218.96
698.494	235.35
698.683	157.52
698.872	298.83
699.061	128.85
699.25	139.09
699.438	184.15
699.627	145.24
699.816	294.74
700.005	130.9
700.193	141.14
700.382	239.44
700.571	159.57
700.76	155.47
700.948	272.21
701.137	206.67
701.326	278.35
701.514	128.85
701.703	237.39
701.892	182.1
702.08	307.02
702.269	163.67
702.457	126.8
702.646	149.33
702.834	190.29
703.023	143.19
703.212	192.34
703.4	198.48
703.589	151.38
703.777	112.47
703.965	73.56
704.154	204.63
704.342	128.85
704.531	243.54
704.719	186.19
704.907	231.25
705.096	124.76
705.284	69.46
705.472	155.47
705.661	221.01
705.849	198.48
706.037	198.48
706.226	261.97
706.414	231.25
706.602	184.15
706.79	196.43
706.979	116.56
707.167	145.24
707.355	73.56
707.543	190.29
707.731	229.2
707.919	171.86
708.107	124.76
708.296	104.28
708.484	126.8
708.672	214.87
708.86	214.87
709.048	198.48
709.236	120.66
709.424	221.01
709.612	229.2
709.8	83.8
709.988	171.86
710.176	165.71
710.364	153.43
710.551	126.8
710.739	147.28
710.927	149.33
711.115	171.86
711.303	274.26
711.491	239.44
711.679	83.8
711.866	216.91
712.054	161.62
712.242	145.24
712.43	280.4
712.617	157.52
712.805	218.96
712.993	147.28
713.181	100.18
713.368	216.91
713.556	214.87
713.744	210.77
713.931	345.94
714.119	225.11
714.306	130.9
714.494	157.52
714.682	182.1
714.869	130.9
715.057	137.04
715.244	104.28
715.432	212.82
715.619	110.42
715.807	251.73
715.994	137.04
716.182	163.67
716.369	235.35
716.556	313.17
716.744	91.99
716.931	132.95
717.119	257.87
717.306	317.26
717.493	151.38
717.681	178
717.868	227.15
718.055	214.87
718.242	157.52
718.43	223.06
718.617	268.11
718.804	194.39
718.991	247.63
719.179	239.44
719.366	225.11
719.553	235.35
719.74	218.96
719.927	114.52
720.114	204.63
720.301	204.63
720.488	206.67
720.676	106.32
720.863	329.55
721.05	370.51
721.237	286.54
721.424	161.62
721.611	227.15
721.798	71.51
721.985	253.78
722.172	212.82
722.358	200.53
722.545	268.11
722.732	231.25
722.919	292.69
723.106	321.36
723.293	141.14
723.48	208.72
723.667	163.67
723.853	266.07
724.04	243.54
724.227	278.35
724.414	210.77
724.6	235.35
724.787	284.5
724.974	302.93
725.161	241.49
725.347	180.05
725.534	304.98
725.72	214.87
725.907	264.02
726.094	288.59
726.28	132.95
726.467	284.5
726.653	159.57
726.84	415.57
727.027	341.84
727.213	288.59
727.4	325.46
727.586	259.92
727.773	196.43
727.959	241.49
728.145	276.31
728.332	251.73
728.518	253.78
728.705	255.83
728.891	284.5
729.077	214.87
729.264	231.25
729.45	251.73
729.636	280.4
729.823	167.76
730.009	333.65
730.195	276.31
730.382	325.46
730.568	173.91
730.754	235.35
730.94	223.06
731.126	264.02
731.313	233.3
731.499	237.39
731.685	309.07
731.871	337.74
732.057	311.12
732.243	354.13
732.429	284.5
732.615	360.27
732.801	307.02
732.987	298.83
733.173	245.59
733.359	280.4
733.545	255.83
733.731	284.5
733.917	358.22
734.103	317.26
734.289	343.89
734.475	169.81
734.661	362.32
734.847	264.02
735.033	247.63
735.219	309.07
735.404	198.48
735.59	255.83
735.776	331.6
735.962	343.89
736.148	264.02
736.333	319.31
736.519	317.26
736.705	294.74
736.89	354.13
737.076	233.3
737.262	173.91
737.447	259.92
737.633	317.26
737.819	337.74
738.004	278.35
738.19	272.21
738.375	321.36
738.561	434
738.747	366.42
738.932	223.06
739.118	434
739.303	294.74
739.489	358.22
739.674	239.44
739.859	184.15
740.045	268.11
740.23	315.22
740.416	218.96
740.601	288.59
740.786	251.73
740.972	257.87
741.157	216.91
741.342	268.11
741.528	237.39
741.713	313.17
741.898	247.63
742.084	272.21
742.269	208.72
742.454	284.5
742.639	247.63
742.824	192.34
743.01	327.5
743.195	362.32
743.38	229.2
743.565	313.17
743.75	268.11
743.935	294.74
744.12	331.6
744.305	165.71
744.49	292.69
744.675	304.98
744.86	284.5
745.045	382.8
745.23	327.5
745.415	227.15
745.6	360.27
745.785	190.29
745.97	253.78
746.155	309.07
746.34	419.66
746.525	239.44
746.71	321.36
746.895	241.49
747.079	241.49
747.264	300.88
747.449	354.13
747.634	370.51
747.819	319.31
748.003	270.16
748.188	198.48
748.373	362.32
748.557	255.83
748.742	198.48
748.927	261.97
749.111	294.74
749.296	264.02
749.481	325.46
749.665	329.55
749.85	182.1
750.034	268.11
750.219	264.02
750.404	208.72
750.588	317.26
750.773	188.24
750.957	266.07
751.141	149.33
751.326	345.94
751.51	163.67
751.695	200.53
751.879	206.67
752.064	298.83
752.248	192.34
752.432	229.2
752.617	214.87
752.801	255.83
752.985	186.19
753.17	253.78
753.354	284.5
753.538	225.11
753.722	128.85
753.907	147.28
754.091	171.86
754.275	274.26
754.459	221.01
754.643	149.33
754.828	317.26
755.012	239.44
755.196	188.24
755.38	216.91
755.564	132.95
755.748	221.01
755.932	206.67
756.116	280.4
756.3	247.63
756.484	186.19
756.668	296.78
756.852	145.24
757.036	188.24
757.22	221.01
757.404	161.62
757.588	153.43
757.772	255.83
757.956	147.28
758.14	255.83
758.323	188.24
758.507	221.01
758.691	165.71
758.875	225.11
759.059	288.59
759.242	171.86
759.426	126.8
759.61	298.83
759.794	155.47
759.977	196.43
760.161	341.84
760.345	204.63
760.528	216.91
760.712	167.76
760.895	231.25
761.079	124.76
761.263	55.12
761.446	71.51
761.63	180.05
761.813	296.78
761.997	120.66
762.18	124.76
762.364	184.15
762.547	91.99
762.731	173.91
762.914	126.8
763.098	46.93
763.281	159.57
763.464	104.28
763.648	132.95
763.831	188.24
764.015	65.36
764.198	235.35
764.381	173.91
764.564	106.32
764.748	149.33
764.931	178
765.114	73.56
765.297	196.43
765.481	77.65
765.664	194.39
765.847	130.9
766.03	106.32
766.213	137.04
766.397	128.85
766.58	18.26
766.763	196.43
766.946	112.47
767.129	73.56
767.312	137.04
767.495	143.19
767.678	122.71
767.861	145.24
768.044	155.47
768.227	186.19
768.41	98.13
768.593	91.99
768.776	143.19
768.959	151.38
769.142	165.71
769.324	139.09
769.507	96.08
769.69	89.94
769.873	135
770.056	218.96
770.239	3.93
770.421	231.25
770.604	151.38
770.787	81.75
770.97	186.19
771.152	79.7
771.335	157.52
771.518	126.8
771.7	241.49
771.883	245.59
772.066	34.64
772.248	153.43
772.431	255.83
772.613	122.71
772.796	102.23
772.978	214.87
773.161	178
773.343	79.7
773.526	89.94
773.708	26.45
773.891	34.64
774.073	112.47
774.256	32.6
774.438	223.06
774.621	91.99
774.803	188.24
774.985	116.56
775.168	128.85
775.35	108.37
775.532	194.39
775.715	91.99
775.897	114.52
776.079	112.47
776.261	65.36
776.444	114.52
776.626	102.23
776.808	143.19
776.99	59.22
777.173	83.8
777.355	89.94
777.537	122.71
777.719	79.7
777.901	5.97
778.083	63.32
778.265	-16.55
778.447	116.56
778.629	79.7
778.811	79.7
778.993	132.95
779.175	161.62
779.357	67.41
779.539	-65.71
779.721	102.23
779.903	89.94
780.085	61.27
780.267	120.66
780.449	42.84
780.631	182.1
780.812	149.33
780.994	67.41
781.176	116.56
781.358	53.08
781.54	65.36
781.721	120.66
781.903	51.03
782.085	108.37
782.267	141.14
782.448	55.12
782.63	108.37
782.812	108.37
782.993	145.24
783.175	126.8
783.357	48.98
783.538	38.74
783.72	44.88
783.901	108.37
784.083	98.13
784.264	89.94
784.446	-37.03
784.627	100.18
784.809	67.41
784.99	-24.75
785.172	132.95
785.353	-6.31
785.535	143.19
785.716	8.02
785.897	38.74
786.079	44.88
786.26	83.8
786.441	51.03
786.623	-92.33
786.804	26.45
786.985	-51.37
787.167	173.91
787.348	89.94
787.529	77.65
787.71	218.96
787.891	-20.65
788.073	16.21
788.254	-26.79
788.435	110.42
788.616	114.52
788.797	83.8
788.978	-26.79
789.159	-14.51
789.34	65.36
789.522	89.94
789.703	18.26
789.884	61.27
790.065	85.84
790.246	128.85
790.427	34.64
790.607	175.95
790.788	91.99
790.969	12.12
791.15	67.41
791.331	98.13
791.512	38.74
791.693	26.45
791.874	112.47
792.054	247.63
792.235	96.08
792.416	-39.08
792.597	-10.41
792.778	59.22
792.958	69.46
793.139	26.45
793.32	-4.27
793.5	71.51
793.681	149.33
793.862	130.9
794.042	59.22
794.223	-20.65
794.404	87.89
794.584	1.88
794.765	12.12
794.945	3.93
795.126	98.13
795.306	110.42
795.487	40.79
795.667	24.4
795.848	63.32
796.028	71.51
796.209	55.12
796.389	124.76
796.57	5.97
796.75	-51.37
796.93	96.08
797.111	44.88
797.291	12.12
797.471	163.67
797.652	116.56
797.832	-12.46
798.012	108.37
798.192	71.51
798.373	22.36
798.553	1.88
798.733	38.74
798.913	14.17
799.093	5.97
799.274	-10.41
799.454	96.08
799.634	69.46
799.814	130.9
799.994	53.08
800.174	83.8
800.354	18.26
800.534	-55.47
800.714	130.9
800.894	-71.85
801.074	-37.03
801.254	20.31
801.434	175.95
801.614	77.65
801.794	-22.7
801.974	1574.72
802.154	5.97
802.334	141.14
802.514	-26.79
802.693	96.08
802.873	63.32
803.053	135
803.233	8.02
803.413	24.4
803.592	30.55
803.772	-8.36
803.952	65.36
804.131	10.07
804.311	83.8
804.491	124.76
804.67	18.26
804.85	30.55
805.03	116.56
805.209	116.56
805.389	18.26
805.568	59.22
805.748	18.26
805.928	12.12
806.107	81.75
806.287	81.75
806.466	57.17
806.646	44.88
806.825	48.98
807.004	67.41
807.184	34.64
807.363	94.04
807.543	-24.75
807.722	-14.51
807.901	155.47
808.081	110.42
808.26	-63.66
808.439	94.04
808.619	22.36
808.798	51.03
808.977	51.03
809.156	51.03
809.336	-18.6
809.515	94.04
809.694	-53.42
809.873	-24.75
810.052	67.41
810.231	63.32
810.411	18.26
810.59	75.6
810.769	34.64
810.948	75.6
811.127	-69.8
811.306	-14.51
811.485	26.45
811.664	151.38
811.843	126.8
812.022	18.26
812.201	32.6
812.38	-22.7
812.559	3.93
812.737	153.43
812.916	-84.14
813.095	53.08
813.274	-34.99
813.453	53.08
813.632	75.6
813.811	44.88
813.989	-100.52
814.168	67.41
814.347	1.88
814.526	1.88
814.704	116.56
814.883	145.24
815.062	-96.43
815.24	108.37
815.419	-112.81
815.598	73.56
815.776	-73.9
815.955	40.79
816.133	-137.38
816.312	28.5
816.49	-57.51
816.669	-18.6
816.847	-2.22
817.026	-0.17
817.204	12.12
817.383	79.7
817.561	-57.51
817.74	94.04
817.918	94.04
818.097	-6.31
818.275	-14.51
818.453	65.36
818.632	51.03
818.81	-20.65
818.988	28.5
819.167	-69.8
819.345	83.8
819.523	22.36
819.701	42.84
819.879	65.36
820.058	-32.94
820.236	75.6
820.414	51.03
820.592	46.93
820.77	34.64
820.948	-32.94
821.127	-6.31
821.305	83.8
821.483	-61.61
821.661	149.33
821.839	63.32
822.017	-22.7
822.195	46.93
822.373	53.08
822.551	36.69
822.729	40.79
822.907	79.7
823.085	51.03
823.262	-20.65
823.44	-39.08
823.618	32.6
823.796	-16.55
823.974	-14.51
824.152	-43.18
824.329	46.93
824.507	44.88
824.685	57.17
824.863	-12.46
825.04	-0.17
825.218	98.13
825.396	67.41
825.574	42.84
825.751	38.74
825.929	26.45
826.107	44.88
826.284	63.32
826.462	38.74
826.639	-30.89
826.817	14.17
826.994	-0.17
827.172	-16.55
827.349	100.18
827.527	57.17
827.704	16.21
827.882	112.47
828.059	22.36
828.237	-34.99
828.414	22.36
828.591	-125.1
828.769	-45.23
828.946	-34.99
829.124	61.27
829.301	34.64
829.478	34.64
829.655	112.47
829.833	-32.94
830.01	-94.38
830.187	-4.27
830.364	-49.32
830.542	38.74
830.719	79.7
830.896	67.41
831.073	59.22
831.25	55.12
831.427	112.47
831.604	-55.47
831.782	-14.51
831.959	63.32
832.136	-22.7
832.313	57.17
832.49	32.6
832.667	55.12
832.844	-94.38
833.021	116.56
833.198	-4.27
833.374	69.46
833.551	36.69
833.728	5.97
833.905	69.46
834.082	-41.13
834.259	24.4
834.436	59.22
834.612	-30.89
834.789	106.32
834.966	38.74
835.143	26.45
835.319	-39.08
835.496	22.36
835.673	1.88
835.85	71.51
836.026	61.27
836.203	106.32
836.38	-14.51
836.556	83.8
836.733	34.64
836.909	175.95
837.086	-20.65
837.262	-73.9
837.439	-0.17
837.616	-51.37
837.792	28.5
837.968	63.32
838.145	-121
838.321	8.02
838.498	42.84
838.674	114.52
838.851	1.88
839.027	-26.79
839.203	48.98
839.38	28.5
839.556	-16.55
839.732	-22.7
839.909	38.74
840.085	65.36
840.261	8.02
840.437	34.64
840.614	-73.9
840.79	98.13
840.966	75.6
841.142	57.17
841.318	-20.65
841.494	77.65
841.671	26.45
841.847	14.17
842.023	-37.03
842.199	-20.65
842.375	87.89
842.551	-82.09
842.727	-75.95
842.903	202.58
843.079	-63.66
843.255	130.9
843.431	-41.13
843.607	108.37
843.783	-80.04
843.959	42.84
844.134	-82.09
844.31	161.62
844.486	-67.75
844.662	-55.47
844.838	10.07
845.013	42.84
845.189	10.07
845.365	61.27
845.541	46.93
845.716	5.97
845.892	48.98
846.068	8.02
846.244	-24.75
846.419	24.4
846.595	-6.31
846.77	-69.8
846.946	48.98
847.122	-43.18
847.297	8.02
847.473	151.38
847.648	-127.14
847.824	10.07
847.999	-67.75
848.175	-2.22
848.35	112.47
848.526	106.32
848.701	28.5
848.876	77.65
849.052	67.41
849.227	-14.51
849.403	30.55
849.578	-2.22
849.753	42.84
849.929	46.93
850.104	-98.47
850.279	26.45
850.454	32.6
850.63	67.41
850.805	22.36
850.98	10.07
851.155	46.93
851.33	42.84
851.505	1.88
851.681	114.52
851.856	8.02
852.031	71.51
852.206	96.08
852.381	-14.51
852.556	-22.7
852.731	30.55
852.906	-2.22
853.081	18.26
853.256	112.47
853.431	10.07
853.606	-37.03
853.781	-24.75
853.956	-47.27
854.131	-12.46
854.305	-24.75
854.48	30.55
854.655	-41.13
854.83	24.4
855.005	32.6
855.18	8.02
855.354	20.31
855.529	-6.31
855.704	128.85
855.879	89.94
856.053	-16.55
856.228	-12.46
856.403	-53.42
856.577	32.6
856.752	-106.67
856.926	46.93
857.101	94.04
857.276	-90.28
857.45	-20.65
857.625	5.97
857.799	-4.27
857.974	38.74
858.148	-6.31
858.323	79.7
858.497	32.6
858.672	-49.32
858.846	-32.94
859.02	42.84
859.195	-61.61
859.369	81.75
859.543	55.12
859.718	34.64
859.892	102.23
860.066	77.65
860.241	-8.36
860.415	-59.56
860.589	-16.55
860.763	-65.71
860.938	-6.31
861.112	73.56
861.286	-49.32
861.46	42.84
861.634	-2.22
861.808	53.08
861.982	-114.86
862.157	28.5
862.331	40.79
862.505	-30.89
862.679	-69.8
862.853	87.89
863.027	-16.55
863.201	91.99
863.375	-51.37
863.549	65.36
863.722	-8.36
863.896	85.84
864.07	-98.47
864.244	65.36
864.418	83.8
864.592	-34.99
864.766	48.98
864.939	-55.47
865.113	-41.13
865.287	147.28
865.461	-2.22
865.634	-26.79
865.808	61.27
865.982	53.08
866.156	-39.08
866.329	-4.27
866.503	51.03
866.676	14.17
866.85	108.37
867.024	-71.85
867.197	79.7
867.371	85.84
867.544	55.12
867.718	-39.08
867.891	145.24
868.065	-100.52
868.238	55.12
868.412	91.99
868.585	36.69
868.759	8.02
868.932	12.12
869.105	3.93
869.279	36.69
869.452	-18.6
869.625	106.32
869.799	22.36
869.972	-26.79
870.145	12.12
870.319	112.47
870.492	24.4
870.665	-16.55
870.838	26.45
871.011	-88.23
871.185	16.21
871.358	-32.94
871.531	10.07
871.704	55.12
871.877	-14.51
872.05	-32.94
872.223	-43.18
872.396	51.03
872.569	114.52
872.742	-47.27
872.915	44.88
873.088	-14.51
873.261	-16.55
873.434	40.79
873.607	34.64
873.78	118.61
873.953	-71.85
874.126	75.6
874.299	38.74
874.471	-14.51
874.644	46.93
874.817	141.14
874.99	124.76
875.163	-4.27
875.335	20.31
875.508	26.45
875.681	3.93
875.853	-22.7
876.026	-20.65
876.199	63.32
876.371	5.97
876.544	42.84
876.717	-67.75
876.889	24.4
877.062	-8.36
877.234	-14.51
877.407	-10.41
877.579	-0.17
877.752	-26.79
877.924	38.74
878.097	67.41
878.269	30.55
878.442	-22.7
878.614	32.6
878.786	12.12
878.959	38.74
879.131	18.26
879.303	-69.8
879.476	-0.17
879.648	89.94
879.82	5.97
879.993	-24.75
880.165	-18.6
880.337	-22.7
880.509	53.08
880.681	-61.61
880.854	-49.32
881.026	3.93
881.198	104.28
881.37	-71.85
881.542	18.26
881.714	96.08
881.886	71.51
882.058	3.93
882.23	75.6
882.402	38.74
882.574	71.51
882.746	55.12
882.918	102.23
883.09	59.22
883.262	-88.23
883.434	-4.27
883.606	-63.66
883.778	55.12
883.95	87.89
884.122	-8.36
884.293	42.84
884.465	67.41
884.637	102.23
884.809	5.97
884.98	10.07
885.152	1.88
885.324	42.84
885.496	48.98
885.667	-8.36
885.839	-10.41
886.011	55.12
886.182	128.85
886.354	110.42
886.525	24.4
886.697	24.4
886.869	-61.61
887.04	-30.89
887.212	59.22
887.383	120.66
887.555	87.89
887.726	-24.75
887.897	-47.27
888.069	-16.55
888.24	79.7
888.412	-0.17
888.583	-49.32
888.754	-34.99
888.926	-69.8
889.097	20.31
889.268	-67.75
889.44	-26.79
889.611	-88.23
889.782	10.07
889.953	-49.32
890.125	128.85
890.296	-82.09
890.467	-20.65
890.638	22.36
890.809	-39.08
890.98	-6.31
891.151	51.03
891.323	114.52
891.494	48.98
891.665	-88.23
891.836	48.98
892.007	3.93
892.178	89.94
892.349	46.93
892.52	-10.41
892.691	14.17
892.862	5.97
893.032	-125.1
893.203	5.97
893.374	63.32
893.545	118.61
893.716	-18.6
893.887	110.42
894.057	-6.31
894.228	8.02
894.399	-30.89
894.57	182.1
894.74	-16.55
894.911	40.79
895.082	55.12
895.253	26.45
895.423	26.45
895.594	-2.22
895.764	102.23
895.935	-14.51
896.106	-0.17
896.276	-55.47
896.447	57.17
896.617	-10.41
896.788	-71.85
896.958	-14.51
897.129	-32.94
897.299	-88.23
897.47	98.13
897.64	28.5
897.81	5.97
897.981	79.7
898.151	-114.86
898.322	55.12
898.492	12.12
898.662	-8.36
898.832	-55.47
899.003	-2.22
899.173	26.45
899.343	1.88
899.513	-61.61
