Data from USB4F104151__74__11-31-05-364.txt Node

Date: Wed Feb 26 11:31:05 EST 2025
User: louis
Spectrometer: USB4F10415
Trigger mode: 4
Integration Time (sec): 1.000000E-1
Scans to average: 1
Electric dark correction enabled: true
Nonlinearity correction enabled: false
Boxcar width: 0
XAxis mode: Wavelengths
Number of Pixels in Spectrum: 3648
>>>>>Begin Spectral Data<<<<<
178.204	-437.58
178.424	-437.58
178.644	-437.58
178.864	-415.05
179.084	-413.01
179.304	43.69
179.524	-15.7
179.744	-21.84
179.964	64.17
180.184	12.97
180.404	86.7
180.624	-81.24
180.844	-40.28
181.064	-66.9
181.283	-42.32
181.503	-23.89
181.723	84.65
181.943	-79.19
182.163	236.2
182.383	-36.18
182.602	105.13
182.822	125.61
183.042	58.03
183.262	51.88
183.482	12.97
183.701	31.4
183.921	4.78
184.141	-7.51
184.361	96.94
184.58	92.84
184.8	37.55
185.02	-7.51
185.239	154.28
185.459	80.55
185.679	80.55
185.898	-50.52
186.118	35.5
186.338	96.94
186.557	219.82
186.777	-32.08
186.997	-7.51
187.216	37.55
187.436	178.86
187.655	148.14
187.875	55.98
188.095	-19.8
188.314	154.28
188.534	119.46
188.753	-60.76
188.973	103.08
189.192	103.08
189.412	-50.52
189.631	-3.41
189.851	45.74
190.07	238.25
190.29	-46.42
190.509	25.26
190.729	68.27
190.948	133.8
191.168	307.88
191.387	88.75
191.607	45.74
191.826	-25.94
192.045	15.02
192.265	-5.46
192.484	115.37
192.704	41.64
192.923	21.16
193.142	180.9
193.362	96.94
193.581	105.13
193.8	25.26
194.02	90.79
194.239	49.83
194.458	64.17
194.678	-11.61
194.897	8.87
195.116	58.03
195.335	88.75
195.555	127.66
195.774	-30.04
195.993	80.55
196.212	45.74
196.432	33.45
196.651	17.07
196.87	33.45
197.089	244.39
197.308	55.98
197.528	92.84
197.747	-32.08
197.966	70.31
198.185	72.36
198.404	-34.13
198.623	146.09
198.842	121.51
199.062	60.07
199.281	117.42
199.5	-36.18
199.719	144.04
199.938	47.79
200.157	80.55
200.376	103.08
200.595	82.6
200.814	101.03
201.033	-3.41
201.252	144.04
201.471	111.27
201.69	123.56
201.909	21.16
202.128	158.38
202.347	174.76
202.566	31.4
202.785	-17.75
203.004	12.97
203.223	246.44
203.442	25.26
203.661	-36.18
203.879	19.11
204.098	115.37
204.317	74.41
204.536	125.61
204.755	31.4
204.974	133.8
205.193	-9.56
205.411	144.04
205.63	131.75
205.849	84.65
206.068	2.73
206.287	-3.41
206.505	180.9
206.724	51.88
206.943	-23.89
207.162	6.83
207.381	53.93
207.599	72.36
207.818	-1.37
208.037	-48.47
208.255	39.59
208.474	107.18
208.693	103.08
208.911	58.03
209.13	121.51
209.349	94.89
209.567	58.03
209.786	103.08
210.005	131.75
210.223	68.27
210.442	-81.24
210.661	49.83
210.879	105.13
211.098	31.4
211.316	84.65
211.535	96.94
211.753	94.89
211.972	90.79
212.191	62.12
212.409	-40.28
212.628	189.1
212.846	21.16
213.065	160.42
213.283	66.22
213.502	82.6
213.72	43.69
213.938	55.98
214.157	66.22
214.375	119.46
214.594	53.93
214.812	43.69
215.031	-36.18
215.249	105.13
215.467	60.07
215.686	29.35
215.904	62.12
216.122	-11.61
216.341	240.3
216.559	45.74
216.778	119.46
216.996	121.51
217.214	-32.08
217.432	27.31
217.651	-25.94
217.869	90.79
218.087	27.31
218.306	133.8
218.524	82.6
218.742	-42.32
218.96	129.7
219.179	-48.47
219.397	-1.37
219.615	242.34
219.833	115.37
220.051	-64.85
220.27	105.13
220.488	43.69
220.706	101.03
220.924	58.03
221.142	17.07
221.36	150.18
221.578	51.88
221.796	-15.7
222.015	66.22
222.233	31.4
222.451	152.23
222.669	-36.18
222.887	129.7
223.105	-97.62
223.323	-9.56
223.541	-83.28
223.759	92.84
223.977	-11.61
224.195	180.9
224.413	135.85
224.631	74.41
224.849	70.31
225.067	219.82
225.285	-13.65
225.503	31.4
225.721	-130.39
225.939	119.46
226.157	109.23
226.375	232.1
226.592	29.35
226.81	29.35
227.028	49.83
227.246	135.85
227.464	111.27
227.682	98.99
227.9	123.56
228.117	70.31
228.335	133.8
228.553	-15.7
228.771	80.55
228.989	72.36
229.206	78.51
229.424	-25.94
229.642	-21.84
229.86	-50.52
230.077	152.23
230.295	98.99
230.513	82.6
230.731	135.85
230.948	197.29
231.166	123.56
231.384	58.03
231.601	17.07
231.819	160.42
232.037	8.87
232.254	68.27
232.472	8.87
232.689	31.4
232.907	176.81
233.125	21.16
233.342	-105.81
233.56	-50.52
233.777	-25.94
233.995	92.84
234.213	139.94
234.43	113.32
234.648	15.02
234.865	51.88
235.083	37.55
235.3	80.55
235.518	88.75
235.735	76.46
235.953	129.7
236.17	29.35
236.388	25.26
236.605	10.92
236.822	94.89
237.04	101.03
237.257	103.08
237.475	21.16
237.692	15.02
237.909	74.41
238.127	47.79
238.344	23.21
238.562	47.79
238.779	-27.99
238.996	6.83
239.214	37.55
239.431	123.56
239.648	31.4
239.865	90.79
240.083	92.84
240.3	0.68
240.517	-36.18
240.735	6.83
240.952	119.46
241.169	64.17
241.386	-7.51
241.603	19.11
241.821	-48.47
242.038	88.75
242.255	74.41
242.472	-17.75
242.689	94.89
242.907	113.32
243.124	76.46
243.341	-9.56
243.558	2.73
243.775	-95.57
243.992	-23.89
244.209	127.66
244.426	158.38
244.643	60.07
244.86	23.21
245.078	115.37
245.295	64.17
245.512	8.87
245.729	-21.84
245.946	62.12
246.163	43.69
246.38	39.59
246.597	80.55
246.814	-9.56
247.031	109.23
247.248	-13.65
247.464	180.9
247.681	35.5
247.898	-9.56
248.115	168.62
248.332	37.55
248.549	133.8
248.766	223.91
248.983	70.31
249.2	98.99
249.417	92.84
249.633	17.07
249.85	92.84
250.067	74.41
250.284	90.79
250.501	55.98
250.717	27.31
250.934	6.83
251.151	15.02
251.368	80.55
251.585	10.92
251.801	-3.41
252.018	10.92
252.235	90.79
252.451	-56.66
252.668	-17.75
252.885	152.23
253.102	70.31
253.318	-11.61
253.535	-3.41
253.752	74.41
253.968	0.68
254.185	-15.7
254.401	47.79
254.618	113.32
254.835	17.07
255.051	121.51
255.268	37.55
255.484	33.45
255.701	88.75
255.917	68.27
256.134	19.11
256.351	33.45
256.567	-101.72
256.784	84.65
257	-56.66
257.217	35.5
257.433	96.94
257.65	12.97
257.866	109.23
258.082	-54.61
258.299	-3.41
258.515	72.36
258.732	51.88
258.948	-3.41
259.165	43.69
259.381	31.4
259.597	101.03
259.814	33.45
260.03	33.45
260.246	23.21
260.463	144.04
260.679	43.69
260.895	68.27
261.112	39.59
261.328	107.18
261.544	15.02
261.761	180.9
261.977	-13.65
262.193	6.83
262.409	150.18
262.626	47.79
262.842	62.12
263.058	-38.23
263.274	68.27
263.49	58.03
263.707	-3.41
263.923	55.98
264.139	-105.81
264.355	51.88
264.571	150.18
264.787	60.07
265.004	90.79
265.22	17.07
265.436	49.83
265.652	33.45
265.868	70.31
266.084	37.55
266.3	96.94
266.516	37.55
266.732	53.93
266.948	115.37
267.164	-27.99
267.38	47.79
267.596	78.51
267.812	105.13
268.028	25.26
268.244	8.87
268.46	-17.75
268.676	-46.42
268.892	23.21
269.108	-13.65
269.324	-34.13
269.54	-46.42
269.756	19.11
269.972	-48.47
270.188	31.4
270.403	-13.65
270.619	-9.56
270.835	47.79
271.051	-1.37
271.267	-50.52
271.483	-19.8
271.698	19.11
271.914	53.93
272.13	66.22
272.346	39.59
272.562	49.83
272.777	72.36
272.993	41.64
273.209	-36.18
273.425	51.88
273.64	-32.08
273.856	70.31
274.072	-7.51
274.287	53.93
274.503	37.55
274.719	141.99
274.934	35.5
275.15	-85.33
275.366	-32.08
275.581	53.93
275.797	41.64
276.012	-3.41
276.228	-25.94
276.444	39.59
276.659	125.61
276.875	-21.84
277.09	35.5
277.306	92.84
277.521	49.83
277.737	39.59
277.952	82.6
278.168	27.31
278.383	-11.61
278.599	27.31
278.814	111.27
279.03	-7.51
279.245	103.08
279.461	64.17
279.676	55.98
279.892	-68.95
280.107	41.64
280.322	29.35
280.538	66.22
280.753	66.22
280.969	92.84
281.184	105.13
281.399	92.84
281.615	49.83
281.83	78.51
282.045	0.68
282.26	55.98
282.476	33.45
282.691	182.95
282.906	45.74
283.122	78.51
283.337	-9.56
283.552	68.27
283.767	49.83
283.983	94.89
284.198	-25.94
284.413	92.84
284.628	-46.42
284.843	27.31
285.058	178.86
285.274	47.79
285.489	-60.76
285.704	152.23
285.919	21.16
286.134	-75.09
286.349	98.99
286.564	6.83
286.779	90.79
286.995	-19.8
287.21	6.83
287.425	39.59
287.64	31.4
287.855	64.17
288.07	-30.04
288.285	121.51
288.5	109.23
288.715	39.59
288.93	62.12
289.145	68.27
289.36	191.14
289.575	27.31
289.79	170.66
290.004	139.94
290.219	76.46
290.434	21.16
290.649	70.31
290.864	43.69
291.079	58.03
291.294	31.4
291.509	-3.41
291.724	39.59
291.938	37.55
292.153	-15.7
292.368	10.92
292.583	29.35
292.798	35.5
293.012	86.7
293.227	68.27
293.442	-9.56
293.657	111.27
293.871	150.18
294.086	103.08
294.301	137.9
294.516	92.84
294.73	94.89
294.945	6.83
295.16	-21.84
295.374	137.9
295.589	58.03
295.804	43.69
296.018	62.12
296.233	105.13
296.447	72.36
296.662	-27.99
296.877	185
297.091	55.98
297.306	37.55
297.52	10.92
297.735	78.51
297.949	-15.7
298.164	23.21
298.378	39.59
298.593	-66.9
298.807	-38.23
299.022	33.45
299.236	176.81
299.451	53.93
299.665	-34.13
299.88	-15.7
300.094	92.84
300.309	37.55
300.523	154.28
300.737	-21.84
300.952	43.69
301.166	86.7
301.381	-25.94
301.595	17.07
301.809	41.64
302.024	-1.37
302.238	-44.37
302.452	160.42
302.667	105.13
302.881	74.41
303.095	174.76
303.309	103.08
303.524	68.27
303.738	21.16
303.952	-5.46
304.166	62.12
304.381	-142.68
304.595	176.81
304.809	25.26
305.023	119.46
305.237	4.78
305.452	-1.37
305.666	96.94
305.88	131.75
306.094	131.75
306.308	27.31
306.522	74.41
306.736	86.7
306.95	115.37
307.164	88.75
307.379	-13.65
307.593	213.67
307.807	141.99
308.021	154.28
308.235	84.65
308.449	-83.28
308.663	23.21
308.877	211.62
309.091	12.97
309.305	105.13
309.519	-77.14
309.733	109.23
309.947	0.68
310.161	-7.51
310.374	111.27
310.588	66.22
310.802	-36.18
311.016	-36.18
311.23	96.94
311.444	-15.7
311.658	31.4
311.872	125.61
312.085	35.5
312.299	125.61
312.513	107.18
312.727	23.21
312.941	-91.48
313.154	53.93
313.368	21.16
313.582	45.74
313.796	-30.04
314.009	25.26
314.223	137.9
314.437	12.97
314.651	101.03
314.864	-44.37
315.078	-34.13
315.292	-17.75
315.505	-40.28
315.719	49.83
315.933	88.75
316.146	-5.46
316.36	-38.23
316.573	37.55
316.787	119.46
317.001	-1.37
317.214	-25.94
317.428	41.64
317.641	33.45
317.855	41.64
318.068	-60.76
318.282	-1.37
318.495	152.23
318.709	123.56
318.922	4.78
319.136	115.37
319.349	115.37
319.563	17.07
319.776	74.41
319.99	-64.85
320.203	103.08
320.417	31.4
320.63	109.23
320.843	139.94
321.057	8.87
321.27	-1.37
321.483	131.75
321.697	137.9
321.91	68.27
322.124	119.46
322.337	109.23
322.55	-21.84
322.763	47.79
322.977	-40.28
323.19	-27.99
323.403	-32.08
323.617	84.65
323.83	129.7
324.043	-50.52
324.256	92.84
324.469	-34.13
324.683	80.55
324.896	49.83
325.109	41.64
325.322	-81.24
325.535	119.46
325.748	17.07
325.962	4.78
326.175	103.08
326.388	129.7
326.601	135.85
326.814	41.64
327.027	55.98
327.24	187.05
327.453	-68.95
327.666	12.97
327.879	133.8
328.092	51.88
328.305	51.88
328.518	51.88
328.731	35.5
328.944	4.78
329.157	-3.41
329.37	51.88
329.583	123.56
329.796	109.23
330.009	-19.8
330.222	62.12
330.435	152.23
330.648	-7.51
330.861	53.93
331.073	41.64
331.286	150.18
331.499	70.31
331.712	-75.09
331.925	21.16
332.138	70.31
332.35	86.7
332.563	-46.42
332.776	137.9
332.989	-54.61
333.202	37.55
333.414	41.64
333.627	39.59
333.84	41.64
334.053	15.02
334.265	-50.52
334.478	4.78
334.691	33.45
334.903	62.12
335.116	8.87
335.329	-5.46
335.541	51.88
335.754	115.37
335.966	-56.66
336.179	-19.8
336.392	92.84
336.604	-11.61
336.817	105.13
337.029	119.46
337.242	21.16
337.454	58.03
337.667	84.65
337.88	129.7
338.092	0.68
338.305	37.55
338.517	29.35
338.729	141.99
338.942	150.18
339.154	-17.75
339.367	-124.24
339.579	76.46
339.792	-21.84
340.004	76.46
340.217	-36.18
340.429	60.07
340.641	-101.72
340.854	86.7
341.066	94.89
341.278	121.51
341.491	119.46
341.703	-5.46
341.915	10.92
342.128	31.4
342.34	72.36
342.552	35.5
342.764	12.97
342.977	6.83
343.189	105.13
343.401	35.5
343.613	4.78
343.826	43.69
344.038	21.16
344.25	21.16
344.462	55.98
344.674	45.74
344.886	23.21
345.099	55.98
345.311	21.16
345.523	10.92
345.735	-66.9
345.947	86.7
346.159	86.7
346.371	72.36
346.583	84.65
346.795	195.24
347.007	-19.8
347.219	92.84
347.431	-36.18
347.643	123.56
347.855	-44.37
348.067	125.61
348.279	-48.47
348.491	78.51
348.703	96.94
348.915	0.68
349.127	51.88
349.339	35.5
349.551	-15.7
349.763	121.51
349.975	35.5
350.187	123.56
350.399	158.38
350.61	88.75
350.822	39.59
351.034	10.92
351.246	72.36
351.458	107.18
351.669	68.27
351.881	90.79
352.093	78.51
352.305	148.14
352.517	53.93
352.728	131.75
352.94	113.32
353.152	33.45
353.363	-13.65
353.575	111.27
353.787	266.92
353.999	62.12
354.21	146.09
354.422	-21.84
354.633	15.02
354.845	60.07
355.057	-30.04
355.268	80.55
355.48	37.55
355.692	-38.23
355.903	10.92
356.115	-36.18
356.326	-138.58
356.538	80.55
356.749	55.98
356.961	150.18
357.172	33.45
357.384	4.78
357.595	213.67
357.807	-13.65
358.018	-11.61
358.23	37.55
358.441	203.43
358.653	88.75
358.864	17.07
359.075	-15.7
359.287	111.27
359.498	90.79
359.709	119.46
359.921	47.79
360.132	23.21
360.344	-30.04
360.555	-77.14
360.766	60.07
360.977	27.31
361.189	156.33
361.4	76.46
361.611	185
361.823	164.52
362.034	76.46
362.245	-87.38
362.456	37.55
362.667	62.12
362.879	-38.23
363.09	117.42
363.301	88.75
363.512	88.75
363.723	2.73
363.935	-30.04
364.146	133.8
364.357	74.41
364.568	-21.84
364.779	8.87
364.99	123.56
365.201	12.97
365.412	121.51
365.623	8.87
365.834	70.31
366.045	17.07
366.256	82.6
366.467	66.22
366.678	-54.61
366.889	60.07
367.1	-5.46
367.311	66.22
367.522	-40.28
367.733	72.36
367.944	80.55
368.155	21.16
368.366	84.65
368.577	117.42
368.788	86.7
368.999	-19.8
369.209	8.87
369.42	199.34
369.631	258.73
369.842	58.03
370.053	37.55
370.264	119.46
370.474	-9.56
370.685	47.79
370.896	70.31
371.107	96.94
371.317	64.17
371.528	105.13
371.739	86.7
371.95	64.17
372.16	90.79
372.371	10.92
372.582	25.26
372.792	88.75
373.003	72.36
373.214	172.71
373.424	94.89
373.635	-32.08
373.846	207.53
374.056	60.07
374.267	35.5
374.477	117.42
374.688	-19.8
374.898	51.88
375.109	45.74
375.319	98.99
375.53	191.14
375.74	189.1
375.951	-3.41
376.161	94.89
376.372	121.51
376.582	64.17
376.793	78.51
377.003	0.68
377.214	12.97
377.424	82.6
377.635	135.85
377.845	-60.76
378.055	94.89
378.266	25.26
378.476	39.59
378.686	23.21
378.897	41.64
379.107	125.61
379.317	115.37
379.528	-7.51
379.738	55.98
379.948	-9.56
380.158	129.7
380.369	55.98
380.579	105.13
380.789	21.16
380.999	4.78
381.21	96.94
381.42	129.7
381.63	-15.7
381.84	76.46
382.05	82.6
382.261	182.95
382.471	90.79
382.681	60.07
382.891	166.57
383.101	45.74
383.311	-99.67
383.521	-7.51
383.731	-44.37
383.941	127.66
384.151	-36.18
384.361	39.59
384.571	66.22
384.781	66.22
384.991	219.82
385.201	180.9
385.411	64.17
385.621	29.35
385.831	47.79
386.041	35.5
386.251	82.6
386.461	84.65
386.671	37.55
386.881	58.03
387.091	45.74
387.301	84.65
387.511	72.36
387.72	33.45
387.93	101.03
388.14	-27.99
388.35	60.07
388.56	80.55
388.769	180.9
388.979	41.64
389.189	-17.75
389.399	80.55
389.609	47.79
389.818	90.79
390.028	35.5
390.238	109.23
390.447	-32.08
390.657	47.79
390.867	53.93
391.076	-62.8
391.286	74.41
391.496	0.68
391.705	4.78
391.915	176.81
392.125	66.22
392.334	-36.18
392.544	133.8
392.753	-38.23
392.963	-44.37
393.172	29.35
393.382	-38.23
393.591	185
393.801	70.31
394.01	193.19
394.22	-7.51
394.429	80.55
394.639	-3.41
394.848	62.12
395.058	6.83
395.267	113.32
395.477	17.07
395.686	172.71
395.895	205.48
396.105	105.13
396.314	62.12
396.524	96.94
396.733	15.02
396.942	88.75
397.152	58.03
397.361	107.18
397.57	47.79
397.78	49.83
397.989	43.69
398.198	223.91
398.407	41.64
398.617	82.6
398.826	127.66
399.035	84.65
399.244	90.79
399.453	27.31
399.663	-25.94
399.872	51.88
400.081	-3.41
400.29	148.14
400.499	29.35
400.708	107.18
400.917	80.55
401.127	0.68
401.336	43.69
401.545	219.82
401.754	92.84
401.963	129.7
402.172	37.55
402.381	-62.8
402.59	115.37
402.799	23.21
403.008	88.75
403.217	12.97
403.426	39.59
403.635	-68.95
403.844	-23.89
404.053	33.45
404.262	86.7
404.471	135.85
404.68	43.69
404.888	62.12
405.097	37.55
405.306	86.7
405.515	80.55
405.724	82.6
405.933	164.52
406.142	119.46
406.35	158.38
406.559	31.4
406.768	76.46
406.977	189.1
407.185	90.79
407.394	125.61
407.603	37.55
407.812	64.17
408.02	68.27
408.229	-15.7
408.438	6.83
408.646	17.07
408.855	62.12
409.064	64.17
409.272	98.99
409.481	107.18
409.69	4.78
409.898	27.31
410.107	15.02
410.315	131.75
410.524	10.92
410.733	6.83
410.941	41.64
411.15	80.55
411.358	211.62
411.567	127.66
411.775	72.36
411.984	43.69
412.192	121.51
412.401	-25.94
412.609	117.42
412.818	103.08
413.026	68.27
413.234	31.4
413.443	-30.04
413.651	6.83
413.86	66.22
414.068	103.08
414.276	209.58
414.485	-23.89
414.693	160.42
414.901	170.66
415.11	84.65
415.318	121.51
415.526	45.74
415.734	105.13
415.943	66.22
416.151	98.99
416.359	6.83
416.567	39.59
416.776	105.13
416.984	66.22
417.192	154.28
417.4	49.83
417.608	-58.71
417.817	55.98
418.025	105.13
418.233	187.05
418.441	-52.56
418.649	25.26
418.857	47.79
419.065	133.8
419.273	-40.28
419.481	-17.75
419.689	19.11
419.897	2.73
420.105	-30.04
420.313	131.75
420.521	109.23
420.729	129.7
420.937	-13.65
421.145	-32.08
421.353	123.56
421.561	168.62
421.769	31.4
421.977	66.22
422.185	189.1
422.393	6.83
422.601	74.41
422.809	80.55
423.017	101.03
423.224	39.59
423.432	125.61
423.64	-23.89
423.848	29.35
424.056	45.74
424.263	131.75
424.471	31.4
424.679	117.42
424.887	-40.28
425.094	103.08
425.302	84.65
425.51	98.99
425.718	113.32
425.925	64.17
426.133	27.31
426.341	238.25
426.548	41.64
426.756	66.22
426.964	166.57
427.171	10.92
427.379	115.37
427.586	53.93
427.794	144.04
428.001	158.38
428.209	168.62
428.417	178.86
428.624	80.55
428.832	182.95
429.039	86.7
429.247	146.09
429.454	76.46
429.662	246.44
429.869	131.75
430.076	111.27
430.284	127.66
430.491	178.86
430.699	141.99
430.906	228.01
431.114	43.69
431.321	98.99
431.528	72.36
431.736	103.08
431.943	137.9
432.15	172.71
432.358	162.47
432.565	180.9
432.772	12.97
432.979	189.1
433.187	72.36
433.394	137.9
433.601	144.04
433.808	234.15
434.016	189.1
434.223	260.77
434.43	150.18
434.637	176.81
434.844	148.14
435.052	133.8
435.259	201.38
435.466	260.77
435.673	223.91
435.88	187.05
436.087	248.49
436.294	332.45
436.501	318.12
436.708	252.58
436.915	195.24
437.122	287.4
437.329	232.1
437.537	301.73
437.743	262.82
437.95	348.84
438.157	275.11
438.364	328.36
438.571	299.69
438.778	375.46
438.985	344.74
439.192	377.51
439.399	309.93
439.606	346.79
439.813	379.56
440.02	488.1
440.227	598.69
440.433	443.04
440.64	428.71
440.847	451.24
441.054	465.57
441.261	518.82
441.467	512.67
441.674	447.14
441.881	576.16
442.088	518.82
442.294	588.45
442.501	666.27
442.708	623.27
442.914	764.58
443.121	676.51
443.328	699.04
443.534	742.05
443.741	584.35
443.948	524.96
444.154	811.68
444.361	893.6
444.568	838.3
444.774	799.39
444.981	764.58
445.187	1049.24
445.394	932.51
445.6	909.98
445.807	1174.17
446.013	1012.38
446.22	971.42
446.426	1077.91
446.633	1182.36
446.839	1446.55
447.046	1186.46
447.252	1194.65
447.459	1317.53
447.665	1358.49
447.871	1462.93
448.078	1561.23
448.284	1530.52
448.491	1612.43
448.697	1671.83
448.903	1677.97
449.11	1819.28
449.316	1696.4
449.522	1876.62
449.728	1882.77
449.935	2128.52
450.141	2046.6
450.347	2202.25
450.553	2130.57
450.76	2204.3
450.966	2456.2
451.172	2439.81
451.378	2636.42
451.584	2566.79
451.791	2845.31
451.997	2667.14
452.203	2800.26
452.409	3193.47
452.615	3101.31
452.821	2941.57
453.027	3082.88
453.233	3431.03
453.44	3486.33
453.646	3641.97
453.852	3814
454.058	3861.1
454.264	3938.93
454.47	4291.18
454.676	4274.79
454.882	4723.3
455.088	4395.62
455.294	4766.31
455.5	4924
455.705	5257.82
455.911	5329.5
456.117	5446.23
456.323	5487.19
456.529	5761.62
456.735	6027.85
456.941	6330.95
457.147	6560.33
457.352	6609.48
457.558	6849.09
457.764	7359.03
457.97	7514.68
458.176	7868.98
458.381	8051.25
458.587	8301.1
458.793	8729.13
458.999	8706.6
459.204	9714.2
459.41	9906.71
459.616	10129.94
459.821	10572.3
460.027	10988.03
460.233	11543.03
460.438	11815.41
460.644	12421.61
460.85	12483.05
461.055	12954.08
461.261	13498.84
461.466	13283.81
461.672	13447.65
461.878	15204.8
462.083	15235.52
462.289	15432.13
462.494	15595.96
462.7	16118.2
462.905	16331.19
463.111	17770.91
463.316	18303.38
463.522	19003.78
463.727	19462.53
463.932	19855.74
464.138	20519.28
464.343	21641.57
464.549	21875.04
464.754	23181.64
464.959	23800.13
465.165	24604.98
465.37	23867.71
465.575	24217.91
465.781	26126.62
465.986	26603.8
466.191	26128.67
466.397	26587.41
466.602	26097.95
466.807	27044.11
467.012	27693.32
467.218	28397.82
467.423	28272.89
467.628	29208.81
467.833	30486.75
468.038	30054.62
468.244	29622.5
468.449	31019.22
468.654	30646.49
468.859	30847.19
469.064	30732.5
469.269	29866.21
469.474	29810.92
469.679	31011.03
469.885	29925.6
470.09	30560.47
470.295	30666.97
470.5	29800.68
470.705	30290.14
470.91	28979.44
471.115	29102.32
471.32	29661.41
471.525	29247.72
471.73	28324.09
471.935	28158.21
472.139	26982.67
472.344	27281.67
472.549	26833.17
472.754	26366.23
472.959	25977.12
473.164	25286.95
473.369	24617.27
473.574	25712.93
473.778	24721.71
473.983	24541.49
474.188	23947.58
474.393	23005.52
474.598	22927.69
474.802	22374.74
475.007	22139.22
475.212	21938.52
475.417	21100.9
475.621	20828.52
475.826	20797.81
476.031	19913.08
476.235	19675.52
476.44	19687.81
476.645	19087.75
476.849	19073.42
477.054	18903.43
477.259	18428.31
477.463	18311.57
477.668	17815.96
477.872	17699.23
478.077	17420.7
478.282	16880.04
478.486	16753.07
478.691	16443.82
478.895	16247.22
479.1	16290.23
479.304	16169.4
479.509	15518.14
479.713	15917.5
479.918	15520.19
480.122	15303.11
480.326	15391.17
480.531	15282.63
480.735	14885.32
480.94	14897.61
481.144	15129.03
481.348	14475.73
481.553	14549.45
481.757	14021.08
481.961	14326.22
482.166	14178.77
482.37	13933.01
482.574	13609.43
482.778	13681.11
482.983	13867.48
483.187	13814.23
483.391	13875.67
483.595	13619.67
483.8	13335.01
484.004	13326.82
484.208	13160.93
484.412	12892.65
484.616	12904.93
484.821	12773.86
485.025	12306.93
485.229	12591.59
485.433	12261.87
485.637	12104.18
485.841	11971.06
486.045	11713.02
486.249	11731.45
486.453	11280.89
486.657	11295.23
486.861	11059.71
487.065	10721.8
487.269	10942.98
487.473	10424.84
487.677	10654.22
487.881	10660.36
488.085	10140.18
488.289	10043.92
488.493	9929.24
488.697	9554.46
488.901	9636.38
489.105	9308.7
489.309	9234.97
489.512	8860.2
489.716	8839.72
489.92	8688.17
490.124	8385.07
490.328	8464.94
490.531	8100.4
490.735	8260.14
490.939	7815.73
491.143	7582.26
491.346	7479.86
491.55	7590.45
491.754	7297.6
491.958	7270.97
492.161	7219.77
492.365	6982.21
492.569	6840.9
492.772	6830.66
492.976	6707.78
493.18	6500.94
493.383	6535.75
493.587	6599.24
493.79	6347.34
493.994	6392.39
494.197	6357.58
494.401	6097.49
494.605	6009.42
494.808	5892.69
495.012	5929.55
495.215	6042.19
495.419	5976.66
495.622	5667.41
495.825	5544.53
496.029	5573.21
496.232	5714.52
496.436	5456.47
496.639	5841.49
496.843	5474.9
497.046	5589.59
497.249	5542.49
497.453	5599.83
497.656	5511.77
497.859	5575.25
498.063	5587.54
498.266	5591.64
498.469	5397.08
498.673	5403.22
498.876	5497.43
499.079	5542.49
499.282	5476.95
499.485	5876.31
499.689	5634.64
499.892	5757.52
500.095	5536.34
500.298	5648.98
500.501	5620.31
500.705	5620.31
500.908	5778
501.111	5708.37
501.314	5780.05
501.517	5986.9
501.72	5837.39
501.923	6056.53
502.126	6023.76
502.329	6103.63
502.532	6228.56
502.735	5984.85
502.938	6279.75
503.141	6400.59
503.344	6423.11
503.547	6373.96
503.75	6505.03
503.953	6539.85
504.156	6732.36
504.359	6699.59
504.562	6758.98
504.765	6906.43
504.968	7072.32
505.17	7268.92
505.373	7195.2
505.576	7426.62
505.779	7526.97
505.982	7440.95
506.185	7549.5
506.387	7834.16
506.59	7668.28
506.793	8108.59
506.996	8002.1
507.198	8579.62
507.401	8403.5
507.604	8477.23
507.807	8737.32
508.009	8839.72
508.212	9101.86
508.415	9234.97
508.617	9484.83
508.82	9722.39
509.022	9554.46
509.225	9996.82
509.428	10283.53
509.63	10304.01
509.833	10560.01
510.035	11041.28
510.238	10992.13
510.44	11315.71
510.643	11688.44
510.845	11899.38
511.048	11731.45
511.25	12165.62
511.453	12503.53
511.655	12995.04
511.858	13111.78
512.06	13394.4
512.262	13699.55
512.465	13732.31
512.667	14209.49
512.87	14569.93
513.072	14989.77
513.274	15495.61
513.477	15739.32
513.679	15987.13
513.881	16458.16
514.084	16720.3
514.286	16882.09
514.488	17371.55
514.69	18370.96
514.893	18309.52
515.095	18487.7
515.297	19218.82
515.499	19466.63
515.701	19722.62
515.904	20617.58
516.106	20799.85
516.308	21160.3
516.51	21801.31
516.712	22184.28
516.914	22679.89
517.116	23109.96
517.318	23568.71
517.52	23884.09
517.722	24232.25
517.925	24572.21
518.127	25561.38
518.329	25932.06
518.531	25637.16
518.733	26761.49
518.935	27183.37
519.136	27533.57
519.338	28096.77
519.54	28434.68
519.742	29249.77
519.944	29313.26
520.146	30040.29
520.348	30613.72
520.55	30701.78
520.752	31068.37
520.954	32053.44
521.155	31690.95
521.357	32759.99
521.559	32970.93
521.761	33611.95
521.963	33487.02
522.164	34156.71
522.366	34185.38
522.568	34693.27
522.77	34820.25
522.971	35664.01
523.173	35420.3
523.375	35899.53
523.576	35858.57
523.778	36098.18
523.98	36550.78
524.181	37015.67
524.383	36882.55
524.584	37210.23
524.786	37081.2
524.988	37027.96
525.189	37810.28
525.391	37781.61
525.592	37916.78
525.794	37832.81
525.995	37736.55
526.197	37849.19
526.398	37943.4
526.6	37814.38
526.801	38135.91
527.003	38021.22
527.204	37695.6
527.406	37521.52
527.607	37714.03
527.808	37695.6
528.01	36839.54
528.211	37247.09
528.412	37533.81
528.614	36835.45
528.815	36952.18
529.016	36663.42
529.218	36014.21
529.419	36096.13
529.62	35717.26
529.822	35551.37
530.023	34867.35
530.224	34889.88
530.425	34443.42
530.626	34007.2
530.828	33530.03
531.029	34142.37
531.23	33280.17
531.431	32686.26
531.632	32735.42
531.833	32352.44
532.035	31981.76
532.236	31563.98
532.437	31363.28
532.638	31064.27
532.839	30611.67
533.04	30423.26
533.241	29659.37
533.442	30193.89
533.643	29311.21
533.844	28838.13
534.045	28563.7
534.246	27672.84
534.447	27719.94
534.648	27289.87
534.849	26900.75
535.05	26743.06
535.251	26196.25
535.451	25743.65
535.652	25749.79
535.853	25133.36
536.054	24846.64
536.255	24936.75
536.456	24086.84
536.657	24199.48
536.857	23589.19
537.058	23290.18
537.259	23138.63
537.46	23021.9
537.66	22341.97
537.861	22217.05
538.062	21623.14
538.263	21899.61
538.463	21266.79
538.664	21053.8
538.865	20830.57
539.065	20980.07
539.266	20199.8
539.466	20300.15
539.667	19769.72
539.868	19689.85
540.068	19517.82
540.269	19173.77
540.469	18995.59
540.67	18973.07
540.87	18680.21
541.071	18336.15
541.271	18047.38
541.472	17848.73
541.672	17525.15
541.873	17246.63
542.073	17138.09
542.274	17234.34
542.474	17039.78
542.675	16755.11
542.875	16568.75
543.075	16116.15
543.276	16134.58
543.476	16241.07
543.676	15983.03
543.877	15626.68
544.077	15757.75
544.277	15471.04
544.478	15176.13
544.678	15184.32
544.878	14963.14
545.078	14778.83
545.279	14514.64
545.479	14365.14
545.679	14258.64
545.879	14105.04
546.079	13857.24
546.28	13734.36
546.48	13494.75
546.68	13593.05
546.88	13359.58
547.08	13558.24
547.28	13044.2
547.48	12677.61
547.68	12517.87
547.88	12628.46
548.081	12538.35
548.281	12175.86
548.481	11934.2
548.681	11817.46
548.881	11803.13
549.081	11727.35
549.28	11328
549.48	11311.61
549.68	11264.51
549.88	11162.11
550.08	10734.09
550.28	10703.37
550.48	10603.02
550.68	10553.87
550.88	10058.26
551.08	9955.86
551.279	10396.17
551.479	9865.75
551.679	9949.71
551.879	9638.42
552.079	9861.65
552.278	9366.04
552.478	9351.71
552.678	8925.73
552.878	9112.1
553.077	8759.84
553.277	8557.1
553.477	8682.02
553.676	8491.56
553.876	8356.4
554.076	8229.42
554.275	7981.62
554.475	7836.21
554.674	7785.01
554.874	7567.93
555.074	7369.27
555.273	7504.44
555.473	7432.76
555.672	7191.1
555.872	7270.97
556.071	7047.74
556.271	7031.36
556.47	6685.25
556.67	6632.01
556.869	6556.23
557.068	6478.41
557.268	6451.78
557.467	6193.74
557.667	6222.41
557.866	6044.24
558.065	5896.78
558.265	5855.83
558.464	5454.42
558.663	5646.93
558.863	5509.72
559.062	5571.16
559.261	5329.5
559.461	5388.89
559.66	5243.48
559.859	4993.63
560.058	4799.07
560.258	4893.28
560.457	4811.36
560.656	4909.66
560.855	4627.04
561.054	4715.11
561.253	4584.04
561.453	4446.82
561.652	4342.38
561.851	4289.13
562.05	4282.99
562.249	4141.68
562.448	4258.41
562.647	4084.33
562.846	4047.47
563.045	3938.93
563.244	3926.64
563.443	3928.69
563.642	3852.91
563.841	3635.83
564.04	3633.78
564.239	3658.35
564.438	3601.01
564.637	3449.46
564.836	3441.27
565.035	3285.62
565.234	3426.93
565.432	3484.28
565.631	3377.78
565.83	3304.06
566.029	3117.69
566.228	3048.06
566.427	3304.06
566.625	2955.9
566.824	3156.6
567.023	3089.02
567.222	2927.23
567.42	2908.8
567.619	2896.51
567.818	2833.02
568.016	2765.44
568.215	2708.1
568.414	2765.44
568.612	2581.12
568.811	2458.25
569.01	2560.64
569.208	2439.81
569.407	2419.33
569.605	2341.51
569.804	2384.52
570.002	2333.32
570.201	2316.94
570.4	2321.03
570.598	2196.11
570.797	2222.73
570.995	2118.28
571.193	2101.9
571.392	2185.87
571.59	2067.08
571.789	2024.08
571.987	2054.8
572.186	2194.06
572.384	1886.86
572.582	1950.35
572.781	2079.37
572.979	1698.45
573.177	1854.09
573.376	1774.22
573.574	1919.63
573.772	1770.13
573.971	1624.72
574.169	1637.01
574.367	1634.96
574.565	1720.98
574.763	1559.19
574.962	1559.19
575.16	1505.94
575.358	1432.21
575.556	1505.94
575.754	1405.59
575.952	1452.69
576.151	1452.69
576.349	1424.02
576.547	1452.69
576.745	1360.53
576.943	1319.57
577.141	1452.69
577.339	1245.85
577.537	1286.81
577.735	1233.56
577.933	1163.93
578.131	1196.7
578.329	1338.01
578.527	1198.74
578.725	1206.94
578.923	1120.92
579.121	1290.9
579.319	1000.09
579.516	1071.77
579.714	1383.06
579.912	1043.1
580.11	975.52
580.308	1012.38
580.506	1039
580.704	848.54
580.901	957.08
581.099	1036.95
581.297	914.08
581.495	926.36
581.692	879.26
581.89	1108.63
582.088	860.83
582.285	918.17
582.483	905.88
582.681	899.74
582.878	764.58
583.076	909.98
583.274	813.73
583.471	873.12
583.669	823.97
583.866	715.42
584.064	656.03
584.262	686.75
584.459	709.28
584.657	705.18
584.854	862.88
585.052	768.67
585.249	682.66
585.447	793.25
585.644	725.66
585.841	854.69
586.039	719.52
586.236	801.44
586.434	623.27
586.631	537.25
586.828	563.87
587.026	649.89
587.223	613.03
587.42	623.27
587.618	682.66
587.815	725.66
588.012	635.55
588.21	610.98
588.407	592.55
588.604	604.83
588.801	512.67
588.999	549.54
589.196	639.65
589.393	434.85
589.59	633.51
589.787	473.76
589.984	543.39
590.182	621.22
590.379	477.86
590.576	522.91
590.773	516.77
590.97	438.95
591.167	608.93
591.364	553.63
591.561	506.53
591.758	572.07
591.955	608.93
592.152	551.59
592.349	463.52
592.546	549.54
592.743	426.66
592.94	475.81
593.137	553.63
593.334	551.59
593.531	567.97
593.727	572.07
593.924	527.01
594.121	533.15
594.318	522.91
594.515	543.39
594.712	701.09
594.908	731.81
595.105	426.66
595.302	533.15
595.499	637.6
595.696	610.98
595.892	496.29
596.089	572.07
596.286	572.07
596.482	711.33
596.679	660.13
596.876	596.64
597.072	793.25
597.269	674.46
597.466	780.96
597.662	752.29
597.859	737.95
598.055	674.46
598.252	838.3
598.448	821.92
598.645	893.6
598.841	971.42
599.038	1049.24
599.234	1084.06
599.431	1030.81
599.627	1008.28
599.824	1129.11
600.02	1139.35
600.217	1129.11
600.413	1235.61
600.609	1229.46
600.806	1471.12
601.002	1348.25
601.198	1364.63
601.395	1495.7
601.591	1540.76
601.787	1544.85
601.984	1641.11
602.18	1766.03
602.376	1706.64
602.572	1895.05
602.769	2019.98
602.965	1899.15
603.161	2007.69
603.357	2048.65
603.553	2318.98
603.75	2112.14
603.946	2323.08
604.142	2378.37
604.338	2544.26
604.534	2538.12
604.73	2704
604.926	2742.91
605.122	2802.3
605.318	2837.12
605.514	2865.79
605.71	3007.1
605.906	3148.41
606.102	3240.57
606.298	3363.45
606.494	3471.99
606.69	3445.37
606.886	3660.4
607.082	3684.98
607.278	3807.86
607.474	3852.91
607.67	3914.35
607.866	4031.09
608.062	4371.05
608.257	4291.18
608.453	4418.15
608.649	4657.76
608.845	4682.34
609.041	4713.06
609.236	5110.36
609.432	5143.13
609.628	5378.65
609.824	5411.42
610.019	5483.1
610.215	5542.49
610.411	5730.9
610.606	5993.04
610.802	6011.47
610.998	6179.4
611.193	6472.26
611.389	6502.98
611.584	6666.82
611.78	6847.04
611.976	7047.74
612.171	7453.24
612.367	7598.65
612.562	7731.76
612.758	7692.85
612.953	7920.18
613.149	8290.86
613.344	8479.27
613.539	8704.55
613.735	8892.96
613.93	9167.39
614.126	9417.24
614.321	9978.39
614.517	9890.32
614.712	9959.95
614.907	10455.56
615.103	10641.93
615.298	10732.04
615.493	11295.23
615.688	11313.66
615.884	11889.14
616.079	11954.68
616.274	12546.54
616.47	12642.79
616.665	12997.09
616.86	13337.06
617.055	13468.13
617.25	13666.78
617.445	14281.17
617.641	14389.71
617.836	15141.32
618.031	15325.63
618.226	15784.38
618.421	16179.64
618.616	16826.79
618.811	16634.28
619.006	17498.53
619.201	17260.96
619.396	17899.93
619.591	18024.86
619.786	18862.47
619.981	18919.82
620.176	19747.2
620.371	19773.82
620.566	20578.67
620.761	20642.16
620.956	21268.84
621.151	21467.49
621.346	22161.75
621.541	21995.87
621.735	23040.33
621.93	23140.68
622.125	23746.88
622.32	23716.16
622.515	24303.93
622.709	24834.35
622.904	25526.57
623.099	25839.9
623.294	26243.35
623.488	26495.25
623.683	27447.56
623.878	27130.12
624.072	28117.25
624.267	28397.82
624.462	28932.34
624.656	28897.52
624.851	30085.34
625.046	29831.4
625.24	31068.37
625.435	31023.31
625.629	31199.44
625.824	31647.94
626.018	32309.44
626.213	31836.36
626.407	33038.51
626.602	32929.97
626.796	33767.59
626.991	33636.52
627.185	34244.77
627.38	34402.46
627.574	34924.69
627.768	34803.86
627.963	34709.66
628.157	34515.1
628.352	35328.14
628.546	34920.6
628.74	35270.8
628.935	35354.77
629.129	35041.43
629.323	34736.28
629.517	34594.97
629.712	34480.28
629.906	34175.14
630.1	33652.91
630.294	33935.52
630.489	32979.12
630.683	33061.04
630.877	31916.23
631.071	31488.2
631.265	31189.2
631.459	30626.01
631.653	29802.72
631.848	29415.66
632.042	28733.68
632.236	28309.75
632.43	27158.8
632.624	26784.02
632.818	25927.97
633.012	24672.56
633.206	23951.68
633.4	23531.84
633.594	22149.46
633.788	21764.45
633.982	21199.21
634.176	20396.4
634.369	19616.13
634.563	18700.69
634.757	18239.89
634.951	17676.7
635.145	17021.35
635.339	16206.26
635.533	15524.29
635.726	14883.27
635.92	14172.63
636.114	13562.33
636.308	13066.72
636.501	12696.04
636.695	12284.4
636.889	11364.86
637.083	11074.05
637.276	10594.82
637.47	10146.32
637.664	9845.27
637.857	9417.24
638.051	8999.46
638.244	8610.34
638.438	8262.19
638.632	8065.58
638.825	7608.89
639.019	7268.92
639.212	7070.27
639.406	6980.16
639.599	6535.75
639.793	6232.65
639.986	5917.26
640.18	5884.5
640.373	5509.72
640.567	5409.37
640.76	5243.48
640.954	5055.07
641.147	4584.04
641.34	4538.98
641.534	4510.31
641.727	4334.18
641.92	4174.44
642.114	4029.04
642.307	3816.05
642.5	3701.36
642.694	3435.13
642.887	3330.68
643.08	3252.86
643.273	3240.57
643.467	2986.62
643.66	3023.48
643.853	2747.01
644.046	2685.57
644.239	2693.76
644.432	2392.71
644.626	2347.65
644.819	2302.6
645.012	2151.05
645.205	2144.91
645.398	2142.86
645.591	2032.27
645.784	1839.76
645.977	1708.69
646.17	1690.26
646.363	1702.54
646.556	1464.98
646.749	1524.37
646.942	1505.94
647.135	1546.9
647.328	1315.48
647.521	1372.82
647.714	1225.37
647.907	1276.57
648.099	1225.37
648.292	1276.57
648.485	1133.21
648.678	1010.33
648.871	1047.19
649.064	1039
649.256	965.28
649.449	916.12
649.642	791.2
649.835	850.59
650.027	770.72
650.22	819.87
650.413	791.2
650.605	803.49
650.798	795.29
650.991	666.27
651.183	727.71
651.376	653.98
651.568	750.24
651.761	592.55
651.954	613.03
652.146	514.72
652.339	719.52
652.531	594.59
652.724	385.7
652.916	449.19
653.109	357.03
653.301	496.29
653.494	512.67
653.686	455.33
653.879	533.15
654.071	381.6
654.263	346.79
654.456	367.27
654.648	400.04
654.84	397.99
655.033	402.08
655.225	504.48
655.417	248.49
655.61	445.09
655.802	426.66
655.994	455.33
656.186	246.44
656.379	385.7
656.571	230.06
656.763	238.25
656.955	285.35
657.148	256.68
657.34	371.37
657.532	250.53
657.724	197.29
657.916	336.55
658.108	324.26
658.3	266.92
658.492	340.65
658.684	236.2
658.876	336.55
659.068	144.04
659.26	58.03
659.452	230.06
659.644	260.77
659.836	326.31
660.028	197.29
660.22	178.86
660.412	158.38
660.604	250.53
660.796	217.77
660.988	316.07
661.18	117.42
661.372	256.68
661.563	185
661.755	203.43
661.947	178.86
662.139	156.33
662.331	166.57
662.522	146.09
662.714	162.47
662.906	103.08
663.097	162.47
663.289	64.17
663.481	17.07
663.673	117.42
663.864	141.99
664.056	150.18
664.247	152.23
664.439	154.28
664.631	156.33
664.822	248.49
665.014	215.72
665.205	80.55
665.397	131.75
665.588	144.04
665.78	115.37
665.971	279.21
666.163	76.46
666.354	146.09
666.546	113.32
666.737	84.65
666.929	92.84
667.12	41.64
667.311	146.09
667.503	103.08
667.694	74.41
667.885	109.23
668.077	129.7
668.268	4.78
668.459	119.46
668.651	150.18
668.842	152.23
669.033	60.07
669.224	41.64
669.416	271.01
669.607	76.46
669.798	82.6
669.989	146.09
670.18	101.03
670.371	148.14
670.563	80.55
670.754	228.01
670.945	273.06
671.136	262.82
671.327	121.51
671.518	234.15
671.709	262.82
671.9	125.61
672.091	201.38
672.282	137.9
672.473	158.38
672.664	72.36
672.855	107.18
673.046	178.86
673.237	217.77
673.428	133.8
673.619	215.72
673.809	72.36
674	309.93
674.191	205.48
674.382	43.69
674.573	131.75
674.764	49.83
674.954	113.32
675.145	2.73
675.336	66.22
675.527	135.85
675.717	133.8
675.908	123.56
676.099	119.46
676.289	205.48
676.48	17.07
676.671	139.94
676.861	113.32
677.052	131.75
677.243	127.66
677.433	41.64
677.624	170.66
677.814	191.14
678.005	156.33
678.195	297.64
678.386	43.69
678.576	103.08
678.767	62.12
678.957	209.58
679.148	189.1
679.338	150.18
679.529	172.71
679.719	131.75
679.909	266.92
680.1	193.19
680.29	125.61
680.481	80.55
680.671	215.72
680.861	195.24
681.052	107.18
681.242	8.87
681.432	215.72
681.622	127.66
681.813	94.89
682.003	166.57
682.193	88.75
682.383	152.23
682.573	133.8
682.764	119.46
682.954	180.9
683.144	260.77
683.334	221.86
683.524	209.58
683.714	193.19
683.904	160.42
684.094	144.04
684.284	49.83
684.474	287.4
684.664	223.91
684.854	162.47
685.044	135.85
685.234	219.82
685.424	178.86
685.614	121.51
685.804	309.93
685.994	285.35
686.184	168.62
686.374	72.36
686.564	217.77
686.753	203.43
686.943	72.36
687.133	135.85
687.323	217.77
687.513	193.19
687.702	203.43
687.892	105.13
688.082	264.87
688.272	330.41
688.461	232.1
688.651	311.97
688.841	178.86
689.03	195.24
689.22	185
689.41	271.01
689.599	201.38
689.789	176.81
689.979	314.02
690.168	217.77
690.358	221.86
690.547	297.64
690.737	221.86
690.926	264.87
691.116	244.39
691.305	248.49
691.495	264.87
691.684	82.6
691.874	219.82
692.063	185
692.252	264.87
692.442	299.69
692.631	158.38
692.82	162.47
693.01	185
693.199	228.01
693.388	201.38
693.578	139.94
693.767	281.25
693.956	262.82
694.146	127.66
694.335	170.66
694.524	172.71
694.713	334.5
694.902	144.04
695.092	236.2
695.281	258.73
695.47	187.05
695.659	221.86
695.848	242.34
696.037	137.9
696.226	199.34
696.415	215.72
696.604	293.54
696.793	320.17
696.982	279.21
697.171	340.65
697.36	191.14
697.549	203.43
697.738	123.56
697.927	170.66
698.116	168.62
698.305	271.01
698.494	232.1
698.683	230.06
698.872	314.02
699.061	201.38
699.25	246.44
699.438	187.05
699.627	201.38
699.816	316.07
700.005	60.07
700.193	121.51
700.382	250.53
700.571	228.01
700.76	223.91
700.948	293.54
701.137	185
701.326	324.26
701.514	219.82
701.703	242.34
701.892	178.86
702.08	338.6
702.269	213.67
702.457	193.19
702.646	203.43
702.834	160.42
703.023	320.17
703.212	283.3
703.4	246.44
703.589	137.9
703.777	199.34
703.965	133.8
704.154	94.89
704.342	88.75
704.531	279.21
704.719	228.01
704.907	273.06
705.096	154.28
705.284	170.66
705.472	115.37
705.661	244.39
705.849	248.49
706.037	271.01
706.226	203.43
706.414	242.34
706.602	141.99
706.79	215.72
706.979	236.2
707.167	250.53
707.355	156.33
707.543	189.1
707.731	268.97
707.919	158.38
708.107	189.1
708.296	225.96
708.484	107.18
708.672	168.62
708.86	252.58
709.048	209.58
709.236	166.57
709.424	324.26
709.612	264.87
709.8	113.32
709.988	127.66
710.176	252.58
710.364	297.64
710.551	191.14
710.739	219.82
710.927	172.71
711.115	178.86
711.303	303.78
711.491	361.13
711.679	129.7
711.866	303.78
712.054	113.32
712.242	170.66
712.43	324.26
712.617	131.75
712.805	340.65
712.993	199.34
713.181	211.62
713.368	301.73
713.556	209.58
713.744	164.52
713.931	424.61
714.119	199.34
714.306	230.06
714.494	158.38
714.682	197.29
714.869	160.42
715.057	209.58
715.244	109.23
715.432	291.49
715.619	123.56
715.807	207.53
715.994	168.62
716.182	301.73
716.369	281.25
716.556	342.69
716.744	197.29
716.931	72.36
717.119	211.62
717.306	172.71
717.493	244.39
717.681	172.71
717.868	244.39
718.055	254.63
718.242	219.82
718.43	318.12
718.617	303.78
718.804	135.85
718.991	383.65
719.179	248.49
719.366	252.58
719.553	236.2
719.74	203.43
719.927	236.2
720.114	187.05
720.301	113.32
720.488	193.19
720.676	170.66
720.863	357.03
721.05	330.41
721.237	291.49
721.424	303.78
721.611	256.68
721.798	185
721.985	228.01
722.172	223.91
722.358	197.29
722.545	307.88
722.732	201.38
722.919	328.36
723.106	305.83
723.293	271.01
723.48	305.83
723.667	211.62
723.853	391.84
724.04	238.25
724.227	309.93
724.414	250.53
724.6	268.97
724.787	377.51
724.974	381.6
725.161	172.71
725.347	168.62
725.534	213.67
725.72	340.65
725.907	342.69
726.094	342.69
726.28	221.86
726.467	228.01
726.653	211.62
726.84	309.93
727.027	391.84
727.213	311.97
727.4	320.17
727.586	291.49
727.773	266.92
727.959	260.77
728.145	299.69
728.332	187.05
728.518	240.3
728.705	324.26
728.891	262.82
729.077	277.16
729.264	174.76
729.45	209.58
729.636	328.36
729.823	305.83
730.009	338.6
730.195	260.77
730.382	258.73
730.568	256.68
730.754	311.97
730.94	299.69
731.126	283.3
731.313	303.78
731.499	295.59
731.685	307.88
731.871	219.82
732.057	301.73
732.243	326.31
732.429	244.39
732.615	379.56
732.801	342.69
732.987	338.6
733.173	223.91
733.359	215.72
733.545	244.39
733.731	311.97
733.917	354.98
734.103	268.97
734.289	359.08
734.475	240.3
734.661	481.96
734.847	359.08
735.033	287.4
735.219	330.41
735.404	283.3
735.59	189.1
735.776	250.53
735.962	391.84
736.148	293.54
736.333	393.89
736.519	324.26
736.705	342.69
736.89	246.44
737.076	297.64
737.262	277.16
737.447	287.4
737.633	160.42
737.819	342.69
738.004	297.64
738.19	338.6
738.375	326.31
738.561	326.31
738.747	293.54
738.932	250.53
739.118	311.97
739.303	412.32
739.489	301.73
739.674	260.77
739.859	254.63
740.045	373.41
740.23	404.13
740.416	197.29
740.601	322.21
740.786	279.21
740.972	211.62
741.157	213.67
741.342	178.86
741.528	230.06
741.713	363.17
741.898	309.93
742.084	303.78
742.269	283.3
742.454	248.49
742.639	397.99
742.824	314.02
743.01	428.71
743.195	402.08
743.38	305.83
743.565	359.08
743.75	223.91
743.935	383.65
744.12	326.31
744.305	164.52
744.49	293.54
744.675	211.62
744.86	271.01
745.045	354.98
745.23	324.26
745.415	318.12
745.6	397.99
745.785	232.1
745.97	305.83
746.155	338.6
746.34	393.89
746.525	295.59
746.71	344.74
746.895	266.92
747.079	254.63
747.264	240.3
747.449	275.11
747.634	303.78
747.819	334.5
748.003	248.49
748.188	256.68
748.373	244.39
748.557	289.45
748.742	336.55
748.927	215.72
749.111	240.3
749.296	260.77
749.481	336.55
749.665	244.39
749.85	303.78
750.034	359.08
750.219	293.54
750.404	258.73
750.588	266.92
750.773	207.53
750.957	238.25
751.141	287.4
751.326	266.92
751.51	180.9
751.695	242.34
751.879	166.57
752.064	230.06
752.248	187.05
752.432	295.59
752.617	295.59
752.801	318.12
752.985	92.84
753.17	332.45
753.354	256.68
753.538	223.91
753.722	164.52
753.907	217.77
754.091	168.62
754.275	277.16
754.459	101.03
754.643	146.09
754.828	217.77
755.012	283.3
755.196	148.14
755.38	203.43
755.564	144.04
755.748	115.37
755.932	258.73
756.116	268.97
756.3	234.15
756.484	82.6
756.668	279.21
756.852	164.52
757.036	137.9
757.22	230.06
757.404	115.37
757.588	176.81
757.772	189.1
757.956	172.71
758.14	369.32
758.323	133.8
758.507	281.25
758.691	168.62
758.875	260.77
759.059	324.26
759.242	113.32
759.426	74.41
759.61	209.58
759.794	55.98
759.977	236.2
760.161	309.93
760.345	236.2
760.528	242.34
760.712	117.42
760.895	254.63
761.079	60.07
761.263	127.66
761.446	115.37
761.63	141.99
761.813	230.06
761.997	90.79
762.18	117.42
762.364	172.71
762.547	53.93
762.731	144.04
762.914	125.61
763.098	162.47
763.281	86.7
763.464	156.33
763.648	64.17
763.831	127.66
764.015	72.36
764.198	164.52
764.381	125.61
764.564	197.29
764.748	187.05
764.931	111.27
765.114	117.42
765.297	197.29
765.481	15.02
765.664	94.89
765.847	64.17
766.03	178.86
766.213	29.35
766.397	182.95
766.58	19.11
766.763	141.99
766.946	88.75
767.129	107.18
767.312	31.4
767.495	135.85
767.678	64.17
767.861	144.04
768.044	127.66
768.227	41.64
768.41	98.99
768.593	185
768.776	129.7
768.959	141.99
769.142	242.34
769.324	76.46
769.507	94.89
769.69	146.09
769.873	103.08
770.056	293.54
770.239	76.46
770.421	160.42
770.604	180.9
770.787	121.51
770.97	66.22
771.152	92.84
771.335	154.28
771.518	29.35
771.7	174.76
771.883	254.63
772.066	58.03
772.248	191.14
772.431	135.85
772.613	164.52
772.796	47.79
772.978	55.98
773.161	162.47
773.343	180.9
773.526	70.31
773.708	-23.89
773.891	-23.89
774.073	76.46
774.256	41.64
774.438	148.14
774.621	60.07
774.803	66.22
774.985	80.55
775.168	84.65
775.35	53.93
775.532	156.33
775.715	68.27
775.897	60.07
776.079	98.99
776.261	80.55
776.444	131.75
776.626	19.11
776.808	105.13
776.99	27.31
777.173	117.42
777.355	107.18
777.537	84.65
777.719	160.42
777.901	47.79
778.083	53.93
778.265	-7.51
778.447	94.89
778.629	43.69
778.811	105.13
778.993	105.13
779.175	170.66
779.357	76.46
779.539	-50.52
779.721	68.27
779.903	107.18
780.085	109.23
780.267	64.17
780.449	62.12
780.631	154.28
780.812	148.14
780.994	27.31
781.176	55.98
781.358	60.07
781.54	41.64
781.721	41.64
781.903	168.62
782.085	-15.7
782.267	191.14
782.448	-42.32
782.63	6.83
782.812	82.6
782.993	107.18
783.175	90.79
783.357	41.64
783.538	68.27
783.72	-81.24
783.901	64.17
784.083	92.84
784.264	72.36
784.446	-132.44
784.627	12.97
784.809	131.75
784.99	-30.04
785.172	31.4
785.353	12.97
785.535	129.7
785.716	8.87
785.897	-7.51
786.079	41.64
786.26	121.51
786.441	144.04
786.623	-118.1
786.804	-48.47
786.985	88.75
787.167	135.85
787.348	-19.8
787.529	74.41
787.71	170.66
787.891	107.18
788.073	29.35
788.254	-25.94
788.435	172.71
788.616	82.6
788.797	53.93
788.978	86.7
789.159	27.31
789.34	45.74
789.522	58.03
789.703	0.68
789.884	117.42
790.065	68.27
790.246	154.28
790.427	-9.56
790.607	139.94
790.788	90.79
790.969	-36.18
791.15	60.07
791.331	-19.8
791.512	-34.13
791.693	0.68
791.874	-19.8
792.054	182.95
792.235	96.94
792.416	6.83
792.597	-34.13
792.778	105.13
792.958	51.88
793.139	90.79
793.32	10.92
793.5	60.07
793.681	139.94
793.862	135.85
794.042	-5.46
794.223	-85.33
794.404	8.87
794.584	-7.51
794.765	-17.75
794.945	68.27
795.126	-19.8
795.306	55.98
795.487	62.12
795.667	35.5
795.848	33.45
796.028	49.83
796.209	101.03
796.389	21.16
796.57	-7.51
796.75	-13.65
796.93	33.45
797.111	-68.95
797.291	64.17
797.471	74.41
797.652	-5.46
797.832	-36.18
798.012	33.45
798.192	-83.28
798.373	2.73
798.553	60.07
798.733	103.08
798.913	-36.18
799.093	70.31
799.274	-7.51
799.454	62.12
799.634	78.51
799.814	113.32
799.994	49.83
800.174	37.55
800.354	101.03
800.534	-87.38
800.714	123.56
800.894	-60.76
801.074	-99.67
801.254	27.31
801.434	129.7
801.614	-11.61
801.794	-50.52
801.974	1792.66
802.154	15.02
802.334	47.79
802.514	51.88
802.693	-48.47
802.873	6.83
803.053	31.4
803.233	21.16
803.413	88.75
803.592	15.02
803.772	86.7
803.952	-30.04
804.131	-99.67
804.311	45.74
804.491	43.69
804.67	-42.32
804.85	-17.75
805.03	68.27
805.209	109.23
805.389	6.83
805.568	-27.99
805.748	-34.13
805.928	-15.7
806.107	150.18
806.287	105.13
806.466	80.55
806.646	-21.84
806.825	-114
807.004	-30.04
807.184	12.97
807.363	88.75
807.543	39.59
807.722	19.11
807.901	121.51
808.081	90.79
808.26	-19.8
808.439	-5.46
808.619	82.6
808.798	-44.37
808.977	43.69
809.156	94.89
809.336	39.59
809.515	37.55
809.694	-58.71
809.873	-36.18
810.052	37.55
810.231	88.75
810.411	-30.04
810.59	105.13
810.769	25.26
810.948	62.12
811.127	-120.15
811.306	-32.08
811.485	23.21
811.664	121.51
811.843	41.64
812.022	80.55
812.201	-25.94
812.38	47.79
812.559	-5.46
812.737	62.12
812.916	-58.71
813.095	-38.23
813.274	29.35
813.453	2.73
813.632	137.9
813.811	109.23
813.989	-42.32
814.168	58.03
814.347	-79.19
814.526	4.78
814.704	182.95
814.883	74.41
815.062	-79.19
815.24	74.41
815.419	-50.52
815.598	60.07
815.776	-68.95
815.955	4.78
816.133	-148.82
816.312	60.07
816.49	-7.51
816.669	-32.08
816.847	31.4
817.026	47.79
817.204	12.97
817.383	64.17
817.561	-79.19
817.74	-3.41
817.918	82.6
818.097	-48.47
818.275	19.11
818.453	98.99
818.632	15.02
818.81	8.87
818.988	37.55
819.167	-23.89
819.345	6.83
819.523	-75.09
819.701	41.64
819.879	33.45
820.058	-64.85
820.236	49.83
820.414	2.73
820.592	-19.8
820.77	12.97
820.948	-30.04
821.127	-23.89
821.305	33.45
821.483	10.92
821.661	31.4
821.839	53.93
822.017	-17.75
822.195	-13.65
822.373	4.78
822.551	19.11
822.729	-21.84
822.907	-58.71
823.085	98.99
823.262	109.23
823.44	8.87
823.618	-52.56
823.796	-50.52
823.974	-21.84
824.152	70.31
824.329	8.87
824.507	39.59
824.685	37.55
824.863	6.83
825.04	51.88
825.218	17.07
825.396	49.83
825.574	21.16
825.751	-27.99
825.929	62.12
826.107	-30.04
826.284	88.75
826.462	35.5
826.639	-58.71
826.817	-103.76
826.994	4.78
827.172	-48.47
827.349	131.75
827.527	105.13
827.704	23.21
827.882	86.7
828.059	10.92
828.237	-17.75
828.414	27.31
828.591	-152.91
828.769	-52.56
828.946	-30.04
829.124	74.41
829.301	68.27
829.478	-32.08
829.655	31.4
829.833	-11.61
830.01	-138.58
830.187	66.22
830.364	-9.56
830.542	-89.43
830.719	125.61
830.896	125.61
831.073	27.31
831.25	113.32
831.427	19.11
831.604	146.09
831.782	-3.41
831.959	8.87
832.136	-44.37
832.313	-9.56
832.49	-58.71
832.667	47.79
832.844	-32.08
833.021	96.94
833.198	4.78
833.374	31.4
833.551	0.68
833.728	-25.94
833.905	105.13
834.082	-58.71
834.259	33.45
834.436	17.07
834.612	-75.09
834.789	2.73
834.966	0.68
835.143	19.11
835.319	-27.99
835.496	43.69
835.673	41.64
835.85	84.65
836.026	115.37
836.203	43.69
836.38	-5.46
836.556	-50.52
836.733	-9.56
836.909	154.28
837.086	0.68
837.262	-105.81
837.439	-93.52
837.616	8.87
837.792	10.92
837.968	-60.76
838.145	-48.47
838.321	-1.37
838.498	21.16
838.674	15.02
838.851	47.79
839.027	-5.46
839.203	35.5
839.38	92.84
839.556	-58.71
839.732	55.98
839.909	0.68
840.085	86.7
840.261	-50.52
840.437	-48.47
840.614	-79.19
840.79	90.79
840.966	49.83
841.142	-15.7
841.318	-60.76
841.494	66.22
841.671	19.11
841.847	-25.94
842.023	-71
842.199	62.12
842.375	129.7
842.551	-89.43
842.727	-105.81
842.903	119.46
843.079	-7.51
843.255	58.03
843.431	21.16
843.607	53.93
843.783	-91.48
843.959	139.94
844.134	-19.8
844.31	78.51
844.486	-58.71
844.662	-42.32
844.838	33.45
845.013	90.79
845.189	68.27
845.365	25.26
845.541	53.93
845.716	70.31
845.892	76.46
846.068	27.31
846.244	-142.68
846.419	64.17
846.595	-27.99
846.77	-99.67
846.946	76.46
847.122	-44.37
847.297	35.5
847.473	125.61
847.648	-71
847.824	-1.37
847.999	-34.13
848.175	39.59
848.35	78.51
848.526	113.32
848.701	41.64
848.876	86.7
849.052	45.74
849.227	29.35
849.403	37.55
849.578	0.68
849.753	117.42
849.929	15.02
850.104	-138.58
850.279	4.78
850.454	-48.47
850.63	92.84
850.805	10.92
850.98	78.51
851.155	-30.04
851.33	45.74
851.505	-79.19
851.681	117.42
851.856	-66.9
852.031	53.93
852.206	-44.37
852.381	-126.29
852.556	51.88
852.731	-17.75
852.906	105.13
853.081	2.73
853.256	103.08
853.431	-1.37
853.606	64.17
853.781	-52.56
853.956	-75.09
854.131	47.79
854.305	-25.94
854.48	-3.41
854.655	-17.75
854.83	-89.43
855.005	29.35
855.18	49.83
855.354	-7.51
855.529	-48.47
855.704	-9.56
855.879	96.94
856.053	-85.33
856.228	-13.65
856.403	0.68
856.577	-11.61
856.752	-126.29
856.926	-32.08
857.101	19.11
857.276	-89.43
857.45	-71
857.625	133.8
857.799	-3.41
857.974	-15.7
858.148	-64.85
858.323	31.4
858.497	-23.89
858.672	-32.08
858.846	-75.09
859.02	12.97
859.195	-175.44
859.369	-5.46
859.543	62.12
859.718	25.26
859.892	64.17
860.066	41.64
860.241	-40.28
860.415	-5.46
860.589	-1.37
860.763	27.31
860.938	-77.14
861.112	51.88
861.286	41.64
861.46	21.16
861.634	-52.56
861.808	78.51
861.982	-38.23
862.157	-40.28
862.331	49.83
862.505	-95.57
862.679	-83.28
862.853	-85.33
863.027	15.02
863.201	86.7
863.375	-58.71
863.549	0.68
863.722	39.59
863.896	80.55
864.07	-75.09
864.244	8.87
864.418	17.07
864.592	-19.8
864.766	101.03
864.939	25.26
865.113	-60.76
865.287	119.46
865.461	-58.71
865.634	-3.41
865.808	39.59
865.982	-25.94
866.156	-13.65
866.329	-44.37
866.503	-25.94
866.676	78.51
866.85	51.88
867.024	-89.43
867.197	68.27
867.371	27.31
867.544	-75.09
867.718	-95.57
867.891	182.95
868.065	-64.85
868.238	6.83
868.412	101.03
868.585	76.46
868.759	-27.99
868.932	-38.23
869.105	-44.37
869.279	-17.75
869.452	-9.56
869.625	43.69
869.799	17.07
869.972	-56.66
870.145	-46.42
870.319	41.64
870.492	-75.09
870.665	-17.75
870.838	-19.8
871.011	-202.07
871.185	21.16
871.358	-7.51
871.531	43.69
871.704	-32.08
871.877	-7.51
872.05	-54.61
872.223	-85.33
872.396	64.17
872.569	103.08
872.742	-130.39
872.915	17.07
873.088	-77.14
873.261	-138.58
873.434	17.07
873.607	135.85
873.78	72.36
873.953	-38.23
874.126	39.59
874.299	-3.41
874.471	-64.85
874.644	39.59
874.817	-46.42
874.99	172.71
875.163	-52.56
875.335	109.23
875.508	35.5
875.681	121.51
875.853	0.68
876.026	15.02
876.199	53.93
876.371	2.73
876.544	8.87
876.717	4.78
876.889	-23.89
877.062	88.75
877.234	-64.85
877.407	-64.85
877.579	-50.52
877.752	-79.19
877.924	64.17
878.097	33.45
878.269	88.75
878.442	37.55
878.614	37.55
878.786	-1.37
878.959	17.07
879.131	23.21
879.303	-111.96
879.476	-44.37
879.648	109.23
879.82	55.98
879.993	-40.28
880.165	-42.32
880.337	-93.52
880.509	-21.84
880.681	-134.48
880.854	-40.28
881.026	41.64
881.198	176.81
881.37	-1.37
881.542	-34.13
881.714	2.73
881.886	8.87
882.058	51.88
882.23	0.68
882.402	-40.28
882.574	-1.37
882.746	94.89
882.918	113.32
883.09	47.79
883.262	-38.23
883.434	-21.84
883.606	-111.96
883.778	6.83
883.95	66.22
884.122	29.35
884.293	76.46
884.465	29.35
884.637	58.03
884.809	-124.24
884.98	78.51
885.152	21.16
885.324	72.36
885.496	-9.56
885.667	-99.67
885.839	-54.61
886.011	139.94
886.182	70.31
886.354	107.18
886.525	53.93
886.697	-19.8
886.869	-83.28
887.04	-44.37
887.212	53.93
887.383	172.71
887.555	-11.61
887.726	-50.52
887.897	-56.66
888.069	-17.75
888.24	15.02
888.412	12.97
888.583	-11.61
888.754	8.87
888.926	-75.09
889.097	-1.37
889.268	-66.9
889.44	-85.33
889.611	-152.91
889.782	-93.52
889.953	-79.19
890.125	35.5
890.296	-52.56
890.467	-25.94
890.638	-1.37
890.809	8.87
890.98	-46.42
891.151	31.4
891.323	82.6
891.494	-91.48
891.665	10.92
891.836	-1.37
892.007	-27.99
892.178	47.79
892.349	21.16
892.52	-107.86
892.691	31.4
892.862	-79.19
893.032	-114
893.203	19.11
893.374	17.07
893.545	94.89
893.716	-34.13
893.887	41.64
894.057	-87.38
894.228	19.11
894.399	-128.34
894.57	119.46
894.74	-9.56
894.911	15.02
895.082	-68.95
895.253	-109.91
895.423	-25.94
895.594	29.35
895.764	-50.52
895.935	-66.9
896.106	27.31
896.276	-50.52
896.447	-25.94
896.617	-30.04
896.788	-27.99
896.958	-42.32
897.129	-66.9
897.299	-52.56
897.47	92.84
897.64	76.46
897.81	60.07
897.981	62.12
898.151	-66.9
898.322	-17.75
898.492	88.75
898.662	-132.44
898.832	-21.84
899.003	-17.75
899.173	90.79
899.343	-25.94
899.513	-81.24
