Data from USB4F104151__5__09-24-30-727.txt Node

Date: Wed Feb 26 09:24:30 EST 2025
User: louis
Spectrometer: USB4F10415
Trigger mode: 4
Integration Time (sec): 1.000000E-1
Scans to average: 1
Electric dark correction enabled: true
Nonlinearity correction enabled: false
Boxcar width: 0
XAxis mode: Wavelengths
Number of Pixels in Spectrum: 3648
>>>>>Begin Spectral Data<<<<<
178.204	-347.47
178.424	-347.47
178.644	-347.47
178.864	-370
179.084	-308.56
179.304	-77.14
179.524	-19.8
179.744	-9.56
179.964	105.13
180.184	25.26
180.404	39.59
180.624	25.26
180.844	-9.56
181.064	-34.13
181.283	27.31
181.503	-62.8
181.723	-9.56
181.943	-62.8
182.163	113.32
182.383	-21.84
182.602	133.8
182.822	135.85
183.042	101.03
183.262	-19.8
183.482	94.89
183.701	23.21
183.921	98.99
184.141	15.02
184.361	23.21
184.58	53.93
184.8	35.5
185.02	-19.8
185.239	111.27
185.459	105.13
185.679	121.51
185.898	-157.01
186.118	115.37
186.338	58.03
186.557	74.41
186.777	-42.32
186.997	6.83
187.216	45.74
187.436	176.81
187.655	70.31
187.875	60.07
188.095	4.78
188.314	182.95
188.534	135.85
188.753	-11.61
188.973	135.85
189.192	164.52
189.412	23.21
189.631	37.55
189.851	43.69
190.07	96.94
190.29	6.83
190.509	-40.28
190.729	17.07
190.948	80.55
191.168	252.58
191.387	47.79
191.607	-7.51
191.826	80.55
192.045	-21.84
192.265	31.4
192.484	47.79
192.704	-34.13
192.923	-79.19
193.142	201.38
193.362	55.98
193.581	168.62
193.8	96.94
194.02	84.65
194.239	6.83
194.458	64.17
194.678	27.31
194.897	45.74
195.116	62.12
195.335	43.69
195.555	8.87
195.774	72.36
195.993	166.57
196.212	27.31
196.432	-34.13
196.651	25.26
196.87	25.26
197.089	209.58
197.308	121.51
197.528	82.6
197.747	-9.56
197.966	41.64
198.185	154.28
198.404	2.73
198.623	105.13
198.842	92.84
199.062	150.18
199.281	121.51
199.5	27.31
199.719	101.03
199.938	86.7
200.157	-1.37
200.376	15.02
200.595	129.7
200.814	47.79
201.033	72.36
201.252	119.46
201.471	33.45
201.69	39.59
201.909	8.87
202.128	31.4
202.347	96.94
202.566	119.46
202.785	-64.85
203.004	-1.37
203.223	195.24
203.442	72.36
203.661	-34.13
203.879	41.64
204.098	146.09
204.317	33.45
204.536	98.99
204.755	111.27
204.974	51.88
205.193	58.03
205.411	101.03
205.63	94.89
205.849	-3.41
206.068	76.46
206.287	60.07
206.505	113.32
206.724	72.36
206.943	27.31
207.162	58.03
207.381	-9.56
207.599	72.36
207.818	-48.47
208.037	2.73
208.255	-5.46
208.474	51.88
208.693	76.46
208.911	51.88
209.13	119.46
209.349	2.73
209.567	137.9
209.786	-9.56
210.005	74.41
210.223	10.92
210.442	-85.33
210.661	105.13
210.879	62.12
211.098	-17.75
211.316	12.97
211.535	88.75
211.753	12.97
211.972	43.69
212.191	-27.99
212.409	23.21
212.628	94.89
212.846	-21.84
213.065	131.75
213.283	107.18
213.502	4.78
213.72	78.51
213.938	-17.75
214.157	78.51
214.375	105.13
214.594	45.74
214.812	27.31
215.031	-27.99
215.249	80.55
215.467	6.83
215.686	60.07
215.904	92.84
216.122	109.23
216.341	127.66
216.559	51.88
216.778	107.18
216.996	107.18
217.214	31.4
217.432	-40.28
217.651	-48.47
217.869	39.59
218.087	133.8
218.306	-34.13
218.524	88.75
218.742	6.83
218.96	154.28
219.179	-9.56
219.397	31.4
219.615	254.63
219.833	55.98
220.051	-25.94
220.27	103.08
220.488	92.84
220.706	78.51
220.924	29.35
221.142	25.26
221.36	72.36
221.578	78.51
221.796	146.09
222.015	55.98
222.233	84.65
222.451	84.65
222.669	-11.61
222.887	90.79
223.105	-19.8
223.323	-34.13
223.541	-23.89
223.759	12.97
223.977	74.41
224.195	146.09
224.413	55.98
224.631	45.74
224.849	64.17
225.067	189.1
225.285	47.79
225.503	-36.18
225.721	-68.95
225.939	29.35
226.157	35.5
226.375	318.12
226.592	-23.89
226.81	-42.32
227.028	92.84
227.246	135.85
227.464	-3.41
227.682	150.18
227.9	-11.61
228.117	33.45
228.335	72.36
228.553	39.59
228.771	25.26
228.989	90.79
229.206	68.27
229.424	49.83
229.642	88.75
229.86	-3.41
230.077	62.12
230.295	33.45
230.513	41.64
230.731	162.47
230.948	125.61
231.166	170.66
231.384	80.55
231.601	-1.37
231.819	144.04
232.037	60.07
232.254	-1.37
232.472	123.56
232.689	23.21
232.907	62.12
233.125	-15.7
233.342	2.73
233.56	15.02
233.777	101.03
233.995	60.07
234.213	84.65
234.43	107.18
234.648	8.87
234.865	6.83
235.083	47.79
235.3	101.03
235.518	80.55
235.735	148.14
235.953	47.79
236.17	96.94
236.388	80.55
236.605	105.13
236.822	64.17
237.04	-50.52
237.257	-44.37
237.475	17.07
237.692	41.64
237.909	96.94
238.127	-30.04
238.344	55.98
238.562	117.42
238.779	-89.43
238.996	-36.18
239.214	64.17
239.431	129.7
239.648	15.02
239.865	55.98
240.083	80.55
240.3	21.16
240.517	25.26
240.735	70.31
240.952	88.75
241.169	182.95
241.386	80.55
241.603	92.84
241.821	27.31
242.038	47.79
242.255	62.12
242.472	-42.32
242.689	53.93
242.907	84.65
243.124	47.79
243.341	80.55
243.558	-1.37
243.775	-46.42
243.992	17.07
244.209	105.13
244.426	209.58
244.643	62.12
244.86	33.45
245.078	80.55
245.295	41.64
245.512	39.59
245.729	29.35
245.946	72.36
246.163	64.17
246.38	19.11
246.597	55.98
246.814	31.4
247.031	72.36
247.248	-27.99
247.464	-9.56
247.681	139.94
247.898	90.79
248.115	15.02
248.332	-9.56
248.549	160.42
248.766	178.86
248.983	86.7
249.2	64.17
249.417	31.4
249.633	-1.37
249.85	94.89
250.067	47.79
250.284	29.35
250.501	64.17
250.717	84.65
250.934	39.59
251.151	64.17
251.368	-3.41
251.585	23.21
251.801	103.08
252.018	53.93
252.235	84.65
252.451	-87.38
252.668	21.16
252.885	72.36
253.102	-27.99
253.318	37.55
253.535	37.55
253.752	0.68
253.968	-5.46
254.185	-71
254.401	107.18
254.618	35.5
254.835	-52.56
255.051	162.47
255.268	94.89
255.484	76.46
255.701	-30.04
255.917	103.08
256.134	12.97
256.351	-1.37
256.567	-19.8
256.784	-3.41
257	12.97
257.217	47.79
257.433	105.13
257.65	64.17
257.866	92.84
258.082	51.88
258.299	31.4
258.515	121.51
258.732	68.27
258.948	66.22
259.165	141.99
259.381	35.5
259.597	45.74
259.814	-17.75
260.03	-44.37
260.246	-3.41
260.463	39.59
260.679	94.89
260.895	-17.75
261.112	60.07
261.328	37.55
261.544	2.73
261.761	152.23
261.977	-79.19
262.193	-48.47
262.409	51.88
262.626	121.51
262.842	60.07
263.058	-1.37
263.274	111.27
263.49	76.46
263.707	62.12
263.923	92.84
264.139	-32.08
264.355	72.36
264.571	146.09
264.787	109.23
265.004	105.13
265.22	31.4
265.436	21.16
265.652	72.36
265.868	146.09
266.084	-64.85
266.3	76.46
266.516	-25.94
266.732	84.65
266.948	10.92
267.164	37.55
267.38	103.08
267.596	82.6
267.812	154.28
268.028	23.21
268.244	15.02
268.46	88.75
268.676	25.26
268.892	-21.84
269.108	37.55
269.324	-58.71
269.54	-25.94
269.756	60.07
269.972	-13.65
270.188	-34.13
270.403	-19.8
270.619	31.4
270.835	141.99
271.051	74.41
271.267	29.35
271.483	19.11
271.698	144.04
271.914	60.07
272.13	96.94
272.346	23.21
272.562	27.31
272.777	47.79
272.993	25.26
273.209	10.92
273.425	-1.37
273.64	-79.19
273.856	15.02
274.072	10.92
274.287	-32.08
274.503	49.83
274.719	90.79
274.934	-7.51
275.15	-25.94
275.366	-17.75
275.581	-56.66
275.797	33.45
276.012	78.51
276.228	-83.28
276.444	21.16
276.659	105.13
276.875	31.4
277.09	47.79
277.306	62.12
277.521	43.69
277.737	84.65
277.952	94.89
278.168	98.99
278.383	80.55
278.599	8.87
278.814	62.12
279.03	55.98
279.245	121.51
279.461	72.36
279.676	27.31
279.892	-38.23
280.107	-21.84
280.322	-1.37
280.538	119.46
280.753	101.03
280.969	12.97
281.184	74.41
281.399	103.08
281.615	39.59
281.83	43.69
282.045	-3.41
282.26	6.83
282.476	-17.75
282.691	45.74
282.906	107.18
283.122	15.02
283.337	-21.84
283.552	111.27
283.767	-13.65
283.983	144.04
284.198	-1.37
284.413	109.23
284.628	-32.08
284.843	39.59
285.058	66.22
285.274	-17.75
285.489	-1.37
285.704	78.51
285.919	-7.51
286.134	23.21
286.349	23.21
286.564	21.16
286.779	129.7
286.995	15.02
287.21	-19.8
287.425	88.75
287.64	19.11
287.855	-25.94
288.07	-36.18
288.285	55.98
288.5	39.59
288.715	23.21
288.93	21.16
289.145	-27.99
289.36	88.75
289.575	29.35
289.79	135.85
290.004	82.6
290.219	31.4
290.434	-13.65
290.649	-19.8
290.864	82.6
291.079	76.46
291.294	111.27
291.509	53.93
291.724	55.98
291.938	6.83
292.153	-42.32
292.368	23.21
292.583	60.07
292.798	88.75
293.012	-5.46
293.227	53.93
293.442	-50.52
293.657	121.51
293.871	166.57
294.086	68.27
294.301	119.46
294.516	94.89
294.73	82.6
294.945	-42.32
295.16	70.31
295.374	213.67
295.589	135.85
295.804	-3.41
296.018	21.16
296.233	129.7
296.447	39.59
296.662	68.27
296.877	135.85
297.091	80.55
297.306	6.83
297.52	43.69
297.735	31.4
297.949	98.99
298.164	23.21
298.378	146.09
298.593	-107.86
298.807	-25.94
299.022	29.35
299.236	113.32
299.451	6.83
299.665	-30.04
299.88	-25.94
300.094	55.98
300.309	31.4
300.523	121.51
300.737	72.36
300.952	76.46
301.166	15.02
301.381	27.31
301.595	17.07
301.809	35.5
302.024	51.88
302.238	10.92
302.452	191.14
302.667	23.21
302.881	92.84
303.095	137.9
303.309	70.31
303.524	-50.52
303.738	27.31
303.952	21.16
304.166	105.13
304.381	-148.82
304.595	150.18
304.809	55.98
305.023	4.78
305.237	-17.75
305.452	55.98
305.666	98.99
305.88	8.87
306.094	51.88
306.308	-25.94
306.522	119.46
306.736	113.32
306.95	66.22
307.164	55.98
307.379	-5.46
307.593	144.04
307.807	105.13
308.021	74.41
308.235	125.61
308.449	-103.76
308.663	33.45
308.877	154.28
309.091	64.17
309.305	72.36
309.519	-1.37
309.733	109.23
309.947	-5.46
310.161	60.07
310.374	60.07
310.588	144.04
310.802	-9.56
311.016	10.92
311.23	103.08
311.444	2.73
311.658	117.42
311.872	113.32
312.085	129.7
312.299	55.98
312.513	78.51
312.727	-9.56
312.941	-19.8
313.154	66.22
313.368	55.98
313.582	47.79
313.796	129.7
314.009	10.92
314.223	119.46
314.437	66.22
314.651	23.21
314.864	-19.8
315.078	-1.37
315.292	4.78
315.505	86.7
315.719	29.35
315.933	45.74
316.146	-27.99
316.36	-17.75
316.573	86.7
316.787	39.59
317.001	111.27
317.214	-54.61
317.428	-85.33
317.641	21.16
317.855	-54.61
318.068	-40.28
318.282	-46.42
318.495	180.9
318.709	101.03
318.922	15.02
319.136	182.95
319.349	141.99
319.563	10.92
319.776	37.55
319.99	-5.46
320.203	80.55
320.417	43.69
320.63	111.27
320.843	154.28
321.057	78.51
321.27	15.02
321.483	84.65
321.697	86.7
321.91	39.59
322.124	43.69
322.337	12.97
322.55	4.78
322.763	98.99
322.977	45.74
323.19	47.79
323.403	47.79
323.617	117.42
323.83	80.55
324.043	43.69
324.256	51.88
324.469	-1.37
324.683	64.17
324.896	62.12
325.109	76.46
325.322	-77.14
325.535	96.94
325.748	37.55
325.962	96.94
326.175	80.55
326.388	133.8
326.601	119.46
326.814	70.31
327.027	82.6
327.24	105.13
327.453	-79.19
327.666	78.51
327.879	119.46
328.092	92.84
328.305	21.16
328.518	23.21
328.731	39.59
328.944	60.07
329.157	78.51
329.37	113.32
329.583	154.28
329.796	209.58
330.009	-25.94
330.222	88.75
330.435	39.59
330.648	88.75
330.861	35.5
331.073	51.88
331.286	137.9
331.499	55.98
331.712	55.98
331.925	33.45
332.138	43.69
332.35	80.55
332.563	31.4
332.776	148.14
332.989	-58.71
333.202	4.78
333.414	27.31
333.627	-9.56
333.84	62.12
334.053	2.73
334.265	4.78
334.478	47.79
334.691	12.97
334.903	80.55
335.116	6.83
335.329	6.83
335.541	31.4
335.754	111.27
335.966	39.59
336.179	-38.23
336.392	64.17
336.604	27.31
336.817	121.51
337.029	64.17
337.242	37.55
337.454	105.13
337.667	-1.37
337.88	23.21
338.092	113.32
338.305	72.36
338.517	-1.37
338.729	31.4
338.942	109.23
339.154	-36.18
339.367	-34.13
339.579	133.8
339.792	-1.37
340.004	150.18
340.217	49.83
340.429	60.07
340.641	-44.37
340.854	12.97
341.066	31.4
341.278	60.07
341.491	109.23
341.703	33.45
341.915	33.45
342.128	150.18
342.34	51.88
342.552	-85.33
342.764	31.4
342.977	19.11
343.189	-23.89
343.401	43.69
343.613	-30.04
343.826	68.27
344.038	10.92
344.25	88.75
344.462	55.98
344.674	23.21
344.886	-3.41
345.099	80.55
345.311	23.21
345.523	-68.95
345.735	-30.04
345.947	113.32
346.159	103.08
346.371	72.36
346.583	31.4
346.795	125.61
347.007	-42.32
347.219	49.83
347.431	55.98
347.643	144.04
347.855	23.21
348.067	74.41
348.279	-25.94
348.491	51.88
348.703	119.46
348.915	-11.61
349.127	-62.8
349.339	23.21
349.551	-27.99
349.763	27.31
349.975	29.35
350.187	55.98
350.399	55.98
350.61	144.04
350.822	8.87
351.034	64.17
351.246	62.12
351.458	53.93
351.669	37.55
351.881	121.51
352.093	113.32
352.305	105.13
352.517	166.57
352.728	135.85
352.94	119.46
353.152	66.22
353.363	-21.84
353.575	66.22
353.787	78.51
353.999	-30.04
354.21	193.19
354.422	23.21
354.633	15.02
354.845	55.98
355.057	37.55
355.268	45.74
355.48	96.94
355.692	-42.32
355.903	39.59
356.115	-60.76
356.326	-34.13
356.538	103.08
356.749	33.45
356.961	150.18
357.172	12.97
357.384	-23.89
357.595	133.8
357.807	-19.8
358.018	-38.23
358.23	21.16
358.441	158.38
358.653	17.07
358.864	80.55
359.075	43.69
359.287	21.16
359.498	109.23
359.709	131.75
359.921	-50.52
360.132	51.88
360.344	33.45
360.555	-54.61
360.766	-30.04
360.977	17.07
361.189	70.31
361.4	-30.04
361.611	90.79
361.823	103.08
362.034	49.83
362.245	-13.65
362.456	101.03
362.667	94.89
362.879	-17.75
363.09	39.59
363.301	27.31
363.512	37.55
363.723	64.17
363.935	8.87
364.146	113.32
364.357	41.64
364.568	51.88
364.779	12.97
364.99	119.46
365.201	60.07
365.412	47.79
365.623	-25.94
365.834	35.5
366.045	-9.56
366.256	45.74
366.467	31.4
366.678	62.12
366.889	60.07
367.1	6.83
367.311	70.31
367.522	41.64
367.733	88.75
367.944	47.79
368.155	82.6
368.366	60.07
368.577	170.66
368.788	141.99
368.999	78.51
369.209	101.03
369.42	170.66
369.631	185
369.842	60.07
370.053	43.69
370.264	109.23
370.474	53.93
370.685	49.83
370.896	37.55
371.107	125.61
371.317	80.55
371.528	55.98
371.739	123.56
371.95	47.79
372.16	88.75
372.371	-9.56
372.582	-50.52
372.792	137.9
373.003	103.08
373.214	53.93
373.424	35.5
373.635	10.92
373.846	27.31
374.056	84.65
374.267	-5.46
374.477	78.51
374.688	47.79
374.898	78.51
375.109	-17.75
375.319	80.55
375.53	178.86
375.74	84.65
375.951	78.51
376.161	25.26
376.372	72.36
376.582	-66.9
376.793	105.13
377.003	2.73
377.214	31.4
377.424	84.65
377.635	10.92
377.845	-25.94
378.055	125.61
378.266	-21.84
378.476	12.97
378.686	37.55
378.897	78.51
379.107	105.13
379.317	29.35
379.528	35.5
379.738	131.75
379.948	-15.7
380.158	158.38
380.369	72.36
380.579	15.02
380.789	-3.41
380.999	47.79
381.21	117.42
381.42	228.01
381.63	78.51
381.84	101.03
382.05	92.84
382.261	101.03
382.471	64.17
382.681	111.27
382.891	164.52
383.101	23.21
383.311	-3.41
383.521	2.73
383.731	62.12
383.941	70.31
384.151	74.41
384.361	25.26
384.571	78.51
384.781	43.69
384.991	137.9
385.201	123.56
385.411	60.07
385.621	58.03
385.831	98.99
386.041	21.16
386.251	53.93
386.461	170.66
386.671	-1.37
386.881	37.55
387.091	78.51
387.301	62.12
387.511	64.17
387.72	94.89
387.93	55.98
388.14	-27.99
388.35	76.46
388.56	88.75
388.769	47.79
388.979	19.11
389.189	29.35
389.399	76.46
389.609	76.46
389.818	19.11
390.028	41.64
390.238	86.7
390.447	39.59
390.657	51.88
390.867	39.59
391.076	-68.95
391.286	-1.37
391.496	29.35
391.705	-11.61
391.915	105.13
392.125	80.55
392.334	-1.37
392.544	144.04
392.753	43.69
392.963	12.97
393.172	35.5
393.382	0.68
393.591	199.34
393.801	6.83
394.01	92.84
394.22	60.07
394.429	-34.13
394.639	15.02
394.848	62.12
395.058	23.21
395.267	10.92
395.477	70.31
395.686	82.6
395.895	275.11
396.105	191.14
396.314	51.88
396.524	47.79
396.733	-36.18
396.942	103.08
397.152	31.4
397.361	180.9
397.57	121.51
397.78	49.83
397.989	129.7
398.198	217.77
398.407	96.94
398.617	76.46
398.826	25.26
399.035	47.79
399.244	105.13
399.453	47.79
399.663	55.98
399.872	64.17
400.081	-13.65
400.29	80.55
400.499	15.02
400.708	92.84
400.917	12.97
401.127	29.35
401.336	6.83
401.545	203.43
401.754	105.13
401.963	10.92
402.172	19.11
402.381	-1.37
402.59	121.51
402.799	15.02
403.008	113.32
403.217	35.5
403.426	119.46
403.635	-46.42
403.844	94.89
404.053	53.93
404.262	66.22
404.471	119.46
404.68	47.79
404.888	23.21
405.097	45.74
405.306	119.46
405.515	55.98
405.724	27.31
405.933	64.17
406.142	2.73
406.35	66.22
406.559	-1.37
406.768	164.52
406.977	119.46
407.185	103.08
407.394	47.79
407.603	-42.32
407.812	47.79
408.02	123.56
408.229	29.35
408.438	94.89
408.646	15.02
408.855	25.26
409.064	156.33
409.272	-52.56
409.481	88.75
409.69	60.07
409.898	-62.8
410.107	72.36
410.315	72.36
410.524	47.79
410.733	96.94
410.941	49.83
411.15	141.99
411.358	88.75
411.567	127.66
411.775	60.07
411.984	72.36
412.192	107.18
412.401	-34.13
412.609	113.32
412.818	123.56
413.026	70.31
413.234	6.83
413.443	19.11
413.651	-17.75
413.86	10.92
414.068	146.09
414.276	88.75
414.485	60.07
414.693	158.38
414.901	178.86
415.11	47.79
415.318	55.98
415.526	-9.56
415.734	146.09
415.943	47.79
416.151	137.9
416.359	117.42
416.567	96.94
416.776	211.62
416.984	107.18
417.192	152.23
417.4	43.69
417.608	-58.71
417.817	-46.42
418.025	156.33
418.233	193.19
418.441	41.64
418.649	-27.99
418.857	76.46
419.065	191.14
419.273	27.31
419.481	55.98
419.689	29.35
419.897	84.65
420.105	-3.41
420.313	137.9
420.521	119.46
420.729	148.14
420.937	6.83
421.145	31.4
421.353	86.7
421.561	197.29
421.769	129.7
421.977	-3.41
422.185	92.84
422.393	21.16
422.601	96.94
422.809	80.55
423.017	35.5
423.224	47.79
423.432	172.71
423.64	-9.56
423.848	135.85
424.056	10.92
424.263	148.14
424.471	154.28
424.679	117.42
424.887	8.87
425.094	96.94
425.302	127.66
425.51	84.65
425.718	96.94
425.925	113.32
426.133	4.78
426.341	154.28
426.548	64.17
426.756	43.69
426.964	170.66
427.171	62.12
427.379	94.89
427.586	31.4
427.794	80.55
428.001	133.8
428.209	109.23
428.417	146.09
428.624	43.69
428.832	162.47
429.039	29.35
429.247	103.08
429.454	121.51
429.662	193.19
429.869	121.51
430.076	101.03
430.284	182.95
430.491	258.73
430.699	137.9
430.906	156.33
431.114	135.85
431.321	123.56
431.528	103.08
431.736	109.23
431.943	154.28
432.15	219.82
432.358	234.15
432.565	250.53
432.772	49.83
432.979	191.14
433.187	129.7
433.394	178.86
433.601	150.18
433.808	283.3
434.016	215.72
434.223	248.49
434.43	191.14
434.637	223.91
434.844	324.26
435.052	318.12
435.259	228.01
435.466	293.54
435.673	291.49
435.88	260.77
436.087	350.89
436.294	395.94
436.501	307.88
436.708	309.93
436.915	318.12
437.122	400.04
437.329	285.35
437.537	381.6
437.743	359.08
437.95	406.18
438.157	402.08
438.364	393.89
438.571	379.56
438.778	379.56
438.985	471.72
439.192	481.96
439.399	531.11
439.606	481.96
439.813	514.72
440.02	580.26
440.227	719.52
440.433	578.21
440.64	510.63
440.847	479.91
441.054	561.83
441.261	653.98
441.467	602.79
441.674	744.1
441.881	705.18
442.088	678.56
442.294	737.95
442.501	758.43
442.708	817.82
442.914	815.77
443.121	903.84
443.328	840.35
443.534	963.23
443.741	858.78
443.948	924.32
444.154	946.84
444.361	1120.92
444.568	1010.33
444.774	1006.24
444.981	955.04
445.187	1260.18
445.394	1219.22
445.6	1170.07
445.807	1368.73
446.013	1333.91
446.22	1360.53
446.426	1520.28
446.633	1516.18
446.839	1759.89
447.046	1464.98
447.252	1657.49
447.459	1692.3
447.665	1776.27
447.871	1895.05
448.078	2028.17
448.284	1979.02
448.491	2056.84
448.697	2153.1
448.903	2212.49
449.11	2161.29
449.316	2230.92
449.522	2415.24
449.728	2538.12
449.935	2609.79
450.141	2628.23
450.347	2923.13
450.553	2757.25
450.76	2822.78
450.966	2912.89
451.172	3084.92
451.378	3197.56
451.584	3342.97
451.791	3506.81
451.997	3709.55
452.203	3605.11
452.409	3854.96
452.615	4037.23
452.821	3795.57
453.027	3928.69
453.233	4475.49
453.44	4332.14
453.646	4565.6
453.852	4584.04
454.058	4872.8
454.264	5132.89
454.47	5567.06
454.676	5470.81
454.882	5962.32
455.088	5847.63
455.294	5982.8
455.5	6410.82
455.705	6773.32
455.911	6740.55
456.117	6924.86
456.323	7242.3
456.529	7266.88
456.735	7868.98
456.941	8114.73
457.147	8376.87
457.352	8456.75
457.558	8897.06
457.764	9540.12
457.97	9622.04
458.176	10062.35
458.381	10373.64
458.587	10744.33
458.793	11293.18
458.999	11254.27
459.204	12534.25
459.41	13132.26
459.616	12769.77
459.821	13695.45
460.027	14238.16
460.233	15004.1
460.438	15104.45
460.644	15954.36
460.85	15815.1
461.055	16460.21
461.261	17418.66
461.466	16798.12
461.672	17381.79
461.878	19255.68
462.083	19001.74
462.289	19317.12
462.494	20226.42
462.7	20502.9
462.905	20480.37
463.111	22184.28
463.316	23550.28
463.522	23957.82
463.727	24731.95
463.932	25669.92
464.138	26310.94
464.343	27615.49
464.549	27351.31
464.754	29753.57
464.959	30374.11
465.165	30707.93
465.37	30734.55
465.575	30859.48
465.781	32850.1
465.986	33974.44
466.191	33134.77
466.397	33585.32
466.602	32817.33
466.807	34754.71
467.012	35145.87
467.218	35756.17
467.423	35731.59
467.628	36786.3
467.833	38510.69
468.038	37773.42
468.244	37154.93
468.449	39032.92
468.654	38187.11
468.859	38420.58
469.064	38479.97
469.269	37298.29
469.474	37998.69
469.679	38600.8
469.885	37404.78
470.09	38469.73
470.295	38422.62
470.5	37527.66
470.705	37875.82
470.91	36939.89
471.115	36724.86
471.32	36741.24
471.525	36573.31
471.73	35592.33
471.935	35774.6
472.139	34146.47
472.344	34080.93
472.549	34115.75
472.754	33165.49
472.959	32731.32
473.164	31242.45
473.369	30755.03
473.574	31703.24
473.778	31269.07
473.983	30433.5
474.188	30318.81
474.393	28514.55
474.598	28471.54
474.802	27971.84
475.007	27658.5
475.212	27197.71
475.417	26306.84
475.621	26063.13
475.826	25837.86
476.031	25209.13
476.235	24547.64
476.44	24983.85
476.645	24086.84
476.849	23937.34
477.054	23454.02
477.259	22542.67
477.463	23089.48
477.668	22012.25
477.872	22038.87
478.077	21870.94
478.282	20775.28
478.486	20701.55
478.691	20599.15
478.895	20371.83
479.1	20212.09
479.304	20189.56
479.509	19548.54
479.713	19681.66
479.918	19206.53
480.122	19065.22
480.326	19011.98
480.531	18948.49
480.735	18616.72
480.94	18213.27
481.144	18846.09
481.348	17922.46
481.553	18278.8
481.757	18010.52
481.961	17828.25
482.166	17971.61
482.37	17754.52
482.574	17297.83
482.778	17514.91
482.983	17281.44
483.187	16884.14
483.391	17115.56
483.595	16824.75
483.8	16619.95
484.004	16316.85
484.208	16570.8
484.412	16296.37
484.616	16112.05
484.821	16030.13
485.025	15583.68
485.229	15782.33
485.433	15385.02
485.637	15188.42
485.841	14649.8
486.045	14608.84
486.249	14524.88
486.453	14281.17
486.657	14412.24
486.861	13916.63
487.065	13580.76
487.269	13511.13
487.473	12988.9
487.677	13246.94
487.881	12904.93
488.085	12687.85
488.289	12691.94
488.493	12347.89
488.697	12120.56
488.901	11891.19
489.105	11399.68
489.309	11536.89
489.512	11244.03
489.716	11022.85
489.92	10834.44
490.124	10603.02
490.328	10738.18
490.531	10369.55
490.735	10213.9
490.939	10013.2
491.143	9679.38
491.346	9419.29
491.55	9632.28
491.754	9368.09
491.958	9267.74
492.161	9108
492.365	8800.8
492.569	8405.55
492.772	8477.23
492.976	8655.4
493.18	8440.36
493.383	8385.07
493.587	8288.81
493.79	8104.49
493.994	7926.32
494.197	7885.36
494.401	7871.03
494.605	7680.57
494.808	7711.28
495.012	7582.26
495.215	7711.28
495.419	7553.59
495.622	7354.94
495.825	7363.13
496.029	7578.17
496.232	7549.5
496.436	7184.96
496.639	7510.58
496.843	7285.31
497.046	7363.13
497.249	7303.74
497.453	7301.69
497.656	7363.13
497.859	7205.44
498.063	7248.44
498.266	7416.38
498.469	7234.11
498.673	7320.12
498.876	7365.18
499.079	7477.82
499.282	7430.71
499.485	7610.93
499.689	7436.86
499.892	7559.74
500.095	7494.2
500.298	7828.02
500.501	7526.97
500.705	7760.44
500.908	7772.72
501.111	7764.53
501.314	8063.54
501.517	7973.42
501.72	8149.55
501.923	8127.02
502.126	8129.07
502.329	8346.16
502.532	8370.73
502.735	8436.27
502.938	8428.07
503.141	8692.26
503.344	8722.98
503.547	8792.61
503.75	8856.1
503.953	9091.62
504.156	9280.03
504.359	9271.84
504.562	9347.61
504.765	9490.97
504.968	9640.47
505.17	10009.11
505.373	9888.28
505.576	10183.18
505.779	10226.19
505.982	10369.55
506.185	10773
506.387	10695.18
506.59	10922.5
506.793	11194.88
506.996	11233.79
507.198	11844.09
507.401	11887.09
507.604	12016.12
507.807	12458.48
508.009	12417.52
508.212	12700.14
508.415	13013.48
508.617	13214.18
508.82	13650.39
509.022	13803.99
509.225	13955.54
509.428	14277.07
509.63	14637.52
509.833	14698.95
510.035	15454.65
510.238	15391.17
510.44	15741.37
510.643	16462.26
510.845	16775.59
511.048	16665
511.25	17187.24
511.453	17586.59
511.655	18352.53
511.858	18416.02
512.06	18958.73
512.262	19292.55
512.465	19396.99
512.667	20136.31
512.87	20519.28
513.072	20887.92
513.274	21629.28
513.477	21981.53
513.679	22657.36
513.881	23155.02
514.084	23652.67
514.286	23609.67
514.488	24103.23
514.69	25338.15
514.893	25391.4
515.095	25862.43
515.297	26872.08
515.499	27429.13
515.701	27871.49
515.904	28440.82
516.106	29047.02
516.308	29759.72
516.51	30281.95
516.712	30550.23
516.914	31256.78
517.116	32057.54
517.318	32534.71
517.52	33282.22
517.722	33423.53
517.925	34150.56
518.127	34812.06
518.329	35156.11
518.531	35553.42
518.733	36618.36
518.935	36991.09
519.136	37871.72
519.338	38228.07
519.54	38781.02
519.742	39508.05
519.944	39690.32
520.146	40656.96
520.348	41429.04
520.55	41590.83
520.752	42332.2
520.954	43014.17
521.155	42893.34
521.357	43882.51
521.559	44001.29
521.761	44974.08
521.963	44867.58
522.164	45252.6
522.366	45838.32
522.568	46632.93
522.77	46858.21
522.971	47185.88
523.173	46800.86
523.375	47636.44
523.576	47802.32
523.778	48064.46
523.98	48400.33
524.181	49151.93
524.383	48830.4
524.584	48940.99
524.786	48932.8
524.988	48685
525.189	49399.74
525.391	49190.84
525.592	49528.76
525.794	49471.42
525.995	49651.64
526.197	49354.68
526.398	49373.11
526.6	49751.99
526.801	49287.1
527.003	49078.21
527.204	48963.52
527.406	48951.23
527.607	48521.16
527.808	48633.8
528.01	47556.57
528.211	47837.14
528.412	48439.24
528.614	47704.02
528.815	47241.18
529.016	47384.54
529.218	46764
529.419	46608.36
529.62	45883.37
529.822	45158.39
530.023	44972.03
530.224	44900.35
530.425	44285.96
530.626	43597.84
530.828	43057.18
531.029	43720.72
531.23	42469.41
531.431	42123.3
531.632	41807.92
531.833	41363.51
532.035	40890.43
532.236	40398.91
532.437	40013.9
532.638	39112.79
532.839	38948.95
533.04	38645.85
533.241	37675.12
533.442	37578.86
533.643	37277.81
533.844	36774.01
534.045	36120.71
534.246	35575.95
534.447	35133.59
534.648	34377.89
534.849	34439.33
535.05	33497.26
535.251	33587.37
535.451	32864.44
535.652	32778.42
535.853	31776.97
536.054	32000.19
536.255	31324.36
536.456	30935.25
536.657	30925.01
536.857	29880.55
537.058	29548.78
537.259	29567.21
537.46	29194.48
537.66	28623.09
537.861	28014.85
538.062	27678.98
538.263	27537.67
538.463	27220.24
538.664	26519.83
538.865	26511.64
539.065	26247.45
539.266	25585.96
539.466	25702.69
539.667	24967.47
539.868	25352.49
540.068	24627.51
540.269	24514.87
540.469	24219.96
540.67	23830.85
540.87	23556.42
541.071	22890.83
541.271	22933.84
541.472	22751.57
541.672	22374.74
541.873	22331.73
542.073	21416.29
542.274	21776.73
542.474	21496.16
542.675	21164.39
542.875	20912.49
543.075	20679.02
543.276	20197.75
543.476	20709.74
543.676	19827.07
543.877	19976.57
544.077	19743.1
544.277	19253.64
544.478	18893.19
544.678	18934.15
544.878	18887.05
545.078	18442.64
545.279	18268.56
545.479	17998.23
545.679	17973.66
545.879	17736.09
546.079	17267.11
546.28	17021.35
546.48	17115.56
546.68	17113.51
546.88	16585.13
547.08	16589.23
547.28	16169.4
547.48	16058.81
547.68	16042.42
547.88	15692.22
548.081	15446.46
548.281	15169.99
548.481	15020.49
548.681	15260.1
548.881	14838.22
549.081	14539.21
549.28	14225.87
549.48	14182.87
549.68	13996.5
549.88	13976.02
550.08	13517.28
550.28	13439.45
550.48	13193.7
550.68	13279.71
550.88	12614.12
551.08	12540.4
551.279	12710.38
551.479	12503.53
551.679	12317.17
551.879	11962.87
552.079	11942.39
552.278	11735.54
552.478	11471.36
552.678	11553.27
552.878	11352.57
553.077	10998.27
553.277	10770.95
553.477	10713.61
553.676	10463.75
553.876	10263.05
554.076	10095.12
554.275	9804.31
554.475	9714.2
554.674	9738.77
554.874	9480.73
555.074	9224.73
555.273	9101.86
555.473	9263.65
555.672	8806.95
555.872	8782.37
556.071	8682.02
556.271	8849.96
556.47	8473.13
556.67	8114.73
556.869	8104.49
557.068	8059.44
557.268	7922.23
557.467	7883.31
557.667	7645.75
557.866	7430.71
558.065	7367.23
558.265	7326.27
558.464	7152.19
558.663	7166.53
558.863	6761.03
559.062	6836.8
559.261	6664.77
559.461	6814.27
559.66	6462.02
559.859	6289.99
560.058	6238.8
560.258	5921.36
560.457	5968.46
560.656	5990.99
560.855	5722.71
561.054	5962.32
561.253	5827.15
561.453	5708.37
561.652	5597.78
561.851	5626.45
562.05	5331.55
562.249	5188.19
562.448	5212.76
562.647	5085.79
562.846	4979.29
563.045	5087.84
563.244	4819.55
563.443	5020.25
563.642	4727.39
563.841	4702.82
564.04	4745.83
564.239	4586.08
564.438	4393.58
564.637	4260.46
564.836	4340.33
565.035	4258.41
565.234	4258.41
565.432	4231.79
565.631	4141.68
565.83	3969.65
566.029	3930.73
566.228	3863.15
566.427	3986.03
566.625	3748.47
566.824	3748.47
567.023	3689.07
567.222	3709.55
567.42	3590.77
567.619	3650.16
567.818	3476.09
568.016	3582.58
568.215	3519.09
568.414	3467.89
568.612	3308.15
568.811	3195.51
569.01	3213.95
569.208	3086.97
569.407	3152.51
569.605	3076.73
569.804	3029.63
570.002	2931.33
570.201	2873.98
570.4	2910.85
570.598	2841.22
570.797	2869.89
570.995	2658.95
571.193	2718.34
571.392	2642.56
571.59	2497.16
571.789	2562.69
571.987	2448.01
572.186	2640.51
572.384	2427.53
572.582	2359.94
572.781	2505.35
572.979	2308.74
573.177	2419.33
573.376	2370.18
573.574	2280.07
573.772	2335.37
573.971	2161.29
574.169	2153.1
574.367	2159.24
574.565	2103.95
574.763	1999.5
574.962	2128.52
575.16	2046.6
575.358	1899.15
575.556	1868.43
575.754	1899.15
575.952	1835.66
576.151	1864.33
576.349	1790.61
576.547	1733.26
576.745	1899.15
576.943	1798.8
577.141	1604.24
577.339	1694.35
577.537	1718.93
577.735	1690.26
577.933	1614.48
578.131	1587.86
578.329	1659.54
578.527	1471.12
578.725	1628.82
578.923	1358.49
579.121	1505.94
579.319	1340.05
579.516	1309.33
579.714	1424.02
579.912	1387.16
580.11	1301.14
580.308	1342.1
580.506	1319.57
580.704	1268.38
580.901	1225.37
581.099	1419.93
581.297	1243.8
581.495	1243.8
581.692	1243.8
581.89	1333.91
582.088	1135.26
582.285	1190.55
582.483	1112.73
582.681	1088.15
582.878	1079.96
583.076	1061.53
583.274	1047.19
583.471	1282.71
583.669	1084.06
583.866	930.46
584.064	952.99
584.262	907.93
584.459	957.08
584.657	1036.95
584.854	936.6
585.052	897.69
585.249	1028.76
585.447	907.93
585.644	801.44
585.841	948.89
586.039	891.55
586.236	965.28
586.434	801.44
586.631	815.77
586.828	793.25
587.026	877.21
587.223	662.18
587.42	742.05
587.618	811.68
587.815	817.82
588.012	821.92
588.21	686.75
588.407	823.97
588.604	791.2
588.801	602.79
588.999	699.04
589.196	776.86
589.393	694.94
589.59	699.04
589.787	791.2
589.984	664.22
590.182	791.2
590.379	594.59
590.576	660.13
590.773	633.51
590.97	715.42
591.167	639.65
591.364	711.33
591.561	602.79
591.758	793.25
591.955	731.81
592.152	653.98
592.349	647.84
592.546	602.79
592.743	719.52
592.94	699.04
593.137	610.98
593.334	760.48
593.531	668.32
593.727	764.58
593.924	694.94
594.121	678.56
594.318	678.56
594.515	668.32
594.712	740
594.908	756.38
595.105	604.83
595.302	758.43
595.499	764.58
595.696	744.1
595.892	686.75
596.089	772.77
596.286	709.28
596.482	883.36
596.679	840.35
596.876	748.19
597.072	875.17
597.269	823.97
597.466	903.84
597.662	952.99
597.859	920.22
598.055	993.95
598.252	940.7
598.448	1020.57
598.645	1030.81
598.841	1039
599.038	1243.8
599.234	1194.65
599.431	1137.31
599.627	1129.11
599.824	1288.86
600.02	1272.47
600.217	1258.14
600.413	1415.83
600.609	1583.76
600.806	1790.61
601.002	1665.68
601.198	1561.23
601.395	1694.35
601.591	1809.04
601.787	1753.74
601.984	1981.07
602.18	2013.84
602.376	2087.56
602.572	2192.01
602.769	2347.65
602.965	2271.88
603.161	2423.43
603.357	2402.95
603.553	2710.15
603.75	2503.3
603.946	2740.86
604.142	2740.86
604.338	2919.04
604.534	2988.67
604.73	3115.64
604.926	3078.78
605.122	3349.11
605.318	3463.8
605.514	3558
605.71	3633.78
605.906	3699.31
606.102	3816.05
606.298	3934.83
606.494	4074.09
606.69	4094.57
606.886	4424.3
607.082	4330.09
607.278	4446.82
607.474	4512.36
607.67	4813.41
607.866	4745.83
608.062	5059.17
608.257	5282.39
608.453	5223
608.649	5628.5
608.845	5497.43
609.041	5771.86
609.236	5974.61
609.432	6093.39
609.628	6371.91
609.824	6369.87
610.019	6445.64
610.215	6769.22
610.411	6910.53
610.606	7252.54
610.802	7395.9
610.998	7567.93
611.193	7993.9
611.389	7760.44
611.584	8075.82
611.78	8172.08
611.976	8512.04
612.171	8935.97
612.367	8757.8
612.562	9105.95
612.758	9259.55
612.953	9558.55
613.149	9904.66
613.344	10095.12
613.539	10535.43
613.735	10762.76
613.93	11129.34
614.126	11139.58
614.321	11588.09
614.517	11604.47
614.712	12001.78
614.907	12263.92
615.103	12884.45
615.298	12833.25
615.493	13349.34
615.688	13466.08
615.884	14569.93
616.079	14531.02
616.274	14750.15
616.47	15049.16
616.665	15608.25
616.86	15829.43
617.055	16380.34
617.25	16478.64
617.445	17246.63
617.641	17127.85
617.836	18280.85
618.031	18207.12
618.226	19011.98
618.421	19454.34
618.616	19808.64
618.811	20099.45
619.006	20887.92
619.201	20838.76
619.396	21735.78
619.591	21772.64
619.786	22628.69
619.981	22434.13
620.176	23267.66
620.371	23589.19
620.566	24303.93
620.761	24987.95
620.956	25497.89
621.151	25547.04
621.346	26362.14
621.541	26851.6
621.735	27459.85
621.93	27656.45
622.125	28561.65
622.32	28508.41
622.515	29221.1
622.709	29941.99
622.904	30556.38
623.099	31015.12
623.294	31506.63
623.488	31514.83
623.683	32784.57
623.878	32592.06
624.072	33380.53
624.267	34027.68
624.462	34586.78
624.656	34705.56
624.851	35598.48
625.046	36190.34
625.24	36663.42
625.435	36767.87
625.629	37279.86
625.824	37898.34
626.018	38142.05
626.213	38672.48
626.407	39307.35
626.602	39166.04
626.796	40251.46
626.991	41007.16
627.185	40763.45
627.38	41001.02
627.574	41084.98
627.768	41154.61
627.963	41467.95
628.157	41615.41
628.352	41906.22
628.546	41461.81
628.74	42469.41
628.935	41830.44
629.129	41680.94
629.323	41289.78
629.517	41234.49
629.712	40806.46
629.906	40994.87
630.1	39985.22
630.294	40288.32
630.489	39462.99
630.683	39266.39
630.877	37937.26
631.071	37642.35
631.265	37498.99
631.459	36460.67
631.653	35754.12
631.848	34934.93
632.042	34408.61
632.236	33800.36
632.43	32569.53
632.624	31860.93
632.818	30808.28
633.012	29671.65
633.206	28586.23
633.4	27949.31
633.594	26755.35
633.788	26046.75
633.982	25211.18
634.176	24611.12
634.369	23062.86
634.563	22327.64
634.757	21436.77
634.951	21080.42
635.145	20363.64
635.339	19526.02
635.533	18723.21
635.726	17969.56
635.92	17125.8
636.114	16177.59
636.308	15456.7
636.501	14995.91
636.695	14651.85
636.889	13677.02
637.083	13257.18
637.276	12855.78
637.47	12169.71
637.664	11809.27
637.857	11362.81
638.051	10787.33
638.244	10584.59
638.438	10000.91
638.632	9665.05
638.825	9067.04
639.019	9040.42
639.212	8505.9
639.406	8313.39
639.599	7911.99
639.793	7559.74
639.986	7240.25
640.18	6974.02
640.373	6789.7
640.567	6345.29
640.76	6171.21
640.954	5888.59
641.147	5567.06
641.34	5466.71
641.534	5309.02
641.727	5247.58
641.92	4983.39
642.114	4610.66
642.307	4538.98
642.5	4430.44
642.694	4127.34
642.887	4057.71
643.08	3979.89
643.273	3803.76
643.467	3574.39
643.66	3385.98
643.853	3275.38
644.046	3283.58
644.239	3097.21
644.432	2867.84
644.626	2869.89
644.819	2806.4
645.012	2630.27
645.205	2583.17
645.398	2478.72
645.591	2388.61
645.784	2192.01
645.977	2208.39
646.17	2146.95
646.363	2011.79
646.556	1870.48
646.749	1788.56
646.942	1839.76
647.135	1786.51
647.328	1565.33
647.521	1587.86
647.714	1581.71
647.907	1409.69
648.099	1510.04
648.292	1542.8
648.485	1278.62
648.678	1333.91
648.871	1129.11
649.064	1186.46
649.256	1127.07
649.449	1061.53
649.642	1006.24
649.835	969.37
650.027	1045.15
650.22	1010.33
650.413	924.32
650.605	897.69
650.798	873.12
650.991	772.77
651.183	774.81
651.376	809.63
651.568	793.25
651.761	703.14
651.954	717.47
652.146	637.6
652.339	707.23
652.531	699.04
652.724	567.97
652.916	602.79
653.109	547.49
653.301	625.31
653.494	668.32
653.686	500.39
653.879	506.53
654.071	518.82
654.263	545.44
654.456	453.28
654.648	514.72
654.84	522.91
655.033	459.43
655.225	502.43
655.417	367.27
655.61	559.78
655.802	484
655.994	537.25
656.186	361.13
656.379	502.43
656.571	359.08
656.763	334.5
656.955	328.36
657.148	363.17
657.34	400.04
657.532	381.6
657.724	330.41
657.916	316.07
658.108	346.79
658.3	408.23
658.492	375.46
658.684	299.69
658.876	406.18
659.068	281.25
659.26	107.18
659.452	203.43
659.644	283.3
659.836	367.27
660.028	289.45
660.22	252.58
660.412	250.53
660.604	207.53
660.796	248.49
660.988	316.07
661.18	223.91
661.372	346.79
661.563	228.01
661.755	273.06
661.947	137.9
662.139	180.9
662.331	209.58
662.522	209.58
662.714	215.72
662.906	195.24
663.097	199.34
663.289	125.61
663.481	152.23
663.673	260.77
663.864	203.43
664.056	291.49
664.247	182.95
664.439	273.06
664.631	156.33
664.822	170.66
665.014	62.12
665.205	146.09
665.397	141.99
665.588	176.81
665.78	225.96
665.971	279.21
666.163	207.53
666.354	185
666.546	133.8
666.737	156.33
666.929	158.38
667.12	113.32
667.311	191.14
667.503	172.71
667.694	277.16
667.885	248.49
668.077	162.47
668.268	49.83
668.459	301.73
668.651	223.91
668.842	160.42
669.033	209.58
669.224	80.55
669.416	365.22
669.607	121.51
669.798	49.83
669.989	273.06
670.18	219.82
670.371	170.66
670.563	105.13
670.754	230.06
670.945	109.23
671.136	139.94
671.327	178.86
671.518	232.1
671.709	178.86
671.9	211.62
672.091	242.34
672.282	213.67
672.473	187.05
672.664	176.81
672.855	211.62
673.046	162.47
673.237	283.3
673.428	180.9
673.619	225.96
673.809	246.44
674	275.11
674.191	228.01
674.382	318.12
674.573	137.9
674.764	207.53
674.954	289.45
675.145	150.18
675.336	146.09
675.527	168.62
675.717	205.48
675.908	117.42
676.099	168.62
676.289	281.25
676.48	185
676.671	240.3
676.861	162.47
677.052	205.48
677.243	244.39
677.433	207.53
677.624	285.35
677.814	273.06
678.005	160.42
678.195	346.79
678.386	211.62
678.576	203.43
678.767	215.72
678.957	234.15
679.148	318.12
679.338	283.3
679.529	291.49
679.719	209.58
679.909	289.45
680.1	357.03
680.29	297.64
680.481	174.76
680.671	338.6
680.861	314.02
681.052	271.01
681.242	238.25
681.432	357.03
681.622	406.18
681.813	268.97
682.003	223.91
682.193	264.87
682.383	336.55
682.573	285.35
682.764	289.45
682.954	258.73
683.144	350.89
683.334	330.41
683.524	295.59
683.714	322.21
683.904	361.13
684.094	277.16
684.284	373.41
684.474	416.42
684.664	301.73
684.854	342.69
685.044	307.88
685.234	275.11
685.424	375.46
685.614	234.15
685.804	430.76
685.994	338.6
686.184	334.5
686.374	309.93
686.564	287.4
686.753	301.73
686.943	297.64
687.133	285.35
687.323	309.93
687.513	309.93
687.702	350.89
687.892	309.93
688.082	332.45
688.272	393.89
688.461	367.27
688.651	416.42
688.841	383.65
689.03	283.3
689.22	367.27
689.41	379.56
689.599	391.84
689.789	219.82
689.979	397.99
690.168	297.64
690.358	395.94
690.547	291.49
690.737	336.55
690.926	316.07
691.116	354.98
691.305	432.8
691.495	297.64
691.684	281.25
691.874	305.83
692.063	324.26
692.252	363.17
692.442	400.04
692.631	350.89
692.82	350.89
693.01	361.13
693.199	371.37
693.388	328.36
693.578	281.25
693.767	443.04
693.956	391.84
694.146	275.11
694.335	332.45
694.524	342.69
694.713	311.97
694.902	303.78
695.092	357.03
695.281	311.97
695.47	316.07
695.659	309.93
695.848	277.16
696.037	301.73
696.226	318.12
696.415	350.89
696.604	383.65
696.793	307.88
696.982	268.97
697.171	400.04
697.36	236.2
697.549	277.16
697.738	232.1
697.927	330.41
698.116	268.97
698.305	295.59
698.494	334.5
698.683	250.53
698.872	400.04
699.061	314.02
699.25	281.25
699.438	221.86
699.627	223.91
699.816	400.04
700.005	326.31
700.193	221.86
700.382	342.69
700.571	301.73
700.76	281.25
700.948	348.84
701.137	303.78
701.326	332.45
701.514	314.02
701.703	285.35
701.892	346.79
702.08	408.23
702.269	289.45
702.457	281.25
702.646	318.12
702.834	354.98
703.023	318.12
703.212	346.79
703.4	234.15
703.589	268.97
703.777	236.2
703.965	250.53
704.154	242.34
704.342	215.72
704.531	330.41
704.719	271.01
704.907	354.98
705.096	307.88
705.284	127.66
705.472	383.65
705.661	285.35
705.849	334.5
706.037	412.32
706.226	334.5
706.414	322.21
706.602	256.68
706.79	365.22
706.979	283.3
707.167	359.08
707.355	195.24
707.543	397.99
707.731	301.73
707.919	230.06
708.107	363.17
708.296	268.97
708.484	168.62
708.672	297.64
708.86	348.84
709.048	326.31
709.236	283.3
709.424	250.53
709.612	246.44
709.8	291.49
709.988	334.5
710.176	383.65
710.364	303.78
710.551	260.77
710.739	295.59
710.927	346.79
711.115	330.41
711.303	338.6
711.491	293.54
711.679	291.49
711.866	287.4
712.054	238.25
712.242	316.07
712.43	397.99
712.617	287.4
712.805	338.6
712.993	277.16
713.181	185
713.368	400.04
713.556	309.93
713.744	248.49
713.931	430.76
714.119	383.65
714.306	330.41
714.494	277.16
714.682	307.88
714.869	260.77
715.057	252.58
715.244	211.62
715.432	314.02
715.619	328.36
715.807	375.46
715.994	340.65
716.182	248.49
716.369	354.98
716.556	445.09
716.744	252.58
716.931	244.39
717.119	324.26
717.306	277.16
717.493	381.6
717.681	334.5
717.868	309.93
718.055	379.56
718.242	346.79
718.43	309.93
718.617	367.27
718.804	289.45
718.991	436.9
719.179	352.93
719.366	307.88
719.553	389.8
719.74	330.41
719.927	271.01
720.114	391.84
720.301	295.59
720.488	236.2
720.676	258.73
720.863	391.84
721.05	438.95
721.237	381.6
721.424	371.37
721.611	354.98
721.798	260.77
721.985	350.89
722.172	383.65
722.358	391.84
722.545	363.17
722.732	373.41
722.919	412.32
723.106	350.89
723.293	293.54
723.48	340.65
723.667	285.35
723.853	422.56
724.04	416.42
724.227	322.21
724.414	383.65
724.6	438.95
724.787	445.09
724.974	529.06
725.161	373.41
725.347	332.45
725.534	350.89
725.72	397.99
725.907	477.86
726.094	465.57
726.28	309.93
726.467	459.43
726.653	342.69
726.84	465.57
727.027	481.96
727.213	369.32
727.4	332.45
727.586	346.79
727.773	438.95
727.959	414.37
728.145	432.8
728.332	432.8
728.518	348.84
728.705	416.42
728.891	322.21
729.077	393.89
729.264	318.12
729.45	420.52
729.636	465.57
729.823	404.13
730.009	441
730.195	336.55
730.382	428.71
730.568	322.21
730.754	338.6
730.94	397.99
731.126	369.32
731.313	498.34
731.499	326.31
731.685	457.38
731.871	422.56
732.057	420.52
732.243	486.05
732.429	389.8
732.615	504.48
732.801	408.23
732.987	371.37
733.173	438.95
733.359	385.7
733.545	438.95
733.731	404.13
733.917	461.48
734.103	481.96
734.289	506.53
734.475	379.56
734.661	572.07
734.847	479.91
735.033	393.89
735.219	463.52
735.404	361.13
735.59	404.13
735.776	318.12
735.962	408.23
736.148	479.91
736.333	551.59
736.519	441
736.705	479.91
736.89	424.61
737.076	424.61
737.262	367.27
737.447	285.35
737.633	451.24
737.819	441
738.004	404.13
738.19	443.04
738.375	367.27
738.561	479.91
738.747	418.47
738.932	424.61
739.118	514.72
739.303	469.67
739.489	424.61
739.674	412.32
739.859	359.08
740.045	494.24
740.23	490.15
740.416	350.89
740.601	434.85
740.786	379.56
740.972	348.84
741.157	363.17
741.342	328.36
741.528	414.37
741.713	481.96
741.898	402.08
742.084	400.04
742.269	344.74
742.454	359.08
742.639	416.42
742.824	365.22
743.01	461.48
743.195	498.34
743.38	443.04
743.565	295.59
743.75	445.09
743.935	434.85
744.12	586.4
744.305	311.97
744.49	303.78
744.675	389.8
744.86	346.79
745.045	443.04
745.23	447.14
745.415	367.27
745.6	496.29
745.785	373.41
745.97	424.61
746.155	455.33
746.34	524.96
746.525	424.61
746.71	469.67
746.895	342.69
747.079	371.37
747.264	340.65
747.449	506.53
747.634	381.6
747.819	404.13
748.003	348.84
748.188	357.03
748.373	481.96
748.557	453.28
748.742	244.39
748.927	400.04
749.111	363.17
749.296	330.41
749.481	459.43
749.665	408.23
749.85	301.73
750.034	422.56
750.219	316.07
750.404	379.56
750.588	297.64
750.773	297.64
750.957	367.27
751.141	336.55
751.326	365.22
751.51	230.06
751.695	320.17
751.879	342.69
752.064	395.94
752.248	340.65
752.432	445.09
752.617	346.79
752.801	361.13
752.985	242.34
753.17	414.37
753.354	295.59
753.538	316.07
753.722	254.63
753.907	295.59
754.091	195.24
754.275	379.56
754.459	240.3
754.643	234.15
754.828	371.37
755.012	346.79
755.196	191.14
755.38	303.78
755.564	219.82
755.748	285.35
755.932	301.73
756.116	285.35
756.3	260.77
756.484	299.69
756.668	314.02
756.852	86.7
757.036	250.53
757.22	271.01
757.404	203.43
757.588	195.24
757.772	248.49
757.956	256.68
758.14	400.04
758.323	264.87
758.507	316.07
758.691	236.2
758.875	252.58
759.059	318.12
759.242	318.12
759.426	287.4
759.61	273.06
759.794	230.06
759.977	297.64
760.161	354.98
760.345	350.89
760.528	332.45
760.712	244.39
760.895	256.68
761.079	271.01
761.263	135.85
761.446	166.57
761.63	211.62
761.813	287.4
761.997	158.38
762.18	228.01
762.364	168.62
762.547	148.14
762.731	201.38
762.914	180.9
763.098	88.75
763.281	92.84
763.464	228.01
763.648	144.04
763.831	176.81
764.015	160.42
764.198	133.8
764.381	215.72
764.564	242.34
764.748	291.49
764.931	148.14
765.114	154.28
765.297	195.24
765.481	203.43
765.664	195.24
765.847	84.65
766.03	275.11
766.213	109.23
766.397	217.77
766.58	137.9
766.763	244.39
766.946	127.66
767.129	152.23
767.312	127.66
767.495	199.34
767.678	187.05
767.861	228.01
768.044	158.38
768.227	162.47
768.41	170.66
768.593	166.57
768.776	197.29
768.959	203.43
769.142	262.82
769.324	148.14
769.507	141.99
769.69	129.7
769.873	170.66
770.056	332.45
770.239	119.46
770.421	225.96
770.604	203.43
770.787	178.86
770.97	240.3
771.152	76.46
771.335	209.58
771.518	96.94
771.7	164.52
771.883	264.87
772.066	125.61
772.248	105.13
772.431	180.9
772.613	168.62
772.796	117.42
772.978	98.99
773.161	174.76
773.343	98.99
773.526	55.98
773.708	103.08
773.891	60.07
774.073	152.23
774.256	55.98
774.438	258.73
774.621	105.13
774.803	35.5
774.985	166.57
775.168	162.47
775.35	84.65
775.532	125.61
775.715	29.35
775.897	141.99
776.079	64.17
776.261	119.46
776.444	107.18
776.626	101.03
776.808	172.71
776.99	8.87
777.173	131.75
777.355	152.23
777.537	103.08
777.719	146.09
777.901	119.46
778.083	43.69
778.265	-7.51
778.447	180.9
778.629	80.55
778.811	72.36
778.993	221.86
779.175	240.3
779.357	129.7
779.539	19.11
779.721	141.99
779.903	185
780.085	78.51
780.267	121.51
780.449	55.98
780.631	117.42
780.812	164.52
780.994	64.17
781.176	60.07
781.358	33.45
781.54	76.46
781.721	168.62
781.903	111.27
782.085	74.41
782.267	178.86
782.448	-58.71
782.63	21.16
782.812	37.55
782.993	96.94
783.175	86.7
783.357	45.74
783.538	156.33
783.72	62.12
783.901	55.98
784.083	29.35
784.264	80.55
784.446	-30.04
784.627	17.07
784.809	105.13
784.99	80.55
785.172	49.83
785.353	84.65
785.535	31.4
785.716	92.84
785.897	6.83
786.079	107.18
786.26	158.38
786.441	76.46
786.623	-5.46
786.804	66.22
786.985	55.98
787.167	53.93
787.348	80.55
787.529	53.93
787.71	166.57
787.891	125.61
788.073	31.4
788.254	-17.75
788.435	170.66
788.616	88.75
788.797	51.88
788.978	15.02
789.159	47.79
789.34	133.8
789.522	101.03
789.703	15.02
789.884	72.36
790.065	37.55
790.246	185
790.427	-9.56
790.607	90.79
790.788	129.7
790.969	2.73
791.15	-34.13
791.331	23.21
791.512	10.92
791.693	21.16
791.874	111.27
792.054	234.15
792.235	88.75
792.416	53.93
792.597	39.59
792.778	125.61
792.958	101.03
793.139	88.75
793.32	64.17
793.5	-17.75
793.681	205.48
793.862	148.14
794.042	23.21
794.223	-46.42
794.404	-3.41
794.584	-38.23
794.765	-5.46
794.945	68.27
795.126	109.23
795.306	96.94
795.487	33.45
795.667	-36.18
795.848	78.51
796.028	39.59
796.209	88.75
796.389	76.46
796.57	6.83
796.75	29.35
796.93	-62.8
797.111	-3.41
797.291	80.55
797.471	86.7
797.652	84.65
797.832	-30.04
798.012	146.09
798.192	19.11
798.373	-50.52
798.553	31.4
798.733	121.51
798.913	-7.51
799.093	-97.62
799.274	62.12
799.454	70.31
799.634	119.46
799.814	111.27
799.994	113.32
800.174	19.11
800.354	-17.75
800.534	-46.42
800.714	101.03
800.894	-21.84
801.074	47.79
801.254	-5.46
801.434	158.38
801.614	43.69
801.794	-50.52
801.974	1475.22
802.154	-34.13
802.334	131.75
802.514	-36.18
802.693	64.17
802.873	53.93
803.053	80.55
803.233	23.21
803.413	27.31
803.592	-3.41
803.772	-38.23
803.952	76.46
804.131	-7.51
804.311	127.66
804.491	84.65
804.67	-95.57
804.85	23.21
805.03	64.17
805.209	55.98
805.389	127.66
805.568	6.83
805.748	43.69
805.928	60.07
806.107	68.27
806.287	72.36
806.466	23.21
806.646	-1.37
806.825	-17.75
807.004	72.36
807.184	-17.75
807.363	88.75
807.543	64.17
807.722	-36.18
807.901	115.37
808.081	160.42
808.26	-23.89
808.439	88.75
808.619	31.4
808.798	64.17
808.977	23.21
809.156	21.16
809.336	-23.89
809.515	70.31
809.694	4.78
809.873	60.07
810.052	94.89
810.231	6.83
810.411	21.16
810.59	68.27
810.769	39.59
810.948	84.65
811.127	-54.61
811.306	-19.8
811.485	23.21
811.664	156.33
811.843	25.26
812.022	-13.65
812.201	51.88
812.38	51.88
812.559	-7.51
812.737	154.28
812.916	-32.08
813.095	25.26
813.274	53.93
813.453	76.46
813.632	-9.56
813.811	92.84
813.989	-54.61
814.168	-77.14
814.347	-93.52
814.526	49.83
814.704	96.94
814.883	64.17
815.062	-40.28
815.24	76.46
815.419	-73.04
815.598	58.03
815.776	-46.42
815.955	-17.75
816.133	-75.09
816.312	21.16
816.49	-27.99
816.669	19.11
816.847	-62.8
817.026	21.16
817.204	-34.13
817.383	33.45
817.561	-30.04
817.74	43.69
817.918	17.07
818.097	4.78
818.275	-3.41
818.453	47.79
818.632	92.84
818.81	-36.18
818.988	-9.56
819.167	-27.99
819.345	37.55
819.523	-25.94
819.701	10.92
819.879	25.26
820.058	2.73
820.236	74.41
820.414	-34.13
820.592	41.64
820.77	-17.75
820.948	-1.37
821.127	-25.94
821.305	-9.56
821.483	-54.61
821.661	121.51
821.839	-36.18
822.017	-30.04
822.195	-23.89
822.373	55.98
822.551	-60.76
822.729	41.64
822.907	-62.8
823.085	45.74
823.262	19.11
823.44	4.78
823.618	-42.32
823.796	72.36
823.974	-3.41
824.152	-114
824.329	-5.46
824.507	-13.65
824.685	55.98
824.863	-25.94
825.04	66.22
825.218	86.7
825.396	10.92
825.574	-27.99
825.751	105.13
825.929	51.88
826.107	-52.56
826.284	-1.37
826.462	51.88
826.639	-40.28
826.817	-50.52
826.994	-17.75
827.172	-58.71
827.349	94.89
827.527	10.92
827.704	60.07
827.882	109.23
828.059	70.31
828.237	-44.37
828.414	72.36
828.591	0.68
828.769	15.02
828.946	47.79
829.124	60.07
829.301	72.36
829.478	41.64
829.655	135.85
829.833	53.93
830.01	-91.48
830.187	68.27
830.364	41.64
830.542	15.02
830.719	117.42
830.896	53.93
831.073	-13.65
831.25	82.6
831.427	70.31
831.604	-21.84
831.782	74.41
831.959	-17.75
832.136	21.16
832.313	58.03
832.49	68.27
832.667	80.55
832.844	-66.9
833.021	41.64
833.198	-25.94
833.374	0.68
833.551	27.31
833.728	27.31
833.905	117.42
834.082	-87.38
834.259	-34.13
834.436	64.17
834.612	-75.09
834.789	39.59
834.966	72.36
835.143	51.88
835.319	-87.38
835.496	43.69
835.673	8.87
835.85	113.32
836.026	80.55
836.203	17.07
836.38	23.21
836.556	-1.37
836.733	-30.04
836.909	154.28
837.086	-27.99
837.262	-66.9
837.439	-11.61
837.616	-44.37
837.792	45.74
837.968	84.65
838.145	-107.86
838.321	-38.23
838.498	-9.56
838.674	31.4
838.851	-36.18
839.027	-21.84
839.203	19.11
839.38	58.03
839.556	-1.37
839.732	105.13
839.909	4.78
840.085	-19.8
840.261	-75.09
840.437	-34.13
840.614	29.35
840.79	-36.18
840.966	33.45
841.142	-52.56
841.318	53.93
841.494	19.11
841.671	70.31
841.847	-54.61
842.023	-11.61
842.199	107.18
842.375	68.27
842.551	-66.9
842.727	-60.76
842.903	113.32
843.079	-27.99
843.255	62.12
843.431	31.4
843.607	84.65
843.783	-58.71
843.959	31.4
844.134	-23.89
844.31	150.18
844.486	31.4
844.662	-87.38
844.838	45.74
845.013	72.36
845.189	45.74
845.365	68.27
845.541	-23.89
845.716	47.79
845.892	115.37
846.068	-5.46
846.244	4.78
846.419	-7.51
846.595	-9.56
846.77	-87.38
846.946	2.73
847.122	-13.65
847.297	-15.7
847.473	125.61
847.648	-38.23
847.824	62.12
847.999	-128.34
848.175	-3.41
848.35	29.35
848.526	92.84
848.701	43.69
848.876	94.89
849.052	94.89
849.227	31.4
849.403	-56.66
849.578	6.83
849.753	15.02
849.929	-17.75
850.104	-73.04
850.279	68.27
850.454	6.83
850.63	86.7
850.805	-46.42
850.98	-13.65
851.155	-9.56
851.33	25.26
851.505	-60.76
851.681	119.46
851.856	-17.75
852.031	55.98
852.206	66.22
852.381	-93.52
852.556	-9.56
852.731	29.35
852.906	96.94
853.081	-62.8
853.256	88.75
853.431	-3.41
853.606	10.92
853.781	-40.28
853.956	-46.42
854.131	12.97
854.305	2.73
854.48	10.92
854.655	-34.13
854.83	-50.52
855.005	4.78
855.18	-23.89
855.354	-17.75
855.529	-44.37
855.704	23.21
855.879	101.03
856.053	8.87
856.228	47.79
856.403	-79.19
856.577	12.97
856.752	-52.56
856.926	17.07
857.101	70.31
857.276	-19.8
857.45	27.31
857.625	92.84
857.799	-52.56
857.974	8.87
858.148	-101.72
858.323	37.55
858.497	43.69
858.672	-1.37
858.846	-42.32
859.02	39.59
859.195	-25.94
859.369	-77.14
859.543	78.51
859.718	-83.28
859.892	39.59
860.066	-38.23
860.241	-126.29
860.415	2.73
860.589	6.83
860.763	37.55
860.938	-19.8
861.112	0.68
861.286	-75.09
861.46	15.02
861.634	-64.85
861.808	103.08
861.982	-19.8
862.157	-17.75
862.331	-64.85
862.505	-44.37
862.679	-79.19
862.853	10.92
863.027	-25.94
863.201	164.52
863.375	-11.61
863.549	15.02
863.722	23.21
863.896	96.94
864.07	-15.7
864.244	-25.94
864.418	-36.18
864.592	80.55
864.766	-25.94
864.939	-13.65
865.113	2.73
865.287	55.98
865.461	-68.95
865.634	-21.84
865.808	39.59
865.982	-38.23
866.156	-71
866.329	-42.32
866.503	90.79
866.676	62.12
866.85	-13.65
867.024	27.31
867.197	-13.65
867.371	111.27
867.544	27.31
867.718	-116.05
867.891	47.79
868.065	-91.48
868.238	10.92
868.412	2.73
868.585	55.98
868.759	-66.9
868.932	-23.89
869.105	-83.28
869.279	60.07
869.452	-107.86
869.625	70.31
869.799	-7.51
869.972	-38.23
870.145	-32.08
870.319	27.31
870.492	-73.04
870.665	-42.32
870.838	-30.04
871.011	-93.52
871.185	-71
871.358	-7.51
871.531	60.07
871.704	-42.32
871.877	8.87
872.05	-75.09
872.223	-5.46
872.396	90.79
872.569	-25.94
872.742	-64.85
872.915	31.4
873.088	-44.37
873.261	8.87
873.434	29.35
873.607	-83.28
873.78	27.31
873.953	-66.9
874.126	37.55
874.299	64.17
874.471	-17.75
874.644	-48.47
874.817	45.74
874.99	39.59
875.163	-3.41
875.335	88.75
875.508	-5.46
875.681	133.8
875.853	-62.8
876.026	27.31
876.199	47.79
876.371	15.02
876.544	-5.46
876.717	47.79
876.889	2.73
877.062	62.12
877.234	-97.62
877.407	-15.7
877.579	35.5
877.752	55.98
877.924	94.89
878.097	23.21
878.269	-87.38
878.442	-58.71
878.614	12.97
878.786	-46.42
878.959	19.11
879.131	-19.8
879.303	-116.05
879.476	29.35
879.648	-21.84
879.82	-56.66
879.993	-36.18
880.165	43.69
880.337	-77.14
880.509	35.5
880.681	-75.09
880.854	-44.37
881.026	-38.23
881.198	176.81
881.37	0.68
881.542	-9.56
881.714	-11.61
881.886	10.92
882.058	-9.56
882.23	-25.94
882.402	-50.52
882.574	12.97
882.746	29.35
882.918	39.59
883.09	-17.75
883.262	-5.46
883.434	-9.56
883.606	-62.8
883.778	-38.23
883.95	90.79
884.122	-71
884.293	62.12
884.465	-9.56
884.637	92.84
884.809	-1.37
884.98	-19.8
885.152	66.22
885.324	-58.71
885.496	-38.23
885.667	-27.99
885.839	25.26
886.011	76.46
886.182	-21.84
886.354	66.22
886.525	-23.89
886.697	47.79
886.869	-11.61
887.04	-109.91
887.212	45.74
887.383	80.55
887.555	43.69
887.726	0.68
887.897	15.02
888.069	86.7
888.24	109.23
888.412	64.17
888.583	29.35
888.754	-71
888.926	-68.95
889.097	-25.94
889.268	-40.28
889.44	29.35
889.611	-62.8
889.782	-5.46
889.953	-99.67
890.125	-1.37
890.296	2.73
890.467	-21.84
890.638	-44.37
890.809	-11.61
890.98	-75.09
891.151	51.88
891.323	53.93
891.494	103.08
891.665	-38.23
891.836	-42.32
892.007	12.97
892.178	-7.51
892.349	37.55
892.52	-36.18
892.691	-48.47
892.862	-5.46
893.032	-91.48
893.203	-17.75
893.374	-25.94
893.545	119.46
893.716	-68.95
893.887	64.17
894.057	23.21
894.228	0.68
894.399	-46.42
894.57	78.51
894.74	25.26
894.911	21.16
895.082	41.64
895.253	6.83
895.423	72.36
895.594	23.21
895.764	62.12
895.935	-64.85
896.106	25.26
896.276	-77.14
896.447	47.79
896.617	21.16
896.788	-36.18
896.958	-36.18
897.129	2.73
897.299	-34.13
897.47	86.7
897.64	84.65
897.81	17.07
897.981	-23.89
898.151	-89.43
898.322	41.64
898.492	53.93
898.662	-3.41
898.832	-38.23
899.003	-23.89
899.173	66.22
899.343	-56.66
899.513	-25.94
