Data from USB4F104151__38__11-26-31-793.txt Node

Date: Wed Feb 26 11:26:31 EST 2025
User: louis
Spectrometer: USB4F10415
Trigger mode: 4
Integration Time (sec): 1.000000E-1
Scans to average: 1
Electric dark correction enabled: true
Nonlinearity correction enabled: false
Boxcar width: 0
XAxis mode: Wavelengths
Number of Pixels in Spectrum: 3648
>>>>>Begin Spectral Data<<<<<
178.204	-391.16
178.424	-391.16
178.644	-391.16
178.864	-403.45
179.084	-413.69
179.304	77.82
179.524	10.24
179.744	-22.53
179.964	75.77
180.184	34.82
180.404	-12.29
180.624	-55.3
180.844	24.58
181.064	-79.87
181.283	-8.19
181.503	-75.77
181.723	30.72
181.943	-96.25
182.163	159.74
182.383	-98.3
182.602	28.67
182.822	96.25
183.042	4.1
183.262	-61.44
183.482	-10.24
183.701	24.58
183.921	-61.44
184.141	-79.87
184.361	79.87
184.58	59.39
184.8	-20.48
185.02	0
185.239	34.82
185.459	45.06
185.679	106.49
185.898	-28.67
186.118	24.58
186.338	86.01
186.557	32.77
186.777	-86.01
186.997	-28.67
187.216	131.07
187.436	131.07
187.655	28.67
187.875	126.97
188.095	106.49
188.314	180.22
188.534	73.73
188.753	4.1
188.973	145.41
189.192	176.13
189.412	26.62
189.631	-26.62
189.851	30.72
190.07	61.44
190.29	-57.34
190.509	-53.25
190.729	32.77
190.948	155.65
191.168	272.38
191.387	110.59
191.607	-71.68
191.826	92.16
192.045	-2.05
192.265	4.1
192.484	102.4
192.704	-2.05
192.923	-6.14
193.142	90.11
193.362	49.15
193.581	106.49
193.8	63.49
194.02	92.16
194.239	-40.96
194.458	94.21
194.678	45.06
194.897	-36.86
195.116	100.35
195.335	45.06
195.555	-45.06
195.774	10.24
195.993	104.45
196.212	16.38
196.432	-55.3
196.651	49.15
196.87	-28.67
197.089	114.69
197.308	-63.49
197.528	22.53
197.747	-83.97
197.966	-4.1
198.185	159.74
198.404	-90.11
198.623	135.17
198.842	153.6
199.062	45.06
199.281	112.64
199.5	-12.29
199.719	63.49
199.938	118.78
200.157	116.73
200.376	12.29
200.595	102.4
200.814	51.2
201.033	30.72
201.252	151.55
201.471	26.62
201.69	118.78
201.909	40.96
202.128	96.25
202.347	-12.29
202.566	73.73
202.785	-77.82
203.004	10.24
203.223	239.61
203.442	24.58
203.661	-57.34
203.879	88.06
204.098	90.11
204.317	-26.62
204.536	104.45
204.755	118.78
204.974	118.78
205.193	-10.24
205.411	98.3
205.63	40.96
205.849	92.16
206.068	81.92
206.287	-71.68
206.505	157.69
206.724	47.1
206.943	-40.96
207.162	0
207.381	69.63
207.599	-16.38
207.818	45.06
208.037	-22.53
208.255	6.14
208.474	38.91
208.693	137.21
208.911	-2.05
209.13	2.05
209.349	90.11
209.567	104.45
209.786	118.78
210.005	63.49
210.223	79.87
210.442	-102.4
210.661	38.91
210.879	106.49
211.098	-24.58
211.316	61.44
211.535	71.68
211.753	67.58
211.972	30.72
212.191	18.43
212.409	79.87
212.628	53.25
212.846	-53.25
213.065	18.43
213.283	75.77
213.502	24.58
213.72	67.58
213.938	0
214.157	20.48
214.375	96.25
214.594	-71.68
214.812	59.39
215.031	-12.29
215.249	-24.58
215.467	16.38
215.686	59.39
215.904	24.58
216.122	-20.48
216.341	22.53
216.559	-14.34
216.778	75.77
216.996	147.45
217.214	-16.38
217.432	-28.67
217.651	-75.77
217.869	67.58
218.087	45.06
218.306	55.3
218.524	14.34
218.742	88.06
218.96	8.19
219.179	-26.62
219.397	-18.43
219.615	180.22
219.833	157.69
220.051	-57.34
220.27	69.63
220.488	143.36
220.706	18.43
220.924	-4.1
221.142	-83.97
221.36	14.34
221.578	53.25
221.796	-24.58
222.015	22.53
222.233	10.24
222.451	108.54
222.669	18.43
222.887	73.73
223.105	-59.39
223.323	-55.3
223.541	-26.62
223.759	71.68
223.977	-38.91
224.195	145.41
224.413	-12.29
224.631	71.68
224.849	100.35
225.067	217.08
225.285	-67.58
225.503	10.24
225.721	-112.64
225.939	-24.58
226.157	57.34
226.375	190.46
226.592	-90.11
226.81	14.34
227.028	24.58
227.246	157.69
227.464	18.43
227.682	118.78
227.9	114.69
228.117	94.21
228.335	65.54
228.553	22.53
228.771	20.48
228.989	47.1
229.206	26.62
229.424	55.3
229.642	-8.19
229.86	10.24
230.077	169.98
230.295	-61.44
230.513	10.24
230.731	0
230.948	176.13
231.166	153.6
231.384	-2.05
231.601	-57.34
231.819	139.26
232.037	-28.67
232.254	-10.24
232.472	22.53
232.689	-40.96
232.907	69.63
233.125	-49.15
233.342	36.86
233.56	-16.38
233.777	-45.06
233.995	10.24
234.213	137.21
234.43	71.68
234.648	-36.86
234.865	-34.82
235.083	75.77
235.3	118.78
235.518	81.92
235.735	59.39
235.953	36.86
236.17	-28.67
236.388	0
236.605	-28.67
236.822	94.21
237.04	165.89
237.257	18.43
237.475	-69.63
237.692	38.91
237.909	108.54
238.127	4.1
238.344	22.53
238.562	20.48
238.779	-61.44
238.996	-28.67
239.214	-8.19
239.431	81.92
239.648	30.72
239.865	83.97
240.083	28.67
240.3	-2.05
240.517	-10.24
240.735	38.91
240.952	88.06
241.169	59.39
241.386	73.73
241.603	-63.49
241.821	-47.1
242.038	104.45
242.255	126.97
242.472	-77.82
242.689	63.49
242.907	104.45
243.124	43.01
243.341	43.01
243.558	-6.14
243.775	-8.19
243.992	-69.63
244.209	92.16
244.426	77.82
244.643	112.64
244.86	-32.77
245.078	114.69
245.295	71.68
245.512	-6.14
245.729	-69.63
245.946	69.63
246.163	61.44
246.38	-71.68
246.597	88.06
246.814	45.06
247.031	-20.48
247.248	-4.1
247.464	77.82
247.681	10.24
247.898	20.48
248.115	55.3
248.332	-45.06
248.549	92.16
248.766	188.41
248.983	69.63
249.2	51.2
249.417	6.14
249.633	-6.14
249.85	45.06
250.067	-10.24
250.284	92.16
250.501	73.73
250.717	51.2
250.934	-86.01
251.151	75.77
251.368	-10.24
251.585	79.87
251.801	-18.43
252.018	-26.62
252.235	114.69
252.451	0
252.668	-22.53
252.885	38.91
253.102	55.3
253.318	-30.72
253.535	34.82
253.752	55.3
253.968	2.05
254.185	-86.01
254.401	57.34
254.618	86.01
254.835	-16.38
255.051	104.45
255.268	139.26
255.484	47.1
255.701	36.86
255.917	92.16
256.134	-63.49
256.351	61.44
256.567	-6.14
256.784	24.58
257	-96.25
257.217	26.62
257.433	69.63
257.65	47.1
257.866	124.93
258.082	-22.53
258.299	-73.73
258.515	49.15
258.732	-40.96
258.948	-16.38
259.165	20.48
259.381	-51.2
259.597	126.97
259.814	-40.96
260.03	34.82
260.246	-51.2
260.463	90.11
260.679	137.21
260.895	2.05
261.112	12.29
261.328	12.29
261.544	-86.01
261.761	169.98
261.977	10.24
262.193	-6.14
262.409	137.21
262.626	4.1
262.842	-12.29
263.058	-51.2
263.274	116.73
263.49	18.43
263.707	49.15
263.923	45.06
264.139	10.24
264.355	47.1
264.571	100.35
264.787	86.01
265.004	77.82
265.22	-26.62
265.436	55.3
265.652	4.1
265.868	110.59
266.084	-92.16
266.3	8.19
266.516	-4.1
266.732	57.34
266.948	36.86
267.164	34.82
267.38	159.74
267.596	106.49
267.812	210.94
268.028	104.45
268.244	26.62
268.46	-8.19
268.676	-106.49
268.892	77.82
269.108	-32.77
269.324	-18.43
269.54	-36.86
269.756	94.21
269.972	-118.78
270.188	-49.15
270.403	-40.96
270.619	43.01
270.835	71.68
271.051	67.58
271.267	0
271.483	-26.62
271.698	98.3
271.914	40.96
272.13	-18.43
272.346	67.58
272.562	28.67
272.777	73.73
272.993	-32.77
273.209	20.48
273.425	57.34
273.64	-2.05
273.856	47.1
274.072	-106.49
274.287	-26.62
274.503	145.41
274.719	49.15
274.934	-22.53
275.15	-104.45
275.366	106.49
275.581	-2.05
275.797	-22.53
276.012	-22.53
276.228	2.05
276.444	67.58
276.659	149.5
276.875	-40.96
277.09	22.53
277.306	-2.05
277.521	81.92
277.737	-4.1
277.952	30.72
278.168	45.06
278.383	34.82
278.599	47.1
278.814	112.64
279.03	59.39
279.245	100.35
279.461	65.54
279.676	55.3
279.892	-51.2
280.107	-59.39
280.322	-40.96
280.538	83.97
280.753	-34.82
280.969	71.68
281.184	51.2
281.399	137.21
281.615	112.64
281.83	12.29
282.045	-81.92
282.26	-4.1
282.476	30.72
282.691	75.77
282.906	79.87
283.122	14.34
283.337	-26.62
283.552	77.82
283.767	51.2
283.983	110.59
284.198	116.73
284.413	10.24
284.628	-59.39
284.843	-24.58
285.058	124.93
285.274	53.25
285.489	-51.2
285.704	96.25
285.919	-20.48
286.134	10.24
286.349	30.72
286.564	71.68
286.779	108.54
286.995	-16.38
287.21	-120.83
287.425	69.63
287.64	-38.91
287.855	67.58
288.07	-61.44
288.285	75.77
288.5	98.3
288.715	45.06
288.93	30.72
289.145	-36.86
289.36	96.25
289.575	-47.1
289.79	59.39
290.004	-38.91
290.219	92.16
290.434	32.77
290.649	-118.78
290.864	4.1
291.079	-14.34
291.294	30.72
291.509	40.96
291.724	-6.14
291.938	0
292.153	30.72
292.368	-22.53
292.583	38.91
292.798	96.25
293.012	34.82
293.227	59.39
293.442	10.24
293.657	65.54
293.871	133.12
294.086	63.49
294.301	196.61
294.516	110.59
294.73	34.82
294.945	-4.1
295.16	14.34
295.374	83.97
295.589	129.02
295.804	67.58
296.018	38.91
296.233	112.64
296.447	100.35
296.662	12.29
296.877	96.25
297.091	-6.14
297.306	-18.43
297.52	22.53
297.735	69.63
297.949	110.59
298.164	71.68
298.378	53.25
298.593	-96.25
298.807	4.1
299.022	86.01
299.236	86.01
299.451	-20.48
299.665	-32.77
299.88	8.19
300.094	47.1
300.309	-43.01
300.523	77.82
300.737	-30.72
300.952	79.87
301.166	-6.14
301.381	-81.92
301.595	-53.25
301.809	116.73
302.024	-65.53
302.238	32.77
302.452	114.69
302.667	24.58
302.881	63.49
303.095	49.15
303.309	55.3
303.524	-12.29
303.738	12.29
303.952	55.3
304.166	30.72
304.381	-90.11
304.595	174.08
304.809	-20.48
305.023	153.6
305.237	0
305.452	8.19
305.666	100.35
305.88	86.01
306.094	90.11
306.308	79.87
306.522	16.38
306.736	-12.29
306.95	108.54
307.164	-18.43
307.379	45.06
307.593	112.64
307.807	47.1
308.021	30.72
308.235	75.77
308.449	12.29
308.663	49.15
308.877	225.28
309.091	36.86
309.305	43.01
309.519	-129.02
309.733	59.39
309.947	-47.1
310.161	55.3
310.374	22.53
310.588	163.84
310.802	26.62
311.016	-40.96
311.23	81.92
311.444	-16.38
311.658	14.34
311.872	122.88
312.085	114.69
312.299	67.58
312.513	176.13
312.727	24.58
312.941	-34.82
313.154	120.83
313.368	22.53
313.582	-38.91
313.796	57.34
314.009	24.58
314.223	112.64
314.437	61.44
314.651	139.26
314.864	-47.1
315.078	40.96
315.292	-114.69
315.505	40.96
315.719	55.3
315.933	88.06
316.146	40.96
316.36	-92.16
316.573	83.97
316.787	55.3
317.001	32.77
317.214	-98.3
317.428	43.01
317.641	-12.29
317.855	-98.3
318.068	18.43
318.282	30.72
318.495	155.65
318.709	118.78
318.922	-16.38
319.136	118.78
319.349	92.16
319.563	4.1
319.776	34.82
319.99	-71.68
320.203	75.77
320.417	57.34
320.63	28.67
320.843	161.79
321.057	4.1
321.27	-24.58
321.483	92.16
321.697	86.01
321.91	88.06
322.124	118.78
322.337	61.44
322.55	-36.86
322.763	81.92
322.977	12.29
323.19	-47.1
323.403	118.78
323.617	69.63
323.83	86.01
324.043	-4.1
324.256	38.91
324.469	-75.77
324.683	122.88
324.896	73.73
325.109	-2.05
325.322	-22.53
325.535	49.15
325.748	63.49
325.962	26.62
326.175	38.91
326.388	45.06
326.601	92.16
326.814	18.43
327.027	28.67
327.24	180.22
327.453	-77.82
327.666	45.06
327.879	96.25
328.092	55.3
328.305	30.72
328.518	6.14
328.731	-90.11
328.944	34.82
329.157	51.2
329.37	-51.2
329.583	163.84
329.796	61.44
330.009	-90.11
330.222	110.59
330.435	135.17
330.648	-12.29
330.861	92.16
331.073	-10.24
331.286	81.92
331.499	34.82
331.712	-18.43
331.925	43.01
332.138	-20.48
332.35	63.49
332.563	-10.24
332.776	169.98
332.989	-32.77
333.202	55.3
333.414	14.34
333.627	86.01
333.84	-40.96
334.053	22.53
334.265	-30.72
334.478	24.58
334.691	63.49
334.903	4.1
335.116	-38.91
335.329	38.91
335.541	32.77
335.754	186.37
335.966	22.53
336.179	79.87
336.392	8.19
336.604	6.14
336.817	69.63
337.029	47.1
337.242	-38.91
337.454	6.14
337.667	18.43
337.88	81.92
338.092	106.49
338.305	75.77
338.517	6.14
338.729	102.4
338.942	36.86
339.154	-51.2
339.367	-73.73
339.579	77.82
339.792	-18.43
340.004	94.21
340.217	86.01
340.429	-18.43
340.641	6.14
340.854	43.01
341.066	57.34
341.278	30.72
341.491	165.89
341.703	32.77
341.915	-6.14
342.128	114.69
342.34	22.53
342.552	-40.96
342.764	-12.29
342.977	8.19
343.189	49.15
343.401	-16.38
343.613	-100.35
343.826	12.29
344.038	-12.29
344.25	-14.34
344.462	8.19
344.674	106.49
344.886	-77.82
345.099	83.97
345.311	-26.62
345.523	-18.43
345.735	-43.01
345.947	40.96
346.159	47.1
346.371	96.25
346.583	28.67
346.795	149.5
347.007	14.34
347.219	38.91
347.431	30.72
347.643	190.46
347.855	-18.43
348.067	75.77
348.279	-49.15
348.491	69.63
348.703	67.58
348.915	53.25
349.127	-45.06
349.339	40.96
349.551	-77.82
349.763	86.01
349.975	10.24
350.187	167.93
350.399	86.01
350.61	79.87
350.822	-6.14
351.034	24.58
351.246	96.25
351.458	51.2
351.669	26.62
351.881	96.25
352.093	139.26
352.305	59.39
352.517	106.49
352.728	141.31
352.94	18.43
353.152	81.92
353.363	-94.21
353.575	40.96
353.787	139.26
353.999	-61.44
354.21	108.54
354.422	-86.01
354.633	-2.05
354.845	-18.43
355.057	34.82
355.268	53.25
355.48	129.02
355.692	-114.69
355.903	4.1
356.115	36.86
356.326	-90.11
356.538	131.07
356.749	20.48
356.961	116.73
357.172	6.14
357.384	-22.53
357.595	237.56
357.807	-22.53
358.018	16.38
358.23	49.15
358.441	98.3
358.653	112.64
358.864	63.49
359.075	-24.58
359.287	55.3
359.498	104.45
359.709	18.43
359.921	36.86
360.132	16.38
360.344	18.43
360.555	36.86
360.766	57.34
360.977	14.34
361.189	102.4
361.4	24.58
361.611	129.02
361.823	65.54
362.034	36.86
362.245	-151.55
362.456	16.38
362.667	104.45
362.879	12.29
363.09	20.48
363.301	157.69
363.512	45.06
363.723	-77.82
363.935	-8.19
364.146	55.3
364.357	-43.01
364.568	40.96
364.779	-77.82
364.99	135.17
365.201	-63.49
365.412	90.11
365.623	-69.63
365.834	69.63
366.045	61.44
366.256	65.54
366.467	98.3
366.678	53.25
366.889	20.48
367.1	-40.96
367.311	94.21
367.522	-73.73
367.733	26.62
367.944	38.91
368.155	32.77
368.366	73.73
368.577	36.86
368.788	112.64
368.999	30.72
369.209	57.34
369.42	223.23
369.631	212.99
369.842	116.73
370.053	-28.67
370.264	26.62
370.474	-30.72
370.685	126.97
370.896	118.78
371.107	92.16
371.317	28.67
371.528	-20.48
371.739	167.93
371.95	38.91
372.16	118.78
372.371	-14.34
372.582	40.96
372.792	14.34
373.003	6.14
373.214	69.63
373.424	143.36
373.635	40.96
373.846	217.08
374.056	32.77
374.267	45.06
374.477	20.48
374.688	4.1
374.898	38.91
375.109	14.34
375.319	43.01
375.53	112.64
375.74	59.39
375.951	-71.68
376.161	129.02
376.372	77.82
376.582	-26.62
376.793	114.69
377.003	2.05
377.214	18.43
377.424	55.3
377.635	34.82
377.845	-32.77
378.055	118.78
378.266	-24.58
378.476	26.62
378.686	2.05
378.897	-18.43
379.107	186.37
379.317	75.77
379.528	79.87
379.738	34.82
379.948	-22.53
380.158	59.39
380.369	2.05
380.579	59.39
380.789	-6.14
380.999	49.15
381.21	32.77
381.42	131.07
381.63	-26.62
381.84	106.49
382.05	63.49
382.261	96.25
382.471	149.5
382.681	-16.38
382.891	124.93
383.101	71.68
383.311	-30.72
383.521	-32.77
383.731	184.32
383.941	57.34
384.151	-4.1
384.361	-2.05
384.571	38.91
384.781	47.1
384.991	120.83
385.201	139.26
385.411	81.92
385.621	47.1
385.831	40.96
386.041	55.3
386.251	8.19
386.461	38.91
386.671	69.63
386.881	83.97
387.091	-12.29
387.301	88.06
387.511	16.38
387.72	26.62
387.93	47.1
388.14	-34.82
388.35	122.88
388.56	55.3
388.769	30.72
388.979	14.34
389.189	-30.72
389.399	59.39
389.609	77.82
389.818	6.14
390.028	30.72
390.238	69.63
390.447	34.82
390.657	98.3
390.867	-18.43
391.076	-77.82
391.286	14.34
391.496	30.72
391.705	98.3
391.915	104.45
392.125	135.17
392.334	34.82
392.544	169.98
392.753	-10.24
392.963	-6.14
393.172	45.06
393.382	28.67
393.591	131.07
393.801	-63.49
394.01	120.83
394.22	100.35
394.429	32.77
394.639	100.35
394.848	30.72
395.058	126.97
395.267	-28.67
395.477	63.49
395.686	12.29
395.895	159.74
396.105	135.17
396.314	43.01
396.524	18.43
396.733	34.82
396.942	38.91
397.152	2.05
397.361	139.26
397.57	2.05
397.78	69.63
397.989	108.54
398.198	192.51
398.407	10.24
398.617	32.77
398.826	18.43
399.035	75.77
399.244	47.1
399.453	63.49
399.663	71.68
399.872	88.06
400.081	-67.58
400.29	126.97
400.499	-40.96
400.708	145.41
400.917	-38.91
401.127	14.34
401.336	-16.38
401.545	96.25
401.754	45.06
401.963	135.17
402.172	8.19
402.381	-34.82
402.59	0
402.799	6.14
403.008	88.06
403.217	106.49
403.426	98.3
403.635	-28.67
403.844	32.77
404.053	-71.68
404.262	73.73
404.471	141.31
404.68	8.19
404.888	-28.67
405.097	-20.48
405.306	69.63
405.515	122.88
405.724	102.4
405.933	96.25
406.142	104.45
406.35	118.78
406.559	-38.91
406.768	-16.38
406.977	133.12
407.185	90.11
407.394	26.62
407.603	-81.92
407.812	55.3
408.02	98.3
408.229	38.91
408.438	-22.53
408.646	-67.58
408.855	26.62
409.064	47.1
409.272	-22.53
409.481	174.08
409.69	0
409.898	-38.91
410.107	-10.24
410.315	47.1
410.524	-2.05
410.733	45.06
410.941	86.01
411.15	36.86
411.358	65.54
411.567	182.27
411.775	24.58
411.984	10.24
412.192	129.02
412.401	16.38
412.609	153.6
412.818	192.51
413.026	108.54
413.234	18.43
413.443	24.58
413.651	73.73
413.86	77.82
414.068	20.48
414.276	188.41
414.485	18.43
414.693	114.69
414.901	176.13
415.11	71.68
415.318	-14.34
415.526	26.62
415.734	86.01
415.943	18.43
416.151	94.21
416.359	-12.29
416.567	75.77
416.776	135.17
416.984	36.86
417.192	139.26
417.4	-83.97
417.608	0
417.817	-40.96
418.025	118.78
418.233	178.17
418.441	-20.48
418.649	45.06
418.857	63.49
419.065	116.73
419.273	-51.2
419.481	10.24
419.689	45.06
419.897	-6.14
420.105	-34.82
420.313	118.78
420.521	112.64
420.729	182.27
420.937	-6.14
421.145	-30.72
421.353	79.87
421.561	174.08
421.769	104.45
421.977	45.06
422.185	96.25
422.393	122.88
422.601	126.97
422.809	59.39
423.017	12.29
423.224	67.58
423.432	153.6
423.64	36.86
423.848	182.27
424.056	53.25
424.263	104.45
424.471	-2.05
424.679	190.46
424.887	20.48
425.094	102.4
425.302	49.15
425.51	45.06
425.718	122.88
425.925	57.34
426.133	28.67
426.341	157.69
426.548	20.48
426.756	38.91
426.964	112.64
427.171	-18.43
427.379	157.69
427.586	-18.43
427.794	161.79
428.001	147.45
428.209	83.97
428.417	133.12
428.624	98.3
428.832	77.82
429.039	106.49
429.247	90.11
429.454	153.6
429.662	243.71
429.869	159.74
430.076	118.78
430.284	210.94
430.491	270.33
430.699	141.31
430.906	190.46
431.114	79.87
431.321	124.93
431.528	129.02
431.736	151.55
431.943	176.13
432.15	208.89
432.358	180.22
432.565	233.47
432.772	18.43
432.979	235.52
433.187	79.87
433.394	202.75
433.601	145.41
433.808	260.09
434.016	237.56
434.223	305.15
434.43	176.13
434.637	268.28
434.844	329.72
435.052	188.41
435.259	276.48
435.466	251.9
435.673	249.85
435.88	294.91
436.087	337.91
436.294	354.3
436.501	337.91
436.708	292.86
436.915	307.2
437.122	421.88
437.329	319.48
437.537	337.91
437.743	331.77
437.95	460.79
438.157	444.41
438.364	325.63
438.571	446.46
438.778	468.98
438.985	411.64
439.192	528.38
439.399	401.4
439.606	575.48
439.813	591.86
440.02	626.68
440.227	718.84
440.433	581.62
440.64	550.9
440.847	473.08
441.054	624.63
441.261	677.88
441.467	673.78
441.674	669.69
441.881	739.32
442.088	706.55
442.294	780.28
442.501	858.1
442.708	837.62
442.914	794.61
443.121	940.02
443.328	901.11
443.534	966.64
443.741	931.83
443.948	960.5
444.154	1105.9
444.361	1279.98
444.568	1132.53
444.774	1140.72
444.981	1046.51
445.187	1290.22
445.394	1306.6
445.6	1282.03
445.807	1507.31
446.013	1353.71
446.22	1376.24
446.426	1513.45
446.633	1730.53
446.839	1744.87
447.046	1583.08
447.252	1839.08
447.459	1812.45
447.665	1796.07
447.871	2078.69
448.078	2162.66
448.284	2011.11
448.491	2310.11
448.697	2181.09
448.903	2412.51
449.11	2486.23
449.316	2428.89
449.522	2703.32
449.728	2699.22
449.935	2717.65
450.141	2748.37
450.347	3004.37
450.553	2912.21
450.76	3100.62
450.966	3188.69
451.172	3297.23
451.378	3354.57
451.584	3450.83
451.791	3852.23
451.997	3829.7
452.203	3997.64
452.409	4065.22
452.615	4116.42
452.821	4169.66
453.027	4278.21
453.233	4710.33
453.44	4693.94
453.646	4812.73
453.852	5089.2
454.058	5267.38
454.264	5509.04
454.47	5947.3
454.676	5873.57
454.882	6412.19
455.088	6074.28
455.294	6557.6
455.5	6727.58
455.705	7145.36
455.911	7053.2
456.117	7337.87
456.323	7661.45
456.529	7751.56
456.735	8277.89
456.941	8601.47
457.147	9009.01
457.352	9002.87
457.558	9467.76
457.764	9973.61
457.97	10497.89
458.176	10665.82
458.381	11267.92
458.587	11360.08
458.793	11892.55
458.999	11933.51
459.204	13037.37
459.41	13772.59
459.616	13645.62
459.821	14343.97
460.027	15087.39
460.233	15650.58
460.438	15787.79
460.644	16531.2
460.85	16668.42
461.055	17594.1
461.261	18255.59
461.466	17999.6
461.672	18261.74
461.878	20647.62
462.083	20518.6
462.289	20831.94
462.494	21286.59
462.7	21788.34
462.905	22195.89
463.111	23854.74
463.316	25022.08
463.522	24972.93
463.727	26537.58
463.932	27418.21
464.138	27962.97
464.343	29189.7
464.549	29199.94
464.754	31788.57
464.959	31997.46
465.165	33007.11
465.37	32695.82
465.575	32519.7
465.781	35300.84
465.986	35892.7
466.191	35763.68
466.397	35970.52
466.602	34842.09
466.807	36705.74
467.012	37434.82
467.218	38038.97
467.423	38315.45
467.628	39509.41
467.833	41313.67
468.038	40224.15
468.244	40355.22
468.449	41934.21
468.654	41162.12
468.859	41184.65
469.064	41069.97
469.269	40197.53
469.474	40420.76
469.679	41600.39
469.885	40349.08
470.09	41301.39
470.295	41176.46
470.5	40355.22
470.705	40365.46
470.91	39640.48
471.115	39280.04
471.32	40185.24
471.525	39247.27
471.73	38419.89
471.935	38335.93
472.139	36765.13
472.344	36933.07
472.549	36597.2
472.754	36240.85
472.959	35063.27
473.164	34264.57
473.369	33209.86
473.574	34655.73
473.778	34106.87
473.983	33457.67
474.188	32730.64
474.393	30948.9
474.598	31180.32
474.802	30402.1
475.007	29879.86
475.212	29806.14
475.417	28401.23
475.621	28339.79
475.826	27835.99
476.031	27117.15
476.235	26461.8
476.44	26795.62
476.645	26195.57
476.849	25908.85
477.054	25499.26
477.259	24714.89
477.463	24710.79
477.668	24032.91
477.872	24252.05
478.077	23279.26
478.282	22685.35
478.486	22451.88
478.691	22347.43
478.895	22040.24
479.1	21696.18
479.304	21767.86
479.509	20950.72
479.713	21274.3
479.918	20594.37
480.122	20342.47
480.326	20729.54
480.531	20403.91
480.735	20326.09
480.94	19754.71
481.144	20569.8
481.348	19502.81
481.553	19810
481.757	19105.5
481.961	19427.03
482.166	19345.11
482.37	18704.1
482.574	18435.81
482.778	18755.3
482.983	18738.91
483.187	18321.13
483.391	18263.79
483.595	18253.55
483.8	17567.48
484.004	17938.16
484.208	17802.99
484.412	17577.72
484.616	17481.46
484.821	17323.77
485.025	16711.43
485.229	16787.2
485.433	16611.07
485.637	16516.87
485.841	15943.44
486.045	15982.35
486.249	15865.61
486.453	15300.37
486.657	15333.14
486.861	15087.39
487.065	14473
487.269	14417.7
487.473	14157.61
487.677	14507.81
487.881	14040.87
488.085	13432.63
488.289	13528.88
488.493	12984.12
488.697	13363
488.901	13027.13
489.105	12373.83
489.309	12535.62
489.512	12236.61
489.716	11923.27
489.92	11814.73
490.124	11507.54
490.328	11319.12
490.531	11056.98
490.735	11097.94
490.939	10700.64
491.143	10471.26
491.346	10383.2
491.55	10266.47
491.754	10106.73
491.958	9916.26
492.161	9678.7
492.365	9336.69
492.569	9357.17
492.772	9348.98
492.976	9297.78
493.18	9170.8
493.383	8931.19
493.587	8697.72
493.79	8679.29
493.994	8359.81
494.197	8564.61
494.401	8339.33
494.605	8361.86
494.808	8152.96
495.012	8136.58
495.215	7958.41
495.419	8208.26
495.622	7731.08
495.825	7765.9
496.029	7645.07
496.232	7958.41
496.436	7880.58
496.639	7761.8
496.843	7557
497.046	7667.59
497.249	7839.62
497.453	7745.42
497.656	7536.52
497.859	7665.55
498.063	7462.8
498.266	7698.31
498.469	7534.48
498.673	7892.87
498.876	7774.09
499.079	7587.72
499.282	7497.61
499.485	7817.1
499.689	7745.42
499.892	7815.05
500.095	7765.9
500.298	8116.1
500.501	7845.77
500.705	8052.61
500.908	7958.41
501.111	8171.4
501.314	8208.26
501.517	8300.42
501.72	8243.07
501.923	8359.81
502.126	8310.66
502.329	8572.8
502.532	8591.23
502.735	8877.94
502.938	8855.42
503.141	8910.71
503.344	8863.61
503.547	9172.85
503.75	9058.17
503.953	9316.21
504.156	9461.62
504.359	9469.81
504.562	9432.94
504.765	9867.11
504.968	9867.11
505.17	9949.03
505.373	10057.57
505.576	10555.23
505.779	10461.02
505.982	10694.49
506.185	10932.06
506.387	11013.98
506.59	11259.73
506.793	11452.24
506.996	11489.1
507.198	11786.06
507.401	11972.43
507.604	12275.52
507.807	12652.35
508.009	12435.27
508.212	12803.9
508.415	13109.05
508.617	13358.9
508.82	13821.74
509.022	13668.14
509.225	14057.26
509.428	14356.26
509.63	14792.48
509.833	14825.25
510.035	15245.08
510.238	15554.32
510.44	15927.05
510.643	16606.98
510.845	16973.57
511.048	17086.2
511.25	17268.47
511.453	17639.15
511.655	18513.64
511.858	18398.95
512.06	19109.6
512.262	19543.77
512.465	19511
512.667	20174.54
512.87	20621
513.072	20917.95
513.274	21747.38
513.477	22105.77
513.679	22580.9
513.881	23166.62
514.084	23580.31
514.286	24358.54
514.488	24426.12
514.69	25208.45
514.893	26087.03
515.095	26007.16
515.297	26730.09
515.499	27430.49
515.701	27764.31
515.904	28599.88
516.106	28857.93
516.308	29582.91
516.51	30391.86
516.712	30912.04
516.914	31378.98
517.116	32032.28
517.318	32701.96
517.52	33238.53
517.722	33738.24
517.925	34340.34
518.127	35204.58
518.329	35640.8
518.531	35982.81
518.733	36883.92
518.935	37266.89
519.136	37877.18
519.338	38989.23
519.54	39300.52
519.742	40031.65
519.944	40549.78
520.146	41588.1
520.348	41368.97
520.55	42268.03
520.752	42577.27
520.954	43631.97
521.155	43687.27
521.357	44367.19
521.559	45030.74
521.761	45413.71
521.963	46208.32
522.164	46062.91
522.366	46685.5
522.568	46976.31
522.77	47590.7
522.971	48168.22
523.173	47527.21
523.375	48256.29
523.576	48721.18
523.778	48700.7
523.98	49263.89
524.181	49935.62
524.383	49679.63
524.584	49995.01
524.786	50035.97
524.988	49546.51
525.189	50732.28
525.391	50447.61
525.592	50580.73
525.794	50572.54
525.995	50457.85
526.197	50658.55
526.398	50318.59
526.6	50566.4
526.801	50572.54
527.003	50353.41
527.204	50164.99
527.406	50285.82
527.607	49685.77
527.808	49886.47
528.01	49157.39
528.211	49237.26
528.412	49454.35
528.614	48856.34
528.815	48442.65
529.016	48667.93
529.218	48045.35
529.419	47217.97
529.62	47129.9
529.822	46609.72
530.023	46476.6
530.224	46306.62
530.425	45520.2
530.626	44729.69
530.828	44453.21
531.029	44694.87
531.23	43586.92
531.431	43464.04
531.632	42691.96
531.833	42614.13
532.035	41858.43
532.236	41354.63
532.437	41209.23
532.638	40179.1
532.839	39941.53
533.04	39712.16
533.241	38491.57
533.442	38868.4
533.643	38155.71
533.844	37547.46
534.045	37090.76
534.246	36662.74
534.447	36146.65
534.648	35595.74
534.849	35567.07
535.05	34471.41
535.251	34213.37
535.451	33994.23
535.652	33293.83
535.853	33019.4
536.054	32568.85
536.255	32392.72
536.456	31225.38
536.657	31567.39
536.857	30934.57
537.058	30379.57
537.259	30451.25
537.46	29548.09
537.66	29455.93
537.861	28835.4
538.062	28397.13
538.263	28567.12
538.463	27518.56
538.664	27487.84
538.865	27004.52
539.065	26902.12
539.266	26453.61
539.466	26216.05
539.667	25464.44
539.868	25681.53
540.068	25104
540.269	25237.12
540.469	24594.06
540.67	24520.33
540.87	24069.78
541.071	23903.89
541.271	23692.95
541.472	23074.46
541.672	23148.19
541.873	22697.64
542.073	22353.58
542.274	22279.85
542.474	22079.15
542.675	21419.71
542.875	21712.56
543.075	21036.74
543.276	20573.89
543.476	20958.91
543.676	20637.38
543.877	20233.93
544.077	19939.02
544.277	20000.46
544.478	19457.75
544.678	19541.72
544.878	19121.88
545.078	18953.95
545.279	18695.91
545.479	18218.73
545.679	18280.17
545.879	18163.43
546.079	17870.58
546.28	17628.92
546.48	17467.13
546.68	17168.12
546.88	17397.49
547.08	16635.65
547.28	16662.27
547.48	16201.48
547.68	16424.71
547.88	15947.53
548.081	16117.51
548.281	15634.19
548.481	15664.91
548.681	15372.05
548.881	15042.33
549.081	14954.27
549.28	14473
549.48	14815.01
549.68	14159.66
549.88	14208.81
550.08	13903.66
550.28	13844.27
550.48	13545.27
550.68	13565.74
550.88	13252.41
551.08	12971.83
551.279	12975.93
551.479	12396.35
551.679	12558.14
551.879	12418.88
552.079	12253
552.278	11741
552.478	11724.62
552.678	11716.43
552.878	11571.02
553.077	11202.39
553.277	11022.17
553.477	10975.06
553.676	10741.6
553.876	10647.39
554.076	10399.59
554.275	10325.86
554.475	9860.97
554.674	10180.45
554.874	9686.89
555.074	9301.87
555.273	9351.03
555.473	9269.11
555.672	9117.56
555.872	8955.77
556.071	9039.73
556.271	8927.1
556.47	8507.26
556.67	8378.24
556.869	8337.28
557.068	8136.58
557.268	8030.09
557.467	7923.59
557.667	8173.44
557.866	7509.9
558.065	7501.71
558.265	7407.5
558.464	7280.53
558.663	7120.79
558.863	7073.68
559.062	7049.11
559.261	6813.59
559.461	6719.39
559.66	6506.4
559.859	6352.8
560.058	6315.94
560.258	6223.78
560.457	6125.47
560.656	6047.65
560.855	6074.28
561.054	6127.52
561.253	5805.99
561.453	5695.4
561.652	5648.3
561.851	5652.39
562.05	5371.82
562.249	5199.79
562.448	5337.01
562.647	5240.75
562.846	5222.32
563.045	5179.31
563.244	4988.85
563.443	5019.57
563.642	4755.38
563.841	4812.73
564.04	4573.11
564.239	4675.51
564.438	4501.44
564.637	4327.36
564.836	4427.71
565.035	4407.23
565.234	4433.85
565.432	4179.9
565.631	4192.19
565.83	4032.45
566.029	3930.05
566.228	4001.73
566.427	4059.07
566.625	3733.45
566.824	3876.8
567.023	3831.75
567.222	3594.19
567.42	3600.33
567.619	3555.27
567.818	3811.27
568.016	3712.97
568.215	3524.55
568.414	3532.75
568.612	3387.34
568.811	3243.98
569.01	3338.19
569.208	3137.49
569.407	3172.3
569.605	3037.14
569.804	3028.95
570.002	3076.05
570.201	2799.57
570.4	3043.28
570.598	2852.82
570.797	2805.72
570.995	2699.22
571.193	2787.29
571.392	2684.89
571.59	2619.35
571.789	2670.55
571.987	2795.48
572.186	2549.72
572.384	2426.84
572.582	2418.65
572.781	2562.01
572.979	2295.77
573.177	2314.2
573.376	2512.86
573.574	2336.73
573.772	2318.3
573.971	2242.53
574.169	2084.83
574.367	2174.94
574.565	2090.98
574.763	2099.17
574.962	2025.44
575.16	1902.56
575.358	1906.66
575.556	1955.81
575.754	2039.78
575.952	1873.89
576.151	1816.55
576.349	2002.91
576.547	1658.85
576.745	1890.28
576.943	1712.1
577.141	1660.9
577.339	1542.12
577.537	1763.3
577.735	1755.11
577.933	1665
578.131	1484.78
578.329	1658.85
578.527	1611.75
578.725	1626.09
578.923	1445.87
579.121	1515.5
579.319	1366
579.516	1402.86
579.714	1601.51
579.912	1419.24
580.11	1189.87
580.308	1333.23
580.506	1273.84
580.704	1222.64
580.901	1222.64
581.099	1282.03
581.297	1245.17
581.495	1251.31
581.692	1198.06
581.89	1339.37
582.088	1153.01
582.285	1118.19
582.483	1185.77
582.681	1228.78
582.878	1069.04
583.076	1136.62
583.274	1099.76
583.471	1234.93
583.669	1073.14
583.866	931.83
584.064	1005.55
584.262	935.92
584.459	1032.18
584.657	1046.51
584.854	1122.29
585.052	954.35
585.249	980.98
585.447	1038.32
585.644	868.34
585.841	929.78
586.039	878.58
586.236	929.78
586.434	851.96
586.631	802.8
586.828	772.08
587.026	894.96
587.223	727.03
587.42	763.89
587.618	806.9
587.815	851.96
588.012	823.28
588.21	800.76
588.407	753.65
588.604	862.19
588.801	747.51
588.999	700.41
589.196	780.28
589.393	669.69
589.59	681.97
589.787	745.46
589.984	641.01
590.182	696.31
590.379	626.68
590.576	673.78
590.773	718.84
590.97	585.72
591.167	737.27
591.364	724.98
591.561	618.49
591.758	749.56
591.955	655.35
592.152	688.12
592.349	622.58
592.546	686.07
592.743	499.7
592.94	718.84
593.137	618.49
593.334	774.13
593.531	716.79
593.727	679.93
593.924	608.25
594.121	610.29
594.318	618.49
594.515	667.64
594.712	829.43
594.908	729.08
595.105	616.44
595.302	735.22
595.499	649.21
595.696	798.71
595.892	698.36
596.089	800.76
596.286	686.07
596.482	860.15
596.679	767.99
596.876	802.8
597.072	897.01
597.269	899.06
597.466	952.31
597.662	882.67
597.859	995.31
598.055	964.59
598.252	1017.84
598.448	1093.62
598.645	1075.18
598.841	1077.23
599.038	1277.93
599.234	1320.94
599.431	1247.21
599.627	1331.18
599.824	1284.08
600.02	1337.32
600.217	1333.23
600.413	1433.58
600.609	1542.12
600.806	1736.68
601.002	1636.33
601.198	1632.23
601.395	1822.69
601.591	1882.08
601.787	1937.38
601.984	1972.19
602.18	2176.99
602.376	2082.78
602.572	2220
602.769	2353.12
602.965	2426.84
603.161	2545.63
603.357	2566.1
603.553	2754.52
603.75	2676.7
603.946	2695.13
604.142	2914.26
604.338	3133.39
604.534	3133.39
604.73	3342.28
604.926	3338.19
605.122	3504.07
605.318	3467.21
605.514	3667.91
605.71	3663.82
605.906	3872.71
606.102	3882.95
606.298	4202.43
606.494	4206.53
606.69	4513.72
606.886	4448.19
607.082	4695.99
607.278	4636.6
607.474	4681.66
607.67	4945.84
607.866	4988.85
608.062	5345.2
608.257	5488.56
608.453	5586.86
608.649	5861.29
608.845	5615.53
609.041	6104.99
609.236	6121.38
609.432	6404
609.628	6528.92
609.824	6748.06
610.019	6725.53
610.215	7008.15
610.411	7341.97
610.606	7583.63
610.802	7573.39
610.998	7761.8
611.193	8189.83
611.389	8195.97
611.584	8488.83
611.78	8656.76
611.976	8896.38
612.171	9383.79
612.367	9252.72
612.562	9568.11
612.758	9822.06
612.953	10119.01
613.149	10379.11
613.344	10596.19
613.539	11001.69
613.735	11155.29
613.93	11663.18
614.126	11579.22
614.321	12212.04
614.517	12306.24
614.712	12916.54
614.907	12883.77
615.103	13256.5
615.298	13606.7
615.493	14081.83
615.688	14554.91
615.884	14780.19
616.079	15036.19
616.274	15675.15
616.47	15783.7
616.665	16381.7
616.86	16957.18
617.055	17305.34
617.25	17637.11
617.445	18159.34
617.641	18167.53
617.836	18712.29
618.031	19070.68
618.226	19896.02
618.421	20106.96
618.616	20686.53
618.811	20956.86
619.006	21767.86
619.201	21749.43
619.396	22685.35
619.591	22662.82
619.786	23905.94
619.981	23738.01
620.176	24768.13
620.371	25208.45
620.566	25529.98
620.761	26197.62
620.956	26691.18
621.151	27029.09
621.346	27897.43
621.541	27922.01
621.735	28859.98
621.93	28759.63
622.125	29638.2
622.32	29998.65
622.515	30641.71
622.709	31544.86
622.904	31813.15
623.099	32032.28
623.294	33041.93
623.488	33416.71
623.683	34237.94
623.878	34061.82
624.072	35143.14
624.267	35775.97
624.462	36244.95
624.656	36496.85
624.851	37490.12
625.046	37965.24
625.24	38542.77
625.435	38757.81
625.629	39499.17
625.824	40088.99
626.018	40787.35
626.213	40492.44
626.407	41504.13
626.602	41227.66
626.796	42616.18
626.991	42835.31
627.185	42904.95
627.38	43003.25
627.574	43306.35
627.768	43451.75
627.963	44006.75
628.157	44006.75
628.352	44254.56
628.546	43877.73
628.74	44262.75
628.935	43871.59
629.129	44668.25
629.323	43593.06
629.517	43818.34
629.712	43664.74
629.906	43879.78
630.1	43242.86
630.294	42751.35
630.489	41954.69
630.683	41987.46
630.877	40723.86
631.071	40318.36
631.265	40031.65
631.459	39177.64
631.653	38473.14
631.848	37883.33
632.042	36726.22
632.236	35833.31
632.43	34672.11
632.624	34319.86
632.818	33046.02
633.012	31739.42
633.206	31190.56
633.4	30383.66
633.594	29029.96
633.788	28372.56
633.982	27430.49
634.176	26470
634.369	25110.14
634.563	24487.56
634.757	23457.43
634.951	22673.06
635.145	21993.14
635.339	21186.24
635.533	20281.03
635.726	19539.67
635.92	18349.8
636.114	17577.72
636.308	17088.25
636.501	16709.38
636.695	16013.07
636.889	15150.87
637.083	14382.88
637.276	14094.12
637.47	13147.96
637.664	12984.12
637.857	12328.77
638.051	11738.96
638.244	11319.12
638.438	10790.75
638.632	10522.46
638.825	9908.07
639.019	9625.45
639.212	9402.22
639.406	8923
639.599	8507.26
639.793	8238.98
639.986	7671.69
640.18	7708.55
640.373	7364.5
640.567	7231.38
640.76	6588.32
640.954	6391.71
641.147	6289.31
641.34	5959.59
641.534	5863.33
641.727	5636.01
641.92	5453.74
642.114	5175.22
642.307	4999.09
642.5	4614.07
642.694	4446.14
642.887	4421.56
643.08	4435.9
643.273	4239.3
643.467	3942.34
643.66	3747.78
643.853	3454.92
644.046	3491.79
644.239	3338.19
644.432	3379.15
644.626	2910.16
644.819	2901.97
645.012	2971.6
645.205	2899.92
645.398	2607.06
645.591	2543.58
645.784	2523.1
645.977	2269.15
646.17	2242.53
646.363	2193.37
646.556	2052.06
646.749	1939.43
646.942	1996.77
647.135	1964
647.328	1802.21
647.521	1751.01
647.714	1578.98
647.907	1581.03
648.099	1568.74
648.292	1652.71
648.485	1417.19
648.678	1312.75
648.871	1308.65
649.064	1259.5
649.256	1286.12
649.449	1165.29
649.642	1015.79
649.835	1095.66
650.027	942.07
650.22	1105.9
650.413	968.69
650.605	899.06
650.798	899.06
650.991	909.3
651.183	919.54
651.376	907.25
651.568	841.72
651.761	780.28
651.954	755.7
652.146	663.54
652.339	747.51
652.531	628.73
652.724	499.7
652.916	645.11
653.109	516.09
653.301	610.29
653.494	657.4
653.686	616.44
653.879	647.16
654.071	593.91
654.263	466.94
654.456	524.28
654.648	620.53
654.84	559.1
655.033	514.04
655.225	536.57
655.417	315.39
655.61	581.62
655.802	559.1
655.994	511.99
656.186	278.52
656.379	495.61
656.571	395.26
656.763	313.34
656.955	378.87
657.148	339.96
657.34	372.73
657.532	315.39
657.724	215.04
657.916	333.82
658.108	372.73
658.3	413.69
658.492	296.96
658.684	229.37
658.876	354.3
659.068	210.94
659.26	176.13
659.452	262.14
659.644	280.57
659.836	403.45
660.028	286.72
660.22	237.56
660.412	229.37
660.604	264.19
660.796	139.26
660.988	294.91
661.18	212.99
661.372	360.44
661.563	233.47
661.755	262.14
661.947	122.88
662.139	194.56
662.331	272.38
662.522	147.45
662.714	161.79
662.906	153.6
663.097	233.47
663.289	135.17
663.481	221.18
663.673	221.18
663.864	161.79
664.056	243.71
664.247	106.49
664.439	292.86
664.631	217.08
664.822	235.52
665.014	223.23
665.205	51.2
665.397	167.93
665.588	253.95
665.78	163.84
665.971	165.89
666.163	114.69
666.354	141.31
666.546	-12.29
666.737	71.68
666.929	108.54
667.12	90.11
667.311	122.88
667.503	141.31
667.694	196.61
667.885	131.07
668.077	235.52
668.268	90.11
668.459	126.97
668.651	145.41
668.842	163.84
669.033	83.97
669.224	86.01
669.416	274.43
669.607	126.97
669.798	61.44
669.989	208.89
670.18	104.45
670.371	206.84
670.563	96.25
670.754	182.27
670.945	190.46
671.136	145.41
671.327	143.36
671.518	176.13
671.709	307.2
671.9	241.66
672.091	276.48
672.282	120.83
672.473	126.97
672.664	169.98
672.855	102.4
673.046	251.9
673.237	212.99
673.428	133.12
673.619	235.52
673.809	135.17
674	212.99
674.191	272.38
674.382	122.88
674.573	217.08
674.764	188.41
674.954	286.72
675.145	114.69
675.336	79.87
675.527	210.94
675.717	155.65
675.908	90.11
676.099	94.21
676.289	161.79
676.48	96.25
676.671	196.61
676.861	182.27
677.052	286.72
677.243	145.41
677.433	143.36
677.624	147.45
677.814	237.56
678.005	100.35
678.195	319.48
678.386	126.97
678.576	237.56
678.767	63.49
678.957	174.08
679.148	276.48
679.338	288.76
679.529	192.51
679.719	161.79
679.909	288.76
680.1	221.18
680.29	217.08
680.481	124.93
680.671	227.32
680.861	301.05
681.052	272.38
681.242	176.13
681.432	272.38
681.622	188.41
681.813	90.11
682.003	251.9
682.193	129.02
682.383	253.95
682.573	180.22
682.764	215.04
682.954	235.52
683.144	290.81
683.334	274.43
683.524	210.94
683.714	266.24
683.904	251.9
684.094	159.74
684.284	225.28
684.474	374.78
684.664	292.86
684.854	264.19
685.044	309.24
685.234	278.52
685.424	303.1
685.614	274.43
685.804	309.24
685.994	329.72
686.184	282.62
686.374	282.62
686.564	184.32
686.753	251.9
686.943	182.27
687.133	227.32
687.323	278.52
687.513	335.87
687.702	227.32
687.892	239.61
688.082	288.76
688.272	274.43
688.461	231.42
688.651	354.3
688.841	290.81
689.03	206.84
689.22	204.8
689.41	292.86
689.599	288.76
689.789	176.13
689.979	403.45
690.168	231.42
690.358	313.34
690.547	270.33
690.737	251.9
690.926	233.47
691.116	305.15
691.305	280.57
691.495	331.77
691.684	163.84
691.874	219.13
692.063	159.74
692.252	305.15
692.442	342.01
692.631	141.31
692.82	206.84
693.01	296.96
693.199	167.93
693.388	262.14
693.578	176.13
693.767	317.44
693.956	262.14
694.146	274.43
694.335	251.9
694.524	210.94
694.713	331.77
694.902	133.12
695.092	145.41
695.281	270.33
695.47	159.74
695.659	247.8
695.848	206.84
696.037	145.41
696.226	245.76
696.415	196.61
696.604	313.34
696.793	258.04
696.982	215.04
697.171	337.91
697.36	249.85
697.549	198.65
697.738	120.83
697.927	188.41
698.116	182.27
698.305	270.33
698.494	249.85
698.683	120.83
698.872	360.44
699.061	268.28
699.25	188.41
699.438	215.04
699.627	241.66
699.816	270.33
700.005	167.93
700.193	155.65
700.382	231.42
700.571	223.23
700.76	260.09
700.948	342.01
701.137	225.28
701.326	239.61
701.514	180.22
701.703	301.05
701.892	313.34
702.08	415.74
702.269	163.84
702.457	202.75
702.646	266.24
702.834	268.28
703.023	276.48
703.212	256
703.4	182.27
703.589	198.65
703.777	188.41
703.965	247.8
704.154	202.75
704.342	114.69
704.531	223.23
704.719	167.93
704.907	296.96
705.096	245.76
705.284	129.02
705.472	231.42
705.661	196.61
705.849	268.28
706.037	311.29
706.226	227.32
706.414	251.9
706.602	180.22
706.79	219.13
706.979	174.08
707.167	272.38
707.355	161.79
707.543	346.11
707.731	276.48
707.919	212.99
708.107	112.64
708.296	184.32
708.484	225.28
708.672	167.93
708.86	251.9
709.048	299
709.236	186.37
709.424	309.24
709.612	251.9
709.8	133.12
709.988	163.84
710.176	239.61
710.364	292.86
710.551	210.94
710.739	219.13
710.927	141.31
711.115	233.47
711.303	274.43
711.491	313.34
711.679	194.56
711.866	309.24
712.054	165.89
712.242	225.28
712.43	335.87
712.617	190.46
712.805	268.28
712.993	260.09
713.181	129.02
713.368	212.99
713.556	124.93
713.744	184.32
713.931	354.3
714.119	294.91
714.306	186.37
714.494	262.14
714.682	337.91
714.869	112.64
715.057	233.47
715.244	161.79
715.432	223.23
715.619	141.31
715.807	210.94
715.994	174.08
716.182	231.42
716.369	323.58
716.556	245.76
716.744	86.01
716.931	182.27
717.119	266.24
717.306	243.71
717.493	325.63
717.681	221.18
717.868	198.65
718.055	292.86
718.242	210.94
718.43	282.62
718.617	327.68
718.804	217.08
718.991	274.43
719.179	245.76
719.366	294.91
719.553	235.52
719.74	208.89
719.927	247.8
720.114	303.1
720.301	198.65
720.488	172.03
720.676	174.08
720.863	317.44
721.05	366.59
721.237	249.85
721.424	299
721.611	313.34
721.798	190.46
721.985	174.08
722.172	137.21
722.358	202.75
722.545	286.72
722.732	260.09
722.919	358.39
723.106	313.34
723.293	217.08
723.48	323.58
723.667	251.9
723.853	380.92
724.04	278.52
724.227	325.63
724.414	194.56
724.6	301.05
724.787	325.63
724.974	397.31
725.161	276.48
725.347	227.32
725.534	286.72
725.72	256
725.907	352.25
726.094	321.53
726.28	237.56
726.467	202.75
726.653	260.09
726.84	389.11
727.027	385.02
727.213	262.14
727.4	415.74
727.586	292.86
727.773	264.19
727.959	276.48
728.145	202.75
728.332	268.28
728.518	239.61
728.705	399.35
728.891	358.39
729.077	301.05
729.264	233.47
729.45	278.52
729.636	354.3
729.823	335.87
730.009	315.39
730.195	317.44
730.382	346.11
730.568	296.96
730.754	284.67
730.94	301.05
731.126	309.24
731.313	290.81
731.499	360.44
731.685	419.83
731.871	342.01
732.057	313.34
732.243	382.97
732.429	258.04
732.615	391.16
732.801	370.68
732.987	333.82
733.173	294.91
733.359	370.68
733.545	344.06
733.731	323.58
733.917	374.78
734.103	382.97
734.289	307.2
734.475	241.66
734.661	530.42
734.847	323.58
735.033	319.48
735.219	374.78
735.404	260.09
735.59	260.09
735.776	299
735.962	335.87
736.148	477.18
736.333	401.4
736.519	331.77
736.705	294.91
736.89	305.15
737.076	352.25
737.262	235.52
737.447	274.43
737.633	268.28
737.819	501.75
738.004	344.06
738.19	258.04
738.375	409.59
738.561	452.6
738.747	329.72
738.932	323.58
739.118	468.98
739.303	397.31
739.489	387.07
739.674	286.72
739.859	296.96
740.045	403.45
740.23	288.76
740.416	161.79
740.601	342.01
740.786	366.59
740.972	210.94
741.157	264.19
741.342	251.9
741.528	256
741.713	430.07
741.898	401.4
742.084	335.87
742.269	385.02
742.454	399.35
742.639	391.16
742.824	333.82
743.01	434.17
743.195	421.88
743.38	317.44
743.565	342.01
743.75	282.62
743.935	335.87
744.12	440.31
744.305	307.2
744.49	280.57
744.675	350.2
744.86	317.44
745.045	376.83
745.23	292.86
745.415	339.96
745.6	395.26
745.785	288.76
745.97	348.15
746.155	344.06
746.34	325.63
746.525	389.11
746.71	442.36
746.895	301.05
747.079	233.47
747.264	253.95
747.449	350.2
747.634	387.07
747.819	380.92
748.003	253.95
748.188	198.65
748.373	327.68
748.557	346.11
748.742	303.1
748.927	172.03
749.111	210.94
749.296	305.15
749.481	389.11
749.665	274.43
749.85	249.85
750.034	286.72
750.219	315.39
750.404	276.48
750.588	313.34
750.773	233.47
750.957	303.1
751.141	243.71
751.326	303.1
751.51	157.69
751.695	169.98
751.879	243.71
752.064	415.74
752.248	253.95
752.432	415.74
752.617	393.21
752.801	346.11
752.985	215.04
753.17	309.24
753.354	282.62
753.538	235.52
753.722	215.04
753.907	165.89
754.091	102.4
754.275	272.38
754.459	143.36
754.643	192.51
754.828	221.18
755.012	319.48
755.196	229.37
755.38	225.28
755.564	159.74
755.748	215.04
755.932	290.81
756.116	212.99
756.3	284.67
756.484	217.08
756.668	319.48
756.852	120.83
757.036	149.5
757.22	204.8
757.404	210.94
757.588	153.6
757.772	178.17
757.956	196.61
758.14	393.21
758.323	126.97
758.507	256
758.691	176.13
758.875	198.65
759.059	305.15
759.242	126.97
759.426	167.93
759.61	165.89
759.794	126.97
759.977	159.74
760.161	407.55
760.345	266.24
760.528	210.94
760.712	188.41
760.895	225.28
761.079	243.71
761.263	169.98
761.446	47.1
761.63	182.27
761.813	256
761.997	100.35
762.18	155.65
762.364	196.61
762.547	67.58
762.731	77.82
762.914	106.49
763.098	143.36
763.281	153.6
763.464	192.51
763.648	268.28
763.831	143.36
764.015	174.08
764.198	192.51
764.381	126.97
764.564	110.59
764.748	192.51
764.931	149.5
765.114	147.45
765.297	198.65
765.481	147.45
765.664	110.59
765.847	83.97
766.03	251.9
766.213	139.26
766.397	153.6
766.58	90.11
766.763	174.08
766.946	124.93
767.129	94.21
767.312	43.01
767.495	100.35
767.678	28.67
767.861	190.46
768.044	98.3
768.227	172.03
768.41	151.55
768.593	112.64
768.776	159.74
768.959	102.4
769.142	245.76
769.324	86.01
769.507	124.93
769.69	96.25
769.873	36.86
770.056	260.09
770.239	124.93
770.421	106.49
770.604	126.97
770.787	100.35
770.97	143.36
771.152	92.16
771.335	94.21
771.518	67.58
771.7	159.74
771.883	163.84
772.066	94.21
772.248	182.27
772.431	114.69
772.613	126.97
772.796	75.77
772.978	114.69
773.161	256
773.343	75.77
773.526	86.01
773.708	53.25
773.891	53.25
774.073	77.82
774.256	55.3
774.438	253.95
774.621	26.62
774.803	131.07
774.985	88.06
775.168	139.26
775.35	129.02
775.532	75.77
775.715	92.16
775.897	104.45
776.079	79.87
776.261	57.34
776.444	16.38
776.626	34.82
776.808	104.45
776.99	10.24
777.173	155.65
777.355	30.72
777.537	149.5
777.719	77.82
777.901	38.91
778.083	28.67
778.265	73.73
778.447	217.08
778.629	26.62
778.811	49.15
778.993	104.45
779.175	161.79
779.357	112.64
779.539	-20.48
779.721	69.63
779.903	98.3
780.085	34.82
780.267	67.58
780.449	114.69
780.631	129.02
780.812	192.51
780.994	102.4
781.176	18.43
781.358	40.96
781.54	34.82
781.721	151.55
781.903	98.3
782.085	116.73
782.267	45.06
782.448	-30.72
782.63	69.63
782.812	61.44
782.993	116.73
783.175	18.43
783.357	22.53
783.538	59.39
783.72	16.38
783.901	73.73
784.083	53.25
784.264	30.72
784.446	47.1
784.627	-53.25
784.809	8.19
784.99	30.72
785.172	43.01
785.353	53.25
785.535	79.87
785.716	2.05
785.897	26.62
786.079	4.1
786.26	55.3
786.441	36.86
786.623	-65.53
786.804	-40.96
786.985	96.25
787.167	55.3
787.348	184.32
787.529	-59.39
787.71	178.17
787.891	63.49
788.073	-63.49
788.254	-75.77
788.435	124.93
788.616	141.31
788.797	-71.68
788.978	14.34
789.159	-26.62
789.34	8.19
789.522	79.87
789.703	-51.2
789.884	24.58
790.065	65.54
790.246	151.55
790.427	0
790.607	106.49
790.788	77.82
790.969	-30.72
791.15	77.82
791.331	-10.24
791.512	-18.43
791.693	-55.3
791.874	-18.43
792.054	110.59
792.235	120.83
792.416	-92.16
792.597	-18.43
792.778	104.45
792.958	28.67
793.139	4.1
793.32	4.1
793.5	4.1
793.681	75.77
793.862	126.97
794.042	8.19
794.223	-34.82
794.404	-12.29
794.584	-65.53
794.765	-34.82
794.945	88.06
795.126	81.92
795.306	24.58
795.487	36.86
795.667	-8.19
795.848	22.53
796.028	71.68
796.209	71.68
796.389	47.1
796.57	73.73
796.75	14.34
796.93	-4.1
797.111	-34.82
797.291	-51.2
797.471	75.77
797.652	-2.05
797.832	-20.48
798.012	-4.1
798.192	-34.82
798.373	-55.3
798.553	-2.05
798.733	65.54
798.913	-67.58
799.093	22.53
799.274	-28.67
799.454	92.16
799.634	114.69
799.814	14.34
799.994	79.87
800.174	98.3
800.354	14.34
800.534	-69.63
800.714	65.54
800.894	-92.16
801.074	-40.96
801.254	-53.25
801.434	71.68
801.614	-38.91
801.794	-57.34
801.974	1767.4
802.154	6.14
802.334	67.58
802.514	-4.1
802.693	-2.05
802.873	34.82
803.053	49.15
803.233	24.58
803.413	26.62
803.592	-67.58
803.772	-43.01
803.952	47.1
804.131	-71.68
804.311	28.67
804.491	75.77
804.67	-86.01
804.85	-94.21
805.03	24.58
805.209	106.49
805.389	14.34
805.568	-6.14
805.748	-57.34
805.928	6.14
806.107	86.01
806.287	0
806.466	38.91
806.646	-65.53
806.825	6.14
807.004	14.34
807.184	61.44
807.363	10.24
807.543	4.1
807.722	-63.49
807.901	75.77
808.081	43.01
808.26	-69.63
808.439	26.62
808.619	6.14
808.798	-75.77
808.977	26.62
809.156	22.53
809.336	22.53
809.515	38.91
809.694	-20.48
809.873	-16.38
810.052	63.49
810.231	98.3
810.411	20.48
810.59	102.4
810.769	26.62
810.948	98.3
811.127	-69.63
811.306	4.1
811.485	-16.38
811.664	77.82
811.843	-88.06
812.022	-53.25
812.201	-30.72
812.38	-69.63
812.559	-8.19
812.737	28.67
812.916	-77.82
813.095	-18.43
813.274	57.34
813.453	26.62
813.632	79.87
813.811	24.58
813.989	-28.67
814.168	-32.77
814.347	-61.44
814.526	69.63
814.704	135.17
814.883	120.83
815.062	-65.53
815.24	26.62
815.419	-51.2
815.598	47.1
815.776	-110.59
815.955	-12.29
816.133	-75.77
816.312	26.62
816.49	-4.1
816.669	-2.05
816.847	43.01
817.026	88.06
817.204	6.14
817.383	18.43
817.561	-34.82
817.74	-10.24
817.918	-59.39
818.097	-6.14
818.275	-133.12
818.453	69.63
818.632	6.14
818.81	-34.82
818.988	-6.14
819.167	-96.25
819.345	16.38
819.523	-28.67
819.701	38.91
819.879	-8.19
820.058	69.63
820.236	32.77
820.414	-34.82
820.592	-69.63
820.77	-65.53
820.948	-81.92
821.127	-51.2
821.305	67.58
821.483	-32.77
821.661	10.24
821.839	30.72
822.017	-92.16
822.195	-92.16
822.373	49.15
822.551	-26.62
822.729	83.97
822.907	-6.14
823.085	59.39
823.262	-4.1
823.44	-12.29
823.618	2.05
823.796	-49.15
823.974	-2.05
824.152	10.24
824.329	-61.44
824.507	49.15
824.685	8.19
824.863	-4.1
825.04	8.19
825.218	32.77
825.396	-57.34
825.574	2.05
825.751	22.53
825.929	-14.34
826.107	-90.11
826.284	59.39
826.462	8.19
826.639	-83.97
826.817	-65.53
826.994	-57.34
827.172	-24.58
827.349	94.21
827.527	-6.14
827.704	-24.58
827.882	90.11
828.059	12.29
828.237	-6.14
828.414	65.54
828.591	-73.73
828.769	10.24
828.946	-69.63
829.124	81.92
829.301	100.35
829.478	-38.91
829.655	-32.77
829.833	83.97
830.01	-116.73
830.187	16.38
830.364	18.43
830.542	-20.48
830.719	114.69
830.896	38.91
831.073	108.54
831.25	67.58
831.427	8.19
831.604	14.34
831.782	-47.1
831.959	57.34
832.136	-4.1
832.313	61.44
832.49	-116.73
832.667	45.06
832.844	-43.01
833.021	-8.19
833.198	-36.86
833.374	-24.58
833.551	-8.19
833.728	-2.05
833.905	81.92
834.082	-137.21
834.259	69.63
834.436	112.64
834.612	-120.83
834.789	53.25
834.966	10.24
835.143	45.06
835.319	-61.44
835.496	86.01
835.673	-10.24
835.85	69.63
836.026	24.58
836.203	118.78
836.38	-10.24
836.556	-4.1
836.733	4.1
836.909	55.3
837.086	-77.82
837.262	-118.78
837.439	-16.38
837.616	-83.97
837.792	-63.49
837.968	6.14
838.145	-157.69
838.321	-55.3
838.498	34.82
838.674	0
838.851	88.06
839.027	-28.67
839.203	69.63
839.38	10.24
839.556	4.1
839.732	14.34
839.909	67.58
840.085	16.38
840.261	-94.21
840.437	-38.91
840.614	-51.2
840.79	67.58
840.966	-18.43
841.142	36.86
841.318	-73.73
841.494	-96.25
841.671	24.58
841.847	-92.16
842.023	-67.58
842.199	98.3
842.375	26.62
842.551	-143.36
842.727	-47.1
842.903	40.96
843.079	-141.31
843.255	86.01
843.431	22.53
843.607	6.14
843.783	-186.37
843.959	4.1
844.134	-110.59
844.31	135.17
844.486	-38.91
844.662	-49.15
844.838	-14.34
845.013	108.54
845.189	65.54
845.365	43.01
845.541	-45.06
845.716	-43.01
845.892	94.21
846.068	10.24
846.244	-38.91
846.419	0
846.595	12.29
846.77	-59.39
846.946	22.53
847.122	-20.48
847.297	36.86
847.473	145.41
847.648	-129.02
847.824	40.96
847.999	-104.45
848.175	-47.1
848.35	-30.72
848.526	122.88
848.701	79.87
848.876	57.34
849.052	61.44
849.227	-16.38
849.403	-20.48
849.578	-6.14
849.753	-38.91
849.929	8.19
850.104	-161.79
850.279	12.29
850.454	-20.48
850.63	-96.25
850.805	57.34
850.98	-71.68
851.155	-38.91
851.33	-12.29
851.505	-155.65
851.681	100.35
851.856	-14.34
852.031	104.45
852.206	40.96
852.381	-22.53
852.556	-79.87
852.731	28.67
852.906	16.38
853.081	43.01
853.256	-8.19
853.431	-26.62
853.606	-141.31
853.781	-55.3
853.956	-133.12
854.131	-47.1
854.305	-86.01
854.48	18.43
854.655	-67.58
854.83	-51.2
855.005	51.2
855.18	-55.3
855.354	-63.49
855.529	-6.14
855.704	-49.15
855.879	108.54
856.053	-6.14
856.228	20.48
856.403	-20.48
856.577	-20.48
856.752	-40.96
856.926	6.14
857.101	49.15
857.276	-38.91
857.45	59.39
857.625	124.93
857.799	24.58
857.974	63.49
858.148	-124.93
858.323	-14.34
858.497	10.24
858.672	-63.49
858.846	-77.82
859.02	114.69
859.195	-34.82
859.369	26.62
859.543	53.25
859.718	22.53
859.892	8.19
860.066	57.34
860.241	-36.86
860.415	-6.14
860.589	14.34
860.763	-71.68
860.938	45.06
861.112	61.44
861.286	36.86
861.46	122.88
861.634	-22.53
861.808	61.44
861.982	-86.01
862.157	-122.88
862.331	-75.77
862.505	-120.83
862.679	-102.4
862.853	-55.3
863.027	-22.53
863.201	100.35
863.375	-151.55
863.549	-57.34
863.722	-73.73
863.896	92.16
864.07	-90.11
864.244	-75.77
864.418	30.72
864.592	-4.1
864.766	0
864.939	73.73
865.113	-38.91
865.287	6.14
865.461	-114.69
865.634	-96.25
865.808	-10.24
865.982	-65.53
866.156	-110.59
866.329	-112.64
866.503	-2.05
866.676	10.24
866.85	8.19
867.024	-106.49
867.197	30.72
867.371	26.62
867.544	51.2
867.718	-110.59
867.891	69.63
868.065	-49.15
868.238	-2.05
868.412	98.3
868.585	-32.77
868.759	-73.73
868.932	-47.1
869.105	-120.83
869.279	-47.1
869.452	-61.44
869.625	43.01
869.799	-34.82
869.972	-116.73
870.145	-30.72
870.319	106.49
870.492	-86.01
870.665	-2.05
870.838	-90.11
871.011	-165.89
871.185	-47.1
871.358	-51.2
871.531	63.49
871.704	-45.06
871.877	-63.49
872.05	-43.01
872.223	-51.2
872.396	10.24
872.569	-28.67
872.742	-102.4
872.915	24.58
873.088	-55.3
873.261	-45.06
873.434	28.67
873.607	-24.58
873.78	108.54
873.953	-51.2
874.126	-71.68
874.299	18.43
874.471	-67.58
874.644	8.19
874.817	73.73
874.99	116.73
875.163	-26.62
875.335	75.77
875.508	-55.3
875.681	14.34
875.853	-120.83
876.026	-92.16
876.199	-14.34
876.371	-34.82
876.544	-116.73
876.717	-67.58
876.889	-38.91
877.062	4.1
877.234	-129.02
877.407	-45.06
877.579	-36.86
877.752	-73.73
877.924	112.64
878.097	-16.38
878.269	-24.58
878.442	-22.53
878.614	-71.68
878.786	-32.77
878.959	-28.67
879.131	40.96
879.303	-149.5
879.476	-47.1
879.648	40.96
879.82	-55.3
879.993	-38.91
880.165	-24.58
880.337	-81.92
880.509	-49.15
880.681	-122.88
880.854	-59.39
881.026	120.83
881.198	165.89
881.37	-12.29
881.542	-24.58
881.714	-14.34
881.886	-112.64
882.058	-8.19
882.23	-40.96
882.402	-75.77
882.574	-22.53
882.746	69.63
882.918	86.01
883.09	10.24
883.262	-81.92
883.434	-40.96
883.606	-129.02
883.778	-10.24
883.95	30.72
884.122	-81.92
884.293	79.87
884.465	-45.06
884.637	104.45
884.809	-63.49
884.98	34.82
885.152	-12.29
885.324	30.72
885.496	-55.3
885.667	26.62
885.839	-96.25
886.011	51.2
886.182	94.21
886.354	73.73
886.525	-8.19
886.697	24.58
886.869	-114.69
887.04	-36.86
887.212	104.45
887.383	159.74
887.555	-16.38
887.726	-77.82
887.897	-151.55
888.069	-8.19
888.24	45.06
888.412	-77.82
888.583	-32.77
888.754	-53.25
888.926	-169.98
889.097	-63.49
889.268	-124.93
889.44	-53.25
889.611	-147.45
889.782	-71.68
889.953	-55.3
890.125	67.58
890.296	-71.68
890.467	-67.58
890.638	-126.97
890.809	-51.2
890.98	-30.72
891.151	4.1
891.323	65.54
891.494	-40.96
891.665	20.48
891.836	-45.06
892.007	4.1
892.178	53.25
892.349	-22.53
892.52	-28.67
892.691	-34.82
892.862	-98.3
893.032	-98.3
893.203	-112.64
893.374	6.14
893.545	-30.72
893.716	22.53
893.887	53.25
894.057	-32.77
894.228	6.14
894.399	-49.15
894.57	40.96
894.74	-102.4
894.911	-45.06
895.082	-75.77
895.253	-71.68
895.423	-10.24
895.594	40.96
895.764	51.2
895.935	0
896.106	-2.05
896.276	-106.49
896.447	14.34
896.617	-28.67
896.788	-90.11
896.958	-47.1
897.129	-14.34
897.299	-81.92
897.47	106.49
897.64	45.06
897.81	-10.24
897.981	-67.58
898.151	-24.58
898.322	-2.05
898.492	118.78
898.662	-143.36
898.832	-2.05
899.003	0
899.173	92.16
899.343	-108.54
899.513	-104.45
