Data from USB4F104151__12__09-25-04-624.txt Node

Date: Wed Feb 26 09:25:04 EST 2025
User: louis
Spectrometer: USB4F10415
Trigger mode: 4
Integration Time (sec): 1.000000E-1
Scans to average: 1
Electric dark correction enabled: true
Nonlinearity correction enabled: false
Boxcar width: 0
XAxis mode: Wavelengths
Number of Pixels in Spectrum: 3648
>>>>>Begin Spectral Data<<<<<
178.204	-340.82
178.424	-340.82
178.644	-340.82
178.864	-351.06
179.084	-344.91
179.304	-11.09
179.524	-15.19
179.744	-76.63
179.964	56.49
180.184	-33.62
180.404	44.2
180.624	27.82
180.844	-25.43
181.064	-54.1
181.283	29.87
181.503	11.43
181.723	46.25
181.943	-115.54
182.163	150.7
182.383	-62.29
182.602	111.78
182.822	105.64
183.042	58.54
183.262	-7
183.482	27.82
183.701	-9.05
183.921	-13.14
184.141	-9.05
184.361	81.07
184.58	-11.09
184.8	-7
185.02	11.43
185.239	87.21
185.459	-21.33
185.679	107.69
185.898	-127.83
186.118	17.58
186.338	23.72
186.557	74.92
186.777	-93.01
186.997	-140.12
187.216	48.3
187.436	117.93
187.655	66.73
187.875	122.02
188.095	25.77
188.314	95.4
188.534	105.64
188.753	17.58
188.973	126.12
189.192	119.98
189.412	21.67
189.631	105.64
189.851	1.19
190.07	138.41
190.29	42.15
190.509	44.2
190.729	15.53
190.948	179.37
191.168	220.33
191.387	72.87
191.607	-54.1
191.826	15.53
192.045	70.83
192.265	42.15
192.484	-54.1
192.704	-23.38
192.923	-50
193.142	191.66
193.362	68.78
193.581	81.07
193.8	58.54
194.02	40.11
194.239	-23.38
194.458	27.82
194.678	50.35
194.897	-4.95
195.116	17.58
195.335	64.68
195.555	50.35
195.774	-7
195.993	74.92
196.212	33.96
196.432	-45.91
196.651	17.58
196.87	36.01
197.089	212.14
197.308	25.77
197.528	46.25
197.747	-95.06
197.966	52.39
198.185	130.22
198.404	3.24
198.623	150.7
198.842	27.82
199.062	31.91
199.281	33.96
199.5	-0.85
199.719	113.83
199.938	44.2
200.157	132.26
200.376	87.21
200.595	93.35
200.814	83.11
201.033	44.2
201.252	117.93
201.471	17.58
201.69	72.87
201.909	36.01
202.128	87.21
202.347	64.68
202.566	5.29
202.785	-70.48
203.004	-29.52
203.223	195.75
203.442	23.72
203.661	-41.81
203.879	109.74
204.098	119.98
204.317	3.24
204.536	142.5
204.755	81.07
204.974	113.83
205.193	19.63
205.411	103.59
205.63	95.4
205.849	19.63
206.068	44.2
206.287	-29.52
206.505	126.12
206.724	-54.1
206.943	-45.91
207.162	-27.48
207.381	44.2
207.599	27.82
207.818	48.3
208.037	11.43
208.255	-35.67
208.474	-19.29
208.693	7.34
208.911	27.82
209.13	38.06
209.349	115.88
209.567	105.64
209.786	44.2
210.005	33.96
210.223	23.72
210.442	-35.67
210.661	-29.52
210.879	3.24
211.098	113.83
211.316	19.63
211.535	101.55
211.753	-31.57
211.972	99.5
212.191	76.97
212.409	83.11
212.628	95.4
212.846	-29.52
213.065	66.73
213.283	175.27
213.502	-21.33
213.72	9.39
213.938	56.49
214.157	60.59
214.375	46.25
214.594	46.25
214.812	68.78
215.031	3.24
215.249	-0.85
215.467	-0.85
215.686	7.34
215.904	76.97
216.122	-0.85
216.341	99.5
216.559	40.11
216.778	91.31
216.996	109.74
217.214	-37.72
217.432	50.35
217.651	-84.82
217.869	-13.14
218.087	-2.9
218.306	-62.29
218.524	15.53
218.742	-2.9
218.96	160.94
219.179	17.58
219.397	15.53
219.615	138.41
219.833	138.41
220.051	-9.05
220.27	91.31
220.488	36.01
220.706	31.91
220.924	-35.67
221.142	-72.53
221.36	31.91
221.578	68.78
221.796	7.34
222.015	9.39
222.233	62.63
222.451	99.5
222.669	-7
222.887	25.77
223.105	-45.91
223.323	27.82
223.541	3.24
223.759	72.87
223.977	68.78
224.195	177.32
224.413	76.97
224.631	60.59
224.849	48.3
225.067	148.65
225.285	-37.72
225.503	36.01
225.721	-144.21
225.939	52.39
226.157	-21.33
226.375	205.99
226.592	-23.38
226.81	21.67
227.028	72.87
227.246	150.7
227.464	-41.81
227.682	124.07
227.9	150.7
228.117	56.49
228.335	60.59
228.553	52.39
228.771	31.91
228.989	56.49
229.206	124.07
229.424	-25.43
229.642	50.35
229.86	-4.95
230.077	58.54
230.295	76.97
230.513	105.64
230.731	42.15
230.948	128.17
231.166	107.69
231.384	11.43
231.601	25.77
231.819	79.02
232.037	-27.48
232.254	27.82
232.472	1.19
232.689	23.72
232.907	56.49
233.125	-45.91
233.342	-133.97
233.56	72.87
233.777	-52.05
233.995	31.91
234.213	38.06
234.43	128.17
234.648	-31.57
234.865	-121.68
235.083	-37.72
235.3	7.34
235.518	93.35
235.735	132.26
235.953	74.92
236.17	-21.33
236.388	-13.14
236.605	9.39
236.822	56.49
237.04	76.97
237.257	64.68
237.475	36.01
237.692	44.2
237.909	3.24
238.127	-25.43
238.344	44.2
238.562	11.43
238.779	-54.1
238.996	-58.2
239.214	46.25
239.431	117.93
239.648	11.43
239.865	76.97
240.083	81.07
240.3	9.39
240.517	-23.38
240.735	70.83
240.952	148.65
241.169	46.25
241.386	44.2
241.603	-45.91
241.821	-97.11
242.038	101.55
242.255	68.78
242.472	23.72
242.689	42.15
242.907	44.2
243.124	29.87
243.341	-2.9
243.558	31.91
243.775	-78.68
243.992	-2.9
244.209	3.24
244.426	117.93
244.643	85.16
244.86	87.21
245.078	72.87
245.295	87.21
245.512	3.24
245.729	-21.33
245.946	-11.09
246.163	36.01
246.38	-7
246.597	3.24
246.814	58.54
247.031	62.63
247.248	42.15
247.464	29.87
247.681	-35.67
247.898	70.83
248.115	117.93
248.332	-25.43
248.549	140.46
248.766	119.98
248.983	48.3
249.2	25.77
249.417	60.59
249.633	48.3
249.85	130.22
250.067	-39.76
250.284	13.48
250.501	-19.29
250.717	44.2
250.934	-119.64
251.151	62.63
251.368	85.16
251.585	11.43
251.801	-19.29
252.018	-25.43
252.235	81.07
252.451	-54.1
252.668	29.87
252.885	21.67
253.102	89.26
253.318	66.73
253.535	-47.96
253.752	7.34
253.968	-4.95
254.185	-39.76
254.401	40.11
254.618	42.15
254.835	-39.76
255.051	99.5
255.268	3.24
255.484	52.39
255.701	38.06
255.917	64.68
256.134	-29.52
256.351	40.11
256.567	-50
256.784	17.58
257	-121.68
257.217	111.78
257.433	58.54
257.65	1.19
257.866	124.07
258.082	1.19
258.299	-109.4
258.515	48.3
258.732	-33.62
258.948	-17.24
259.165	-4.95
259.381	-39.76
259.597	103.59
259.814	19.63
260.03	7.34
260.246	-23.38
260.463	134.31
260.679	122.02
260.895	-54.1
261.112	40.11
261.328	68.78
261.544	-37.72
261.761	181.42
261.977	-15.19
262.193	-93.01
262.409	128.17
262.626	64.68
262.842	38.06
263.058	60.59
263.274	113.83
263.49	85.16
263.707	-0.85
263.923	76.97
264.139	-127.83
264.355	70.83
264.571	85.16
264.787	52.39
265.004	95.4
265.22	17.58
265.436	52.39
265.652	3.24
265.868	113.83
266.084	-13.14
266.3	52.39
266.516	-13.14
266.732	21.67
266.948	19.63
267.164	-4.95
267.38	117.93
267.596	27.82
267.812	107.69
268.028	74.92
268.244	-43.86
268.46	9.39
268.676	36.01
268.892	1.19
269.108	-35.67
269.324	15.53
269.54	-119.64
269.756	70.83
269.972	-29.52
270.188	11.43
270.403	-56.15
270.619	46.25
270.835	23.72
271.051	23.72
271.267	-9.05
271.483	-52.05
271.698	117.93
271.914	-7
272.13	-21.33
272.346	31.91
272.562	31.91
272.777	36.01
272.993	-0.85
273.209	11.43
273.425	31.91
273.64	13.48
273.856	68.78
274.072	-0.85
274.287	19.63
274.503	50.35
274.719	91.31
274.934	48.3
275.15	-50
275.366	17.58
275.581	-86.87
275.797	-11.09
276.012	-9.05
276.228	-43.86
276.444	31.91
276.659	93.35
276.875	-17.24
277.09	-43.86
277.306	-13.14
277.521	25.77
277.737	17.58
277.952	101.55
278.168	70.83
278.383	-21.33
278.599	-43.86
278.814	7.34
279.03	76.97
279.245	126.12
279.461	-19.29
279.676	83.11
279.892	-58.2
280.107	-13.14
280.322	-13.14
280.538	60.59
280.753	-50
280.969	79.02
281.184	36.01
281.399	101.55
281.615	76.97
281.83	44.2
282.045	-43.86
282.26	68.78
282.476	48.3
282.691	3.24
282.906	101.55
283.122	5.29
283.337	21.67
283.552	11.43
283.767	7.34
283.983	134.31
284.198	11.43
284.413	33.96
284.628	-41.81
284.843	33.96
285.058	122.02
285.274	-11.09
285.489	-17.24
285.704	76.97
285.919	-13.14
286.134	44.2
286.349	56.49
286.564	-43.86
286.779	52.39
286.995	89.26
287.21	-29.52
287.425	56.49
287.64	-29.52
287.855	72.87
288.07	-27.48
288.285	117.93
288.5	56.49
288.715	17.58
288.93	7.34
289.145	-9.05
289.36	66.73
289.575	25.77
289.79	113.83
290.004	-58.2
290.219	66.73
290.434	76.97
290.649	-21.33
290.864	-13.14
291.079	-15.19
291.294	21.67
291.509	1.19
291.724	23.72
291.938	130.22
292.153	48.3
292.368	19.63
292.583	-0.85
292.798	40.11
293.012	46.25
293.227	101.55
293.442	27.82
293.657	115.88
293.871	111.78
294.086	42.15
294.301	162.98
294.516	56.49
294.73	1.19
294.945	17.58
295.16	-11.09
295.374	99.5
295.589	117.93
295.804	3.24
296.018	-45.91
296.233	122.02
296.447	42.15
296.662	-33.62
296.877	109.74
297.091	23.72
297.306	-19.29
297.52	38.06
297.735	60.59
297.949	81.07
298.164	113.83
298.378	25.77
298.593	-50
298.807	-80.72
299.022	42.15
299.236	83.11
299.451	42.15
299.665	7.34
299.88	31.91
300.094	50.35
300.309	56.49
300.523	33.96
300.737	3.24
300.952	9.39
301.166	-25.43
301.381	-80.72
301.595	40.11
301.809	36.01
302.024	-25.43
302.238	-68.44
302.452	68.78
302.667	17.58
302.881	146.6
303.095	74.92
303.309	-97.11
303.524	44.2
303.738	-17.24
303.952	-66.39
304.166	15.53
304.381	-84.82
304.595	154.79
304.809	-0.85
305.023	72.87
305.237	101.55
305.452	-0.85
305.666	72.87
305.88	74.92
306.094	76.97
306.308	19.63
306.522	105.64
306.736	66.73
306.95	72.87
307.164	-23.38
307.379	-4.95
307.593	105.64
307.807	154.79
308.021	21.67
308.235	56.49
308.449	-41.81
308.663	93.35
308.877	169.13
309.091	15.53
309.305	52.39
309.519	-13.14
309.733	109.74
309.947	-99.16
310.161	56.49
310.374	-0.85
310.588	101.55
310.802	-41.81
311.016	27.82
311.23	81.07
311.444	5.29
311.658	-33.62
311.872	99.5
312.085	122.02
312.299	183.46
312.513	117.93
312.727	68.78
312.941	5.29
313.154	74.92
313.368	36.01
313.582	25.77
313.796	91.31
314.009	124.07
314.223	76.97
314.437	11.43
314.651	111.78
314.864	-62.29
315.078	-29.52
315.292	-56.15
315.505	27.82
315.719	-47.96
315.933	74.92
316.146	27.82
316.36	-31.57
316.573	95.4
316.787	-7
317.001	15.53
317.214	-43.86
317.428	134.31
317.641	17.58
317.855	9.39
318.068	87.21
318.282	40.11
318.495	165.03
318.709	66.73
318.922	27.82
319.136	58.54
319.349	99.5
319.563	15.53
319.776	44.2
319.99	-78.68
320.203	29.87
320.417	52.39
320.63	109.74
320.843	150.7
321.057	50.35
321.27	19.63
321.483	-25.43
321.697	70.83
321.91	-37.72
322.124	42.15
322.337	105.64
322.55	-23.38
322.763	64.68
322.977	-31.57
323.19	-15.19
323.403	19.63
323.617	3.24
323.83	95.4
324.043	-47.96
324.256	15.53
324.469	-21.33
324.683	33.96
324.896	11.43
325.109	48.3
325.322	1.19
325.535	-4.95
325.748	58.54
325.962	29.87
326.175	40.11
326.388	50.35
326.601	72.87
326.814	19.63
327.027	68.78
327.24	111.78
327.453	-88.92
327.666	111.78
327.879	103.59
328.092	130.22
328.305	-0.85
328.518	7.34
328.731	3.24
328.944	81.07
329.157	-11.09
329.37	23.72
329.583	146.6
329.796	111.78
330.009	-113.49
330.222	13.48
330.435	99.5
330.648	81.07
330.861	40.11
331.073	76.97
331.286	160.94
331.499	68.78
331.712	-86.87
331.925	50.35
332.138	44.2
332.35	64.68
332.563	-27.48
332.776	68.78
332.989	-0.85
333.202	-4.95
333.414	-47.96
333.627	66.73
333.84	25.77
334.053	48.3
334.265	-7
334.478	54.44
334.691	23.72
334.903	93.35
335.116	27.82
335.329	-13.14
335.541	62.63
335.754	183.46
335.966	-21.33
336.179	25.77
336.392	9.39
336.604	-2.9
336.817	115.88
337.029	-15.19
337.242	-0.85
337.454	42.15
337.667	91.31
337.88	122.02
338.092	105.64
338.305	52.39
338.517	-43.86
338.729	52.39
338.942	81.07
339.154	27.82
339.367	-68.44
339.579	79.02
339.792	27.82
340.004	23.72
340.217	7.34
340.429	27.82
340.641	44.2
340.854	13.48
341.066	-25.43
341.278	91.31
341.491	117.93
341.703	62.63
341.915	-19.29
342.128	81.07
342.34	54.44
342.552	27.82
342.764	62.63
342.977	-9.05
343.189	44.2
343.401	54.44
343.613	-97.11
343.826	44.2
344.038	-41.81
344.25	97.45
344.462	7.34
344.674	52.39
344.886	81.07
345.099	68.78
345.311	72.87
345.523	-4.95
345.735	-76.63
345.947	66.73
346.159	60.59
346.371	72.87
346.583	-9.05
346.795	158.89
347.007	-33.62
347.219	93.35
347.431	-0.85
347.643	101.55
347.855	-62.29
348.067	146.6
348.279	-21.33
348.491	19.63
348.703	52.39
348.915	-21.33
349.127	7.34
349.339	54.44
349.551	33.96
349.763	79.02
349.975	-39.76
350.187	126.12
350.399	117.93
350.61	9.39
350.822	81.07
351.034	17.58
351.246	74.92
351.458	74.92
351.669	64.68
351.881	117.93
352.093	89.26
352.305	83.11
352.517	3.24
352.728	130.22
352.94	91.31
353.152	27.82
353.363	-13.14
353.575	105.64
353.787	117.93
353.999	50.35
354.21	175.27
354.422	-13.14
354.633	19.63
354.845	3.24
355.057	31.91
355.268	52.39
355.48	58.54
355.692	-70.48
355.903	44.2
356.115	27.82
356.326	-68.44
356.538	95.4
356.749	-4.95
356.961	130.22
357.172	17.58
357.384	-15.19
357.595	124.07
357.807	17.58
358.018	9.39
358.23	52.39
358.441	150.7
358.653	-17.24
358.864	44.2
359.075	17.58
359.287	74.92
359.498	27.82
359.709	-0.85
359.921	44.2
360.132	-21.33
360.344	7.34
360.555	31.91
360.766	97.45
360.977	5.29
361.189	97.45
361.4	42.15
361.611	54.44
361.823	115.88
362.034	50.35
362.245	-25.43
362.456	17.58
362.667	122.02
362.879	3.24
363.09	3.24
363.301	36.01
363.512	-21.33
363.723	-105.3
363.935	74.92
364.146	126.12
364.357	52.39
364.568	115.88
364.779	-101.2
364.99	60.59
365.201	54.44
365.412	76.97
365.623	-31.57
365.834	19.63
366.045	48.3
366.256	52.39
366.467	60.59
366.678	-19.29
366.889	9.39
367.1	1.19
367.311	40.11
367.522	-9.05
367.733	-39.76
367.944	74.92
368.155	99.5
368.366	68.78
368.577	93.35
368.788	91.31
368.999	50.35
369.209	93.35
369.42	205.99
369.631	275.62
369.842	83.11
370.053	36.01
370.264	44.2
370.474	-45.91
370.685	74.92
370.896	40.11
371.107	154.79
371.317	25.77
371.528	1.19
371.739	60.59
371.95	89.26
372.16	33.96
372.371	5.29
372.582	15.53
372.792	154.79
373.003	128.17
373.214	126.12
373.424	68.78
373.635	-74.58
373.846	58.54
374.056	60.59
374.267	48.3
374.477	60.59
374.688	-31.57
374.898	60.59
375.109	9.39
375.319	124.07
375.53	33.96
375.74	87.21
375.951	-41.81
376.161	21.67
376.372	17.58
376.582	3.24
376.793	38.06
377.003	-31.57
377.214	-60.24
377.424	89.26
377.635	91.31
377.845	7.34
378.055	91.31
378.266	-33.62
378.476	58.54
378.686	124.07
378.897	42.15
379.107	44.2
379.317	42.15
379.528	-62.29
379.738	148.65
379.948	-72.53
380.158	72.87
380.369	93.35
380.579	13.48
380.789	21.67
380.999	64.68
381.21	31.91
381.42	160.94
381.63	19.63
381.84	42.15
382.05	31.91
382.261	97.45
382.471	66.73
382.681	13.48
382.891	117.93
383.101	64.68
383.311	-21.33
383.521	19.63
383.731	50.35
383.941	76.97
384.151	-15.19
384.361	-23.38
384.571	36.01
384.781	33.96
384.991	181.42
385.201	154.79
385.411	89.26
385.621	72.87
385.831	-21.33
386.041	31.91
386.251	3.24
386.461	122.02
386.671	29.87
386.881	15.53
387.091	105.64
387.301	111.78
387.511	76.97
387.72	42.15
387.93	38.06
388.14	-19.29
388.35	33.96
388.56	40.11
388.769	162.98
388.979	5.29
389.189	-0.85
389.399	-0.85
389.609	74.92
389.818	36.01
390.028	-9.05
390.238	107.69
390.447	1.19
390.657	115.88
390.867	5.29
391.076	-37.72
391.286	68.78
391.496	36.01
391.705	33.96
391.915	93.35
392.125	103.59
392.334	7.34
392.544	138.41
392.753	5.29
392.963	19.63
393.172	36.01
393.382	7.34
393.591	173.22
393.801	40.11
394.01	132.26
394.22	109.74
394.429	11.43
394.639	-13.14
394.848	52.39
395.058	44.2
395.267	81.07
395.477	-37.72
395.686	52.39
395.895	142.5
396.105	140.46
396.314	76.97
396.524	-0.85
396.733	64.68
396.942	76.97
397.152	111.78
397.361	87.21
397.57	9.39
397.78	70.83
397.989	58.54
398.198	126.12
398.407	76.97
398.617	-37.72
398.826	50.35
399.035	36.01
399.244	60.59
399.453	91.31
399.663	66.73
399.872	54.44
400.081	13.48
400.29	79.02
400.499	-9.05
400.708	48.3
400.917	52.39
401.127	33.96
401.336	25.77
401.545	132.26
401.754	177.32
401.963	109.74
402.172	42.15
402.381	-23.38
402.59	-7
402.799	60.59
403.008	101.55
403.217	93.35
403.426	64.68
403.635	-13.14
403.844	11.43
404.053	-21.33
404.262	19.63
404.471	103.59
404.68	58.54
404.888	-11.09
405.097	48.3
405.306	31.91
405.515	72.87
405.724	85.16
405.933	117.93
406.142	23.72
406.35	76.97
406.559	5.29
406.768	-19.29
406.977	64.68
407.185	27.82
407.394	58.54
407.603	42.15
407.812	-25.43
408.02	140.46
408.229	42.15
408.438	70.83
408.646	-80.72
408.855	44.2
409.064	52.39
409.272	58.54
409.481	93.35
409.69	-50
409.898	-31.57
410.107	60.59
410.315	-0.85
410.524	9.39
410.733	66.73
410.941	42.15
411.15	107.69
411.358	128.17
411.567	126.12
411.775	3.24
411.984	-2.9
412.192	109.74
412.401	-66.39
412.609	50.35
412.818	85.16
413.026	101.55
413.234	1.19
413.443	21.67
413.651	-45.91
413.86	66.73
414.068	109.74
414.276	107.69
414.485	83.11
414.693	148.65
414.901	160.94
415.11	126.12
415.318	-62.29
415.526	36.01
415.734	-0.85
415.943	31.91
416.151	144.55
416.359	-17.24
416.567	68.78
416.776	19.63
416.984	152.74
417.192	195.75
417.4	44.2
417.608	62.63
417.817	7.34
418.025	122.02
418.233	160.94
418.441	-2.9
418.649	9.39
418.857	68.78
419.065	212.14
419.273	7.34
419.481	23.72
419.689	3.24
419.897	-17.24
420.105	-117.59
420.313	126.12
420.521	54.44
420.729	85.16
420.937	-54.1
421.145	44.2
421.353	60.59
421.561	183.46
421.769	99.5
421.977	66.73
422.185	25.77
422.393	25.77
422.601	128.17
422.809	-4.95
423.017	36.01
423.224	115.88
423.432	132.26
423.64	25.77
423.848	56.49
424.056	-4.95
424.263	68.78
424.471	91.31
424.679	89.26
424.887	1.19
425.094	117.93
425.302	31.91
425.51	64.68
425.718	109.74
425.925	56.49
426.133	-25.43
426.341	185.51
426.548	64.68
426.756	74.92
426.964	60.59
427.171	52.39
427.379	52.39
427.586	72.87
427.794	134.31
428.001	124.07
428.209	134.31
428.417	154.79
428.624	193.7
428.832	72.87
429.039	105.64
429.247	33.96
429.454	160.94
429.662	191.66
429.869	130.22
430.076	113.83
430.284	177.32
430.491	195.75
430.699	68.78
430.906	171.18
431.114	99.5
431.321	138.41
431.528	54.44
431.736	124.07
431.943	138.41
432.15	99.5
432.358	175.27
432.565	240.81
432.772	81.07
432.979	265.38
433.187	101.55
433.394	224.42
433.601	60.59
433.808	210.09
434.016	167.08
434.223	195.75
434.43	171.18
434.637	224.42
434.844	330.92
435.052	218.28
435.259	273.57
435.466	240.81
435.673	179.37
435.88	234.66
436.087	312.49
436.294	330.92
436.501	224.42
436.708	244.9
436.915	267.43
437.122	318.63
437.329	228.52
437.537	322.73
437.743	271.53
437.95	404.64
438.157	400.55
438.364	294.05
438.571	330.92
438.778	402.6
438.985	459.94
439.192	543.91
439.399	312.49
439.606	363.69
439.813	494.76
440.02	541.86
440.227	531.62
440.433	533.67
440.64	431.27
440.847	449.7
441.054	529.57
441.261	582.82
441.467	552.1
441.674	511.14
441.881	621.73
442.088	593.06
442.294	709.79
442.501	699.55
442.708	822.43
442.914	728.22
443.121	707.74
443.328	836.77
443.534	763.04
443.741	765.09
443.948	830.62
444.154	883.87
444.361	1057.95
444.568	877.73
444.774	887.97
444.981	838.81
445.187	1043.61
445.394	1039.51
445.6	994.46
445.807	1176.73
446.013	1174.68
446.22	1059.99
446.426	1232.02
446.633	1297.56
446.839	1565.84
447.046	1326.23
447.252	1442.96
447.459	1531.03
447.665	1436.82
447.871	1623.19
448.078	1805.46
448.284	1688.72
448.491	1854.61
448.697	1916.05
448.903	1868.94
449.11	1973.39
449.316	2002.06
449.522	2122.89
449.728	2258.06
449.935	2335.88
450.141	2342.02
450.347	2542.72
450.553	2399.37
450.76	2552.96
450.966	2534.53
451.172	2854.02
451.378	2868.35
451.584	2911.36
451.791	2995.32
451.997	3296.38
452.203	3202.17
452.409	3478.65
452.615	3681.39
452.821	3480.69
453.027	3427.45
453.233	3996.78
453.44	3857.52
453.646	4199.53
453.852	4256.87
454.058	4316.26
454.264	4598.88
454.47	4729.95
454.676	4826.21
454.882	5291.1
455.088	5057.63
455.294	5418.07
455.5	5598.29
455.705	5854.29
455.911	6003.79
456.117	6136.91
456.323	6319.18
456.529	6413.38
456.735	7058.49
456.941	7042.11
457.147	7416.89
457.352	7709.75
457.558	7918.64
457.764	8326.19
457.97	8383.53
458.176	8739.88
458.381	9282.59
458.587	9497.63
458.793	9862.16
458.999	9946.13
459.204	11138.05
459.41	11500.54
459.616	11287.55
459.821	12028.92
460.027	12565.48
460.233	13241.31
460.438	13220.83
460.644	13796.31
460.85	14048.21
461.055	14429.13
461.261	15403.97
461.466	14742.47
461.672	15322.05
461.878	17265.57
462.083	16868.27
462.289	17296.29
462.494	17943.45
462.7	18078.61
462.905	18486.16
463.111	19817.34
463.316	20837.23
463.522	21183.34
463.727	21887.84
463.932	22825.81
464.138	23501.64
464.343	24202.04
464.549	24462.13
464.754	26239.77
464.959	26770.19
465.165	27532.04
465.37	27130.64
465.575	27167.5
465.781	28850.93
465.986	30118.62
466.191	29385.45
466.397	29768.42
466.602	29020.91
466.807	30554.84
467.012	31199.95
467.218	31636.17
467.423	31695.56
467.628	32701.11
467.833	34468.51
468.038	33759.91
468.244	33139.38
468.449	34931.35
468.654	34134.69
468.859	34075.3
469.064	33835.69
469.269	33378.99
469.474	33675.94
469.679	34425.5
469.885	33569.45
470.09	33960.61
470.295	33995.43
470.5	33278.64
470.705	33350.32
470.91	32793.27
471.115	32279.23
471.32	32682.68
471.525	32336.57
471.73	31492.81
471.935	31462.09
472.139	30071.52
472.344	30325.47
472.549	30016.22
472.754	29473.51
472.959	28936.95
473.164	27667.2
473.369	27630.34
473.574	28439.29
473.778	27482.89
473.983	27118.35
474.188	26995.47
474.393	25482.02
474.598	25373.48
474.802	24875.82
475.007	24607.54
475.212	24388.41
475.417	23692.1
475.621	23190.34
475.826	23100.23
476.031	22268.76
476.235	21705.57
476.44	21844.83
476.645	21545.83
476.849	21074.79
477.054	20636.53
477.259	20063.1
477.463	20394.87
477.668	19921.79
477.872	19622.78
478.077	19364.74
478.282	18533.26
478.486	18504.59
478.691	18338.71
478.895	18217.88
479.1	17904.54
479.304	18058.14
479.509	17046.44
479.713	17652.64
479.918	17038.25
480.122	16638.89
480.326	16782.25
480.531	16896.94
480.735	16530.35
480.94	16171.96
481.144	16804.78
481.348	15995.83
481.553	16239.54
481.757	15698.88
481.961	15963.06
482.166	15764.41
482.37	15561.66
482.574	15281.09
482.778	15229.89
482.983	15375.3
483.187	15295.43
483.391	15186.88
483.595	14826.44
483.8	14525.39
484.004	14527.44
484.208	14912.46
484.412	14298.06
484.616	14093.27
484.821	14115.8
485.025	13745.11
485.229	13829.08
485.433	13399.01
485.637	13306.85
485.841	13423.58
486.045	13186.02
486.249	12811.24
486.453	12493.8
486.657	12399.6
486.861	12342.25
487.065	11975.67
487.269	12012.53
487.473	11598.84
487.677	11811.83
487.881	11652.09
488.085	11160.58
488.289	11226.11
488.493	10841.09
488.697	10914.82
488.901	10562.57
489.105	10335.24
489.309	10173.46
489.512	10177.55
489.716	9686.04
489.92	9792.53
490.124	9487.39
490.328	9503.77
490.531	9186.33
490.735	8918.05
490.939	8834.08
491.143	8551.46
491.346	8432.68
491.55	8522.79
491.754	8244.27
491.958	8037.42
492.161	8072.24
492.365	7865.39
492.569	7732.28
492.772	7699.51
492.976	7595.06
493.18	7470.14
493.383	7322.68
493.587	7251
493.79	7238.72
493.994	6921.28
494.197	7203.9
494.401	7087.17
494.605	6753.35
494.808	6927.42
495.012	6646.85
495.215	6890.56
495.419	6700.1
495.622	6360.14
495.825	6442.06
496.029	6528.07
496.232	6679.62
496.436	6407.24
496.639	6538.31
496.843	6323.27
497.046	6366.28
497.249	6458.44
497.453	6452.3
497.656	6210.64
497.859	6280.27
498.063	6466.63
498.266	6450.25
498.469	6372.43
498.673	6589.51
498.876	6548.55
499.079	6483.02
499.282	6401.1
499.485	6573.13
499.689	6386.76
499.892	6687.81
500.095	6499.4
500.298	6667.33
500.501	6587.46
500.705	6800.45
500.908	6870.08
501.111	6710.34
501.314	6884.42
501.517	7064.64
501.72	7007.3
501.923	6964.29
502.126	7093.31
502.329	7408.7
502.532	7171.13
502.735	7273.53
502.938	7502.9
503.141	7494.71
503.344	7545.91
503.547	7736.37
503.75	7728.18
503.953	7941.17
504.156	7978.03
504.359	8184.88
504.562	8289.32
504.765	8193.07
504.968	8485.93
505.17	8557.61
505.373	8805.41
505.576	8774.69
505.779	9012.26
505.982	8873
506.185	9292.83
506.387	9382.94
506.59	9571.35
506.793	9710.61
506.996	10013.71
507.198	10161.17
507.401	10144.78
507.604	10617.86
507.807	10701.83
508.009	10873.86
508.212	11047.94
508.415	11164.67
508.617	11533.31
508.82	11488.25
509.022	11930.61
509.225	12176.37
509.428	12233.71
509.63	12692.46
509.833	12860.39
510.035	13319.14
510.238	13259.74
510.44	13624.28
510.643	14291.92
510.845	14281.68
511.048	14312.4
511.25	14775.24
511.453	15281.09
511.655	15909.82
511.858	15909.82
512.06	16761.77
512.262	16907.18
512.465	16837.55
512.667	17247.14
512.87	17793.95
513.072	17951.64
513.274	18928.52
513.477	18899.85
513.679	19530.62
513.881	19942.27
514.084	20429.68
514.286	20882.28
514.488	21310.31
514.69	21988.19
514.893	22571.86
515.095	22614.87
515.297	23079.75
515.499	23810.88
515.701	24038.2
515.904	24879.92
516.106	25424.68
516.308	25592.61
516.51	26596.12
516.712	26743.57
516.914	27476.74
517.116	27976.45
517.318	28392.19
517.52	29186.8
517.722	29147.89
517.925	30014.18
518.127	30409.43
518.329	31001.3
518.531	31113.94
518.733	32379.58
518.935	32608.95
519.136	32832.18
519.338	33862.31
519.54	34128.55
519.742	35007.12
519.944	35035.8
520.146	35592.84
520.348	36594.3
520.55	36639.36
520.752	36881.02
520.954	37917.29
521.155	37749.35
521.357	38670.94
521.559	38931.03
521.761	40237.64
521.963	39615.05
522.164	40204.87
522.366	40258.12
522.568	41290.29
522.77	41341.49
522.971	41718.32
523.173	41988.65
523.375	42398.24
523.576	42127.91
523.778	42889.76
523.98	43442.71
524.181	42691.1
524.383	43291.16
524.584	43751.95
524.786	43446.8
524.988	43334.17
525.189	44112.39
525.391	43932.17
525.592	44083.72
525.794	44093.96
525.995	44083.72
526.197	43624.98
526.398	44268.04
526.6	44208.65
526.801	44358.15
527.003	44061.19
527.204	43905.55
527.406	44032.52
527.607	43176.47
527.808	43745.81
528.01	42283.56
528.211	42783.26
528.412	42922.52
528.614	42951.2
528.815	42336.8
529.016	42730.01
529.218	41835.05
529.419	41650.74
529.62	40981.05
529.822	40878.65
530.023	40258.12
530.224	40944.19
530.425	39969.35
530.626	38744.67
530.828	38818.39
531.029	39023.19
531.23	38437.47
531.431	37651.05
531.632	37519.98
531.833	36971.13
532.035	36496
532.236	36287.1
532.437	36006.53
532.638	35269.26
532.839	34898.58
533.04	34898.58
533.241	33862.31
533.442	34081.44
533.643	33544.87
533.844	32821.94
534.045	32608.95
534.246	31722.18
534.447	31711.94
534.648	31169.23
534.849	30913.23
535.05	29936.35
535.251	29936.35
535.451	29317.87
535.652	29324.01
535.853	28752.63
536.054	28523.26
536.255	28123.9
536.456	27702.02
536.657	27425.54
536.857	26858.26
537.058	26682.13
537.259	26370.84
537.46	25979.68
537.66	25664.29
537.861	25215.79
538.062	25090.86
538.263	24664.88
538.463	24111.93
538.664	24134.46
538.865	23913.28
539.065	23688
539.266	23225.16
539.466	22930.25
539.667	22551.38
539.868	22606.67
540.068	21998.43
540.269	21668.7
540.469	21627.74
540.67	21136.23
540.87	21156.71
541.071	20601.71
541.271	20751.21
541.472	20411.25
541.672	20175.73
541.873	19860.35
542.073	19417.99
542.274	19532.67
542.474	19348.36
542.675	18912.14
542.875	18733.96
543.075	18537.36
543.276	18365.33
543.476	18410.39
543.676	18215.83
543.877	17695.64
544.077	17372.07
544.277	17445.79
544.478	17171.36
544.678	16890.79
544.878	16931.75
545.078	16606.13
545.279	16407.47
545.479	16370.61
545.679	16151.48
545.879	16120.76
546.079	15889.34
546.28	15606.72
546.48	15295.43
546.68	15291.33
546.88	14980.04
547.08	14990.28
547.28	14797.77
547.48	14105.56
547.68	14347.22
547.88	13984.73
548.081	14029.78
548.281	13505.5
548.481	13470.69
548.681	13536.22
548.881	13337.57
549.081	13065.19
549.28	12962.79
549.48	12772.33
549.68	12622.83
549.88	12563.43
550.08	11957.24
550.28	12172.27
550.48	11996.15
550.68	11947
550.88	11641.85
551.08	11385.85
551.279	11205.63
551.479	11017.22
551.679	11082.75
551.879	10953.73
552.079	10918.92
552.278	10566.67
552.478	10503.18
552.678	10267.66
552.878	10241.04
553.077	9985.04
553.277	9675.8
553.477	9597.98
553.676	9354.27
553.876	9425.95
554.076	9108.51
554.275	9157.66
554.475	8823.84
554.674	8811.56
554.874	8584.23
555.074	8399.91
555.273	8188.97
555.473	8268.84
555.672	7971.89
555.872	7994.42
556.071	7924.79
556.271	7789.62
556.47	7650.36
556.67	7494.71
556.869	7275.58
557.068	7078.97
557.268	6978.62
557.467	6949.95
557.667	6906.95
557.866	6618.18
558.065	6579.27
558.265	6419.53
558.464	6190.16
558.663	6267.98
558.863	6261.84
559.062	6184.01
559.261	6089.81
559.461	6014.03
559.66	5747.79
559.859	5604.44
560.058	5536.85
560.258	5508.18
560.457	5549.14
560.656	5401.69
560.855	5176.41
561.054	5217.37
561.253	5055.58
561.453	5137.5
561.652	4975.71
561.851	4889.7
562.05	4801.63
562.249	4588.64
562.448	4639.84
562.647	4648.04
562.846	4619.36
563.045	4461.67
563.244	4383.85
563.443	4336.74
563.642	4289.64
563.841	4195.43
564.04	4156.52
564.239	4113.52
564.438	4015.21
564.637	3974.25
564.836	3806.32
565.035	3656.82
565.234	3550.32
565.432	3718.26
565.631	3755.12
565.83	3665.01
566.029	3406.97
566.228	3572.85
566.427	3544.18
566.625	3241.08
566.824	3292.28
567.023	3331.19
567.222	3157.11
567.42	3253.37
567.619	3193.98
567.818	3251.32
568.016	3279.99
568.215	3054.72
568.414	3021.95
568.612	2950.27
568.811	2919.55
569.01	2866.3
569.208	2827.39
569.407	2847.87
569.605	2786.43
569.804	2716.8
570.002	2587.78
570.201	2555.01
570.4	2686.08
570.598	2559.11
570.797	2403.46
570.995	2471.04
571.193	2466.95
571.392	2380.93
571.59	2278.54
571.789	2395.27
571.987	2284.68
572.186	2196.62
572.384	2167.95
572.582	2141.32
572.781	2303.11
572.979	1961.1
573.177	1985.68
573.376	1977.48
573.574	2014.35
573.772	1934.48
573.971	1903.76
574.169	1791.12
574.367	1895.57
574.565	1909.9
574.763	1862.8
574.962	1805.46
575.16	1819.79
575.358	1651.86
575.556	1756.3
575.754	1639.57
575.952	1668.24
576.151	1627.28
576.349	1668.24
576.547	1426.58
576.745	1492.12
576.943	1492.12
577.141	1412.25
577.339	1387.67
577.537	1522.84
577.735	1481.88
577.933	1440.92
578.131	1363.09
578.329	1428.63
578.527	1315.99
578.725	1313.94
578.923	1152.15
579.121	1338.52
579.319	1252.5
579.516	1234.07
579.714	1320.09
579.912	1207.45
580.11	1123.48
580.308	1088.67
580.506	1152.15
580.704	1057.95
580.901	1049.75
581.099	1191.06
581.297	1121.43
581.495	1043.61
581.692	961.69
581.89	1025.18
582.088	1057.95
582.285	1041.56
582.483	935.07
582.681	875.68
582.878	1002.65
583.076	959.64
583.274	869.53
583.471	1016.99
583.669	879.77
583.866	742.56
584.064	883.87
584.262	877.73
584.459	867.49
584.657	902.3
584.854	924.83
585.052	814.24
585.249	810.14
585.447	773.28
585.644	734.37
585.841	822.43
586.039	687.26
586.236	859.29
586.434	681.12
586.631	703.65
586.828	683.17
587.026	748.7
587.223	654.5
587.42	601.25
587.618	674.98
587.815	720.03
588.012	611.49
588.21	548
588.407	677.02
588.604	648.35
588.801	638.11
588.999	713.89
589.196	689.31
589.393	552.1
589.59	597.15
589.787	570.53
589.984	654.5
590.182	699.55
590.379	476.32
590.576	658.59
590.773	554.15
590.97	556.19
591.167	527.52
591.364	609.44
591.561	558.24
591.758	722.08
591.955	654.5
592.152	650.4
592.349	568.48
592.546	548
592.743	537.76
592.94	574.63
593.137	556.19
593.334	638.11
593.531	621.73
593.727	586.91
593.924	582.82
594.121	498.85
594.318	562.34
594.515	625.83
594.712	664.74
594.908	648.35
595.105	459.94
595.302	566.43
595.499	615.59
595.696	703.65
595.892	617.63
596.089	677.02
596.286	609.44
596.482	771.23
596.679	689.31
596.876	650.4
597.072	744.61
597.269	728.22
597.466	730.27
597.662	806.05
597.859	765.09
598.055	887.97
598.252	900.25
598.448	961.69
598.645	961.69
598.841	990.36
599.038	1027.23
599.234	1076.38
599.431	1146.01
599.627	1162.39
599.824	1213.59
600.02	1227.93
600.217	1264.79
600.413	1375.38
600.609	1346.71
600.806	1506.45
601.002	1510.55
601.198	1328.28
601.395	1547.41
601.591	1614.99
601.787	1666.19
601.984	1850.51
602.18	1778.83
602.376	1870.99
602.572	1920.14
602.769	2040.97
602.965	2155.66
603.161	2292.87
603.357	2335.88
603.553	2385.03
603.75	2454.66
603.946	2403.46
604.142	2329.74
604.338	2686.08
604.534	2798.72
604.73	2673.79
604.926	2802.82
605.122	3001.47
605.318	2935.93
605.514	3144.83
605.71	3159.16
605.906	3296.38
606.102	3456.12
606.298	3615.86
606.494	3730.55
606.69	3914.86
606.886	3923.05
607.082	4041.84
607.278	4203.63
607.474	4234.35
607.67	4357.22
607.866	4381.8
608.062	4654.18
608.257	4643.94
608.453	4867.17
608.649	4963.42
608.845	5041.25
609.041	5241.95
609.236	5303.39
609.432	5606.49
609.628	5684.31
609.824	5844.05
610.019	5872.72
610.215	5968.98
610.411	6286.41
610.606	6462.54
610.802	6444.1
610.998	6792.26
611.193	7085.12
611.389	7148.61
611.584	7203.9
611.78	7496.76
611.976	7719.99
612.171	7996.46
612.367	8277.04
612.562	8393.77
612.758	8504.36
612.953	8490.03
613.149	8983.59
613.344	9026.59
613.539	9409.56
613.735	9561.11
613.93	9972.75
614.126	10163.22
614.321	10742.79
614.517	10931.2
614.712	11052.03
614.907	11303.93
615.103	11430.91
615.298	11916.28
615.493	12229.62
615.688	12354.54
615.884	12995.56
616.079	13044.71
616.274	13241.31
616.47	13827.03
616.665	14210
616.86	14506.96
617.055	14885.83
617.25	15008.71
617.445	15467.45
617.641	15909.82
617.836	16317.36
618.031	16454.58
618.226	17144.74
618.421	17468.32
618.616	18234.26
618.811	18127.77
619.006	18705.29
619.201	18942.86
619.396	19794.81
619.591	19540.86
619.786	20478.83
619.981	20796.27
620.176	21461.86
620.371	21398.37
620.566	22317.91
620.761	22166.36
620.956	23026.51
621.151	23354.18
621.346	23845.69
621.541	24234.81
621.735	25107.24
621.93	24916.78
622.125	25568.04
622.32	25826.08
622.515	26506.01
622.709	26938.13
622.904	27497.22
623.099	27910.91
623.294	28476.15
623.488	28613.37
623.683	29491.94
623.878	29674.21
624.072	30487.26
624.267	30710.49
624.462	31466.19
624.656	31564.49
624.851	32350.91
625.046	32635.58
625.24	33188.53
625.435	33409.71
625.629	34097.83
625.824	34476.7
626.018	34851.48
626.213	34462.36
626.407	35934.85
626.602	35250.83
626.796	36348.54
626.991	37051
627.185	37020.28
627.38	37102.2
627.574	37331.57
627.768	37493.36
627.963	37898.86
628.157	37573.23
628.352	37954.15
628.546	37352.05
628.74	38117.99
628.935	37747.31
629.129	38001.25
629.323	37712.49
629.517	37524.08
629.712	37309.04
629.906	37319.28
630.1	36248.19
630.294	36711.03
630.489	36024.96
630.683	35863.18
630.877	34634.39
631.071	34407.07
631.265	33792.68
631.459	33217.2
631.653	32559.8
631.848	31763.14
632.042	31007.44
632.236	30548.7
632.43	29545.19
632.624	28979.95
632.818	27816.71
633.012	26956.56
633.206	26397.46
633.4	25434.92
633.594	24150.84
633.788	23839.55
633.982	22983.5
634.176	22274.9
634.369	21326.69
634.563	20433.78
634.757	19547.01
634.951	18975.63
635.145	18144.15
635.339	17740.7
635.533	16944.04
635.726	16231.35
635.92	15543.23
636.114	14904.26
636.308	14144.47
636.501	13831.13
636.695	13245.41
636.889	12565.48
637.083	12004.34
637.276	11365.37
637.47	11064.32
637.664	10884.1
637.857	10208.27
638.051	9929.75
638.244	9430.04
638.438	9124.9
638.632	8731.69
638.825	8207.41
639.019	7982.13
639.212	7646.26
639.406	7525.43
639.599	7023.68
639.793	6947.9
639.986	6546.5
640.18	6388.81
640.373	6114.38
640.567	5942.35
640.76	5614.68
640.954	5280.86
641.147	5106.78
641.34	4908.13
641.534	4824.16
641.727	4613.22
641.92	4455.53
642.114	4291.69
642.307	3976.3
642.5	4050.03
642.694	3791.98
642.887	3697.78
643.08	3636.34
643.273	3400.82
643.467	3286.14
643.66	3032.19
643.853	2866.3
644.046	2821.25
644.239	2911.36
644.432	2690.18
644.626	2512
644.819	2391.17
645.012	2452.61
645.205	2309.26
645.398	2227.34
645.591	2071.69
645.784	2026.64
645.977	1883.28
646.17	1934.48
646.363	1959.05
646.556	1664.15
646.749	1596.56
646.942	1510.55
647.135	1563.79
647.328	1500.31
647.521	1445.01
647.714	1356.95
647.907	1363.09
648.099	1295.51
648.292	1301.65
648.485	1248.41
648.678	1182.87
648.871	1080.47
649.064	1080.47
649.256	910.49
649.449	945.31
649.642	830.62
649.835	879.77
650.027	824.48
650.22	849.05
650.413	836.77
650.605	804
650.798	797.85
650.991	681.12
651.183	726.18
651.376	672.93
651.568	687.26
651.761	642.21
651.954	650.4
652.146	609.44
652.339	591.01
652.531	623.78
652.724	496.8
652.916	513.19
653.109	380.07
653.301	552.1
653.494	558.24
653.686	435.36
653.879	523.43
654.071	484.52
654.263	502.95
654.456	396.45
654.648	484.52
654.84	423.08
655.033	326.82
655.225	378.02
655.417	306.34
655.61	396.45
655.802	461.99
655.994	445.6
656.186	371.88
656.379	382.12
656.571	273.57
656.763	257.19
656.955	208.04
657.148	249
657.34	363.69
657.532	341.16
657.724	281.77
657.916	328.87
658.108	306.34
658.3	292.01
658.492	359.59
658.684	171.18
658.876	287.91
659.068	195.75
659.26	142.5
659.452	187.56
659.644	230.57
659.836	324.77
660.028	281.77
660.22	222.38
660.412	173.22
660.604	265.38
660.796	226.47
660.988	191.66
661.18	287.91
661.372	234.66
661.563	195.75
661.755	205.99
661.947	158.89
662.139	136.36
662.331	154.79
662.522	173.22
662.714	64.68
662.906	152.74
663.097	249
663.289	140.46
663.481	93.35
663.673	165.03
663.864	144.55
664.056	277.67
664.247	117.93
664.439	222.38
664.631	185.51
664.822	267.43
665.014	146.6
665.205	189.61
665.397	173.22
665.588	183.46
665.78	171.18
665.971	191.66
666.163	165.03
666.354	179.37
666.546	101.55
666.737	134.31
666.929	115.88
667.12	177.32
667.311	224.42
667.503	150.7
667.694	189.61
667.885	203.94
668.077	210.09
668.268	19.63
668.459	154.79
668.651	169.13
668.842	105.64
669.033	210.09
669.224	81.07
669.416	298.15
669.607	97.45
669.798	119.98
669.989	240.81
670.18	134.31
670.371	189.61
670.563	50.35
670.754	251.05
670.945	122.02
671.136	220.33
671.327	105.64
671.518	216.23
671.709	271.53
671.9	236.71
672.091	218.28
672.282	216.23
672.473	154.79
672.664	40.11
672.855	183.46
673.046	183.46
673.237	205.99
673.428	175.27
673.619	244.9
673.809	70.83
674	232.62
674.191	165.03
674.382	171.18
674.573	148.65
674.764	214.18
674.954	191.66
675.145	150.7
675.336	169.13
675.527	175.27
675.717	58.54
675.908	185.51
676.099	152.74
676.289	201.9
676.48	72.87
676.671	152.74
676.861	185.51
677.052	234.66
677.243	195.75
677.433	210.09
677.624	189.61
677.814	251.05
678.005	238.76
678.195	322.73
678.386	140.46
678.576	167.08
678.767	140.46
678.957	183.46
679.148	314.53
679.338	289.96
679.529	249
679.719	169.13
679.909	187.56
680.1	257.19
680.29	287.91
680.481	140.46
680.671	255.14
680.861	298.15
681.052	222.38
681.242	212.14
681.432	296.1
681.622	224.42
681.813	240.81
682.003	185.51
682.193	203.94
682.383	273.57
682.573	249
682.764	249
682.954	249
683.144	355.49
683.334	165.03
683.524	261.29
683.714	246.95
683.904	353.45
684.094	304.29
684.284	283.81
684.474	453.8
684.664	216.23
684.854	304.29
685.044	292.01
685.234	294.05
685.424	292.01
685.614	267.43
685.804	408.74
685.994	375.97
686.184	261.29
686.374	373.92
686.564	335.01
686.753	328.87
686.943	228.52
687.133	218.28
687.323	281.77
687.513	369.83
687.702	322.73
687.892	232.62
688.082	296.1
688.272	367.78
688.461	212.14
688.651	421.03
688.841	345.25
689.03	296.1
689.22	261.29
689.41	330.92
689.599	277.67
689.789	220.33
689.979	443.56
690.168	337.06
690.358	335.01
690.547	236.71
690.737	324.77
690.926	289.96
691.116	359.59
691.305	289.96
691.495	341.16
691.684	179.37
691.874	251.05
692.063	263.33
692.252	324.77
692.442	345.25
692.631	281.77
692.82	312.49
693.01	271.53
693.199	240.81
693.388	279.72
693.578	228.52
693.767	296.1
693.956	361.64
694.146	306.34
694.335	353.45
694.524	314.53
694.713	285.86
694.902	177.32
695.092	220.33
695.281	335.01
695.47	289.96
695.659	224.42
695.848	234.66
696.037	259.24
696.226	328.87
696.415	236.71
696.604	396.45
696.793	328.87
696.982	240.81
697.171	378.02
697.36	253.09
697.549	271.53
697.738	173.22
697.927	296.1
698.116	154.79
698.305	244.9
698.494	255.14
698.683	210.09
698.872	402.6
699.061	271.53
699.25	240.81
699.438	224.42
699.627	271.53
699.816	427.17
700.005	165.03
700.193	236.71
700.382	271.53
700.571	273.57
700.76	261.29
700.948	302.25
701.137	277.67
701.326	341.16
701.514	156.84
701.703	304.29
701.892	326.82
702.08	486.56
702.269	355.49
702.457	167.08
702.646	332.97
702.834	279.72
703.023	320.68
703.212	316.58
703.4	249
703.589	230.57
703.777	107.69
703.965	263.33
704.154	310.44
704.342	175.27
704.531	191.66
704.719	269.48
704.907	339.11
705.096	165.03
705.284	199.85
705.472	347.3
705.661	265.38
705.849	361.64
706.037	310.44
706.226	273.57
706.414	193.7
706.602	214.18
706.79	306.34
706.979	251.05
707.167	261.29
707.355	167.08
707.543	281.77
707.731	300.2
707.919	277.67
708.107	244.9
708.296	205.99
708.484	210.09
708.672	294.05
708.86	269.48
709.048	300.2
709.236	201.9
709.424	332.97
709.612	261.29
709.8	171.18
709.988	384.16
710.176	279.72
710.364	316.58
710.551	212.14
710.739	232.62
710.927	322.73
711.115	306.34
711.303	292.01
711.491	412.84
711.679	162.98
711.866	339.11
712.054	363.69
712.242	240.81
712.43	324.77
712.617	228.52
712.805	359.59
712.993	302.25
713.181	183.46
713.368	298.15
713.556	236.71
713.744	240.81
713.931	468.13
714.119	306.34
714.306	261.29
714.494	294.05
714.682	310.44
714.869	259.24
715.057	265.38
715.244	169.13
715.432	326.82
715.619	224.42
715.807	228.52
715.994	167.08
716.182	320.68
716.369	300.2
716.556	357.54
716.744	244.9
716.931	220.33
717.119	380.07
717.306	246.95
717.493	375.97
717.681	228.52
717.868	238.76
718.055	314.53
718.242	314.53
718.43	281.77
718.617	406.69
718.804	355.49
718.991	378.02
719.179	226.47
719.366	314.53
719.553	310.44
719.74	277.67
719.927	359.59
720.114	294.05
720.301	281.77
720.488	304.29
720.676	255.14
720.863	273.57
721.05	402.6
721.237	330.92
721.424	347.3
721.611	296.1
721.798	224.42
721.985	269.48
722.172	353.45
722.358	238.76
722.545	306.34
722.732	347.3
722.919	425.12
723.106	367.78
723.293	253.09
723.48	386.21
723.667	263.33
723.853	439.46
724.04	328.87
724.227	400.55
724.414	259.24
724.6	384.16
724.787	437.41
724.974	472.23
725.161	361.64
725.347	255.14
725.534	416.93
725.72	337.06
725.907	300.2
726.094	359.59
726.28	296.1
726.467	314.53
726.653	314.53
726.84	494.76
727.027	453.8
727.213	304.29
727.4	369.83
727.586	396.45
727.773	339.11
727.959	283.81
728.145	330.92
728.332	314.53
728.518	314.53
728.705	453.8
728.891	353.45
729.077	388.26
729.264	271.53
729.45	261.29
729.636	392.36
729.823	388.26
730.009	451.75
730.195	443.56
730.382	414.88
730.568	363.69
730.754	375.97
730.94	312.49
731.126	429.22
731.313	378.02
731.499	355.49
731.685	394.4
731.871	412.84
732.057	388.26
732.243	322.73
732.429	386.21
732.615	509.09
732.801	468.13
732.987	408.74
733.173	369.83
733.359	386.21
733.545	351.4
733.731	386.21
733.917	504.99
734.103	484.52
734.289	306.34
734.475	302.25
734.661	548
734.847	351.4
735.033	371.88
735.219	441.51
735.404	361.64
735.59	255.14
735.776	371.88
735.962	404.64
736.148	388.26
736.333	412.84
736.519	392.36
736.705	304.29
736.89	388.26
737.076	449.7
737.262	332.97
737.447	335.01
737.633	363.69
737.819	511.14
738.004	343.21
738.19	392.36
738.375	335.01
738.561	441.51
738.747	423.08
738.932	371.88
739.118	509.09
739.303	418.98
739.489	457.89
739.674	457.89
739.859	341.16
740.045	502.95
740.23	351.4
740.416	269.48
740.601	355.49
740.786	425.12
740.972	314.53
741.157	412.84
741.342	365.73
741.528	388.26
741.713	466.08
741.898	363.69
742.084	369.83
742.269	353.45
742.454	367.78
742.639	353.45
742.824	351.4
743.01	449.7
743.195	476.32
743.38	345.25
743.565	461.99
743.75	427.17
743.935	388.26
744.12	433.32
744.305	302.25
744.49	369.83
744.675	351.4
744.86	359.59
745.045	380.07
745.23	375.97
745.415	343.21
745.6	410.79
745.785	375.97
745.97	425.12
746.155	396.45
746.34	337.06
746.525	390.31
746.71	515.23
746.895	326.82
747.079	249
747.264	298.15
747.449	330.92
747.634	394.4
747.819	361.64
748.003	355.49
748.188	289.96
748.373	425.12
748.557	375.97
748.742	267.43
748.927	384.16
749.111	289.96
749.296	367.78
749.481	351.4
749.665	343.21
749.85	208.04
750.034	341.16
750.219	300.2
750.404	343.21
750.588	285.86
750.773	246.95
750.957	359.59
751.141	312.49
751.326	363.69
751.51	236.71
751.695	244.9
751.879	261.29
752.064	396.45
752.248	269.48
752.432	330.92
752.617	390.31
752.801	312.49
752.985	279.72
753.17	314.53
753.354	271.53
753.538	203.94
753.722	238.76
753.907	214.18
754.091	218.28
754.275	273.57
754.459	226.47
754.643	294.05
754.828	281.77
755.012	294.05
755.196	183.46
755.38	308.39
755.564	220.33
755.748	341.16
755.932	304.29
756.116	300.2
756.3	273.57
756.484	230.57
756.668	380.07
756.852	117.93
757.036	296.1
757.22	226.47
757.404	175.27
757.588	216.23
757.772	302.25
757.956	279.72
758.14	255.14
758.323	126.12
758.507	220.33
758.691	232.62
758.875	306.34
759.059	228.52
759.242	156.84
759.426	214.18
759.61	220.33
759.794	150.7
759.977	244.9
760.161	353.45
760.345	251.05
760.528	259.24
760.712	72.87
760.895	214.18
761.079	169.13
761.263	167.08
761.446	183.46
761.63	165.03
761.813	255.14
761.997	89.26
762.18	181.42
762.364	273.57
762.547	162.98
762.731	199.85
762.914	249
763.098	138.41
763.281	128.17
763.464	158.89
763.648	173.22
763.831	171.18
764.015	109.74
764.198	212.14
764.381	162.98
764.564	255.14
764.748	130.22
764.931	246.95
765.114	165.03
765.297	83.11
765.481	97.45
765.664	167.08
765.847	99.5
766.03	285.86
766.213	191.66
766.397	89.26
766.58	103.59
766.763	199.85
766.946	136.36
767.129	115.88
767.312	142.5
767.495	175.27
767.678	130.22
767.861	154.79
768.044	101.55
768.227	130.22
768.41	130.22
768.593	146.6
768.776	136.36
768.959	97.45
769.142	228.52
769.324	119.98
769.507	140.46
769.69	148.65
769.873	124.07
770.056	224.42
770.239	93.35
770.421	224.42
770.604	171.18
770.787	81.07
770.97	179.37
771.152	76.97
771.335	136.36
771.518	52.39
771.7	234.66
771.883	232.62
772.066	109.74
772.248	52.39
772.431	302.25
772.613	171.18
772.796	60.59
772.978	160.94
773.161	203.94
773.343	40.11
773.526	74.92
773.708	68.78
773.891	64.68
774.073	119.98
774.256	64.68
774.438	111.78
774.621	42.15
774.803	85.16
774.985	-17.24
775.168	154.79
775.35	115.88
775.532	175.27
775.715	107.69
775.897	124.07
776.079	33.96
776.261	50.35
776.444	175.27
776.626	134.31
776.808	48.3
776.99	40.11
777.173	76.97
777.355	95.4
777.537	91.31
777.719	64.68
777.901	64.68
778.083	-11.09
778.265	-56.15
778.447	167.08
778.629	52.39
778.811	91.31
778.993	119.98
779.175	68.78
779.357	52.39
779.539	27.82
779.721	101.55
779.903	95.4
780.085	48.3
780.267	117.93
780.449	42.15
780.631	76.97
780.812	171.18
780.994	42.15
781.176	107.69
781.358	91.31
781.54	36.01
781.721	58.54
781.903	97.45
782.085	31.91
782.267	183.46
782.448	-27.48
782.63	54.44
782.812	81.07
782.993	74.92
783.175	48.3
783.357	11.43
783.538	134.31
783.72	9.39
783.901	11.43
784.083	48.3
784.264	122.02
784.446	42.15
784.627	29.87
784.809	56.49
784.99	140.46
785.172	103.59
785.353	3.24
785.535	95.4
785.716	17.58
785.897	-11.09
786.079	40.11
786.26	124.07
786.441	134.31
786.623	-43.86
786.804	27.82
786.985	-33.62
787.167	122.02
787.348	44.2
787.529	27.82
787.71	160.94
787.891	83.11
788.073	62.63
788.254	-56.15
788.435	146.6
788.616	48.3
788.797	-66.39
788.978	19.63
789.159	19.63
789.34	76.97
789.522	31.91
789.703	9.39
789.884	17.58
790.065	97.45
790.246	152.74
790.427	40.11
790.607	195.75
790.788	19.63
790.969	-23.38
791.15	138.41
791.331	66.73
791.512	36.01
791.693	5.29
791.874	-11.09
792.054	199.85
792.235	52.39
792.416	17.58
792.597	-13.14
792.778	29.87
792.958	68.78
793.139	66.73
793.32	-17.24
793.5	1.19
793.681	107.69
793.862	23.72
794.042	-66.39
794.223	-76.63
794.404	-15.19
794.584	-29.52
794.765	36.01
794.945	-4.95
795.126	54.44
795.306	113.83
795.487	25.77
795.667	1.19
795.848	50.35
796.028	60.59
796.209	52.39
796.389	60.59
796.57	17.58
796.75	25.77
796.93	40.11
797.111	-2.9
797.291	-25.43
797.471	-0.85
797.652	19.63
797.832	27.82
798.012	122.02
798.192	-23.38
798.373	-7
798.553	48.3
798.733	-41.81
798.913	13.48
799.093	1.19
799.274	-11.09
799.454	54.44
799.634	89.26
799.814	64.68
799.994	58.54
800.174	101.55
800.354	-17.24
800.534	-50
800.714	74.92
800.894	-29.52
801.074	-25.43
801.254	31.91
801.434	169.13
801.614	64.68
801.794	-45.91
801.974	1522.84
802.154	11.43
802.334	50.35
802.514	-105.3
802.693	-21.33
802.873	15.53
803.053	76.97
803.233	89.26
803.413	-37.72
803.592	-45.91
803.772	19.63
803.952	42.15
804.131	-29.52
804.311	97.45
804.491	128.17
804.67	50.35
804.85	-25.43
805.03	68.78
805.209	126.12
805.389	9.39
805.568	-37.72
805.748	40.11
805.928	-4.95
806.107	42.15
806.287	119.98
806.466	126.12
806.646	3.24
806.825	17.58
807.004	64.68
807.184	9.39
807.363	23.72
807.543	42.15
807.722	-29.52
807.901	33.96
808.081	66.73
808.26	-54.1
808.439	11.43
808.619	50.35
808.798	15.53
808.977	109.74
809.156	97.45
809.336	19.63
809.515	48.3
809.694	-45.91
809.873	40.11
810.052	33.96
810.231	70.83
810.411	19.63
810.59	134.31
810.769	46.25
810.948	17.58
811.127	-144.21
811.306	3.24
811.485	-15.19
811.664	70.83
811.843	76.97
812.022	-17.24
812.201	-9.05
812.38	-17.24
812.559	-41.81
812.737	72.87
812.916	-47.96
813.095	-56.15
813.274	7.34
813.453	13.48
813.632	-23.38
813.811	48.3
813.989	-103.25
814.168	72.87
814.347	-13.14
814.526	17.58
814.704	95.4
814.883	74.92
815.062	-105.3
815.24	56.49
815.419	-37.72
815.598	-45.91
815.776	-168.79
815.955	-29.52
816.133	-117.59
816.312	15.53
816.49	-29.52
816.669	-7
816.847	-33.62
817.026	-4.95
817.204	-58.2
817.383	64.68
817.561	-21.33
817.74	-2.9
817.918	15.53
818.097	1.19
818.275	-13.14
818.453	23.72
818.632	50.35
818.81	-76.63
818.988	-33.62
819.167	17.58
819.345	58.54
819.523	-74.58
819.701	-4.95
819.879	52.39
820.058	48.3
820.236	7.34
820.414	-33.62
820.592	-7
820.77	-21.33
820.948	5.29
821.127	-19.29
821.305	76.97
821.483	1.19
821.661	58.54
821.839	97.45
822.017	-54.1
822.195	-2.9
822.373	50.35
822.551	52.39
822.729	68.78
822.907	-4.95
823.085	27.82
823.262	91.31
823.44	-37.72
823.618	-7
823.796	1.19
823.974	-52.05
824.152	-62.29
824.329	36.01
824.507	52.39
824.685	-4.95
824.863	3.24
825.04	23.72
825.218	132.26
825.396	48.3
825.574	48.3
825.751	21.67
825.929	-9.05
826.107	-15.19
826.284	-43.86
826.462	15.53
826.639	-109.4
826.817	-31.57
826.994	23.72
827.172	-58.2
827.349	40.11
827.527	44.2
827.704	23.72
827.882	38.06
828.059	-13.14
828.237	-19.29
828.414	58.54
828.591	-21.33
828.769	19.63
828.946	36.01
829.124	19.63
829.301	74.92
829.478	-11.09
829.655	11.43
829.833	29.87
830.01	-93.01
830.187	97.45
830.364	23.72
830.542	27.82
830.719	156.84
830.896	3.24
831.073	117.93
831.25	-11.09
831.427	99.5
831.604	48.3
831.782	33.96
831.959	9.39
832.136	38.06
832.313	-4.95
832.49	-4.95
832.667	42.15
832.844	-56.15
833.021	72.87
833.198	1.19
833.374	7.34
833.551	25.77
833.728	17.58
833.905	-21.33
834.082	-138.07
834.259	-31.57
834.436	105.64
834.612	-129.88
834.789	70.83
834.966	93.35
835.143	60.59
835.319	-115.54
835.496	66.73
835.673	11.43
835.85	72.87
836.026	25.77
836.203	66.73
836.38	-45.91
836.556	-13.14
836.733	-27.48
836.909	33.96
837.086	40.11
837.262	-117.59
837.439	-50
837.616	29.87
837.792	-9.05
837.968	48.3
838.145	-54.1
838.321	-17.24
838.498	1.19
838.674	85.16
838.851	7.34
839.027	-41.81
839.203	-4.95
839.38	-0.85
839.556	-60.24
839.732	-4.95
839.909	-17.24
840.085	11.43
840.261	-78.68
840.437	-41.81
840.614	-9.05
840.79	52.39
840.966	62.63
841.142	15.53
841.318	-27.48
841.494	38.06
841.671	-23.38
841.847	-13.14
842.023	-47.96
842.199	-7
842.375	68.78
842.551	-90.96
842.727	-68.44
842.903	81.07
843.079	-33.62
843.255	58.54
843.431	-4.95
843.607	74.92
843.783	-37.72
843.959	36.01
844.134	-56.15
844.31	44.2
844.486	-39.76
844.662	-109.4
844.838	19.63
845.013	13.48
845.189	19.63
845.365	-21.33
845.541	-4.95
845.716	-33.62
845.892	-13.14
846.068	-54.1
846.244	-56.15
846.419	-15.19
846.595	-66.39
846.77	-117.59
846.946	60.59
847.122	-15.19
847.297	27.82
847.473	103.59
847.648	-37.72
847.824	-33.62
847.999	-142.16
848.175	-47.96
848.35	21.67
848.526	105.64
848.701	-29.52
848.876	11.43
849.052	132.26
849.227	-50
849.403	-21.33
849.578	42.15
849.753	-13.14
849.929	68.78
850.104	-52.05
850.279	-4.95
850.454	-64.34
850.63	15.53
850.805	-9.05
850.98	-47.96
851.155	-31.57
851.33	83.11
851.505	-45.91
851.681	68.78
851.856	-45.91
852.031	48.3
852.206	25.77
852.381	-60.24
852.556	-0.85
852.731	-45.91
852.906	-4.95
853.081	-25.43
853.256	48.3
853.431	-29.52
853.606	-39.76
853.781	-41.81
853.956	-88.92
854.131	13.48
854.305	-56.15
854.48	-27.48
854.655	-4.95
854.83	-56.15
855.005	44.2
855.18	21.67
855.354	-13.14
855.529	11.43
855.704	-33.62
855.879	46.25
856.053	-62.29
856.228	50.35
856.403	-17.24
856.577	-13.14
856.752	-76.63
856.926	-2.9
857.101	56.49
857.276	-72.53
857.45	-0.85
857.625	58.54
857.799	58.54
857.974	-15.19
858.148	-127.83
858.323	-15.19
858.497	-17.24
858.672	17.58
858.846	-54.1
859.02	91.31
859.195	-99.16
859.369	-29.52
859.543	42.15
859.718	21.67
859.892	17.58
860.066	3.24
860.241	-80.72
860.415	17.58
860.589	-39.76
860.763	-123.73
860.938	1.19
861.112	38.06
861.286	-35.67
861.46	-4.95
861.634	-29.52
861.808	85.16
861.982	-107.35
862.157	17.58
862.331	-50
862.505	-113.49
862.679	-33.62
862.853	33.96
863.027	-21.33
863.201	87.21
863.375	-64.34
863.549	54.44
863.722	-4.95
863.896	79.02
864.07	-21.33
864.244	13.48
864.418	3.24
864.592	-43.86
864.766	66.73
864.939	-17.24
865.113	-29.52
865.287	7.34
865.461	-31.57
865.634	72.87
865.808	44.2
865.982	-78.68
866.156	3.24
866.329	-74.58
866.503	-15.19
866.676	50.35
866.85	117.93
867.024	-31.57
867.197	-9.05
867.371	56.49
867.544	19.63
867.718	-37.72
867.891	85.16
868.065	-88.92
868.238	-0.85
868.412	11.43
868.585	-7
868.759	-62.29
868.932	3.24
869.105	-62.29
869.279	-64.34
869.452	-103.25
869.625	48.3
869.799	31.91
869.972	-25.43
870.145	-58.2
870.319	17.58
870.492	-70.48
870.665	-103.25
870.838	-60.24
871.011	-88.92
871.185	-7
871.358	-7
871.531	42.15
871.704	-95.06
871.877	11.43
872.05	-17.24
872.223	-140.12
872.396	74.92
872.569	15.53
872.742	-113.49
872.915	44.2
873.088	-25.43
873.261	-45.91
873.434	7.34
873.607	5.29
873.78	36.01
873.953	-62.29
874.126	42.15
874.299	-27.48
874.471	17.58
874.644	-64.34
874.817	19.63
874.99	64.68
875.163	-33.62
875.335	-2.9
875.508	11.43
875.681	81.07
875.853	-37.72
876.026	-54.1
876.199	107.69
876.371	-29.52
876.544	27.82
876.717	-37.72
876.889	-60.24
877.062	44.2
877.234	-146.26
877.407	-4.95
877.579	-35.67
877.752	-9.05
877.924	13.48
878.097	109.74
878.269	11.43
878.442	23.72
878.614	-17.24
878.786	-19.29
878.959	-41.81
879.131	-31.57
879.303	-84.82
879.476	-64.34
879.648	52.39
879.82	-58.2
879.993	-58.2
880.165	-37.72
880.337	-109.4
880.509	-31.57
880.681	-70.48
880.854	-17.24
881.026	76.97
881.198	117.93
881.37	-9.05
881.542	44.2
881.714	-101.2
881.886	-103.25
882.058	23.72
882.23	7.34
882.402	-15.19
882.574	-78.68
882.746	46.25
882.918	48.3
883.09	7.34
883.262	-0.85
883.434	11.43
883.606	-179.03
883.778	60.59
883.95	56.49
884.122	-117.59
884.293	-4.95
884.465	5.29
884.637	66.73
884.809	-33.62
884.98	58.54
885.152	81.07
885.324	46.25
885.496	-21.33
885.667	-31.57
885.839	-66.39
886.011	122.02
886.182	13.48
886.354	48.3
886.525	27.82
886.697	27.82
886.869	-70.48
887.04	-17.24
887.212	44.2
887.383	203.94
887.555	46.25
887.726	21.67
887.897	-62.29
888.069	-13.14
888.24	58.54
888.412	-70.48
888.583	-7
888.754	-60.24
888.926	-111.44
889.097	31.91
889.268	-68.44
889.44	-29.52
889.611	-127.83
889.782	-84.82
889.953	-56.15
890.125	70.83
890.296	-72.53
890.467	-7
890.638	-103.25
890.809	48.3
890.98	-21.33
891.151	-17.24
891.323	31.91
891.494	-58.2
891.665	23.72
891.836	-21.33
892.007	-11.09
892.178	44.2
892.349	-13.14
892.52	-35.67
892.691	33.96
892.862	-70.48
893.032	-74.58
893.203	-54.1
893.374	7.34
893.545	101.55
893.716	-76.63
893.887	27.82
894.057	23.72
894.228	25.77
894.399	-74.58
894.57	54.44
894.74	3.24
894.911	-21.33
895.082	-27.48
895.253	-31.57
895.423	1.19
895.594	-15.19
895.764	50.35
895.935	11.43
896.106	3.24
896.276	-58.2
896.447	-50
896.617	-86.87
896.788	-27.48
896.958	-11.09
897.129	-43.86
897.299	-58.2
897.47	109.74
897.64	60.59
897.81	-29.52
897.981	31.91
898.151	-80.72
898.322	-17.24
898.492	52.39
898.662	-86.87
898.832	-41.81
899.003	-45.91
899.173	27.82
899.343	-33.62
899.513	-72.53
